Data from Rubpy_EV_EDTA_Blank_StopFlow_Absorbance__8__11-00-21-913.txt Node

Date: Thu Jul 09 11:00:21 BST 2026
User: fpm-admin
Spectrometer: SR600986
Trigger mode: 0
Integration Time (sec): 2.500000E-2
Scans to average: 3
Nonlinearity correction enabled: true
Boxcar width: 0
Storing dark spectrum: false
XAxis mode: Wavelengths
Number of Pixels in Spectrum: 2048
>>>>>Begin Spectral Data<<<<<
188.613	0.1
189.078	0.1
189.542	0.12
190.007	0.11
190.472	0.11
190.936	0.11
191.401	0.11
191.865	0.12
192.33	0.11
192.794	0.12
193.258	0.14
193.723	0.14
194.187	0.12
194.651	0.12
195.115	0.12
195.579	0.1
196.043	0.14
196.507	0.11
196.971	0.13
197.435	0.11
197.899	0.12
198.363	0.1
198.827	0.11
199.29	0.11
199.754	0.11
200.218	0.1
200.681	0.11
201.145	0.11
201.608	0.12
202.072	0.12
202.535	0.1
202.998	0.11
203.462	0.13
203.925	0.09
204.388	0.1
204.851	0.1
205.314	0.11
205.777	0.13
206.24	0.09
206.703	0.09
207.166	0.1
207.629	0.11
208.092	0.09
208.555	0.09
209.018	0.1
209.48	0.11
209.943	0.12
210.406	0.12
210.868	0.11
211.331	0.1
211.793	0.09
212.256	0.11
212.718	0.12
213.18	0.11
213.643	0.11
214.105	0.09
214.567	0.11
215.029	0.09
215.491	0.12
215.953	0.11
216.415	0.09
216.877	0.11
217.339	0.11
217.801	0.1
218.263	0.12
218.725	0.12
219.186	0.12
219.648	0.13
220.11	0.11
220.571	0.11
221.033	0.12
221.494	0.1
221.956	0.11
222.417	0.12
222.878	0.14
223.34	0.09
223.801	0.11
224.262	0.11
224.723	0.12
225.185	0.13
225.646	0.1
226.107	0.11
226.568	0.1
227.029	0.11
227.489	0.11
227.95	0.1
228.411	0.12
228.872	0.11
229.332	0.11
229.793	0.11
230.254	0.1
230.714	0.11
231.175	0.11
231.635	0.12
232.096	0.09
232.556	0.09
233.016	0.11
233.477	0.13
233.937	0.1
234.397	0.1
234.857	0.13
235.317	0.1
235.777	0.11
236.237	0.12
236.697	0.11
237.157	0.12
237.617	0.11
238.077	0.12
238.537	0.1
238.996	0.12
239.456	0.1
239.916	0.1
240.375	0.11
240.835	0.11
241.294	0.12
241.754	0.12
242.213	0.11
242.672	0.12
243.132	0.09
243.591	0.08
244.05	0.13
244.509	0.13
244.968	0.11
245.427	0.11
245.886	0.12
246.345	0.11
246.804	0.1
247.263	0.11
247.722	0.1
248.181	0.12
248.639	0.11
249.098	0.1
249.557	0.11
250.015	0.1
250.474	0.12
250.932	0.11
251.391	0.1
251.849	0.09
252.308	0.1
252.766	0.11
253.224	0.11
253.682	0.1
254.14	0.09
254.599	0.12
255.057	0.1
255.515	0.12
255.973	0.12
256.431	0.09
256.888	0.1
257.346	0.12
257.804	0.11
258.262	0.11
258.719	0.11
259.177	0.11
259.635	0.11
260.092	0.1
260.55	0.1
261.007	0.11
261.465	0.12
261.922	0.09
262.379	0.12
262.836	0.13
263.294	0.1
263.751	0.11
264.208	0.09
264.665	0.11
265.122	0.11
265.579	0.12
266.036	0.09
266.493	0.12
266.95	0.09
267.406	0.11
267.863	0.13
268.32	0.11
268.777	0.13
269.233	0.14
269.69	0.11
270.146	0.1
270.603	0.12
271.059	0.11
271.515	0.09
271.972	0.08
272.428	0.13
272.884	0.15
273.34	0.09
273.796	0.1
274.253	0.12
274.709	0.14
275.165	0.1
275.62	0.12
276.076	0.1
276.532	0.11
276.988	0.13
277.444	0.11
277.899	0.1
278.355	0.09
278.811	0.13
279.266	0.1
279.722	0.11
280.177	0.12
280.633	0.13
281.088	0.11
281.543	0.1
281.998	0.13
282.454	0.09
282.909	0.15
283.364	0.13
283.819	0.14
284.274	0.14
284.729	0.11
285.184	0.12
285.639	0.12
286.094	0.11
286.548	0.12
287.003	0.13
287.458	0.09
287.913	0.12
288.367	0.08
288.822	0.11
289.276	0.1
289.731	0.13
290.185	0.14
290.639	0.11
291.094	0.12
291.548	0.09
292.002	0.11
292.456	0.11
292.91	0.12
293.365	0.11
293.819	0.13
294.273	0.11
294.726	0.12
295.18	0.13
295.634	0.1
296.088	0.13
296.542	0.13
296.995	0.11
297.449	0.11
297.903	0.12
298.356	0.1
298.81	0.14
299.263	0.13
299.716	0.09
300.17	0.11
300.623	0.12
301.076	0.12
301.53	0.13
301.983	0.12
302.436	0.1
302.889	0.11
303.342	0.12
303.795	0.12
304.248	0.14
304.701	0.12
305.153	0.12
305.606	0.12
306.059	0.15
306.512	0.14
306.964	0.14
307.417	0.14
307.869	0.13
308.322	0.14
308.774	0.13
309.227	0.12
309.679	0.13
310.131	0.14
310.584	0.14
311.036	0.14
311.488	0.15
311.94	0.16
312.392	0.18
312.844	0.16
313.296	0.16
313.748	0.16
314.2	0.16
314.652	0.16
315.103	0.17
315.555	0.17
316.007	0.16
316.458	0.16
316.91	0.17
317.361	0.17
317.813	0.16
318.264	0.17
318.716	0.17
319.167	0.18
319.618	0.18
320.07	0.19
320.521	0.17
320.972	0.18
321.423	0.16
321.874	0.18
322.325	0.18
322.776	0.19
323.227	0.2
323.678	0.19
324.128	0.2
324.579	0.19
325.03	0.19
325.48	0.2
325.931	0.19
326.382	0.2
326.832	0.2
327.283	0.2
327.733	0.2
328.183	0.22
328.634	0.22
329.084	0.22
329.534	0.23
329.984	0.23
330.434	0.24
330.884	0.23
331.334	0.24
331.784	0.25
332.234	0.25
332.684	0.25
333.134	0.26
333.584	0.26
334.034	0.27
334.483	0.27
334.933	0.27
335.382	0.28
335.832	0.29
336.281	0.29
336.731	0.29
337.18	0.29
337.63	0.31
338.079	0.31
338.528	0.31
338.977	0.32
339.426	0.33
339.876	0.33
340.325	0.35
340.774	0.35
341.223	0.35
341.671	0.36
342.12	0.36
342.569	0.37
343.018	0.37
343.467	0.39
343.915	0.39
344.364	0.39
344.812	0.4
345.261	0.41
345.709	0.42
346.158	0.42
346.606	0.42
347.054	0.43
347.503	0.45
347.951	0.45
348.399	0.46
348.847	0.47
349.295	0.47
349.743	0.47
350.191	0.49
350.639	0.49
351.087	0.51
351.535	0.51
351.983	0.53
352.43	0.53
352.878	0.54
353.326	0.55
353.773	0.57
354.221	0.57
354.668	0.59
355.116	0.59
355.563	0.61
356.01	0.61
356.458	0.62
356.905	0.63
357.352	0.64
357.799	0.65
358.246	0.66
358.693	0.66
359.14	0.67
359.587	0.67
360.034	0.68
360.481	0.69
360.928	0.7
361.375	0.7
361.821	0.7
362.268	0.72
362.714	0.72
363.161	0.72
363.608	0.73
364.054	0.74
364.5	0.74
364.947	0.75
365.393	0.76
365.839	0.76
366.285	0.76
366.732	0.76
367.178	0.76
367.624	0.76
368.07	0.75
368.516	0.75
368.962	0.75
369.408	0.73
369.853	0.73
370.299	0.72
370.745	0.7
371.19	0.71
371.636	0.7
372.082	0.69
372.527	0.69
372.973	0.68
373.418	0.67
373.863	0.67
374.309	0.67
374.754	0.66
375.199	0.66
375.644	0.66
376.09	0.66
376.535	0.66
376.98	0.66
377.425	0.66
377.87	0.66
378.314	0.66
378.759	0.67
379.204	0.67
379.649	0.68
380.093	0.69
380.538	0.7
380.983	0.71
381.427	0.71
381.872	0.73
382.316	0.74
382.76	0.75
383.205	0.76
383.649	0.75
384.093	0.77
384.537	0.76
384.982	0.76
385.426	0.75
385.87	0.75
386.314	0.74
386.758	0.73
387.201	0.72
387.645	0.72
388.089	0.72
388.533	0.72
388.976	0.73
389.42	0.73
389.864	0.74
390.307	0.76
390.751	0.79
391.194	0.81
391.638	0.84
392.081	0.87
392.524	0.9
392.967	0.92
393.411	0.94
393.854	0.96
394.297	0.98
394.74	0.99
395.183	0.98
395.626	0.99
396.069	0.96
396.512	0.94
396.954	0.92
397.397	0.88
397.84	0.85
398.282	0.8
398.725	0.77
399.168	0.71
399.61	0.66
400.052	0.62
400.495	0.57
400.937	0.53
401.38	0.49
401.822	0.45
402.264	0.42
402.706	0.39
403.148	0.35
403.59	0.33
404.032	0.31
404.474	0.28
404.916	0.27
405.358	0.25
405.8	0.23
406.241	0.22
406.683	0.21
407.125	0.2
407.566	0.18
408.008	0.17
408.449	0.16
408.891	0.16
409.332	0.16
409.774	0.16
410.215	0.14
410.656	0.13
411.097	0.13
411.539	0.13
411.98	0.12
412.421	0.12
412.862	0.12
413.303	0.12
413.744	0.11
414.184	0.11
414.625	0.1
415.066	0.11
415.507	0.1
415.947	0.09
416.388	0.09
416.828	0.1
417.269	0.09
417.709	0.09
418.15	0.09
418.59	0.09
419.03	0.09
419.471	0.09
419.911	0.08
420.351	0.08
420.791	0.09
421.231	0.08
421.671	0.09
422.111	0.08
422.551	0.08
422.991	0.09
423.431	0.07
423.87	0.08
424.31	0.07
424.75	0.08
425.189	0.07
425.629	0.08
426.068	0.08
426.508	0.08
426.947	0.07
427.386	0.08
427.826	0.08
428.265	0.09
428.704	0.08
429.143	0.07
429.582	0.08
430.021	0.08
430.46	0.07
430.899	0.06
431.338	0.07
431.777	0.08
432.216	0.08
432.655	0.08
433.093	0.08
433.532	0.08
433.971	0.08
434.409	0.09
434.848	0.08
435.286	0.08
435.724	0.07
436.163	0.08
436.601	0.08
437.039	0.07
437.477	0.09
437.916	0.08
438.354	0.09
438.792	0.08
439.23	0.08
439.668	0.07
440.105	0.07
440.543	0.06
440.981	0.08
441.419	0.08
441.856	0.07
442.294	0.08
442.732	0.07
443.169	0.1
443.607	0.07
444.044	0.1
444.481	0.08
444.919	0.09
445.356	0.08
445.793	0.07
446.23	0.1
446.668	0.09
447.105	0.08
447.542	0.08
447.979	0.08
448.416	0.09
448.852	0.09
449.289	0.1
449.726	0.09
450.163	0.08
450.599	0.09
451.036	0.08
451.473	0.09
451.909	0.09
452.346	0.08
452.782	0.08
453.218	0.08
453.655	0.09
454.091	0.1
454.527	0.09
454.963	0.1
455.399	0.09
455.835	0.1
456.271	0.11
456.707	0.09
457.143	0.09
457.579	0.09
458.015	0.1
458.451	0.09
458.886	0.1
459.322	0.1
459.758	0.1
460.193	0.11
460.629	0.11
461.064	0.11
461.5	0.1
461.935	0.1
462.37	0.11
462.805	0.11
463.241	0.12
463.676	0.11
464.111	0.1
464.546	0.11
464.981	0.11
465.416	0.09
465.851	0.11
466.286	0.11
466.72	0.1
467.155	0.12
467.59	0.1
468.024	0.11
468.459	0.11
468.893	0.12
469.328	0.11
469.762	0.12
470.197	0.11
470.631	0.12
471.065	0.12
471.5	0.11
471.934	0.13
472.368	0.12
472.802	0.12
473.236	0.13
473.67	0.13
474.104	0.12
474.538	0.13
474.972	0.14
475.405	0.13
475.839	0.13
476.273	0.14
476.706	0.14
477.14	0.14
477.573	0.14
478.007	0.14
478.44	0.14
478.874	0.15
479.307	0.15
479.74	0.15
480.173	0.15
480.606	0.15
481.04	0.15
481.473	0.15
481.906	0.16
482.339	0.15
482.771	0.15
483.204	0.15
483.637	0.15
484.07	0.16
484.502	0.16
484.935	0.17
485.368	0.16
485.8	0.16
486.233	0.17
486.665	0.16
487.098	0.17
487.53	0.17
487.962	0.17
488.394	0.17
488.827	0.18
489.259	0.17
489.691	0.18
490.123	0.18
490.555	0.18
490.987	0.18
491.418	0.18
491.85	0.18
492.282	0.19
492.714	0.19
493.145	0.19
493.577	0.19
494.009	0.19
494.44	0.19
494.872	0.19
495.303	0.19
495.734	0.2
496.166	0.2
496.597	0.2
497.028	0.2
497.459	0.2
497.89	0.21
498.321	0.21
498.752	0.21
499.183	0.21
499.614	0.21
500.045	0.21
500.476	0.22
500.906	0.22
501.337	0.22
501.768	0.22
502.198	0.23
502.629	0.22
503.059	0.23
503.49	0.23
503.92	0.23
504.35	0.23
504.781	0.23
505.211	0.23
505.641	0.24
506.071	0.24
506.501	0.24
506.931	0.24
507.361	0.24
507.791	0.24
508.221	0.24
508.651	0.25
509.081	0.25
509.51	0.25
509.94	0.25
510.37	0.25
510.799	0.25
511.229	0.25
511.658	0.25
512.087	0.26
512.517	0.26
512.946	0.26
513.375	0.26
513.804	0.27
514.234	0.27
514.663	0.27
515.092	0.27
515.521	0.27
515.95	0.27
516.378	0.28
516.807	0.28
517.236	0.27
517.665	0.28
518.093	0.28
518.522	0.28
518.951	0.28
519.379	0.28
519.807	0.28
520.236	0.28
520.664	0.29
521.093	0.29
521.521	0.29
521.949	0.29
522.377	0.29
522.805	0.29
523.233	0.3
523.661	0.3
524.089	0.3
524.517	0.3
524.945	0.3
525.373	0.3
525.8	0.3
526.228	0.3
526.656	0.3
527.083	0.3
527.511	0.31
527.938	0.31
528.366	0.31
528.793	0.31
529.22	0.31
529.648	0.31
530.075	0.31
530.502	0.32
530.929	0.32
531.356	0.32
531.783	0.32
532.21	0.32
532.637	0.32
533.064	0.32
533.49	0.32
533.917	0.33
534.344	0.33
534.771	0.33
535.197	0.33
535.624	0.33
536.05	0.33
536.477	0.33
536.903	0.33
537.329	0.33
537.755	0.33
538.182	0.34
538.608	0.34
539.034	0.34
539.46	0.34
539.886	0.34
540.312	0.34
540.738	0.35
541.164	0.35
541.589	0.35
542.015	0.35
542.441	0.35
542.867	0.35
543.292	0.35
543.718	0.36
544.143	0.36
544.569	0.36
544.994	0.36
545.419	0.36
545.845	0.36
546.27	0.36
546.695	0.36
547.12	0.36
547.545	0.37
547.97	0.36
548.395	0.37
548.82	0.37
549.245	0.37
549.67	0.37
550.094	0.37
550.519	0.37
550.944	0.37
551.368	0.37
551.793	0.37
552.217	0.37
552.642	0.37
553.066	0.37
553.49	0.37
553.915	0.37
554.339	0.37
554.763	0.37
555.187	0.37
555.611	0.37
556.035	0.38
556.459	0.38
556.883	0.38
557.307	0.38
557.731	0.38
558.154	0.38
558.578	0.38
559.002	0.38
559.425	0.38
559.849	0.38
560.272	0.38
560.696	0.38
561.119	0.38
561.543	0.38
561.966	0.38
562.389	0.38
562.812	0.38
563.235	0.38
563.658	0.38
564.081	0.38
564.504	0.38
564.927	0.38
565.35	0.38
565.773	0.38
566.196	0.38
566.618	0.38
567.041	0.38
567.463	0.37
567.886	0.38
568.309	0.37
568.731	0.38
569.153	0.38
569.576	0.38
569.998	0.38
570.42	0.37
570.842	0.38
571.264	0.38
571.686	0.38
572.108	0.38
572.53	0.38
572.952	0.38
573.374	0.38
573.796	0.37
574.218	0.38
574.639	0.37
575.061	0.38
575.483	0.37
575.904	0.38
576.326	0.37
576.747	0.37
577.168	0.37
577.59	0.37
578.011	0.37
578.432	0.37
578.853	0.37
579.274	0.37
579.695	0.37
580.116	0.37
580.537	0.38
580.958	0.38
581.379	0.37
581.8	0.37
582.221	0.37
582.641	0.38
583.062	0.38
583.482	0.38
583.903	0.38
584.323	0.38
584.744	0.38
585.164	0.38
585.584	0.38
586.005	0.38
586.425	0.38
586.845	0.38
587.265	0.38
587.685	0.38
588.105	0.38
588.525	0.38
588.945	0.39
589.365	0.39
589.785	0.39
590.204	0.39
590.624	0.39
591.044	0.39
591.463	0.39
591.883	0.39
592.302	0.39
592.721	0.39
593.141	0.4
593.56	0.4
593.979	0.4
594.399	0.4
594.818	0.4
595.237	0.4
595.656	0.4
596.075	0.4
596.494	0.4
596.913	0.4
597.331	0.4
597.75	0.4
598.169	0.4
598.587	0.4
599.006	0.4
599.425	0.4
599.843	0.4
600.262	0.4
600.68	0.4
601.098	0.4
601.517	0.4
601.935	0.4
602.353	0.4
602.771	0.4
603.189	0.4
603.607	0.4
604.025	0.4
604.443	0.39
604.861	0.4
605.279	0.39
605.696	0.39
606.114	0.39
606.532	0.39
606.949	0.39
607.367	0.39
607.784	0.39
608.202	0.39
608.619	0.39
609.036	0.38
609.454	0.38
609.871	0.38
610.288	0.38
610.705	0.38
611.122	0.38
611.539	0.37
611.956	0.37
612.373	0.37
612.79	0.37
613.207	0.37
613.623	0.37
614.04	0.37
614.457	0.36
614.873	0.36
615.29	0.36
615.706	0.36
616.122	0.36
616.539	0.36
616.955	0.36
617.371	0.36
617.788	0.35
618.204	0.35
618.62	0.35
619.036	0.35
619.452	0.34
619.868	0.34
620.284	0.34
620.699	0.34
621.115	0.34
621.531	0.34
621.946	0.34
622.362	0.33
622.778	0.33
623.193	0.33
623.608	0.33
624.024	0.33
624.439	0.33
624.854	0.32
625.27	0.32
625.685	0.32
626.1	0.32
626.515	0.31
626.93	0.31
627.345	0.31
627.76	0.31
628.175	0.31
628.589	0.3
629.004	0.3
629.419	0.3
629.833	0.29
630.248	0.29
630.663	0.29
631.077	0.29
631.491	0.29
631.906	0.28
632.32	0.28
632.734	0.28
633.148	0.27
633.563	0.27
633.977	0.27
634.391	0.27
634.805	0.27
635.219	0.26
635.632	0.26
636.046	0.26
636.46	0.26
636.874	0.25
637.287	0.25
637.701	0.25
638.115	0.25
638.528	0.25
638.941	0.25
639.355	0.24
639.768	0.24
640.181	0.24
640.595	0.24
641.008	0.23
641.421	0.23
641.834	0.23
642.247	0.23
642.66	0.23
643.073	0.23
643.486	0.23
643.898	0.22
644.311	0.22
644.724	0.22
645.136	0.22
645.549	0.22
645.961	0.22
646.374	0.21
646.786	0.21
647.199	0.21
647.611	0.21
648.023	0.21
648.435	0.21
648.847	0.21
649.26	0.21
649.672	0.21
650.084	0.21
650.495	0.21
650.907	0.21
651.319	0.21
651.731	0.21
652.143	0.21
652.554	0.21
652.966	0.21
653.377	0.21
653.789	0.21
654.2	0.18
654.612	0.14
655.023	0.11
655.434	0.11
655.845	0.16
656.256	0.21
656.668	0.2
657.079	0.2
657.49	0.2
657.901	0.2
658.311	0.2
658.722	0.2
659.133	0.2
659.544	0.2
659.954	0.2
660.365	0.2
660.775	0.2
661.186	0.19
661.596	0.2
662.007	0.2
662.417	0.2
662.827	0.2
663.238	0.19
663.648	0.19
664.058	0.19
664.468	0.19
664.878	0.19
665.288	0.19
665.698	0.19
666.108	0.19
666.517	0.19
666.927	0.19
667.337	0.18
667.746	0.18
668.156	0.18
668.565	0.18
668.975	0.18
669.384	0.18
669.794	0.18
670.203	0.18
670.612	0.18
671.021	0.17
671.43	0.17
671.84	0.17
672.249	0.17
672.658	0.17
673.066	0.17
673.475	0.17
673.884	0.17
674.293	0.16
674.702	0.16
675.11	0.16
675.519	0.16
675.927	0.16
676.336	0.16
676.744	0.15
677.152	0.15
677.561	0.15
677.969	0.15
678.377	0.15
678.785	0.15
679.193	0.15
679.601	0.14
680.009	0.14
680.417	0.14
680.825	0.14
681.233	0.14
681.641	0.14
682.048	0.14
682.456	0.13
682.864	0.14
683.271	0.13
683.679	0.13
684.086	0.13
684.493	0.13
684.901	0.13
685.308	0.12
685.715	0.12
686.122	0.12
686.529	0.12
686.936	0.12
687.343	0.12
687.75	0.12
688.157	0.12
688.564	0.11
688.971	0.11
689.378	0.11
689.784	0.11
690.191	0.11
690.597	0.11
691.004	0.11
691.41	0.11
691.817	0.1
692.223	0.11
692.629	0.1
693.035	0.1
693.442	0.1
693.848	0.1
694.254	0.1
694.66	0.09
695.066	0.09
695.471	0.09
695.877	0.09
696.283	0.09
696.689	0.09
697.094	0.09
697.5	0.09
697.906	0.09
698.311	0.09
698.716	0.09
699.122	0.09
699.527	0.09
699.932	0.08
700.338	0.09
700.743	0.08
701.148	0.08
701.553	0.08
701.958	0.08
702.363	0.08
702.768	0.08
703.173	0.08
703.577	0.08
703.982	0.08
704.387	0.08
704.791	0.08
705.196	0.08
705.6	0.08
706.005	0.08
706.409	0.08
706.814	0.08
707.218	0.08
707.622	0.08
708.026	0.08
708.43	0.08
708.834	0.08
709.238	0.08
709.642	0.08
710.046	0.08
710.45	0.08
710.854	0.08
711.257	0.08
711.661	0.08
712.065	0.08
712.468	0.08
712.872	0.08
713.275	0.08
713.679	0.08
714.082	0.08
714.485	0.08
714.888	0.08
715.291	0.08
715.695	0.08
716.098	0.08
716.501	0.08
716.904	0.08
717.306	0.08
717.709	0.08
718.112	0.08
718.515	0.08
718.917	0.08
719.32	0.08
719.723	0.08
720.125	0.08
720.527	0.08
720.93	0.08
721.332	0.08
721.734	0.08
722.137	0.08
722.539	0.09
722.941	0.09
723.343	0.09
723.745	0.08
724.147	0.08
724.549	0.08
724.95	0.08
725.352	0.08
725.754	0.08
726.156	0.09
726.557	0.09
726.959	0.09
727.36	0.09
727.762	0.09
728.163	0.09
728.564	0.09
728.966	0.09
729.367	0.09
729.768	0.09
730.169	0.08
730.57	0.09
730.971	0.09
731.372	0.09
731.773	0.09
732.174	0.09
732.574	0.09
732.975	0.09
733.376	0.09
733.776	0.09
734.177	0.09
734.577	0.08
734.978	0.09
735.378	0.09
735.778	0.08
736.179	0.09
736.579	0.09
736.979	0.09
737.379	0.08
737.779	0.08
738.179	0.08
738.579	0.08
738.979	0.08
739.379	0.08
739.778	0.08
740.178	0.08
740.578	0.08
740.977	0.08
741.377	0.08
741.776	0.08
742.176	0.08
742.575	0.08
742.974	0.08
743.374	0.08
743.773	0.08
744.172	0.08
744.571	0.08
744.97	0.07
745.369	0.07
745.768	0.07
746.167	0.07
746.565	0.07
746.964	0.07
747.363	0.07
747.761	0.07
748.16	0.07
748.559	0.07
748.957	0.07
749.355	0.07
749.754	0.07
750.152	0.07
750.55	0.07
750.948	0.07
751.347	0.07
751.745	0.07
752.143	0.06
752.541	0.06
752.938	0.06
753.336	0.06
753.734	0.06
754.132	0.06
754.529	0.06
754.927	0.06
755.325	0.06
755.722	0.06
756.119	0.06
756.517	0.06
756.914	0.06
757.311	0.06
757.709	0.06
758.106	0.06
758.503	0.06
758.9	0.06
759.297	0.06
759.694	0.06
760.091	0.06
760.488	0.06
760.884	0.06
761.281	0.06
761.678	0.06
762.074	0.06
762.471	0.05
762.867	0.06
763.264	0.06
763.66	0.06
764.056	0.06
764.453	0.05
764.849	0.05
765.245	0.05
765.641	0.05
766.037	0.05
766.433	0.05
766.829	0.05
767.225	0.05
767.621	0.05
768.016	0.05
768.412	0.05
768.808	0.05
769.203	0.06
769.599	0.05
769.994	0.05
770.389	0.05
770.785	0.05
771.18	0.05
771.575	0.05
771.971	0.05
772.366	0.05
772.761	0.05
773.156	0.05
773.551	0.05
773.945	0.05
774.34	0.05
774.735	0.05
775.13	0.05
775.524	0.05
775.919	0.05
776.314	0.05
776.708	0.05
777.103	0.05
777.497	0.05
777.891	0.05
778.285	0.05
778.68	0.05
779.074	0.05
779.468	0.06
779.862	0.05
780.256	0.05
780.65	0.05
781.044	0.06
781.438	0.06
781.831	0.06
782.225	0.05
782.619	0.05
783.012	0.05
783.406	0.05
783.799	0.05
784.193	0.06
784.586	0.05
784.979	0.06
785.372	0.06
785.766	0.06
786.159	0.06
786.552	0.05
786.945	0.06
787.338	0.06
787.731	0.06
788.123	0.06
788.516	0.06
788.909	0.06
789.302	0.06
789.694	0.06
790.087	0.06
790.479	0.06
790.872	0.06
791.264	0.06
791.656	0.06
792.049	0.06
792.441	0.06
792.833	0.06
793.225	0.06
793.617	0.06
794.009	0.06
794.401	0.06
794.793	0.06
795.185	0.06
795.576	0.06
795.968	0.06
796.36	0.06
796.751	0.06
797.143	0.06
797.534	0.06
797.926	0.06
798.317	0.06
798.708	0.06
799.1	0.06
799.491	0.06
799.882	0.06
800.273	0.06
800.664	0.06
801.055	0.06
801.446	0.06
801.837	0.06
802.227	0.06
802.618	0.06
803.009	0.07
803.399	0.07
803.79	0.07
804.18	0.07
804.571	0.07
804.961	0.06
805.351	0.06
805.742	0.07
806.132	0.06
806.522	0.07
806.912	0.06
807.302	0.06
807.692	0.07
808.082	0.07
808.472	0.07
808.862	0.07
809.251	0.07
809.641	0.07
810.031	0.06
810.42	0.07
810.81	0.07
811.199	0.07
811.589	0.07
811.978	0.07
812.367	0.07
812.756	0.07
813.146	0.07
813.535	0.07
813.924	0.07
814.313	0.07
814.702	0.07
815.091	0.07
815.479	0.07
815.868	0.07
816.257	0.07
816.645	0.07
817.034	0.07
817.423	0.07
817.811	0.07
818.199	0.07
818.588	0.07
818.976	0.07
819.364	0.07
819.753	0.07
820.141	0.07
820.529	0.07
820.917	0.07
821.305	0.07
821.693	0.07
822.08	0.07
822.468	0.07
822.856	0.07
823.244	0.07
823.631	0.07
824.019	0.07
824.406	0.07
824.794	0.07
825.181	0.07
825.568	0.08
825.956	0.07
826.343	0.07
826.73	0.07
827.117	0.07
827.504	0.07
827.891	0.07
828.278	0.07
828.665	0.08
829.052	0.07
829.438	0.07
829.825	0.07
830.212	0.07
830.598	0.07
830.985	0.08
831.371	0.08
831.757	0.08
832.144	0.08
832.53	0.08
832.916	0.08
833.302	0.08
833.688	0.08
834.075	0.07
834.461	0.08
834.846	0.08
835.232	0.08
835.618	0.08
836.004	0.08
836.39	0.08
836.775	0.08
837.161	0.08
837.546	0.08
837.932	0.08
838.317	0.08
838.702	0.08
839.088	0.08
839.473	0.08
839.858	0.08
840.243	0.08
840.628	0.08
841.013	0.08
841.398	0.08
841.783	0.08
842.168	0.08
842.553	0.08
842.937	0.08
843.322	0.08
843.707	0.08
844.091	0.08
844.476	0.08
844.86	0.08
845.244	0.08
845.629	0.08
846.013	0.08
846.397	0.08
846.781	0.08
847.165	0.08
847.549	0.08
847.933	0.08
848.317	0.08
848.701	0.08
849.085	0.08
849.468	0.08
849.852	0.08
850.236	0.08
850.619	0.08
851.003	0.08
851.386	0.08
851.769	0.08
852.153	0.08
852.536	0.08
852.919	0.08
853.302	0.08
853.685	0.08
854.068	0.08
854.451	0.08
854.834	0.08
855.217	0.08
855.6	0.08
855.982	0.08
856.365	0.08
856.748	0.08
857.13	0.08
857.513	0.08
857.895	0.09
858.277	0.08
858.66	0.08
859.042	0.08
859.424	0.08
859.806	0.08
860.188	0.08
860.57	0.08
860.952	0.08
861.334	0.08
861.716	0.08
862.098	0.08
862.48	0.08
862.861	0.08
863.243	0.08
863.624	0.08
864.006	0.08
864.387	0.08
864.769	0.08
865.15	0.08
865.531	0.08
865.912	0.08
866.294	0.08
866.675	0.08
867.056	0.08
867.437	0.08
867.818	0.08
868.198	0.08
868.579	0.08
868.96	0.08
869.341	0.08
869.721	0.08
870.102	0.08
870.482	0.08
870.863	0.08
871.243	0.08
871.623	0.08
872.003	0.08
872.384	0.08
872.764	0.08
873.144	0.08
873.524	0.08
873.904	0.09
874.284	0.08
874.664	0.09
875.043	0.08
875.423	0.08
875.803	0.08
876.182	0.08
876.562	0.08
876.941	0.08
877.321	0.08
877.7	0.08
878.079	0.08
878.459	0.08
878.838	0.08
879.217	0.08
879.596	0.08
879.975	0.08
880.354	0.08
880.733	0.08
881.112	0.08
881.491	0.08
881.869	0.08
882.248	0.08
882.627	0.08
883.005	0.08
883.384	0.08
883.762	0.08
884.14	0.08
884.519	0.08
884.897	0.08
885.275	0.08
885.653	0.08
886.031	0.08
886.409	0.08
886.787	0.08
887.165	0.08
887.543	0.08
887.921	0.08
888.298	0.08
888.676	0.08
889.054	0.08
889.431	0.08
889.809	0.08
890.186	0.08
890.563	0.08
890.941	0.08
891.318	0.08
891.695	0.08
892.072	0.08
892.449	0.08
892.826	0.08
893.203	0.08
893.58	0.08
893.957	0.08
894.334	0.08
894.71	0.08
895.087	0.08
895.464	0.08
895.84	0.08
896.217	0.08
896.593	0.08
896.969	0.08
897.346	0.08
897.722	0.08
898.098	0.08
898.474	0.08
898.85	0.08
899.226	0.08
899.602	0.08
899.978	0.08
900.354	0.08
900.73	0.08
901.105	0.08
901.481	0.08
901.857	0.08
902.232	0.08
902.608	0.08
902.983	0.08
903.358	0.08
903.734	0.08
904.109	0.08
904.484	0.08
904.859	0.08
905.234	0.08
905.609	0.07
905.984	0.08
906.359	0.08
906.734	0.08
907.108	0.07
907.483	0.08
907.858	0.07
908.232	0.08
908.607	0.08
908.981	0.08
909.356	0.08
909.73	0.08
910.104	0.08
910.478	0.08
910.853	0.08
911.227	0.08
911.601	0.08
911.975	0.08
912.349	0.08
912.722	0.08
913.096	0.08
913.47	0.08
913.844	0.08
914.217	0.08
914.591	0.08
914.964	0.08
915.338	0.08
915.711	0.08
916.084	0.08
916.458	0.08
916.831	0.08
917.204	0.08
917.577	0.07
917.95	0.08
918.323	0.08
918.696	0.07
919.069	0.08
919.441	0.08
919.814	0.07
920.187	0.07
920.559	0.08
920.932	0.08
921.304	0.08
921.677	0.07
922.049	0.07
922.421	0.07
922.794	0.07
923.166	0.07
923.538	0.07
923.91	0.07
924.282	0.07
924.654	0.07
925.026	0.07
925.398	0.07
925.769	0.07
926.141	0.07
926.513	0.07
926.884	0.07
927.256	0.07
927.627	0.07
927.999	0.07
928.37	0.07
928.741	0.07
929.113	0.07
929.484	0.07
929.855	0.07
930.226	0.07
930.597	0.07
930.968	0.07
931.339	0.07
931.709	0.07
932.08	0.07
932.451	0.07
932.821	0.07
933.192	0.07
933.562	0.07
933.933	0.07
934.303	0.07
934.673	0.07
935.044	0.07
935.414	0.07
935.784	0.07
936.154	0.07
936.524	0.07
936.894	0.07
937.264	0.07
937.634	0.07
938.004	0.07
938.373	0.07
938.743	0.07
939.113	0.07
939.482	0.07
939.852	0.07
940.221	0.07
940.59	0.07
940.96	0.07
941.329	0.07
941.698	0.07
942.067	0.07
942.436	0.07
942.805	0.07
943.174	0.07
943.543	0.07
943.912	0.07
944.28	0.07
944.649	0.07
945.018	0.07
945.386	0.06
945.755	0.06
946.123	0.06
946.492	0.07
946.86	0.07
947.228	0.06
947.596	0.06
947.965	0.06
948.333	0.07
948.701	0.07
949.069	0.06
949.437	0.06
949.804	0.06
950.172	0.06
950.54	0.06
950.908	0.06
951.275	0.06
951.643	0.06
952.01	0.06
952.378	0.06
952.745	0.06
953.112	0.06
953.479	0.06
953.847	0.06
954.214	0.06
954.581	0.06
954.948	0.06
955.315	0.06
955.682	0.06
956.048	0.06
956.415	0.06
956.782	0.06
957.148	0.06
957.515	0.06
957.881	0.06
958.248	0.06
958.614	0.07
958.981	0.06
959.347	0.06
959.713	0.06
960.079	0.06
960.445	0.06
960.811	0.06
961.177	0.06
961.543	0.06
961.909	0.06
962.275	0.06
962.641	0.06
963.006	0.06
963.372	0.06
963.737	0.06
964.103	0.06
964.468	0.06
964.834	0.06
965.199	0.06
965.564	0.06
965.929	0.06
966.294	0.06
966.659	0.06
967.024	0.06
967.389	0.06
967.754	0.06
968.119	0.06
968.484	0.06
968.848	0.05
969.213	0.06
969.578	0.06
969.942	0.05
970.307	0.06
970.671	0.06
971.035	0.05
971.399	0.06
971.764	0.05
972.128	0.05
972.492	0.05
972.856	0.06
973.22	0.05
973.584	0.06
973.948	0.06
974.311	0.05
974.675	0.05
975.039	0.06
975.402	0.06
975.766	0.05
976.129	0.06
976.493	0.05
976.856	0.06
977.219	0.05
977.582	0.06
977.946	0.05
978.309	0.06
978.672	0.06
979.035	0.06
979.398	0.06
979.761	0.06
980.123	0.05
980.486	0.05
980.849	0.05
981.211	0.05
981.574	0.05
981.936	0.05
982.299	0.05
982.661	0.05
983.023	0.05
983.386	0.05
983.748	0.05
984.11	0.05
984.472	0.05
984.834	0.05
985.196	0.06
985.558	0.05
985.92	0.06
986.281	0.06
986.643	0.06
987.005	0.06
987.366	0.05
987.728	0.05
988.089	0.05
988.451	0.05
988.812	0.05
989.173	0.05
989.534	0.05
989.895	0.05
990.257	0.06
990.618	0.06
990.979	0.05
991.339	0.06
991.7	0.05
992.061	0.06
992.422	0.06
992.782	0.06
993.143	0.05
993.503	0.05
993.864	0.05
994.224	0.06
994.585	0.05
994.945	0.05
995.305	0.05
995.665	0.05
996.025	0.05
996.385	0.05
996.745	0.05
997.105	0.05
997.465	0.05
997.825	0.05
998.185	0.06
998.544	0.05
998.904	0.05
999.263	0.05
999.623	0.05
999.982	0.05
1000.342	0.05
1000.701	0.05
1001.06	0.05
1001.419	0.05
1001.778	0.05
1002.138	0.05
1002.497	0.05
1002.855	0.05
1003.214	0.05
1003.573	0.05
1003.932	0.05
1004.29	0.04
1004.649	0.05
1005.008	0.05
1005.366	0.04
1005.725	0.05
1006.083	0.05
1006.441	0.05
1006.799	0.05
1007.158	0.04
1007.516	0.05
1007.874	0.05
1008.232	0.05
1008.59	0.05
1008.948	0.05
1009.305	0.05
1009.663	0.05
1010.021	0.05
1010.379	0.05
1010.736	0.05
1011.094	0.04
1011.451	0.05
1011.808	0.04
1012.166	0.05
1012.523	0.04
1012.88	0.05
1013.237	0.04
1013.594	0.04
1013.951	0.04
1014.308	0.04
1014.665	0.04
1015.022	0.04
1015.379	0.05
1015.735	0.04
1016.092	0.04
1016.449	0.04
1016.805	0.04
1017.162	0.04
1017.518	0.04
1017.874	0.04
1018.231	0.04
1018.587	0.04
1018.943	0.05
1019.299	0.04
1019.655	0.05
1020.011	0.04
1020.367	0.04
1020.723	0.04
1021.078	0.04
1021.434	0.05
1021.79	0.05
1022.145	0.04
1022.501	0.04
1022.856	0.04
1023.212	0.05
1023.567	0.04
1023.922	0.04
1024.278	0.04
1024.633	0.04
1024.988	0.05
1025.343	0.04
1025.698	0.04
1026.053	0.04
1026.408	0.04
1026.762	0.04
1027.117	0.04
1027.472	0.04
1027.826	0.04
1028.181	0.04
1028.535	0.04
1028.89	0.04
1029.244	0.04
1029.598	0.04
1029.952	0.05
1030.307	0.04
1030.661	0.05
1031.015	0.04
1031.369	0.05
1031.723	0.04
1032.076	0.04
