Data from Fluorescein_EV_EDTA_Batch_1_Absorbance__478__11-17-37-497.txt Node

Date: Wed Jul 29 11:17:37 BST 2026
User: fpm-admin
Spectrometer: SR600986
Trigger mode: 0
Integration Time (sec): 5.000000E-2
Scans to average: 3
Nonlinearity correction enabled: true
Boxcar width: 0
Storing dark spectrum: false
XAxis mode: Wavelengths
Number of Pixels in Spectrum: 2048
>>>>>Begin Spectral Data<<<<<
188.613	0
189.078	0
189.542	-0
190.007	0.01
190.472	-0.01
190.936	0.02
191.401	0.02
191.865	-0.01
192.33	-0.01
192.794	0.02
193.258	-0.01
193.723	0.02
194.187	0.02
194.651	0.01
195.115	0.04
195.579	0.03
196.043	-0
196.507	0
196.971	0.01
197.435	0.04
197.899	0.05
198.363	0.06
198.827	0.01
199.29	0.03
199.754	0.01
200.218	0.04
200.681	0.05
201.145	0.04
201.608	0.02
202.072	0.02
202.535	0.04
202.998	0.04
203.462	0
203.925	0.03
204.388	0.02
204.851	0
205.314	0
205.777	0.04
206.24	0.02
206.703	0.04
207.166	0.03
207.629	0.01
208.092	0.01
208.555	0.04
209.018	0.03
209.48	0.01
209.943	0.01
210.406	-0.01
210.868	0.03
211.331	0.02
211.793	0.04
212.256	0.04
212.718	-0.01
213.18	0.01
213.643	0.02
214.105	0.08
214.567	-0
215.029	0.01
215.491	0.04
215.953	0.05
216.415	-0.01
216.877	0.02
217.339	0.05
217.801	0.01
218.263	0.03
218.725	0.04
219.186	0.06
219.648	0.01
220.11	0.03
220.571	0.04
221.033	0.05
221.494	0.01
221.956	0.02
222.417	0.02
222.878	0.02
223.34	0.01
223.801	0.05
224.262	0.04
224.723	0
225.185	0.02
225.646	0.03
226.107	0.01
226.568	0.04
227.029	0.03
227.489	0.03
227.95	0.01
228.411	0.02
228.872	0.04
229.332	0.01
229.793	0.02
230.254	0.05
230.714	0.04
231.175	0.04
231.635	0.01
232.096	0.04
232.556	0.03
233.016	-0
233.477	0.03
233.937	0
234.397	0.04
234.857	0.05
235.317	0
235.777	0.05
236.237	0.04
236.697	0.04
237.157	0.03
237.617	0.05
238.077	0.03
238.537	0.02
238.996	0.04
239.456	0.06
239.916	0.02
240.375	0.06
240.835	0.01
241.294	0.05
241.754	-0
242.213	-0.01
242.672	0.01
243.132	0.05
243.591	0.04
244.05	0.06
244.509	0.02
244.968	0.02
245.427	-0.01
245.886	0.01
246.345	0.02
246.804	0
247.263	0.03
247.722	0.04
248.181	0.03
248.639	0.04
249.098	0.04
249.557	0.02
250.015	0
250.474	0.08
250.932	-0
251.391	0.03
251.849	0.05
252.308	0.05
252.766	0
253.224	0.05
253.682	0.02
254.14	0.01
254.599	0.01
255.057	0.04
255.515	0.04
255.973	0.03
256.431	0.03
256.888	0.05
257.346	0.02
257.804	0.03
258.262	0.01
258.719	0.03
259.177	-0
259.635	0.06
260.092	0.02
260.55	-0
261.007	0
261.465	0.01
261.922	-0
262.379	0.04
262.836	0
263.294	0.03
263.751	0.06
264.208	0.05
264.665	0.07
265.122	0.04
265.579	0
266.036	0.06
266.493	0.01
266.95	0.02
267.406	0
267.863	0.01
268.32	0.06
268.777	0.03
269.233	0.02
269.69	0.01
270.146	0.01
270.603	0.04
271.059	0.04
271.515	0.01
271.972	0.04
272.428	0.02
272.884	0.01
273.34	0.02
273.796	0.01
274.253	0.04
274.709	0
275.165	0.03
275.62	0.02
276.076	0.01
276.532	0.03
276.988	0.03
277.444	0.01
277.899	0.06
278.355	0.02
278.811	0.02
279.266	0.04
279.722	0.04
280.177	0.03
280.633	0.02
281.088	0.05
281.543	0.04
281.998	0.01
282.454	0.02
282.909	0.04
283.364	0.01
283.819	0.01
284.274	0.02
284.729	0.03
285.184	0.01
285.639	0.02
286.094	0.03
286.548	0.02
287.003	0.05
287.458	0.03
287.913	0.03
288.367	0.02
288.822	0.03
289.276	0.03
289.731	0
290.185	0.01
290.639	0.03
291.094	0.03
291.548	0.04
292.002	0.01
292.456	0.02
292.91	0.02
293.365	0.03
293.819	0.02
294.273	0.02
294.726	-0
295.18	0.01
295.634	0.02
296.088	0.01
296.542	0.02
296.995	0.01
297.449	0.03
297.903	0.01
298.356	0.01
298.81	0.01
299.263	0.03
299.716	0.01
300.17	0.02
300.623	0.02
301.076	0.02
301.53	0.03
301.983	0.02
302.436	0.02
302.889	0.02
303.342	0.02
303.795	0.02
304.248	0.02
304.701	0.02
305.153	0.01
305.606	0.02
306.059	0.02
306.512	0.02
306.964	0.02
307.417	0.02
307.869	0.02
308.322	0.02
308.774	0.02
309.227	0.02
309.679	0.02
310.131	0.02
310.584	0.02
311.036	0.01
311.488	0.01
311.94	0.02
312.392	0.01
312.844	0.01
313.296	0.01
313.748	0.01
314.2	0.01
314.652	0.01
315.103	0.01
315.555	0.01
316.007	0.01
316.458	0.01
316.91	0.01
317.361	0.01
317.813	0.01
318.264	0.01
318.716	0.01
319.167	0.01
319.618	0.01
320.07	0.01
320.521	0.01
320.972	0.01
321.423	0.01
321.874	0.01
322.325	0.01
322.776	0.01
323.227	0.01
323.678	0.01
324.128	0.01
324.579	0.01
325.03	0
325.48	0.01
325.931	0.01
326.382	0.01
326.832	0.01
327.283	0.01
327.733	0.01
328.183	0.01
328.634	0.01
329.084	0.01
329.534	0.01
329.984	0.01
330.434	0.01
330.884	0.01
331.334	0.01
331.784	0.01
332.234	0.01
332.684	0.01
333.134	0.01
333.584	0.01
334.034	0.01
334.483	0.01
334.933	0.01
335.382	0.01
335.832	0.01
336.281	0.01
336.731	0.01
337.18	0.01
337.63	0.01
338.079	0.01
338.528	0.01
338.977	0.01
339.426	0.01
339.876	0.01
340.325	0.01
340.774	0.01
341.223	0.02
341.671	0.01
342.12	0.01
342.569	0.01
343.018	0.02
343.467	0.02
343.915	0.02
344.364	0.02
344.812	0.02
345.261	0.02
345.709	0.02
346.158	0.02
346.606	0.02
347.054	0.02
347.503	0.02
347.951	0.02
348.399	0.02
348.847	0.02
349.295	0.02
349.743	0.02
350.191	0.02
350.639	0.02
351.087	0.02
351.535	0.02
351.983	0.03
352.43	0.02
352.878	0.03
353.326	0.03
353.773	0.03
354.221	0.03
354.668	0.03
355.116	0.03
355.563	0.03
356.01	0.03
356.458	0.03
356.905	0.04
357.352	0.04
357.799	0.04
358.246	0.04
358.693	0.04
359.14	0.04
359.587	0.04
360.034	0.04
360.481	0.04
360.928	0.04
361.375	0.04
361.821	0.04
362.268	0.04
362.714	0.05
363.161	0.05
363.608	0.05
364.054	0.05
364.5	0.05
364.947	0.05
365.393	0.05
365.839	0.06
366.285	0.06
366.732	0.06
367.178	0.06
367.624	0.06
368.07	0.06
368.516	0.06
368.962	0.06
369.408	0.06
369.853	0.06
370.299	0.06
370.745	0.06
371.19	0.06
371.636	0.06
372.082	0.06
372.527	0.06
372.973	0.06
373.418	0.06
373.863	0.06
374.309	0.06
374.754	0.06
375.199	0.07
375.644	0.07
376.09	0.06
376.535	0.07
376.98	0.07
377.425	0.07
377.87	0.07
378.314	0.07
378.759	0.07
379.204	0.08
379.649	0.08
380.093	0.08
380.538	0.08
380.983	0.09
381.427	0.09
381.872	0.09
382.316	0.1
382.76	0.1
383.205	0.1
383.649	0.1
384.093	0.1
384.537	0.1
384.982	0.1
385.426	0.11
385.87	0.11
386.314	0.1
386.758	0.1
387.201	0.1
387.645	0.1
388.089	0.1
388.533	0.1
388.976	0.1
389.42	0.1
389.864	0.11
390.307	0.11
390.751	0.11
391.194	0.12
391.638	0.13
392.081	0.13
392.524	0.14
392.967	0.14
393.411	0.15
393.854	0.15
394.297	0.16
394.74	0.16
395.183	0.16
395.626	0.16
396.069	0.16
396.512	0.16
396.954	0.15
397.397	0.15
397.84	0.14
398.282	0.13
398.725	0.13
399.168	0.12
399.61	0.11
400.052	0.1
400.495	0.09
400.937	0.08
401.38	0.08
401.822	0.07
402.264	0.06
402.706	0.06
403.148	0.05
403.59	0.05
404.032	0.04
404.474	0.04
404.916	0.04
405.358	0.03
405.8	0.03
406.241	0.03
406.683	0.03
407.125	0.02
407.566	0.02
408.008	0.02
408.449	0.02
408.891	0.02
409.332	0.02
409.774	0.02
410.215	0.01
410.656	0.01
411.097	0.01
411.539	0.01
411.98	0.01
412.421	0.01
412.862	0.01
413.303	0.01
413.744	0.01
414.184	0.01
414.625	0.01
415.066	0.01
415.507	0.01
415.947	0.01
416.388	0.01
416.828	0
417.269	0.01
417.709	0.01
418.15	0.01
418.59	0
419.03	0.01
419.471	0
419.911	0
420.351	0.01
420.791	0
421.231	0
421.671	0
422.111	0
422.551	0
422.991	0
423.431	0
423.87	0
424.31	0
424.75	0
425.189	0
425.629	-0
426.068	0
426.508	0
426.947	0
427.386	0
427.826	0
428.265	0
428.704	-0
429.143	0
429.582	0
430.021	0
430.46	-0
430.899	-0
431.338	-0
431.777	-0
432.216	-0
432.655	-0
433.093	-0
433.532	-0
433.971	-0
434.409	-0
434.848	-0
435.286	-0
435.724	-0
436.163	-0
436.601	-0
437.039	-0
437.477	-0.01
437.916	-0
438.354	-0
438.792	-0
439.23	-0
439.668	-0.01
440.105	-0.01
440.543	-0.01
440.981	-0
441.419	-0
441.856	-0
442.294	-0
442.732	-0.01
443.169	-0.01
443.607	-0.01
444.044	-0.01
444.481	-0.01
444.919	-0.01
445.356	-0.01
445.793	-0.01
446.23	-0.01
446.668	-0.01
447.105	-0.01
447.542	-0.01
447.979	-0.01
448.416	-0.01
448.852	-0.01
449.289	-0.01
449.726	-0.01
450.163	-0.01
450.599	-0.01
451.036	-0.01
451.473	-0.01
451.909	-0.01
452.346	-0.01
452.782	-0.01
453.218	-0.01
453.655	-0.01
454.091	-0.02
454.527	-0.01
454.963	-0.01
455.399	-0.02
455.835	-0.02
456.271	-0.02
456.707	-0.02
457.143	-0.01
457.579	-0.02
458.015	-0.02
458.451	-0.01
458.886	-0.02
459.322	-0.02
459.758	-0.02
460.193	-0.02
460.629	-0.02
461.064	-0.02
461.5	-0.02
461.935	-0.02
462.37	-0.02
462.805	-0.02
463.241	-0.03
463.676	-0.02
464.111	-0.02
464.546	-0.03
464.981	-0.03
465.416	-0.03
465.851	-0.03
466.286	-0.02
466.72	-0.03
467.155	-0.03
467.59	-0.03
468.024	-0.03
468.459	-0.03
468.893	-0.03
469.328	-0.03
469.762	-0.04
470.197	-0.03
470.631	-0.03
471.065	-0.03
471.5	-0.03
471.934	-0.03
472.368	-0.03
472.802	-0.03
473.236	-0.03
473.67	-0.03
474.104	-0.03
474.538	-0.03
474.972	-0.03
475.405	-0.04
475.839	-0.03
476.273	-0.03
476.706	-0.03
477.14	-0.04
477.573	-0.03
478.007	-0.03
478.44	-0.04
478.874	-0.04
479.307	-0.04
479.74	-0.04
480.173	-0.04
480.606	-0.04
481.04	-0.03
481.473	-0.05
481.906	-0.05
482.339	-0.04
482.771	-0.04
483.204	-0.05
483.637	-0.05
484.07	-0.04
484.502	-0.04
484.935	-0.05
485.368	-0.06
485.8	-0.06
486.233	-0.07
486.665	-0.06
487.098	-0.07
487.53	-0.07
487.962	-0.08
488.394	-0.1
488.827	-0.1
489.259	-0.1
489.691	-0.11
490.123	-0.12
490.555	-0.12
490.987	-0.13
491.418	-0.14
491.85	-0.14
492.282	-0.14
492.714	-0.15
493.145	-0.15
493.577	-0.16
494.009	-0.17
494.44	-0.17
494.872	-0.17
495.303	-0.18
495.734	-0.17
496.166	-0.19
496.597	-0.19
497.028	-0.2
497.459	-0.2
497.89	-0.2
498.321	-0.21
498.752	-0.21
499.183	-0.22
499.614	-0.22
500.045	-0.22
500.476	-0.22
500.906	-0.23
501.337	-0.23
501.768	-0.23
502.198	-0.23
502.629	-0.23
503.059	-0.23
503.49	-0.23
503.92	-0.23
504.35	-0.23
504.781	-0.23
505.211	-0.24
505.641	-0.24
506.071	-0.24
506.501	-0.24
506.931	-0.24
507.361	-0.24
507.791	-0.24
508.221	-0.25
508.651	-0.24
509.081	-0.24
509.51	-0.24
509.94	-0.25
510.37	-0.24
510.799	-0.24
511.229	-0.24
511.658	-0.25
512.087	-0.25
512.517	-0.25
512.946	-0.25
513.375	-0.25
513.804	-0.25
514.234	-0.26
514.663	-0.26
515.092	-0.26
515.521	-0.26
515.95	-0.26
516.378	-0.26
516.807	-0.25
517.236	-0.25
517.665	-0.25
518.093	-0.25
518.522	-0.25
518.951	-0.25
519.379	-0.25
519.807	-0.25
520.236	-0.25
520.664	-0.25
521.093	-0.25
521.521	-0.24
521.949	-0.24
522.377	-0.24
522.805	-0.24
523.233	-0.24
523.661	-0.23
524.089	-0.23
524.517	-0.23
524.945	-0.23
525.373	-0.22
525.8	-0.22
526.228	-0.22
526.656	-0.22
527.083	-0.22
527.511	-0.21
527.938	-0.21
528.366	-0.2
528.793	-0.2
529.22	-0.2
529.648	-0.2
530.075	-0.19
530.502	-0.19
530.929	-0.19
531.356	-0.18
531.783	-0.18
532.21	-0.18
532.637	-0.18
533.064	-0.17
533.49	-0.17
533.917	-0.16
534.344	-0.16
534.771	-0.16
535.197	-0.16
535.624	-0.16
536.05	-0.15
536.477	-0.15
536.903	-0.15
537.329	-0.14
537.755	-0.14
538.182	-0.14
538.608	-0.13
539.034	-0.13
539.46	-0.13
539.886	-0.13
540.312	-0.13
540.738	-0.13
541.164	-0.12
541.589	-0.12
542.015	-0.12
542.441	-0.12
542.867	-0.12
543.292	-0.11
543.718	-0.11
544.143	-0.11
544.569	-0.11
544.994	-0.11
545.419	-0.11
545.845	-0.1
546.27	-0.1
546.695	-0.1
547.12	-0.09
547.545	-0.09
547.97	-0.09
548.395	-0.1
548.82	-0.09
549.245	-0.1
549.67	-0.1
550.094	-0.1
550.519	-0.09
550.944	-0.09
551.368	-0.09
551.793	-0.08
552.217	-0.08
552.642	-0.08
553.066	-0.08
553.49	-0.08
553.915	-0.08
554.339	-0.08
554.763	-0.07
555.187	-0.07
555.611	-0.07
556.035	-0.07
556.459	-0.07
556.883	-0.07
557.307	-0.07
557.731	-0.07
558.154	-0.07
558.578	-0.07
559.002	-0.07
559.425	-0.06
559.849	-0.06
560.272	-0.06
560.696	-0.06
561.119	-0.05
561.543	-0.05
561.966	-0.05
562.389	-0.05
562.812	-0.05
563.235	-0.04
563.658	-0.05
564.081	-0.05
564.504	-0.05
564.927	-0.05
565.35	-0.04
565.773	-0.04
566.196	-0.04
566.618	-0.03
567.041	-0.03
567.463	-0.03
567.886	-0.02
568.309	-0.02
568.731	-0.02
569.153	-0.01
569.576	-0.01
569.998	-0.01
570.42	-0.01
570.842	-0
571.264	-0
571.686	-0
572.108	0
572.53	0
572.952	0
573.374	0
573.796	0.01
574.218	0
574.639	0.01
575.061	0.01
575.483	0.01
575.904	0.01
576.326	0.01
576.747	0.01
577.168	0.02
577.59	0.01
578.011	0.02
578.432	0.02
578.853	0.01
579.274	0.02
579.695	0.02
580.116	0.02
580.537	0.02
580.958	0.02
581.379	0.02
581.8	0.02
582.221	0.02
582.641	0.02
583.062	0.02
583.482	0.02
583.903	0.02
584.323	0.02
584.744	0.02
585.164	0.02
585.584	0.02
586.005	0.02
586.425	0.03
586.845	0.02
587.265	0.02
587.685	0.02
588.105	0.03
588.525	0.02
588.945	0.02
589.365	0.02
589.785	0.02
590.204	0.02
590.624	0.03
591.044	0.03
591.463	0.03
591.883	0.03
592.302	0.03
592.721	0.03
593.141	0.03
593.56	0.03
593.979	0.03
594.399	0.03
594.818	0.03
595.237	0.03
595.656	0.03
596.075	0.03
596.494	0.03
596.913	0.03
597.331	0.04
597.75	0.04
598.169	0.04
598.587	0.04
599.006	0.04
599.425	0.04
599.843	0.04
600.262	0.04
600.68	0.04
601.098	0.04
601.517	0.04
601.935	0.04
602.353	0.04
602.771	0.04
603.189	0.04
603.607	0.04
604.025	0.04
604.443	0.04
604.861	0.04
605.279	0.04
605.696	0.04
606.114	0.04
606.532	0.04
606.949	0.04
607.367	0.04
607.784	0.04
608.202	0.04
608.619	0.04
609.036	0.04
609.454	0.04
609.871	0.04
610.288	0.04
610.705	0.04
611.122	0.04
611.539	0.04
611.956	0.04
612.373	0.04
612.79	0.04
613.207	0.04
613.623	0.04
614.04	0.04
614.457	0.04
614.873	0.04
615.29	0.04
615.706	0.04
616.122	0.03
616.539	0.04
616.955	0.03
617.371	0.04
617.788	0.03
618.204	0.03
618.62	0.03
619.036	0.04
619.452	0.04
619.868	0.04
620.284	0.04
620.699	0.04
621.115	0.04
621.531	0.04
621.946	0.04
622.362	0.04
622.778	0.04
623.193	0.03
623.608	0.04
624.024	0.03
624.439	0.03
624.854	0.04
625.27	0.03
625.685	0.03
626.1	0.03
626.515	0.03
626.93	0.03
627.345	0.03
627.76	0.03
628.175	0.03
628.589	0.03
629.004	0.03
629.419	0.03
629.833	0.03
630.248	0.03
630.663	0.03
631.077	0.03
631.491	0.03
631.906	0.03
632.32	0.03
632.734	0.03
633.148	0.03
633.563	0.03
633.977	0.03
634.391	0.03
634.805	0.03
635.219	0.03
635.632	0.02
636.046	0.03
636.46	0.03
636.874	0.02
637.287	0.03
637.701	0.02
638.115	0.02
638.528	0.02
638.941	0.02
639.355	0.02
639.768	0.02
640.181	0.02
640.595	0.02
641.008	0.02
641.421	0.02
641.834	0.02
642.247	0.02
642.66	0.02
643.073	0.02
643.486	0.02
643.898	0.02
644.311	0.02
644.724	0.02
645.136	0.02
645.549	0.02
645.961	0.02
646.374	0.02
646.786	0.03
647.199	0.02
647.611	0.02
648.023	0.02
648.435	0.02
648.847	0.02
649.26	0.02
649.672	0.02
650.084	0.02
650.495	0.02
650.907	0.02
651.319	0.02
651.731	0.02
652.143	0.02
652.554	0.02
652.966	0.02
653.377	0.03
653.789	0.03
654.2	0.03
654.612	0.03
655.023	0.01
655.434	0
655.845	0
656.256	0.02
656.668	0.02
657.079	0.02
657.49	0.02
657.901	0.02
658.311	0.02
658.722	0.02
659.133	0.02
659.544	0.02
659.954	0.03
660.365	0.02
660.775	0.02
661.186	0.02
661.596	0.02
662.007	0.02
662.417	0.02
662.827	0.02
663.238	0.02
663.648	0.02
664.058	0.02
664.468	0.02
664.878	0.02
665.288	0.02
665.698	0.02
666.108	0.02
666.517	0.02
666.927	0.02
667.337	0.02
667.746	0.02
668.156	0.02
668.565	0.02
668.975	0.02
669.384	0.02
669.794	0.02
670.203	0.02
670.612	0.02
671.021	0.02
671.43	0.02
671.84	0.02
672.249	0.02
672.658	0.02
673.066	0.02
673.475	0.02
673.884	0.02
674.293	0.02
674.702	0.02
675.11	0.02
675.519	0.02
675.927	0.02
676.336	0.02
676.744	0.02
677.152	0.02
677.561	0.02
677.969	0.02
678.377	0.02
678.785	0.02
679.193	0.02
679.601	0.02
680.009	0.02
680.417	0.02
680.825	0.02
681.233	0.01
681.641	0.02
682.048	0.02
682.456	0.01
682.864	0.01
683.271	0.02
683.679	0.01
684.086	0.01
684.493	0.01
684.901	0.01
685.308	0.01
685.715	0.01
686.122	0.01
686.529	0.01
686.936	0.01
687.343	0.01
687.75	0.01
688.157	0.01
688.564	0.01
688.971	0.01
689.378	0.01
689.784	0.01
690.191	0.01
690.597	0.01
691.004	0.01
691.41	0.01
691.817	0.01
692.223	0.01
692.629	0.01
693.035	0.01
693.442	0.01
693.848	0.01
694.254	0.01
694.66	0.01
695.066	0.01
695.471	0.01
695.877	0.01
696.283	0.01
696.689	0.01
697.094	0.01
697.5	0.01
697.906	0
698.311	0
698.716	0
699.122	0.01
699.527	0
699.932	0.01
700.338	0
700.743	0
701.148	0
701.553	0
701.958	0
702.363	0.01
702.768	0.01
703.173	0.01
703.577	0.01
703.982	0.01
704.387	0.01
704.791	0.01
705.196	0.01
705.6	0.01
706.005	0
706.409	0
706.814	0.01
707.218	0
707.622	0.01
708.026	0.01
708.43	0.01
708.834	0
709.238	0.01
709.642	0.01
710.046	0
710.45	0.01
710.854	0.01
711.257	0.01
711.661	0.01
712.065	0.01
712.468	0.01
712.872	0.01
713.275	0.01
713.679	0.01
714.082	0.01
714.485	0
714.888	0
715.291	0.01
715.695	0.01
716.098	0.01
716.501	0
716.904	0.01
717.306	0.01
717.709	0
718.112	0
718.515	0.01
718.917	0.01
719.32	0.01
719.723	0.01
720.125	0.01
720.527	0.01
720.93	0.01
721.332	0.01
721.734	0.01
722.137	0.01
722.539	0.01
722.941	0.01
723.343	0
723.745	0.01
724.147	0.01
724.549	0.01
724.95	0
725.352	0
725.754	0.01
726.156	0
726.557	0.01
726.959	0.01
727.36	0.01
727.762	0.01
728.163	0.01
728.564	0.01
728.966	0.01
729.367	0.01
729.768	0.01
730.169	0.01
730.57	0.01
730.971	0.01
731.372	0.01
731.773	0.01
732.174	0.01
732.574	0.01
732.975	0.01
733.376	0.01
733.776	0.01
734.177	0.01
734.577	0
734.978	0.01
735.378	0
735.778	0.01
736.179	0.01
736.579	0
736.979	0.01
737.379	0.01
737.779	0.01
738.179	0.01
738.579	0
738.979	0
739.379	0.01
739.778	0
740.178	0.01
740.578	0.01
740.977	0.01
741.377	0.01
741.776	0.01
742.176	0
742.575	0.01
742.974	0
743.374	0.01
743.773	0
744.172	0
744.571	0
744.97	0.01
745.369	0.01
745.768	0.01
746.167	0
746.565	0
746.964	0
747.363	0
747.761	0
748.16	0
748.559	0
748.957	0
749.355	0
749.754	0.01
750.152	0.01
750.55	0
750.948	0.01
751.347	0.01
751.745	0
752.143	0.01
752.541	0
752.938	0
753.336	0
753.734	0
754.132	0
754.529	0
754.927	0
755.325	0
755.722	0
756.119	0
756.517	-0
756.914	-0
757.311	-0
757.709	-0
758.106	-0
758.503	-0
758.9	0
759.297	-0
759.694	0
760.091	-0
760.488	0
760.884	0
761.281	-0
761.678	0
762.074	0
762.471	0
762.867	-0
763.264	0
763.66	0
764.056	-0
764.453	-0
764.849	-0
765.245	-0
765.641	-0
766.037	-0
766.433	-0
766.829	-0
767.225	-0
767.621	0
768.016	0
768.412	-0
768.808	-0
769.203	-0
769.599	0
769.994	-0
770.389	-0
770.785	-0
771.18	0
771.575	-0
771.971	-0
772.366	-0
772.761	0
773.156	0
773.551	0
773.945	0
774.34	0
774.735	0
775.13	0
775.524	0
775.919	-0
776.314	-0
776.708	0
777.103	0
777.497	-0
777.891	-0
778.285	0
778.68	0
779.074	0
779.468	0
779.862	0
780.256	0
780.65	0
781.044	0
781.438	0
781.831	0
782.225	0
782.619	0
783.012	-0
783.406	0
783.799	0
784.193	-0
784.586	-0
784.979	0
785.372	0
785.766	-0
786.159	0
786.552	0
786.945	0
787.338	0
787.731	0
788.123	0
788.516	0
788.909	-0
789.302	0
789.694	0
790.087	0
790.479	0
790.872	0
791.264	0
791.656	0
792.049	-0
792.441	0
792.833	0
793.225	-0
793.617	0
794.009	-0
794.401	-0
794.793	-0
795.185	-0
795.576	-0
795.968	0
796.36	-0
796.751	-0
797.143	-0
797.534	-0
797.926	-0
798.317	0
798.708	0
799.1	0
799.491	0
799.882	0
800.273	0
800.664	0
801.055	0
801.446	0
801.837	0
802.227	0
802.618	0
803.009	0
803.399	0
803.79	0
804.18	0
804.571	-0
804.961	-0
805.351	-0
805.742	-0
806.132	-0
806.522	-0
806.912	-0
807.302	-0
807.692	-0.01
808.082	-0.01
808.472	-0
808.862	-0
809.251	-0.01
809.641	-0
810.031	-0
810.42	-0
810.81	-0
811.199	-0
811.589	-0
811.978	-0
812.367	-0
812.756	-0
813.146	-0
813.535	-0
813.924	-0
814.313	-0.01
814.702	-0
815.091	-0
815.479	-0
815.868	0
816.257	0
816.645	-0
817.034	0
817.423	0
817.811	0
818.199	-0
818.588	0
818.976	0
819.364	0
819.753	0
820.141	0
820.529	0
820.917	0
821.305	0
821.693	0
822.08	0
822.468	0
822.856	0
823.244	0
823.631	-0
824.019	0
824.406	-0
824.794	-0
825.181	0
825.568	-0
825.956	-0
826.343	-0
826.73	-0
827.117	-0
827.504	0
827.891	-0
828.278	-0
828.665	-0
829.052	-0
829.438	-0.01
829.825	-0.01
830.212	-0
830.598	-0
830.985	-0.01
831.371	-0
831.757	-0
832.144	-0
832.53	-0.01
832.916	-0.01
833.302	-0
833.688	-0
834.075	-0
834.461	-0
834.846	-0
835.232	-0
835.618	-0
836.004	-0
836.39	0
836.775	0
837.161	-0
837.546	-0
837.932	-0
838.317	-0
838.702	-0
839.088	-0
839.473	-0
839.858	-0
840.243	-0
840.628	-0
841.013	-0
841.398	-0
841.783	-0
842.168	-0.01
842.553	-0
842.937	-0
843.322	-0
843.707	-0
844.091	-0
844.476	0
844.86	-0
845.244	-0
845.629	-0
846.013	-0
846.397	-0
846.781	-0.01
847.165	-0.01
847.549	-0.01
847.933	-0
848.317	-0.01
848.701	-0
849.085	-0
849.468	-0
849.852	-0
850.236	-0
850.619	-0
851.003	-0
851.386	-0
851.769	-0
852.153	-0
852.536	-0
852.919	-0
853.302	-0
853.685	-0
854.068	-0
854.451	-0
854.834	-0
855.217	-0
855.6	-0
855.982	-0
856.365	-0
856.748	-0
857.13	-0
857.513	-0
857.895	0
858.277	0
858.66	-0
859.042	-0
859.424	-0
859.806	0
860.188	-0
860.57	-0
860.952	-0
861.334	-0
861.716	-0
862.098	-0.01
862.48	-0
862.861	-0
863.243	-0
863.624	-0
864.006	-0
864.387	-0
864.769	-0
865.15	-0
865.531	-0
865.912	-0
866.294	-0
866.675	-0
867.056	-0
867.437	-0.01
867.818	-0.01
868.198	-0
868.579	-0
868.96	-0.01
869.341	-0
869.721	-0.01
870.102	-0
870.482	-0.01
870.863	-0
871.243	-0.01
871.623	-0.01
872.003	-0.01
872.384	-0.01
872.764	-0
873.144	-0.01
873.524	-0.01
873.904	-0
874.284	-0
874.664	-0
875.043	-0
875.423	-0
875.803	-0
876.182	-0
876.562	-0
876.941	-0
877.321	-0.01
877.7	-0
878.079	-0
878.459	-0
878.838	-0
879.217	-0
879.596	-0
879.975	-0
880.354	-0
880.733	-0
881.112	-0
881.491	0
881.869	0
882.248	-0
882.627	-0
883.005	-0
883.384	-0
883.762	-0
884.14	-0
884.519	-0
884.897	-0.01
885.275	-0
885.653	-0
886.031	-0
886.409	-0
886.787	-0.01
887.165	-0.01
887.543	-0.01
887.921	-0
888.298	-0
888.676	-0
889.054	-0
889.431	0
889.809	-0
890.186	-0
890.563	-0
890.941	-0
891.318	-0
891.695	-0
892.072	-0
892.449	-0
892.826	-0.01
893.203	-0.01
893.58	-0
893.957	-0
894.334	-0
894.71	-0
895.087	-0.01
895.464	-0
895.84	-0
896.217	-0
896.593	-0
896.969	0
897.346	0
897.722	-0
898.098	0
898.474	-0
898.85	-0
899.226	-0
899.602	-0
899.978	0
900.354	-0
900.73	-0
901.105	-0
901.481	-0
901.857	0
902.232	0
902.608	0
902.983	0
903.358	0.01
903.734	0
904.109	0
904.484	0
904.859	0
905.234	0
905.609	0
905.984	0
906.359	0
906.734	-0
907.108	-0
907.483	-0.01
907.858	-0
908.232	-0
908.607	-0.01
908.981	-0
909.356	-0.01
909.73	-0
910.104	-0.01
910.478	-0.01
910.853	-0
911.227	-0
911.601	-0.01
911.975	-0.01
912.349	-0.01
912.722	-0.01
913.096	-0.01
913.47	-0.01
913.844	-0.01
914.217	-0.01
914.591	-0.01
914.964	-0.01
915.338	-0.01
915.711	-0.01
916.084	-0.01
916.458	-0
916.831	-0
917.204	-0.01
917.577	-0
917.95	-0
918.323	-0
918.696	-0
919.069	-0
919.441	-0
919.814	-0
920.187	-0
920.559	-0
920.932	-0
921.304	0
921.677	-0
922.049	-0
922.421	-0
922.794	-0
923.166	-0
923.538	-0.01
923.91	-0
924.282	-0
924.654	-0
925.026	-0.01
925.398	-0.01
925.769	-0.01
926.141	-0
926.513	-0
926.884	-0.01
927.256	-0.01
927.627	-0.01
927.999	-0.01
928.37	-0.01
928.741	-0.01
929.113	-0.01
929.484	-0.01
929.855	-0
930.226	-0.01
930.597	-0.01
930.968	-0
931.339	-0
931.709	-0
932.08	-0
932.451	-0
932.821	0
933.192	-0
933.562	-0
933.933	-0
934.303	-0
934.673	-0.01
935.044	-0
935.414	-0
935.784	-0
936.154	-0
936.524	0
936.894	-0
937.264	-0
937.634	-0.01
938.004	-0.01
938.373	-0
938.743	-0
939.113	-0
939.482	-0
939.852	-0
940.221	-0
940.59	-0
940.96	-0
941.329	-0
941.698	-0
942.067	-0
942.436	-0
942.805	-0.01
943.174	-0
943.543	-0.01
943.912	-0
944.28	-0
944.649	-0
945.018	-0.01
945.386	-0
945.755	-0
946.123	-0
946.492	0
946.86	-0
947.228	-0
947.596	0
947.965	0
948.333	0
948.701	-0
949.069	0
949.437	0
949.804	-0
950.172	0
950.54	0
950.908	-0
951.275	0
951.643	0
952.01	-0
952.378	0
952.745	-0
953.112	0.01
953.479	0
953.847	0
954.214	0
954.581	0
954.948	-0
955.315	-0
955.682	0
956.048	-0
956.415	0
956.782	-0
957.148	-0
957.515	0
957.881	-0
958.248	0
958.614	0
958.981	-0
959.347	-0
959.713	-0
960.079	0
960.445	0
960.811	0
961.177	-0
961.543	0
961.909	-0
962.275	-0
962.641	-0
963.006	-0
963.372	-0
963.737	-0
964.103	-0
964.468	-0
964.834	-0
965.199	-0
965.564	-0.01
965.929	-0
966.294	0
966.659	0
967.024	-0
967.389	-0
967.754	-0
968.119	0
968.484	0
968.848	-0
969.213	0
969.578	-0
969.942	-0
970.307	-0
970.671	-0
971.035	-0
971.399	-0
971.764	-0
972.128	-0
972.492	-0
972.856	-0
973.22	-0
973.584	-0
973.948	-0
974.311	-0
974.675	-0
975.039	-0
975.402	-0
975.766	0
976.129	0
976.493	-0
976.856	-0
977.219	-0
977.582	-0
977.946	-0
978.309	-0
978.672	-0
979.035	-0
979.398	-0
979.761	-0
980.123	-0.01
980.486	-0.01
980.849	-0.01
981.211	-0.01
981.574	-0.01
981.936	-0.01
982.299	-0.01
982.661	-0.01
983.023	-0.01
983.386	-0.01
983.748	-0.01
984.11	-0
984.472	-0.01
984.834	-0
985.196	-0
985.558	-0
985.92	-0
986.281	0
986.643	-0
987.005	-0
987.366	-0
987.728	-0
988.089	0
988.451	-0
988.812	0
989.173	0
989.534	0
989.895	0
990.257	-0
990.618	-0.01
990.979	-0
991.339	-0
991.7	-0
992.061	-0
992.422	-0
992.782	-0
993.143	-0
993.503	-0
993.864	-0
994.224	-0
994.585	-0
994.945	-0
995.305	0
995.665	-0
996.025	0
996.385	0
996.745	0
997.105	0
997.465	-0
997.825	-0
998.185	-0.01
998.544	-0
998.904	-0
999.263	-0.01
999.623	0
999.982	-0
1000.342	-0
1000.701	0
1001.06	-0
1001.419	-0
1001.778	-0
1002.138	0
1002.497	-0
1002.855	0
1003.214	-0
1003.573	0
1003.932	-0
1004.29	0.01
1004.649	0
1005.008	0
1005.366	0
1005.725	0.01
1006.083	0
1006.441	0
1006.799	0
1007.158	0.01
1007.516	0
1007.874	0
1008.232	0.01
1008.59	0.01
1008.948	0
1009.305	0
1009.663	0.01
1010.021	0.01
1010.379	0
1010.736	0
1011.094	0
1011.451	0.01
1011.808	0.01
1012.166	0
1012.523	0.01
1012.88	0.01
1013.237	0
1013.594	0
1013.951	0
1014.308	0
1014.665	0.01
1015.022	0
1015.379	0
1015.735	0
1016.092	0
1016.449	-0
1016.805	0.01
1017.162	-0
1017.518	0
1017.874	0
1018.231	-0
1018.587	-0
1018.943	0.01
1019.299	0
1019.655	0.01
1020.011	0
1020.367	0
1020.723	0.01
1021.078	0.01
1021.434	0
1021.79	-0
1022.145	0.01
1022.501	0.01
1022.856	0.01
1023.212	0.01
1023.567	0.01
1023.922	0.01
1024.278	0
1024.633	0
1024.988	0.01
1025.343	0
1025.698	0.01
1026.053	0.01
1026.408	0.01
1026.762	0.01
1027.117	0.01
1027.472	0.01
1027.826	0.01
1028.181	0.01
1028.535	0.01
1028.89	0.01
1029.244	0.01
1029.598	0
1029.952	-0
1030.307	0
1030.661	0.01
1031.015	0
1031.369	0.01
1031.723	0.01
1032.076	0.01
