Data from Rubpy_BV_300_EDTA_Buffered_Absorbance_12-02-26-668.txt Node
Date: Wed Jul 01 12:02:26 BST 2026
User: fpm-admin
Spectrometer: OFX00224
Trigger mode: 0
Integration Time (sec): 7.000000E-2
Scans to average: 1
Nonlinearity correction enabled: false
Boxcar width: 3
Storing dark spectrum: false
XAxis mode: Wavelengths
Number of Pixels in Spectrum: 2136
>>>>>Begin Spectral Data<<<<<
154.91	0.81
155.289	0.89
155.669	0.99
156.048	-0
156.428	-0
156.807	-0
157.186	-0.34
157.566	-0.04
157.945	0.06
158.325	-0
158.704	0.07
159.083	0.1
159.462	0.16
159.842	0.36
160.221	0.25
160.6	-0.2
160.979	-0
161.359	-0
161.738	-0
162.117	-0
162.496	-0.82
162.875	-0.88
163.254	-0.57
163.633	-0.15
164.012	-0.34
164.391	-1.15
164.77	-0
165.149	-0
165.528	-0
165.907	-0
166.286	-0
166.665	-0
167.044	-0
167.423	-0
167.802	-0.64
168.181	-0.67
168.559	-0.19
168.938	-0.27
169.317	-0.2
169.696	-0.12
170.074	-0.03
170.453	0.03
170.832	0.11
171.21	0.03
171.589	0.07
171.968	0.22
172.346	0.36
172.725	0.65
173.103	0.79
173.482	-0
173.861	-0
174.239	-0
174.617	-0
174.996	-0
175.374	0.53
175.753	-0
176.131	0.46
176.51	0.08
176.888	-0.13
177.266	-0
177.645	-0.15
178.023	-0.03
178.401	-0.11
178.779	-0.21
179.158	-0.59
179.536	0.19
179.914	-0.01
180.292	-0.06
180.67	0.03
181.048	-0.1
181.427	-0.17
181.805	-0
182.183	-1.15
182.561	0.2
182.939	0.06
183.317	0.09
183.695	0.01
184.073	-0.11
184.451	-0.18
184.829	-0.73
185.206	-0
185.584	-0
185.962	0.53
186.34	0.34
186.718	0.4
187.096	0.81
187.473	0.14
187.851	0.11
188.229	0.13
188.607	0.1
188.984	0.12
189.362	0.13
189.74	0.13
190.117	0.16
190.495	0.18
190.872	0.14
191.25	0.14
191.627	0.13
192.005	0.1
192.382	0.1
192.76	0.09
193.137	0.09
193.515	0.11
193.892	0.11
194.269	0.12
194.647	0.15
195.024	0.13
195.401	0.11
195.779	0.09
196.156	0.08
196.533	0.08
196.91	0.06
197.288	0.07
197.665	0.09
198.042	0.12
198.419	0.14
198.796	0.15
199.173	0.16
199.55	0.19
199.927	0.17
200.304	0.18
200.681	0.14
201.058	0.12
201.435	0.14
201.812	0.16
202.189	0.15
202.566	0.16
202.943	0.16
203.32	0.17
203.697	0.15
204.073	0.13
204.45	0.12
204.827	0.13
205.204	0.15
205.58	0.13
205.957	0.14
206.334	0.18
206.71	0.17
207.087	0.18
207.464	0.16
207.84	0.14
208.217	0.16
208.593	0.15
208.97	0.1
209.346	0.11
209.723	0.11
210.099	0.12
210.476	0.11
210.852	0.13
211.228	0.13
211.605	0.12
211.981	0.13
212.357	0.12
212.733	0.12
213.11	0.14
213.486	0.13
213.862	0.13
214.238	0.16
214.614	0.15
214.991	0.15
215.367	0.17
215.743	0.14
216.119	0.14
216.495	0.15
216.871	0.16
217.247	0.15
217.623	0.14
217.999	0.1
218.375	0.1
218.751	0.07
219.127	0.07
219.502	0.06
219.878	0.08
220.254	0.07
220.63	0.09
221.006	0.11
221.381	0.11
221.757	0.09
222.133	0.09
222.508	0.1
222.884	0.1
223.26	0.09
223.635	0.1
224.011	0.11
224.386	0.12
224.762	0.1
225.137	0.1
225.513	0.12
225.888	0.14
226.264	0.14
226.639	0.13
227.014	0.14
227.39	0.15
227.765	0.13
228.14	0.12
228.516	0.1
228.891	0.08
229.266	0.09
229.641	0.08
230.017	0.08
230.392	0.07
230.767	0.05
231.142	0.08
231.517	0.08
231.892	0.07
232.267	0.08
232.642	0.09
233.017	0.11
233.392	0.11
233.767	0.07
234.142	0.06
234.517	0.05
234.892	0.06
235.267	0.05
235.641	0.08
236.016	0.1
236.391	0.14
236.766	0.14
237.14	0.16
237.515	0.15
237.89	0.16
238.264	0.15
238.639	0.14
239.014	0.16
239.388	0.17
239.763	0.18
240.137	0.2
240.512	0.2
240.886	0.18
241.261	0.19
241.635	0.16
242.009	0.16
242.384	0.13
242.758	0.13
243.132	0.12
243.507	0.12
243.881	0.12
244.255	0.13
244.629	0.13
245.004	0.13
245.378	0.12
245.752	0.12
246.126	0.13
246.5	0.11
246.874	0.11
247.248	0.11
247.622	0.11
247.996	0.13
248.37	0.12
248.744	0.1
249.118	0.13
249.492	0.12
249.866	0.12
250.24	0.11
250.613	0.13
250.987	0.14
251.361	0.13
251.735	0.12
252.108	0.12
252.482	0.1
252.856	0.09
253.229	0.04
253.603	0.03
253.977	0.02
254.35	0.03
254.724	0.03
255.097	0.06
255.471	0.07
255.844	0.09
256.218	0.1
256.591	0.11
256.964	0.11
257.338	0.13
257.711	0.13
258.084	0.12
258.458	0.09
258.831	0.1
259.204	0.09
259.577	0.09
259.95	0.09
260.323	0.07
260.697	0.09
261.07	0.1
261.443	0.1
261.816	0.12
262.189	0.1
262.562	0.09
262.935	0.09
263.308	0.08
263.68	0.09
264.053	0.09
264.426	0.08
264.799	0.09
265.172	0.11
265.545	0.1
265.917	0.09
266.29	0.08
266.663	0.07
267.035	0.07
267.408	0.05
267.781	0.06
268.153	0.09
268.526	0.08
268.898	0.09
269.271	0.1
269.643	0.1
270.016	0.09
270.388	0.08
270.76	0.07
271.133	0.08
271.505	0.08
271.877	0.07
272.25	0.11
272.622	0.11
272.994	0.12
273.366	0.11
273.739	0.12
274.111	0.13
274.483	0.13
274.855	0.09
275.227	0.11
275.599	0.11
275.971	0.13
276.343	0.13
276.715	0.12
277.087	0.13
277.459	0.13
277.831	0.13
278.203	0.11
278.574	0.11
278.946	0.1
279.318	0.1
279.69	0.1
280.061	0.1
280.433	0.1
280.805	0.09
281.176	0.08
281.548	0.11
281.92	0.11
282.291	0.11
282.663	0.13
283.034	0.13
283.406	0.15
283.777	0.17
284.148	0.16
284.52	0.18
284.891	0.17
285.262	0.16
285.634	0.17
286.005	0.14
286.376	0.13
286.747	0.13
287.119	0.13
287.49	0.12
287.861	0.11
288.232	0.12
288.603	0.12
288.974	0.11
289.345	0.09
289.716	0.08
290.087	0.09
290.458	0.11
290.829	0.12
291.2	0.12
291.571	0.13
291.941	0.13
292.312	0.13
292.683	0.13
293.054	0.13
293.424	0.13
293.795	0.13
294.166	0.13
294.536	0.15
294.907	0.15
295.277	0.16
295.648	0.16
296.018	0.14
296.389	0.14
296.759	0.15
297.13	0.13
297.5	0.13
297.871	0.12
298.241	0.11
298.611	0.12
298.981	0.11
299.352	0.09
299.722	0.1
300.092	0.08
300.462	0.06
300.832	0.05
301.202	0.03
301.573	0.03
301.943	0.03
302.313	0.03
302.683	0.03
303.053	0.03
303.422	0.03
303.792	0.03
304.162	0.03
304.532	0.03
304.902	0.02
305.272	0.02
305.641	0.02
306.011	0.03
306.381	0.03
306.75	0.03
307.12	0.03
307.49	0.03
307.859	0.04
308.229	0.04
308.598	0.04
308.968	0.05
309.337	0.05
309.707	0.05
310.076	0.05
310.445	0.05
310.815	0.06
311.184	0.06
311.553	0.06
311.923	0.06
312.292	0.06
312.661	0.07
313.03	0.07
313.399	0.07
313.768	0.07
314.137	0.07
314.506	0.08
314.875	0.08
315.244	0.08
315.613	0.08
315.982	0.09
316.351	0.09
316.72	0.09
317.089	0.09
317.458	0.09
317.826	0.1
318.195	0.1
318.564	0.1
318.933	0.1
319.301	0.1
319.67	0.1
320.038	0.1
320.407	0.11
320.775	0.11
321.144	0.11
321.512	0.11
321.881	0.11
322.249	0.11
322.618	0.11
322.986	0.11
323.354	0.12
323.723	0.12
324.091	0.12
324.459	0.12
324.827	0.12
325.195	0.12
325.564	0.12
325.932	0.12
326.3	0.12
326.668	0.13
327.036	0.13
327.404	0.13
327.772	0.13
328.14	0.13
328.508	0.14
328.875	0.14
329.243	0.14
329.611	0.15
329.979	0.15
330.346	0.15
330.714	0.15
331.082	0.15
331.449	0.16
331.817	0.16
332.185	0.16
332.552	0.16
332.92	0.16
333.287	0.17
333.655	0.17
334.022	0.17
334.389	0.18
334.757	0.18
335.124	0.18
335.491	0.19
335.859	0.19
336.226	0.19
336.593	0.2
336.96	0.2
337.327	0.2
337.695	0.21
338.062	0.21
338.429	0.22
338.796	0.22
339.163	0.22
339.53	0.23
339.897	0.23
340.263	0.24
340.63	0.24
340.997	0.24
341.364	0.25
341.731	0.25
342.097	0.25
342.464	0.26
342.831	0.26
343.197	0.27
343.564	0.27
343.931	0.28
344.297	0.28
344.664	0.29
345.03	0.29
345.396	0.3
345.763	0.3
346.129	0.31
346.496	0.31
346.862	0.32
347.228	0.32
347.594	0.33
347.961	0.33
348.327	0.34
348.693	0.34
349.059	0.34
349.425	0.35
349.791	0.35
350.157	0.36
350.523	0.36
350.889	0.36
351.255	0.37
351.621	0.37
351.987	0.38
352.353	0.38
352.719	0.39
353.084	0.39
353.45	0.4
353.816	0.41
354.181	0.41
354.547	0.41
354.913	0.42
355.278	0.43
355.644	0.43
356.009	0.44
356.375	0.44
356.74	0.45
357.106	0.46
357.471	0.46
357.836	0.47
358.202	0.47
358.567	0.48
358.932	0.49
359.297	0.5
359.663	0.5
360.028	0.51
360.393	0.52
360.758	0.53
361.123	0.54
361.488	0.54
361.853	0.55
362.218	0.55
362.583	0.56
362.948	0.57
363.312	0.57
363.677	0.58
364.042	0.59
364.407	0.6
364.772	0.6
365.136	0.61
365.501	0.62
365.865	0.62
366.23	0.63
366.595	0.63
366.959	0.64
367.324	0.64
367.688	0.65
368.052	0.66
368.417	0.67
368.781	0.67
369.145	0.68
369.51	0.69
369.874	0.69
370.238	0.7
370.602	0.7
370.967	0.7
371.331	0.71
371.695	0.71
372.059	0.71
372.423	0.71
372.787	0.71
373.151	0.71
373.515	0.71
373.878	0.71
374.242	0.7
374.606	0.7
374.97	0.7
375.334	0.7
375.697	0.69
376.061	0.68
376.425	0.68
376.788	0.67
377.152	0.67
377.515	0.66
377.879	0.65
378.242	0.65
378.606	0.64
378.969	0.63
379.333	0.62
379.696	0.62
380.059	0.61
380.422	0.6
380.786	0.6
381.149	0.59
381.512	0.59
381.875	0.59
382.238	0.58
382.601	0.58
382.964	0.57
383.327	0.57
383.69	0.57
384.053	0.56
384.416	0.56
384.779	0.55
385.142	0.55
385.504	0.55
385.867	0.55
386.23	0.55
386.593	0.55
386.955	0.55
387.318	0.55
387.68	0.55
388.043	0.55
388.405	0.55
388.768	0.55
389.13	0.55
389.493	0.55
389.855	0.55
390.217	0.55
390.58	0.55
390.942	0.55
391.304	0.54
391.666	0.54
392.028	0.53
392.391	0.52
392.753	0.52
393.115	0.51
393.477	0.51
393.839	0.5
394.201	0.5
394.563	0.5
394.924	0.5
395.286	0.5
395.648	0.51
396.01	0.51
396.371	0.52
396.733	0.52
397.095	0.53
397.456	0.54
397.818	0.56
398.18	0.57
398.541	0.59
398.903	0.6
399.264	0.62
399.625	0.63
399.987	0.64
400.348	0.66
400.709	0.67
401.071	0.67
401.432	0.68
401.793	0.68
402.154	0.68
402.515	0.67
402.876	0.66
403.238	0.65
403.599	0.63
403.96	0.61
404.32	0.59
404.681	0.57
405.042	0.55
405.403	0.52
405.764	0.5
406.125	0.47
406.485	0.45
406.846	0.42
407.207	0.4
407.567	0.38
407.928	0.36
408.288	0.34
408.649	0.32
409.009	0.3
409.37	0.28
409.73	0.27
410.091	0.25
410.451	0.24
410.811	0.22
411.171	0.21
411.532	0.2
411.892	0.19
412.252	0.18
412.612	0.17
412.972	0.17
413.332	0.16
413.692	0.15
414.052	0.14
414.412	0.14
414.772	0.13
415.132	0.12
415.492	0.12
415.851	0.12
416.211	0.11
416.571	0.11
416.931	0.1
417.29	0.1
417.65	0.1
418.009	0.1
418.369	0.1
418.728	0.09
419.088	0.09
419.447	0.09
419.807	0.08
420.166	0.08
420.525	0.08
420.884	0.07
421.244	0.07
421.603	0.07
421.962	0.07
422.321	0.06
422.68	0.06
423.039	0.06
423.398	0.06
423.757	0.06
424.116	0.06
424.475	0.06
424.834	0.06
425.193	0.06
425.551	0.06
425.91	0.06
426.269	0.05
426.628	0.05
426.986	0.05
427.345	0.05
427.703	0.05
428.062	0.05
428.42	0.05
428.779	0.05
429.137	0.05
429.496	0.05
429.854	0.05
430.212	0.05
430.57	0.05
430.929	0.05
431.287	0.05
431.645	0.05
432.003	0.05
432.361	0.05
432.719	0.05
433.077	0.05
433.435	0.05
433.793	0.05
434.151	0.05
434.509	0.05
434.866	0.05
435.224	0.05
435.582	0.05
435.94	0.05
436.297	0.05
436.655	0.05
437.012	0.05
437.37	0.05
437.727	0.05
438.085	0.05
438.442	0.05
438.8	0.05
439.157	0.05
439.514	0.05
439.872	0.05
440.229	0.05
440.586	0.04
440.943	0.05
441.3	0.05
441.657	0.04
442.014	0.04
442.371	0.04
442.728	0.04
443.085	0.05
443.442	0.04
443.799	0.05
444.156	0.05
444.513	0.05
444.869	0.04
445.226	0.04
445.583	0.04
445.939	0.04
446.296	0.04
446.652	0.04
447.009	0.04
447.365	0.04
447.722	0.04
448.078	0.04
448.434	0.04
448.791	0.04
449.147	0.04
449.503	0.04
449.859	0.04
450.215	0.04
450.571	0.04
450.928	0.04
451.284	0.04
451.64	0.04
451.995	0.04
452.351	0.04
452.707	0.04
453.063	0.04
453.419	0.04
453.775	0.04
454.13	0.04
454.486	0.04
454.842	0.04
455.197	0.04
455.553	0.04
455.908	0.03
456.264	0.03
456.619	0.03
456.975	0.03
457.33	0.03
457.685	0.03
458.04	0.03
458.396	0.03
458.751	0.03
459.106	0.03
459.461	0.03
459.816	0.02
460.171	0.02
460.526	0.02
460.881	0.02
461.236	0.02
461.591	0.02
461.946	0.02
462.301	0.02
462.655	0.02
463.01	0.02
463.365	0.02
463.719	0.01
464.074	0.01
464.428	0.01
464.783	0.01
465.137	0
465.492	0
465.846	0
466.201	0
466.555	0
466.909	0
467.263	0.01
467.618	0.01
467.972	0.01
468.326	0.01
468.68	0.01
469.034	0.01
469.388	0.01
469.742	0.01
470.096	0.01
470.45	0.01
470.804	0.01
471.157	0.02
471.511	0.02
471.865	0.02
472.218	0.02
472.572	0.02
472.926	0.02
473.279	0.02
473.633	0.02
473.986	0.02
474.34	0.03
474.693	0.03
475.046	0.03
475.4	0.04
475.753	0.04
476.106	0.04
476.459	0.05
476.812	0.05
477.165	0.06
477.519	0.06
477.872	0.06
478.224	0.07
478.577	0.07
478.93	0.07
479.283	0.08
479.636	0.08
479.989	0.08
480.341	0.08
480.694	0.09
481.047	0.09
481.399	0.09
481.752	0.09
482.104	0.09
482.457	0.09
482.809	0.1
483.162	0.1
483.514	0.11
483.866	0.11
484.219	0.11
484.571	0.11
484.923	0.11
485.275	0.11
485.627	0.11
485.979	0.11
486.331	0.11
486.683	0.11
487.035	0.12
487.387	0.12
487.739	0.12
488.091	0.13
488.443	0.13
488.794	0.13
489.146	0.14
489.498	0.14
489.849	0.14
490.201	0.14
490.552	0.14
490.904	0.14
491.255	0.14
491.607	0.14
491.958	0.15
492.309	0.15
492.661	0.15
493.012	0.15
493.363	0.15
493.714	0.15
494.065	0.16
494.416	0.16
494.767	0.16
495.118	0.16
495.469	0.16
495.82	0.16
496.171	0.16
496.522	0.17
496.872	0.17
497.223	0.17
497.574	0.17
497.924	0.17
498.275	0.17
498.626	0.18
498.976	0.18
499.327	0.18
499.677	0.18
500.027	0.18
500.378	0.18
500.728	0.19
501.078	0.19
501.428	0.19
501.779	0.19
502.129	0.19
502.479	0.19
502.829	0.19
503.179	0.19
503.529	0.2
503.879	0.2
504.229	0.2
504.578	0.2
504.928	0.2
505.278	0.2
505.628	0.21
505.977	0.21
506.327	0.21
506.676	0.21
507.026	0.21
507.375	0.22
507.725	0.22
508.074	0.22
508.424	0.22
508.773	0.22
509.122	0.22
509.471	0.22
509.82	0.22
510.17	0.22
510.519	0.22
510.868	0.23
511.217	0.23
511.566	0.23
511.915	0.23
512.263	0.23
512.612	0.23
512.961	0.23
513.31	0.24
513.659	0.24
514.007	0.24
514.356	0.24
514.704	0.24
515.053	0.24
515.401	0.24
515.75	0.25
516.098	0.25
516.447	0.25
516.795	0.25
517.143	0.25
517.491	0.25
517.839	0.25
518.188	0.25
518.536	0.26
518.884	0.26
519.232	0.26
519.58	0.26
519.928	0.26
520.275	0.26
520.623	0.26
520.971	0.26
521.319	0.26
521.666	0.26
522.014	0.27
522.362	0.27
522.709	0.27
523.057	0.27
523.404	0.27
523.752	0.27
524.099	0.27
524.446	0.27
524.794	0.27
525.141	0.27
525.488	0.28
525.835	0.28
526.182	0.28
526.529	0.28
526.876	0.28
527.223	0.28
527.57	0.28
527.917	0.28
528.264	0.28
528.611	0.28
528.958	0.29
529.304	0.29
529.651	0.29
529.998	0.29
530.344	0.29
530.691	0.29
531.037	0.29
531.384	0.29
531.73	0.29
532.076	0.29
532.423	0.3
532.769	0.29
533.115	0.3
533.461	0.3
533.807	0.3
534.154	0.3
534.5	0.3
534.846	0.3
535.192	0.3
535.537	0.3
535.883	0.3
536.229	0.3
536.575	0.3
536.921	0.3
537.266	0.3
537.612	0.3
537.957	0.31
538.303	0.31
538.649	0.31
538.994	0.31
539.339	0.31
539.685	0.31
540.03	0.31
540.375	0.31
540.721	0.31
541.066	0.31
541.411	0.31
541.756	0.31
542.101	0.31
542.446	0.31
542.791	0.31
543.136	0.31
543.481	0.31
543.825	0.31
544.17	0.32
544.515	0.32
544.86	0.32
545.204	0.32
545.549	0.32
545.893	0.32
546.238	0.32
546.582	0.32
546.927	0.32
547.271	0.32
547.615	0.32
547.96	0.32
548.304	0.32
548.648	0.32
548.992	0.32
549.336	0.33
549.68	0.33
550.024	0.33
550.368	0.33
550.712	0.33
551.056	0.33
551.4	0.33
551.743	0.33
552.087	0.33
552.431	0.33
552.774	0.33
553.118	0.33
553.462	0.33
553.805	0.33
554.148	0.33
554.492	0.33
554.835	0.33
555.178	0.33
555.522	0.33
555.865	0.33
556.208	0.33
556.551	0.33
556.894	0.33
557.237	0.33
557.58	0.33
557.923	0.33
558.266	0.33
558.609	0.33
558.952	0.33
559.294	0.33
559.637	0.33
559.98	0.33
560.322	0.33
560.665	0.33
561.007	0.33
561.35	0.33
561.692	0.33
562.034	0.33
562.377	0.33
562.719	0.33
563.061	0.33
563.403	0.33
563.745	0.33
564.088	0.33
564.43	0.33
564.772	0.33
565.113	0.33
565.455	0.33
565.797	0.33
566.139	0.33
566.481	0.33
566.822	0.33
567.164	0.33
567.506	0.33
567.847	0.32
568.189	0.32
568.53	0.32
568.872	0.32
569.213	0.32
569.554	0.32
569.895	0.32
570.237	0.32
570.578	0.32
570.919	0.32
571.26	0.32
571.601	0.31
571.942	0.31
572.283	0.31
572.624	0.31
572.965	0.31
573.306	0.31
573.646	0.31
573.987	0.31
574.328	0.31
574.668	0.31
575.009	0.31
575.349	0.31
575.69	0.3
576.03	0.3
576.37	0.3
576.711	0.3
577.051	0.3
577.391	0.3
577.731	0.3
578.072	0.3
578.412	0.3
578.752	0.29
579.092	0.29
579.431	0.28
579.771	0.28
580.111	0.28
580.451	0.28
580.791	0.28
581.13	0.28
581.47	0.29
581.81	0.29
582.149	0.29
582.489	0.28
582.828	0.26
583.167	0.25
583.507	0.25
583.846	0.25
584.185	0.25
584.525	0.25
584.864	0.26
585.203	0.27
585.542	0.28
585.881	0.29
586.22	0.29
586.559	0.28
586.898	0.28
587.236	0.27
587.575	0.27
587.914	0.28
588.252	0.28
588.591	0.28
588.93	0.28
589.268	0.29
589.607	0.29
589.945	0.29
590.283	0.29
590.622	0.29
590.96	0.3
591.298	0.3
591.636	0.3
591.974	0.3
592.313	0.3
592.651	0.3
592.989	0.3
593.326	0.3
593.664	0.3
594.002	0.3
594.34	0.29
594.678	0.29
595.015	0.29
595.353	0.29
595.691	0.29
596.028	0.29
596.366	0.29
596.703	0.3
597.04	0.3
597.378	0.3
597.715	0.3
598.052	0.3
598.389	0.3
598.726	0.3
599.064	0.3
599.401	0.3
599.738	0.3
600.074	0.3
600.411	0.29
600.748	0.29
601.085	0.29
601.422	0.29
601.758	0.29
602.095	0.29
602.432	0.29
602.768	0.29
603.105	0.3
603.441	0.3
603.777	0.3
604.114	0.3
604.45	0.3
604.786	0.3
605.122	0.3
605.459	0.3
605.795	0.3
606.131	0.29
606.467	0.29
606.803	0.29
607.139	0.29
607.474	0.29
607.81	0.29
608.146	0.29
608.482	0.29
608.817	0.29
609.153	0.29
609.488	0.29
609.824	0.29
610.159	0.29
610.495	0.29
610.83	0.29
611.165	0.29
611.5	0.29
611.836	0.29
612.171	0.29
612.506	0.28
612.841	0.28
613.176	0.28
613.511	0.28
613.845	0.28
614.18	0.28
614.515	0.28
614.85	0.28
615.184	0.28
615.519	0.28
615.854	0.28
616.188	0.28
616.523	0.28
616.857	0.27
617.191	0.27
617.526	0.28
617.86	0.27
618.194	0.27
618.528	0.28
618.862	0.27
619.196	0.27
619.53	0.27
619.864	0.27
620.198	0.27
620.532	0.27
620.866	0.27
621.2	0.27
621.533	0.27
621.867	0.27
622.201	0.27
622.534	0.26
622.868	0.26
623.201	0.26
623.534	0.26
623.868	0.26
624.201	0.25
624.534	0.25
624.868	0.25
625.201	0.25
625.534	0.25
625.867	0.25
626.2	0.25
626.533	0.25
626.865	0.25
627.198	0.24
627.531	0.24
627.864	0.24
628.196	0.24
628.529	0.24
628.862	0.24
629.194	0.24
629.527	0.24
629.859	0.24
630.191	0.24
630.524	0.24
630.856	0.23
631.188	0.23
631.52	0.23
631.852	0.23
632.184	0.23
632.516	0.23
632.848	0.23
633.18	0.23
633.512	0.22
633.844	0.22
634.175	0.22
634.507	0.22
634.839	0.22
635.17	0.22
635.502	0.22
635.833	0.21
636.165	0.21
636.496	0.21
636.827	0.21
637.159	0.21
637.49	0.21
637.821	0.21
638.152	0.2
638.483	0.2
638.814	0.2
639.145	0.2
639.476	0.2
639.807	0.2
640.137	0.2
640.468	0.19
640.799	0.19
641.129	0.19
641.46	0.19
641.791	0.19
642.121	0.19
642.451	0.18
642.782	0.18
643.112	0.18
643.442	0.18
643.773	0.18
644.103	0.18
644.433	0.18
644.763	0.18
645.093	0.18
645.423	0.18
645.753	0.17
646.082	0.17
646.412	0.17
646.742	0.17
647.072	0.17
647.401	0.17
647.731	0.17
648.06	0.16
648.39	0.16
648.719	0.16
649.048	0.16
649.378	0.16
649.707	0.16
650.036	0.16
650.365	0.16
650.694	0.16
651.023	0.16
651.352	0.16
651.681	0.16
652.01	0.16
652.339	0.16
652.668	0.16
652.996	0.16
653.325	0.16
653.654	0.16
653.982	0.16
654.311	0.15
654.639	0.15
654.967	0.15
655.296	0.16
655.624	0.16
655.952	0.16
656.28	0.15
656.609	0.14
656.937	0.11
657.265	0.08
657.593	0.06
657.92	0.04
658.248	0.04
658.576	0.04
658.904	0.05
659.231	0.07
659.559	0.09
659.887	0.11
660.214	0.14
660.542	0.15
660.869	0.15
661.196	0.15
661.524	0.15
661.851	0.15
662.178	0.15
662.505	0.15
662.832	0.15
663.159	0.15
663.486	0.15
663.813	0.14
664.14	0.14
664.467	0.14
664.794	0.14
665.12	0.14
665.447	0.14
665.774	0.14
666.1	0.14
666.427	0.14
666.753	0.14
667.079	0.13
667.406	0.13
667.732	0.13
668.058	0.13
668.384	0.13
668.71	0.13
669.036	0.13
669.362	0.13
669.688	0.13
670.014	0.13
670.34	0.13
670.666	0.13
670.991	0.13
671.317	0.13
671.643	0.12
671.968	0.12
672.294	0.12
672.619	0.12
672.945	0.12
673.27	0.12
673.595	0.12
673.92	0.12
674.246	0.12
674.571	0.12
674.896	0.11
675.221	0.11
675.546	0.11
675.87	0.11
676.195	0.11
676.52	0.11
676.845	0.1
677.169	0.1
677.494	0.1
677.819	0.1
678.143	0.1
678.468	0.1
678.792	0.1
679.116	0.1
679.44	0.1
679.765	0.1
680.089	0.1
680.413	0.1
680.737	0.09
681.061	0.09
681.385	0.09
681.709	0.09
682.033	0.09
682.356	0.09
682.68	0.09
683.004	0.09
683.327	0.09
683.651	0.09
683.974	0.09
684.298	0.09
684.621	0.09
684.944	0.09
685.268	0.08
685.591	0.08
685.914	0.08
686.237	0.08
686.56	0.07
686.883	0.07
687.206	0.07
687.529	0.07
687.852	0.07
688.175	0.06
688.497	0.06
688.82	0.06
689.142	0.06
689.465	0.06
689.787	0.06
690.11	0.06
690.432	0.06
690.755	0.06
691.077	0.06
691.399	0.06
691.721	0.06
692.043	0.06
692.365	0.06
692.687	0.06
693.009	0.06
693.331	0.05
693.653	0.05
693.974	0.05
694.296	0.05
694.618	0.05
694.939	0.05
695.261	0.05
695.582	0.05
695.904	0.05
696.225	0.05
696.546	0.05
696.868	0.05
697.189	0.05
697.51	0.04
697.831	0.04
698.152	0.04
698.473	0.04
698.794	0.03
699.114	0.03
699.435	0.03
699.756	0.03
700.077	0.03
700.397	0.03
700.718	0.04
701.038	0.04
701.359	0.04
701.679	0.04
701.999	0.04
702.32	0.04
702.64	0.04
702.96	0.04
703.28	0.04
703.6	0.04
703.92	0.03
704.24	0.03
704.56	0.03
704.879	0.03
705.199	0.03
705.519	0.03
705.838	0.03
706.158	0.03
706.478	0.03
706.797	0.03
707.116	0.03
707.436	0.03
707.755	0.03
708.074	0.03
708.393	0.02
708.712	0.02
709.031	0.02
709.35	0.02
709.669	0.02
709.988	0.02
710.307	0.02
710.626	0.02
710.944	0.02
711.263	0.02
711.582	0.02
711.9	0.02
712.219	0.02
712.537	0.02
712.855	0.02
713.174	0.02
713.492	0.03
713.81	0.03
714.128	0.02
714.446	0.02
714.764	0.02
715.082	0.02
715.4	0.02
715.718	0.02
716.035	0.02
716.353	0.02
716.671	0.02
716.988	0.03
717.306	0.03
717.623	0.03
717.941	0.03
718.258	0.03
718.575	0.03
718.893	0.03
719.21	0.03
719.527	0.03
719.844	0.03
720.161	0.03
720.478	0.03
720.795	0.03
721.112	0.03
721.428	0.03
721.745	0.03
722.062	0.03
722.378	0.03
722.695	0.04
723.011	0.03
723.328	0.03
723.644	0.03
723.96	0.04
724.276	0.04
724.593	0.04
724.909	0.04
725.225	0.04
725.541	0.04
725.857	0.04
726.173	0.04
726.488	0.04
726.804	0.04
727.12	0.04
727.435	0.04
727.751	0.04
728.067	0.04
728.382	0.04
728.697	0.04
729.013	0.04
729.328	0.04
729.643	0.04
729.958	0.04
730.273	0.04
730.588	0.04
730.903	0.03
731.218	0.03
731.533	0.03
731.848	0.03
732.163	0.03
732.477	0.03
732.792	0.03
733.107	0.03
733.421	0.03
733.736	0.03
734.05	0.03
734.364	0.03
734.678	0.03
734.993	0.03
735.307	0.03
735.621	0.03
735.935	0.03
736.249	0.03
736.563	0.03
736.877	0.03
737.19	0.03
737.504	0.03
737.818	0.03
738.131	0.04
738.445	0.04
738.758	0.04
739.072	0.04
739.385	0.04
739.698	0.04
740.012	0.04
740.325	0.04
740.638	0.03
740.951	0.03
741.264	0.03
741.577	0.03
741.89	0.03
742.203	0.03
742.515	0.03
742.828	0.03
743.141	0.03
743.453	0.03
743.766	0.03
744.078	0.03
744.391	0.03
744.703	0.03
745.015	0.03
745.327	0.03
745.639	0.03
745.952	0.03
746.264	0.03
746.575	0.03
746.887	0.03
747.199	0.03
747.511	0.03
747.823	0.03
748.134	0.02
748.446	0.03
748.757	0.02
749.069	0.02
749.38	0.02
749.692	0.02
750.003	0.02
750.314	0.02
750.625	0.02
750.936	0.02
751.248	0.02
751.559	0.02
751.869	0.02
752.18	0.02
752.491	0.02
752.802	0.02
753.112	0.02
753.423	0.02
753.734	0.02
754.044	0.02
754.355	0.02
754.665	0.02
754.975	0.02
755.285	0.02
755.596	0.02
755.906	0.02
756.216	0.01
756.526	0.01
756.836	0.01
757.146	0.01
757.455	0.01
757.765	0.01
758.075	0.01
758.385	0.01
758.694	0.01
759.004	0.01
759.313	0.01
759.622	0.01
759.932	0.01
760.241	0.01
760.55	0.01
760.859	0.01
761.168	0.01
761.477	0.01
761.786	0.01
762.095	0.01
762.404	0.01
762.713	0.01
763.021	0.01
763.33	0.01
763.639	0.01
763.947	0.01
764.256	0.01
764.564	0.01
764.872	0.01
765.181	0.01
765.489	0.01
765.797	0.01
766.105	0.01
766.413	0.01
766.721	0.01
767.029	0.01
767.337	0.01
767.644	0.01
767.952	0.02
768.26	0.02
768.567	0.02
768.875	0.02
769.182	0.02
769.49	0.02
769.797	0.02
770.104	0.02
770.411	0.02
770.718	0.02
771.026	0.02
771.333	0.02
771.639	0.02
771.946	0.02
772.253	0.02
772.56	0.02
772.867	0.02
773.173	0.02
773.48	0.02
773.786	0.02
774.093	0.02
774.399	0.02
774.705	0.02
775.012	0.02
775.318	0.02
775.624	0.02
775.93	0.02
776.236	0.02
776.542	0.02
776.848	0.01
777.154	0.01
777.459	0.01
777.765	0.01
778.071	0.01
778.376	0.01
778.682	0.01
778.987	0.01
779.292	0.01
779.598	0.01
779.903	0.01
780.208	0.01
780.513	0.01
780.818	0.01
781.123	0.01
781.428	0.01
781.733	0.01
782.038	0.01
782.343	0.01
782.647	0.01
782.952	0.01
783.256	0.01
783.561	0.01
783.865	0.01
784.17	0.01
784.474	0.01
784.778	0.01
785.082	0.01
785.386	0.01
785.69	0.01
785.994	0.01
786.298	0.01
786.602	0.01
786.906	0.01
787.209	0.01
787.513	0.01
787.817	0.01
788.12	0.01
788.424	0.01
788.727	0.01
789.03	0.01
789.333	0.01
789.637	0.01
789.94	0.01
790.243	0.01
790.546	0.01
790.849	0.01
791.152	0.02
791.454	0.01
791.757	0.01
792.06	0.01
792.362	0.01
792.665	0.01
792.967	0.01
793.27	0.01
793.572	0.01
793.874	0.01
794.177	0.01
794.479	0.01
794.781	0.01
795.083	0.01
795.385	0.01
795.687	0.01
795.989	0.01
796.29	0.01
796.592	0.01
796.894	0.01
797.195	0.02
797.497	0.02
797.798	0.02
798.1	0.02
798.401	0.01
798.702	0.01
799.003	0.01
799.304	0.01
799.605	0.01
799.906	0.01
800.207	0.01
800.508	0.02
800.809	0.02
801.11	0.02
801.41	0.02
801.711	0.02
802.011	0.02
802.312	0.02
802.612	0.01
802.913	0.01
803.213	0.01
803.513	0.01
803.813	0.01
804.113	0.01
804.413	0.01
804.713	0.01
805.013	0.01
805.313	0.01
805.613	0.01
805.912	0.01
806.212	0.01
806.511	0.01
806.811	0.01
807.11	0.01
807.41	0.01
807.709	0.01
808.008	0.01
808.307	0.01
808.606	0.01
808.905	0.01
809.204	0.01
809.503	0.02
809.802	0.02
810.101	0.02
810.399	0.02
810.698	0.02
810.997	0.02
811.295	0.02
811.593	0.02
811.892	0.01
812.19	0.01
812.488	0.01
812.786	0.02
813.084	0.02
813.383	0.02
813.68	0.02
813.978	0.02
814.276	0.02
814.574	0.02
814.872	0.02
815.169	0.02
815.467	0.02
815.764	0.02
816.062	0.02
816.359	0.02
816.656	0.02
816.954	0.02
817.251	0.02
817.548	0.02
817.845	0.02
818.142	0.02
818.439	0.02
818.735	0.02
819.032	0.02
819.329	0.02
819.626	0.02
819.922	0.02
820.219	0.02
820.515	0.02
820.811	0.02
821.108	0.02
821.404	0.02
821.7	0.02
821.996	0.02
822.292	0.02
822.588	0.02
822.884	0.02
823.18	0.02
823.475	0.02
823.771	0.02
824.067	0.02
824.362	0.02
824.658	0.02
824.953	0.02
825.249	0.02
825.544	0.02
825.839	0.02
826.134	0.02
826.429	0.02
826.724	0.02
827.019	0.02
827.314	0.02
827.609	0.02
827.904	0.02
828.198	0.02
828.493	0.03
828.787	0.03
829.082	0.03
829.376	0.03
829.671	0.03
829.965	0.03
830.259	0.03
830.553	0.03
830.847	0.03
831.141	0.03
831.435	0.03
831.729	0.03
832.023	0.04
832.317	0.04
832.61	0.03
832.904	0.03
833.197	0.03
833.491	0.03
833.784	0.03
834.077	0.03
834.371	0.03
834.664	0.03
834.957	0.03
835.25	0.03
835.543	0.03
835.836	0.04
836.129	0.04
836.421	0.03
836.714	0.03
837.007	0.03
837.299	0.03
837.592	0.03
837.884	0.03
838.177	0.03
838.469	0.03
838.761	0.03
839.053	0.03
839.345	0.03
839.637	0.02
839.929	0.02
840.221	0.02
840.513	0.02
840.805	0.02
841.096	0.02
841.388	0.02
841.68	0.02
841.971	0.03
842.262	0.03
842.554	0.03
842.845	0.03
843.136	0.03
843.427	0.04
843.718	0.04
844.009	0.04
844.3	0.04
844.591	0.04
844.882	0.04
845.173	0.04
845.463	0.04
845.754	0.04
846.044	0.04
846.335	0.04
846.625	0.04
846.915	0.04
847.206	0.04
847.496	0.04
847.786	0.04
848.076	0.04
848.366	0.04
848.656	0.03
848.945	0.03
849.235	0.03
849.525	0.03
849.814	0.03
850.104	0.03
850.393	0.03
850.683	0.03
850.972	0.03
851.261	0.02
851.551	0.02
851.84	0.02
852.129	0.03
852.418	0.03
852.707	0.03
852.995	0.03
853.284	0.03
853.573	0.03
853.862	0.03
854.15	0.04
854.439	0.04
854.727	0.04
855.015	0.04
855.304	0.04
855.592	0.04
855.88	0.04
856.168	0.04
856.456	0.04
856.744	0.03
857.032	0.04
857.32	0.04
857.607	0.04
857.895	0.04
858.183	0.04
858.47	0.04
858.757	0.04
859.045	0.04
859.332	0.03
859.619	0.03
859.907	0.03
860.194	0.03
860.481	0.03
860.768	0.03
861.054	0.03
861.341	0.04
861.628	0.04
861.915	0.04
862.201	0.04
862.488	0.04
862.774	0.04
863.061	0.04
863.347	0.04
863.633	0.04
863.919	0.03
864.205	0.03
864.491	0.03
864.777	0.03
865.063	0.03
865.349	0.03
865.635	0.02
865.92	0.03
866.206	0.04
866.492	0.03
866.777	0.03
867.062	0.03
867.348	0.03
867.633	0.03
867.918	0.03
868.203	0.03
868.488	0.03
868.773	0.03
869.058	0.03
869.343	0.03
869.628	0.02
869.912	0.02
870.197	0.02
870.482	0.03
870.766	0.02
871.05	0.02
871.335	0.02
871.619	0
871.903	-0
872.187	-0.01
872.471	-0.01
872.755	-0.01
873.039	-0.01
873.323	-0
873.607	0
873.89	0.02
874.174	0.03
874.458	0.02
874.741	0.03
875.024	0.03
875.308	0.03
875.591	0.03
875.874	0.02
876.157	0.02
876.44	0.04
876.723	0.03
877.006	0.04
877.289	0.02
877.572	0.01
877.854	0.01
878.137	-0
878.42	-0.03
878.702	-0.03
878.984	-0.04
879.267	-0.03
879.549	0
879.831	-0.01
880.113	0
880.395	0.01
880.677	0.01
880.959	0.02
