Data from Rubpy_BV_300_EDTA_Buffered_Absorbance_11-53-10-719.txt Node
Date: Wed Jul 01 11:53:10 BST 2026
User: fpm-admin
Spectrometer: OFX00224
Trigger mode: 0
Integration Time (sec): 7.000000E-2
Scans to average: 1
Nonlinearity correction enabled: false
Boxcar width: 3
Storing dark spectrum: false
XAxis mode: Wavelengths
Number of Pixels in Spectrum: 2136
>>>>>Begin Spectral Data<<<<<
154.91	-0.29
155.289	-0.31
155.669	-0.33
156.048	-0.32
156.428	-0.46
156.807	-0.25
157.186	-0
157.566	0.09
157.945	0.03
158.325	0.04
158.704	0.07
159.083	0.14
159.462	0.13
159.842	0.01
160.221	-0.07
160.6	-0.42
160.979	-0
161.359	-0
161.738	-0
162.117	-0
162.496	-0.88
162.875	-0.99
163.254	-0.64
163.633	-0.44
164.012	-0.35
164.391	-1.31
164.77	-0
165.149	-0
165.528	0.7
165.907	-0
166.286	0.9
166.665	-0
167.044	-0
167.423	-0
167.802	-0
168.181	-0.06
168.559	0.08
168.938	0.03
169.317	0.26
169.696	0.2
170.074	0.25
170.453	0.3
170.832	0.16
171.21	0.17
171.589	0.21
171.968	0.45
172.346	1.01
172.725	-0
173.103	0.71
173.482	-0
173.861	-0
174.239	-0
174.617	-0
174.996	-0
175.374	0.28
175.753	-0
176.131	0.78
176.51	0.23
176.888	-0.01
177.266	0.08
177.645	-0.05
178.023	0.14
178.401	-0.02
178.779	-0.13
179.158	-0.53
179.536	0.05
179.914	0.23
180.292	-0
180.67	-0.11
181.048	0.15
181.427	-0.02
181.805	-0
182.183	-1.18
182.561	-0.12
182.939	-0.03
183.317	0.07
183.695	-0
184.073	-0
184.451	-0
184.829	-0
185.206	-0.3
185.584	-0.4
185.962	-0.19
186.34	-0.11
186.718	-0.13
187.096	-0.3
187.473	0.01
187.851	0.07
188.229	0.13
188.607	0.09
188.984	0.13
189.362	0.13
189.74	0.13
190.117	0.13
190.495	0.14
190.872	0.12
191.25	0.17
191.627	0.15
192.005	0.16
192.382	0.16
192.76	0.16
193.137	0.15
193.515	0.12
193.892	0.12
194.269	0.11
194.647	0.12
195.024	0.09
195.401	0.1
195.779	0.07
196.156	0.06
196.533	0.04
196.91	0.02
197.288	0.03
197.665	0.04
198.042	0.03
198.419	0.06
198.796	0.07
199.173	0.07
199.55	0.1
199.927	0.1
200.304	0.11
200.681	0.11
201.058	0.11
201.435	0.13
201.812	0.12
202.189	0.11
202.566	0.1
202.943	0.11
203.32	0.12
203.697	0.12
204.073	0.1
204.45	0.13
204.827	0.16
205.204	0.18
205.58	0.16
205.957	0.15
206.334	0.16
206.71	0.14
207.087	0.14
207.464	0.1
207.84	0.08
208.217	0.09
208.593	0.08
208.97	0.04
209.346	0.05
209.723	0.06
210.099	0.1
210.476	0.09
210.852	0.1
211.228	0.12
211.605	0.13
211.981	0.16
212.357	0.14
212.733	0.14
213.11	0.17
213.486	0.17
213.862	0.14
214.238	0.16
214.614	0.13
214.991	0.13
215.367	0.12
215.743	0.07
216.119	0.04
216.495	0.02
216.871	0.01
217.247	0.01
217.623	0.01
217.999	-0
218.375	0.03
218.751	0.04
219.127	0.05
219.502	0.06
219.878	0.05
220.254	0.07
220.63	0.07
221.006	0.06
221.381	0.05
221.757	0.07
222.133	0.06
222.508	0.11
222.884	0.08
223.26	0.09
223.635	0.13
224.011	0.12
224.386	0.12
224.762	0.11
225.137	0.09
225.513	0.1
225.888	0.08
226.264	0.06
226.639	0.08
227.014	0.06
227.39	0.07
227.765	0.07
228.14	0.07
228.516	0.09
228.891	0.08
229.266	0.08
229.641	0.09
230.017	0.1
230.392	0.09
230.767	0.06
231.142	0.08
231.517	0.09
231.892	0.09
232.267	0.09
232.642	0.09
233.017	0.09
233.392	0.09
233.767	0.06
234.142	0.06
234.517	0.04
234.892	0.04
235.267	0.03
235.641	0.07
236.016	0.09
236.391	0.13
236.766	0.12
237.14	0.15
237.515	0.13
237.89	0.15
238.264	0.15
238.639	0.15
239.014	0.14
239.388	0.15
239.763	0.15
240.137	0.17
240.512	0.16
240.886	0.14
241.261	0.14
241.635	0.11
242.009	0.1
242.384	0.08
242.758	0.11
243.132	0.11
243.507	0.11
243.881	0.12
244.255	0.13
244.629	0.1
245.004	0.11
245.378	0.08
245.752	0.05
246.126	0.06
246.5	0.05
246.874	0.07
247.248	0.09
247.622	0.09
247.996	0.11
248.37	0.11
248.744	0.1
249.118	0.11
249.492	0.1
249.866	0.09
250.24	0.07
250.613	0.06
250.987	0.09
251.361	0.08
251.735	0.07
252.108	0.06
252.482	0.08
252.856	0.11
253.229	0.1
253.603	0.06
253.977	0.04
254.35	0.04
254.724	0.06
255.097	0.04
255.471	0.03
255.844	0.04
256.218	0.06
256.591	0.08
256.964	0.08
257.338	0.08
257.711	0.09
258.084	0.08
258.458	0.07
258.831	0.09
259.204	0.09
259.577	0.1
259.95	0.11
260.323	0.12
260.697	0.13
261.07	0.15
261.443	0.15
261.816	0.16
262.189	0.14
262.562	0.12
262.935	0.11
263.308	0.1
263.68	0.08
264.053	0.06
264.426	0.04
264.799	0.07
265.172	0.07
265.545	0.07
265.917	0.08
266.29	0.07
266.663	0.07
267.035	0.08
267.408	0.04
267.781	0.05
268.153	0.05
268.526	0.04
268.898	0.07
269.271	0.07
269.643	0.08
270.016	0.08
270.388	0.07
270.76	0.08
271.133	0.08
271.505	0.07
271.877	0.08
272.25	0.1
272.622	0.1
272.994	0.1
273.366	0.1
273.739	0.1
274.111	0.09
274.483	0.09
274.855	0.08
275.227	0.1
275.599	0.1
275.971	0.11
276.343	0.11
276.715	0.12
277.087	0.12
277.459	0.12
277.831	0.12
278.203	0.12
278.574	0.11
278.946	0.1
279.318	0.11
279.69	0.09
280.061	0.08
280.433	0.09
280.805	0.07
281.176	0.07
281.548	0.08
281.92	0.08
282.291	0.09
282.663	0.09
283.034	0.08
283.406	0.1
283.777	0.1
284.148	0.09
284.52	0.1
284.891	0.1
285.262	0.09
285.634	0.11
286.005	0.09
286.376	0.08
286.747	0.09
287.119	0.1
287.49	0.1
287.861	0.1
288.232	0.08
288.603	0.09
288.974	0.09
289.345	0.09
289.716	0.07
290.087	0.07
290.458	0.07
290.829	0.09
291.2	0.1
291.571	0.1
291.941	0.11
292.312	0.11
292.683	0.13
293.054	0.12
293.424	0.11
293.795	0.09
294.166	0.1
294.536	0.1
294.907	0.1
295.277	0.1
295.648	0.1
296.018	0.1
296.389	0.12
296.759	0.12
297.13	0.1
297.5	0.1
297.871	0.09
298.241	0.1
298.611	0.09
298.981	0.09
299.352	0.07
299.722	0.08
300.092	0.07
300.462	0.06
300.832	0.04
301.202	0.03
301.573	0.03
301.943	0.04
302.313	0.03
302.683	0.03
303.053	0.03
303.422	0.03
303.792	0.03
304.162	0.03
304.532	0.03
304.902	0.03
305.272	0.03
305.641	0.03
306.011	0.03
306.381	0.02
306.75	0.02
307.12	0.02
307.49	0.02
307.859	0.02
308.229	0.02
308.598	0.03
308.968	0.03
309.337	0.03
309.707	0.03
310.076	0.03
310.445	0.03
310.815	0.03
311.184	0.03
311.553	0.04
311.923	0.04
312.292	0.04
312.661	0.05
313.03	0.05
313.399	0.05
313.768	0.05
314.137	0.05
314.506	0.05
314.875	0.06
315.244	0.06
315.613	0.06
315.982	0.06
316.351	0.06
316.72	0.06
317.089	0.07
317.458	0.07
317.826	0.07
318.195	0.07
318.564	0.07
318.933	0.07
319.301	0.07
319.67	0.07
320.038	0.07
320.407	0.08
320.775	0.08
321.144	0.07
321.512	0.07
321.881	0.07
322.249	0.08
322.618	0.08
322.986	0.08
323.354	0.08
323.723	0.08
324.091	0.09
324.459	0.09
324.827	0.08
325.195	0.08
325.564	0.09
325.932	0.09
326.3	0.09
326.668	0.09
327.036	0.09
327.404	0.09
327.772	0.1
328.14	0.1
328.508	0.1
328.875	0.1
329.243	0.1
329.611	0.1
329.979	0.11
330.346	0.11
330.714	0.11
331.082	0.11
331.449	0.11
331.817	0.11
332.185	0.11
332.552	0.11
332.92	0.11
333.287	0.12
333.655	0.12
334.022	0.12
334.389	0.13
334.757	0.13
335.124	0.13
335.491	0.13
335.859	0.14
336.226	0.14
336.593	0.14
336.96	0.14
337.327	0.15
337.695	0.15
338.062	0.15
338.429	0.15
338.796	0.16
339.163	0.16
339.53	0.16
339.897	0.16
340.263	0.17
340.63	0.17
340.997	0.17
341.364	0.17
341.731	0.18
342.097	0.18
342.464	0.18
342.831	0.19
343.197	0.19
343.564	0.19
343.931	0.2
344.297	0.2
344.664	0.2
345.03	0.21
345.396	0.21
345.763	0.21
346.129	0.22
346.496	0.22
346.862	0.22
347.228	0.22
347.594	0.23
347.961	0.23
348.327	0.23
348.693	0.24
349.059	0.24
349.425	0.25
349.791	0.25
350.157	0.25
350.523	0.26
350.889	0.26
351.255	0.26
351.621	0.27
351.987	0.27
352.353	0.27
352.719	0.28
353.084	0.28
353.45	0.28
353.816	0.29
354.181	0.29
354.547	0.29
354.913	0.29
355.278	0.3
355.644	0.3
356.009	0.31
356.375	0.31
356.74	0.32
357.106	0.32
357.471	0.33
357.836	0.33
358.202	0.34
358.567	0.34
358.932	0.35
359.297	0.35
359.663	0.36
360.028	0.36
360.393	0.37
360.758	0.37
361.123	0.38
361.488	0.39
361.853	0.39
362.218	0.4
362.583	0.4
362.948	0.41
363.312	0.41
363.677	0.41
364.042	0.42
364.407	0.43
364.772	0.43
365.136	0.44
365.501	0.44
365.865	0.45
366.23	0.45
366.595	0.46
366.959	0.46
367.324	0.47
367.688	0.47
368.052	0.47
368.417	0.48
368.781	0.48
369.145	0.49
369.51	0.49
369.874	0.5
370.238	0.5
370.602	0.51
370.967	0.51
371.331	0.51
371.695	0.52
372.059	0.52
372.423	0.52
372.787	0.52
373.151	0.52
373.515	0.52
373.878	0.52
374.242	0.52
374.606	0.51
374.97	0.51
375.334	0.51
375.697	0.5
376.061	0.5
376.425	0.49
376.788	0.49
377.152	0.49
377.515	0.48
377.879	0.48
378.242	0.47
378.606	0.47
378.969	0.47
379.333	0.46
379.696	0.46
380.059	0.45
380.422	0.45
380.786	0.44
381.149	0.44
381.512	0.44
381.875	0.43
382.238	0.43
382.601	0.43
382.964	0.43
383.327	0.42
383.69	0.42
384.053	0.42
384.416	0.42
384.779	0.42
385.142	0.42
385.504	0.42
385.867	0.42
386.23	0.42
386.593	0.42
386.955	0.42
387.318	0.42
387.68	0.42
388.043	0.42
388.405	0.42
388.768	0.43
389.13	0.43
389.493	0.43
389.855	0.43
390.217	0.43
390.58	0.43
390.942	0.43
391.304	0.42
391.666	0.42
392.028	0.42
392.391	0.41
392.753	0.41
393.115	0.41
393.477	0.4
393.839	0.4
394.201	0.39
394.563	0.39
394.924	0.39
395.286	0.4
395.648	0.4
396.01	0.4
396.371	0.41
396.733	0.41
397.095	0.42
397.456	0.43
397.818	0.44
398.18	0.45
398.541	0.47
398.903	0.48
399.264	0.49
399.625	0.5
399.987	0.52
400.348	0.53
400.709	0.54
401.071	0.54
401.432	0.55
401.793	0.55
402.154	0.55
402.515	0.54
402.876	0.54
403.238	0.53
403.599	0.51
403.96	0.5
404.32	0.48
404.681	0.47
405.042	0.45
405.403	0.43
405.764	0.41
406.125	0.39
406.485	0.37
406.846	0.35
407.207	0.33
407.567	0.31
407.928	0.29
408.288	0.28
408.649	0.26
409.009	0.24
409.37	0.23
409.73	0.21
410.091	0.2
410.451	0.19
410.811	0.18
411.171	0.17
411.532	0.16
411.892	0.15
412.252	0.14
412.612	0.14
412.972	0.13
413.332	0.12
413.692	0.11
414.052	0.11
414.412	0.11
414.772	0.1
415.132	0.1
415.492	0.09
415.851	0.09
416.211	0.09
416.571	0.09
416.931	0.08
417.29	0.08
417.65	0.08
418.009	0.07
418.369	0.07
418.728	0.07
419.088	0.07
419.447	0.07
419.807	0.06
420.166	0.06
420.525	0.06
420.884	0.06
421.244	0.05
421.603	0.05
421.962	0.05
422.321	0.05
422.68	0.05
423.039	0.05
423.398	0.05
423.757	0.05
424.116	0.05
424.475	0.05
424.834	0.05
425.193	0.04
425.551	0.04
425.91	0.04
426.269	0.04
426.628	0.04
426.986	0.04
427.345	0.04
427.703	0.04
428.062	0.04
428.42	0.04
428.779	0.04
429.137	0.04
429.496	0.04
429.854	0.04
430.212	0.04
430.57	0.04
430.929	0.04
431.287	0.04
431.645	0.04
432.003	0.04
432.361	0.04
432.719	0.04
433.077	0.04
433.435	0.04
433.793	0.04
434.151	0.04
434.509	0.04
434.866	0.03
435.224	0.03
435.582	0.03
435.94	0.03
436.297	0.03
436.655	0.03
437.012	0.03
437.37	0.03
437.727	0.03
438.085	0.03
438.442	0.03
438.8	0.03
439.157	0.03
439.514	0.04
439.872	0.03
440.229	0.03
440.586	0.03
440.943	0.03
441.3	0.03
441.657	0.03
442.014	0.03
442.371	0.03
442.728	0.03
443.085	0.03
443.442	0.03
443.799	0.03
444.156	0.03
444.513	0.03
444.869	0.03
445.226	0.03
445.583	0.03
445.939	0.03
446.296	0.03
446.652	0.03
447.009	0.03
447.365	0.03
447.722	0.02
448.078	0.02
448.434	0.03
448.791	0.02
449.147	0.03
449.503	0.03
449.859	0.03
450.215	0.03
450.571	0.03
450.928	0.02
451.284	0.03
451.64	0.02
451.995	0.02
452.351	0.02
452.707	0.02
453.063	0.02
453.419	0.03
453.775	0.02
454.13	0.02
454.486	0.02
454.842	0.02
455.197	0.02
455.553	0.02
455.908	0.02
456.264	0.02
456.619	0.02
456.975	0.02
457.33	0.02
457.685	0.02
458.04	0.02
458.396	0.01
458.751	0.01
459.106	0.01
459.461	0.01
459.816	0.01
460.171	0
460.526	0
460.881	-0
461.236	-0
461.591	-0
461.946	-0
462.301	-0
462.655	-0
463.01	-0
463.365	-0
463.719	-0.01
464.074	-0.01
464.428	-0.01
464.783	-0.01
465.137	-0.01
465.492	-0.01
465.846	-0.01
466.201	-0.01
466.555	-0.01
466.909	-0.01
467.263	-0.01
467.618	-0.01
467.972	-0.01
468.326	-0.01
468.68	-0.01
469.034	-0.01
469.388	-0.01
469.742	-0.01
470.096	-0.01
470.45	-0.01
470.804	-0.01
471.157	-0.01
471.511	-0.01
471.865	-0
472.218	-0
472.572	-0.01
472.926	-0
473.279	-0
473.633	-0
473.986	-0
474.34	0
474.693	0
475.046	0.01
475.4	0.01
475.753	0.01
476.106	0.02
476.459	0.02
476.812	0.02
477.165	0.03
477.519	0.03
477.872	0.03
478.224	0.04
478.577	0.04
478.93	0.04
479.283	0.04
479.636	0.05
479.989	0.05
480.341	0.05
480.694	0.05
481.047	0.05
481.399	0.05
481.752	0.05
482.104	0.06
482.457	0.06
482.809	0.06
483.162	0.06
483.514	0.07
483.866	0.07
484.219	0.07
484.571	0.07
484.923	0.07
485.275	0.07
485.627	0.07
485.979	0.07
486.331	0.07
486.683	0.08
487.035	0.08
487.387	0.08
487.739	0.08
488.091	0.08
488.443	0.09
488.794	0.09
489.146	0.09
489.498	0.09
489.849	0.09
490.201	0.09
490.552	0.09
490.904	0.1
491.255	0.1
491.607	0.1
491.958	0.1
492.309	0.1
492.661	0.1
493.012	0.1
493.363	0.1
493.714	0.1
494.065	0.11
494.416	0.11
494.767	0.11
495.118	0.11
495.469	0.11
495.82	0.11
496.171	0.11
496.522	0.11
496.872	0.11
497.223	0.12
497.574	0.12
497.924	0.12
498.275	0.12
498.626	0.12
498.976	0.12
499.327	0.12
499.677	0.12
500.027	0.13
500.378	0.13
500.728	0.13
501.078	0.13
501.428	0.13
501.779	0.13
502.129	0.13
502.479	0.13
502.829	0.13
503.179	0.13
503.529	0.13
503.879	0.14
504.229	0.14
504.578	0.14
504.928	0.14
505.278	0.14
505.628	0.14
505.977	0.14
506.327	0.15
506.676	0.15
507.026	0.15
507.375	0.15
507.725	0.15
508.074	0.15
508.424	0.15
508.773	0.15
509.122	0.15
509.471	0.15
509.82	0.15
510.17	0.15
510.519	0.16
510.868	0.16
511.217	0.16
511.566	0.16
511.915	0.16
512.263	0.16
512.612	0.16
512.961	0.16
513.31	0.16
513.659	0.17
514.007	0.17
514.356	0.17
514.704	0.17
515.053	0.17
515.401	0.17
515.75	0.17
516.098	0.17
516.447	0.17
516.795	0.17
517.143	0.17
517.491	0.17
517.839	0.17
518.188	0.18
518.536	0.18
518.884	0.18
519.232	0.18
519.58	0.18
519.928	0.19
520.275	0.19
520.623	0.19
520.971	0.19
521.319	0.19
521.666	0.19
522.014	0.19
522.362	0.19
522.709	0.19
523.057	0.19
523.404	0.19
523.752	0.19
524.099	0.19
524.446	0.19
524.794	0.19
525.141	0.19
525.488	0.19
525.835	0.19
526.182	0.2
526.529	0.2
526.876	0.2
527.223	0.2
527.57	0.2
527.917	0.2
528.264	0.2
528.611	0.2
528.958	0.2
529.304	0.2
529.651	0.2
529.998	0.21
530.344	0.21
530.691	0.21
531.037	0.21
531.384	0.21
531.73	0.21
532.076	0.21
532.423	0.21
532.769	0.21
533.115	0.21
533.461	0.21
533.807	0.21
534.154	0.21
534.5	0.21
534.846	0.21
535.192	0.21
535.537	0.21
535.883	0.21
536.229	0.21
536.575	0.22
536.921	0.22
537.266	0.22
537.612	0.22
537.957	0.22
538.303	0.22
538.649	0.22
538.994	0.22
539.339	0.22
539.685	0.22
540.03	0.22
540.375	0.22
540.721	0.22
541.066	0.22
541.411	0.22
541.756	0.22
542.101	0.22
542.446	0.22
542.791	0.23
543.136	0.23
543.481	0.23
543.825	0.23
544.17	0.23
544.515	0.23
544.86	0.23
545.204	0.23
545.549	0.23
545.893	0.23
546.238	0.23
546.582	0.23
546.927	0.23
547.271	0.23
547.615	0.23
547.96	0.23
548.304	0.24
548.648	0.23
548.992	0.24
549.336	0.24
549.68	0.24
550.024	0.24
550.368	0.24
550.712	0.24
551.056	0.24
551.4	0.24
551.743	0.24
552.087	0.24
552.431	0.24
552.774	0.24
553.118	0.24
553.462	0.24
553.805	0.24
554.148	0.24
554.492	0.24
554.835	0.24
555.178	0.24
555.522	0.24
555.865	0.24
556.208	0.24
556.551	0.24
556.894	0.24
557.237	0.24
557.58	0.24
557.923	0.24
558.266	0.24
558.609	0.24
558.952	0.24
559.294	0.24
559.637	0.24
559.98	0.24
560.322	0.24
560.665	0.24
561.007	0.24
561.35	0.24
561.692	0.24
562.034	0.24
562.377	0.24
562.719	0.24
563.061	0.24
563.403	0.24
563.745	0.24
564.088	0.24
564.43	0.24
564.772	0.24
565.113	0.24
565.455	0.24
565.797	0.24
566.139	0.24
566.481	0.24
566.822	0.24
567.164	0.24
567.506	0.24
567.847	0.24
568.189	0.24
568.53	0.24
568.872	0.24
569.213	0.24
569.554	0.24
569.895	0.24
570.237	0.24
570.578	0.24
570.919	0.24
571.26	0.23
571.601	0.23
571.942	0.23
572.283	0.23
572.624	0.23
572.965	0.23
573.306	0.23
573.646	0.23
573.987	0.23
574.328	0.23
574.668	0.23
575.009	0.23
575.349	0.23
575.69	0.22
576.03	0.22
576.37	0.22
576.711	0.22
577.051	0.22
577.391	0.22
577.731	0.22
578.072	0.22
578.412	0.22
578.752	0.21
579.092	0.21
579.431	0.2
579.771	0.2
580.111	0.2
580.451	0.2
580.791	0.2
581.13	0.2
581.47	0.21
581.81	0.21
582.149	0.21
582.489	0.2
582.828	0.19
583.167	0.18
583.507	0.17
583.846	0.17
584.185	0.17
584.525	0.17
584.864	0.18
585.203	0.19
585.542	0.2
585.881	0.21
586.22	0.21
586.559	0.2
586.898	0.2
587.236	0.2
587.575	0.2
587.914	0.2
588.252	0.2
588.591	0.2
588.93	0.2
589.268	0.21
589.607	0.21
589.945	0.21
590.283	0.21
590.622	0.21
590.96	0.22
591.298	0.22
591.636	0.22
591.974	0.22
592.313	0.22
592.651	0.22
592.989	0.22
593.326	0.22
593.664	0.22
594.002	0.22
594.34	0.22
594.678	0.21
595.015	0.21
595.353	0.21
595.691	0.21
596.028	0.21
596.366	0.22
596.703	0.22
597.04	0.22
597.378	0.22
597.715	0.22
598.052	0.23
598.389	0.23
598.726	0.23
599.064	0.23
599.401	0.23
599.738	0.22
600.074	0.22
600.411	0.22
600.748	0.22
601.085	0.22
601.422	0.22
601.758	0.21
602.095	0.22
602.432	0.22
602.768	0.22
603.105	0.22
603.441	0.22
603.777	0.22
604.114	0.22
604.45	0.22
604.786	0.23
605.122	0.22
605.459	0.22
605.795	0.22
606.131	0.22
606.467	0.22
606.803	0.22
607.139	0.22
607.474	0.22
607.81	0.22
608.146	0.22
608.482	0.22
608.817	0.22
609.153	0.22
609.488	0.22
609.824	0.22
610.159	0.22
610.495	0.22
610.83	0.22
611.165	0.22
611.5	0.22
611.836	0.22
612.171	0.22
612.506	0.21
612.841	0.21
613.176	0.21
613.511	0.21
613.845	0.21
614.18	0.21
614.515	0.21
614.85	0.21
615.184	0.21
615.519	0.21
615.854	0.21
616.188	0.21
616.523	0.21
616.857	0.21
617.191	0.21
617.526	0.21
617.86	0.21
618.194	0.21
618.528	0.21
618.862	0.21
619.196	0.2
619.53	0.2
619.864	0.2
620.198	0.2
620.532	0.2
620.866	0.2
621.2	0.2
621.533	0.2
621.867	0.2
622.201	0.2
622.534	0.2
622.868	0.2
623.201	0.2
623.534	0.2
623.868	0.2
624.201	0.19
624.534	0.19
624.868	0.19
625.201	0.19
625.534	0.19
625.867	0.19
626.2	0.19
626.533	0.19
626.865	0.19
627.198	0.19
627.531	0.19
627.864	0.18
628.196	0.18
628.529	0.18
628.862	0.18
629.194	0.18
629.527	0.18
629.859	0.18
630.191	0.18
630.524	0.18
630.856	0.18
631.188	0.17
631.52	0.17
631.852	0.17
632.184	0.17
632.516	0.17
632.848	0.17
633.18	0.17
633.512	0.17
633.844	0.17
634.175	0.17
634.507	0.17
634.839	0.17
635.17	0.16
635.502	0.16
635.833	0.16
636.165	0.16
636.496	0.16
636.827	0.16
637.159	0.16
637.49	0.16
637.821	0.16
638.152	0.16
638.483	0.15
638.814	0.15
639.145	0.15
639.476	0.15
639.807	0.15
640.137	0.15
640.468	0.15
640.799	0.14
641.129	0.14
641.46	0.14
641.791	0.14
642.121	0.14
642.451	0.14
642.782	0.14
643.112	0.14
643.442	0.14
643.773	0.14
644.103	0.14
644.433	0.14
644.763	0.13
645.093	0.13
645.423	0.13
645.753	0.13
646.082	0.13
646.412	0.13
646.742	0.13
647.072	0.13
647.401	0.13
647.731	0.12
648.06	0.12
648.39	0.12
648.719	0.12
649.048	0.12
649.378	0.12
649.707	0.12
650.036	0.12
650.365	0.12
650.694	0.12
651.023	0.12
651.352	0.12
651.681	0.12
652.01	0.12
652.339	0.12
652.668	0.12
652.996	0.12
653.325	0.12
653.654	0.12
653.982	0.12
654.311	0.12
654.639	0.12
654.967	0.12
655.296	0.12
655.624	0.12
655.952	0.12
656.28	0.12
656.609	0.11
656.937	0.09
657.265	0.07
657.593	0.05
657.92	0.03
658.248	0.02
658.576	0.02
658.904	0.03
659.231	0.04
659.559	0.06
659.887	0.08
660.214	0.1
660.542	0.11
660.869	0.12
661.196	0.12
661.524	0.11
661.851	0.11
662.178	0.11
662.505	0.11
662.832	0.11
663.159	0.11
663.486	0.11
663.813	0.11
664.14	0.11
664.467	0.11
664.794	0.11
665.12	0.11
665.447	0.11
665.774	0.11
666.1	0.11
666.427	0.11
666.753	0.11
667.079	0.1
667.406	0.1
667.732	0.1
668.058	0.1
668.384	0.1
668.71	0.1
669.036	0.1
669.362	0.1
669.688	0.1
670.014	0.1
670.34	0.1
670.666	0.1
670.991	0.1
671.317	0.1
671.643	0.1
671.968	0.09
672.294	0.09
672.619	0.09
672.945	0.09
673.27	0.09
673.595	0.09
673.92	0.09
674.246	0.09
674.571	0.09
674.896	0.09
675.221	0.09
675.546	0.08
675.87	0.08
676.195	0.08
676.52	0.08
676.845	0.08
677.169	0.08
677.494	0.08
677.819	0.08
678.143	0.08
678.468	0.08
678.792	0.08
679.116	0.08
679.44	0.08
679.765	0.08
680.089	0.07
680.413	0.07
680.737	0.07
681.061	0.07
681.385	0.07
681.709	0.07
682.033	0.07
682.356	0.07
682.68	0.07
683.004	0.07
683.327	0.06
683.651	0.06
683.974	0.06
684.298	0.06
684.621	0.06
684.944	0.06
685.268	0.06
685.591	0.06
685.914	0.06
686.237	0.06
686.56	0.05
686.883	0.05
687.206	0.05
687.529	0.05
687.852	0.05
688.175	0.05
688.497	0.05
688.82	0.05
689.142	0.05
689.465	0.05
689.787	0.05
690.11	0.05
690.432	0.05
690.755	0.05
691.077	0.05
691.399	0.04
691.721	0.04
692.043	0.04
692.365	0.04
692.687	0.04
693.009	0.04
693.331	0.04
693.653	0.04
693.974	0.04
694.296	0.04
694.618	0.04
694.939	0.04
695.261	0.03
695.582	0.03
695.904	0.03
696.225	0.03
696.546	0.03
696.868	0.03
697.189	0.03
697.51	0.03
697.831	0.03
698.152	0.03
698.473	0.02
698.794	0.02
699.114	0.02
699.435	0.02
699.756	0.02
700.077	0.02
700.397	0.02
700.718	0.02
701.038	0.03
701.359	0.03
701.679	0.03
701.999	0.03
702.32	0.03
702.64	0.03
702.96	0.03
703.28	0.03
703.6	0.02
703.92	0.02
704.24	0.02
704.56	0.02
704.879	0.02
705.199	0.02
705.519	0.02
705.838	0.02
706.158	0.02
706.478	0.02
706.797	0.02
707.116	0.02
707.436	0.02
707.755	0.02
708.074	0.02
708.393	0.02
708.712	0.01
709.031	0.01
709.35	0.01
709.669	0.01
709.988	0.01
710.307	0.01
710.626	0.01
710.944	0.01
711.263	0.01
711.582	0.01
711.9	0.02
712.219	0.01
712.537	0.01
712.855	0.01
713.174	0.01
713.492	0.02
713.81	0.02
714.128	0.01
714.446	0.02
714.764	0.02
715.082	0.01
715.4	0.01
715.718	0.01
716.035	0.01
716.353	0.01
716.671	0.02
716.988	0.02
717.306	0.02
717.623	0.02
717.941	0.02
718.258	0.02
718.575	0.02
718.893	0.02
719.21	0.02
719.527	0.02
719.844	0.02
720.161	0.02
720.478	0.02
720.795	0.02
721.112	0.02
721.428	0.02
721.745	0.02
722.062	0.02
722.378	0.03
722.695	0.03
723.011	0.03
723.328	0.03
723.644	0.03
723.96	0.03
724.276	0.02
724.593	0.02
724.909	0.02
725.225	0.02
725.541	0.02
725.857	0.02
726.173	0.02
726.488	0.02
726.804	0.02
727.12	0.02
727.435	0.03
727.751	0.03
728.067	0.03
728.382	0.03
728.697	0.03
729.013	0.03
729.328	0.03
729.643	0.03
729.958	0.03
730.273	0.03
730.588	0.02
730.903	0.02
731.218	0.02
731.533	0.02
731.848	0.02
732.163	0.02
732.477	0.02
732.792	0.02
733.107	0.02
733.421	0.02
733.736	0.02
734.05	0.02
734.364	0.02
734.678	0.02
734.993	0.02
735.307	0.02
735.621	0.02
735.935	0.02
736.249	0.02
736.563	0.02
736.877	0.02
737.19	0.02
737.504	0.02
737.818	0.02
738.131	0.02
738.445	0.02
738.758	0.03
739.072	0.03
739.385	0.03
739.698	0.03
740.012	0.03
740.325	0.03
740.638	0.02
740.951	0.02
741.264	0.02
741.577	0.02
741.89	0.02
742.203	0.02
742.515	0.02
742.828	0.02
743.141	0.02
743.453	0.02
743.766	0.02
744.078	0.02
744.391	0.02
744.703	0.02
745.015	0.02
745.327	0.02
745.639	0.02
745.952	0.02
746.264	0.02
746.575	0.02
746.887	0.02
747.199	0.02
747.511	0.02
747.823	0.02
748.134	0.02
748.446	0.02
748.757	0.02
749.069	0.02
749.38	0.02
749.692	0.01
750.003	0.01
750.314	0.01
750.625	0.01
750.936	0.01
751.248	0.01
751.559	0.01
751.869	0.01
752.18	0.01
752.491	0.01
752.802	0.01
753.112	0.01
753.423	0.01
753.734	0.01
754.044	0.01
754.355	0.01
754.665	0.01
754.975	0.01
755.285	0.01
755.596	0.01
755.906	0.01
756.216	0.01
756.526	0.01
756.836	0.01
757.146	0.01
757.455	0.01
757.765	0.01
758.075	0.01
758.385	0.01
758.694	0.01
759.004	0.01
759.313	0.01
759.622	0.01
759.932	0.01
760.241	0.01
760.55	0.01
760.859	0
761.168	0
761.477	0
761.786	0
762.095	0
762.404	0
762.713	0
763.021	0
763.33	0.01
763.639	0.01
763.947	0.01
764.256	0.01
764.564	0.01
764.872	0.01
765.181	0.01
765.489	0
765.797	0
766.105	0
766.413	0
766.721	0.01
767.029	0.01
767.337	0.01
767.644	0.01
767.952	0.01
768.26	0.01
768.567	0.01
768.875	0.01
769.182	0.01
769.49	0.01
769.797	0.01
770.104	0.01
770.411	0.01
770.718	0.01
771.026	0.01
771.333	0.01
771.639	0.01
771.946	0.01
772.253	0.01
772.56	0.01
772.867	0.01
773.173	0.01
773.48	0.01
773.786	0.01
774.093	0.01
774.399	0.01
774.705	0.01
775.012	0.01
775.318	0.01
775.624	0.01
775.93	0.01
776.236	0.01
776.542	0.01
776.848	0.01
777.154	0.01
777.459	0.01
777.765	0.01
778.071	0.01
778.376	0.01
778.682	0.01
778.987	0.01
779.292	0.01
779.598	0.01
779.903	0.01
780.208	0.01
780.513	0.01
780.818	0.01
781.123	0.01
781.428	0.01
781.733	0.01
782.038	0.01
782.343	0
782.647	0
782.952	0
783.256	0
783.561	0
783.865	0
784.17	0
784.474	0.01
784.778	0.01
785.082	0.01
785.386	0.01
785.69	0
785.994	0
786.298	0
786.602	0
786.906	0
787.209	0
787.513	0
787.817	0
788.12	0
788.424	0
788.727	0
789.03	0
789.333	0
789.637	0
789.94	0
790.243	0
790.546	0
790.849	0.01
791.152	0.01
791.454	0.01
791.757	0.01
792.06	0.01
792.362	0.01
792.665	0.01
792.967	0
793.27	0
793.572	0
793.874	0
794.177	0
794.479	0
794.781	0
795.083	0.01
795.385	0.01
795.687	0.01
795.989	0.01
796.29	0.01
796.592	0.01
796.894	0.01
797.195	0.01
797.497	0.01
797.798	0.01
798.1	0.01
798.401	0.01
798.702	0.01
799.003	0.01
799.304	0.01
799.605	0.01
799.906	0.01
800.207	0.01
800.508	0.01
800.809	0.01
801.11	0.01
801.41	0.01
801.711	0.01
802.011	0.01
802.312	0.01
802.612	0
802.913	0
803.213	0
803.513	0
803.813	0
804.113	0
804.413	0
804.713	0
805.013	0
805.313	0
805.613	0
805.912	-0
806.212	-0
806.511	-0
806.811	-0
807.11	-0
807.41	-0
807.709	-0
808.008	0
808.307	0
808.606	0
808.905	0.01
809.204	0.01
809.503	0.01
809.802	0.01
810.101	0.01
810.399	0.01
810.698	0.01
810.997	0.01
811.295	0.01
811.593	0.01
811.892	0.01
812.19	0.01
812.488	0.01
812.786	0.01
813.084	0.01
813.383	0.01
813.68	0.01
813.978	0.01
814.276	0.01
814.574	0.01
814.872	0.01
815.169	0.01
815.467	0.01
815.764	0.01
816.062	0.01
816.359	0.01
816.656	0.01
816.954	0.01
817.251	0.01
817.548	0.01
817.845	0.01
818.142	0.01
818.439	0.01
818.735	0.01
819.032	0.01
819.329	0.01
819.626	0.01
819.922	0.01
820.219	0.01
820.515	0.01
820.811	0.01
821.108	0.01
821.404	0.01
821.7	0.01
821.996	0.01
822.292	0.01
822.588	0.01
822.884	0.01
823.18	0.01
823.475	0.01
823.771	0.01
824.067	0.01
824.362	0.01
824.658	0.01
824.953	0.01
825.249	0.01
825.544	0.01
825.839	0.01
826.134	0.01
826.429	0.01
826.724	0.01
827.019	0.01
827.314	0.01
827.609	0.01
827.904	0.01
828.198	0.01
828.493	0.02
828.787	0.02
829.082	0.02
829.376	0.02
829.671	0.02
829.965	0.02
830.259	0.02
830.553	0.01
830.847	0.02
831.141	0.02
831.435	0.02
831.729	0.02
832.023	0.02
832.317	0.02
832.61	0.02
832.904	0.02
833.197	0.01
833.491	0.02
833.784	0.02
834.077	0.02
834.371	0.02
834.664	0.02
834.957	0.02
835.25	0.02
835.543	0.02
835.836	0.02
836.129	0.02
836.421	0.02
836.714	0.02
837.007	0.02
837.299	0.02
837.592	0.02
837.884	0.02
838.177	0.02
838.469	0.02
838.761	0.02
839.053	0.02
839.345	0.02
839.637	0.02
839.929	0.01
840.221	0.01
840.513	0.01
840.805	0.01
841.096	0.01
841.388	0.01
841.68	0.01
841.971	0.01
842.262	0.01
842.554	0.02
842.845	0.02
843.136	0.02
843.427	0.02
843.718	0.02
844.009	0.02
844.3	0.02
844.591	0.02
844.882	0.03
845.173	0.02
845.463	0.03
845.754	0.02
846.044	0.02
846.335	0.02
846.625	0.02
846.915	0.02
847.206	0.02
847.496	0.02
847.786	0.02
848.076	0.03
848.366	0.02
848.656	0.03
848.945	0.03
849.235	0.02
849.525	0.02
849.814	0.02
850.104	0.02
850.393	0.02
850.683	0.02
850.972	0.02
851.261	0.02
851.551	0.02
851.84	0.02
852.129	0.02
852.418	0.02
852.707	0.02
852.995	0.02
853.284	0.02
853.573	0.02
853.862	0.02
854.15	0.02
854.439	0.03
854.727	0.02
855.015	0.02
855.304	0.03
855.592	0.03
855.88	0.03
856.168	0.03
856.456	0.03
856.744	0.03
857.032	0.03
857.32	0.03
857.607	0.03
857.895	0.03
858.183	0.02
858.47	0.03
858.757	0.03
859.045	0.03
859.332	0.02
859.619	0.02
859.907	0.02
860.194	0.02
860.481	0.02
860.768	0.02
861.054	0.02
861.341	0.02
861.628	0.02
861.915	0.02
862.201	0.03
862.488	0.03
862.774	0.03
863.061	0.02
863.347	0.03
863.633	0.03
863.919	0.02
864.205	0.01
864.491	0.01
864.777	0.01
865.063	0.01
865.349	-0
865.635	0
865.92	0.01
866.206	0.02
866.492	0.01
866.777	0.02
867.062	0.01
867.348	0.02
867.633	0.02
867.918	0.01
868.203	0.01
868.488	0.01
868.773	0.01
869.058	0.01
869.343	0.01
869.628	-0
869.912	0.01
870.197	0.01
870.482	0.01
870.766	-0
871.05	-0
871.335	-0.01
871.619	-0.01
871.903	-0.02
872.187	-0.02
872.471	-0.01
872.755	-0.01
873.039	-0.01
873.323	0
873.607	-0
873.89	0.01
874.174	0.02
874.458	0.02
874.741	0.01
875.024	0.01
875.308	0.02
875.591	0.01
875.874	0.01
876.157	0
876.44	0.01
876.723	0.03
877.006	0.03
877.289	0.02
877.572	0.02
877.854	0.02
878.137	0.01
878.42	-0.01
878.702	-0.04
878.984	-0.05
879.267	-0.04
879.549	-0.02
879.831	-0.03
880.113	-0.03
880.395	-0.01
880.677	-0
880.959	0
