Data from Rubpy_BV_300_EDTA_Buffered_Absorbance_11-50-09-720.txt Node
Date: Wed Jul 01 11:50:09 BST 2026
User: fpm-admin
Spectrometer: OFX00224
Trigger mode: 0
Integration Time (sec): 7.000000E-2
Scans to average: 1
Nonlinearity correction enabled: false
Boxcar width: 3
Storing dark spectrum: false
XAxis mode: Wavelengths
Number of Pixels in Spectrum: 2136
>>>>>Begin Spectral Data<<<<<
154.91	-0.05
155.289	-0.01
155.669	-0.21
156.048	-0.37
156.428	-0.56
156.807	-0.28
157.186	0.48
157.566	0.65
157.945	1.26
158.325	0.32
158.704	0.35
159.083	0.24
159.462	0.21
159.842	0.49
160.221	0.25
160.6	-0.43
160.979	-0
161.359	-0
161.738	-0
162.117	-0
162.496	-0.54
162.875	-0.54
163.254	-0.18
163.633	0.17
164.012	0.34
164.391	-1.15
164.77	-0
165.149	-0
165.528	-0
165.907	-0
166.286	-0
166.665	-0
167.044	-0
167.423	-0.4
167.802	-0.12
168.181	-0.43
168.559	-0.01
168.938	-0.01
169.317	0.09
169.696	0.1
170.074	0.18
170.453	0.19
170.832	0.31
171.21	0.39
171.589	0.71
171.968	-0
172.346	-0
172.725	1.29
173.103	-0
173.482	-0
173.861	-0
174.239	-0
174.617	-0
174.996	-0
175.374	-0
175.753	-0
176.131	-0
176.51	0.38
176.888	0.04
177.266	0.03
177.645	-0.12
178.023	-0.03
178.401	-0.11
178.779	-0.27
179.158	-0.73
179.536	0.06
179.914	-0.07
180.292	0.15
180.67	1.15
181.048	-0.11
181.427	-0.5
181.805	-0
182.183	-1.4
182.561	-0
182.939	1.14
183.317	0.5
183.695	-0
184.073	-0
184.451	-0
184.829	-0
185.206	-0.4
185.584	-0.65
185.962	-0.48
186.34	-0.4
186.718	-0.12
187.096	-0.21
187.473	-0.01
187.851	-0.02
188.229	0.05
188.607	0.06
188.984	0.07
189.362	0.07
189.74	0.08
190.117	0.07
190.495	0.09
190.872	0.07
191.25	0.06
191.627	0.03
192.005	0.02
192.382	-0
192.76	-0.01
193.137	0
193.515	0.02
193.892	0.01
194.269	0.02
194.647	0.04
195.024	0.05
195.401	0.03
195.779	0.02
196.156	-0
196.533	-0.02
196.91	0
197.288	0.01
197.665	0.02
198.042	0.06
198.419	0.06
198.796	0.08
199.173	0.07
199.55	0.04
199.927	0.01
200.304	0.01
200.681	-0.01
201.058	-0.01
201.435	0.01
201.812	0.01
202.189	0.02
202.566	0.03
202.943	0.05
203.32	0.08
203.697	0.07
204.073	0.05
204.45	0.08
204.827	0.08
205.204	0.09
205.58	0.06
205.957	0.03
206.334	0.05
206.71	0.03
207.087	0.03
207.464	0.01
207.84	-0.01
208.217	-0.01
208.593	0.01
208.97	-0.02
209.346	0.01
209.723	0.02
210.099	0.04
210.476	0.05
210.852	0.06
211.228	0.05
211.605	0.06
211.981	0.07
212.357	0.06
212.733	0.07
213.11	0.07
213.486	0.07
213.862	0.08
214.238	0.11
214.614	0.1
214.991	0.1
215.367	0.07
215.743	0.04
216.119	0.04
216.495	0.05
216.871	0.01
217.247	-0.03
217.623	-0
217.999	-0.01
218.375	-0
218.751	-0.02
219.127	-0.04
219.502	-0.03
219.878	0
220.254	-0.03
220.63	-0.03
221.006	0
221.381	-0.01
221.757	0.01
222.133	0.02
222.508	0.04
222.884	0.05
223.26	0.07
223.635	0.05
224.011	0.08
224.386	0.1
224.762	0.07
225.137	0.06
225.513	0.07
225.888	0.08
226.264	0.07
226.639	0.06
227.014	0.05
227.39	0.08
227.765	0.06
228.14	0.05
228.516	0.08
228.891	0.07
229.266	0.08
229.641	0.09
230.017	0.08
230.392	0.08
230.767	0.06
231.142	0.05
231.517	0.06
231.892	0.05
232.267	0.04
232.642	0.03
233.017	0.04
233.392	0.04
233.767	0.03
234.142	0.01
234.517	-0.01
234.892	0
235.267	-0.02
235.641	-0
236.016	0.01
236.391	0.03
236.766	0.05
237.14	0.08
237.515	0.06
237.89	0.08
238.264	0.09
238.639	0.09
239.014	0.07
239.388	0.06
239.763	0.05
240.137	0.05
240.512	0.06
240.886	0.04
241.261	0.04
241.635	0.03
242.009	0.04
242.384	0.01
242.758	0.03
243.132	0.02
243.507	0.05
243.881	0.06
244.255	0.08
244.629	0.08
245.004	0.11
245.378	0.09
245.752	0.08
246.126	0.07
246.5	0.06
246.874	0.06
247.248	0.05
247.622	0.05
247.996	0.08
248.37	0.08
248.744	0.06
249.118	0.08
249.492	0.06
249.866	0.08
250.24	0.08
250.613	0.07
250.987	0.07
251.361	0.08
251.735	0.05
252.108	0.05
252.482	0.02
252.856	0.01
253.229	0.01
253.603	-0.02
253.977	-0.03
254.35	-0.01
254.724	-0.02
255.097	-0.02
255.471	-0.01
255.844	-0.01
256.218	0.02
256.591	0.04
256.964	0.05
257.338	0.05
257.711	0.06
258.084	0.05
258.458	0.05
258.831	0.05
259.204	0.03
259.577	0.03
259.95	0.05
260.323	0.06
260.697	0.07
261.07	0.08
261.443	0.09
261.816	0.1
262.189	0.09
262.562	0.08
262.935	0.07
263.308	0.07
263.68	0.04
264.053	0.04
264.426	0.03
264.799	0.04
265.172	0.04
265.545	0.03
265.917	0.04
266.29	0.03
266.663	0.03
267.035	0.03
267.408	0.02
267.781	0.03
268.153	0.04
268.526	0.04
268.898	0.05
269.271	0.06
269.643	0.07
270.016	0.05
270.388	0.04
270.76	0.04
271.133	0.03
271.505	0.04
271.877	0.03
272.25	0.05
272.622	0.05
272.994	0.05
273.366	0.05
273.739	0.05
274.111	0.04
274.483	0.04
274.855	0.03
275.227	0.04
275.599	0.04
275.971	0.06
276.343	0.07
276.715	0.08
277.087	0.08
277.459	0.07
277.831	0.08
278.203	0.09
278.574	0.09
278.946	0.07
279.318	0.07
279.69	0.06
280.061	0.06
280.433	0.05
280.805	0.04
281.176	0.04
281.548	0.04
281.92	0.04
282.291	0.04
282.663	0.05
283.034	0.06
283.406	0.06
283.777	0.07
284.148	0.05
284.52	0.06
284.891	0.05
285.262	0.05
285.634	0.05
286.005	0.04
286.376	0.03
286.747	0.05
287.119	0.06
287.49	0.06
287.861	0.06
288.232	0.05
288.603	0.06
288.974	0.06
289.345	0.04
289.716	0.02
290.087	0.04
290.458	0.04
290.829	0.06
291.2	0.05
291.571	0.05
291.941	0.06
292.312	0.07
292.683	0.08
293.054	0.09
293.424	0.08
293.795	0.09
294.166	0.11
294.536	0.11
294.907	0.1
295.277	0.09
295.648	0.06
296.018	0.07
296.389	0.06
296.759	0.05
297.13	0.03
297.5	0.04
297.871	0.05
298.241	0.06
298.611	0.05
298.981	0.05
299.352	0.04
299.722	0.05
300.092	0.03
300.462	0.02
300.832	0.01
301.202	0
301.573	0
301.943	0
302.313	-0
302.683	0
303.053	0.01
303.422	0.01
303.792	0.01
304.162	0.02
304.532	0.02
304.902	0.02
305.272	0.02
305.641	0.02
306.011	0.02
306.381	0.02
306.75	0.02
307.12	0.01
307.49	0.01
307.859	0.01
308.229	0.01
308.598	0.01
308.968	0.02
309.337	0.02
309.707	0.02
310.076	0.02
310.445	0.02
310.815	0.02
311.184	0.02
311.553	0.02
311.923	0.02
312.292	0.02
312.661	0.03
313.03	0.03
313.399	0.03
313.768	0.03
314.137	0.03
314.506	0.03
314.875	0.03
315.244	0.03
315.613	0.04
315.982	0.04
316.351	0.04
316.72	0.04
317.089	0.04
317.458	0.04
317.826	0.04
318.195	0.04
318.564	0.04
318.933	0.04
319.301	0.05
319.67	0.05
320.038	0.05
320.407	0.05
320.775	0.05
321.144	0.05
321.512	0.05
321.881	0.05
322.249	0.04
322.618	0.04
322.986	0.04
323.354	0.05
323.723	0.05
324.091	0.05
324.459	0.05
324.827	0.05
325.195	0.05
325.564	0.05
325.932	0.05
326.3	0.05
326.668	0.05
327.036	0.05
327.404	0.06
327.772	0.06
328.14	0.06
328.508	0.06
328.875	0.06
329.243	0.06
329.611	0.06
329.979	0.06
330.346	0.06
330.714	0.06
331.082	0.06
331.449	0.06
331.817	0.06
332.185	0.06
332.552	0.07
332.92	0.07
333.287	0.07
333.655	0.07
334.022	0.07
334.389	0.07
334.757	0.07
335.124	0.07
335.491	0.07
335.859	0.08
336.226	0.08
336.593	0.08
336.96	0.08
337.327	0.08
337.695	0.08
338.062	0.08
338.429	0.08
338.796	0.09
339.163	0.09
339.53	0.09
339.897	0.09
340.263	0.09
340.63	0.09
340.997	0.1
341.364	0.1
341.731	0.1
342.097	0.1
342.464	0.1
342.831	0.1
343.197	0.11
343.564	0.11
343.931	0.11
344.297	0.11
344.664	0.12
345.03	0.12
345.396	0.12
345.763	0.12
346.129	0.12
346.496	0.12
346.862	0.12
347.228	0.13
347.594	0.13
347.961	0.13
348.327	0.14
348.693	0.14
349.059	0.14
349.425	0.14
349.791	0.14
350.157	0.14
350.523	0.15
350.889	0.15
351.255	0.15
351.621	0.15
351.987	0.15
352.353	0.16
352.719	0.16
353.084	0.16
353.45	0.16
353.816	0.16
354.181	0.17
354.547	0.17
354.913	0.17
355.278	0.17
355.644	0.18
356.009	0.18
356.375	0.18
356.74	0.19
357.106	0.19
357.471	0.19
357.836	0.19
358.202	0.2
358.567	0.2
358.932	0.2
359.297	0.21
359.663	0.21
360.028	0.21
360.393	0.21
360.758	0.22
361.123	0.22
361.488	0.22
361.853	0.23
362.218	0.23
362.583	0.23
362.948	0.24
363.312	0.24
363.677	0.24
364.042	0.25
364.407	0.25
364.772	0.25
365.136	0.26
365.501	0.26
365.865	0.26
366.23	0.26
366.595	0.27
366.959	0.27
367.324	0.27
367.688	0.28
368.052	0.28
368.417	0.28
368.781	0.29
369.145	0.29
369.51	0.29
369.874	0.3
370.238	0.3
370.602	0.3
370.967	0.3
371.331	0.3
371.695	0.31
372.059	0.31
372.423	0.31
372.787	0.31
373.151	0.31
373.515	0.32
373.878	0.31
374.242	0.31
374.606	0.31
374.97	0.31
375.334	0.31
375.697	0.3
376.061	0.3
376.425	0.29
376.788	0.29
377.152	0.29
377.515	0.29
377.879	0.29
378.242	0.28
378.606	0.28
378.969	0.28
379.333	0.28
379.696	0.28
380.059	0.27
380.422	0.27
380.786	0.27
381.149	0.27
381.512	0.27
381.875	0.27
382.238	0.27
382.601	0.26
382.964	0.27
383.327	0.26
383.69	0.26
384.053	0.26
384.416	0.26
384.779	0.26
385.142	0.26
385.504	0.26
385.867	0.27
386.23	0.27
386.593	0.27
386.955	0.27
387.318	0.27
387.68	0.28
388.043	0.28
388.405	0.28
388.768	0.28
389.13	0.28
389.493	0.29
389.855	0.29
390.217	0.28
390.58	0.28
390.942	0.28
391.304	0.28
391.666	0.28
392.028	0.28
392.391	0.28
392.753	0.27
393.115	0.27
393.477	0.27
393.839	0.27
394.201	0.27
394.563	0.27
394.924	0.27
395.286	0.27
395.648	0.27
396.01	0.28
396.371	0.28
396.733	0.28
397.095	0.29
397.456	0.29
397.818	0.3
398.18	0.31
398.541	0.32
398.903	0.33
399.264	0.34
399.625	0.35
399.987	0.36
400.348	0.37
400.709	0.38
401.071	0.38
401.432	0.38
401.793	0.39
402.154	0.38
402.515	0.38
402.876	0.37
403.238	0.37
403.599	0.36
403.96	0.35
404.32	0.34
404.681	0.33
405.042	0.31
405.403	0.3
405.764	0.28
406.125	0.27
406.485	0.25
406.846	0.24
407.207	0.23
407.567	0.21
407.928	0.2
408.288	0.19
408.649	0.18
409.009	0.17
409.37	0.16
409.73	0.15
410.091	0.14
410.451	0.13
410.811	0.12
411.171	0.11
411.532	0.11
411.892	0.1
412.252	0.09
412.612	0.09
412.972	0.08
413.332	0.08
413.692	0.08
414.052	0.07
414.412	0.07
414.772	0.07
415.132	0.06
415.492	0.06
415.851	0.06
416.211	0.06
416.571	0.05
416.931	0.05
417.29	0.05
417.65	0.05
418.009	0.05
418.369	0.05
418.728	0.04
419.088	0.04
419.447	0.04
419.807	0.04
420.166	0.04
420.525	0.03
420.884	0.03
421.244	0.03
421.603	0.03
421.962	0.03
422.321	0.03
422.68	0.03
423.039	0.03
423.398	0.03
423.757	0.03
424.116	0.03
424.475	0.03
424.834	0.03
425.193	0.03
425.551	0.03
425.91	0.03
426.269	0.03
426.628	0.02
426.986	0.02
427.345	0.02
427.703	0.02
428.062	0.02
428.42	0.02
428.779	0.02
429.137	0.02
429.496	0.02
429.854	0.02
430.212	0.02
430.57	0.02
430.929	0.02
431.287	0.02
431.645	0.02
432.003	0.02
432.361	0.02
432.719	0.02
433.077	0.02
433.435	0.02
433.793	0.02
434.151	0.02
434.509	0.02
434.866	0.02
435.224	0.02
435.582	0.02
435.94	0.02
436.297	0.02
436.655	0.02
437.012	0.02
437.37	0.02
437.727	0.02
438.085	0.02
438.442	0.02
438.8	0.02
439.157	0.02
439.514	0.02
439.872	0.01
440.229	0.01
440.586	0.01
440.943	0.01
441.3	0.02
441.657	0.01
442.014	0.01
442.371	0.02
442.728	0.02
443.085	0.01
443.442	0.01
443.799	0.01
444.156	0.01
444.513	0.01
444.869	0.01
445.226	0.01
445.583	0.01
445.939	0.01
446.296	0.01
446.652	0.01
447.009	0.01
447.365	0.01
447.722	0.01
448.078	0.01
448.434	0.01
448.791	0.01
449.147	0.01
449.503	0.01
449.859	0.01
450.215	0.01
450.571	0.01
450.928	0.01
451.284	0.01
451.64	0.01
451.995	0.01
452.351	0.01
452.707	0.01
453.063	0.01
453.419	0.01
453.775	0.01
454.13	0.01
454.486	0
454.842	0
455.197	0
455.553	-0
455.908	-0
456.264	-0
456.619	-0
456.975	-0
457.33	-0.01
457.685	-0
458.04	-0
458.396	-0.01
458.751	-0.01
459.106	-0.01
459.461	-0.01
459.816	-0.02
460.171	-0.02
460.526	-0.02
460.881	-0.02
461.236	-0.02
461.591	-0.03
461.946	-0.03
462.301	-0.03
462.655	-0.03
463.01	-0.03
463.365	-0.03
463.719	-0.03
464.074	-0.03
464.428	-0.03
464.783	-0.04
465.137	-0.04
465.492	-0.04
465.846	-0.04
466.201	-0.04
466.555	-0.04
466.909	-0.04
467.263	-0.03
467.618	-0.03
467.972	-0.03
468.326	-0.03
468.68	-0.04
469.034	-0.04
469.388	-0.04
469.742	-0.04
470.096	-0.04
470.45	-0.04
470.804	-0.04
471.157	-0.03
471.511	-0.03
471.865	-0.03
472.218	-0.03
472.572	-0.03
472.926	-0.03
473.279	-0.03
473.633	-0.03
473.986	-0.03
474.34	-0.03
474.693	-0.02
475.046	-0.02
475.4	-0.02
475.753	-0.02
476.106	-0.01
476.459	-0.01
476.812	-0.01
477.165	-0.01
477.519	-0
477.872	0
478.224	0
478.577	0.01
478.93	0.01
479.283	0.01
479.636	0.01
479.989	0.01
480.341	0.01
480.694	0.01
481.047	0.01
481.399	0.01
481.752	0.02
482.104	0.02
482.457	0.02
482.809	0.02
483.162	0.02
483.514	0.03
483.866	0.03
484.219	0.03
484.571	0.03
484.923	0.03
485.275	0.03
485.627	0.03
485.979	0.03
486.331	0.03
486.683	0.03
487.035	0.04
487.387	0.04
487.739	0.04
488.091	0.04
488.443	0.04
488.794	0.04
489.146	0.04
489.498	0.04
489.849	0.05
490.201	0.05
490.552	0.05
490.904	0.05
491.255	0.05
491.607	0.05
491.958	0.05
492.309	0.05
492.661	0.05
493.012	0.05
493.363	0.05
493.714	0.05
494.065	0.06
494.416	0.06
494.767	0.06
495.118	0.06
495.469	0.06
495.82	0.06
496.171	0.06
496.522	0.06
496.872	0.06
497.223	0.06
497.574	0.06
497.924	0.06
498.275	0.07
498.626	0.07
498.976	0.07
499.327	0.07
499.677	0.07
500.027	0.07
500.378	0.07
500.728	0.07
501.078	0.07
501.428	0.07
501.779	0.07
502.129	0.07
502.479	0.07
502.829	0.07
503.179	0.07
503.529	0.07
503.879	0.07
504.229	0.08
504.578	0.08
504.928	0.08
505.278	0.08
505.628	0.08
505.977	0.08
506.327	0.08
506.676	0.08
507.026	0.08
507.375	0.08
507.725	0.08
508.074	0.09
508.424	0.09
508.773	0.09
509.122	0.09
509.471	0.09
509.82	0.09
510.17	0.09
510.519	0.09
510.868	0.09
511.217	0.09
511.566	0.09
511.915	0.09
512.263	0.09
512.612	0.09
512.961	0.09
513.31	0.09
513.659	0.1
514.007	0.1
514.356	0.1
514.704	0.1
515.053	0.1
515.401	0.1
515.75	0.1
516.098	0.1
516.447	0.1
516.795	0.1
517.143	0.1
517.491	0.1
517.839	0.1
518.188	0.1
518.536	0.1
518.884	0.1
519.232	0.1
519.58	0.11
519.928	0.11
520.275	0.11
520.623	0.11
520.971	0.11
521.319	0.11
521.666	0.11
522.014	0.11
522.362	0.11
522.709	0.11
523.057	0.11
523.404	0.11
523.752	0.11
524.099	0.11
524.446	0.11
524.794	0.11
525.141	0.11
525.488	0.11
525.835	0.11
526.182	0.11
526.529	0.11
526.876	0.11
527.223	0.11
527.57	0.12
527.917	0.11
528.264	0.12
528.611	0.12
528.958	0.12
529.304	0.12
529.651	0.12
529.998	0.12
530.344	0.12
530.691	0.12
531.037	0.12
531.384	0.12
531.73	0.12
532.076	0.12
532.423	0.12
532.769	0.12
533.115	0.12
533.461	0.12
533.807	0.12
534.154	0.12
534.5	0.12
534.846	0.12
535.192	0.12
535.537	0.12
535.883	0.12
536.229	0.12
536.575	0.12
536.921	0.13
537.266	0.13
537.612	0.13
537.957	0.13
538.303	0.13
538.649	0.13
538.994	0.13
539.339	0.13
539.685	0.13
540.03	0.13
540.375	0.13
540.721	0.13
541.066	0.13
541.411	0.13
541.756	0.13
542.101	0.13
542.446	0.13
542.791	0.13
543.136	0.13
543.481	0.13
543.825	0.13
544.17	0.13
544.515	0.13
544.86	0.13
545.204	0.13
545.549	0.14
545.893	0.14
546.238	0.14
546.582	0.14
546.927	0.14
547.271	0.14
547.615	0.14
547.96	0.14
548.304	0.14
548.648	0.14
548.992	0.14
549.336	0.14
549.68	0.14
550.024	0.14
550.368	0.14
550.712	0.14
551.056	0.14
551.4	0.14
551.743	0.14
552.087	0.14
552.431	0.14
552.774	0.14
553.118	0.14
553.462	0.15
553.805	0.15
554.148	0.15
554.492	0.15
554.835	0.15
555.178	0.15
555.522	0.15
555.865	0.15
556.208	0.15
556.551	0.15
556.894	0.15
557.237	0.15
557.58	0.15
557.923	0.15
558.266	0.15
558.609	0.15
558.952	0.15
559.294	0.15
559.637	0.15
559.98	0.15
560.322	0.15
560.665	0.15
561.007	0.15
561.35	0.15
561.692	0.15
562.034	0.15
562.377	0.15
562.719	0.15
563.061	0.15
563.403	0.15
563.745	0.15
564.088	0.15
564.43	0.15
564.772	0.15
565.113	0.15
565.455	0.15
565.797	0.15
566.139	0.15
566.481	0.15
566.822	0.15
567.164	0.15
567.506	0.15
567.847	0.15
568.189	0.15
568.53	0.15
568.872	0.15
569.213	0.15
569.554	0.15
569.895	0.15
570.237	0.15
570.578	0.15
570.919	0.14
571.26	0.14
571.601	0.14
571.942	0.14
572.283	0.14
572.624	0.14
572.965	0.14
573.306	0.14
573.646	0.14
573.987	0.14
574.328	0.14
574.668	0.14
575.009	0.14
575.349	0.14
575.69	0.14
576.03	0.14
576.37	0.13
576.711	0.13
577.051	0.13
577.391	0.13
577.731	0.13
578.072	0.13
578.412	0.13
578.752	0.13
579.092	0.12
579.431	0.12
579.771	0.11
580.111	0.11
580.451	0.11
580.791	0.12
581.13	0.12
581.47	0.12
581.81	0.13
582.149	0.13
582.489	0.12
582.828	0.11
583.167	0.1
583.507	0.09
583.846	0.09
584.185	0.09
584.525	0.09
584.864	0.1
585.203	0.11
585.542	0.12
585.881	0.13
586.22	0.13
586.559	0.12
586.898	0.12
587.236	0.12
587.575	0.12
587.914	0.12
588.252	0.12
588.591	0.12
588.93	0.12
589.268	0.13
589.607	0.13
589.945	0.13
590.283	0.13
590.622	0.13
590.96	0.13
591.298	0.14
591.636	0.14
591.974	0.14
592.313	0.14
592.651	0.14
592.989	0.14
593.326	0.14
593.664	0.14
594.002	0.14
594.34	0.13
594.678	0.13
595.015	0.13
595.353	0.13
595.691	0.13
596.028	0.13
596.366	0.13
596.703	0.14
597.04	0.14
597.378	0.14
597.715	0.14
598.052	0.14
598.389	0.14
598.726	0.14
599.064	0.14
599.401	0.14
599.738	0.14
600.074	0.14
600.411	0.14
600.748	0.14
601.085	0.14
601.422	0.14
601.758	0.13
602.095	0.13
602.432	0.13
602.768	0.14
603.105	0.14
603.441	0.14
603.777	0.14
604.114	0.14
604.45	0.14
604.786	0.14
605.122	0.14
605.459	0.14
605.795	0.14
606.131	0.14
606.467	0.14
606.803	0.14
607.139	0.14
607.474	0.14
607.81	0.14
608.146	0.14
608.482	0.14
608.817	0.14
609.153	0.14
609.488	0.14
609.824	0.14
610.159	0.14
610.495	0.14
610.83	0.14
611.165	0.14
611.5	0.14
611.836	0.14
612.171	0.14
612.506	0.14
612.841	0.14
613.176	0.14
613.511	0.14
613.845	0.14
614.18	0.14
614.515	0.14
614.85	0.14
615.184	0.14
615.519	0.14
615.854	0.13
616.188	0.13
616.523	0.13
616.857	0.13
617.191	0.13
617.526	0.13
617.86	0.13
618.194	0.13
618.528	0.13
618.862	0.13
619.196	0.13
619.53	0.13
619.864	0.13
620.198	0.13
620.532	0.13
620.866	0.13
621.2	0.13
621.533	0.13
621.867	0.13
622.201	0.13
622.534	0.13
622.868	0.13
623.201	0.13
623.534	0.13
623.868	0.13
624.201	0.13
624.534	0.12
624.868	0.12
625.201	0.12
625.534	0.12
625.867	0.12
626.2	0.12
626.533	0.12
626.865	0.12
627.198	0.12
627.531	0.12
627.864	0.12
628.196	0.12
628.529	0.12
628.862	0.12
629.194	0.12
629.527	0.12
629.859	0.12
630.191	0.12
630.524	0.11
630.856	0.11
631.188	0.11
631.52	0.11
631.852	0.11
632.184	0.11
632.516	0.11
632.848	0.11
633.18	0.11
633.512	0.11
633.844	0.11
634.175	0.11
634.507	0.11
634.839	0.11
635.17	0.11
635.502	0.11
635.833	0.1
636.165	0.1
636.496	0.1
636.827	0.1
637.159	0.1
637.49	0.1
637.821	0.1
638.152	0.1
638.483	0.1
638.814	0.1
639.145	0.1
639.476	0.1
639.807	0.09
640.137	0.09
640.468	0.09
640.799	0.09
641.129	0.09
641.46	0.09
641.791	0.09
642.121	0.09
642.451	0.09
642.782	0.09
643.112	0.09
643.442	0.09
643.773	0.09
644.103	0.09
644.433	0.09
644.763	0.09
645.093	0.09
645.423	0.08
645.753	0.08
646.082	0.08
646.412	0.08
646.742	0.08
647.072	0.08
647.401	0.08
647.731	0.08
648.06	0.08
648.39	0.08
648.719	0.08
649.048	0.08
649.378	0.08
649.707	0.08
650.036	0.07
650.365	0.08
650.694	0.07
651.023	0.08
651.352	0.08
651.681	0.08
652.01	0.08
652.339	0.07
652.668	0.07
652.996	0.07
653.325	0.07
653.654	0.07
653.982	0.07
654.311	0.07
654.639	0.07
654.967	0.07
655.296	0.08
655.624	0.08
655.952	0.08
656.28	0.08
656.609	0.07
656.937	0.06
657.265	0.04
657.593	0.03
657.92	0.02
658.248	0.01
658.576	0.01
658.904	0.02
659.231	0.03
659.559	0.04
659.887	0.05
660.214	0.06
660.542	0.07
660.869	0.08
661.196	0.08
661.524	0.07
661.851	0.07
662.178	0.07
662.505	0.07
662.832	0.07
663.159	0.07
663.486	0.07
663.813	0.07
664.14	0.07
664.467	0.07
664.794	0.07
665.12	0.07
665.447	0.07
665.774	0.07
666.1	0.07
666.427	0.07
666.753	0.07
667.079	0.07
667.406	0.07
667.732	0.07
668.058	0.07
668.384	0.06
668.71	0.07
669.036	0.07
669.362	0.07
669.688	0.07
670.014	0.07
670.34	0.07
670.666	0.07
670.991	0.06
671.317	0.06
671.643	0.06
671.968	0.06
672.294	0.06
672.619	0.06
672.945	0.06
673.27	0.06
673.595	0.06
673.92	0.06
674.246	0.06
674.571	0.06
674.896	0.06
675.221	0.06
675.546	0.05
675.87	0.05
676.195	0.05
676.52	0.05
676.845	0.05
677.169	0.05
677.494	0.05
677.819	0.05
678.143	0.05
678.468	0.05
678.792	0.05
679.116	0.05
679.44	0.05
679.765	0.05
680.089	0.05
680.413	0.05
680.737	0.05
681.061	0.05
681.385	0.04
681.709	0.04
682.033	0.04
682.356	0.04
682.68	0.04
683.004	0.04
683.327	0.04
683.651	0.04
683.974	0.04
684.298	0.04
684.621	0.04
684.944	0.04
685.268	0.04
685.591	0.04
685.914	0.04
686.237	0.04
686.56	0.03
686.883	0.03
687.206	0.03
687.529	0.03
687.852	0.03
688.175	0.03
688.497	0.03
688.82	0.03
689.142	0.03
689.465	0.03
689.787	0.03
690.11	0.03
690.432	0.03
690.755	0.03
691.077	0.03
691.399	0.03
691.721	0.03
692.043	0.03
692.365	0.03
692.687	0.02
693.009	0.02
693.331	0.02
693.653	0.02
693.974	0.02
694.296	0.02
694.618	0.02
694.939	0.02
695.261	0.02
695.582	0.02
695.904	0.02
696.225	0.02
696.546	0.02
696.868	0.02
697.189	0.02
697.51	0.02
697.831	0.02
698.152	0.01
698.473	0.01
698.794	0.01
699.114	0.01
699.435	0.01
699.756	0.01
700.077	0.01
700.397	0.01
700.718	0.01
701.038	0.01
701.359	0.01
701.679	0.02
701.999	0.02
702.32	0.02
702.64	0.02
702.96	0.02
703.28	0.02
703.6	0.01
703.92	0.01
704.24	0.01
704.56	0.01
704.879	0.01
705.199	0.01
705.519	0.01
705.838	0.01
706.158	0.01
706.478	0.01
706.797	0.01
707.116	0.01
707.436	0.01
707.755	0.01
708.074	0.01
708.393	0.01
708.712	0.01
709.031	0.01
709.35	0.01
709.669	0
709.988	0
710.307	0
710.626	0.01
710.944	0.01
711.263	0.01
711.582	0.01
711.9	0.01
712.219	0.01
712.537	0.01
712.855	0.01
713.174	0.01
713.492	0.01
713.81	0.01
714.128	0.01
714.446	0.01
714.764	0.01
715.082	0.01
715.4	0.01
715.718	0.01
716.035	0.01
716.353	0.01
716.671	0.01
716.988	0.01
717.306	0.01
717.623	0.01
717.941	0.01
718.258	0.01
718.575	0.01
718.893	0.01
719.21	0.01
719.527	0.01
719.844	0.01
720.161	0.01
720.478	0.01
720.795	0.01
721.112	0.01
721.428	0.01
721.745	0.01
722.062	0.01
722.378	0.01
722.695	0.02
723.011	0.02
723.328	0.02
723.644	0.02
723.96	0.01
724.276	0.01
724.593	0.01
724.909	0.01
725.225	0.01
725.541	0.01
725.857	0.01
726.173	0.01
726.488	0.01
726.804	0.01
727.12	0.01
727.435	0.01
727.751	0.01
728.067	0.01
728.382	0.01
728.697	0.01
729.013	0.02
729.328	0.02
729.643	0.02
729.958	0.02
730.273	0.01
730.588	0.01
730.903	0.01
731.218	0.01
731.533	0.01
731.848	0.01
732.163	0.01
732.477	0.01
732.792	0.01
733.107	0.01
733.421	0.01
733.736	0.01
734.05	0.01
734.364	0.01
734.678	0.01
734.993	0.01
735.307	0.01
735.621	0.01
735.935	0.01
736.249	0.01
736.563	0.01
736.877	0.01
737.19	0.01
737.504	0.01
737.818	0.01
738.131	0.01
738.445	0.02
738.758	0.02
739.072	0.02
739.385	0.02
739.698	0.02
740.012	0.02
740.325	0.02
740.638	0.01
740.951	0.01
741.264	0.01
741.577	0.01
741.89	0.01
742.203	0.01
742.515	0.01
742.828	0.01
743.141	0.01
743.453	0.01
743.766	0.01
744.078	0.01
744.391	0.01
744.703	0.01
745.015	0.01
745.327	0.01
745.639	0.01
745.952	0.01
746.264	0.01
746.575	0.01
746.887	0.01
747.199	0.01
747.511	0.01
747.823	0.01
748.134	0.01
748.446	0.01
748.757	0.01
749.069	0.01
749.38	0.01
749.692	0.01
750.003	0.01
750.314	0.01
750.625	0.01
750.936	0
751.248	0
751.559	0
751.869	0
752.18	0
752.491	0
752.802	0
753.112	0
753.423	0
753.734	0
754.044	0.01
754.355	0.01
754.665	0.01
754.975	0.01
755.285	0.01
755.596	0.01
755.906	0.01
756.216	0.01
756.526	0.01
756.836	0
757.146	0
757.455	0
757.765	0
758.075	0
758.385	0
758.694	0
759.004	0
759.313	0
759.622	0
759.932	0
760.241	0
760.55	0
760.859	0
761.168	0
761.477	0
761.786	0
762.095	0
762.404	0
762.713	0
763.021	0
763.33	0
763.639	0
763.947	0
764.256	0
764.564	0
764.872	0
765.181	0
765.489	0
765.797	0
766.105	0
766.413	-0
766.721	-0
767.029	0
767.337	0
767.644	0
767.952	0
768.26	0
768.567	0
768.875	0
769.182	0
769.49	0
769.797	0
770.104	0
770.411	0
770.718	0
771.026	0
771.333	0
771.639	0
771.946	0
772.253	0
772.56	0
772.867	0
773.173	0
773.48	0
773.786	0
774.093	0
774.399	0
774.705	0
775.012	0
775.318	0
775.624	0
775.93	0
776.236	0
776.542	0
776.848	0
777.154	0
777.459	0
777.765	0
778.071	0
778.376	0
778.682	0
778.987	0
779.292	0
779.598	0
779.903	0.01
780.208	0.01
780.513	0.01
780.818	0.01
781.123	0
781.428	0
781.733	0
782.038	0
782.343	0
782.647	-0
782.952	-0
783.256	-0
783.561	-0
783.865	-0
784.17	0
784.474	0
784.778	0
785.082	0
785.386	0
785.69	0
785.994	0
786.298	0
786.602	-0
786.906	-0
787.209	-0
787.513	-0
787.817	-0
788.12	-0
788.424	-0
788.727	-0
789.03	-0
789.333	-0
789.637	-0
789.94	-0
790.243	-0
790.546	-0
790.849	-0
791.152	-0
791.454	-0
791.757	-0
792.06	-0
792.362	-0
792.665	-0
792.967	-0
793.27	-0
793.572	0
793.874	0
794.177	0
794.479	0
794.781	0
795.083	0
795.385	0
795.687	0
795.989	0
796.29	0
796.592	0
796.894	0
797.195	0
797.497	0
797.798	0
798.1	0
798.401	0
798.702	0
799.003	0
799.304	0
799.605	-0
799.906	-0
800.207	0
800.508	0
800.809	0
801.11	0
801.41	0
801.711	0
802.011	0
802.312	-0
802.612	-0
802.913	-0
803.213	-0
803.513	-0
803.813	-0
804.113	-0
804.413	-0
804.713	-0
805.013	-0
805.313	-0
805.613	-0
805.912	-0
806.212	-0
806.511	-0.01
806.811	-0.01
807.11	-0.01
807.41	-0.01
807.709	-0.01
808.008	-0
808.307	-0
808.606	-0
808.905	0
809.204	0
809.503	0
809.802	0.01
810.101	0.01
810.399	0.01
810.698	0.01
810.997	0.01
811.295	0
811.593	0
811.892	-0
812.19	-0
812.488	-0
812.786	-0
813.084	0
813.383	0
813.68	0
813.978	0
814.276	0
814.574	0
814.872	0
815.169	0
815.467	0.01
815.764	0.01
816.062	0.01
816.359	0
816.656	0
816.954	0
817.251	0
817.548	0
817.845	0
818.142	0
818.439	0
818.735	0
819.032	0
819.329	0
819.626	0.01
819.922	0
820.219	0
820.515	0.01
820.811	0
821.108	0
821.404	0
821.7	0
821.996	0
822.292	0
822.588	0
822.884	0
823.18	0
823.475	0
823.771	0
824.067	0
824.362	0
824.658	0
824.953	0
825.249	0
825.544	0
825.839	0
826.134	0
826.429	0
826.724	0
827.019	0
827.314	0
827.609	0.01
827.904	0.01
828.198	0.01
828.493	0.01
828.787	0.01
829.082	0.01
829.376	0.01
829.671	0.01
829.965	0
830.259	0
830.553	0
830.847	0
831.141	0
831.435	0
831.729	0
832.023	0
832.317	0.01
832.61	0.01
832.904	0.01
833.197	0.01
833.491	0.01
833.784	0.01
834.077	0.01
834.371	0.01
834.664	0.01
834.957	0.01
835.25	0.01
835.543	0.01
835.836	0.01
836.129	0.01
836.421	0.01
836.714	0.01
837.007	0.01
837.299	0.01
837.592	0.01
837.884	0.01
838.177	0.01
838.469	0.01
838.761	0
839.053	0
839.345	0
839.637	0
839.929	0
840.221	0
840.513	0
840.805	0
841.096	0
841.388	0
841.68	0
841.971	0
842.262	0
842.554	0.01
842.845	0.01
843.136	0.01
843.427	0.01
843.718	0.01
844.009	0.01
844.3	0.01
844.591	0.01
844.882	0.01
845.173	0.01
845.463	0.01
845.754	0.01
846.044	0.01
846.335	0.01
846.625	0.01
846.915	0.01
847.206	0.01
847.496	0.01
847.786	0.01
848.076	0
848.366	0
848.656	0
848.945	0
849.235	0
849.525	0
849.814	0
850.104	0
850.393	0
850.683	0
850.972	0.01
851.261	0
851.551	0.01
851.84	0
852.129	0.01
852.418	0.01
852.707	0.01
852.995	0.01
853.284	0.01
853.573	0.01
853.862	0.01
854.15	0.01
854.439	0.01
854.727	0.01
855.015	0.01
855.304	0.01
855.592	0.01
855.88	0.01
856.168	0.01
856.456	0.01
856.744	0.01
857.032	0
857.32	0.01
857.607	0.01
857.895	0.01
858.183	0.01
858.47	0.01
858.757	0.01
859.045	0.01
859.332	0.01
859.619	0
859.907	-0
860.194	-0
860.481	-0
860.768	-0
861.054	-0
861.341	-0
861.628	-0
861.915	0
862.201	0.01
862.488	0.01
862.774	0.01
863.061	0
863.347	0.01
863.633	0
863.919	-0
864.205	-0.01
864.491	-0.01
864.777	-0.01
865.063	-0.01
865.349	-0.01
865.635	-0.01
865.92	-0
866.206	0
866.492	0
866.777	-0
867.062	-0.01
867.348	-0
867.633	0
867.918	-0.01
868.203	-0.01
868.488	-0.01
868.773	-0.01
869.058	-0
869.343	-0.01
869.628	-0.02
869.912	-0.01
870.197	-0.01
870.482	-0
870.766	-0.01
871.05	-0.01
871.335	-0
871.619	-0.01
871.903	-0.01
872.187	-0.01
872.471	-0.02
872.755	-0.02
873.039	-0.02
873.323	-0.02
873.607	-0.01
873.89	-0
874.174	0.01
874.458	0.01
874.741	0.01
875.024	0.01
875.308	0.01
875.591	0.01
875.874	-0
876.157	-0
876.44	0
876.723	-0
877.006	0
877.289	0
877.572	-0
877.854	-0
878.137	-0.02
878.42	-0.05
878.702	-0.05
878.984	-0.06
879.267	-0.05
879.549	-0.06
879.831	-0.06
880.113	-0.05
880.395	-0.03
880.677	-0.02
880.959	-0.03
