Data from Rubpy_BV_300_EDTA_Buffered_Absorbance_11-49-11-702.txt Node
Date: Wed Jul 01 11:49:11 BST 2026
User: fpm-admin
Spectrometer: OFX00224
Trigger mode: 0
Integration Time (sec): 7.000000E-2
Scans to average: 1
Nonlinearity correction enabled: false
Boxcar width: 3
Storing dark spectrum: false
XAxis mode: Wavelengths
Number of Pixels in Spectrum: 2136
>>>>>Begin Spectral Data<<<<<
154.91	-0.37
155.289	-0.3
155.669	-0.4
156.048	-0.46
156.428	-0.73
156.807	-0.52
157.186	0.38
157.566	0.43
157.945	0.57
158.325	0.34
158.704	0.45
159.083	0.85
159.462	0.67
159.842	-0
160.221	-0
160.6	-0
160.979	-0.17
161.359	0.24
161.738	0.9
162.117	-0.7
162.496	0.1
162.875	-0.77
163.254	-0.42
163.633	-0.18
164.012	-0.32
164.391	-1.48
164.77	-0
165.149	-0
165.528	-0
165.907	-0
166.286	0.6
166.665	0.43
167.044	-0.2
167.423	-1.08
167.802	-0
168.181	-0
168.559	-0
168.938	0.43
169.317	0.5
169.696	1.2
170.074	1.2
170.453	0.52
170.832	0.18
171.21	0.13
171.589	0.19
171.968	0.45
172.346	0.27
172.725	0.38
173.103	0.45
173.482	-0
173.861	-0
174.239	-0
174.617	-0
174.996	-0
175.374	-0
175.753	0.79
176.131	0.26
176.51	0.03
176.888	-0.07
177.266	-0.07
177.645	-0.17
178.023	-0.07
178.401	-0.05
178.779	-0.23
179.158	-0.78
179.536	-0.21
179.914	-0.27
180.292	-0.34
180.67	-0
181.048	1.13
181.427	0.1
181.805	-0
182.183	-1.28
182.561	0.2
182.939	-0.14
183.317	-0.14
183.695	-0.16
184.073	-0.32
184.451	-1
184.829	-0.53
185.206	0.65
185.584	0.32
185.962	0.09
186.34	0.1
186.718	0.03
187.096	0.09
187.473	0.1
187.851	0.1
188.229	0.09
188.607	0.07
188.984	0.08
189.362	0.06
189.74	0.06
190.117	0.07
190.495	0.05
190.872	0.04
191.25	0.03
191.627	0.02
192.005	0.02
192.382	-0
192.76	-0.01
193.137	0.03
193.515	0.03
193.892	0.04
194.269	0.05
194.647	0.07
195.024	0.07
195.401	0.07
195.779	0.04
196.156	0.04
196.533	0.01
196.91	-0.02
197.288	-0.01
197.665	0
198.042	0.01
198.419	0.01
198.796	0.02
199.173	0.04
199.55	0.04
199.927	0.03
200.304	0.04
200.681	0.04
201.058	0.05
201.435	0.06
201.812	0.05
202.189	0.06
202.566	0.08
202.943	0.08
203.32	0.07
203.697	0.06
204.073	0.03
204.45	0.05
204.827	0.08
205.204	0.07
205.58	0.04
205.957	0.06
206.334	0.06
206.71	0.07
207.087	0.1
207.464	0.06
207.84	0.07
208.217	0.08
208.593	0.07
208.97	0.05
209.346	0.05
209.723	0.02
210.099	0.05
210.476	0.03
210.852	0.05
211.228	0.06
211.605	0.07
211.981	0.07
212.357	0.08
212.733	0.07
213.11	0.09
213.486	0.09
213.862	0.1
214.238	0.1
214.614	0.13
214.991	0.14
215.367	0.12
215.743	0.08
216.119	0.06
216.495	0.04
216.871	0.03
217.247	-0.01
217.623	-0.02
217.999	-0.02
218.375	0
218.751	-0.02
219.127	-0.02
219.502	-0.01
219.878	-0
220.254	-0.01
220.63	-0.03
221.006	-0.03
221.381	-0.03
221.757	-0.01
222.133	-0.01
222.508	0.02
222.884	0.02
223.26	0.03
223.635	0.05
224.011	0.04
224.386	0.03
224.762	0.03
225.137	0.02
225.513	0.04
225.888	0.04
226.264	0.04
226.639	0.05
227.014	0.04
227.39	0.05
227.765	0.05
228.14	0.07
228.516	0.09
228.891	0.08
229.266	0.07
229.641	0.07
230.017	0.07
230.392	0.07
230.767	0.02
231.142	0.02
231.517	0.03
231.892	0.05
232.267	0.07
232.642	0.06
233.017	0.04
233.392	0.06
233.767	0.03
234.142	-0
234.517	-0.02
234.892	-0.04
235.267	-0.05
235.641	-0.03
236.016	-0.03
236.391	0.03
236.766	0.04
237.14	0.05
237.515	0.03
237.89	0.04
238.264	0.04
238.639	0.04
239.014	0.01
239.388	0.04
239.763	0.04
240.137	0.07
240.512	0.08
240.886	0.07
241.261	0.07
241.635	0.06
242.009	0.05
242.384	0.01
242.758	0.01
243.132	-0.01
243.507	0.02
243.881	0.03
244.255	0.05
244.629	0.06
245.004	0.08
245.378	0.09
245.752	0.08
246.126	0.06
246.5	0.06
246.874	0.06
247.248	0.05
247.622	0.06
247.996	0.06
248.37	0.06
248.744	0.05
249.118	0.04
249.492	0.04
249.866	0.04
250.24	0.02
250.613	0.03
250.987	0.05
251.361	0.06
251.735	0.06
252.108	0.05
252.482	0.04
252.856	0.03
253.229	0.01
253.603	-0.01
253.977	-0.03
254.35	-0.02
254.724	-0.01
255.097	-0
255.471	-0.01
255.844	0.02
256.218	0.02
256.591	0.03
256.964	0.04
257.338	0.03
257.711	0.04
258.084	0.05
258.458	0.03
258.831	0.03
259.204	0.04
259.577	0.02
259.95	0.04
260.323	0.04
260.697	0.05
261.07	0.05
261.443	0.05
261.816	0.06
262.189	0.05
262.562	0.04
262.935	0.04
263.308	0.04
263.68	0.04
264.053	0.03
264.426	0.02
264.799	0.04
265.172	0.05
265.545	0.05
265.917	0.05
266.29	0.04
266.663	0.06
267.035	0.06
267.408	0.03
267.781	0.04
268.153	0.05
268.526	0.04
268.898	0.05
269.271	0.04
269.643	0.04
270.016	0.06
270.388	0.05
270.76	0.04
271.133	0.05
271.505	0.06
271.877	0.07
272.25	0.09
272.622	0.07
272.994	0.06
273.366	0.05
273.739	0.06
274.111	0.05
274.483	0.05
274.855	0.03
275.227	0.05
275.599	0.04
275.971	0.06
276.343	0.05
276.715	0.05
277.087	0.07
277.459	0.06
277.831	0.07
278.203	0.09
278.574	0.07
278.946	0.05
279.318	0.05
279.69	0.03
280.061	0.04
280.433	0.02
280.805	0.01
281.176	0.01
281.548	0.02
281.92	0.03
282.291	0.04
282.663	0.03
283.034	0.04
283.406	0.05
283.777	0.05
284.148	0.06
284.52	0.06
284.891	0.05
285.262	0.05
285.634	0.06
286.005	0.05
286.376	0.04
286.747	0.04
287.119	0.03
287.49	0.03
287.861	0.04
288.232	0.03
288.603	0.02
288.974	0.01
289.345	0.01
289.716	0.01
290.087	0.03
290.458	0.04
290.829	0.05
291.2	0.06
291.571	0.07
291.941	0.07
292.312	0.07
292.683	0.07
293.054	0.07
293.424	0.07
293.795	0.06
294.166	0.06
294.536	0.07
294.907	0.08
295.277	0.07
295.648	0.06
296.018	0.06
296.389	0.07
296.759	0.06
297.13	0.04
297.5	0.05
297.871	0.04
298.241	0.05
298.611	0.05
298.981	0.04
299.352	0.04
299.722	0.05
300.092	0.03
300.462	0.02
300.832	0.02
301.202	0.01
301.573	0.01
301.943	0.01
302.313	0.01
302.683	0.01
303.053	0.01
303.422	0.01
303.792	0.02
304.162	0.02
304.532	0.02
304.902	0.01
305.272	0.01
305.641	0.01
306.011	0.01
306.381	0
306.75	0
307.12	0
307.49	0.01
307.859	0.01
308.229	0.01
308.598	0.02
308.968	0.02
309.337	0.02
309.707	0.02
310.076	0.01
310.445	0.01
310.815	0.01
311.184	0.01
311.553	0.01
311.923	0.01
312.292	0.01
312.661	0.02
313.03	0.02
313.399	0.02
313.768	0.02
314.137	0.02
314.506	0.02
314.875	0.02
315.244	0.02
315.613	0.02
315.982	0.02
316.351	0.02
316.72	0.02
317.089	0.02
317.458	0.03
317.826	0.03
318.195	0.03
318.564	0.03
318.933	0.03
319.301	0.03
319.67	0.03
320.038	0.03
320.407	0.03
320.775	0.03
321.144	0.03
321.512	0.03
321.881	0.03
322.249	0.03
322.618	0.03
322.986	0.03
323.354	0.03
323.723	0.03
324.091	0.03
324.459	0.03
324.827	0.03
325.195	0.03
325.564	0.03
325.932	0.03
326.3	0.03
326.668	0.03
327.036	0.03
327.404	0.03
327.772	0.03
328.14	0.04
328.508	0.04
328.875	0.04
329.243	0.04
329.611	0.04
329.979	0.04
330.346	0.04
330.714	0.04
331.082	0.04
331.449	0.04
331.817	0.04
332.185	0.04
332.552	0.04
332.92	0.04
333.287	0.04
333.655	0.04
334.022	0.04
334.389	0.05
334.757	0.05
335.124	0.05
335.491	0.05
335.859	0.05
336.226	0.05
336.593	0.06
336.96	0.06
337.327	0.06
337.695	0.06
338.062	0.06
338.429	0.06
338.796	0.06
339.163	0.06
339.53	0.06
339.897	0.06
340.263	0.06
340.63	0.06
340.997	0.06
341.364	0.06
341.731	0.07
342.097	0.07
342.464	0.07
342.831	0.07
343.197	0.07
343.564	0.07
343.931	0.07
344.297	0.07
344.664	0.08
345.03	0.08
345.396	0.08
345.763	0.08
346.129	0.08
346.496	0.08
346.862	0.09
347.228	0.09
347.594	0.09
347.961	0.09
348.327	0.09
348.693	0.09
349.059	0.1
349.425	0.1
349.791	0.1
350.157	0.1
350.523	0.1
350.889	0.1
351.255	0.1
351.621	0.11
351.987	0.11
352.353	0.11
352.719	0.11
353.084	0.11
353.45	0.12
353.816	0.12
354.181	0.12
354.547	0.12
354.913	0.12
355.278	0.12
355.644	0.12
356.009	0.12
356.375	0.12
356.74	0.13
357.106	0.13
357.471	0.13
357.836	0.13
358.202	0.14
358.567	0.14
358.932	0.14
359.297	0.14
359.663	0.14
360.028	0.15
360.393	0.15
360.758	0.15
361.123	0.15
361.488	0.16
361.853	0.16
362.218	0.16
362.583	0.17
362.948	0.17
363.312	0.17
363.677	0.17
364.042	0.17
364.407	0.18
364.772	0.18
365.136	0.18
365.501	0.18
365.865	0.18
366.23	0.18
366.595	0.19
366.959	0.19
367.324	0.19
367.688	0.19
368.052	0.19
368.417	0.2
368.781	0.2
369.145	0.2
369.51	0.21
369.874	0.21
370.238	0.21
370.602	0.21
370.967	0.21
371.331	0.22
371.695	0.22
372.059	0.22
372.423	0.22
372.787	0.22
373.151	0.22
373.515	0.22
373.878	0.22
374.242	0.22
374.606	0.22
374.97	0.22
375.334	0.22
375.697	0.21
376.061	0.21
376.425	0.21
376.788	0.21
377.152	0.21
377.515	0.21
377.879	0.21
378.242	0.2
378.606	0.2
378.969	0.2
379.333	0.2
379.696	0.2
380.059	0.19
380.422	0.2
380.786	0.19
381.149	0.19
381.512	0.19
381.875	0.19
382.238	0.19
382.601	0.19
382.964	0.19
383.327	0.19
383.69	0.19
384.053	0.19
384.416	0.19
384.779	0.19
385.142	0.2
385.504	0.2
385.867	0.2
386.23	0.2
386.593	0.2
386.955	0.2
387.318	0.21
387.68	0.21
388.043	0.21
388.405	0.21
388.768	0.21
389.13	0.21
389.493	0.21
389.855	0.21
390.217	0.22
390.58	0.21
390.942	0.21
391.304	0.21
391.666	0.21
392.028	0.21
392.391	0.21
392.753	0.21
393.115	0.21
393.477	0.21
393.839	0.2
394.201	0.2
394.563	0.2
394.924	0.21
395.286	0.21
395.648	0.21
396.01	0.21
396.371	0.22
396.733	0.22
397.095	0.22
397.456	0.23
397.818	0.24
398.18	0.24
398.541	0.25
398.903	0.26
399.264	0.27
399.625	0.28
399.987	0.28
400.348	0.29
400.709	0.29
401.071	0.3
401.432	0.3
401.793	0.3
402.154	0.3
402.515	0.3
402.876	0.29
403.238	0.29
403.599	0.28
403.96	0.27
404.32	0.26
404.681	0.25
405.042	0.24
405.403	0.23
405.764	0.22
406.125	0.21
406.485	0.2
406.846	0.19
407.207	0.17
407.567	0.16
407.928	0.15
408.288	0.14
408.649	0.14
409.009	0.13
409.37	0.12
409.73	0.11
410.091	0.1
410.451	0.1
410.811	0.09
411.171	0.09
411.532	0.08
411.892	0.08
412.252	0.07
412.612	0.07
412.972	0.07
413.332	0.06
413.692	0.06
414.052	0.06
414.412	0.05
414.772	0.05
415.132	0.05
415.492	0.05
415.851	0.05
416.211	0.04
416.571	0.04
416.931	0.04
417.29	0.04
417.65	0.04
418.009	0.04
418.369	0.04
418.728	0.04
419.088	0.03
419.447	0.03
419.807	0.03
420.166	0.03
420.525	0.03
420.884	0.03
421.244	0.03
421.603	0.03
421.962	0.03
422.321	0.02
422.68	0.02
423.039	0.02
423.398	0.02
423.757	0.02
424.116	0.02
424.475	0.02
424.834	0.02
425.193	0.02
425.551	0.02
425.91	0.02
426.269	0.02
426.628	0.02
426.986	0.02
427.345	0.02
427.703	0.02
428.062	0.02
428.42	0.02
428.779	0.02
429.137	0.02
429.496	0.02
429.854	0.02
430.212	0.02
430.57	0.02
430.929	0.02
431.287	0.01
431.645	0.01
432.003	0.01
432.361	0.01
432.719	0.01
433.077	0.01
433.435	0.01
433.793	0.01
434.151	0.01
434.509	0.01
434.866	0.01
435.224	0.01
435.582	0.01
435.94	0.01
436.297	0.02
436.655	0.02
437.012	0.02
437.37	0.02
437.727	0.02
438.085	0.02
438.442	0.01
438.8	0.01
439.157	0.01
439.514	0.01
439.872	0.01
440.229	0.01
440.586	0.01
440.943	0.01
441.3	0.01
441.657	0.01
442.014	0.01
442.371	0.01
442.728	0.01
443.085	0.01
443.442	0.01
443.799	0.01
444.156	0.01
444.513	0.01
444.869	0.01
445.226	0.01
445.583	0.01
445.939	0
446.296	0.01
446.652	0
447.009	0
447.365	0
447.722	0.01
448.078	0.01
448.434	0.01
448.791	0
449.147	0
449.503	0
449.859	0
450.215	0.01
450.571	0
450.928	0
451.284	0
451.64	0
451.995	0
452.351	0
452.707	0
453.063	-0
453.419	0
453.775	0
454.13	0
454.486	-0
454.842	-0
455.197	-0
455.553	-0.01
455.908	-0.01
456.264	-0.01
456.619	-0.01
456.975	-0.01
457.33	-0.01
457.685	-0.01
458.04	-0.01
458.396	-0.01
458.751	-0.02
459.106	-0.02
459.461	-0.02
459.816	-0.02
460.171	-0.02
460.526	-0.03
460.881	-0.03
461.236	-0.03
461.591	-0.03
461.946	-0.03
462.301	-0.03
462.655	-0.03
463.01	-0.03
463.365	-0.03
463.719	-0.03
464.074	-0.03
464.428	-0.03
464.783	-0.04
465.137	-0.04
465.492	-0.04
465.846	-0.04
466.201	-0.04
466.555	-0.04
466.909	-0.05
467.263	-0.04
467.618	-0.04
467.972	-0.04
468.326	-0.04
468.68	-0.04
469.034	-0.04
469.388	-0.04
469.742	-0.05
470.096	-0.05
470.45	-0.05
470.804	-0.04
471.157	-0.04
471.511	-0.04
471.865	-0.04
472.218	-0.04
472.572	-0.04
472.926	-0.04
473.279	-0.04
473.633	-0.04
473.986	-0.04
474.34	-0.03
474.693	-0.03
475.046	-0.03
475.4	-0.03
475.753	-0.02
476.106	-0.02
476.459	-0.02
476.812	-0.02
477.165	-0.02
477.519	-0.01
477.872	-0.01
478.224	-0.01
478.577	-0.01
478.93	-0.01
479.283	-0
479.636	-0
479.989	-0
480.341	-0
480.694	0
481.047	0
481.399	0
481.752	0
482.104	0
482.457	0.01
482.809	0.01
483.162	0.01
483.514	0.01
483.866	0.01
484.219	0.01
484.571	0.01
484.923	0.01
485.275	0.01
485.627	0.02
485.979	0.02
486.331	0.02
486.683	0.02
487.035	0.02
487.387	0.02
487.739	0.02
488.091	0.02
488.443	0.02
488.794	0.03
489.146	0.03
489.498	0.03
489.849	0.03
490.201	0.03
490.552	0.03
490.904	0.03
491.255	0.03
491.607	0.03
491.958	0.03
492.309	0.03
492.661	0.03
493.012	0.03
493.363	0.03
493.714	0.04
494.065	0.04
494.416	0.04
494.767	0.04
495.118	0.04
495.469	0.04
495.82	0.04
496.171	0.04
496.522	0.04
496.872	0.04
497.223	0.04
497.574	0.04
497.924	0.04
498.275	0.04
498.626	0.04
498.976	0.04
499.327	0.04
499.677	0.04
500.027	0.04
500.378	0.04
500.728	0.04
501.078	0.05
501.428	0.05
501.779	0.05
502.129	0.05
502.479	0.05
502.829	0.05
503.179	0.05
503.529	0.05
503.879	0.05
504.229	0.05
504.578	0.05
504.928	0.05
505.278	0.05
505.628	0.05
505.977	0.05
506.327	0.06
506.676	0.06
507.026	0.06
507.375	0.06
507.725	0.06
508.074	0.06
508.424	0.06
508.773	0.06
509.122	0.06
509.471	0.06
509.82	0.06
510.17	0.06
510.519	0.06
510.868	0.06
511.217	0.06
511.566	0.06
511.915	0.06
512.263	0.06
512.612	0.06
512.961	0.06
513.31	0.06
513.659	0.06
514.007	0.06
514.356	0.07
514.704	0.07
515.053	0.07
515.401	0.07
515.75	0.07
516.098	0.07
516.447	0.07
516.795	0.07
517.143	0.07
517.491	0.07
517.839	0.07
518.188	0.07
518.536	0.07
518.884	0.07
519.232	0.07
519.58	0.07
519.928	0.07
520.275	0.07
520.623	0.07
520.971	0.07
521.319	0.07
521.666	0.08
522.014	0.08
522.362	0.08
522.709	0.08
523.057	0.08
523.404	0.08
523.752	0.08
524.099	0.08
524.446	0.08
524.794	0.08
525.141	0.08
525.488	0.08
525.835	0.08
526.182	0.08
526.529	0.08
526.876	0.08
527.223	0.08
527.57	0.08
527.917	0.08
528.264	0.08
528.611	0.08
528.958	0.08
529.304	0.08
529.651	0.09
529.998	0.09
530.344	0.09
530.691	0.08
531.037	0.09
531.384	0.08
531.73	0.09
532.076	0.09
532.423	0.09
532.769	0.09
533.115	0.09
533.461	0.09
533.807	0.09
534.154	0.09
534.5	0.09
534.846	0.09
535.192	0.09
535.537	0.09
535.883	0.09
536.229	0.09
536.575	0.09
536.921	0.09
537.266	0.09
537.612	0.09
537.957	0.09
538.303	0.09
538.649	0.09
538.994	0.09
539.339	0.09
539.685	0.09
540.03	0.09
540.375	0.09
540.721	0.09
541.066	0.09
541.411	0.09
541.756	0.09
542.101	0.09
542.446	0.09
542.791	0.09
543.136	0.1
543.481	0.1
543.825	0.1
544.17	0.1
544.515	0.1
544.86	0.1
545.204	0.1
545.549	0.1
545.893	0.1
546.238	0.1
546.582	0.1
546.927	0.1
547.271	0.1
547.615	0.1
547.96	0.1
548.304	0.1
548.648	0.1
548.992	0.1
549.336	0.1
549.68	0.1
550.024	0.1
550.368	0.1
550.712	0.1
551.056	0.1
551.4	0.1
551.743	0.1
552.087	0.1
552.431	0.1
552.774	0.1
553.118	0.1
553.462	0.11
553.805	0.1
554.148	0.11
554.492	0.11
554.835	0.11
555.178	0.11
555.522	0.11
555.865	0.11
556.208	0.11
556.551	0.11
556.894	0.1
557.237	0.1
557.58	0.1
557.923	0.1
558.266	0.11
558.609	0.11
558.952	0.11
559.294	0.11
559.637	0.11
559.98	0.11
560.322	0.11
560.665	0.11
561.007	0.11
561.35	0.11
561.692	0.11
562.034	0.11
562.377	0.11
562.719	0.11
563.061	0.11
563.403	0.11
563.745	0.11
564.088	0.11
564.43	0.11
564.772	0.11
565.113	0.11
565.455	0.11
565.797	0.11
566.139	0.11
566.481	0.11
566.822	0.11
567.164	0.11
567.506	0.11
567.847	0.11
568.189	0.11
568.53	0.11
568.872	0.11
569.213	0.11
569.554	0.11
569.895	0.11
570.237	0.11
570.578	0.11
570.919	0.11
571.26	0.11
571.601	0.1
571.942	0.1
572.283	0.1
572.624	0.1
572.965	0.1
573.306	0.1
573.646	0.1
573.987	0.1
574.328	0.1
574.668	0.1
575.009	0.1
575.349	0.1
575.69	0.1
576.03	0.1
576.37	0.1
576.711	0.1
577.051	0.1
577.391	0.1
577.731	0.1
578.072	0.1
578.412	0.1
578.752	0.09
579.092	0.09
579.431	0.08
579.771	0.08
580.111	0.08
580.451	0.08
580.791	0.08
581.13	0.08
581.47	0.09
581.81	0.09
582.149	0.09
582.489	0.08
582.828	0.07
583.167	0.06
583.507	0.06
583.846	0.05
584.185	0.05
584.525	0.06
584.864	0.07
585.203	0.08
585.542	0.09
585.881	0.09
586.22	0.09
586.559	0.09
586.898	0.08
587.236	0.08
587.575	0.08
587.914	0.08
588.252	0.08
588.591	0.08
588.93	0.09
589.268	0.09
589.607	0.09
589.945	0.09
590.283	0.09
590.622	0.1
590.96	0.1
591.298	0.1
591.636	0.1
591.974	0.1
592.313	0.1
592.651	0.1
592.989	0.1
593.326	0.1
593.664	0.1
594.002	0.1
594.34	0.1
594.678	0.1
595.015	0.1
595.353	0.1
595.691	0.1
596.028	0.1
596.366	0.1
596.703	0.1
597.04	0.1
597.378	0.11
597.715	0.11
598.052	0.11
598.389	0.11
598.726	0.11
599.064	0.11
599.401	0.11
599.738	0.1
600.074	0.1
600.411	0.1
600.748	0.1
601.085	0.1
601.422	0.1
601.758	0.1
602.095	0.1
602.432	0.1
602.768	0.1
603.105	0.1
603.441	0.1
603.777	0.1
604.114	0.11
604.45	0.11
604.786	0.11
605.122	0.11
605.459	0.11
605.795	0.11
606.131	0.11
606.467	0.11
606.803	0.11
607.139	0.11
607.474	0.11
607.81	0.11
608.146	0.11
608.482	0.1
608.817	0.1
609.153	0.11
609.488	0.1
609.824	0.1
610.159	0.1
610.495	0.1
610.83	0.1
611.165	0.1
611.5	0.1
611.836	0.1
612.171	0.1
612.506	0.1
612.841	0.1
613.176	0.1
613.511	0.1
613.845	0.1
614.18	0.1
614.515	0.1
614.85	0.1
615.184	0.1
615.519	0.1
615.854	0.1
616.188	0.1
616.523	0.1
616.857	0.1
617.191	0.1
617.526	0.1
617.86	0.1
618.194	0.1
618.528	0.1
618.862	0.1
619.196	0.1
619.53	0.1
619.864	0.1
620.198	0.1
620.532	0.1
620.866	0.1
621.2	0.1
621.533	0.1
621.867	0.1
622.201	0.1
622.534	0.1
622.868	0.1
623.201	0.09
623.534	0.09
623.868	0.09
624.201	0.09
624.534	0.09
624.868	0.09
625.201	0.09
625.534	0.09
625.867	0.09
626.2	0.09
626.533	0.09
626.865	0.09
627.198	0.09
627.531	0.09
627.864	0.09
628.196	0.09
628.529	0.09
628.862	0.09
629.194	0.09
629.527	0.09
629.859	0.09
630.191	0.09
630.524	0.09
630.856	0.09
631.188	0.08
631.52	0.08
631.852	0.08
632.184	0.09
632.516	0.09
632.848	0.09
633.18	0.08
633.512	0.08
633.844	0.08
634.175	0.08
634.507	0.08
634.839	0.08
635.17	0.08
635.502	0.08
635.833	0.08
636.165	0.08
636.496	0.08
636.827	0.08
637.159	0.08
637.49	0.08
637.821	0.08
638.152	0.07
638.483	0.07
638.814	0.07
639.145	0.07
639.476	0.07
639.807	0.07
640.137	0.07
640.468	0.07
640.799	0.07
641.129	0.07
641.46	0.07
641.791	0.07
642.121	0.07
642.451	0.07
642.782	0.07
643.112	0.07
643.442	0.06
643.773	0.07
644.103	0.06
644.433	0.07
644.763	0.06
645.093	0.06
645.423	0.06
645.753	0.06
646.082	0.06
646.412	0.06
646.742	0.06
647.072	0.06
647.401	0.06
647.731	0.06
648.06	0.06
648.39	0.06
648.719	0.06
649.048	0.06
649.378	0.06
649.707	0.06
650.036	0.06
650.365	0.06
650.694	0.06
651.023	0.06
651.352	0.06
651.681	0.06
652.01	0.06
652.339	0.06
652.668	0.06
652.996	0.06
653.325	0.06
653.654	0.06
653.982	0.06
654.311	0.06
654.639	0.06
654.967	0.06
655.296	0.06
655.624	0.06
655.952	0.06
656.28	0.06
656.609	0.05
656.937	0.04
657.265	0.03
657.593	0.02
657.92	0.02
658.248	0.01
658.576	0.01
658.904	0.01
659.231	0.02
659.559	0.03
659.887	0.04
660.214	0.04
660.542	0.05
660.869	0.06
661.196	0.06
661.524	0.06
661.851	0.05
662.178	0.05
662.505	0.05
662.832	0.05
663.159	0.05
663.486	0.05
663.813	0.05
664.14	0.05
664.467	0.05
664.794	0.05
665.12	0.05
665.447	0.05
665.774	0.05
666.1	0.05
666.427	0.05
666.753	0.05
667.079	0.05
667.406	0.05
667.732	0.05
668.058	0.05
668.384	0.05
668.71	0.05
669.036	0.05
669.362	0.05
669.688	0.05
670.014	0.05
670.34	0.05
670.666	0.05
670.991	0.05
671.317	0.05
671.643	0.05
671.968	0.05
672.294	0.04
672.619	0.04
672.945	0.04
673.27	0.04
673.595	0.04
673.92	0.04
674.246	0.04
674.571	0.04
674.896	0.04
675.221	0.04
675.546	0.04
675.87	0.04
676.195	0.04
676.52	0.04
676.845	0.04
677.169	0.04
677.494	0.04
677.819	0.04
678.143	0.04
678.468	0.04
678.792	0.04
679.116	0.04
679.44	0.04
679.765	0.04
680.089	0.04
680.413	0.04
680.737	0.04
681.061	0.03
681.385	0.03
681.709	0.03
682.033	0.03
682.356	0.03
682.68	0.03
683.004	0.03
683.327	0.03
683.651	0.03
683.974	0.03
684.298	0.03
684.621	0.03
684.944	0.03
685.268	0.03
685.591	0.03
685.914	0.03
686.237	0.03
686.56	0.02
686.883	0.02
687.206	0.02
687.529	0.02
687.852	0.02
688.175	0.02
688.497	0.02
688.82	0.02
689.142	0.02
689.465	0.02
689.787	0.02
690.11	0.02
690.432	0.02
690.755	0.02
691.077	0.02
691.399	0.02
691.721	0.02
692.043	0.02
692.365	0.02
692.687	0.02
693.009	0.02
693.331	0.02
693.653	0.02
693.974	0.02
694.296	0.02
694.618	0.01
694.939	0.01
695.261	0.01
695.582	0.01
695.904	0.01
696.225	0.01
696.546	0.01
696.868	0.01
697.189	0.01
697.51	0.01
697.831	0.01
698.152	0.01
698.473	0.01
698.794	0.01
699.114	0.01
699.435	0.01
699.756	0.01
700.077	0.01
700.397	0.01
700.718	0.01
701.038	0.01
701.359	0.01
701.679	0.01
701.999	0.01
702.32	0.01
702.64	0.01
702.96	0.01
703.28	0.01
703.6	0.01
703.92	0.01
704.24	0.01
704.56	0.01
704.879	0.01
705.199	0.01
705.519	0.01
705.838	0.01
706.158	0.01
706.478	0.01
706.797	0.01
707.116	0.01
707.436	0.01
707.755	0.01
708.074	0.01
708.393	0.01
708.712	0.01
709.031	0
709.35	0
709.669	0
709.988	0
710.307	0
710.626	0
710.944	0
711.263	0
711.582	0.01
711.9	0.01
712.219	0.01
712.537	0.01
712.855	0.01
713.174	0.01
713.492	0.01
713.81	0.01
714.128	0.01
714.446	0
714.764	0
715.082	0
715.4	0
715.718	0
716.035	0.01
716.353	0.01
716.671	0.01
716.988	0.01
717.306	0.01
717.623	0.01
717.941	0.01
718.258	0.01
718.575	0.01
718.893	0.01
719.21	0.01
719.527	0.01
719.844	0.01
720.161	0.01
720.478	0.01
720.795	0.01
721.112	0.01
721.428	0.01
721.745	0.01
722.062	0.01
722.378	0.01
722.695	0.01
723.011	0.01
723.328	0.01
723.644	0.01
723.96	0.01
724.276	0.01
724.593	0.01
724.909	0.01
725.225	0.01
725.541	0.01
725.857	0.01
726.173	0.01
726.488	0.01
726.804	0.01
727.12	0.01
727.435	0.01
727.751	0.01
728.067	0.01
728.382	0.01
728.697	0.01
729.013	0.01
729.328	0.01
729.643	0.01
729.958	0.01
730.273	0.01
730.588	0.01
730.903	0.01
731.218	0.01
731.533	0.01
731.848	0.01
732.163	0.01
732.477	0.01
732.792	0.01
733.107	0.01
733.421	0.01
733.736	0.01
734.05	0.01
734.364	0.01
734.678	0.01
734.993	0.01
735.307	0.01
735.621	0.01
735.935	0.01
736.249	0.01
736.563	0.01
736.877	0.01
737.19	0.01
737.504	0.01
737.818	0.01
738.131	0.01
738.445	0.01
738.758	0.01
739.072	0.01
739.385	0.01
739.698	0.01
740.012	0.01
740.325	0.01
740.638	0.01
740.951	0.01
741.264	0.01
741.577	0.01
741.89	0.01
742.203	0.01
742.515	0.01
742.828	0.01
743.141	0.01
743.453	0.01
743.766	0.01
744.078	0.01
744.391	0.01
744.703	0.01
745.015	0.01
745.327	0.01
745.639	0.01
745.952	0.01
746.264	0.01
746.575	0.01
746.887	0
747.199	0.01
747.511	0.01
747.823	0.01
748.134	0
748.446	0
748.757	0.01
749.069	0.01
749.38	0
749.692	0
750.003	0
750.314	0
750.625	0
750.936	0
751.248	0
751.559	0
751.869	0
752.18	0
752.491	0
752.802	0
753.112	0
753.423	0
753.734	0
754.044	0
754.355	0
754.665	0.01
754.975	0.01
755.285	0
755.596	0
755.906	0
756.216	0
756.526	0
756.836	0
757.146	0
757.455	0
757.765	0
758.075	0
758.385	0
758.694	0
759.004	0
759.313	0
759.622	0
759.932	0
760.241	0
760.55	0
760.859	0
761.168	-0
761.477	-0
761.786	-0
762.095	-0
762.404	-0
762.713	0
763.021	0
763.33	0
763.639	0
763.947	0
764.256	0
764.564	0
764.872	0
765.181	0
765.489	-0
765.797	-0
766.105	-0
766.413	-0
766.721	-0
767.029	-0
767.337	-0
767.644	0
767.952	0
768.26	0
768.567	0
768.875	0
769.182	0
769.49	0
769.797	0
770.104	0
770.411	-0
770.718	-0
771.026	-0
771.333	-0
771.639	-0
771.946	-0
772.253	0
772.56	0
772.867	0
773.173	0
773.48	0
773.786	0
774.093	0
774.399	0
774.705	0
775.012	0
775.318	0
775.624	-0
775.93	-0
776.236	-0
776.542	-0
776.848	0
777.154	0
777.459	0
777.765	0
778.071	0
778.376	0
778.682	0
778.987	0
779.292	0
779.598	0
779.903	0
780.208	0
780.513	0
780.818	0
781.123	0
781.428	0
781.733	0
782.038	0
782.343	-0
782.647	-0
782.952	-0
783.256	-0
783.561	-0
783.865	-0
784.17	-0
784.474	-0
784.778	-0
785.082	-0
785.386	0
785.69	0
785.994	0
786.298	-0
786.602	-0
786.906	-0
787.209	-0
787.513	-0
787.817	-0
788.12	-0.01
788.424	-0.01
788.727	-0
789.03	-0
789.333	-0.01
789.637	-0
789.94	-0
790.243	-0
790.546	-0
790.849	-0
791.152	-0
791.454	-0
791.757	-0
792.06	-0
792.362	-0
792.665	-0
792.967	-0
793.27	-0
793.572	-0
793.874	-0
794.177	0
794.479	-0
794.781	-0
795.083	-0
795.385	0
795.687	0
795.989	0
796.29	0
796.592	0
796.894	0
797.195	0
797.497	0
797.798	0
798.1	0
798.401	0
798.702	-0
799.003	-0
799.304	-0
799.605	-0
799.906	-0
800.207	-0
800.508	0
800.809	0
801.11	0
801.41	0
801.711	0
802.011	0
802.312	0
802.612	-0
802.913	-0
803.213	-0
803.513	-0
803.813	-0
804.113	-0
804.413	-0
804.713	-0
805.013	-0
805.313	-0
805.613	-0.01
805.912	-0.01
806.212	-0.01
806.511	-0.01
806.811	-0.01
807.11	-0.01
807.41	-0.01
807.709	-0.01
808.008	-0.01
808.307	-0
808.606	-0
808.905	-0
809.204	-0
809.503	0
809.802	0
810.101	0.01
810.399	0.01
810.698	0.01
810.997	0
811.295	0
811.593	0
811.892	-0
812.19	-0
812.488	-0
812.786	-0
813.084	-0
813.383	0
813.68	0
813.978	0
814.276	0
814.574	0
814.872	0
815.169	0
815.467	0
815.764	0
816.062	0
816.359	0
816.656	0
816.954	0
817.251	0
817.548	0
817.845	0
818.142	0
818.439	0
818.735	0
819.032	0
819.329	0
819.626	0
819.922	0
820.219	0.01
820.515	0.01
820.811	0.01
821.108	0
821.404	0
821.7	0
821.996	0
822.292	0
822.588	0
822.884	0
823.18	0
823.475	0
823.771	-0
824.067	-0
824.362	-0
824.658	-0
824.953	-0
825.249	-0
825.544	-0
825.839	0
826.134	0
826.429	-0
826.724	0
827.019	0
827.314	0
827.609	0
827.904	0
828.198	0
828.493	0
828.787	0
829.082	0
829.376	0
829.671	0
829.965	0
830.259	0
830.553	0
830.847	0
831.141	0
831.435	0
831.729	0
832.023	0
832.317	0
832.61	0
832.904	0
833.197	0
833.491	0
833.784	0
834.077	0
834.371	0
834.664	0
834.957	0
835.25	0
835.543	0
835.836	0
836.129	0
836.421	0
836.714	0
837.007	0
837.299	0.01
837.592	0.01
837.884	0
838.177	0
838.469	0
838.761	0
839.053	-0
839.345	-0
839.637	-0
839.929	-0.01
840.221	-0
840.513	-0
840.805	-0
841.096	-0
841.388	-0
841.68	-0
841.971	0
842.262	0
842.554	0
842.845	0
843.136	0
843.427	0
843.718	0
844.009	0
844.3	0
844.591	0
844.882	0
845.173	0.01
845.463	0.01
845.754	0.01
846.044	0.01
846.335	0.01
846.625	0.01
846.915	0.01
847.206	0
847.496	0
847.786	0
848.076	0
848.366	0
848.656	0
848.945	0
849.235	0
849.525	0
849.814	0
850.104	0
850.393	0
850.683	0
850.972	0
851.261	-0
851.551	-0
851.84	-0
852.129	-0
852.418	-0
852.707	-0
852.995	-0
853.284	-0
853.573	-0.01
853.862	-0
854.15	-0
854.439	-0
854.727	-0
855.015	0
855.304	0
855.592	0
855.88	0.01
856.168	0.01
856.456	0.01
856.744	0.01
857.032	0.01
857.32	0.01
857.607	0.01
857.895	0.01
858.183	0.01
858.47	0.01
858.757	0.01
859.045	0.01
859.332	0
859.619	-0
859.907	0
860.194	-0
860.481	-0
860.768	-0
861.054	-0
861.341	0
861.628	0.01
861.915	0.01
862.201	0.01
862.488	0.01
862.774	0.01
863.061	0.01
863.347	0
863.633	0
863.919	-0.01
864.205	-0.01
864.491	-0.01
864.777	-0.01
865.063	-0.02
865.349	-0.02
865.635	-0.02
865.92	-0.01
866.206	-0.01
866.492	-0.01
866.777	-0.01
867.062	-0.01
867.348	-0
867.633	0
867.918	0
868.203	-0.01
868.488	-0.01
868.773	-0.01
869.058	-0
869.343	-0.01
869.628	-0.01
869.912	-0.01
870.197	-0.01
870.482	-0
870.766	-0
871.05	-0.01
871.335	-0.01
871.619	-0.01
871.903	-0
872.187	0.01
872.471	0.01
872.755	0.01
873.039	0.01
873.323	0.02
873.607	0.02
873.89	0.02
874.174	0.02
874.458	0.02
874.741	0.02
875.024	0.01
875.308	0
875.591	0.01
875.874	0
876.157	-0
876.44	0.01
876.723	0.01
877.006	0.03
877.289	0.04
877.572	0
877.854	-0
878.137	-0.01
878.42	-0.05
878.702	-0.07
878.984	-0.07
879.267	-0.08
879.549	-0.06
879.831	-0.06
880.113	-0.04
880.395	-0.03
880.677	-0.01
880.959	-0.02
