Data from Rubpy_BV_300_EDTA_Buffered_Absorbance_12-09-15-692.txt Node
Date: Wed Jul 01 12:09:15 BST 2026
User: fpm-admin
Spectrometer: OFX00224
Trigger mode: 0
Integration Time (sec): 7.000000E-2
Scans to average: 1
Nonlinearity correction enabled: false
Boxcar width: 3
Storing dark spectrum: false
XAxis mode: Wavelengths
Number of Pixels in Spectrum: 2136
>>>>>Begin Spectral Data<<<<<
154.91	-0.13
155.289	-0.14
155.669	-0.28
156.048	-0.41
156.428	-0.62
156.807	-0.36
157.186	-0
157.566	1.35
157.945	-0
158.325	0.51
158.704	0.38
159.083	0.62
159.462	0.63
159.842	-0
160.221	-0
160.6	-0
160.979	-0.26
161.359	-0.22
161.738	-0.56
162.117	-1.34
162.496	-0
162.875	-0
163.254	-0
163.633	-0
164.012	-0
164.391	-0
164.77	-0.67
165.149	-1
165.528	-1.1
165.907	-0.81
166.286	-0.92
166.665	-0.82
167.044	-1.05
167.423	-1.76
167.802	-0
168.181	-0
168.559	-0
168.938	-0
169.317	-0
169.696	-0
170.074	-0
170.453	-0
170.832	-0
171.21	-0
171.589	-0
171.968	-0
172.346	-0
172.725	-0
173.103	-0
173.482	-0
173.861	-0
174.239	-0
174.617	-0
174.996	-0
175.374	-0
175.753	-0
176.131	-0
176.51	-0
176.888	-0
177.266	-0
177.645	-0
178.023	-0
178.401	0.58
178.779	0.44
179.158	-0
179.536	-0
179.914	-0
180.292	-0
180.67	-0.37
181.048	-0.21
181.427	-0.49
181.805	-0
182.183	-1.58
182.561	-0
182.939	-0
183.317	-0
183.695	-0
184.073	-0
184.451	-0
184.829	-0
185.206	-0.24
185.584	-0.35
185.962	-0.03
186.34	-0.15
186.718	-0.11
187.096	-0.25
187.473	-0.02
187.851	-0.02
188.229	0.02
188.607	0.02
188.984	0.04
189.362	0.06
189.74	0.07
190.117	0.09
190.495	0.08
190.872	0.06
191.25	0.06
191.627	0.04
192.005	0.02
192.382	0.01
192.76	0.01
193.137	0.02
193.515	0.02
193.892	0.03
194.269	0.04
194.647	0.06
195.024	0.04
195.401	0.02
195.779	0.01
196.156	0.04
196.533	0.02
196.91	0
197.288	0.03
197.665	0.04
198.042	0.05
198.419	0.07
198.796	0.07
199.173	0.09
199.55	0.11
199.927	0.09
200.304	0.12
200.681	0.09
201.058	0.08
201.435	0.07
201.812	0.07
202.189	0.05
202.566	0.07
202.943	0.06
203.32	0.05
203.697	0.05
204.073	0.04
204.45	0.07
204.827	0.12
205.204	0.13
205.58	0.11
205.957	0.14
206.334	0.14
206.71	0.13
207.087	0.13
207.464	0.1
207.84	0.09
208.217	0.1
208.593	0.08
208.97	0.07
209.346	0.06
209.723	0.05
210.099	0.06
210.476	0.07
210.852	0.1
211.228	0.11
211.605	0.11
211.981	0.12
212.357	0.15
212.733	0.14
213.11	0.15
213.486	0.13
213.862	0.13
214.238	0.15
214.614	0.16
214.991	0.13
215.367	0.12
215.743	0.09
216.119	0.09
216.495	0.08
216.871	0.06
217.247	0.03
217.623	0.05
217.999	0.04
218.375	0.05
218.751	0.03
219.127	0.03
219.502	0.03
219.878	0.05
220.254	0.02
220.63	0.01
221.006	0.03
221.381	0.04
221.757	0.05
222.133	0.05
222.508	0.08
222.884	0.08
223.26	0.11
223.635	0.09
224.011	0.1
224.386	0.08
224.762	0.09
225.137	0.08
225.513	0.08
225.888	0.07
226.264	0.07
226.639	0.06
227.014	0.06
227.39	0.08
227.765	0.07
228.14	0.09
228.516	0.09
228.891	0.08
229.266	0.1
229.641	0.09
230.017	0.07
230.392	0.05
230.767	0.04
231.142	0.05
231.517	0.06
231.892	0.06
232.267	0.07
232.642	0.07
233.017	0.07
233.392	0.07
233.767	0.05
234.142	0.04
234.517	0.03
234.892	0.03
235.267	0.02
235.641	0.08
236.016	0.08
236.391	0.11
236.766	0.11
237.14	0.13
237.515	0.12
237.89	0.15
238.264	0.13
238.639	0.13
239.014	0.14
239.388	0.16
239.763	0.16
240.137	0.19
240.512	0.17
240.886	0.15
241.261	0.15
241.635	0.12
242.009	0.12
242.384	0.09
242.758	0.09
243.132	0.08
243.507	0.11
243.881	0.11
244.255	0.11
244.629	0.11
245.004	0.1
245.378	0.11
245.752	0.1
246.126	0.11
246.5	0.1
246.874	0.11
247.248	0.1
247.622	0.12
247.996	0.09
248.37	0.07
248.744	0.04
249.118	0.04
249.492	0.03
249.866	0.05
250.24	0.06
250.613	0.08
250.987	0.11
251.361	0.12
251.735	0.13
252.108	0.13
252.482	0.11
252.856	0.09
253.229	0.1
253.603	0.07
253.977	0.05
254.35	0.04
254.724	0.04
255.097	0.03
255.471	0.04
255.844	0.03
256.218	0.04
256.591	0.06
256.964	0.07
257.338	0.09
257.711	0.1
258.084	0.09
258.458	0.08
258.831	0.09
259.204	0.08
259.577	0.08
259.95	0.07
260.323	0.07
260.697	0.08
261.07	0.09
261.443	0.11
261.816	0.11
262.189	0.11
262.562	0.1
262.935	0.1
263.308	0.1
263.68	0.09
264.053	0.06
264.426	0.05
264.799	0.05
265.172	0.06
265.545	0.07
265.917	0.06
266.29	0.06
266.663	0.06
267.035	0.06
267.408	0.04
267.781	0.05
268.153	0.06
268.526	0.06
268.898	0.06
269.271	0.08
269.643	0.09
270.016	0.09
270.388	0.09
270.76	0.09
271.133	0.09
271.505	0.09
271.877	0.08
272.25	0.09
272.622	0.1
272.994	0.12
273.366	0.11
273.739	0.12
274.111	0.12
274.483	0.13
274.855	0.1
275.227	0.11
275.599	0.09
275.971	0.12
276.343	0.12
276.715	0.13
277.087	0.15
277.459	0.16
277.831	0.16
278.203	0.15
278.574	0.14
278.946	0.14
279.318	0.13
279.69	0.11
280.061	0.11
280.433	0.11
280.805	0.13
281.176	0.12
281.548	0.12
281.92	0.12
282.291	0.13
282.663	0.14
283.034	0.12
283.406	0.13
283.777	0.14
284.148	0.14
284.52	0.15
284.891	0.14
285.262	0.13
285.634	0.14
286.005	0.11
286.376	0.1
286.747	0.11
287.119	0.12
287.49	0.12
287.861	0.12
288.232	0.12
288.603	0.12
288.974	0.13
289.345	0.1
289.716	0.1
290.087	0.11
290.458	0.13
290.829	0.13
291.2	0.13
291.571	0.13
291.941	0.13
292.312	0.13
292.683	0.15
293.054	0.14
293.424	0.15
293.795	0.15
294.166	0.16
294.536	0.19
294.907	0.17
295.277	0.15
295.648	0.15
296.018	0.14
296.389	0.14
296.759	0.15
297.13	0.11
297.5	0.11
297.871	0.11
298.241	0.11
298.611	0.1
298.981	0.1
299.352	0.08
299.722	0.09
300.092	0.09
300.462	0.07
300.832	0.06
301.202	0.04
301.573	0.03
301.943	0.03
302.313	0.02
302.683	0.02
303.053	0.02
303.422	0.02
303.792	0.03
304.162	0.03
304.532	0.03
304.902	0.03
305.272	0.03
305.641	0.04
306.011	0.04
306.381	0.04
306.75	0.04
307.12	0.04
307.49	0.05
307.859	0.05
308.229	0.05
308.598	0.05
308.968	0.05
309.337	0.05
309.707	0.05
310.076	0.05
310.445	0.06
310.815	0.06
311.184	0.06
311.553	0.06
311.923	0.07
312.292	0.07
312.661	0.08
313.03	0.08
313.399	0.08
313.768	0.08
314.137	0.09
314.506	0.09
314.875	0.09
315.244	0.09
315.613	0.09
315.982	0.1
316.351	0.1
316.72	0.1
317.089	0.1
317.458	0.1
317.826	0.11
318.195	0.11
318.564	0.11
318.933	0.12
319.301	0.12
319.67	0.12
320.038	0.12
320.407	0.13
320.775	0.13
321.144	0.13
321.512	0.13
321.881	0.13
322.249	0.13
322.618	0.13
322.986	0.13
323.354	0.14
323.723	0.14
324.091	0.14
324.459	0.14
324.827	0.14
325.195	0.14
325.564	0.14
325.932	0.14
326.3	0.14
326.668	0.15
327.036	0.15
327.404	0.15
327.772	0.16
328.14	0.16
328.508	0.16
328.875	0.17
329.243	0.17
329.611	0.17
329.979	0.18
330.346	0.18
330.714	0.18
331.082	0.18
331.449	0.18
331.817	0.19
332.185	0.19
332.552	0.19
332.92	0.2
333.287	0.2
333.655	0.2
334.022	0.21
334.389	0.21
334.757	0.22
335.124	0.22
335.491	0.22
335.859	0.23
336.226	0.23
336.593	0.24
336.96	0.24
337.327	0.25
337.695	0.25
338.062	0.26
338.429	0.26
338.796	0.26
339.163	0.27
339.53	0.28
339.897	0.28
340.263	0.29
340.63	0.29
340.997	0.29
341.364	0.3
341.731	0.3
342.097	0.31
342.464	0.31
342.831	0.32
343.197	0.32
343.564	0.33
343.931	0.34
344.297	0.34
344.664	0.35
345.03	0.35
345.396	0.36
345.763	0.36
346.129	0.37
346.496	0.37
346.862	0.38
347.228	0.39
347.594	0.39
347.961	0.4
348.327	0.4
348.693	0.41
349.059	0.42
349.425	0.42
349.791	0.43
350.157	0.43
350.523	0.44
350.889	0.44
351.255	0.45
351.621	0.45
351.987	0.46
352.353	0.46
352.719	0.47
353.084	0.47
353.45	0.48
353.816	0.48
354.181	0.49
354.547	0.49
354.913	0.5
355.278	0.51
355.644	0.51
356.009	0.52
356.375	0.53
356.74	0.54
357.106	0.55
357.471	0.55
357.836	0.56
358.202	0.57
358.567	0.58
358.932	0.59
359.297	0.59
359.663	0.6
360.028	0.61
360.393	0.62
360.758	0.63
361.123	0.64
361.488	0.64
361.853	0.65
362.218	0.66
362.583	0.67
362.948	0.68
363.312	0.68
363.677	0.69
364.042	0.7
364.407	0.71
364.772	0.72
365.136	0.72
365.501	0.73
365.865	0.74
366.23	0.75
366.595	0.75
366.959	0.76
367.324	0.77
367.688	0.77
368.052	0.78
368.417	0.79
368.781	0.8
369.145	0.8
369.51	0.81
369.874	0.82
370.238	0.82
370.602	0.83
370.967	0.83
371.331	0.84
371.695	0.84
372.059	0.84
372.423	0.85
372.787	0.85
373.151	0.85
373.515	0.84
373.878	0.84
374.242	0.83
374.606	0.83
374.97	0.82
375.334	0.82
375.697	0.81
376.061	0.8
376.425	0.79
376.788	0.79
377.152	0.78
377.515	0.78
377.879	0.77
378.242	0.76
378.606	0.76
378.969	0.75
379.333	0.74
379.696	0.73
380.059	0.72
380.422	0.71
380.786	0.7
381.149	0.7
381.512	0.69
381.875	0.69
382.238	0.68
382.601	0.68
382.964	0.67
383.327	0.66
383.69	0.66
384.053	0.66
384.416	0.65
384.779	0.65
385.142	0.64
385.504	0.64
385.867	0.64
386.23	0.64
386.593	0.64
386.955	0.64
387.318	0.64
387.68	0.64
388.043	0.64
388.405	0.64
388.768	0.64
389.13	0.64
389.493	0.64
389.855	0.64
390.217	0.64
390.58	0.63
390.942	0.63
391.304	0.63
391.666	0.62
392.028	0.61
392.391	0.61
392.753	0.6
393.115	0.59
393.477	0.58
393.839	0.58
394.201	0.58
394.563	0.57
394.924	0.58
395.286	0.58
395.648	0.58
396.01	0.59
396.371	0.59
396.733	0.6
397.095	0.61
397.456	0.62
397.818	0.64
398.18	0.65
398.541	0.67
398.903	0.68
399.264	0.7
399.625	0.72
399.987	0.73
400.348	0.74
400.709	0.76
401.071	0.76
401.432	0.77
401.793	0.77
402.154	0.77
402.515	0.76
402.876	0.75
403.238	0.74
403.599	0.72
403.96	0.7
404.32	0.68
404.681	0.66
405.042	0.63
405.403	0.6
405.764	0.57
406.125	0.54
406.485	0.52
406.846	0.49
407.207	0.46
407.567	0.44
407.928	0.41
408.288	0.39
408.649	0.37
409.009	0.34
409.37	0.32
409.73	0.3
410.091	0.28
410.451	0.27
410.811	0.26
411.171	0.25
411.532	0.23
411.892	0.22
412.252	0.21
412.612	0.2
412.972	0.19
413.332	0.18
413.692	0.17
414.052	0.16
414.412	0.16
414.772	0.15
415.132	0.14
415.492	0.14
415.851	0.13
416.211	0.13
416.571	0.12
416.931	0.12
417.29	0.12
417.65	0.12
418.009	0.11
418.369	0.11
418.728	0.1
419.088	0.1
419.447	0.1
419.807	0.1
420.166	0.09
420.525	0.09
420.884	0.09
421.244	0.09
421.603	0.08
421.962	0.08
422.321	0.08
422.68	0.08
423.039	0.08
423.398	0.08
423.757	0.08
424.116	0.08
424.475	0.07
424.834	0.07
425.193	0.07
425.551	0.07
425.91	0.07
426.269	0.07
426.628	0.07
426.986	0.07
427.345	0.07
427.703	0.07
428.062	0.07
428.42	0.07
428.779	0.06
429.137	0.07
429.496	0.06
429.854	0.07
430.212	0.06
430.57	0.06
430.929	0.06
431.287	0.06
431.645	0.06
432.003	0.05
432.361	0.05
432.719	0.06
433.077	0.06
433.435	0.06
433.793	0.06
434.151	0.06
434.509	0.06
434.866	0.06
435.224	0.05
435.582	0.05
435.94	0.05
436.297	0.05
436.655	0.06
437.012	0.06
437.37	0.06
437.727	0.06
438.085	0.05
438.442	0.05
438.8	0.05
439.157	0.05
439.514	0.05
439.872	0.05
440.229	0.05
440.586	0.05
440.943	0.05
441.3	0.05
441.657	0.05
442.014	0.05
442.371	0.05
442.728	0.05
443.085	0.05
443.442	0.05
443.799	0.06
444.156	0.06
444.513	0.05
444.869	0.05
445.226	0.05
445.583	0.05
445.939	0.05
446.296	0.05
446.652	0.05
447.009	0.05
447.365	0.05
447.722	0.05
448.078	0.05
448.434	0.05
448.791	0.05
449.147	0.05
449.503	0.05
449.859	0.05
450.215	0.05
450.571	0.05
450.928	0.05
451.284	0.05
451.64	0.05
451.995	0.05
452.351	0.05
452.707	0.05
453.063	0.05
453.419	0.05
453.775	0.05
454.13	0.05
454.486	0.05
454.842	0.05
455.197	0.05
455.553	0.05
455.908	0.04
456.264	0.04
456.619	0.04
456.975	0.04
457.33	0.04
457.685	0.04
458.04	0.04
458.396	0.04
458.751	0.03
459.106	0.03
459.461	0.03
459.816	0.03
460.171	0.03
460.526	0.03
460.881	0.03
461.236	0.03
461.591	0.03
461.946	0.03
462.301	0.03
462.655	0.03
463.01	0.02
463.365	0.03
463.719	0.02
464.074	0.02
464.428	0.02
464.783	0.02
465.137	0.02
465.492	0.01
465.846	0.01
466.201	0.01
466.555	0.02
466.909	0.02
467.263	0.02
467.618	0.02
467.972	0.02
468.326	0.02
468.68	0.03
469.034	0.02
469.388	0.03
469.742	0.03
470.096	0.03
470.45	0.03
470.804	0.03
471.157	0.04
471.511	0.04
471.865	0.04
472.218	0.04
472.572	0.04
472.926	0.04
473.279	0.04
473.633	0.04
473.986	0.04
474.34	0.05
474.693	0.05
475.046	0.05
475.4	0.06
475.753	0.06
476.106	0.06
476.459	0.07
476.812	0.07
477.165	0.08
477.519	0.08
477.872	0.09
478.224	0.09
478.577	0.09
478.93	0.1
479.283	0.1
479.636	0.1
479.989	0.11
480.341	0.11
480.694	0.11
481.047	0.11
481.399	0.11
481.752	0.11
482.104	0.12
482.457	0.12
482.809	0.12
483.162	0.12
483.514	0.13
483.866	0.13
484.219	0.13
484.571	0.13
484.923	0.14
485.275	0.14
485.627	0.14
485.979	0.14
486.331	0.14
486.683	0.14
487.035	0.15
487.387	0.15
487.739	0.15
488.091	0.15
488.443	0.16
488.794	0.16
489.146	0.17
489.498	0.17
489.849	0.17
490.201	0.17
490.552	0.17
490.904	0.17
491.255	0.18
491.607	0.18
491.958	0.18
492.309	0.18
492.661	0.18
493.012	0.19
493.363	0.19
493.714	0.19
494.065	0.19
494.416	0.19
494.767	0.2
495.118	0.2
495.469	0.2
495.82	0.2
496.171	0.2
496.522	0.2
496.872	0.2
497.223	0.2
497.574	0.21
497.924	0.21
498.275	0.21
498.626	0.21
498.976	0.22
499.327	0.22
499.677	0.22
500.027	0.22
500.378	0.22
500.728	0.22
501.078	0.22
501.428	0.23
501.779	0.23
502.129	0.23
502.479	0.23
502.829	0.23
503.179	0.23
503.529	0.24
503.879	0.24
504.229	0.24
504.578	0.24
504.928	0.24
505.278	0.25
505.628	0.25
505.977	0.25
506.327	0.25
506.676	0.25
507.026	0.26
507.375	0.26
507.725	0.26
508.074	0.26
508.424	0.26
508.773	0.26
509.122	0.26
509.471	0.26
509.82	0.27
510.17	0.27
510.519	0.27
510.868	0.27
511.217	0.27
511.566	0.28
511.915	0.28
512.263	0.28
512.612	0.28
512.961	0.28
513.31	0.28
513.659	0.28
514.007	0.29
514.356	0.29
514.704	0.29
515.053	0.29
515.401	0.29
515.75	0.29
516.098	0.3
516.447	0.3
516.795	0.3
517.143	0.3
517.491	0.3
517.839	0.3
518.188	0.3
518.536	0.3
518.884	0.3
519.232	0.31
519.58	0.31
519.928	0.31
520.275	0.31
520.623	0.31
520.971	0.31
521.319	0.31
521.666	0.31
522.014	0.32
522.362	0.32
522.709	0.32
523.057	0.32
523.404	0.32
523.752	0.32
524.099	0.32
524.446	0.33
524.794	0.33
525.141	0.33
525.488	0.33
525.835	0.33
526.182	0.33
526.529	0.33
526.876	0.33
527.223	0.34
527.57	0.34
527.917	0.34
528.264	0.34
528.611	0.34
528.958	0.34
529.304	0.34
529.651	0.34
529.998	0.34
530.344	0.35
530.691	0.34
531.037	0.35
531.384	0.35
531.73	0.35
532.076	0.35
532.423	0.35
532.769	0.35
533.115	0.35
533.461	0.35
533.807	0.35
534.154	0.35
534.5	0.35
534.846	0.35
535.192	0.35
535.537	0.35
535.883	0.35
536.229	0.36
536.575	0.36
536.921	0.36
537.266	0.36
537.612	0.36
537.957	0.36
538.303	0.37
538.649	0.37
538.994	0.37
539.339	0.37
539.685	0.37
540.03	0.37
540.375	0.37
540.721	0.37
541.066	0.37
541.411	0.37
541.756	0.37
542.101	0.37
542.446	0.37
542.791	0.38
543.136	0.38
543.481	0.38
543.825	0.38
544.17	0.38
544.515	0.37
544.86	0.37
545.204	0.37
545.549	0.38
545.893	0.38
546.238	0.38
546.582	0.38
546.927	0.38
547.271	0.38
547.615	0.39
547.96	0.39
548.304	0.39
548.648	0.38
548.992	0.39
549.336	0.39
549.68	0.39
550.024	0.39
550.368	0.39
550.712	0.39
551.056	0.39
551.4	0.39
551.743	0.39
552.087	0.39
552.431	0.39
552.774	0.39
553.118	0.39
553.462	0.39
553.805	0.39
554.148	0.39
554.492	0.39
554.835	0.39
555.178	0.39
555.522	0.39
555.865	0.39
556.208	0.39
556.551	0.39
556.894	0.39
557.237	0.39
557.58	0.39
557.923	0.39
558.266	0.39
558.609	0.39
558.952	0.39
559.294	0.39
559.637	0.39
559.98	0.39
560.322	0.39
560.665	0.39
561.007	0.39
561.35	0.39
561.692	0.39
562.034	0.39
562.377	0.39
562.719	0.39
563.061	0.39
563.403	0.39
563.745	0.39
564.088	0.39
564.43	0.39
564.772	0.39
565.113	0.39
565.455	0.39
565.797	0.39
566.139	0.39
566.481	0.39
566.822	0.39
567.164	0.39
567.506	0.38
567.847	0.38
568.189	0.38
568.53	0.38
568.872	0.38
569.213	0.38
569.554	0.38
569.895	0.38
570.237	0.38
570.578	0.37
570.919	0.37
571.26	0.37
571.601	0.37
571.942	0.37
572.283	0.37
572.624	0.37
572.965	0.37
573.306	0.37
573.646	0.37
573.987	0.37
574.328	0.37
574.668	0.37
575.009	0.36
575.349	0.36
575.69	0.36
576.03	0.36
576.37	0.36
576.711	0.36
577.051	0.36
577.391	0.36
577.731	0.36
578.072	0.36
578.412	0.35
578.752	0.35
579.092	0.34
579.431	0.33
579.771	0.33
580.111	0.33
580.451	0.33
580.791	0.33
581.13	0.34
581.47	0.34
581.81	0.35
582.149	0.34
582.489	0.33
582.828	0.32
583.167	0.31
583.507	0.3
583.846	0.3
584.185	0.3
584.525	0.31
584.864	0.32
585.203	0.33
585.542	0.34
585.881	0.34
586.22	0.34
586.559	0.33
586.898	0.33
587.236	0.33
587.575	0.33
587.914	0.33
588.252	0.33
588.591	0.33
588.93	0.33
589.268	0.34
589.607	0.34
589.945	0.34
590.283	0.34
590.622	0.35
590.96	0.35
591.298	0.35
591.636	0.35
591.974	0.35
592.313	0.35
592.651	0.35
592.989	0.35
593.326	0.35
593.664	0.35
594.002	0.35
594.34	0.34
594.678	0.34
595.015	0.34
595.353	0.34
595.691	0.34
596.028	0.34
596.366	0.35
596.703	0.35
597.04	0.35
597.378	0.35
597.715	0.35
598.052	0.35
598.389	0.35
598.726	0.35
599.064	0.35
599.401	0.35
599.738	0.35
600.074	0.35
600.411	0.35
600.748	0.34
601.085	0.34
601.422	0.34
601.758	0.34
602.095	0.34
602.432	0.34
602.768	0.35
603.105	0.35
603.441	0.35
603.777	0.35
604.114	0.35
604.45	0.35
604.786	0.35
605.122	0.35
605.459	0.35
605.795	0.35
606.131	0.35
606.467	0.35
606.803	0.34
607.139	0.34
607.474	0.34
607.81	0.34
608.146	0.34
608.482	0.34
608.817	0.34
609.153	0.34
609.488	0.34
609.824	0.34
610.159	0.34
610.495	0.34
610.83	0.34
611.165	0.34
611.5	0.34
611.836	0.34
612.171	0.34
612.506	0.33
612.841	0.33
613.176	0.33
613.511	0.33
613.845	0.33
614.18	0.33
614.515	0.33
614.85	0.33
615.184	0.33
615.519	0.33
615.854	0.33
616.188	0.32
616.523	0.32
616.857	0.32
617.191	0.32
617.526	0.32
617.86	0.32
618.194	0.32
618.528	0.32
618.862	0.32
619.196	0.32
619.53	0.32
619.864	0.31
620.198	0.31
620.532	0.31
620.866	0.31
621.2	0.31
621.533	0.31
621.867	0.31
622.201	0.31
622.534	0.31
622.868	0.31
623.201	0.3
623.534	0.3
623.868	0.3
624.201	0.3
624.534	0.3
624.868	0.3
625.201	0.3
625.534	0.3
625.867	0.29
626.2	0.29
626.533	0.29
626.865	0.29
627.198	0.29
627.531	0.29
627.864	0.28
628.196	0.28
628.529	0.28
628.862	0.28
629.194	0.28
629.527	0.28
629.859	0.28
630.191	0.28
630.524	0.27
630.856	0.27
631.188	0.27
631.52	0.27
631.852	0.27
632.184	0.27
632.516	0.27
632.848	0.27
633.18	0.26
633.512	0.26
633.844	0.26
634.175	0.26
634.507	0.26
634.839	0.25
635.17	0.25
635.502	0.25
635.833	0.25
636.165	0.25
636.496	0.25
636.827	0.25
637.159	0.24
637.49	0.24
637.821	0.24
638.152	0.24
638.483	0.24
638.814	0.23
639.145	0.23
639.476	0.23
639.807	0.23
640.137	0.23
640.468	0.22
640.799	0.22
641.129	0.22
641.46	0.22
641.791	0.22
642.121	0.22
642.451	0.22
642.782	0.22
643.112	0.22
643.442	0.22
643.773	0.21
644.103	0.21
644.433	0.21
644.763	0.21
645.093	0.21
645.423	0.2
645.753	0.2
646.082	0.2
646.412	0.2
646.742	0.2
647.072	0.2
647.401	0.2
647.731	0.19
648.06	0.19
648.39	0.19
648.719	0.19
649.048	0.19
649.378	0.19
649.707	0.19
650.036	0.19
650.365	0.19
650.694	0.19
651.023	0.19
651.352	0.19
651.681	0.19
652.01	0.19
652.339	0.19
652.668	0.19
652.996	0.19
653.325	0.18
653.654	0.18
653.982	0.18
654.311	0.18
654.639	0.18
654.967	0.18
655.296	0.18
655.624	0.18
655.952	0.18
656.28	0.18
656.609	0.16
656.937	0.13
657.265	0.1
657.593	0.07
657.92	0.05
658.248	0.05
658.576	0.05
658.904	0.06
659.231	0.08
659.559	0.11
659.887	0.14
660.214	0.16
660.542	0.18
660.869	0.18
661.196	0.18
661.524	0.18
661.851	0.18
662.178	0.17
662.505	0.17
662.832	0.17
663.159	0.17
663.486	0.17
663.813	0.17
664.14	0.17
664.467	0.17
664.794	0.16
665.12	0.16
665.447	0.16
665.774	0.16
666.1	0.16
666.427	0.16
666.753	0.16
667.079	0.16
667.406	0.16
667.732	0.16
668.058	0.16
668.384	0.16
668.71	0.16
669.036	0.15
669.362	0.15
669.688	0.15
670.014	0.15
670.34	0.15
670.666	0.15
670.991	0.15
671.317	0.15
671.643	0.15
671.968	0.15
672.294	0.14
672.619	0.14
672.945	0.14
673.27	0.14
673.595	0.14
673.92	0.14
674.246	0.13
674.571	0.13
674.896	0.13
675.221	0.13
675.546	0.13
675.87	0.13
676.195	0.13
676.52	0.13
676.845	0.12
677.169	0.12
677.494	0.12
677.819	0.12
678.143	0.12
678.468	0.12
678.792	0.12
679.116	0.12
679.44	0.12
679.765	0.12
680.089	0.11
680.413	0.11
680.737	0.11
681.061	0.11
681.385	0.11
681.709	0.11
682.033	0.11
682.356	0.11
682.68	0.1
683.004	0.1
683.327	0.1
683.651	0.1
683.974	0.1
684.298	0.1
684.621	0.1
684.944	0.1
685.268	0.1
685.591	0.09
685.914	0.09
686.237	0.09
686.56	0.09
686.883	0.08
687.206	0.08
687.529	0.08
687.852	0.08
688.175	0.08
688.497	0.08
688.82	0.08
689.142	0.08
689.465	0.08
689.787	0.08
690.11	0.07
690.432	0.08
690.755	0.08
691.077	0.07
691.399	0.07
691.721	0.07
692.043	0.07
692.365	0.07
692.687	0.07
693.009	0.07
693.331	0.07
693.653	0.06
693.974	0.06
694.296	0.06
694.618	0.06
694.939	0.06
695.261	0.06
695.582	0.06
695.904	0.06
696.225	0.06
696.546	0.06
696.868	0.06
697.189	0.06
697.51	0.05
697.831	0.05
698.152	0.05
698.473	0.05
698.794	0.04
699.114	0.04
699.435	0.04
699.756	0.04
700.077	0.04
700.397	0.04
700.718	0.04
701.038	0.05
701.359	0.05
701.679	0.05
701.999	0.05
702.32	0.05
702.64	0.05
702.96	0.05
703.28	0.04
703.6	0.04
703.92	0.04
704.24	0.04
704.56	0.04
704.879	0.04
705.199	0.04
705.519	0.04
705.838	0.04
706.158	0.04
706.478	0.04
706.797	0.04
707.116	0.04
707.436	0.04
707.755	0.04
708.074	0.03
708.393	0.03
708.712	0.03
709.031	0.02
709.35	0.02
709.669	0.02
709.988	0.02
710.307	0.02
710.626	0.03
710.944	0.03
711.263	0.03
711.582	0.03
711.9	0.03
712.219	0.03
712.537	0.03
712.855	0.03
713.174	0.03
713.492	0.03
713.81	0.03
714.128	0.03
714.446	0.03
714.764	0.03
715.082	0.03
715.4	0.03
715.718	0.03
716.035	0.03
716.353	0.03
716.671	0.03
716.988	0.03
717.306	0.04
717.623	0.04
717.941	0.04
718.258	0.04
718.575	0.04
718.893	0.04
719.21	0.04
719.527	0.04
719.844	0.04
720.161	0.04
720.478	0.04
720.795	0.04
721.112	0.04
721.428	0.04
721.745	0.04
722.062	0.04
722.378	0.04
722.695	0.04
723.011	0.04
723.328	0.04
723.644	0.04
723.96	0.04
724.276	0.04
724.593	0.04
724.909	0.04
725.225	0.04
725.541	0.04
725.857	0.04
726.173	0.04
726.488	0.04
726.804	0.05
727.12	0.05
727.435	0.05
727.751	0.05
728.067	0.05
728.382	0.05
728.697	0.05
729.013	0.05
729.328	0.05
729.643	0.05
729.958	0.05
730.273	0.04
730.588	0.04
730.903	0.04
731.218	0.04
731.533	0.04
731.848	0.04
732.163	0.04
732.477	0.04
732.792	0.04
733.107	0.04
733.421	0.04
733.736	0.04
734.05	0.04
734.364	0.04
734.678	0.04
734.993	0.04
735.307	0.04
735.621	0.04
735.935	0.04
736.249	0.04
736.563	0.04
736.877	0.04
737.19	0.04
737.504	0.04
737.818	0.04
738.131	0.04
738.445	0.04
738.758	0.04
739.072	0.04
739.385	0.04
739.698	0.04
740.012	0.04
740.325	0.04
740.638	0.04
740.951	0.04
741.264	0.04
741.577	0.04
741.89	0.04
742.203	0.04
742.515	0.04
742.828	0.04
743.141	0.04
743.453	0.04
743.766	0.04
744.078	0.04
744.391	0.04
744.703	0.04
745.015	0.04
745.327	0.04
745.639	0.03
745.952	0.03
746.264	0.03
746.575	0.03
746.887	0.03
747.199	0.03
747.511	0.03
747.823	0.03
748.134	0.03
748.446	0.03
748.757	0.03
749.069	0.03
749.38	0.03
749.692	0.03
750.003	0.03
750.314	0.03
750.625	0.02
750.936	0.02
751.248	0.02
751.559	0.02
751.869	0.02
752.18	0.02
752.491	0.03
752.802	0.03
753.112	0.03
753.423	0.03
753.734	0.03
754.044	0.03
754.355	0.03
754.665	0.02
754.975	0.02
755.285	0.02
755.596	0.02
755.906	0.02
756.216	0.02
756.526	0.02
756.836	0.02
757.146	0.02
757.455	0.02
757.765	0.01
758.075	0.01
758.385	0.01
758.694	0.01
759.004	0.01
759.313	0.01
759.622	0.01
759.932	0.01
760.241	0.01
760.55	0.01
760.859	0.01
761.168	0.01
761.477	0.01
761.786	0.01
762.095	0.01
762.404	0.01
762.713	0.01
763.021	0.01
763.33	0.02
763.639	0.02
763.947	0.02
764.256	0.02
764.564	0.02
764.872	0.01
765.181	0.01
765.489	0.01
765.797	0.01
766.105	0.01
766.413	0.01
766.721	0.01
767.029	0.01
767.337	0.02
767.644	0.02
767.952	0.02
768.26	0.02
768.567	0.02
768.875	0.02
769.182	0.02
769.49	0.02
769.797	0.02
770.104	0.02
770.411	0.02
770.718	0.02
771.026	0.02
771.333	0.02
771.639	0.02
771.946	0.02
772.253	0.02
772.56	0.02
772.867	0.02
773.173	0.02
773.48	0.02
773.786	0.02
774.093	0.02
774.399	0.02
774.705	0.02
775.012	0.02
775.318	0.02
775.624	0.02
775.93	0.02
776.236	0.02
776.542	0.02
776.848	0.02
777.154	0.02
777.459	0.02
777.765	0.02
778.071	0.01
778.376	0.01
778.682	0.01
778.987	0.01
779.292	0.01
779.598	0.01
779.903	0.01
780.208	0.01
780.513	0.01
780.818	0.01
781.123	0.02
781.428	0.01
781.733	0.01
782.038	0.01
782.343	0.01
782.647	0.01
782.952	0.01
783.256	0.01
783.561	0.02
783.865	0.02
784.17	0.02
784.474	0.02
784.778	0.02
785.082	0.02
785.386	0.02
785.69	0.02
785.994	0.02
786.298	0.01
786.602	0.01
786.906	0.01
787.209	0.01
787.513	0.01
787.817	0.01
788.12	0.01
788.424	0.01
788.727	0.01
789.03	0.02
789.333	0.02
789.637	0.02
789.94	0.02
790.243	0.02
790.546	0.02
790.849	0.02
791.152	0.02
791.454	0.02
791.757	0.02
792.06	0.02
792.362	0.02
792.665	0.02
792.967	0.02
793.27	0.01
793.572	0.01
793.874	0.01
794.177	0.02
794.479	0.01
794.781	0.02
795.083	0.02
795.385	0.02
795.687	0.02
795.989	0.02
796.29	0.02
796.592	0.02
796.894	0.02
797.195	0.02
797.497	0.02
797.798	0.02
798.1	0.02
798.401	0.02
798.702	0.02
799.003	0.02
799.304	0.02
799.605	0.02
799.906	0.02
800.207	0.02
800.508	0.02
800.809	0.02
801.11	0.02
801.41	0.02
801.711	0.02
802.011	0.02
802.312	0.02
802.612	0.02
802.913	0.02
803.213	0.02
803.513	0.02
803.813	0.02
804.113	0.01
804.413	0.02
804.713	0.01
805.013	0.02
805.313	0.02
805.613	0.02
805.912	0.02
806.212	0.02
806.511	0.02
806.811	0.02
807.11	0.02
807.41	0.02
807.709	0.02
808.008	0.02
808.307	0.02
808.606	0.02
808.905	0.02
809.204	0.02
809.503	0.02
809.802	0.02
810.101	0.02
810.399	0.02
810.698	0.02
810.997	0.02
811.295	0.02
811.593	0.02
811.892	0.02
812.19	0.02
812.488	0.02
812.786	0.02
813.084	0.02
813.383	0.03
813.68	0.03
813.978	0.03
814.276	0.03
814.574	0.03
814.872	0.03
815.169	0.03
815.467	0.03
815.764	0.03
816.062	0.03
816.359	0.03
816.656	0.03
816.954	0.03
817.251	0.03
817.548	0.03
817.845	0.03
818.142	0.03
818.439	0.03
818.735	0.03
819.032	0.03
819.329	0.03
819.626	0.03
819.922	0.03
820.219	0.03
820.515	0.03
820.811	0.03
821.108	0.03
821.404	0.03
821.7	0.03
821.996	0.03
822.292	0.03
822.588	0.03
822.884	0.03
823.18	0.03
823.475	0.03
823.771	0.02
824.067	0.03
824.362	0.03
824.658	0.02
824.953	0.02
825.249	0.02
825.544	0.03
825.839	0.03
826.134	0.03
826.429	0.03
826.724	0.03
827.019	0.03
827.314	0.03
827.609	0.03
827.904	0.03
828.198	0.03
828.493	0.03
828.787	0.03
829.082	0.03
829.376	0.03
829.671	0.03
829.965	0.03
830.259	0.03
830.553	0.03
830.847	0.03
831.141	0.04
831.435	0.04
831.729	0.04
832.023	0.04
832.317	0.04
832.61	0.04
832.904	0.04
833.197	0.04
833.491	0.04
833.784	0.04
834.077	0.04
834.371	0.04
834.664	0.04
834.957	0.04
835.25	0.04
835.543	0.04
835.836	0.04
836.129	0.04
836.421	0.04
836.714	0.04
837.007	0.04
837.299	0.04
837.592	0.04
837.884	0.04
838.177	0.04
838.469	0.03
838.761	0.03
839.053	0.03
839.345	0.03
839.637	0.03
839.929	0.03
840.221	0.03
840.513	0.03
840.805	0.03
841.096	0.03
841.388	0.03
841.68	0.03
841.971	0.03
842.262	0.03
842.554	0.04
842.845	0.04
843.136	0.04
843.427	0.04
843.718	0.04
844.009	0.04
844.3	0.04
844.591	0.04
844.882	0.05
845.173	0.05
845.463	0.05
845.754	0.05
846.044	0.05
846.335	0.05
846.625	0.05
846.915	0.05
847.206	0.05
847.496	0.05
847.786	0.04
848.076	0.04
848.366	0.05
848.656	0.05
848.945	0.04
849.235	0.04
849.525	0.04
849.814	0.05
850.104	0.05
850.393	0.04
850.683	0.04
850.972	0.04
851.261	0.04
851.551	0.04
851.84	0.04
852.129	0.04
852.418	0.04
852.707	0.05
852.995	0.04
853.284	0.04
853.573	0.04
853.862	0.04
854.15	0.04
854.439	0.04
854.727	0.04
855.015	0.04
855.304	0.05
855.592	0.05
855.88	0.05
856.168	0.05
856.456	0.05
856.744	0.05
857.032	0.05
857.32	0.05
857.607	0.05
857.895	0.05
858.183	0.05
858.47	0.05
858.757	0.05
859.045	0.05
859.332	0.04
859.619	0.04
859.907	0.04
860.194	0.04
860.481	0.04
860.768	0.04
861.054	0.04
861.341	0.04
861.628	0.04
861.915	0.04
862.201	0.04
862.488	0.05
862.774	0.05
863.061	0.05
863.347	0.05
863.633	0.05
863.919	0.04
864.205	0.04
864.491	0.03
864.777	0.03
865.063	0.02
865.349	0.01
865.635	0.01
865.92	0.02
866.206	0.03
866.492	0.02
866.777	0.02
867.062	0.02
867.348	0.03
867.633	0.03
867.918	0.02
868.203	0.02
868.488	0.02
868.773	0.02
869.058	0.02
869.343	0.03
869.628	0.02
869.912	0.02
870.197	0.02
870.482	0.03
870.766	0.02
871.05	0.01
871.335	0.02
871.619	0.02
871.903	0.02
872.187	0.01
872.471	0.01
872.755	0
873.039	0
873.323	-0
873.607	-0.01
873.89	-0.01
874.174	0.01
874.458	0.01
874.741	0.02
875.024	0.03
875.308	0.03
875.591	0.04
875.874	0.02
876.157	0.01
876.44	0.01
876.723	0.01
877.006	0.02
877.289	0.01
877.572	0
877.854	0.02
878.137	0.01
878.42	-0.01
878.702	-0.03
878.984	-0.06
879.267	-0.05
879.549	-0.05
879.831	-0.07
880.113	-0.07
880.395	-0.06
880.677	-0.05
880.959	-0.03
