Data from Rubpy_BV_300_EDTA_Buffered_Absorbance_12-15-36-710.txt Node
Date: Wed Jul 01 12:15:36 BST 2026
User: fpm-admin
Spectrometer: OFX00224
Trigger mode: 0
Integration Time (sec): 7.000000E-2
Scans to average: 1
Nonlinearity correction enabled: false
Boxcar width: 3
Storing dark spectrum: false
XAxis mode: Wavelengths
Number of Pixels in Spectrum: 2136
>>>>>Begin Spectral Data<<<<<
154.91	-0.05
155.289	-0.04
155.669	-0.26
156.048	-0.22
156.428	-0.44
156.807	-0.16
157.186	-0
157.566	0.15
157.945	0.13
158.325	0.01
158.704	0.13
159.083	0.19
159.462	0.17
159.842	0.26
160.221	0.89
160.6	-0
160.979	-0.3
161.359	0.03
161.738	0.9
162.117	-0.85
162.496	0.7
162.875	-0.14
163.254	0.19
163.633	-0
164.012	-0
164.391	-0
164.77	-0.09
165.149	-0.3
165.528	-0.53
165.907	-0.35
166.286	-0.45
166.665	-0.12
167.044	0.3
167.423	-0.78
167.802	-0
168.181	-0
168.559	0.05
168.938	0.01
169.317	0.11
169.696	0.26
170.074	0.26
170.453	0.33
170.832	0.27
171.21	0.24
171.589	0.42
171.968	0.51
172.346	0.22
172.725	0.51
173.103	0.15
173.482	1.2
173.861	-0
174.239	-0
174.617	-0
174.996	-0
175.374	0.94
175.753	-0
176.131	1.13
176.51	0.22
176.888	0.06
177.266	0.53
177.645	0.93
178.023	1.53
178.401	0.56
178.779	0.19
179.158	-0
179.536	-0
179.914	-0
180.292	-0
180.67	-0.2
181.048	-0.14
181.427	-0.45
181.805	-0
182.183	-1.15
182.561	-0
182.939	0.07
183.317	0.18
183.695	0.36
184.073	0.08
184.451	-0
184.829	-0
185.206	-0.03
185.584	-0.35
185.962	-0.19
186.34	-0.06
186.718	-0.03
187.096	0.06
187.473	0.11
187.851	0.14
188.229	0.15
188.607	0.14
188.984	0.13
189.362	0.12
189.74	0.13
190.117	0.12
190.495	0.12
190.872	0.11
191.25	0.11
191.627	0.08
192.005	0.09
192.382	0.09
192.76	0.12
193.137	0.11
193.515	0.09
193.892	0.09
194.269	0.12
194.647	0.12
195.024	0.12
195.401	0.11
195.779	0.14
196.156	0.17
196.533	0.16
196.91	0.14
197.288	0.16
197.665	0.14
198.042	0.16
198.419	0.13
198.796	0.14
199.173	0.13
199.55	0.15
199.927	0.11
200.304	0.12
200.681	0.12
201.058	0.13
201.435	0.11
201.812	0.12
202.189	0.11
202.566	0.14
202.943	0.16
203.32	0.17
203.697	0.16
204.073	0.17
204.45	0.19
204.827	0.18
205.204	0.15
205.58	0.13
205.957	0.13
206.334	0.13
206.71	0.12
207.087	0.13
207.464	0.13
207.84	0.13
208.217	0.11
208.593	0.09
208.97	0.07
209.346	0.09
209.723	0.08
210.099	0.11
210.476	0.12
210.852	0.14
211.228	0.16
211.605	0.17
211.981	0.19
212.357	0.2
212.733	0.18
213.11	0.19
213.486	0.21
213.862	0.2
214.238	0.22
214.614	0.21
214.991	0.18
215.367	0.18
215.743	0.17
216.119	0.12
216.495	0.08
216.871	0.05
217.247	-0
217.623	0
217.999	-0.02
218.375	-0.01
218.751	-0.01
219.127	0.01
219.502	0.03
219.878	0.05
220.254	0.03
220.63	0.02
221.006	0.01
221.381	0.01
221.757	0.03
222.133	0.04
222.508	0.1
222.884	0.12
223.26	0.14
223.635	0.17
224.011	0.18
224.386	0.17
224.762	0.17
225.137	0.13
225.513	0.14
225.888	0.14
226.264	0.12
226.639	0.13
227.014	0.11
227.39	0.14
227.765	0.13
228.14	0.14
228.516	0.15
228.891	0.15
229.266	0.13
229.641	0.14
230.017	0.13
230.392	0.13
230.767	0.11
231.142	0.1
231.517	0.12
231.892	0.11
232.267	0.13
232.642	0.13
233.017	0.11
233.392	0.1
233.767	0.07
234.142	0.06
234.517	0.08
234.892	0.04
235.267	0.03
235.641	0.07
236.016	0.09
236.391	0.11
236.766	0.09
237.14	0.08
237.515	0.08
237.89	0.1
238.264	0.09
238.639	0.1
239.014	0.12
239.388	0.14
239.763	0.16
240.137	0.18
240.512	0.19
240.886	0.17
241.261	0.16
241.635	0.14
242.009	0.17
242.384	0.15
242.758	0.14
243.132	0.14
243.507	0.14
243.881	0.16
244.255	0.18
244.629	0.16
245.004	0.15
245.378	0.16
245.752	0.15
246.126	0.16
246.5	0.16
246.874	0.15
247.248	0.15
247.622	0.16
247.996	0.15
248.37	0.14
248.744	0.11
249.118	0.1
249.492	0.1
249.866	0.11
250.24	0.12
250.613	0.14
250.987	0.16
251.361	0.18
251.735	0.19
252.108	0.17
252.482	0.15
252.856	0.14
253.229	0.12
253.603	0.08
253.977	0.06
254.35	0.08
254.724	0.08
255.097	0.08
255.471	0.07
255.844	0.08
256.218	0.09
256.591	0.11
256.964	0.11
257.338	0.12
257.711	0.12
258.084	0.13
258.458	0.13
258.831	0.15
259.204	0.14
259.577	0.11
259.95	0.09
260.323	0.1
260.697	0.1
261.07	0.1
261.443	0.1
261.816	0.08
262.189	0.07
262.562	0.08
262.935	0.08
263.308	0.06
263.68	0.05
264.053	0.03
264.426	0.02
264.799	0.04
265.172	0.03
265.545	0.02
265.917	0.01
266.29	0
266.663	0.01
267.035	0.01
267.408	-0.01
267.781	0.01
268.153	0.01
268.526	0.03
268.898	0.06
269.271	0.07
269.643	0.08
270.016	0.09
270.388	0.08
270.76	0.09
271.133	0.1
271.505	0.09
271.877	0.11
272.25	0.12
272.622	0.14
272.994	0.15
273.366	0.14
273.739	0.13
274.111	0.12
274.483	0.11
274.855	0.11
275.227	0.11
275.599	0.1
275.971	0.12
276.343	0.14
276.715	0.17
277.087	0.19
277.459	0.18
277.831	0.2
278.203	0.21
278.574	0.2
278.946	0.18
279.318	0.16
279.69	0.15
280.061	0.16
280.433	0.15
280.805	0.14
281.176	0.15
281.548	0.16
281.92	0.17
282.291	0.17
282.663	0.17
283.034	0.17
283.406	0.17
283.777	0.18
284.148	0.19
284.52	0.2
284.891	0.19
285.262	0.18
285.634	0.17
286.005	0.16
286.376	0.15
286.747	0.14
287.119	0.15
287.49	0.14
287.861	0.14
288.232	0.15
288.603	0.16
288.974	0.16
289.345	0.15
289.716	0.14
290.087	0.15
290.458	0.16
290.829	0.17
291.2	0.17
291.571	0.16
291.941	0.17
292.312	0.15
292.683	0.15
293.054	0.14
293.424	0.14
293.795	0.13
294.166	0.15
294.536	0.14
294.907	0.15
295.277	0.17
295.648	0.16
296.018	0.16
296.389	0.15
296.759	0.15
297.13	0.14
297.5	0.15
297.871	0.13
298.241	0.12
298.611	0.13
298.981	0.12
299.352	0.11
299.722	0.11
300.092	0.08
300.462	0.06
300.832	0.06
301.202	0.04
301.573	0.03
301.943	0.04
302.313	0.03
302.683	0.03
303.053	0.03
303.422	0.03
303.792	0.03
304.162	0.03
304.532	0.03
304.902	0.04
305.272	0.03
305.641	0.03
306.011	0.03
306.381	0.03
306.75	0.04
307.12	0.04
307.49	0.04
307.859	0.05
308.229	0.05
308.598	0.06
308.968	0.07
309.337	0.07
309.707	0.07
310.076	0.07
310.445	0.07
310.815	0.07
311.184	0.08
311.553	0.08
311.923	0.08
312.292	0.09
312.661	0.09
313.03	0.09
313.399	0.1
313.768	0.1
314.137	0.1
314.506	0.1
314.875	0.11
315.244	0.11
315.613	0.11
315.982	0.12
316.351	0.12
316.72	0.12
317.089	0.13
317.458	0.13
317.826	0.13
318.195	0.13
318.564	0.13
318.933	0.14
319.301	0.14
319.67	0.14
320.038	0.14
320.407	0.15
320.775	0.15
321.144	0.15
321.512	0.15
321.881	0.15
322.249	0.16
322.618	0.16
322.986	0.16
323.354	0.16
323.723	0.17
324.091	0.17
324.459	0.17
324.827	0.17
325.195	0.17
325.564	0.17
325.932	0.18
326.3	0.18
326.668	0.18
327.036	0.18
327.404	0.19
327.772	0.19
328.14	0.2
328.508	0.2
328.875	0.2
329.243	0.21
329.611	0.21
329.979	0.22
330.346	0.22
330.714	0.22
331.082	0.22
331.449	0.23
331.817	0.23
332.185	0.23
332.552	0.24
332.92	0.24
333.287	0.24
333.655	0.25
334.022	0.26
334.389	0.26
334.757	0.27
335.124	0.27
335.491	0.27
335.859	0.28
336.226	0.29
336.593	0.29
336.96	0.29
337.327	0.3
337.695	0.31
338.062	0.31
338.429	0.32
338.796	0.33
339.163	0.33
339.53	0.34
339.897	0.34
340.263	0.35
340.63	0.35
340.997	0.36
341.364	0.36
341.731	0.37
342.097	0.38
342.464	0.39
342.831	0.39
343.197	0.4
343.564	0.41
343.931	0.41
344.297	0.42
344.664	0.43
345.03	0.43
345.396	0.44
345.763	0.45
346.129	0.45
346.496	0.46
346.862	0.47
347.228	0.47
347.594	0.48
347.961	0.49
348.327	0.49
348.693	0.5
349.059	0.51
349.425	0.51
349.791	0.52
350.157	0.53
350.523	0.54
350.889	0.54
351.255	0.55
351.621	0.56
351.987	0.56
352.353	0.57
352.719	0.58
353.084	0.58
353.45	0.59
353.816	0.6
354.181	0.6
354.547	0.61
354.913	0.62
355.278	0.63
355.644	0.63
356.009	0.64
356.375	0.65
356.74	0.66
357.106	0.67
357.471	0.68
357.836	0.68
358.202	0.69
358.567	0.7
358.932	0.71
359.297	0.72
359.663	0.73
360.028	0.74
360.393	0.76
360.758	0.77
361.123	0.78
361.488	0.79
361.853	0.8
362.218	0.81
362.583	0.82
362.948	0.83
363.312	0.84
363.677	0.85
364.042	0.86
364.407	0.87
364.772	0.88
365.136	0.88
365.501	0.89
365.865	0.9
366.23	0.91
366.595	0.91
366.959	0.92
367.324	0.93
367.688	0.94
368.052	0.95
368.417	0.96
368.781	0.96
369.145	0.98
369.51	0.98
369.874	0.99
370.238	1
370.602	1.01
370.967	1.01
371.331	1.02
371.695	1.02
372.059	1.02
372.423	1.03
372.787	1.03
373.151	1.03
373.515	1.03
373.878	1.03
374.242	1.02
374.606	1.01
374.97	1.01
375.334	1
375.697	0.99
376.061	0.98
376.425	0.97
376.788	0.96
377.152	0.96
377.515	0.95
377.879	0.94
378.242	0.93
378.606	0.92
378.969	0.91
379.333	0.9
379.696	0.88
380.059	0.87
380.422	0.86
380.786	0.86
381.149	0.85
381.512	0.84
381.875	0.83
382.238	0.82
382.601	0.82
382.964	0.81
383.327	0.8
383.69	0.79
384.053	0.79
384.416	0.79
384.779	0.78
385.142	0.78
385.504	0.77
385.867	0.77
386.23	0.77
386.593	0.77
386.955	0.77
387.318	0.77
387.68	0.77
388.043	0.76
388.405	0.76
388.768	0.76
389.13	0.76
389.493	0.76
389.855	0.76
390.217	0.75
390.58	0.75
390.942	0.74
391.304	0.74
391.666	0.73
392.028	0.72
392.391	0.71
392.753	0.7
393.115	0.7
393.477	0.69
393.839	0.68
394.201	0.68
394.563	0.68
394.924	0.68
395.286	0.68
395.648	0.68
396.01	0.69
396.371	0.7
396.733	0.71
397.095	0.72
397.456	0.73
397.818	0.74
398.18	0.76
398.541	0.78
398.903	0.79
399.264	0.81
399.625	0.83
399.987	0.85
400.348	0.87
400.709	0.88
401.071	0.89
401.432	0.89
401.793	0.89
402.154	0.89
402.515	0.88
402.876	0.86
403.238	0.85
403.599	0.83
403.96	0.8
404.32	0.78
404.681	0.75
405.042	0.72
405.403	0.69
405.764	0.65
406.125	0.62
406.485	0.59
406.846	0.56
407.207	0.53
407.567	0.5
407.928	0.47
408.288	0.45
408.649	0.42
409.009	0.4
409.37	0.37
409.73	0.35
410.091	0.33
410.451	0.31
410.811	0.3
411.171	0.28
411.532	0.27
411.892	0.25
412.252	0.24
412.612	0.23
412.972	0.22
413.332	0.21
413.692	0.2
414.052	0.19
414.412	0.18
414.772	0.17
415.132	0.17
415.492	0.16
415.851	0.16
416.211	0.15
416.571	0.15
416.931	0.14
417.29	0.14
417.65	0.13
418.009	0.13
418.369	0.13
418.728	0.12
419.088	0.12
419.447	0.12
419.807	0.11
420.166	0.11
420.525	0.1
420.884	0.1
421.244	0.1
421.603	0.09
421.962	0.09
422.321	0.09
422.68	0.09
423.039	0.09
423.398	0.09
423.757	0.09
424.116	0.09
424.475	0.09
424.834	0.09
425.193	0.09
425.551	0.09
425.91	0.08
426.269	0.08
426.628	0.08
426.986	0.08
427.345	0.07
427.703	0.08
428.062	0.07
428.42	0.07
428.779	0.07
429.137	0.07
429.496	0.07
429.854	0.07
430.212	0.06
430.57	0.06
430.929	0.06
431.287	0.06
431.645	0.06
432.003	0.07
432.361	0.07
432.719	0.07
433.077	0.07
433.435	0.07
433.793	0.07
434.151	0.07
434.509	0.06
434.866	0.06
435.224	0.06
435.582	0.06
435.94	0.06
436.297	0.07
436.655	0.07
437.012	0.07
437.37	0.07
437.727	0.06
438.085	0.06
438.442	0.06
438.8	0.06
439.157	0.06
439.514	0.06
439.872	0.06
440.229	0.06
440.586	0.06
440.943	0.06
441.3	0.06
441.657	0.06
442.014	0.06
442.371	0.06
442.728	0.06
443.085	0.06
443.442	0.06
443.799	0.06
444.156	0.06
444.513	0.06
444.869	0.06
445.226	0.06
445.583	0.06
445.939	0.06
446.296	0.06
446.652	0.06
447.009	0.06
447.365	0.06
447.722	0.06
448.078	0.06
448.434	0.06
448.791	0.06
449.147	0.06
449.503	0.06
449.859	0.06
450.215	0.06
450.571	0.06
450.928	0.06
451.284	0.06
451.64	0.06
451.995	0.06
452.351	0.06
452.707	0.07
453.063	0.07
453.419	0.07
453.775	0.07
454.13	0.06
454.486	0.06
454.842	0.06
455.197	0.06
455.553	0.06
455.908	0.06
456.264	0.06
456.619	0.06
456.975	0.06
457.33	0.06
457.685	0.06
458.04	0.05
458.396	0.05
458.751	0.05
459.106	0.05
459.461	0.05
459.816	0.04
460.171	0.04
460.526	0.04
460.881	0.04
461.236	0.04
461.591	0.04
461.946	0.04
462.301	0.04
462.655	0.04
463.01	0.04
463.365	0.05
463.719	0.04
464.074	0.04
464.428	0.04
464.783	0.04
465.137	0.03
465.492	0.03
465.846	0.03
466.201	0.03
466.555	0.03
466.909	0.03
467.263	0.04
467.618	0.04
467.972	0.04
468.326	0.04
468.68	0.04
469.034	0.04
469.388	0.04
469.742	0.04
470.096	0.04
470.45	0.04
470.804	0.05
471.157	0.05
471.511	0.05
471.865	0.05
472.218	0.05
472.572	0.06
472.926	0.06
473.279	0.06
473.633	0.06
473.986	0.06
474.34	0.07
474.693	0.07
475.046	0.07
475.4	0.08
475.753	0.08
476.106	0.09
476.459	0.09
476.812	0.1
477.165	0.1
477.519	0.11
477.872	0.11
478.224	0.12
478.577	0.12
478.93	0.12
479.283	0.13
479.636	0.13
479.989	0.13
480.341	0.13
480.694	0.14
481.047	0.14
481.399	0.14
481.752	0.14
482.104	0.15
482.457	0.15
482.809	0.15
483.162	0.16
483.514	0.16
483.866	0.17
484.219	0.17
484.571	0.17
484.923	0.17
485.275	0.17
485.627	0.17
485.979	0.17
486.331	0.17
486.683	0.17
487.035	0.18
487.387	0.18
487.739	0.19
488.091	0.19
488.443	0.19
488.794	0.2
489.146	0.2
489.498	0.21
489.849	0.21
490.201	0.21
490.552	0.21
490.904	0.21
491.255	0.22
491.607	0.22
491.958	0.22
492.309	0.22
492.661	0.22
493.012	0.23
493.363	0.23
493.714	0.23
494.065	0.23
494.416	0.23
494.767	0.24
495.118	0.24
495.469	0.24
495.82	0.24
496.171	0.24
496.522	0.25
496.872	0.25
497.223	0.25
497.574	0.25
497.924	0.25
498.275	0.26
498.626	0.26
498.976	0.26
499.327	0.27
499.677	0.27
500.027	0.27
500.378	0.27
500.728	0.27
501.078	0.27
501.428	0.28
501.779	0.28
502.129	0.28
502.479	0.28
502.829	0.28
503.179	0.29
503.529	0.29
503.879	0.29
504.229	0.29
504.578	0.3
504.928	0.3
505.278	0.3
505.628	0.3
505.977	0.3
506.327	0.31
506.676	0.31
507.026	0.31
507.375	0.31
507.725	0.31
508.074	0.32
508.424	0.32
508.773	0.32
509.122	0.32
509.471	0.32
509.82	0.32
510.17	0.33
510.519	0.33
510.868	0.33
511.217	0.33
511.566	0.33
511.915	0.34
512.263	0.34
512.612	0.34
512.961	0.34
513.31	0.35
513.659	0.35
514.007	0.35
514.356	0.35
514.704	0.35
515.053	0.36
515.401	0.36
515.75	0.36
516.098	0.36
516.447	0.36
516.795	0.36
517.143	0.36
517.491	0.37
517.839	0.37
518.188	0.37
518.536	0.37
518.884	0.37
519.232	0.37
519.58	0.38
519.928	0.38
520.275	0.38
520.623	0.38
520.971	0.38
521.319	0.38
521.666	0.39
522.014	0.39
522.362	0.39
522.709	0.39
523.057	0.39
523.404	0.39
523.752	0.39
524.099	0.4
524.446	0.4
524.794	0.4
525.141	0.4
525.488	0.4
525.835	0.4
526.182	0.41
526.529	0.41
526.876	0.41
527.223	0.41
527.57	0.41
527.917	0.41
528.264	0.41
528.611	0.41
528.958	0.41
529.304	0.41
529.651	0.41
529.998	0.42
530.344	0.42
530.691	0.42
531.037	0.42
531.384	0.42
531.73	0.42
532.076	0.43
532.423	0.43
532.769	0.43
533.115	0.43
533.461	0.43
533.807	0.43
534.154	0.43
534.5	0.43
534.846	0.43
535.192	0.43
535.537	0.43
535.883	0.43
536.229	0.43
536.575	0.44
536.921	0.44
537.266	0.44
537.612	0.44
537.957	0.44
538.303	0.44
538.649	0.45
538.994	0.44
539.339	0.44
539.685	0.45
540.03	0.45
540.375	0.45
540.721	0.45
541.066	0.45
541.411	0.45
541.756	0.45
542.101	0.45
542.446	0.45
542.791	0.45
543.136	0.45
543.481	0.45
543.825	0.46
544.17	0.46
544.515	0.46
544.86	0.46
545.204	0.46
545.549	0.46
545.893	0.46
546.238	0.46
546.582	0.46
546.927	0.46
547.271	0.46
547.615	0.47
547.96	0.47
548.304	0.47
548.648	0.46
548.992	0.46
549.336	0.47
549.68	0.47
550.024	0.47
550.368	0.47
550.712	0.47
551.056	0.47
551.4	0.47
551.743	0.47
552.087	0.47
552.431	0.47
552.774	0.47
553.118	0.47
553.462	0.47
553.805	0.47
554.148	0.47
554.492	0.47
554.835	0.47
555.178	0.47
555.522	0.47
555.865	0.47
556.208	0.47
556.551	0.47
556.894	0.47
557.237	0.47
557.58	0.48
557.923	0.48
558.266	0.47
558.609	0.47
558.952	0.47
559.294	0.47
559.637	0.47
559.98	0.47
560.322	0.47
560.665	0.47
561.007	0.47
561.35	0.47
561.692	0.47
562.034	0.47
562.377	0.47
562.719	0.47
563.061	0.47
563.403	0.47
563.745	0.47
564.088	0.47
564.43	0.47
564.772	0.47
565.113	0.47
565.455	0.47
565.797	0.47
566.139	0.47
566.481	0.46
566.822	0.46
567.164	0.46
567.506	0.46
567.847	0.46
568.189	0.46
568.53	0.46
568.872	0.46
569.213	0.46
569.554	0.46
569.895	0.45
570.237	0.45
570.578	0.45
570.919	0.45
571.26	0.45
571.601	0.45
571.942	0.45
572.283	0.44
572.624	0.44
572.965	0.44
573.306	0.44
573.646	0.44
573.987	0.44
574.328	0.44
574.668	0.44
575.009	0.44
575.349	0.44
575.69	0.43
576.03	0.43
576.37	0.43
576.711	0.43
577.051	0.43
577.391	0.43
577.731	0.43
578.072	0.43
578.412	0.42
578.752	0.42
579.092	0.41
579.431	0.4
579.771	0.4
580.111	0.4
580.451	0.4
580.791	0.4
581.13	0.41
581.47	0.42
581.81	0.42
582.149	0.41
582.489	0.4
582.828	0.38
583.167	0.37
583.507	0.37
583.846	0.36
584.185	0.37
584.525	0.37
584.864	0.39
585.203	0.4
585.542	0.41
585.881	0.41
586.22	0.41
586.559	0.4
586.898	0.4
587.236	0.4
587.575	0.4
587.914	0.4
588.252	0.4
588.591	0.4
588.93	0.41
589.268	0.41
589.607	0.41
589.945	0.41
590.283	0.41
590.622	0.42
590.96	0.42
591.298	0.42
591.636	0.42
591.974	0.42
592.313	0.42
592.651	0.42
592.989	0.42
593.326	0.42
593.664	0.42
594.002	0.41
594.34	0.41
594.678	0.41
595.015	0.41
595.353	0.41
595.691	0.41
596.028	0.41
596.366	0.41
596.703	0.42
597.04	0.42
597.378	0.42
597.715	0.42
598.052	0.42
598.389	0.42
598.726	0.42
599.064	0.42
599.401	0.42
599.738	0.42
600.074	0.41
600.411	0.41
600.748	0.41
601.085	0.41
601.422	0.41
601.758	0.41
602.095	0.41
602.432	0.41
602.768	0.41
603.105	0.42
603.441	0.42
603.777	0.42
604.114	0.42
604.45	0.42
604.786	0.42
605.122	0.42
605.459	0.42
605.795	0.41
606.131	0.41
606.467	0.41
606.803	0.41
607.139	0.41
607.474	0.41
607.81	0.41
608.146	0.41
608.482	0.4
608.817	0.4
609.153	0.4
609.488	0.4
609.824	0.4
610.159	0.4
610.495	0.4
610.83	0.4
611.165	0.4
611.5	0.4
611.836	0.4
612.171	0.4
612.506	0.4
612.841	0.4
613.176	0.39
613.511	0.39
613.845	0.39
614.18	0.39
614.515	0.39
614.85	0.39
615.184	0.39
615.519	0.38
615.854	0.38
616.188	0.38
616.523	0.38
616.857	0.38
617.191	0.38
617.526	0.38
617.86	0.38
618.194	0.38
618.528	0.38
618.862	0.38
619.196	0.38
619.53	0.37
619.864	0.37
620.198	0.37
620.532	0.37
620.866	0.37
621.2	0.36
621.533	0.36
621.867	0.36
622.201	0.36
622.534	0.36
622.868	0.36
623.201	0.36
623.534	0.36
623.868	0.35
624.201	0.35
624.534	0.35
624.868	0.35
625.201	0.35
625.534	0.35
625.867	0.34
626.2	0.34
626.533	0.34
626.865	0.34
627.198	0.33
627.531	0.33
627.864	0.33
628.196	0.33
628.529	0.33
628.862	0.33
629.194	0.33
629.527	0.33
629.859	0.32
630.191	0.32
630.524	0.32
630.856	0.32
631.188	0.32
631.52	0.32
631.852	0.32
632.184	0.31
632.516	0.31
632.848	0.31
633.18	0.31
633.512	0.31
633.844	0.31
634.175	0.3
634.507	0.3
634.839	0.3
635.17	0.3
635.502	0.3
635.833	0.29
636.165	0.29
636.496	0.29
636.827	0.28
637.159	0.28
637.49	0.28
637.821	0.28
638.152	0.28
638.483	0.28
638.814	0.27
639.145	0.27
639.476	0.27
639.807	0.27
640.137	0.27
640.468	0.26
640.799	0.26
641.129	0.26
641.46	0.26
641.791	0.26
642.121	0.26
642.451	0.25
642.782	0.25
643.112	0.25
643.442	0.25
643.773	0.25
644.103	0.25
644.433	0.24
644.763	0.24
645.093	0.24
645.423	0.24
645.753	0.24
646.082	0.24
646.412	0.24
646.742	0.23
647.072	0.23
647.401	0.23
647.731	0.23
648.06	0.23
648.39	0.23
648.719	0.22
649.048	0.22
649.378	0.22
649.707	0.22
650.036	0.22
650.365	0.22
650.694	0.22
651.023	0.22
651.352	0.22
651.681	0.22
652.01	0.22
652.339	0.22
652.668	0.22
652.996	0.22
653.325	0.21
653.654	0.21
653.982	0.21
654.311	0.21
654.639	0.21
654.967	0.21
655.296	0.21
655.624	0.21
655.952	0.21
656.28	0.21
656.609	0.19
656.937	0.15
657.265	0.11
657.593	0.08
657.92	0.06
658.248	0.06
658.576	0.06
658.904	0.08
659.231	0.1
659.559	0.13
659.887	0.17
660.214	0.19
660.542	0.21
660.869	0.21
661.196	0.21
661.524	0.2
661.851	0.2
662.178	0.2
662.505	0.2
662.832	0.2
663.159	0.2
663.486	0.2
663.813	0.2
664.14	0.2
664.467	0.19
664.794	0.19
665.12	0.19
665.447	0.19
665.774	0.19
666.1	0.19
666.427	0.19
666.753	0.19
667.079	0.18
667.406	0.18
667.732	0.18
668.058	0.18
668.384	0.18
668.71	0.18
669.036	0.18
669.362	0.18
669.688	0.18
670.014	0.17
670.34	0.17
670.666	0.17
670.991	0.17
671.317	0.17
671.643	0.17
671.968	0.17
672.294	0.16
672.619	0.16
672.945	0.16
673.27	0.16
673.595	0.16
673.92	0.16
674.246	0.16
674.571	0.16
674.896	0.16
675.221	0.16
675.546	0.15
675.87	0.15
676.195	0.15
676.52	0.15
676.845	0.14
677.169	0.14
677.494	0.14
677.819	0.14
678.143	0.14
678.468	0.14
678.792	0.14
679.116	0.13
679.44	0.13
679.765	0.13
680.089	0.13
680.413	0.13
680.737	0.13
681.061	0.13
681.385	0.12
681.709	0.12
682.033	0.12
682.356	0.12
682.68	0.12
683.004	0.12
683.327	0.12
683.651	0.11
683.974	0.11
684.298	0.11
684.621	0.11
684.944	0.11
685.268	0.11
685.591	0.11
685.914	0.1
686.237	0.1
686.56	0.1
686.883	0.09
687.206	0.09
687.529	0.09
687.852	0.09
688.175	0.09
688.497	0.09
688.82	0.09
689.142	0.09
689.465	0.09
689.787	0.09
690.11	0.09
690.432	0.08
690.755	0.08
691.077	0.08
691.399	0.08
691.721	0.08
692.043	0.08
692.365	0.08
692.687	0.08
693.009	0.07
693.331	0.07
693.653	0.07
693.974	0.07
694.296	0.07
694.618	0.07
694.939	0.07
695.261	0.07
695.582	0.07
695.904	0.07
696.225	0.06
696.546	0.06
696.868	0.06
697.189	0.06
697.51	0.06
697.831	0.06
698.152	0.06
698.473	0.05
698.794	0.05
699.114	0.05
699.435	0.05
699.756	0.05
700.077	0.05
700.397	0.05
700.718	0.05
701.038	0.05
701.359	0.05
701.679	0.05
701.999	0.05
702.32	0.05
702.64	0.05
702.96	0.05
703.28	0.05
703.6	0.04
703.92	0.04
704.24	0.04
704.56	0.04
704.879	0.04
705.199	0.04
705.519	0.04
705.838	0.05
706.158	0.05
706.478	0.05
706.797	0.05
707.116	0.05
707.436	0.05
707.755	0.04
708.074	0.04
708.393	0.04
708.712	0.03
709.031	0.03
709.35	0.03
709.669	0.02
709.988	0.03
710.307	0.03
710.626	0.03
710.944	0.03
711.263	0.03
711.582	0.03
711.9	0.04
712.219	0.04
712.537	0.04
712.855	0.04
713.174	0.04
713.492	0.04
713.81	0.04
714.128	0.03
714.446	0.03
714.764	0.03
715.082	0.03
715.4	0.03
715.718	0.03
716.035	0.03
716.353	0.03
716.671	0.04
716.988	0.04
717.306	0.04
717.623	0.04
717.941	0.04
718.258	0.04
718.575	0.04
718.893	0.04
719.21	0.04
719.527	0.04
719.844	0.04
720.161	0.04
720.478	0.04
720.795	0.04
721.112	0.04
721.428	0.04
721.745	0.04
722.062	0.04
722.378	0.04
722.695	0.05
723.011	0.05
723.328	0.05
723.644	0.05
723.96	0.05
724.276	0.05
724.593	0.05
724.909	0.05
725.225	0.05
725.541	0.05
725.857	0.05
726.173	0.05
726.488	0.05
726.804	0.05
727.12	0.05
727.435	0.05
727.751	0.05
728.067	0.05
728.382	0.05
728.697	0.05
729.013	0.05
729.328	0.05
729.643	0.05
729.958	0.05
730.273	0.05
730.588	0.05
730.903	0.04
731.218	0.04
731.533	0.04
731.848	0.04
732.163	0.04
732.477	0.04
732.792	0.04
733.107	0.04
733.421	0.04
733.736	0.04
734.05	0.04
734.364	0.04
734.678	0.04
734.993	0.04
735.307	0.04
735.621	0.04
735.935	0.04
736.249	0.04
736.563	0.04
736.877	0.04
737.19	0.04
737.504	0.05
737.818	0.05
738.131	0.05
738.445	0.05
738.758	0.05
739.072	0.05
739.385	0.05
739.698	0.05
740.012	0.05
740.325	0.05
740.638	0.05
740.951	0.05
741.264	0.05
741.577	0.05
741.89	0.05
742.203	0.05
742.515	0.04
742.828	0.04
743.141	0.04
743.453	0.04
743.766	0.04
744.078	0.04
744.391	0.04
744.703	0.04
745.015	0.04
745.327	0.04
745.639	0.04
745.952	0.04
746.264	0.04
746.575	0.04
746.887	0.04
747.199	0.04
747.511	0.03
747.823	0.03
748.134	0.03
748.446	0.03
748.757	0.03
749.069	0.03
749.38	0.03
749.692	0.03
750.003	0.03
750.314	0.03
750.625	0.02
750.936	0.02
751.248	0.02
751.559	0.02
751.869	0.02
752.18	0.02
752.491	0.02
752.802	0.02
753.112	0.02
753.423	0.02
753.734	0.02
754.044	0.02
754.355	0.02
754.665	0.02
754.975	0.02
755.285	0.02
755.596	0.02
755.906	0.02
756.216	0.02
756.526	0.02
756.836	0.02
757.146	0.02
757.455	0.02
757.765	0.02
758.075	0.01
758.385	0.01
758.694	0.01
759.004	0.01
759.313	0.01
759.622	0.01
759.932	0.01
760.241	0.01
760.55	0.01
760.859	0.01
761.168	0.01
761.477	0.01
761.786	0.01
762.095	0.01
762.404	0.01
762.713	0.02
763.021	0.02
763.33	0.02
763.639	0.02
763.947	0.02
764.256	0.02
764.564	0.02
764.872	0.01
765.181	0.01
765.489	0.01
765.797	0.01
766.105	0.01
766.413	0.01
766.721	0.01
767.029	0.01
767.337	0.01
767.644	0.02
767.952	0.02
768.26	0.02
768.567	0.02
768.875	0.02
769.182	0.02
769.49	0.01
769.797	0.01
770.104	0.01
770.411	0.01
770.718	0.01
771.026	0.01
771.333	0.01
771.639	0.01
771.946	0.01
772.253	0.02
772.56	0.02
772.867	0.02
773.173	0.02
773.48	0.02
773.786	0.02
774.093	0.02
774.399	0.02
774.705	0.02
775.012	0.02
775.318	0.02
775.624	0.02
775.93	0.02
776.236	0.02
776.542	0.02
776.848	0.01
777.154	0.01
777.459	0.01
777.765	0.01
778.071	0.01
778.376	0.01
778.682	0.01
778.987	0.01
779.292	0.01
779.598	0.01
779.903	0.01
780.208	0.01
780.513	0.01
780.818	0.01
781.123	0.01
781.428	0.01
781.733	0.01
782.038	0.01
782.343	0.01
782.647	0.01
782.952	0.01
783.256	0.01
783.561	0.01
783.865	0.01
784.17	0.02
784.474	0.02
784.778	0.02
785.082	0.02
785.386	0.02
785.69	0.02
785.994	0.02
786.298	0.01
786.602	0.01
786.906	0.01
787.209	0.01
787.513	0.01
787.817	0.01
788.12	0.01
788.424	0.01
788.727	0.01
789.03	0.01
789.333	0.01
789.637	0.01
789.94	0.02
790.243	0.02
790.546	0.02
790.849	0.02
791.152	0.02
791.454	0.02
791.757	0.02
792.06	0.02
792.362	0.01
792.665	0.01
792.967	0.01
793.27	0.01
793.572	0.01
793.874	0.01
794.177	0.01
794.479	0.01
794.781	0.01
795.083	0.02
795.385	0.02
795.687	0.02
795.989	0.02
796.29	0.02
796.592	0.03
796.894	0.03
797.195	0.03
797.497	0.03
797.798	0.02
798.1	0.02
798.401	0.02
798.702	0.02
799.003	0.02
799.304	0.02
799.605	0.02
799.906	0.02
800.207	0.02
800.508	0.02
800.809	0.02
801.11	0.02
801.41	0.02
801.711	0.02
802.011	0.02
802.312	0.02
802.612	0.02
802.913	0.02
803.213	0.02
803.513	0.02
803.813	0.02
804.113	0.02
804.413	0.02
804.713	0.02
805.013	0.02
805.313	0.02
805.613	0.02
805.912	0.02
806.212	0.02
806.511	0.02
806.811	0.02
807.11	0.02
807.41	0.02
807.709	0.02
808.008	0.02
808.307	0.02
808.606	0.02
808.905	0.02
809.204	0.02
809.503	0.03
809.802	0.03
810.101	0.03
810.399	0.03
810.698	0.03
810.997	0.03
811.295	0.02
811.593	0.02
811.892	0.02
812.19	0.02
812.488	0.02
812.786	0.02
813.084	0.02
813.383	0.03
813.68	0.03
813.978	0.03
814.276	0.03
814.574	0.03
814.872	0.03
815.169	0.03
815.467	0.03
815.764	0.03
816.062	0.04
816.359	0.04
816.656	0.04
816.954	0.04
817.251	0.04
817.548	0.04
817.845	0.04
818.142	0.03
818.439	0.03
818.735	0.03
819.032	0.03
819.329	0.04
819.626	0.03
819.922	0.03
820.219	0.04
820.515	0.03
820.811	0.03
821.108	0.03
821.404	0.03
821.7	0.03
821.996	0.03
822.292	0.03
822.588	0.03
822.884	0.04
823.18	0.04
823.475	0.04
823.771	0.04
824.067	0.04
824.362	0.03
824.658	0.03
824.953	0.03
825.249	0.03
825.544	0.03
825.839	0.03
826.134	0.03
826.429	0.03
826.724	0.03
827.019	0.04
827.314	0.04
827.609	0.04
827.904	0.04
828.198	0.04
828.493	0.04
828.787	0.04
829.082	0.04
829.376	0.04
829.671	0.04
829.965	0.04
830.259	0.04
830.553	0.04
830.847	0.04
831.141	0.05
831.435	0.05
831.729	0.05
832.023	0.05
832.317	0.05
832.61	0.05
832.904	0.05
833.197	0.05
833.491	0.04
833.784	0.05
834.077	0.04
834.371	0.04
834.664	0.04
834.957	0.05
835.25	0.05
835.543	0.05
835.836	0.05
836.129	0.05
836.421	0.05
836.714	0.05
837.007	0.05
837.299	0.05
837.592	0.05
837.884	0.05
838.177	0.05
838.469	0.05
838.761	0.05
839.053	0.05
839.345	0.05
839.637	0.05
839.929	0.05
840.221	0.05
840.513	0.05
840.805	0.05
841.096	0.05
841.388	0.05
841.68	0.05
841.971	0.06
842.262	0.06
842.554	0.06
842.845	0.06
843.136	0.06
843.427	0.06
843.718	0.06
844.009	0.06
844.3	0.06
844.591	0.06
844.882	0.06
845.173	0.06
845.463	0.06
845.754	0.06
846.044	0.06
846.335	0.06
846.625	0.06
846.915	0.06
847.206	0.06
847.496	0.06
847.786	0.06
848.076	0.06
848.366	0.06
848.656	0.06
848.945	0.06
849.235	0.07
849.525	0.06
849.814	0.06
850.104	0.06
850.393	0.06
850.683	0.06
850.972	0.06
851.261	0.06
851.551	0.06
851.84	0.06
852.129	0.07
852.418	0.07
852.707	0.07
852.995	0.07
853.284	0.07
853.573	0.06
853.862	0.07
854.15	0.07
854.439	0.07
854.727	0.07
855.015	0.07
855.304	0.07
855.592	0.07
855.88	0.07
856.168	0.07
856.456	0.07
856.744	0.07
857.032	0.07
857.32	0.07
857.607	0.07
857.895	0.07
858.183	0.07
858.47	0.07
858.757	0.08
859.045	0.08
859.332	0.07
859.619	0.07
859.907	0.07
860.194	0.07
860.481	0.07
860.768	0.07
861.054	0.07
861.341	0.07
861.628	0.07
861.915	0.08
862.201	0.09
862.488	0.09
862.774	0.09
863.061	0.09
863.347	0.09
863.633	0.09
863.919	0.08
864.205	0.07
864.491	0.06
864.777	0.06
865.063	0.06
865.349	0.06
865.635	0.06
865.92	0.06
866.206	0.07
866.492	0.06
866.777	0.07
867.062	0.07
867.348	0.07
867.633	0.07
867.918	0.06
868.203	0.05
868.488	0.05
868.773	0.05
869.058	0.05
869.343	0.05
869.628	0.06
869.912	0.06
870.197	0.06
870.482	0.07
870.766	0.07
871.05	0.06
871.335	0.06
871.619	0.06
871.903	0.05
872.187	0.06
872.471	0.05
872.755	0.05
873.039	0.05
873.323	0.05
873.607	0.06
873.89	0.07
874.174	0.07
874.458	0.06
874.741	0.06
875.024	0.05
875.308	0.06
875.591	0.07
875.874	0.05
876.157	0.05
876.44	0.05
876.723	0.06
877.006	0.07
877.289	0.06
877.572	0.03
877.854	0.04
878.137	0.03
878.42	0.03
878.702	0.01
878.984	0
879.267	0.01
879.549	0.02
879.831	0.03
880.113	0.04
880.395	0.04
880.677	0.05
880.959	0.07
