Data from Rubpy_BV_300_EDTA_Buffered_Absorbance_11-54-14-687.txt Node
Date: Wed Jul 01 11:54:14 BST 2026
User: fpm-admin
Spectrometer: OFX00224
Trigger mode: 0
Integration Time (sec): 7.000000E-2
Scans to average: 1
Nonlinearity correction enabled: false
Boxcar width: 3
Storing dark spectrum: false
XAxis mode: Wavelengths
Number of Pixels in Spectrum: 2136
>>>>>Begin Spectral Data<<<<<
154.91	-0.52
155.289	-0.5
155.669	-0.6
156.048	-0.7
156.428	-0.95
156.807	-0.77
157.186	-0
157.566	-0
157.945	-0
158.325	0.69
158.704	0.81
159.083	-0
159.462	-0
159.842	-0
160.221	-0
160.6	-0
160.979	-0.48
161.359	-0.2
161.738	-0.68
162.117	-1.2
162.496	-0.04
162.875	-0.33
163.254	-0.2
163.633	1.34
164.012	0.11
164.391	0.3
164.77	0.15
165.149	-0.07
165.528	-0.45
165.907	-0.33
166.286	-0.4
166.665	-0.34
167.044	-0.15
167.423	-0.95
167.802	-0
168.181	-0
168.559	-0
168.938	-0
169.317	-0
169.696	-0
170.074	-0
170.453	-0
170.832	0.66
171.21	0.59
171.589	1.19
171.968	-0
172.346	-0
172.725	-0
173.103	-0
173.482	-0
173.861	-0
174.239	-0
174.617	-0
174.996	-0
175.374	-0
175.753	-0
176.131	0.6
176.51	0.22
176.888	0.36
177.266	-0
177.645	-0
178.023	1.1
178.401	0.92
178.779	0.84
179.158	-0
179.536	-0
179.914	-0
180.292	-0
180.67	-0.53
181.048	-0.21
181.427	-0.37
181.805	-0
182.183	-1.2
182.561	0.9
182.939	0.15
183.317	0.25
183.695	0.67
184.073	-0
184.451	-0
184.829	-0
185.206	-0.18
185.584	-0.44
185.962	-0.3
186.34	-0.31
186.718	-0.29
187.096	-0.4
187.473	-0.07
187.851	-0.01
188.229	0.04
188.607	0.08
188.984	0.14
189.362	0.16
189.74	0.16
190.117	0.18
190.495	0.16
190.872	0.18
191.25	0.16
191.627	0.1
192.005	0.1
192.382	0.09
192.76	0.08
193.137	0.09
193.515	0.08
193.892	0.06
194.269	0.07
194.647	0.09
195.024	0.08
195.401	0.06
195.779	0.05
196.156	0.02
196.533	0.03
196.91	0.01
197.288	-0.01
197.665	-0.01
198.042	0.02
198.419	0.01
198.796	0.03
199.173	0.02
199.55	0.04
199.927	0.04
200.304	0.06
200.681	0.05
201.058	0.06
201.435	0.06
201.812	0.07
202.189	0.04
202.566	0.08
202.943	0.09
203.32	0.07
203.697	0.06
204.073	0.06
204.45	0.08
204.827	0.11
205.204	0.1
205.58	0.07
205.957	0.08
206.334	0.1
206.71	0.07
207.087	0.07
207.464	0.05
207.84	0.03
208.217	0.01
208.593	0.01
208.97	-0.01
209.346	0.01
209.723	0
210.099	0.03
210.476	0.04
210.852	0.07
211.228	0.09
211.605	0.1
211.981	0.12
212.357	0.14
212.733	0.16
213.11	0.16
213.486	0.17
213.862	0.16
214.238	0.15
214.614	0.13
214.991	0.12
215.367	0.09
215.743	0.06
216.119	0.03
216.495	0.01
216.871	0.01
217.247	-0.02
217.623	-0.01
217.999	-0.04
218.375	-0.02
218.751	-0.01
219.127	0
219.502	-0.01
219.878	0.02
220.254	0.02
220.63	0.02
221.006	0.03
221.381	0.04
221.757	0.06
222.133	0.07
222.508	0.09
222.884	0.09
223.26	0.1
223.635	0.12
224.011	0.09
224.386	0.09
224.762	0.08
225.137	0.06
225.513	0.07
225.888	0.07
226.264	0.06
226.639	0.07
227.014	0.06
227.39	0.08
227.765	0.06
228.14	0.06
228.516	0.08
228.891	0.07
229.266	0.08
229.641	0.06
230.017	0.06
230.392	0.05
230.767	0.03
231.142	0.03
231.517	0.03
231.892	0.01
232.267	0.04
232.642	0.04
233.017	0.04
233.392	0.05
233.767	0.01
234.142	0.02
234.517	0.03
234.892	0.02
235.267	-0.02
235.641	0.02
236.016	0.02
236.391	0.06
236.766	0.05
237.14	0.06
237.515	0.06
237.89	0.09
238.264	0.09
238.639	0.1
239.014	0.08
239.388	0.1
239.763	0.09
240.137	0.11
240.512	0.09
240.886	0.05
241.261	0.04
241.635	0.02
242.009	0.03
242.384	0.02
242.758	0.01
243.132	0.02
243.507	0.05
243.881	0.07
244.255	0.08
244.629	0.06
245.004	0.08
245.378	0.07
245.752	0.06
246.126	0.06
246.5	0.07
246.874	0.08
247.248	0.07
247.622	0.08
247.996	0.06
248.37	0.05
248.744	0.03
249.118	0.02
249.492	0.01
249.866	0.03
250.24	0.03
250.613	0.07
250.987	0.12
251.361	0.11
251.735	0.11
252.108	0.11
252.482	0.11
252.856	0.11
253.229	0.09
253.603	0.04
253.977	0.04
254.35	0.02
254.724	0.03
255.097	0.03
255.471	0.02
255.844	0.01
256.218	0.02
256.591	0.05
256.964	0.07
257.338	0.09
257.711	0.08
258.084	0.07
258.458	0.06
258.831	0.07
259.204	0.06
259.577	0.06
259.95	0.05
260.323	0.05
260.697	0.06
261.07	0.08
261.443	0.08
261.816	0.11
262.189	0.1
262.562	0.09
262.935	0.1
263.308	0.1
263.68	0.09
264.053	0.07
264.426	0.04
264.799	0.05
265.172	0.05
265.545	0.03
265.917	0.03
266.29	0.02
266.663	0.03
267.035	0.03
267.408	0.03
267.781	0.05
268.153	0.05
268.526	0.04
268.898	0.05
269.271	0.04
269.643	0.05
270.016	0.05
270.388	0.05
270.76	0.06
271.133	0.07
271.505	0.07
271.877	0.09
272.25	0.11
272.622	0.11
272.994	0.09
273.366	0.09
273.739	0.09
274.111	0.1
274.483	0.09
274.855	0.07
275.227	0.07
275.599	0.09
275.971	0.12
276.343	0.13
276.715	0.14
277.087	0.15
277.459	0.15
277.831	0.16
278.203	0.16
278.574	0.13
278.946	0.12
279.318	0.11
279.69	0.09
280.061	0.09
280.433	0.08
280.805	0.08
281.176	0.09
281.548	0.1
281.92	0.11
282.291	0.11
282.663	0.11
283.034	0.11
283.406	0.1
283.777	0.08
284.148	0.08
284.52	0.09
284.891	0.08
285.262	0.08
285.634	0.07
286.005	0.05
286.376	0.06
286.747	0.07
287.119	0.07
287.49	0.07
287.861	0.08
288.232	0.07
288.603	0.08
288.974	0.07
289.345	0.05
289.716	0.05
290.087	0.06
290.458	0.07
290.829	0.08
291.2	0.1
291.571	0.11
291.941	0.13
292.312	0.12
292.683	0.12
293.054	0.12
293.424	0.11
293.795	0.1
294.166	0.09
294.536	0.1
294.907	0.09
295.277	0.09
295.648	0.09
296.018	0.09
296.389	0.09
296.759	0.08
297.13	0.07
297.5	0.08
297.871	0.07
298.241	0.06
298.611	0.07
298.981	0.07
299.352	0.08
299.722	0.08
300.092	0.08
300.462	0.06
300.832	0.06
301.202	0.05
301.573	0.05
301.943	0.04
302.313	0.04
302.683	0.04
303.053	0.04
303.422	0.03
303.792	0.03
304.162	0.03
304.532	0.02
304.902	0.02
305.272	0.02
305.641	0.02
306.011	0.02
306.381	0.02
306.75	0.02
307.12	0.02
307.49	0.02
307.859	0.03
308.229	0.03
308.598	0.03
308.968	0.03
309.337	0.04
309.707	0.04
310.076	0.04
310.445	0.04
310.815	0.04
311.184	0.04
311.553	0.05
311.923	0.05
312.292	0.05
312.661	0.05
313.03	0.05
313.399	0.06
313.768	0.06
314.137	0.06
314.506	0.06
314.875	0.06
315.244	0.06
315.613	0.07
315.982	0.07
316.351	0.07
316.72	0.07
317.089	0.07
317.458	0.07
317.826	0.08
318.195	0.08
318.564	0.08
318.933	0.08
319.301	0.08
319.67	0.08
320.038	0.08
320.407	0.08
320.775	0.08
321.144	0.08
321.512	0.08
321.881	0.08
322.249	0.08
322.618	0.09
322.986	0.09
323.354	0.09
323.723	0.09
324.091	0.09
324.459	0.09
324.827	0.09
325.195	0.09
325.564	0.09
325.932	0.09
326.3	0.09
326.668	0.1
327.036	0.1
327.404	0.1
327.772	0.1
328.14	0.11
328.508	0.11
328.875	0.11
329.243	0.11
329.611	0.11
329.979	0.12
330.346	0.12
330.714	0.12
331.082	0.12
331.449	0.12
331.817	0.12
332.185	0.12
332.552	0.12
332.92	0.13
333.287	0.13
333.655	0.13
334.022	0.13
334.389	0.14
334.757	0.14
335.124	0.14
335.491	0.14
335.859	0.14
336.226	0.15
336.593	0.15
336.96	0.15
337.327	0.16
337.695	0.16
338.062	0.16
338.429	0.17
338.796	0.17
339.163	0.17
339.53	0.18
339.897	0.18
340.263	0.18
340.63	0.18
340.997	0.19
341.364	0.19
341.731	0.19
342.097	0.2
342.464	0.2
342.831	0.2
343.197	0.21
343.564	0.21
343.931	0.22
344.297	0.22
344.664	0.22
345.03	0.23
345.396	0.23
345.763	0.23
346.129	0.24
346.496	0.24
346.862	0.24
347.228	0.25
347.594	0.25
347.961	0.26
348.327	0.26
348.693	0.26
349.059	0.27
349.425	0.27
349.791	0.27
350.157	0.28
350.523	0.28
350.889	0.28
351.255	0.29
351.621	0.29
351.987	0.29
352.353	0.3
352.719	0.3
353.084	0.3
353.45	0.31
353.816	0.31
354.181	0.32
354.547	0.32
354.913	0.33
355.278	0.33
355.644	0.33
356.009	0.34
356.375	0.34
356.74	0.35
357.106	0.35
357.471	0.36
357.836	0.36
358.202	0.37
358.567	0.37
358.932	0.38
359.297	0.38
359.663	0.39
360.028	0.39
360.393	0.4
360.758	0.41
361.123	0.41
361.488	0.42
361.853	0.43
362.218	0.43
362.583	0.44
362.948	0.44
363.312	0.45
363.677	0.46
364.042	0.46
364.407	0.47
364.772	0.47
365.136	0.48
365.501	0.48
365.865	0.49
366.23	0.49
366.595	0.5
366.959	0.5
367.324	0.5
367.688	0.51
368.052	0.52
368.417	0.52
368.781	0.53
369.145	0.53
369.51	0.54
369.874	0.54
370.238	0.55
370.602	0.55
370.967	0.56
371.331	0.56
371.695	0.56
372.059	0.56
372.423	0.57
372.787	0.57
373.151	0.57
373.515	0.57
373.878	0.56
374.242	0.56
374.606	0.56
374.97	0.56
375.334	0.55
375.697	0.55
376.061	0.55
376.425	0.54
376.788	0.53
377.152	0.53
377.515	0.53
377.879	0.52
378.242	0.51
378.606	0.51
378.969	0.5
379.333	0.5
379.696	0.49
380.059	0.48
380.422	0.48
380.786	0.48
381.149	0.47
381.512	0.47
381.875	0.47
382.238	0.47
382.601	0.46
382.964	0.46
383.327	0.46
383.69	0.46
384.053	0.45
384.416	0.45
384.779	0.45
385.142	0.45
385.504	0.45
385.867	0.45
386.23	0.45
386.593	0.45
386.955	0.45
387.318	0.45
387.68	0.46
388.043	0.46
388.405	0.46
388.768	0.46
389.13	0.46
389.493	0.46
389.855	0.46
390.217	0.46
390.58	0.45
390.942	0.45
391.304	0.45
391.666	0.45
392.028	0.44
392.391	0.44
392.753	0.44
393.115	0.43
393.477	0.43
393.839	0.42
394.201	0.42
394.563	0.42
394.924	0.42
395.286	0.42
395.648	0.43
396.01	0.43
396.371	0.44
396.733	0.44
397.095	0.45
397.456	0.46
397.818	0.47
398.18	0.48
398.541	0.5
398.903	0.51
399.264	0.52
399.625	0.54
399.987	0.55
400.348	0.56
400.709	0.57
401.071	0.58
401.432	0.58
401.793	0.58
402.154	0.58
402.515	0.58
402.876	0.57
403.238	0.56
403.599	0.54
403.96	0.53
404.32	0.51
404.681	0.49
405.042	0.47
405.403	0.45
405.764	0.43
406.125	0.41
406.485	0.38
406.846	0.36
407.207	0.34
407.567	0.33
407.928	0.31
408.288	0.29
408.649	0.27
409.009	0.26
409.37	0.24
409.73	0.23
410.091	0.21
410.451	0.2
410.811	0.19
411.171	0.18
411.532	0.17
411.892	0.17
412.252	0.16
412.612	0.15
412.972	0.14
413.332	0.13
413.692	0.13
414.052	0.12
414.412	0.11
414.772	0.11
415.132	0.11
415.492	0.1
415.851	0.1
416.211	0.09
416.571	0.09
416.931	0.09
417.29	0.08
417.65	0.08
418.009	0.08
418.369	0.08
418.728	0.08
419.088	0.07
419.447	0.07
419.807	0.07
420.166	0.07
420.525	0.06
420.884	0.06
421.244	0.06
421.603	0.06
421.962	0.06
422.321	0.05
422.68	0.06
423.039	0.05
423.398	0.05
423.757	0.05
424.116	0.05
424.475	0.05
424.834	0.05
425.193	0.05
425.551	0.05
425.91	0.05
426.269	0.04
426.628	0.04
426.986	0.04
427.345	0.04
427.703	0.04
428.062	0.04
428.42	0.04
428.779	0.04
429.137	0.04
429.496	0.04
429.854	0.04
430.212	0.04
430.57	0.04
430.929	0.04
431.287	0.04
431.645	0.04
432.003	0.04
432.361	0.04
432.719	0.04
433.077	0.04
433.435	0.04
433.793	0.04
434.151	0.04
434.509	0.04
434.866	0.03
435.224	0.04
435.582	0.04
435.94	0.04
436.297	0.04
436.655	0.04
437.012	0.04
437.37	0.04
437.727	0.04
438.085	0.04
438.442	0.03
438.8	0.04
439.157	0.04
439.514	0.04
439.872	0.04
440.229	0.04
440.586	0.04
440.943	0.04
441.3	0.04
441.657	0.03
442.014	0.03
442.371	0.03
442.728	0.03
443.085	0.04
443.442	0.03
443.799	0.03
444.156	0.04
444.513	0.04
444.869	0.03
445.226	0.03
445.583	0.03
445.939	0.03
446.296	0.03
446.652	0.03
447.009	0.03
447.365	0.03
447.722	0.03
448.078	0.03
448.434	0.03
448.791	0.03
449.147	0.03
449.503	0.03
449.859	0.03
450.215	0.03
450.571	0.03
450.928	0.03
451.284	0.03
451.64	0.03
451.995	0.03
452.351	0.03
452.707	0.03
453.063	0.03
453.419	0.03
453.775	0.03
454.13	0.03
454.486	0.03
454.842	0.03
455.197	0.02
455.553	0.02
455.908	0.02
456.264	0.02
456.619	0.02
456.975	0.02
457.33	0.02
457.685	0.02
458.04	0.02
458.396	0.01
458.751	0.01
459.106	0.01
459.461	0.01
459.816	0.01
460.171	0
460.526	0
460.881	0
461.236	0
461.591	0
461.946	0
462.301	0
462.655	0
463.01	-0
463.365	-0
463.719	-0
464.074	-0
464.428	-0
464.783	-0.01
465.137	-0.01
465.492	-0.01
465.846	-0.01
466.201	-0.01
466.555	-0.01
466.909	-0.01
467.263	-0.01
467.618	-0
467.972	-0
468.326	-0
468.68	-0
469.034	-0
469.388	-0.01
469.742	-0.01
470.096	-0.01
470.45	-0.01
470.804	-0
471.157	-0
471.511	-0
471.865	0
472.218	0
472.572	0
472.926	0.01
473.279	0.01
473.633	0.01
473.986	0.01
474.34	0.02
474.693	0.02
475.046	0.02
475.4	0.02
475.753	0.02
476.106	0.02
476.459	0.03
476.812	0.03
477.165	0.04
477.519	0.04
477.872	0.04
478.224	0.05
478.577	0.05
478.93	0.05
479.283	0.05
479.636	0.05
479.989	0.05
480.341	0.05
480.694	0.06
481.047	0.06
481.399	0.06
481.752	0.06
482.104	0.06
482.457	0.06
482.809	0.07
483.162	0.07
483.514	0.07
483.866	0.07
484.219	0.08
484.571	0.08
484.923	0.08
485.275	0.08
485.627	0.08
485.979	0.09
486.331	0.09
486.683	0.09
487.035	0.09
487.387	0.09
487.739	0.09
488.091	0.09
488.443	0.09
488.794	0.1
489.146	0.1
489.498	0.1
489.849	0.1
490.201	0.1
490.552	0.1
490.904	0.11
491.255	0.11
491.607	0.11
491.958	0.11
492.309	0.11
492.661	0.11
493.012	0.11
493.363	0.11
493.714	0.11
494.065	0.12
494.416	0.12
494.767	0.12
495.118	0.12
495.469	0.12
495.82	0.12
496.171	0.13
496.522	0.13
496.872	0.12
497.223	0.13
497.574	0.13
497.924	0.13
498.275	0.13
498.626	0.13
498.976	0.13
499.327	0.14
499.677	0.14
500.027	0.14
500.378	0.14
500.728	0.14
501.078	0.14
501.428	0.14
501.779	0.14
502.129	0.14
502.479	0.14
502.829	0.14
503.179	0.15
503.529	0.15
503.879	0.15
504.229	0.15
504.578	0.15
504.928	0.15
505.278	0.16
505.628	0.16
505.977	0.16
506.327	0.16
506.676	0.16
507.026	0.16
507.375	0.17
507.725	0.17
508.074	0.17
508.424	0.17
508.773	0.17
509.122	0.17
509.471	0.17
509.82	0.17
510.17	0.17
510.519	0.17
510.868	0.17
511.217	0.18
511.566	0.18
511.915	0.18
512.263	0.18
512.612	0.18
512.961	0.18
513.31	0.18
513.659	0.18
514.007	0.18
514.356	0.18
514.704	0.18
515.053	0.18
515.401	0.19
515.75	0.19
516.098	0.19
516.447	0.19
516.795	0.19
517.143	0.19
517.491	0.19
517.839	0.19
518.188	0.19
518.536	0.19
518.884	0.2
519.232	0.2
519.58	0.2
519.928	0.2
520.275	0.2
520.623	0.2
520.971	0.2
521.319	0.2
521.666	0.21
522.014	0.21
522.362	0.21
522.709	0.21
523.057	0.21
523.404	0.21
523.752	0.21
524.099	0.21
524.446	0.21
524.794	0.21
525.141	0.21
525.488	0.21
525.835	0.21
526.182	0.22
526.529	0.22
526.876	0.22
527.223	0.22
527.57	0.22
527.917	0.22
528.264	0.22
528.611	0.22
528.958	0.22
529.304	0.22
529.651	0.22
529.998	0.22
530.344	0.22
530.691	0.23
531.037	0.23
531.384	0.23
531.73	0.23
532.076	0.23
532.423	0.23
532.769	0.23
533.115	0.23
533.461	0.23
533.807	0.23
534.154	0.23
534.5	0.23
534.846	0.23
535.192	0.23
535.537	0.23
535.883	0.23
536.229	0.23
536.575	0.23
536.921	0.24
537.266	0.24
537.612	0.24
537.957	0.24
538.303	0.24
538.649	0.24
538.994	0.24
539.339	0.24
539.685	0.24
540.03	0.24
540.375	0.24
540.721	0.24
541.066	0.24
541.411	0.24
541.756	0.24
542.101	0.24
542.446	0.24
542.791	0.24
543.136	0.25
543.481	0.25
543.825	0.25
544.17	0.25
544.515	0.25
544.86	0.25
545.204	0.25
545.549	0.25
545.893	0.25
546.238	0.25
546.582	0.25
546.927	0.25
547.271	0.26
547.615	0.26
547.96	0.26
548.304	0.26
548.648	0.26
548.992	0.26
549.336	0.26
549.68	0.26
550.024	0.26
550.368	0.26
550.712	0.26
551.056	0.26
551.4	0.26
551.743	0.26
552.087	0.26
552.431	0.26
552.774	0.26
553.118	0.26
553.462	0.26
553.805	0.26
554.148	0.26
554.492	0.26
554.835	0.26
555.178	0.26
555.522	0.26
555.865	0.26
556.208	0.26
556.551	0.26
556.894	0.26
557.237	0.26
557.58	0.26
557.923	0.26
558.266	0.26
558.609	0.26
558.952	0.26
559.294	0.26
559.637	0.26
559.98	0.26
560.322	0.26
560.665	0.26
561.007	0.26
561.35	0.26
561.692	0.26
562.034	0.26
562.377	0.26
562.719	0.26
563.061	0.26
563.403	0.26
563.745	0.26
564.088	0.26
564.43	0.26
564.772	0.26
565.113	0.26
565.455	0.26
565.797	0.26
566.139	0.26
566.481	0.26
566.822	0.26
567.164	0.26
567.506	0.26
567.847	0.26
568.189	0.26
568.53	0.26
568.872	0.26
569.213	0.26
569.554	0.26
569.895	0.26
570.237	0.26
570.578	0.26
570.919	0.26
571.26	0.25
571.601	0.25
571.942	0.25
572.283	0.25
572.624	0.25
572.965	0.25
573.306	0.25
573.646	0.25
573.987	0.25
574.328	0.25
574.668	0.25
575.009	0.25
575.349	0.24
575.69	0.24
576.03	0.24
576.37	0.24
576.711	0.24
577.051	0.24
577.391	0.24
577.731	0.24
578.072	0.24
578.412	0.24
578.752	0.23
579.092	0.23
579.431	0.22
579.771	0.22
580.111	0.22
580.451	0.22
580.791	0.22
581.13	0.22
581.47	0.23
581.81	0.23
582.149	0.23
582.489	0.22
582.828	0.21
583.167	0.19
583.507	0.19
583.846	0.19
584.185	0.19
584.525	0.19
584.864	0.2
585.203	0.21
585.542	0.22
585.881	0.23
586.22	0.23
586.559	0.22
586.898	0.22
587.236	0.22
587.575	0.22
587.914	0.22
588.252	0.22
588.591	0.22
588.93	0.22
589.268	0.23
589.607	0.23
589.945	0.23
590.283	0.23
590.622	0.23
590.96	0.23
591.298	0.24
591.636	0.24
591.974	0.24
592.313	0.24
592.651	0.24
592.989	0.24
593.326	0.24
593.664	0.24
594.002	0.24
594.34	0.23
594.678	0.23
595.015	0.23
595.353	0.23
595.691	0.23
596.028	0.23
596.366	0.23
596.703	0.24
597.04	0.24
597.378	0.24
597.715	0.24
598.052	0.24
598.389	0.24
598.726	0.24
599.064	0.24
599.401	0.24
599.738	0.24
600.074	0.24
600.411	0.24
600.748	0.24
601.085	0.24
601.422	0.23
601.758	0.23
602.095	0.23
602.432	0.23
602.768	0.24
603.105	0.24
603.441	0.24
603.777	0.24
604.114	0.24
604.45	0.24
604.786	0.24
605.122	0.24
605.459	0.24
605.795	0.24
606.131	0.24
606.467	0.24
606.803	0.24
607.139	0.24
607.474	0.24
607.81	0.24
608.146	0.24
608.482	0.24
608.817	0.24
609.153	0.24
609.488	0.24
609.824	0.23
610.159	0.23
610.495	0.23
610.83	0.23
611.165	0.23
611.5	0.23
611.836	0.23
612.171	0.23
612.506	0.23
612.841	0.23
613.176	0.23
613.511	0.23
613.845	0.23
614.18	0.23
614.515	0.23
614.85	0.23
615.184	0.23
615.519	0.23
615.854	0.23
616.188	0.23
616.523	0.23
616.857	0.23
617.191	0.22
617.526	0.22
617.86	0.22
618.194	0.22
618.528	0.22
618.862	0.22
619.196	0.22
619.53	0.22
619.864	0.22
620.198	0.22
620.532	0.22
620.866	0.22
621.2	0.22
621.533	0.22
621.867	0.22
622.201	0.21
622.534	0.21
622.868	0.21
623.201	0.21
623.534	0.21
623.868	0.21
624.201	0.21
624.534	0.21
624.868	0.21
625.201	0.21
625.534	0.2
625.867	0.2
626.2	0.2
626.533	0.2
626.865	0.2
627.198	0.2
627.531	0.2
627.864	0.2
628.196	0.2
628.529	0.2
628.862	0.2
629.194	0.2
629.527	0.2
629.859	0.19
630.191	0.19
630.524	0.19
630.856	0.19
631.188	0.19
631.52	0.19
631.852	0.19
632.184	0.19
632.516	0.19
632.848	0.19
633.18	0.18
633.512	0.18
633.844	0.18
634.175	0.18
634.507	0.18
634.839	0.18
635.17	0.18
635.502	0.18
635.833	0.18
636.165	0.18
636.496	0.17
636.827	0.17
637.159	0.17
637.49	0.17
637.821	0.17
638.152	0.17
638.483	0.17
638.814	0.16
639.145	0.16
639.476	0.16
639.807	0.16
640.137	0.16
640.468	0.16
640.799	0.16
641.129	0.15
641.46	0.15
641.791	0.15
642.121	0.15
642.451	0.15
642.782	0.15
643.112	0.15
643.442	0.15
643.773	0.15
644.103	0.15
644.433	0.15
644.763	0.14
645.093	0.14
645.423	0.14
645.753	0.14
646.082	0.14
646.412	0.14
646.742	0.14
647.072	0.13
647.401	0.13
647.731	0.13
648.06	0.13
648.39	0.13
648.719	0.13
649.048	0.13
649.378	0.13
649.707	0.13
650.036	0.13
650.365	0.13
650.694	0.13
651.023	0.13
651.352	0.13
651.681	0.13
652.01	0.13
652.339	0.13
652.668	0.13
652.996	0.13
653.325	0.13
653.654	0.13
653.982	0.13
654.311	0.13
654.639	0.13
654.967	0.13
655.296	0.13
655.624	0.13
655.952	0.13
656.28	0.12
656.609	0.12
656.937	0.09
657.265	0.07
657.593	0.05
657.92	0.04
658.248	0.03
658.576	0.03
658.904	0.03
659.231	0.05
659.559	0.07
659.887	0.08
660.214	0.11
660.542	0.12
660.869	0.12
661.196	0.12
661.524	0.12
661.851	0.12
662.178	0.12
662.505	0.12
662.832	0.12
663.159	0.12
663.486	0.12
663.813	0.12
664.14	0.12
664.467	0.12
664.794	0.12
665.12	0.11
665.447	0.11
665.774	0.11
666.1	0.11
666.427	0.11
666.753	0.11
667.079	0.11
667.406	0.11
667.732	0.11
668.058	0.11
668.384	0.11
668.71	0.11
669.036	0.11
669.362	0.11
669.688	0.11
670.014	0.11
670.34	0.11
670.666	0.11
670.991	0.1
671.317	0.1
671.643	0.1
671.968	0.1
672.294	0.1
672.619	0.1
672.945	0.1
673.27	0.1
673.595	0.1
673.92	0.09
674.246	0.09
674.571	0.09
674.896	0.09
675.221	0.09
675.546	0.09
675.87	0.09
676.195	0.09
676.52	0.09
676.845	0.08
677.169	0.08
677.494	0.08
677.819	0.08
678.143	0.08
678.468	0.08
678.792	0.08
679.116	0.08
679.44	0.08
679.765	0.08
680.089	0.08
680.413	0.08
680.737	0.08
681.061	0.07
681.385	0.07
681.709	0.07
682.033	0.07
682.356	0.07
682.68	0.07
683.004	0.07
683.327	0.07
683.651	0.07
683.974	0.07
684.298	0.07
684.621	0.07
684.944	0.07
685.268	0.07
685.591	0.07
685.914	0.06
686.237	0.06
686.56	0.06
686.883	0.06
687.206	0.06
687.529	0.05
687.852	0.05
688.175	0.05
688.497	0.05
688.82	0.05
689.142	0.05
689.465	0.05
689.787	0.05
690.11	0.05
690.432	0.05
690.755	0.05
691.077	0.05
691.399	0.05
691.721	0.05
692.043	0.05
692.365	0.05
692.687	0.05
693.009	0.05
693.331	0.04
693.653	0.04
693.974	0.04
694.296	0.04
694.618	0.04
694.939	0.04
695.261	0.04
695.582	0.04
695.904	0.04
696.225	0.04
696.546	0.04
696.868	0.04
697.189	0.04
697.51	0.04
697.831	0.03
698.152	0.03
698.473	0.03
698.794	0.02
699.114	0.02
699.435	0.02
699.756	0.02
700.077	0.02
700.397	0.02
700.718	0.03
701.038	0.03
701.359	0.03
701.679	0.03
701.999	0.03
702.32	0.03
702.64	0.03
702.96	0.03
703.28	0.03
703.6	0.03
703.92	0.03
704.24	0.02
704.56	0.02
704.879	0.02
705.199	0.02
705.519	0.02
705.838	0.02
706.158	0.02
706.478	0.02
706.797	0.02
707.116	0.02
707.436	0.02
707.755	0.02
708.074	0.02
708.393	0.02
708.712	0.02
709.031	0.01
709.35	0.01
709.669	0.01
709.988	0.01
710.307	0.01
710.626	0.01
710.944	0.01
711.263	0.02
711.582	0.02
711.9	0.02
712.219	0.02
712.537	0.02
712.855	0.02
713.174	0.02
713.492	0.02
713.81	0.02
714.128	0.02
714.446	0.02
714.764	0.02
715.082	0.02
715.4	0.02
715.718	0.02
716.035	0.02
716.353	0.02
716.671	0.02
716.988	0.02
717.306	0.02
717.623	0.02
717.941	0.02
718.258	0.02
718.575	0.03
718.893	0.03
719.21	0.03
719.527	0.03
719.844	0.03
720.161	0.02
720.478	0.02
720.795	0.02
721.112	0.02
721.428	0.02
721.745	0.02
722.062	0.03
722.378	0.03
722.695	0.03
723.011	0.03
723.328	0.03
723.644	0.03
723.96	0.03
724.276	0.03
724.593	0.03
724.909	0.03
725.225	0.03
725.541	0.03
725.857	0.03
726.173	0.03
726.488	0.03
726.804	0.03
727.12	0.03
727.435	0.03
727.751	0.03
728.067	0.03
728.382	0.03
728.697	0.03
729.013	0.03
729.328	0.03
729.643	0.03
729.958	0.03
730.273	0.03
730.588	0.03
730.903	0.03
731.218	0.02
731.533	0.02
731.848	0.02
732.163	0.02
732.477	0.02
732.792	0.02
733.107	0.02
733.421	0.02
733.736	0.02
734.05	0.02
734.364	0.02
734.678	0.02
734.993	0.02
735.307	0.02
735.621	0.02
735.935	0.02
736.249	0.02
736.563	0.02
736.877	0.02
737.19	0.02
737.504	0.03
737.818	0.03
738.131	0.03
738.445	0.03
738.758	0.03
739.072	0.03
739.385	0.03
739.698	0.03
740.012	0.03
740.325	0.03
740.638	0.03
740.951	0.03
741.264	0.02
741.577	0.02
741.89	0.02
742.203	0.02
742.515	0.02
742.828	0.02
743.141	0.02
743.453	0.02
743.766	0.02
744.078	0.02
744.391	0.02
744.703	0.02
745.015	0.02
745.327	0.02
745.639	0.02
745.952	0.02
746.264	0.02
746.575	0.02
746.887	0.02
747.199	0.02
747.511	0.02
747.823	0.02
748.134	0.02
748.446	0.02
748.757	0.02
749.069	0.02
749.38	0.02
749.692	0.02
750.003	0.01
750.314	0.01
750.625	0.01
750.936	0.01
751.248	0.01
751.559	0.01
751.869	0.01
752.18	0.01
752.491	0.01
752.802	0.01
753.112	0.01
753.423	0.01
753.734	0.01
754.044	0.01
754.355	0.01
754.665	0.01
754.975	0.01
755.285	0.01
755.596	0.01
755.906	0.01
756.216	0.01
756.526	0.01
756.836	0.01
757.146	0.01
757.455	0.01
757.765	0.01
758.075	0.01
758.385	0.01
758.694	0.01
759.004	0.01
759.313	0.01
759.622	0.01
759.932	0.01
760.241	0.01
760.55	0.01
760.859	0
761.168	0
761.477	0
761.786	0
762.095	0
762.404	0
762.713	0.01
763.021	0.01
763.33	0.01
763.639	0.01
763.947	0.01
764.256	0.01
764.564	0.01
764.872	0.01
765.181	0.01
765.489	0.01
765.797	0.01
766.105	0.01
766.413	0.01
766.721	0.01
767.029	0.01
767.337	0.01
767.644	0.01
767.952	0.01
768.26	0.01
768.567	0.01
768.875	0.01
769.182	0.01
769.49	0.01
769.797	0.01
770.104	0.01
770.411	0.01
770.718	0.01
771.026	0.01
771.333	0.01
771.639	0.01
771.946	0.01
772.253	0.01
772.56	0.01
772.867	0.01
773.173	0.01
773.48	0.01
773.786	0.01
774.093	0.01
774.399	0.01
774.705	0.01
775.012	0.01
775.318	0.01
775.624	0.01
775.93	0.01
776.236	0.01
776.542	0.01
776.848	0.01
777.154	0.01
777.459	0.01
777.765	0.01
778.071	0.01
778.376	0.01
778.682	0.01
778.987	0.01
779.292	0.01
779.598	0.01
779.903	0.01
780.208	0.01
780.513	0.01
780.818	0.01
781.123	0.01
781.428	0.01
781.733	0.01
782.038	0.01
782.343	0
782.647	0
782.952	0
783.256	0
783.561	0.01
783.865	0.01
784.17	0.01
784.474	0.01
784.778	0.01
785.082	0.01
785.386	0.01
785.69	0.01
785.994	0
786.298	0
786.602	0
786.906	0
787.209	0
787.513	0
787.817	0
788.12	0
788.424	0
788.727	0
789.03	0
789.333	0
789.637	0.01
789.94	0.01
790.243	0.01
790.546	0.01
790.849	0.01
791.152	0.01
791.454	0.01
791.757	0.01
792.06	0.01
792.362	0.01
792.665	0.01
792.967	0.01
793.27	0
793.572	0.01
793.874	0
794.177	0.01
794.479	0.01
794.781	0.01
795.083	0.01
795.385	0.01
795.687	0.01
795.989	0.01
796.29	0.01
796.592	0.01
796.894	0.01
797.195	0.01
797.497	0.01
797.798	0.01
798.1	0.01
798.401	0.01
798.702	0.01
799.003	0.01
799.304	0.01
799.605	0.01
799.906	0.01
800.207	0.01
800.508	0.01
800.809	0.01
801.11	0.01
801.41	0.01
801.711	0.01
802.011	0.01
802.312	0.01
802.612	0.01
802.913	0.01
803.213	0.01
803.513	0.01
803.813	0.01
804.113	0
804.413	0
804.713	0.01
805.013	0.01
805.313	0.01
805.613	0
805.912	0
806.212	0
806.511	0
806.811	0
807.11	0
807.41	0
807.709	0
808.008	0
808.307	0
808.606	0
808.905	0
809.204	0.01
809.503	0.01
809.802	0.01
810.101	0.01
810.399	0.01
810.698	0.01
810.997	0.01
811.295	0.01
811.593	0.01
811.892	0.01
812.19	0.01
812.488	0.01
812.786	0.01
813.084	0.01
813.383	0.01
813.68	0.01
813.978	0.01
814.276	0.02
814.574	0.02
814.872	0.02
815.169	0.01
815.467	0.01
815.764	0.01
816.062	0.01
816.359	0.01
816.656	0.01
816.954	0.01
817.251	0.01
817.548	0.01
817.845	0.02
818.142	0.01
818.439	0.01
818.735	0.01
819.032	0.01
819.329	0.01
819.626	0.01
819.922	0.01
820.219	0.01
820.515	0.01
820.811	0.01
821.108	0.01
821.404	0.01
821.7	0.01
821.996	0.01
822.292	0.01
822.588	0.01
822.884	0.01
823.18	0.01
823.475	0.01
823.771	0.01
824.067	0.01
824.362	0.01
824.658	0.01
824.953	0.01
825.249	0.01
825.544	0.01
825.839	0.01
826.134	0.01
826.429	0.01
826.724	0.01
827.019	0.01
827.314	0.01
827.609	0.01
827.904	0.01
828.198	0.01
828.493	0.02
828.787	0.02
829.082	0.02
829.376	0.02
829.671	0.02
829.965	0.02
830.259	0.02
830.553	0.02
830.847	0.02
831.141	0.02
831.435	0.02
831.729	0.02
832.023	0.02
832.317	0.02
832.61	0.02
832.904	0.02
833.197	0.02
833.491	0.02
833.784	0.02
834.077	0.02
834.371	0.02
834.664	0.02
834.957	0.02
835.25	0.02
835.543	0.02
835.836	0.02
836.129	0.02
836.421	0.02
836.714	0.02
837.007	0.02
837.299	0.02
837.592	0.02
837.884	0.02
838.177	0.02
838.469	0.02
838.761	0.02
839.053	0.02
839.345	0.02
839.637	0.02
839.929	0.02
840.221	0.02
840.513	0.02
840.805	0.02
841.096	0.02
841.388	0.01
841.68	0.02
841.971	0.02
842.262	0.02
842.554	0.02
842.845	0.02
843.136	0.02
843.427	0.03
843.718	0.03
844.009	0.03
844.3	0.03
844.591	0.03
844.882	0.03
845.173	0.03
845.463	0.03
845.754	0.02
846.044	0.02
846.335	0.02
846.625	0.02
846.915	0.02
847.206	0.02
847.496	0.02
847.786	0.02
848.076	0.02
848.366	0.02
848.656	0.02
848.945	0.02
849.235	0.02
849.525	0.02
849.814	0.02
850.104	0.02
850.393	0.02
850.683	0.02
850.972	0.02
851.261	0.02
851.551	0.02
851.84	0.01
852.129	0.02
852.418	0.02
852.707	0.02
852.995	0.02
853.284	0.02
853.573	0.02
853.862	0.02
854.15	0.02
854.439	0.02
854.727	0.03
855.015	0.03
855.304	0.03
855.592	0.03
855.88	0.03
856.168	0.03
856.456	0.03
856.744	0.03
857.032	0.03
857.32	0.03
857.607	0.03
857.895	0.03
858.183	0.03
858.47	0.03
858.757	0.03
859.045	0.03
859.332	0.02
859.619	0.02
859.907	0.02
860.194	0.02
860.481	0.02
860.768	0.02
861.054	0.03
861.341	0.03
861.628	0.03
861.915	0.03
862.201	0.03
862.488	0.03
862.774	0.03
863.061	0.03
863.347	0.03
863.633	0.02
863.919	0.02
864.205	0.02
864.491	0.01
864.777	0.02
865.063	0.01
865.349	0.01
865.635	0.01
865.92	0.02
866.206	0.02
866.492	0.02
866.777	0.02
867.062	0.02
867.348	0.02
867.633	0.02
867.918	0.02
868.203	0.02
868.488	0.02
868.773	0.02
869.058	0.02
869.343	0.02
869.628	0.02
869.912	0.01
870.197	0.01
870.482	0.01
870.766	0.01
871.05	0.01
871.335	0.01
871.619	0
871.903	-0.01
872.187	-0
872.471	-0
872.755	-0.01
873.039	-0.01
873.323	-0.02
873.607	-0.02
873.89	-0
874.174	0
874.458	0.01
874.741	0.02
875.024	0.02
875.308	0.02
875.591	0.02
875.874	0.01
876.157	-0.01
876.44	-0
876.723	0
877.006	0.02
877.289	0.02
877.572	0.01
877.854	0.02
878.137	0.02
878.42	-0
878.702	-0.01
878.984	-0.02
879.267	-0.03
879.549	-0.01
879.831	-0.01
880.113	-0.01
880.395	0.01
880.677	-0
880.959	-0.01
