Data from Rubpy_BV_300_EDTA_Buffered_Absorbance_12-13-04-654.txt Node
Date: Wed Jul 01 12:13:04 BST 2026
User: fpm-admin
Spectrometer: OFX00224
Trigger mode: 0
Integration Time (sec): 7.000000E-2
Scans to average: 1
Nonlinearity correction enabled: false
Boxcar width: 3
Storing dark spectrum: false
XAxis mode: Wavelengths
Number of Pixels in Spectrum: 2136
>>>>>Begin Spectral Data<<<<<
154.91	-0.38
155.289	-0.22
155.669	-0.3
156.048	-0.46
156.428	-0.63
156.807	-0.45
157.186	0.3
157.566	0.04
157.945	0.29
158.325	0.08
158.704	0.07
159.083	0.07
159.462	-0.02
159.842	0.06
160.221	0.09
160.6	-0.64
160.979	-0
161.359	-0
161.738	-0
162.117	-0
162.496	-0.63
162.875	-0.76
163.254	-0
163.633	0.74
164.012	-0
164.391	-0
164.77	-0.25
165.149	-0.32
165.528	-0.63
165.907	-0.42
166.286	-0.65
166.665	-0.49
167.044	-0.6
167.423	-1.13
167.802	-0
168.181	-0
168.559	0.34
168.938	0.17
169.317	0.33
169.696	0.54
170.074	0.67
170.453	0.5
170.832	0.45
171.21	0.35
171.589	0.81
171.968	-0
172.346	-0
172.725	-0
173.103	1.15
173.482	-0
173.861	-0
174.239	-0
174.617	0.57
174.996	0.94
175.374	-0
175.753	-0
176.131	-0
176.51	0.42
176.888	0.15
177.266	0.75
177.645	0.26
178.023	0.26
178.401	0.1
178.779	-0.1
179.158	-0.46
179.536	0.21
179.914	-0.02
180.292	0.35
180.67	0.03
181.048	-0.05
181.427	-0.52
181.805	-0
182.183	-1.8
182.561	-0
182.939	-0
183.317	-0
183.695	-0
184.073	0.56
184.451	-0
184.829	-0
185.206	-0.11
185.584	-0.15
185.962	0.01
186.34	0.01
186.718	0.21
187.096	0.18
187.473	0.24
187.851	0.18
188.229	0.15
188.607	0.11
188.984	0.14
189.362	0.16
189.74	0.13
190.117	0.13
190.495	0.12
190.872	0.12
191.25	0.12
191.627	0.08
192.005	0.06
192.382	0.09
192.76	0.09
193.137	0.1
193.515	0.07
193.892	0.09
194.269	0.1
194.647	0.13
195.024	0.12
195.401	0.12
195.779	0.13
196.156	0.14
196.533	0.13
196.91	0.14
197.288	0.15
197.665	0.13
198.042	0.15
198.419	0.16
198.796	0.18
199.173	0.16
199.55	0.15
199.927	0.09
200.304	0.11
200.681	0.11
201.058	0.11
201.435	0.1
201.812	0.11
202.189	0.1
202.566	0.14
202.943	0.15
203.32	0.16
203.697	0.13
204.073	0.13
204.45	0.13
204.827	0.16
205.204	0.13
205.58	0.1
205.957	0.08
206.334	0.1
206.71	0.1
207.087	0.11
207.464	0.1
207.84	0.11
208.217	0.13
208.593	0.14
208.97	0.11
209.346	0.11
209.723	0.09
210.099	0.13
210.476	0.13
210.852	0.16
211.228	0.15
211.605	0.15
211.981	0.17
212.357	0.16
212.733	0.14
213.11	0.16
213.486	0.14
213.862	0.14
214.238	0.14
214.614	0.14
214.991	0.14
215.367	0.13
215.743	0.1
216.119	0.1
216.495	0.1
216.871	0.09
217.247	0.06
217.623	0.07
217.999	0.06
218.375	0.08
218.751	0.06
219.127	0.05
219.502	0.06
219.878	0.09
220.254	0.09
220.63	0.1
221.006	0.11
221.381	0.08
221.757	0.08
222.133	0.08
222.508	0.1
222.884	0.08
223.26	0.09
223.635	0.08
224.011	0.11
224.386	0.16
224.762	0.12
225.137	0.11
225.513	0.1
225.888	0.1
226.264	0.09
226.639	0.09
227.014	0.06
227.39	0.12
227.765	0.11
228.14	0.14
228.516	0.17
228.891	0.16
229.266	0.14
229.641	0.14
230.017	0.12
230.392	0.11
230.767	0.09
231.142	0.08
231.517	0.09
231.892	0.11
232.267	0.15
232.642	0.15
233.017	0.17
233.392	0.17
233.767	0.15
234.142	0.14
234.517	0.12
234.892	0.1
235.267	0.08
235.641	0.1
236.016	0.1
236.391	0.14
236.766	0.14
237.14	0.16
237.515	0.16
237.89	0.18
238.264	0.19
238.639	0.19
239.014	0.19
239.388	0.21
239.763	0.22
240.137	0.19
240.512	0.19
240.886	0.19
241.261	0.18
241.635	0.15
242.009	0.15
242.384	0.12
242.758	0.15
243.132	0.18
243.507	0.16
243.881	0.17
244.255	0.17
244.629	0.14
245.004	0.12
245.378	0.11
245.752	0.09
246.126	0.1
246.5	0.11
246.874	0.13
247.248	0.14
247.622	0.18
247.996	0.18
248.37	0.16
248.744	0.14
249.118	0.15
249.492	0.13
249.866	0.13
250.24	0.14
250.613	0.17
250.987	0.18
251.361	0.18
251.735	0.18
252.108	0.18
252.482	0.18
252.856	0.15
253.229	0.12
253.603	0.1
253.977	0.08
254.35	0.08
254.724	0.07
255.097	0.07
255.471	0.07
255.844	0.07
256.218	0.08
256.591	0.1
256.964	0.11
257.338	0.12
257.711	0.14
258.084	0.15
258.458	0.15
258.831	0.17
259.204	0.17
259.577	0.15
259.95	0.15
260.323	0.14
260.697	0.13
261.07	0.14
261.443	0.12
261.816	0.1
262.189	0.09
262.562	0.07
262.935	0.06
263.308	0.06
263.68	0.04
264.053	0.04
264.426	0.04
264.799	0.04
265.172	0.05
265.545	0.05
265.917	0.05
266.29	0.04
266.663	0.04
267.035	0.03
267.408	0.02
267.781	0.05
268.153	0.07
268.526	0.08
268.898	0.09
269.271	0.09
269.643	0.11
270.016	0.1
270.388	0.09
270.76	0.08
271.133	0.08
271.505	0.09
271.877	0.1
272.25	0.13
272.622	0.14
272.994	0.16
273.366	0.16
273.739	0.18
274.111	0.18
274.483	0.19
274.855	0.17
275.227	0.17
275.599	0.17
275.971	0.18
276.343	0.18
276.715	0.18
277.087	0.18
277.459	0.16
277.831	0.18
278.203	0.17
278.574	0.16
278.946	0.14
279.318	0.14
279.69	0.14
280.061	0.16
280.433	0.16
280.805	0.17
281.176	0.17
281.548	0.18
281.92	0.17
282.291	0.17
282.663	0.17
283.034	0.16
283.406	0.15
283.777	0.16
284.148	0.17
284.52	0.19
284.891	0.17
285.262	0.19
285.634	0.18
286.005	0.17
286.376	0.16
286.747	0.17
287.119	0.18
287.49	0.18
287.861	0.16
288.232	0.17
288.603	0.16
288.974	0.18
289.345	0.14
289.716	0.13
290.087	0.13
290.458	0.13
290.829	0.14
291.2	0.15
291.571	0.15
291.941	0.18
292.312	0.19
292.683	0.18
293.054	0.19
293.424	0.2
293.795	0.18
294.166	0.18
294.536	0.17
294.907	0.16
295.277	0.18
295.648	0.18
296.018	0.17
296.389	0.16
296.759	0.16
297.13	0.14
297.5	0.14
297.871	0.12
298.241	0.11
298.611	0.11
298.981	0.11
299.352	0.1
299.722	0.11
300.092	0.09
300.462	0.07
300.832	0.06
301.202	0.05
301.573	0.05
301.943	0.04
302.313	0.03
302.683	0.04
303.053	0.05
303.422	0.05
303.792	0.04
304.162	0.04
304.532	0.04
304.902	0.04
305.272	0.03
305.641	0.04
306.011	0.04
306.381	0.04
306.75	0.04
307.12	0.04
307.49	0.04
307.859	0.05
308.229	0.05
308.598	0.05
308.968	0.05
309.337	0.06
309.707	0.06
310.076	0.06
310.445	0.06
310.815	0.07
311.184	0.07
311.553	0.08
311.923	0.08
312.292	0.08
312.661	0.09
313.03	0.09
313.399	0.09
313.768	0.09
314.137	0.1
314.506	0.1
314.875	0.1
315.244	0.1
315.613	0.11
315.982	0.11
316.351	0.11
316.72	0.11
317.089	0.12
317.458	0.12
317.826	0.12
318.195	0.12
318.564	0.12
318.933	0.13
319.301	0.13
319.67	0.13
320.038	0.13
320.407	0.14
320.775	0.14
321.144	0.14
321.512	0.14
321.881	0.15
322.249	0.15
322.618	0.15
322.986	0.15
323.354	0.16
323.723	0.16
324.091	0.16
324.459	0.16
324.827	0.16
325.195	0.16
325.564	0.17
325.932	0.17
326.3	0.17
326.668	0.17
327.036	0.17
327.404	0.18
327.772	0.18
328.14	0.18
328.508	0.18
328.875	0.19
329.243	0.19
329.611	0.2
329.979	0.2
330.346	0.2
330.714	0.2
331.082	0.21
331.449	0.21
331.817	0.21
332.185	0.21
332.552	0.22
332.92	0.22
333.287	0.23
333.655	0.23
334.022	0.23
334.389	0.24
334.757	0.24
335.124	0.25
335.491	0.25
335.859	0.26
336.226	0.27
336.593	0.27
336.96	0.27
337.327	0.28
337.695	0.28
338.062	0.29
338.429	0.3
338.796	0.3
339.163	0.31
339.53	0.31
339.897	0.32
340.263	0.33
340.63	0.33
340.997	0.34
341.364	0.34
341.731	0.35
342.097	0.36
342.464	0.36
342.831	0.37
343.197	0.38
343.564	0.38
343.931	0.39
344.297	0.4
344.664	0.4
345.03	0.41
345.396	0.42
345.763	0.42
346.129	0.43
346.496	0.43
346.862	0.44
347.228	0.44
347.594	0.45
347.961	0.46
348.327	0.46
348.693	0.47
349.059	0.48
349.425	0.48
349.791	0.49
350.157	0.49
350.523	0.5
350.889	0.51
351.255	0.51
351.621	0.52
351.987	0.52
352.353	0.53
352.719	0.54
353.084	0.54
353.45	0.55
353.816	0.55
354.181	0.56
354.547	0.57
354.913	0.58
355.278	0.58
355.644	0.59
356.009	0.6
356.375	0.61
356.74	0.62
357.106	0.63
357.471	0.64
357.836	0.64
358.202	0.65
358.567	0.66
358.932	0.67
359.297	0.68
359.663	0.69
360.028	0.7
360.393	0.71
360.758	0.72
361.123	0.73
361.488	0.74
361.853	0.75
362.218	0.76
362.583	0.77
362.948	0.77
363.312	0.78
363.677	0.79
364.042	0.8
364.407	0.81
364.772	0.82
365.136	0.83
365.501	0.84
365.865	0.84
366.23	0.85
366.595	0.86
366.959	0.87
367.324	0.87
367.688	0.88
368.052	0.9
368.417	0.91
368.781	0.92
369.145	0.93
369.51	0.93
369.874	0.94
370.238	0.95
370.602	0.95
370.967	0.95
371.331	0.95
371.695	0.96
372.059	0.96
372.423	0.96
372.787	0.96
373.151	0.96
373.515	0.96
373.878	0.96
374.242	0.96
374.606	0.95
374.97	0.95
375.334	0.94
375.697	0.93
376.061	0.92
376.425	0.91
376.788	0.9
377.152	0.89
377.515	0.89
377.879	0.88
378.242	0.87
378.606	0.86
378.969	0.85
379.333	0.84
379.696	0.83
380.059	0.82
380.422	0.81
380.786	0.8
381.149	0.8
381.512	0.79
381.875	0.78
382.238	0.77
382.601	0.76
382.964	0.76
383.327	0.75
383.69	0.75
384.053	0.74
384.416	0.74
384.779	0.73
385.142	0.73
385.504	0.73
385.867	0.73
386.23	0.72
386.593	0.72
386.955	0.72
387.318	0.72
387.68	0.72
388.043	0.72
388.405	0.72
388.768	0.72
389.13	0.72
389.493	0.72
389.855	0.72
390.217	0.71
390.58	0.71
390.942	0.7
391.304	0.69
391.666	0.69
392.028	0.68
392.391	0.67
392.753	0.67
393.115	0.66
393.477	0.65
393.839	0.65
394.201	0.64
394.563	0.64
394.924	0.64
395.286	0.65
395.648	0.65
396.01	0.66
396.371	0.66
396.733	0.67
397.095	0.68
397.456	0.69
397.818	0.71
398.18	0.72
398.541	0.74
398.903	0.76
399.264	0.78
399.625	0.8
399.987	0.81
400.348	0.83
400.709	0.84
401.071	0.85
401.432	0.85
401.793	0.85
402.154	0.85
402.515	0.84
402.876	0.83
403.238	0.81
403.599	0.79
403.96	0.77
404.32	0.74
404.681	0.71
405.042	0.69
405.403	0.65
405.764	0.63
406.125	0.59
406.485	0.56
406.846	0.53
407.207	0.51
407.567	0.48
407.928	0.45
408.288	0.43
408.649	0.41
409.009	0.38
409.37	0.36
409.73	0.34
410.091	0.31
410.451	0.3
410.811	0.28
411.171	0.27
411.532	0.26
411.892	0.24
412.252	0.23
412.612	0.22
412.972	0.21
413.332	0.2
413.692	0.19
414.052	0.18
414.412	0.17
414.772	0.16
415.132	0.16
415.492	0.15
415.851	0.15
416.211	0.14
416.571	0.14
416.931	0.13
417.29	0.13
417.65	0.13
418.009	0.12
418.369	0.12
418.728	0.11
419.088	0.11
419.447	0.11
419.807	0.11
420.166	0.1
420.525	0.1
420.884	0.1
421.244	0.09
421.603	0.09
421.962	0.09
422.321	0.08
422.68	0.08
423.039	0.08
423.398	0.08
423.757	0.08
424.116	0.08
424.475	0.08
424.834	0.08
425.193	0.08
425.551	0.08
425.91	0.08
426.269	0.07
426.628	0.07
426.986	0.07
427.345	0.07
427.703	0.07
428.062	0.07
428.42	0.07
428.779	0.07
429.137	0.07
429.496	0.07
429.854	0.07
430.212	0.06
430.57	0.06
430.929	0.06
431.287	0.06
431.645	0.06
432.003	0.06
432.361	0.06
432.719	0.07
433.077	0.07
433.435	0.07
433.793	0.07
434.151	0.06
434.509	0.06
434.866	0.06
435.224	0.06
435.582	0.06
435.94	0.06
436.297	0.06
436.655	0.06
437.012	0.06
437.37	0.06
437.727	0.06
438.085	0.06
438.442	0.06
438.8	0.06
439.157	0.06
439.514	0.06
439.872	0.06
440.229	0.06
440.586	0.06
440.943	0.06
441.3	0.06
441.657	0.06
442.014	0.06
442.371	0.06
442.728	0.06
443.085	0.06
443.442	0.06
443.799	0.06
444.156	0.06
444.513	0.06
444.869	0.06
445.226	0.06
445.583	0.05
445.939	0.05
446.296	0.05
446.652	0.05
447.009	0.05
447.365	0.05
447.722	0.05
448.078	0.06
448.434	0.06
448.791	0.06
449.147	0.06
449.503	0.06
449.859	0.06
450.215	0.06
450.571	0.06
450.928	0.06
451.284	0.06
451.64	0.06
451.995	0.06
452.351	0.05
452.707	0.06
453.063	0.06
453.419	0.06
453.775	0.06
454.13	0.06
454.486	0.06
454.842	0.06
455.197	0.06
455.553	0.06
455.908	0.05
456.264	0.05
456.619	0.05
456.975	0.05
457.33	0.05
457.685	0.05
458.04	0.05
458.396	0.05
458.751	0.04
459.106	0.04
459.461	0.04
459.816	0.03
460.171	0.03
460.526	0.03
460.881	0.03
461.236	0.04
461.591	0.03
461.946	0.03
462.301	0.04
462.655	0.04
463.01	0.04
463.365	0.04
463.719	0.03
464.074	0.03
464.428	0.03
464.783	0.03
465.137	0.02
465.492	0.02
465.846	0.02
466.201	0.02
466.555	0.02
466.909	0.02
467.263	0.03
467.618	0.03
467.972	0.03
468.326	0.03
468.68	0.03
469.034	0.03
469.388	0.04
469.742	0.03
470.096	0.04
470.45	0.04
470.804	0.04
471.157	0.04
471.511	0.04
471.865	0.05
472.218	0.05
472.572	0.05
472.926	0.05
473.279	0.05
473.633	0.05
473.986	0.05
474.34	0.06
474.693	0.06
475.046	0.06
475.4	0.07
475.753	0.07
476.106	0.07
476.459	0.08
476.812	0.08
477.165	0.09
477.519	0.09
477.872	0.1
478.224	0.1
478.577	0.11
478.93	0.11
479.283	0.11
479.636	0.12
479.989	0.12
480.341	0.12
480.694	0.12
481.047	0.12
481.399	0.13
481.752	0.13
482.104	0.13
482.457	0.13
482.809	0.14
483.162	0.14
483.514	0.15
483.866	0.15
484.219	0.15
484.571	0.15
484.923	0.16
485.275	0.16
485.627	0.16
485.979	0.16
486.331	0.16
486.683	0.16
487.035	0.16
487.387	0.17
487.739	0.17
488.091	0.17
488.443	0.18
488.794	0.18
489.146	0.19
489.498	0.19
489.849	0.19
490.201	0.2
490.552	0.2
490.904	0.2
491.255	0.2
491.607	0.2
491.958	0.2
492.309	0.21
492.661	0.21
493.012	0.21
493.363	0.21
493.714	0.21
494.065	0.22
494.416	0.22
494.767	0.22
495.118	0.22
495.469	0.22
495.82	0.23
496.171	0.23
496.522	0.23
496.872	0.23
497.223	0.23
497.574	0.23
497.924	0.24
498.275	0.24
498.626	0.24
498.976	0.24
499.327	0.25
499.677	0.25
500.027	0.25
500.378	0.25
500.728	0.25
501.078	0.26
501.428	0.26
501.779	0.26
502.129	0.26
502.479	0.26
502.829	0.26
503.179	0.27
503.529	0.27
503.879	0.27
504.229	0.27
504.578	0.28
504.928	0.28
505.278	0.28
505.628	0.28
505.977	0.28
506.327	0.29
506.676	0.29
507.026	0.29
507.375	0.29
507.725	0.29
508.074	0.3
508.424	0.3
508.773	0.3
509.122	0.3
509.471	0.3
509.82	0.3
510.17	0.3
510.519	0.3
510.868	0.31
511.217	0.31
511.566	0.31
511.915	0.31
512.263	0.32
512.612	0.32
512.961	0.32
513.31	0.32
513.659	0.33
514.007	0.33
514.356	0.33
514.704	0.33
515.053	0.33
515.401	0.33
515.75	0.33
516.098	0.34
516.447	0.34
516.795	0.34
517.143	0.34
517.491	0.34
517.839	0.34
518.188	0.34
518.536	0.34
518.884	0.35
519.232	0.35
519.58	0.35
519.928	0.35
520.275	0.35
520.623	0.35
520.971	0.35
521.319	0.36
521.666	0.36
522.014	0.36
522.362	0.36
522.709	0.37
523.057	0.37
523.404	0.37
523.752	0.37
524.099	0.37
524.446	0.37
524.794	0.37
525.141	0.37
525.488	0.38
525.835	0.38
526.182	0.38
526.529	0.38
526.876	0.38
527.223	0.38
527.57	0.38
527.917	0.38
528.264	0.38
528.611	0.39
528.958	0.39
529.304	0.39
529.651	0.39
529.998	0.39
530.344	0.39
530.691	0.39
531.037	0.39
531.384	0.39
531.73	0.39
532.076	0.4
532.423	0.4
532.769	0.4
533.115	0.4
533.461	0.4
533.807	0.4
534.154	0.4
534.5	0.4
534.846	0.4
535.192	0.41
535.537	0.41
535.883	0.41
536.229	0.41
536.575	0.41
536.921	0.41
537.266	0.41
537.612	0.41
537.957	0.42
538.303	0.42
538.649	0.42
538.994	0.42
539.339	0.42
539.685	0.42
540.03	0.42
540.375	0.42
540.721	0.42
541.066	0.42
541.411	0.42
541.756	0.42
542.101	0.42
542.446	0.42
542.791	0.42
543.136	0.42
543.481	0.43
543.825	0.43
544.17	0.43
544.515	0.43
544.86	0.43
545.204	0.43
545.549	0.43
545.893	0.43
546.238	0.43
546.582	0.43
546.927	0.44
547.271	0.44
547.615	0.44
547.96	0.44
548.304	0.44
548.648	0.44
548.992	0.44
549.336	0.44
549.68	0.44
550.024	0.44
550.368	0.44
550.712	0.44
551.056	0.44
551.4	0.44
551.743	0.44
552.087	0.44
552.431	0.44
552.774	0.44
553.118	0.44
553.462	0.44
553.805	0.44
554.148	0.44
554.492	0.44
554.835	0.44
555.178	0.44
555.522	0.44
555.865	0.44
556.208	0.44
556.551	0.44
556.894	0.44
557.237	0.44
557.58	0.44
557.923	0.45
558.266	0.45
558.609	0.45
558.952	0.45
559.294	0.45
559.637	0.44
559.98	0.44
560.322	0.44
560.665	0.44
561.007	0.44
561.35	0.44
561.692	0.44
562.034	0.44
562.377	0.44
562.719	0.44
563.061	0.44
563.403	0.44
563.745	0.44
564.088	0.44
564.43	0.44
564.772	0.44
565.113	0.44
565.455	0.44
565.797	0.44
566.139	0.44
566.481	0.44
566.822	0.44
567.164	0.44
567.506	0.43
567.847	0.43
568.189	0.43
568.53	0.43
568.872	0.43
569.213	0.43
569.554	0.42
569.895	0.42
570.237	0.42
570.578	0.42
570.919	0.42
571.26	0.42
571.601	0.42
571.942	0.42
572.283	0.42
572.624	0.42
572.965	0.42
573.306	0.42
573.646	0.42
573.987	0.41
574.328	0.41
574.668	0.41
575.009	0.41
575.349	0.41
575.69	0.4
576.03	0.4
576.37	0.4
576.711	0.4
577.051	0.4
577.391	0.4
577.731	0.4
578.072	0.4
578.412	0.4
578.752	0.39
579.092	0.38
579.431	0.38
579.771	0.37
580.111	0.38
580.451	0.38
580.791	0.38
581.13	0.38
581.47	0.39
581.81	0.39
582.149	0.38
582.489	0.37
582.828	0.36
583.167	0.35
583.507	0.34
583.846	0.34
584.185	0.34
584.525	0.35
584.864	0.36
585.203	0.37
585.542	0.38
585.881	0.39
586.22	0.38
586.559	0.38
586.898	0.37
587.236	0.37
587.575	0.37
587.914	0.37
588.252	0.37
588.591	0.38
588.93	0.38
589.268	0.38
589.607	0.38
589.945	0.39
590.283	0.39
590.622	0.39
590.96	0.39
591.298	0.39
591.636	0.4
591.974	0.4
592.313	0.4
592.651	0.4
592.989	0.4
593.326	0.39
593.664	0.39
594.002	0.39
594.34	0.38
594.678	0.38
595.015	0.38
595.353	0.38
595.691	0.38
596.028	0.39
596.366	0.39
596.703	0.4
597.04	0.4
597.378	0.4
597.715	0.4
598.052	0.4
598.389	0.4
598.726	0.4
599.064	0.4
599.401	0.39
599.738	0.39
600.074	0.39
600.411	0.39
600.748	0.39
601.085	0.38
601.422	0.38
601.758	0.38
602.095	0.38
602.432	0.39
602.768	0.39
603.105	0.39
603.441	0.39
603.777	0.4
604.114	0.4
604.45	0.39
604.786	0.39
605.122	0.39
605.459	0.39
605.795	0.39
606.131	0.39
606.467	0.39
606.803	0.39
607.139	0.39
607.474	0.38
607.81	0.38
608.146	0.38
608.482	0.38
608.817	0.38
609.153	0.38
609.488	0.38
609.824	0.38
610.159	0.38
610.495	0.38
610.83	0.38
611.165	0.38
611.5	0.38
611.836	0.37
612.171	0.37
612.506	0.37
612.841	0.37
613.176	0.37
613.511	0.37
613.845	0.37
614.18	0.37
614.515	0.37
614.85	0.37
615.184	0.37
615.519	0.36
615.854	0.36
616.188	0.36
616.523	0.36
616.857	0.36
617.191	0.36
617.526	0.36
617.86	0.36
618.194	0.36
618.528	0.36
618.862	0.36
619.196	0.35
619.53	0.35
619.864	0.35
620.198	0.35
620.532	0.35
620.866	0.35
621.2	0.34
621.533	0.34
621.867	0.34
622.201	0.34
622.534	0.34
622.868	0.34
623.201	0.34
623.534	0.34
623.868	0.34
624.201	0.33
624.534	0.33
624.868	0.33
625.201	0.33
625.534	0.32
625.867	0.32
626.2	0.32
626.533	0.32
626.865	0.32
627.198	0.32
627.531	0.32
627.864	0.31
628.196	0.31
628.529	0.31
628.862	0.31
629.194	0.31
629.527	0.31
629.859	0.31
630.191	0.3
630.524	0.3
630.856	0.3
631.188	0.3
631.52	0.3
631.852	0.3
632.184	0.3
632.516	0.3
632.848	0.29
633.18	0.29
633.512	0.29
633.844	0.29
634.175	0.29
634.507	0.28
634.839	0.28
635.17	0.28
635.502	0.28
635.833	0.27
636.165	0.27
636.496	0.27
636.827	0.27
637.159	0.27
637.49	0.26
637.821	0.26
638.152	0.26
638.483	0.26
638.814	0.26
639.145	0.26
639.476	0.26
639.807	0.25
640.137	0.25
640.468	0.25
640.799	0.25
641.129	0.25
641.46	0.24
641.791	0.24
642.121	0.24
642.451	0.24
642.782	0.24
643.112	0.24
643.442	0.24
643.773	0.23
644.103	0.23
644.433	0.23
644.763	0.23
645.093	0.23
645.423	0.23
645.753	0.23
646.082	0.22
646.412	0.22
646.742	0.22
647.072	0.22
647.401	0.22
647.731	0.21
648.06	0.21
648.39	0.21
648.719	0.21
649.048	0.21
649.378	0.21
649.707	0.21
650.036	0.21
650.365	0.21
650.694	0.21
651.023	0.21
651.352	0.21
651.681	0.21
652.01	0.21
652.339	0.21
652.668	0.21
652.996	0.2
653.325	0.2
653.654	0.2
653.982	0.2
654.311	0.2
654.639	0.2
654.967	0.2
655.296	0.2
655.624	0.2
655.952	0.2
656.28	0.19
656.609	0.17
656.937	0.14
657.265	0.1
657.593	0.08
657.92	0.06
658.248	0.05
658.576	0.06
658.904	0.07
659.231	0.1
659.559	0.12
659.887	0.16
660.214	0.18
660.542	0.2
660.869	0.2
661.196	0.2
661.524	0.19
661.851	0.19
662.178	0.19
662.505	0.19
662.832	0.19
663.159	0.19
663.486	0.19
663.813	0.19
664.14	0.18
664.467	0.18
664.794	0.18
665.12	0.18
665.447	0.18
665.774	0.18
666.1	0.18
666.427	0.18
666.753	0.18
667.079	0.17
667.406	0.17
667.732	0.17
668.058	0.17
668.384	0.17
668.71	0.17
669.036	0.17
669.362	0.17
669.688	0.17
670.014	0.17
670.34	0.17
670.666	0.16
670.991	0.16
671.317	0.16
671.643	0.16
671.968	0.16
672.294	0.15
672.619	0.15
672.945	0.15
673.27	0.15
673.595	0.15
673.92	0.15
674.246	0.15
674.571	0.15
674.896	0.15
675.221	0.15
675.546	0.14
675.87	0.14
676.195	0.14
676.52	0.14
676.845	0.14
677.169	0.13
677.494	0.13
677.819	0.13
678.143	0.13
678.468	0.13
678.792	0.13
679.116	0.13
679.44	0.13
679.765	0.13
680.089	0.12
680.413	0.12
680.737	0.12
681.061	0.12
681.385	0.12
681.709	0.12
682.033	0.11
682.356	0.11
682.68	0.11
683.004	0.11
683.327	0.11
683.651	0.11
683.974	0.11
684.298	0.1
684.621	0.1
684.944	0.1
685.268	0.1
685.591	0.1
685.914	0.1
686.237	0.09
686.56	0.09
686.883	0.09
687.206	0.09
687.529	0.08
687.852	0.08
688.175	0.08
688.497	0.08
688.82	0.08
689.142	0.08
689.465	0.08
689.787	0.08
690.11	0.08
690.432	0.08
690.755	0.08
691.077	0.08
691.399	0.08
691.721	0.08
692.043	0.07
692.365	0.07
692.687	0.07
693.009	0.07
693.331	0.07
693.653	0.07
693.974	0.07
694.296	0.06
694.618	0.06
694.939	0.06
695.261	0.06
695.582	0.06
695.904	0.06
696.225	0.06
696.546	0.06
696.868	0.06
697.189	0.06
697.51	0.06
697.831	0.05
698.152	0.05
698.473	0.05
698.794	0.04
699.114	0.04
699.435	0.04
699.756	0.04
700.077	0.04
700.397	0.04
700.718	0.04
701.038	0.05
701.359	0.05
701.679	0.05
701.999	0.05
702.32	0.05
702.64	0.05
702.96	0.04
703.28	0.04
703.6	0.04
703.92	0.04
704.24	0.04
704.56	0.04
704.879	0.04
705.199	0.04
705.519	0.04
705.838	0.04
706.158	0.04
706.478	0.04
706.797	0.04
707.116	0.04
707.436	0.04
707.755	0.04
708.074	0.04
708.393	0.03
708.712	0.03
709.031	0.03
709.35	0.02
709.669	0.02
709.988	0.02
710.307	0.02
710.626	0.03
710.944	0.03
711.263	0.03
711.582	0.03
711.9	0.03
712.219	0.03
712.537	0.03
712.855	0.03
713.174	0.03
713.492	0.03
713.81	0.03
714.128	0.03
714.446	0.03
714.764	0.03
715.082	0.03
715.4	0.03
715.718	0.03
716.035	0.03
716.353	0.03
716.671	0.03
716.988	0.03
717.306	0.04
717.623	0.04
717.941	0.04
718.258	0.04
718.575	0.04
718.893	0.04
719.21	0.04
719.527	0.04
719.844	0.04
720.161	0.04
720.478	0.04
720.795	0.04
721.112	0.04
721.428	0.04
721.745	0.04
722.062	0.04
722.378	0.04
722.695	0.04
723.011	0.04
723.328	0.04
723.644	0.04
723.96	0.04
724.276	0.04
724.593	0.04
724.909	0.04
725.225	0.04
725.541	0.04
725.857	0.04
726.173	0.05
726.488	0.05
726.804	0.05
727.12	0.05
727.435	0.05
727.751	0.04
728.067	0.04
728.382	0.04
728.697	0.04
729.013	0.04
729.328	0.04
729.643	0.04
729.958	0.04
730.273	0.04
730.588	0.04
730.903	0.04
731.218	0.04
731.533	0.04
731.848	0.04
732.163	0.04
732.477	0.04
732.792	0.04
733.107	0.04
733.421	0.04
733.736	0.04
734.05	0.04
734.364	0.04
734.678	0.04
734.993	0.04
735.307	0.04
735.621	0.04
735.935	0.04
736.249	0.04
736.563	0.04
736.877	0.04
737.19	0.04
737.504	0.04
737.818	0.04
738.131	0.04
738.445	0.04
738.758	0.04
739.072	0.04
739.385	0.04
739.698	0.04
740.012	0.04
740.325	0.04
740.638	0.04
740.951	0.04
741.264	0.04
741.577	0.04
741.89	0.04
742.203	0.04
742.515	0.04
742.828	0.04
743.141	0.04
743.453	0.04
743.766	0.04
744.078	0.04
744.391	0.04
744.703	0.04
745.015	0.04
745.327	0.04
745.639	0.04
745.952	0.04
746.264	0.04
746.575	0.03
746.887	0.03
747.199	0.03
747.511	0.03
747.823	0.03
748.134	0.03
748.446	0.03
748.757	0.03
749.069	0.03
749.38	0.03
749.692	0.02
750.003	0.02
750.314	0.02
750.625	0.02
750.936	0.02
751.248	0.02
751.559	0.02
751.869	0.02
752.18	0.02
752.491	0.02
752.802	0.02
753.112	0.02
753.423	0.02
753.734	0.02
754.044	0.02
754.355	0.02
754.665	0.02
754.975	0.02
755.285	0.02
755.596	0.02
755.906	0.02
756.216	0.02
756.526	0.02
756.836	0.02
757.146	0.02
757.455	0.01
757.765	0.01
758.075	0.01
758.385	0.01
758.694	0.01
759.004	0.01
759.313	0.01
759.622	0.01
759.932	0.01
760.241	0.01
760.55	0.01
760.859	0.01
761.168	0.01
761.477	0.01
761.786	0.01
762.095	0.01
762.404	0.01
762.713	0.01
763.021	0.01
763.33	0.01
763.639	0.01
763.947	0.01
764.256	0.01
764.564	0.01
764.872	0.01
765.181	0.01
765.489	0.01
765.797	0.01
766.105	0.01
766.413	0.01
766.721	0.01
767.029	0.01
767.337	0.01
767.644	0.01
767.952	0.01
768.26	0.02
768.567	0.02
768.875	0.01
769.182	0.01
769.49	0.01
769.797	0.01
770.104	0.01
770.411	0.01
770.718	0.01
771.026	0.01
771.333	0.01
771.639	0.01
771.946	0.01
772.253	0.01
772.56	0.01
772.867	0.01
773.173	0.01
773.48	0.01
773.786	0.01
774.093	0.01
774.399	0.01
774.705	0.01
775.012	0.01
775.318	0.01
775.624	0.01
775.93	0.01
776.236	0.01
776.542	0.01
776.848	0.01
777.154	0.01
777.459	0.01
777.765	0.01
778.071	0.01
778.376	0.01
778.682	0.01
778.987	0.01
779.292	0.01
779.598	0.01
779.903	0.01
780.208	0.01
780.513	0.01
780.818	0.01
781.123	0.01
781.428	0.01
781.733	0.01
782.038	0.01
782.343	0.01
782.647	0.01
782.952	0.01
783.256	0.01
783.561	0.01
783.865	0.01
784.17	0.01
784.474	0.01
784.778	0.02
785.082	0.02
785.386	0.02
785.69	0.02
785.994	0.01
786.298	0.01
786.602	0.01
786.906	0.01
787.209	0.01
787.513	0.01
787.817	0.01
788.12	0.01
788.424	0.01
788.727	0.01
789.03	0.01
789.333	0.01
789.637	0.01
789.94	0.01
790.243	0.01
790.546	0.02
790.849	0.02
791.152	0.02
791.454	0.02
791.757	0.01
792.06	0.01
792.362	0.01
792.665	0.01
792.967	0.01
793.27	0.01
793.572	0.01
793.874	0.01
794.177	0.01
794.479	0.01
794.781	0.01
795.083	0.01
795.385	0.01
795.687	0.02
795.989	0.02
796.29	0.02
796.592	0.02
796.894	0.02
797.195	0.02
797.497	0.02
797.798	0.02
798.1	0.02
798.401	0.02
798.702	0.02
799.003	0.01
799.304	0.01
799.605	0.01
799.906	0.01
800.207	0.01
800.508	0.02
800.809	0.02
801.11	0.02
801.41	0.02
801.711	0.02
802.011	0.01
802.312	0.01
802.612	0.01
802.913	0.01
803.213	0.01
803.513	0.01
803.813	0.01
804.113	0.01
804.413	0.01
804.713	0.01
805.013	0.01
805.313	0.01
805.613	0.01
805.912	0.02
806.212	0.02
806.511	0.01
806.811	0.01
807.11	0.01
807.41	0.01
807.709	0.01
808.008	0.01
808.307	0.01
808.606	0.02
808.905	0.02
809.204	0.02
809.503	0.02
809.802	0.02
810.101	0.03
810.399	0.03
810.698	0.03
810.997	0.02
811.295	0.02
811.593	0.02
811.892	0.02
812.19	0.02
812.488	0.02
812.786	0.02
813.084	0.02
813.383	0.02
813.68	0.03
813.978	0.03
814.276	0.03
814.574	0.03
814.872	0.03
815.169	0.03
815.467	0.03
815.764	0.03
816.062	0.03
816.359	0.03
816.656	0.03
816.954	0.03
817.251	0.03
817.548	0.03
817.845	0.03
818.142	0.03
818.439	0.03
818.735	0.03
819.032	0.03
819.329	0.03
819.626	0.03
819.922	0.03
820.219	0.03
820.515	0.03
820.811	0.03
821.108	0.03
821.404	0.03
821.7	0.02
821.996	0.02
822.292	0.03
822.588	0.03
822.884	0.03
823.18	0.03
823.475	0.03
823.771	0.03
824.067	0.03
824.362	0.03
824.658	0.03
824.953	0.03
825.249	0.03
825.544	0.03
825.839	0.03
826.134	0.03
826.429	0.03
826.724	0.03
827.019	0.04
827.314	0.04
827.609	0.04
827.904	0.04
828.198	0.04
828.493	0.04
828.787	0.04
829.082	0.04
829.376	0.04
829.671	0.04
829.965	0.04
830.259	0.04
830.553	0.04
830.847	0.04
831.141	0.04
831.435	0.04
831.729	0.04
832.023	0.04
832.317	0.04
832.61	0.04
832.904	0.04
833.197	0.04
833.491	0.04
833.784	0.04
834.077	0.04
834.371	0.04
834.664	0.04
834.957	0.04
835.25	0.04
835.543	0.04
835.836	0.04
836.129	0.04
836.421	0.05
836.714	0.05
837.007	0.05
837.299	0.05
837.592	0.05
837.884	0.05
838.177	0.05
838.469	0.05
838.761	0.05
839.053	0.05
839.345	0.05
839.637	0.05
839.929	0.05
840.221	0.05
840.513	0.05
840.805	0.05
841.096	0.05
841.388	0.05
841.68	0.05
841.971	0.05
842.262	0.05
842.554	0.05
842.845	0.05
843.136	0.06
843.427	0.06
843.718	0.06
844.009	0.06
844.3	0.06
844.591	0.06
844.882	0.06
845.173	0.06
845.463	0.06
845.754	0.06
846.044	0.06
846.335	0.06
846.625	0.06
846.915	0.06
847.206	0.06
847.496	0.06
847.786	0.06
848.076	0.06
848.366	0.06
848.656	0.06
848.945	0.06
849.235	0.06
849.525	0.06
849.814	0.06
850.104	0.06
850.393	0.06
850.683	0.06
850.972	0.06
851.261	0.06
851.551	0.06
851.84	0.06
852.129	0.06
852.418	0.06
852.707	0.06
852.995	0.07
853.284	0.06
853.573	0.06
853.862	0.06
854.15	0.06
854.439	0.06
854.727	0.06
855.015	0.06
855.304	0.07
855.592	0.06
855.88	0.06
856.168	0.06
856.456	0.06
856.744	0.06
857.032	0.06
857.32	0.06
857.607	0.07
857.895	0.07
858.183	0.07
858.47	0.07
858.757	0.07
859.045	0.07
859.332	0.07
859.619	0.07
859.907	0.07
860.194	0.06
860.481	0.06
860.768	0.06
861.054	0.07
861.341	0.07
861.628	0.07
861.915	0.07
862.201	0.08
862.488	0.08
862.774	0.08
863.061	0.08
863.347	0.08
863.633	0.08
863.919	0.07
864.205	0.06
864.491	0.06
864.777	0.06
865.063	0.06
865.349	0.06
865.635	0.06
865.92	0.06
866.206	0.07
866.492	0.06
866.777	0.06
867.062	0.06
867.348	0.06
867.633	0.06
867.918	0.06
868.203	0.06
868.488	0.07
868.773	0.07
869.058	0.07
869.343	0.07
869.628	0.06
869.912	0.06
870.197	0.06
870.482	0.06
870.766	0.06
871.05	0.05
871.335	0.06
871.619	0.06
871.903	0.05
872.187	0.05
872.471	0.05
872.755	0.05
873.039	0.06
873.323	0.06
873.607	0.06
873.89	0.07
874.174	0.08
874.458	0.07
874.741	0.08
875.024	0.07
875.308	0.06
875.591	0.07
875.874	0.06
876.157	0.06
876.44	0.08
876.723	0.09
877.006	0.1
877.289	0.09
877.572	0.07
877.854	0.07
878.137	0.05
878.42	0.01
878.702	-0.02
878.984	-0.03
879.267	-0.03
879.549	-0.01
879.831	-0.03
880.113	-0.02
880.395	-0
880.677	0.01
880.959	0.01
