Data from Rubpy_BV_300_EDTA_Buffered_Absorbance_12-04-19-690.txt Node
Date: Wed Jul 01 12:04:19 BST 2026
User: fpm-admin
Spectrometer: OFX00224
Trigger mode: 0
Integration Time (sec): 7.000000E-2
Scans to average: 1
Nonlinearity correction enabled: false
Boxcar width: 3
Storing dark spectrum: false
XAxis mode: Wavelengths
Number of Pixels in Spectrum: 2136
>>>>>Begin Spectral Data<<<<<
154.91	-0.05
155.289	-0.04
155.669	-0.08
156.048	-0.22
156.428	-0.21
156.807	-0
157.186	-0.12
157.566	0.22
157.945	0.28
158.325	0.12
158.704	0.23
159.083	0.34
159.462	0.73
159.842	0.6
160.221	0.25
160.6	-0.35
160.979	-0
161.359	-0
161.738	-0
162.117	-0
162.496	-0.63
162.875	-0.85
163.254	-0.42
163.633	0.23
164.012	-0
164.391	-0.6
164.77	0.23
165.149	-0.1
165.528	-0.63
165.907	-0.42
166.286	-0.57
166.665	-0.51
167.044	-0.83
167.423	-1.43
167.802	-0
168.181	-0
168.559	0.96
168.938	0.29
169.317	0.39
169.696	0.4
170.074	0.2
170.453	0.38
170.832	0.34
171.21	0.26
171.589	0.41
171.968	0.54
172.346	0.35
172.725	1.29
173.103	0.63
173.482	-0
173.861	-0
174.239	-0
174.617	-0
174.996	-0
175.374	0.87
175.753	-0
176.131	0.92
176.51	0.07
176.888	-0.16
177.266	0.04
177.645	-0.1
178.023	0.11
178.401	-0.04
178.779	-0.25
179.158	-0.64
179.536	0.05
179.914	-0.17
180.292	-0.23
180.67	-0
181.048	1.43
181.427	0.02
181.805	-0
182.183	-1.04
182.561	0.06
182.939	0.01
183.317	0.04
183.695	-0.01
184.073	-0.24
184.451	-1.08
184.829	-0
185.206	0.32
185.584	0.13
185.962	-0.1
186.34	-0.08
186.718	-0.06
187.096	-0.14
187.473	0.06
187.851	0.09
188.229	0.09
188.607	0.16
188.984	0.13
189.362	0.14
189.74	0.14
190.117	0.14
190.495	0.12
190.872	0.12
191.25	0.1
191.627	0.07
192.005	0.08
192.382	0.08
192.76	0.07
193.137	0.09
193.515	0.09
193.892	0.07
194.269	0.11
194.647	0.1
195.024	0.11
195.401	0.11
195.779	0.08
196.156	0.07
196.533	0.09
196.91	0.06
197.288	0.06
197.665	0.06
198.042	0.07
198.419	0.1
198.796	0.1
199.173	0.1
199.55	0.11
199.927	0.12
200.304	0.12
200.681	0.13
201.058	0.12
201.435	0.15
201.812	0.15
202.189	0.14
202.566	0.14
202.943	0.13
203.32	0.12
203.697	0.11
204.073	0.09
204.45	0.09
204.827	0.11
205.204	0.1
205.58	0.09
205.957	0.11
206.334	0.12
206.71	0.11
207.087	0.1
207.464	0.1
207.84	0.1
208.217	0.11
208.593	0.11
208.97	0.07
209.346	0.07
209.723	0.08
210.099	0.1
210.476	0.09
210.852	0.12
211.228	0.12
211.605	0.14
211.981	0.16
212.357	0.16
212.733	0.17
213.11	0.2
213.486	0.18
213.862	0.19
214.238	0.21
214.614	0.21
214.991	0.22
215.367	0.18
215.743	0.14
216.119	0.12
216.495	0.08
216.871	0.08
217.247	0.04
217.623	0.06
217.999	0.04
218.375	0.08
218.751	0.08
219.127	0.08
219.502	0.08
219.878	0.1
220.254	0.08
220.63	0.08
221.006	0.06
221.381	0.06
221.757	0.1
222.133	0.08
222.508	0.11
222.884	0.09
223.26	0.11
223.635	0.12
224.011	0.11
224.386	0.11
224.762	0.09
225.137	0.06
225.513	0.08
225.888	0.09
226.264	0.07
226.639	0.08
227.014	0.06
227.39	0.09
227.765	0.1
228.14	0.12
228.516	0.11
228.891	0.11
229.266	0.11
229.641	0.11
230.017	0.09
230.392	0.09
230.767	0.08
231.142	0.07
231.517	0.09
231.892	0.09
232.267	0.11
232.642	0.11
233.017	0.11
233.392	0.11
233.767	0.08
234.142	0.08
234.517	0.05
234.892	0.04
235.267	0.03
235.641	0.03
236.016	0.03
236.391	0.07
236.766	0.07
237.14	0.09
237.515	0.08
237.89	0.11
238.264	0.14
238.639	0.15
239.014	0.17
239.388	0.18
239.763	0.18
240.137	0.2
240.512	0.2
240.886	0.17
241.261	0.18
241.635	0.15
242.009	0.17
242.384	0.15
242.758	0.13
243.132	0.15
243.507	0.18
243.881	0.16
244.255	0.16
244.629	0.13
245.004	0.15
245.378	0.14
245.752	0.12
246.126	0.14
246.5	0.16
246.874	0.17
247.248	0.19
247.622	0.19
247.996	0.2
248.37	0.19
248.744	0.17
249.118	0.15
249.492	0.13
249.866	0.14
250.24	0.12
250.613	0.12
250.987	0.13
251.361	0.12
251.735	0.12
252.108	0.11
252.482	0.08
252.856	0.08
253.229	0.07
253.603	0.04
253.977	0.05
254.35	0.05
254.724	0.07
255.097	0.08
255.471	0.08
255.844	0.09
256.218	0.11
256.591	0.11
256.964	0.12
257.338	0.13
257.711	0.13
258.084	0.12
258.458	0.14
258.831	0.14
259.204	0.14
259.577	0.13
259.95	0.13
260.323	0.15
260.697	0.16
261.07	0.15
261.443	0.16
261.816	0.16
262.189	0.15
262.562	0.15
262.935	0.13
263.308	0.13
263.68	0.12
264.053	0.09
264.426	0.07
264.799	0.08
265.172	0.07
265.545	0.05
265.917	0.06
266.29	0.06
266.663	0.06
267.035	0.04
267.408	0.02
267.781	0.05
268.153	0.06
268.526	0.05
268.898	0.06
269.271	0.07
269.643	0.09
270.016	0.1
270.388	0.1
270.76	0.09
271.133	0.09
271.505	0.09
271.877	0.1
272.25	0.13
272.622	0.12
272.994	0.11
273.366	0.13
273.739	0.14
274.111	0.13
274.483	0.13
274.855	0.1
275.227	0.12
275.599	0.11
275.971	0.14
276.343	0.13
276.715	0.14
277.087	0.16
277.459	0.18
277.831	0.18
278.203	0.18
278.574	0.16
278.946	0.14
279.318	0.12
279.69	0.11
280.061	0.1
280.433	0.09
280.805	0.09
281.176	0.09
281.548	0.11
281.92	0.11
282.291	0.1
282.663	0.12
283.034	0.11
283.406	0.11
283.777	0.12
284.148	0.13
284.52	0.14
284.891	0.15
285.262	0.14
285.634	0.16
286.005	0.15
286.376	0.14
286.747	0.13
287.119	0.13
287.49	0.11
287.861	0.12
288.232	0.1
288.603	0.09
288.974	0.09
289.345	0.08
289.716	0.07
290.087	0.08
290.458	0.07
290.829	0.08
291.2	0.09
291.571	0.09
291.941	0.1
292.312	0.12
292.683	0.11
293.054	0.12
293.424	0.11
293.795	0.09
294.166	0.1
294.536	0.11
294.907	0.09
295.277	0.11
295.648	0.1
296.018	0.11
296.389	0.13
296.759	0.13
297.13	0.11
297.5	0.12
297.871	0.11
298.241	0.12
298.611	0.12
298.981	0.11
299.352	0.09
299.722	0.09
300.092	0.08
300.462	0.07
300.832	0.06
301.202	0.05
301.573	0.05
301.943	0.05
302.313	0.05
302.683	0.05
303.053	0.05
303.422	0.05
303.792	0.04
304.162	0.04
304.532	0.04
304.902	0.04
305.272	0.03
305.641	0.03
306.011	0.03
306.381	0.03
306.75	0.03
307.12	0.03
307.49	0.03
307.859	0.04
308.229	0.04
308.598	0.05
308.968	0.05
309.337	0.05
309.707	0.05
310.076	0.05
310.445	0.05
310.815	0.06
311.184	0.06
311.553	0.06
311.923	0.06
312.292	0.06
312.661	0.07
313.03	0.07
313.399	0.07
313.768	0.07
314.137	0.07
314.506	0.07
314.875	0.08
315.244	0.08
315.613	0.08
315.982	0.09
316.351	0.09
316.72	0.09
317.089	0.09
317.458	0.09
317.826	0.09
318.195	0.09
318.564	0.1
318.933	0.1
319.301	0.1
319.67	0.1
320.038	0.1
320.407	0.1
320.775	0.11
321.144	0.11
321.512	0.11
321.881	0.11
322.249	0.11
322.618	0.11
322.986	0.11
323.354	0.11
323.723	0.11
324.091	0.12
324.459	0.12
324.827	0.12
325.195	0.12
325.564	0.12
325.932	0.12
326.3	0.12
326.668	0.13
327.036	0.13
327.404	0.13
327.772	0.13
328.14	0.14
328.508	0.14
328.875	0.14
329.243	0.14
329.611	0.15
329.979	0.15
330.346	0.15
330.714	0.15
331.082	0.16
331.449	0.16
331.817	0.16
332.185	0.16
332.552	0.16
332.92	0.17
333.287	0.17
333.655	0.17
334.022	0.18
334.389	0.18
334.757	0.19
335.124	0.19
335.491	0.19
335.859	0.2
336.226	0.2
336.593	0.2
336.96	0.21
337.327	0.21
337.695	0.22
338.062	0.22
338.429	0.22
338.796	0.23
339.163	0.23
339.53	0.24
339.897	0.24
340.263	0.24
340.63	0.25
340.997	0.25
341.364	0.25
341.731	0.26
342.097	0.26
342.464	0.27
342.831	0.27
343.197	0.28
343.564	0.28
343.931	0.29
344.297	0.29
344.664	0.3
345.03	0.3
345.396	0.31
345.763	0.31
346.129	0.32
346.496	0.32
346.862	0.33
347.228	0.33
347.594	0.34
347.961	0.34
348.327	0.35
348.693	0.35
349.059	0.36
349.425	0.36
349.791	0.36
350.157	0.37
350.523	0.37
350.889	0.38
351.255	0.38
351.621	0.39
351.987	0.39
352.353	0.4
352.719	0.4
353.084	0.41
353.45	0.41
353.816	0.42
354.181	0.42
354.547	0.43
354.913	0.43
355.278	0.44
355.644	0.44
356.009	0.45
356.375	0.45
356.74	0.46
357.106	0.47
357.471	0.47
357.836	0.48
358.202	0.49
358.567	0.49
358.932	0.5
359.297	0.51
359.663	0.52
360.028	0.52
360.393	0.53
360.758	0.54
361.123	0.55
361.488	0.55
361.853	0.56
362.218	0.57
362.583	0.58
362.948	0.58
363.312	0.59
363.677	0.6
364.042	0.61
364.407	0.61
364.772	0.62
365.136	0.62
365.501	0.63
365.865	0.64
366.23	0.64
366.595	0.65
366.959	0.66
367.324	0.66
367.688	0.67
368.052	0.68
368.417	0.68
368.781	0.69
369.145	0.7
369.51	0.7
369.874	0.71
370.238	0.71
370.602	0.72
370.967	0.73
371.331	0.73
371.695	0.73
372.059	0.74
372.423	0.74
372.787	0.74
373.151	0.74
373.515	0.73
373.878	0.73
374.242	0.73
374.606	0.72
374.97	0.72
375.334	0.71
375.697	0.71
376.061	0.7
376.425	0.69
376.788	0.69
377.152	0.68
377.515	0.68
377.879	0.67
378.242	0.67
378.606	0.66
378.969	0.65
379.333	0.65
379.696	0.64
380.059	0.63
380.422	0.62
380.786	0.62
381.149	0.61
381.512	0.61
381.875	0.6
382.238	0.6
382.601	0.59
382.964	0.59
383.327	0.58
383.69	0.58
384.053	0.57
384.416	0.57
384.779	0.57
385.142	0.57
385.504	0.57
385.867	0.57
386.23	0.57
386.593	0.57
386.955	0.57
387.318	0.57
387.68	0.57
388.043	0.57
388.405	0.57
388.768	0.56
389.13	0.56
389.493	0.56
389.855	0.56
390.217	0.56
390.58	0.56
390.942	0.56
391.304	0.55
391.666	0.55
392.028	0.54
392.391	0.53
392.753	0.53
393.115	0.52
393.477	0.52
393.839	0.51
394.201	0.51
394.563	0.51
394.924	0.51
395.286	0.51
395.648	0.52
396.01	0.52
396.371	0.53
396.733	0.53
397.095	0.54
397.456	0.55
397.818	0.56
398.18	0.58
398.541	0.59
398.903	0.61
399.264	0.62
399.625	0.64
399.987	0.65
400.348	0.67
400.709	0.68
401.071	0.69
401.432	0.69
401.793	0.69
402.154	0.69
402.515	0.68
402.876	0.67
403.238	0.66
403.599	0.64
403.96	0.63
404.32	0.61
404.681	0.58
405.042	0.56
405.403	0.53
405.764	0.51
406.125	0.48
406.485	0.46
406.846	0.43
407.207	0.41
407.567	0.39
407.928	0.37
408.288	0.35
408.649	0.33
409.009	0.31
409.37	0.29
409.73	0.27
410.091	0.26
410.451	0.24
410.811	0.23
411.171	0.22
411.532	0.21
411.892	0.2
412.252	0.19
412.612	0.18
412.972	0.17
413.332	0.16
413.692	0.15
414.052	0.15
414.412	0.14
414.772	0.14
415.132	0.13
415.492	0.12
415.851	0.12
416.211	0.12
416.571	0.11
416.931	0.1
417.29	0.1
417.65	0.1
418.009	0.1
418.369	0.09
418.728	0.09
419.088	0.09
419.447	0.09
419.807	0.09
420.166	0.08
420.525	0.08
420.884	0.08
421.244	0.08
421.603	0.07
421.962	0.07
422.321	0.07
422.68	0.07
423.039	0.07
423.398	0.07
423.757	0.07
424.116	0.07
424.475	0.06
424.834	0.06
425.193	0.06
425.551	0.06
425.91	0.06
426.269	0.06
426.628	0.05
426.986	0.05
427.345	0.05
427.703	0.06
428.062	0.06
428.42	0.06
428.779	0.06
429.137	0.06
429.496	0.06
429.854	0.06
430.212	0.06
430.57	0.06
430.929	0.05
431.287	0.05
431.645	0.05
432.003	0.05
432.361	0.05
432.719	0.06
433.077	0.06
433.435	0.05
433.793	0.05
434.151	0.05
434.509	0.05
434.866	0.05
435.224	0.05
435.582	0.05
435.94	0.05
436.297	0.05
436.655	0.05
437.012	0.05
437.37	0.05
437.727	0.05
438.085	0.05
438.442	0.05
438.8	0.05
439.157	0.05
439.514	0.05
439.872	0.05
440.229	0.05
440.586	0.05
440.943	0.05
441.3	0.05
441.657	0.05
442.014	0.05
442.371	0.05
442.728	0.04
443.085	0.05
443.442	0.05
443.799	0.05
444.156	0.05
444.513	0.05
444.869	0.05
445.226	0.04
445.583	0.04
445.939	0.04
446.296	0.04
446.652	0.04
447.009	0.04
447.365	0.04
447.722	0.04
448.078	0.04
448.434	0.04
448.791	0.04
449.147	0.04
449.503	0.04
449.859	0.04
450.215	0.05
450.571	0.04
450.928	0.04
451.284	0.04
451.64	0.04
451.995	0.04
452.351	0.04
452.707	0.04
453.063	0.04
453.419	0.05
453.775	0.05
454.13	0.05
454.486	0.05
454.842	0.05
455.197	0.04
455.553	0.04
455.908	0.04
456.264	0.03
456.619	0.03
456.975	0.03
457.33	0.03
457.685	0.03
458.04	0.03
458.396	0.03
458.751	0.03
459.106	0.02
459.461	0.02
459.816	0.02
460.171	0.02
460.526	0.02
460.881	0.02
461.236	0.02
461.591	0.01
461.946	0.01
462.301	0.01
462.655	0.02
463.01	0.02
463.365	0.02
463.719	0.01
464.074	0.01
464.428	0.01
464.783	0.01
465.137	0.01
465.492	0.01
465.846	0.01
466.201	0.01
466.555	0.01
466.909	0
467.263	0.01
467.618	0.01
467.972	0.01
468.326	0.01
468.68	0.01
469.034	0.01
469.388	0.01
469.742	0.01
470.096	0.01
470.45	0.01
470.804	0.01
471.157	0.01
471.511	0.02
471.865	0.02
472.218	0.02
472.572	0.02
472.926	0.02
473.279	0.02
473.633	0.03
473.986	0.03
474.34	0.03
474.693	0.03
475.046	0.04
475.4	0.04
475.753	0.04
476.106	0.05
476.459	0.05
476.812	0.05
477.165	0.06
477.519	0.06
477.872	0.07
478.224	0.07
478.577	0.07
478.93	0.08
479.283	0.08
479.636	0.08
479.989	0.08
480.341	0.09
480.694	0.09
481.047	0.09
481.399	0.09
481.752	0.09
482.104	0.09
482.457	0.09
482.809	0.1
483.162	0.1
483.514	0.1
483.866	0.11
484.219	0.11
484.571	0.11
484.923	0.11
485.275	0.11
485.627	0.12
485.979	0.12
486.331	0.12
486.683	0.12
487.035	0.12
487.387	0.12
487.739	0.13
488.091	0.13
488.443	0.13
488.794	0.13
489.146	0.14
489.498	0.14
489.849	0.14
490.201	0.15
490.552	0.14
490.904	0.15
491.255	0.15
491.607	0.15
491.958	0.15
492.309	0.15
492.661	0.15
493.012	0.16
493.363	0.16
493.714	0.16
494.065	0.16
494.416	0.17
494.767	0.17
495.118	0.17
495.469	0.17
495.82	0.17
496.171	0.17
496.522	0.17
496.872	0.17
497.223	0.17
497.574	0.18
497.924	0.18
498.275	0.18
498.626	0.18
498.976	0.18
499.327	0.19
499.677	0.19
500.027	0.19
500.378	0.19
500.728	0.19
501.078	0.19
501.428	0.19
501.779	0.19
502.129	0.19
502.479	0.19
502.829	0.2
503.179	0.2
503.529	0.2
503.879	0.2
504.229	0.2
504.578	0.21
504.928	0.21
505.278	0.21
505.628	0.21
505.977	0.21
506.327	0.21
506.676	0.22
507.026	0.22
507.375	0.22
507.725	0.22
508.074	0.22
508.424	0.22
508.773	0.22
509.122	0.22
509.471	0.23
509.82	0.23
510.17	0.23
510.519	0.23
510.868	0.23
511.217	0.23
511.566	0.23
511.915	0.24
512.263	0.24
512.612	0.24
512.961	0.24
513.31	0.24
513.659	0.25
514.007	0.25
514.356	0.25
514.704	0.25
515.053	0.25
515.401	0.25
515.75	0.25
516.098	0.25
516.447	0.26
516.795	0.26
517.143	0.26
517.491	0.26
517.839	0.26
518.188	0.26
518.536	0.26
518.884	0.26
519.232	0.26
519.58	0.27
519.928	0.27
520.275	0.27
520.623	0.27
520.971	0.27
521.319	0.27
521.666	0.27
522.014	0.27
522.362	0.28
522.709	0.28
523.057	0.28
523.404	0.28
523.752	0.28
524.099	0.28
524.446	0.28
524.794	0.28
525.141	0.28
525.488	0.28
525.835	0.28
526.182	0.29
526.529	0.29
526.876	0.29
527.223	0.29
527.57	0.29
527.917	0.29
528.264	0.29
528.611	0.29
528.958	0.29
529.304	0.29
529.651	0.29
529.998	0.29
530.344	0.3
530.691	0.3
531.037	0.3
531.384	0.3
531.73	0.3
532.076	0.3
532.423	0.3
532.769	0.3
533.115	0.3
533.461	0.3
533.807	0.3
534.154	0.3
534.5	0.3
534.846	0.3
535.192	0.3
535.537	0.3
535.883	0.3
536.229	0.31
536.575	0.31
536.921	0.31
537.266	0.31
537.612	0.31
537.957	0.32
538.303	0.32
538.649	0.32
538.994	0.32
539.339	0.32
539.685	0.32
540.03	0.32
540.375	0.32
540.721	0.32
541.066	0.32
541.411	0.32
541.756	0.32
542.101	0.32
542.446	0.32
542.791	0.32
543.136	0.33
543.481	0.33
543.825	0.33
544.17	0.33
544.515	0.33
544.86	0.32
545.204	0.33
545.549	0.33
545.893	0.33
546.238	0.33
546.582	0.33
546.927	0.33
547.271	0.33
547.615	0.33
547.96	0.33
548.304	0.33
548.648	0.33
548.992	0.33
549.336	0.33
549.68	0.33
550.024	0.34
550.368	0.34
550.712	0.34
551.056	0.34
551.4	0.34
551.743	0.34
552.087	0.34
552.431	0.34
552.774	0.34
553.118	0.34
553.462	0.34
553.805	0.34
554.148	0.34
554.492	0.34
554.835	0.34
555.178	0.34
555.522	0.34
555.865	0.34
556.208	0.34
556.551	0.34
556.894	0.34
557.237	0.34
557.58	0.34
557.923	0.34
558.266	0.34
558.609	0.34
558.952	0.34
559.294	0.34
559.637	0.34
559.98	0.34
560.322	0.34
560.665	0.34
561.007	0.34
561.35	0.34
561.692	0.34
562.034	0.34
562.377	0.34
562.719	0.34
563.061	0.34
563.403	0.34
563.745	0.34
564.088	0.34
564.43	0.34
564.772	0.34
565.113	0.34
565.455	0.34
565.797	0.34
566.139	0.34
566.481	0.34
566.822	0.34
567.164	0.34
567.506	0.33
567.847	0.33
568.189	0.33
568.53	0.33
568.872	0.33
569.213	0.33
569.554	0.33
569.895	0.33
570.237	0.33
570.578	0.33
570.919	0.33
571.26	0.33
571.601	0.32
571.942	0.32
572.283	0.32
572.624	0.32
572.965	0.32
573.306	0.32
573.646	0.32
573.987	0.32
574.328	0.32
574.668	0.32
575.009	0.32
575.349	0.31
575.69	0.31
576.03	0.31
576.37	0.31
576.711	0.31
577.051	0.31
577.391	0.31
577.731	0.31
578.072	0.31
578.412	0.31
578.752	0.3
579.092	0.29
579.431	0.29
579.771	0.28
580.111	0.28
580.451	0.28
580.791	0.29
581.13	0.29
581.47	0.29
581.81	0.3
582.149	0.3
582.489	0.28
582.828	0.27
583.167	0.26
583.507	0.25
583.846	0.25
584.185	0.25
584.525	0.26
584.864	0.27
585.203	0.28
585.542	0.29
585.881	0.29
586.22	0.29
586.559	0.29
586.898	0.28
587.236	0.28
587.575	0.28
587.914	0.28
588.252	0.28
588.591	0.29
588.93	0.29
589.268	0.29
589.607	0.29
589.945	0.3
590.283	0.3
590.622	0.3
590.96	0.3
591.298	0.3
591.636	0.31
591.974	0.31
592.313	0.31
592.651	0.31
592.989	0.31
593.326	0.31
593.664	0.3
594.002	0.3
594.34	0.3
594.678	0.29
595.015	0.29
595.353	0.29
595.691	0.3
596.028	0.3
596.366	0.3
596.703	0.3
597.04	0.31
597.378	0.31
597.715	0.31
598.052	0.31
598.389	0.31
598.726	0.31
599.064	0.31
599.401	0.31
599.738	0.31
600.074	0.3
600.411	0.3
600.748	0.3
601.085	0.3
601.422	0.3
601.758	0.3
602.095	0.3
602.432	0.3
602.768	0.3
603.105	0.3
603.441	0.31
603.777	0.31
604.114	0.31
604.45	0.31
604.786	0.31
605.122	0.3
605.459	0.3
605.795	0.3
606.131	0.3
606.467	0.3
606.803	0.3
607.139	0.3
607.474	0.3
607.81	0.3
608.146	0.3
608.482	0.3
608.817	0.3
609.153	0.3
609.488	0.3
609.824	0.3
610.159	0.3
610.495	0.3
610.83	0.3
611.165	0.3
611.5	0.3
611.836	0.29
612.171	0.29
612.506	0.29
612.841	0.29
613.176	0.29
613.511	0.29
613.845	0.29
614.18	0.29
614.515	0.29
614.85	0.29
615.184	0.29
615.519	0.29
615.854	0.29
616.188	0.28
616.523	0.28
616.857	0.28
617.191	0.28
617.526	0.28
617.86	0.28
618.194	0.28
618.528	0.28
618.862	0.28
619.196	0.28
619.53	0.28
619.864	0.27
620.198	0.27
620.532	0.27
620.866	0.27
621.2	0.27
621.533	0.27
621.867	0.27
622.201	0.27
622.534	0.27
622.868	0.27
623.201	0.26
623.534	0.26
623.868	0.26
624.201	0.26
624.534	0.26
624.868	0.26
625.201	0.26
625.534	0.26
625.867	0.26
626.2	0.25
626.533	0.25
626.865	0.25
627.198	0.25
627.531	0.25
627.864	0.25
628.196	0.25
628.529	0.25
628.862	0.25
629.194	0.25
629.527	0.24
629.859	0.24
630.191	0.24
630.524	0.24
630.856	0.24
631.188	0.24
631.52	0.23
631.852	0.23
632.184	0.23
632.516	0.23
632.848	0.23
633.18	0.23
633.512	0.23
633.844	0.23
634.175	0.23
634.507	0.22
634.839	0.22
635.17	0.22
635.502	0.22
635.833	0.22
636.165	0.22
636.496	0.22
636.827	0.21
637.159	0.21
637.49	0.21
637.821	0.21
638.152	0.21
638.483	0.21
638.814	0.21
639.145	0.21
639.476	0.2
639.807	0.2
640.137	0.2
640.468	0.2
640.799	0.2
641.129	0.19
641.46	0.19
641.791	0.19
642.121	0.19
642.451	0.19
642.782	0.19
643.112	0.19
643.442	0.19
643.773	0.19
644.103	0.18
644.433	0.18
644.763	0.18
645.093	0.18
645.423	0.18
645.753	0.18
646.082	0.18
646.412	0.17
646.742	0.17
647.072	0.17
647.401	0.17
647.731	0.17
648.06	0.17
648.39	0.17
648.719	0.16
649.048	0.16
649.378	0.16
649.707	0.16
650.036	0.16
650.365	0.16
650.694	0.16
651.023	0.16
651.352	0.16
651.681	0.16
652.01	0.16
652.339	0.16
652.668	0.16
652.996	0.16
653.325	0.16
653.654	0.16
653.982	0.16
654.311	0.16
654.639	0.16
654.967	0.16
655.296	0.16
655.624	0.16
655.952	0.16
656.28	0.16
656.609	0.14
656.937	0.11
657.265	0.09
657.593	0.06
657.92	0.04
658.248	0.04
658.576	0.04
658.904	0.05
659.231	0.07
659.559	0.09
659.887	0.11
660.214	0.14
660.542	0.15
660.869	0.16
661.196	0.16
661.524	0.16
661.851	0.15
662.178	0.15
662.505	0.15
662.832	0.15
663.159	0.15
663.486	0.15
663.813	0.15
664.14	0.15
664.467	0.15
664.794	0.14
665.12	0.14
665.447	0.14
665.774	0.14
666.1	0.14
666.427	0.14
666.753	0.14
667.079	0.14
667.406	0.14
667.732	0.14
668.058	0.14
668.384	0.14
668.71	0.13
669.036	0.13
669.362	0.13
669.688	0.13
670.014	0.13
670.34	0.13
670.666	0.13
670.991	0.13
671.317	0.13
671.643	0.13
671.968	0.13
672.294	0.13
672.619	0.12
672.945	0.12
673.27	0.12
673.595	0.12
673.92	0.12
674.246	0.12
674.571	0.12
674.896	0.12
675.221	0.12
675.546	0.11
675.87	0.11
676.195	0.11
676.52	0.11
676.845	0.11
677.169	0.11
677.494	0.1
677.819	0.1
678.143	0.1
678.468	0.1
678.792	0.1
679.116	0.1
679.44	0.1
679.765	0.1
680.089	0.1
680.413	0.1
680.737	0.1
681.061	0.1
681.385	0.09
681.709	0.09
682.033	0.09
682.356	0.09
682.68	0.09
683.004	0.09
683.327	0.09
683.651	0.09
683.974	0.09
684.298	0.09
684.621	0.09
684.944	0.09
685.268	0.08
685.591	0.08
685.914	0.08
686.237	0.08
686.56	0.07
686.883	0.07
687.206	0.07
687.529	0.07
687.852	0.07
688.175	0.07
688.497	0.07
688.82	0.07
689.142	0.07
689.465	0.07
689.787	0.06
690.11	0.06
690.432	0.06
690.755	0.06
691.077	0.06
691.399	0.06
691.721	0.06
692.043	0.06
692.365	0.06
692.687	0.06
693.009	0.06
693.331	0.06
693.653	0.05
693.974	0.05
694.296	0.05
694.618	0.05
694.939	0.05
695.261	0.05
695.582	0.05
695.904	0.05
696.225	0.05
696.546	0.05
696.868	0.05
697.189	0.05
697.51	0.05
697.831	0.04
698.152	0.04
698.473	0.04
698.794	0.04
699.114	0.03
699.435	0.03
699.756	0.03
700.077	0.03
700.397	0.03
700.718	0.04
701.038	0.04
701.359	0.04
701.679	0.04
701.999	0.04
702.32	0.04
702.64	0.04
702.96	0.04
703.28	0.04
703.6	0.04
703.92	0.04
704.24	0.03
704.56	0.03
704.879	0.03
705.199	0.03
705.519	0.03
705.838	0.03
706.158	0.03
706.478	0.03
706.797	0.03
707.116	0.03
707.436	0.03
707.755	0.03
708.074	0.03
708.393	0.03
708.712	0.02
709.031	0.02
709.35	0.02
709.669	0.02
709.988	0.02
710.307	0.02
710.626	0.02
710.944	0.02
711.263	0.02
711.582	0.03
711.9	0.03
712.219	0.03
712.537	0.03
712.855	0.03
713.174	0.03
713.492	0.03
713.81	0.03
714.128	0.03
714.446	0.03
714.764	0.02
715.082	0.02
715.4	0.02
715.718	0.02
716.035	0.02
716.353	0.02
716.671	0.03
716.988	0.03
717.306	0.03
717.623	0.03
717.941	0.03
718.258	0.03
718.575	0.03
718.893	0.03
719.21	0.03
719.527	0.03
719.844	0.03
720.161	0.03
720.478	0.03
720.795	0.03
721.112	0.04
721.428	0.03
721.745	0.04
722.062	0.04
722.378	0.04
722.695	0.04
723.011	0.04
723.328	0.03
723.644	0.04
723.96	0.04
724.276	0.04
724.593	0.04
724.909	0.04
725.225	0.04
725.541	0.04
725.857	0.04
726.173	0.04
726.488	0.04
726.804	0.04
727.12	0.04
727.435	0.04
727.751	0.04
728.067	0.04
728.382	0.04
728.697	0.04
729.013	0.04
729.328	0.04
729.643	0.04
729.958	0.04
730.273	0.04
730.588	0.04
730.903	0.03
731.218	0.03
731.533	0.03
731.848	0.03
732.163	0.03
732.477	0.03
732.792	0.03
733.107	0.03
733.421	0.03
733.736	0.03
734.05	0.03
734.364	0.04
734.678	0.04
734.993	0.03
735.307	0.03
735.621	0.03
735.935	0.03
736.249	0.03
736.563	0.03
736.877	0.03
737.19	0.03
737.504	0.03
737.818	0.04
738.131	0.04
738.445	0.04
738.758	0.04
739.072	0.04
739.385	0.04
739.698	0.04
740.012	0.04
740.325	0.04
740.638	0.03
740.951	0.03
741.264	0.03
741.577	0.03
741.89	0.03
742.203	0.03
742.515	0.03
742.828	0.03
743.141	0.03
743.453	0.03
743.766	0.03
744.078	0.03
744.391	0.03
744.703	0.03
745.015	0.03
745.327	0.03
745.639	0.03
745.952	0.03
746.264	0.03
746.575	0.03
746.887	0.03
747.199	0.03
747.511	0.03
747.823	0.03
748.134	0.03
748.446	0.03
748.757	0.03
749.069	0.02
749.38	0.02
749.692	0.02
750.003	0.02
750.314	0.02
750.625	0.02
750.936	0.02
751.248	0.02
751.559	0.02
751.869	0.02
752.18	0.02
752.491	0.02
752.802	0.02
753.112	0.02
753.423	0.02
753.734	0.02
754.044	0.02
754.355	0.02
754.665	0.02
754.975	0.02
755.285	0.02
755.596	0.02
755.906	0.02
756.216	0.02
756.526	0.02
756.836	0.01
757.146	0.01
757.455	0.01
757.765	0.01
758.075	0.01
758.385	0.01
758.694	0.01
759.004	0.01
759.313	0.01
759.622	0.01
759.932	0.01
760.241	0.01
760.55	0.01
760.859	0.01
761.168	0.01
761.477	0.01
761.786	0.01
762.095	0.01
762.404	0.01
762.713	0.01
763.021	0.01
763.33	0.01
763.639	0.01
763.947	0.02
764.256	0.02
764.564	0.01
764.872	0.01
765.181	0.01
765.489	0.01
765.797	0.01
766.105	0.01
766.413	0.01
766.721	0.01
767.029	0.01
767.337	0.01
767.644	0.02
767.952	0.02
768.26	0.02
768.567	0.02
768.875	0.02
769.182	0.02
769.49	0.02
769.797	0.02
770.104	0.02
770.411	0.02
770.718	0.02
771.026	0.02
771.333	0.02
771.639	0.02
771.946	0.02
772.253	0.02
772.56	0.02
772.867	0.02
773.173	0.02
773.48	0.02
773.786	0.02
774.093	0.02
774.399	0.02
774.705	0.02
775.012	0.02
775.318	0.02
775.624	0.02
775.93	0.02
776.236	0.02
776.542	0.02
776.848	0.02
777.154	0.02
777.459	0.01
777.765	0.01
778.071	0.01
778.376	0.01
778.682	0.01
778.987	0.01
779.292	0.01
779.598	0.01
779.903	0.01
780.208	0.01
780.513	0.01
780.818	0.01
781.123	0.01
781.428	0.01
781.733	0.01
782.038	0.01
782.343	0.01
782.647	0.01
782.952	0.01
783.256	0.01
783.561	0.01
783.865	0.01
784.17	0.01
784.474	0.01
784.778	0.01
785.082	0.01
785.386	0.01
785.69	0.01
785.994	0.01
786.298	0.01
786.602	0.01
786.906	0.01
787.209	0.01
787.513	0.01
787.817	0.01
788.12	0.01
788.424	0.01
788.727	0.01
789.03	0.01
789.333	0.01
789.637	0.01
789.94	0.01
790.243	0.01
790.546	0.01
790.849	0.01
791.152	0.02
791.454	0.02
791.757	0.02
792.06	0.01
792.362	0.01
792.665	0.01
792.967	0.01
793.27	0.01
793.572	0.01
793.874	0.01
794.177	0.01
794.479	0.01
794.781	0.01
795.083	0.01
795.385	0.01
795.687	0.01
795.989	0.01
796.29	0.01
796.592	0.02
796.894	0.02
797.195	0.02
797.497	0.02
797.798	0.02
798.1	0.02
798.401	0.02
798.702	0.01
799.003	0.02
799.304	0.01
799.605	0.01
799.906	0.02
800.207	0.02
800.508	0.02
800.809	0.02
801.11	0.02
801.41	0.02
801.711	0.02
802.011	0.02
802.312	0.02
802.612	0.01
802.913	0.01
803.213	0.01
803.513	0.01
803.813	0.01
804.113	0.01
804.413	0.01
804.713	0.01
805.013	0.01
805.313	0.01
805.613	0.01
805.912	0.01
806.212	0.01
806.511	0.01
806.811	0.01
807.11	0.01
807.41	0.01
807.709	0.01
808.008	0.01
808.307	0.01
808.606	0.01
808.905	0.01
809.204	0.02
809.503	0.02
809.802	0.02
810.101	0.02
810.399	0.02
810.698	0.02
810.997	0.02
811.295	0.02
811.593	0.02
811.892	0.02
812.19	0.02
812.488	0.02
812.786	0.02
813.084	0.02
813.383	0.02
813.68	0.02
813.978	0.02
814.276	0.02
814.574	0.02
814.872	0.02
815.169	0.02
815.467	0.02
815.764	0.02
816.062	0.02
816.359	0.02
816.656	0.02
816.954	0.02
817.251	0.02
817.548	0.02
817.845	0.02
818.142	0.02
818.439	0.02
818.735	0.02
819.032	0.02
819.329	0.02
819.626	0.02
819.922	0.02
820.219	0.02
820.515	0.02
820.811	0.02
821.108	0.02
821.404	0.02
821.7	0.02
821.996	0.02
822.292	0.02
822.588	0.02
822.884	0.02
823.18	0.02
823.475	0.02
823.771	0.02
824.067	0.02
824.362	0.02
824.658	0.02
824.953	0.02
825.249	0.02
825.544	0.02
825.839	0.02
826.134	0.03
826.429	0.03
826.724	0.03
827.019	0.03
827.314	0.03
827.609	0.03
827.904	0.03
828.198	0.03
828.493	0.03
828.787	0.03
829.082	0.03
829.376	0.03
829.671	0.03
829.965	0.03
830.259	0.03
830.553	0.03
830.847	0.03
831.141	0.03
831.435	0.03
831.729	0.04
832.023	0.04
832.317	0.04
832.61	0.04
832.904	0.03
833.197	0.03
833.491	0.03
833.784	0.03
834.077	0.03
834.371	0.03
834.664	0.03
834.957	0.03
835.25	0.03
835.543	0.03
835.836	0.03
836.129	0.03
836.421	0.03
836.714	0.03
837.007	0.03
837.299	0.03
837.592	0.03
837.884	0.03
838.177	0.03
838.469	0.03
838.761	0.03
839.053	0.03
839.345	0.03
839.637	0.03
839.929	0.02
840.221	0.03
840.513	0.02
840.805	0.02
841.096	0.02
841.388	0.02
841.68	0.03
841.971	0.03
842.262	0.03
842.554	0.03
842.845	0.03
843.136	0.03
843.427	0.04
843.718	0.04
844.009	0.04
844.3	0.04
844.591	0.04
844.882	0.04
845.173	0.04
845.463	0.04
845.754	0.04
846.044	0.04
846.335	0.04
846.625	0.04
846.915	0.04
847.206	0.04
847.496	0.04
847.786	0.04
848.076	0.04
848.366	0.04
848.656	0.04
848.945	0.04
849.235	0.04
849.525	0.04
849.814	0.04
850.104	0.04
850.393	0.04
850.683	0.04
850.972	0.04
851.261	0.03
851.551	0.03
851.84	0.03
852.129	0.04
852.418	0.04
852.707	0.04
852.995	0.04
853.284	0.04
853.573	0.03
853.862	0.04
854.15	0.03
854.439	0.03
854.727	0.03
855.015	0.04
855.304	0.04
855.592	0.04
855.88	0.04
856.168	0.04
856.456	0.04
856.744	0.03
857.032	0.03
857.32	0.03
857.607	0.03
857.895	0.04
858.183	0.04
858.47	0.04
858.757	0.04
859.045	0.04
859.332	0.04
859.619	0.04
859.907	0.04
860.194	0.04
860.481	0.03
860.768	0.03
861.054	0.03
861.341	0.03
861.628	0.03
861.915	0.04
862.201	0.04
862.488	0.04
862.774	0.04
863.061	0.04
863.347	0.04
863.633	0.04
863.919	0.04
864.205	0.03
864.491	0.03
864.777	0.03
865.063	0.03
865.349	0.03
865.635	0.03
865.92	0.03
866.206	0.05
866.492	0.04
866.777	0.04
867.062	0.04
867.348	0.04
867.633	0.04
867.918	0.04
868.203	0.04
868.488	0.03
868.773	0.02
869.058	0.03
869.343	0.03
869.628	0.02
869.912	0.03
870.197	0.03
870.482	0.04
870.766	0.04
871.05	0.04
871.335	0.03
871.619	0.03
871.903	0.02
872.187	0.02
872.471	0.02
872.755	0.03
873.039	0.02
873.323	0.02
873.607	0.03
873.89	0.04
874.174	0.05
874.458	0.04
874.741	0.03
875.024	0.03
875.308	0.03
875.591	0.03
875.874	0.02
876.157	0.02
876.44	0.04
876.723	0.05
877.006	0.07
877.289	0.07
877.572	0.06
877.854	0.06
878.137	0.05
878.42	0.03
878.702	0.01
878.984	-0
879.267	-0
879.549	0
879.831	0
880.113	0.01
880.395	0.02
880.677	0.04
880.959	0.04
