Data from Rubpy_BV_300_EDTA_Buffered_Absorbance_11-52-51-715.txt Node
Date: Wed Jul 01 11:52:51 BST 2026
User: fpm-admin
Spectrometer: OFX00224
Trigger mode: 0
Integration Time (sec): 7.000000E-2
Scans to average: 1
Nonlinearity correction enabled: false
Boxcar width: 3
Storing dark spectrum: false
XAxis mode: Wavelengths
Number of Pixels in Spectrum: 2136
>>>>>Begin Spectral Data<<<<<
154.91	-0.16
155.289	-0.18
155.669	-0.14
156.048	-0.35
156.428	-0.67
156.807	-0.68
157.186	-0
157.566	0.75
157.945	0.81
158.325	0.53
158.704	0.42
159.083	0.58
159.462	0.45
159.842	0.36
160.221	0.31
160.6	-0.33
160.979	-0
161.359	-0
161.738	-0
162.117	-0
162.496	-0.83
162.875	-0.85
163.254	-0.43
163.633	-0.32
164.012	0.02
164.391	-0
164.77	-0.2
165.149	-0.41
165.528	-0.61
165.907	-0.33
166.286	-0.65
166.665	-0.31
167.044	-0.43
167.423	-0
167.802	-0.07
168.181	-0.06
168.559	0.31
168.938	-0.07
169.317	0.18
169.696	0.28
170.074	0.41
170.453	0.68
170.832	0.4
171.21	0.02
171.589	0.31
171.968	0.51
172.346	0.38
172.725	0.06
173.103	-0.1
173.482	0.03
173.861	0.82
174.239	0.37
174.617	0.23
174.996	0.08
175.374	0.18
175.753	0.14
176.131	0.2
176.51	-0.11
176.888	-0.25
177.266	-0.2
177.645	-0.21
178.023	-0.09
178.401	-0.07
178.779	-0.25
179.158	-0.56
179.536	0.04
179.914	-0.05
180.292	0.07
180.67	-0
181.048	-0
181.427	0.1
181.805	-0.12
182.183	-0.78
182.561	0.34
182.939	0.02
183.317	0.67
183.695	1.57
184.073	0.23
184.451	-0
184.829	-0
185.206	0.26
185.584	-0.17
185.962	-0
186.34	1.07
186.718	0.34
187.096	0.81
187.473	0.37
187.851	0.32
188.229	0.25
188.607	0.19
188.984	0.18
189.362	0.17
189.74	0.18
190.117	0.14
190.495	0.13
190.872	0.12
191.25	0.1
191.627	0.08
192.005	0.07
192.382	0.04
192.76	0.07
193.137	0.06
193.515	0.05
193.892	0.05
194.269	0.05
194.647	0.06
195.024	0.07
195.401	0.05
195.779	0.05
196.156	0.04
196.533	0.05
196.91	0.05
197.288	0.08
197.665	0.09
198.042	0.11
198.419	0.14
198.796	0.15
199.173	0.14
199.55	0.14
199.927	0.12
200.304	0.12
200.681	0.1
201.058	0.07
201.435	0.11
201.812	0.13
202.189	0.13
202.566	0.12
202.943	0.13
203.32	0.16
203.697	0.14
204.073	0.1
204.45	0.11
204.827	0.12
205.204	0.13
205.58	0.11
205.957	0.11
206.334	0.15
206.71	0.15
207.087	0.15
207.464	0.14
207.84	0.15
208.217	0.15
208.593	0.14
208.97	0.1
209.346	0.09
209.723	0.1
210.099	0.1
210.476	0.1
210.852	0.11
211.228	0.12
211.605	0.13
211.981	0.13
212.357	0.12
212.733	0.11
213.11	0.11
213.486	0.13
213.862	0.13
214.238	0.13
214.614	0.14
214.991	0.13
215.367	0.14
215.743	0.13
216.119	0.1
216.495	0.08
216.871	0.08
217.247	0.06
217.623	0.08
217.999	0.05
218.375	0.05
218.751	0.03
219.127	0.02
219.502	0.02
219.878	0.04
220.254	0.03
220.63	0.04
221.006	0.06
221.381	0.08
221.757	0.11
222.133	0.12
222.508	0.14
222.884	0.12
223.26	0.11
223.635	0.12
224.011	0.1
224.386	0.11
224.762	0.09
225.137	0.09
225.513	0.1
225.888	0.11
226.264	0.1
226.639	0.09
227.014	0.07
227.39	0.11
227.765	0.1
228.14	0.11
228.516	0.13
228.891	0.13
229.266	0.14
229.641	0.15
230.017	0.15
230.392	0.13
230.767	0.08
231.142	0.07
231.517	0.08
231.892	0.07
232.267	0.06
232.642	0.05
233.017	0.04
233.392	0.06
233.767	0.03
234.142	0.03
234.517	0.04
234.892	0.04
235.267	0.03
235.641	0.05
236.016	0.05
236.391	0.1
236.766	0.09
237.14	0.11
237.515	0.09
237.89	0.11
238.264	0.13
238.639	0.13
239.014	0.11
239.388	0.13
239.763	0.12
240.137	0.14
240.512	0.13
240.886	0.11
241.261	0.1
241.635	0.08
242.009	0.07
242.384	0.06
242.758	0.06
243.132	0.04
243.507	0.06
243.881	0.05
244.255	0.08
244.629	0.06
245.004	0.06
245.378	0.06
245.752	0.06
246.126	0.06
246.5	0.08
246.874	0.08
247.248	0.08
247.622	0.09
247.996	0.08
248.37	0.05
248.744	0.06
249.118	0.06
249.492	0.04
249.866	0.05
250.24	0.05
250.613	0.06
250.987	0.11
251.361	0.09
251.735	0.07
252.108	0.07
252.482	0.04
252.856	0.04
253.229	0.05
253.603	0
253.977	0.01
254.35	0.02
254.724	0.04
255.097	0.05
255.471	0.05
255.844	0.05
256.218	0.06
256.591	0.06
256.964	0.07
257.338	0.08
257.711	0.08
258.084	0.08
258.458	0.07
258.831	0.08
259.204	0.09
259.577	0.08
259.95	0.09
260.323	0.11
260.697	0.1
261.07	0.12
261.443	0.12
261.816	0.11
262.189	0.11
262.562	0.08
262.935	0.08
263.308	0.08
263.68	0.07
264.053	0.05
264.426	0.05
264.799	0.06
265.172	0.08
265.545	0.07
265.917	0.08
266.29	0.07
266.663	0.07
267.035	0.06
267.408	0.04
267.781	0.06
268.153	0.06
268.526	0.03
268.898	0.06
269.271	0.06
269.643	0.08
270.016	0.07
270.388	0.05
270.76	0.04
271.133	0.06
271.505	0.06
271.877	0.06
272.25	0.08
272.622	0.1
272.994	0.1
273.366	0.09
273.739	0.11
274.111	0.1
274.483	0.09
274.855	0.07
275.227	0.08
275.599	0.07
275.971	0.09
276.343	0.07
276.715	0.07
277.087	0.09
277.459	0.09
277.831	0.09
278.203	0.11
278.574	0.1
278.946	0.1
279.318	0.11
279.69	0.09
280.061	0.09
280.433	0.08
280.805	0.06
281.176	0.06
281.548	0.07
281.92	0.06
282.291	0.07
282.663	0.08
283.034	0.08
283.406	0.09
283.777	0.1
284.148	0.1
284.52	0.11
284.891	0.12
285.262	0.11
285.634	0.1
286.005	0.08
286.376	0.07
286.747	0.09
287.119	0.09
287.49	0.08
287.861	0.07
288.232	0.08
288.603	0.08
288.974	0.07
289.345	0.06
289.716	0.03
290.087	0.04
290.458	0.04
290.829	0.05
291.2	0.07
291.571	0.07
291.941	0.08
292.312	0.09
292.683	0.09
293.054	0.1
293.424	0.1
293.795	0.09
294.166	0.1
294.536	0.11
294.907	0.11
295.277	0.12
295.648	0.11
296.018	0.11
296.389	0.1
296.759	0.11
297.13	0.09
297.5	0.1
297.871	0.09
298.241	0.08
298.611	0.08
298.981	0.08
299.352	0.07
299.722	0.07
300.092	0.06
300.462	0.05
300.832	0.05
301.202	0.03
301.573	0.03
301.943	0.04
302.313	0.03
302.683	0.03
303.053	0.03
303.422	0.03
303.792	0.03
304.162	0.03
304.532	0.03
304.902	0.03
305.272	0.03
305.641	0.03
306.011	0.03
306.381	0.03
306.75	0.03
307.12	0.02
307.49	0.03
307.859	0.03
308.229	0.03
308.598	0.03
308.968	0.03
309.337	0.03
309.707	0.04
310.076	0.04
310.445	0.04
310.815	0.04
311.184	0.04
311.553	0.04
311.923	0.04
312.292	0.04
312.661	0.04
313.03	0.05
313.399	0.05
313.768	0.05
314.137	0.05
314.506	0.05
314.875	0.05
315.244	0.05
315.613	0.06
315.982	0.06
316.351	0.06
316.72	0.06
317.089	0.06
317.458	0.06
317.826	0.06
318.195	0.06
318.564	0.07
318.933	0.07
319.301	0.07
319.67	0.07
320.038	0.07
320.407	0.07
320.775	0.07
321.144	0.07
321.512	0.07
321.881	0.07
322.249	0.08
322.618	0.08
322.986	0.08
323.354	0.08
323.723	0.08
324.091	0.08
324.459	0.08
324.827	0.08
325.195	0.08
325.564	0.09
325.932	0.09
326.3	0.09
326.668	0.09
327.036	0.09
327.404	0.09
327.772	0.09
328.14	0.09
328.508	0.09
328.875	0.09
329.243	0.1
329.611	0.1
329.979	0.1
330.346	0.1
330.714	0.1
331.082	0.1
331.449	0.1
331.817	0.11
332.185	0.11
332.552	0.11
332.92	0.11
333.287	0.11
333.655	0.11
334.022	0.11
334.389	0.12
334.757	0.12
335.124	0.12
335.491	0.13
335.859	0.13
336.226	0.13
336.593	0.13
336.96	0.14
337.327	0.14
337.695	0.14
338.062	0.15
338.429	0.15
338.796	0.15
339.163	0.15
339.53	0.16
339.897	0.16
340.263	0.16
340.63	0.16
340.997	0.17
341.364	0.17
341.731	0.17
342.097	0.17
342.464	0.18
342.831	0.18
343.197	0.18
343.564	0.19
343.931	0.19
344.297	0.2
344.664	0.2
345.03	0.2
345.396	0.2
345.763	0.21
346.129	0.21
346.496	0.21
346.862	0.22
347.228	0.22
347.594	0.22
347.961	0.22
348.327	0.23
348.693	0.23
349.059	0.23
349.425	0.24
349.791	0.24
350.157	0.24
350.523	0.25
350.889	0.25
351.255	0.25
351.621	0.26
351.987	0.26
352.353	0.27
352.719	0.27
353.084	0.27
353.45	0.27
353.816	0.28
354.181	0.28
354.547	0.28
354.913	0.29
355.278	0.29
355.644	0.29
356.009	0.3
356.375	0.3
356.74	0.31
357.106	0.31
357.471	0.32
357.836	0.32
358.202	0.32
358.567	0.33
358.932	0.33
359.297	0.34
359.663	0.34
360.028	0.35
360.393	0.35
360.758	0.36
361.123	0.37
361.488	0.37
361.853	0.38
362.218	0.38
362.583	0.39
362.948	0.4
363.312	0.4
363.677	0.41
364.042	0.41
364.407	0.41
364.772	0.42
365.136	0.42
365.501	0.43
365.865	0.43
366.23	0.43
366.595	0.44
366.959	0.44
367.324	0.45
367.688	0.45
368.052	0.46
368.417	0.47
368.781	0.47
369.145	0.47
369.51	0.48
369.874	0.48
370.238	0.49
370.602	0.49
370.967	0.49
371.331	0.5
371.695	0.5
372.059	0.5
372.423	0.5
372.787	0.5
373.151	0.5
373.515	0.5
373.878	0.5
374.242	0.5
374.606	0.5
374.97	0.49
375.334	0.49
375.697	0.49
376.061	0.48
376.425	0.48
376.788	0.48
377.152	0.47
377.515	0.47
377.879	0.46
378.242	0.46
378.606	0.45
378.969	0.45
379.333	0.45
379.696	0.44
380.059	0.44
380.422	0.43
380.786	0.43
381.149	0.43
381.512	0.42
381.875	0.42
382.238	0.42
382.601	0.42
382.964	0.41
383.327	0.41
383.69	0.41
384.053	0.41
384.416	0.41
384.779	0.4
385.142	0.4
385.504	0.4
385.867	0.4
386.23	0.41
386.593	0.41
386.955	0.41
387.318	0.41
387.68	0.41
388.043	0.41
388.405	0.41
388.768	0.41
389.13	0.41
389.493	0.42
389.855	0.42
390.217	0.41
390.58	0.41
390.942	0.41
391.304	0.41
391.666	0.41
392.028	0.4
392.391	0.4
392.753	0.4
393.115	0.4
393.477	0.39
393.839	0.39
394.201	0.39
394.563	0.39
394.924	0.39
395.286	0.39
395.648	0.39
396.01	0.4
396.371	0.4
396.733	0.41
397.095	0.41
397.456	0.42
397.818	0.43
398.18	0.44
398.541	0.46
398.903	0.47
399.264	0.48
399.625	0.49
399.987	0.51
400.348	0.52
400.709	0.53
401.071	0.53
401.432	0.54
401.793	0.54
402.154	0.54
402.515	0.53
402.876	0.53
403.238	0.52
403.599	0.51
403.96	0.49
404.32	0.47
404.681	0.46
405.042	0.44
405.403	0.42
405.764	0.4
406.125	0.38
406.485	0.36
406.846	0.34
407.207	0.32
407.567	0.3
407.928	0.28
408.288	0.27
408.649	0.25
409.009	0.24
409.37	0.22
409.73	0.21
410.091	0.2
410.451	0.19
410.811	0.18
411.171	0.17
411.532	0.16
411.892	0.15
412.252	0.14
412.612	0.14
412.972	0.13
413.332	0.12
413.692	0.11
414.052	0.11
414.412	0.1
414.772	0.1
415.132	0.1
415.492	0.09
415.851	0.09
416.211	0.09
416.571	0.08
416.931	0.08
417.29	0.08
417.65	0.08
418.009	0.07
418.369	0.07
418.728	0.07
419.088	0.07
419.447	0.06
419.807	0.06
420.166	0.06
420.525	0.06
420.884	0.05
421.244	0.05
421.603	0.05
421.962	0.05
422.321	0.05
422.68	0.05
423.039	0.04
423.398	0.05
423.757	0.05
424.116	0.04
424.475	0.04
424.834	0.05
425.193	0.04
425.551	0.05
425.91	0.04
426.269	0.04
426.628	0.04
426.986	0.04
427.345	0.04
427.703	0.04
428.062	0.04
428.42	0.04
428.779	0.04
429.137	0.04
429.496	0.04
429.854	0.04
430.212	0.03
430.57	0.03
430.929	0.03
431.287	0.03
431.645	0.03
432.003	0.03
432.361	0.03
432.719	0.03
433.077	0.03
433.435	0.03
433.793	0.03
434.151	0.03
434.509	0.03
434.866	0.03
435.224	0.03
435.582	0.03
435.94	0.04
436.297	0.03
436.655	0.04
437.012	0.04
437.37	0.04
437.727	0.04
438.085	0.04
438.442	0.03
438.8	0.03
439.157	0.04
439.514	0.03
439.872	0.03
440.229	0.03
440.586	0.03
440.943	0.03
441.3	0.03
441.657	0.03
442.014	0.03
442.371	0.03
442.728	0.03
443.085	0.03
443.442	0.03
443.799	0.03
444.156	0.03
444.513	0.03
444.869	0.03
445.226	0.03
445.583	0.03
445.939	0.03
446.296	0.03
446.652	0.03
447.009	0.03
447.365	0.03
447.722	0.02
448.078	0.02
448.434	0.02
448.791	0.02
449.147	0.02
449.503	0.02
449.859	0.02
450.215	0.02
450.571	0.02
450.928	0.02
451.284	0.02
451.64	0.02
451.995	0.02
452.351	0.02
452.707	0.02
453.063	0.02
453.419	0.02
453.775	0.02
454.13	0.02
454.486	0.02
454.842	0.02
455.197	0.02
455.553	0.02
455.908	0.02
456.264	0.02
456.619	0.02
456.975	0.01
457.33	0.01
457.685	0.02
458.04	0.02
458.396	0.02
458.751	0.01
459.106	0.01
459.461	0.01
459.816	0.01
460.171	0.01
460.526	0
460.881	0
461.236	0
461.591	0
461.946	-0
462.301	-0
462.655	-0
463.01	-0
463.365	-0
463.719	-0.01
464.074	-0.01
464.428	-0.01
464.783	-0.01
465.137	-0.02
465.492	-0.02
465.846	-0.02
466.201	-0.02
466.555	-0.02
466.909	-0.02
467.263	-0.01
467.618	-0.01
467.972	-0.01
468.326	-0.01
468.68	-0.01
469.034	-0.01
469.388	-0.01
469.742	-0.01
470.096	-0.01
470.45	-0.01
470.804	-0.01
471.157	-0.01
471.511	-0.01
471.865	-0.01
472.218	-0.01
472.572	-0.01
472.926	-0.01
473.279	-0
473.633	-0
473.986	-0
474.34	0
474.693	0
475.046	0.01
475.4	0.01
475.753	0.01
476.106	0.01
476.459	0.02
476.812	0.02
477.165	0.02
477.519	0.03
477.872	0.03
478.224	0.03
478.577	0.04
478.93	0.04
479.283	0.04
479.636	0.04
479.989	0.05
480.341	0.05
480.694	0.05
481.047	0.05
481.399	0.05
481.752	0.05
482.104	0.05
482.457	0.06
482.809	0.06
483.162	0.06
483.514	0.06
483.866	0.06
484.219	0.07
484.571	0.06
484.923	0.07
485.275	0.07
485.627	0.07
485.979	0.07
486.331	0.07
486.683	0.07
487.035	0.08
487.387	0.08
487.739	0.08
488.091	0.08
488.443	0.08
488.794	0.09
489.146	0.09
489.498	0.09
489.849	0.09
490.201	0.09
490.552	0.09
490.904	0.09
491.255	0.09
491.607	0.09
491.958	0.1
492.309	0.1
492.661	0.1
493.012	0.1
493.363	0.1
493.714	0.1
494.065	0.1
494.416	0.1
494.767	0.1
495.118	0.1
495.469	0.1
495.82	0.11
496.171	0.11
496.522	0.11
496.872	0.11
497.223	0.11
497.574	0.11
497.924	0.11
498.275	0.11
498.626	0.12
498.976	0.12
499.327	0.12
499.677	0.12
500.027	0.12
500.378	0.12
500.728	0.12
501.078	0.12
501.428	0.12
501.779	0.13
502.129	0.13
502.479	0.13
502.829	0.13
503.179	0.13
503.529	0.13
503.879	0.13
504.229	0.13
504.578	0.13
504.928	0.14
505.278	0.14
505.628	0.14
505.977	0.14
506.327	0.14
506.676	0.14
507.026	0.14
507.375	0.15
507.725	0.15
508.074	0.15
508.424	0.15
508.773	0.15
509.122	0.15
509.471	0.15
509.82	0.15
510.17	0.15
510.519	0.15
510.868	0.15
511.217	0.15
511.566	0.15
511.915	0.16
512.263	0.16
512.612	0.16
512.961	0.16
513.31	0.16
513.659	0.16
514.007	0.16
514.356	0.16
514.704	0.16
515.053	0.16
515.401	0.16
515.75	0.17
516.098	0.17
516.447	0.17
516.795	0.17
517.143	0.17
517.491	0.17
517.839	0.17
518.188	0.17
518.536	0.17
518.884	0.17
519.232	0.18
519.58	0.18
519.928	0.18
520.275	0.18
520.623	0.18
520.971	0.18
521.319	0.18
521.666	0.18
522.014	0.18
522.362	0.18
522.709	0.19
523.057	0.18
523.404	0.18
523.752	0.18
524.099	0.18
524.446	0.19
524.794	0.19
525.141	0.19
525.488	0.19
525.835	0.19
526.182	0.19
526.529	0.19
526.876	0.19
527.223	0.19
527.57	0.19
527.917	0.19
528.264	0.19
528.611	0.19
528.958	0.19
529.304	0.2
529.651	0.2
529.998	0.2
530.344	0.2
530.691	0.2
531.037	0.2
531.384	0.2
531.73	0.2
532.076	0.2
532.423	0.2
532.769	0.2
533.115	0.2
533.461	0.2
533.807	0.21
534.154	0.2
534.5	0.2
534.846	0.2
535.192	0.2
535.537	0.2
535.883	0.21
536.229	0.21
536.575	0.21
536.921	0.21
537.266	0.21
537.612	0.21
537.957	0.21
538.303	0.21
538.649	0.21
538.994	0.21
539.339	0.21
539.685	0.22
540.03	0.22
540.375	0.22
540.721	0.22
541.066	0.22
541.411	0.22
541.756	0.22
542.101	0.22
542.446	0.22
542.791	0.22
543.136	0.22
543.481	0.22
543.825	0.22
544.17	0.22
544.515	0.22
544.86	0.22
545.204	0.22
545.549	0.22
545.893	0.22
546.238	0.22
546.582	0.22
546.927	0.23
547.271	0.23
547.615	0.23
547.96	0.22
548.304	0.23
548.648	0.23
548.992	0.23
549.336	0.23
549.68	0.23
550.024	0.23
550.368	0.23
550.712	0.23
551.056	0.23
551.4	0.23
551.743	0.23
552.087	0.23
552.431	0.23
552.774	0.23
553.118	0.23
553.462	0.23
553.805	0.23
554.148	0.23
554.492	0.23
554.835	0.23
555.178	0.23
555.522	0.23
555.865	0.23
556.208	0.23
556.551	0.23
556.894	0.23
557.237	0.23
557.58	0.23
557.923	0.23
558.266	0.23
558.609	0.23
558.952	0.23
559.294	0.23
559.637	0.23
559.98	0.23
560.322	0.23
560.665	0.23
561.007	0.23
561.35	0.23
561.692	0.23
562.034	0.23
562.377	0.23
562.719	0.24
563.061	0.24
563.403	0.24
563.745	0.24
564.088	0.24
564.43	0.24
564.772	0.23
565.113	0.23
565.455	0.23
565.797	0.23
566.139	0.23
566.481	0.23
566.822	0.23
567.164	0.23
567.506	0.23
567.847	0.23
568.189	0.23
568.53	0.23
568.872	0.23
569.213	0.23
569.554	0.23
569.895	0.23
570.237	0.23
570.578	0.23
570.919	0.23
571.26	0.23
571.601	0.23
571.942	0.23
572.283	0.22
572.624	0.22
572.965	0.22
573.306	0.22
573.646	0.22
573.987	0.22
574.328	0.22
574.668	0.22
575.009	0.22
575.349	0.22
575.69	0.22
576.03	0.21
576.37	0.21
576.711	0.21
577.051	0.21
577.391	0.21
577.731	0.21
578.072	0.21
578.412	0.21
578.752	0.21
579.092	0.2
579.431	0.19
579.771	0.19
580.111	0.19
580.451	0.19
580.791	0.19
581.13	0.2
581.47	0.2
581.81	0.21
582.149	0.2
582.489	0.2
582.828	0.18
583.167	0.17
583.507	0.16
583.846	0.16
584.185	0.16
584.525	0.17
584.864	0.17
585.203	0.19
585.542	0.2
585.881	0.2
586.22	0.2
586.559	0.2
586.898	0.2
587.236	0.2
587.575	0.19
587.914	0.19
588.252	0.19
588.591	0.2
588.93	0.2
589.268	0.2
589.607	0.2
589.945	0.2
590.283	0.21
590.622	0.21
590.96	0.21
591.298	0.21
591.636	0.21
591.974	0.22
592.313	0.22
592.651	0.22
592.989	0.22
593.326	0.22
593.664	0.22
594.002	0.21
594.34	0.21
594.678	0.21
595.015	0.21
595.353	0.21
595.691	0.21
596.028	0.21
596.366	0.21
596.703	0.21
597.04	0.22
597.378	0.22
597.715	0.22
598.052	0.22
598.389	0.22
598.726	0.22
599.064	0.22
599.401	0.22
599.738	0.22
600.074	0.22
600.411	0.21
600.748	0.21
601.085	0.21
601.422	0.21
601.758	0.21
602.095	0.21
602.432	0.21
602.768	0.21
603.105	0.22
603.441	0.22
603.777	0.22
604.114	0.22
604.45	0.22
604.786	0.22
605.122	0.22
605.459	0.22
605.795	0.22
606.131	0.22
606.467	0.22
606.803	0.22
607.139	0.22
607.474	0.22
607.81	0.22
608.146	0.22
608.482	0.21
608.817	0.21
609.153	0.21
609.488	0.21
609.824	0.21
610.159	0.21
610.495	0.21
610.83	0.21
611.165	0.21
611.5	0.21
611.836	0.21
612.171	0.21
612.506	0.21
612.841	0.21
613.176	0.21
613.511	0.21
613.845	0.21
614.18	0.21
614.515	0.21
614.85	0.21
615.184	0.21
615.519	0.21
615.854	0.2
616.188	0.2
616.523	0.2
616.857	0.2
617.191	0.2
617.526	0.2
617.86	0.2
618.194	0.2
618.528	0.2
618.862	0.2
619.196	0.2
619.53	0.2
619.864	0.2
620.198	0.2
620.532	0.2
620.866	0.2
621.2	0.19
621.533	0.19
621.867	0.19
622.201	0.19
622.534	0.19
622.868	0.19
623.201	0.19
623.534	0.19
623.868	0.19
624.201	0.19
624.534	0.19
624.868	0.19
625.201	0.19
625.534	0.19
625.867	0.18
626.2	0.18
626.533	0.18
626.865	0.18
627.198	0.18
627.531	0.18
627.864	0.18
628.196	0.18
628.529	0.18
628.862	0.18
629.194	0.18
629.527	0.18
629.859	0.18
630.191	0.18
630.524	0.17
630.856	0.17
631.188	0.17
631.52	0.17
631.852	0.17
632.184	0.17
632.516	0.17
632.848	0.17
633.18	0.17
633.512	0.17
633.844	0.17
634.175	0.16
634.507	0.16
634.839	0.16
635.17	0.16
635.502	0.16
635.833	0.16
636.165	0.16
636.496	0.16
636.827	0.16
637.159	0.16
637.49	0.15
637.821	0.15
638.152	0.15
638.483	0.15
638.814	0.15
639.145	0.15
639.476	0.15
639.807	0.15
640.137	0.14
640.468	0.14
640.799	0.14
641.129	0.14
641.46	0.14
641.791	0.14
642.121	0.14
642.451	0.14
642.782	0.14
643.112	0.14
643.442	0.13
643.773	0.13
644.103	0.13
644.433	0.13
644.763	0.13
645.093	0.13
645.423	0.13
645.753	0.13
646.082	0.13
646.412	0.13
646.742	0.12
647.072	0.12
647.401	0.12
647.731	0.12
648.06	0.12
648.39	0.12
648.719	0.12
649.048	0.12
649.378	0.12
649.707	0.12
650.036	0.12
650.365	0.12
650.694	0.12
651.023	0.12
651.352	0.12
651.681	0.12
652.01	0.12
652.339	0.12
652.668	0.12
652.996	0.11
653.325	0.11
653.654	0.11
653.982	0.11
654.311	0.12
654.639	0.11
654.967	0.12
655.296	0.12
655.624	0.12
655.952	0.12
656.28	0.11
656.609	0.11
656.937	0.09
657.265	0.07
657.593	0.05
657.92	0.03
658.248	0.02
658.576	0.02
658.904	0.03
659.231	0.04
659.559	0.06
659.887	0.07
660.214	0.09
660.542	0.11
660.869	0.11
661.196	0.11
661.524	0.11
661.851	0.11
662.178	0.11
662.505	0.11
662.832	0.11
663.159	0.11
663.486	0.11
663.813	0.11
664.14	0.11
664.467	0.11
664.794	0.11
665.12	0.1
665.447	0.1
665.774	0.1
666.1	0.1
666.427	0.1
666.753	0.1
667.079	0.1
667.406	0.1
667.732	0.1
668.058	0.1
668.384	0.1
668.71	0.1
669.036	0.1
669.362	0.1
669.688	0.1
670.014	0.1
670.34	0.1
670.666	0.1
670.991	0.1
671.317	0.09
671.643	0.09
671.968	0.09
672.294	0.09
672.619	0.09
672.945	0.09
673.27	0.09
673.595	0.09
673.92	0.09
674.246	0.09
674.571	0.08
674.896	0.08
675.221	0.08
675.546	0.08
675.87	0.08
676.195	0.08
676.52	0.08
676.845	0.08
677.169	0.08
677.494	0.08
677.819	0.07
678.143	0.08
678.468	0.08
678.792	0.08
679.116	0.07
679.44	0.07
679.765	0.07
680.089	0.07
680.413	0.07
680.737	0.07
681.061	0.07
681.385	0.07
681.709	0.07
682.033	0.07
682.356	0.07
682.68	0.07
683.004	0.06
683.327	0.06
683.651	0.06
683.974	0.06
684.298	0.06
684.621	0.06
684.944	0.06
685.268	0.06
685.591	0.06
685.914	0.06
686.237	0.05
686.56	0.05
686.883	0.05
687.206	0.05
687.529	0.05
687.852	0.05
688.175	0.05
688.497	0.05
688.82	0.04
689.142	0.04
689.465	0.04
689.787	0.04
690.11	0.04
690.432	0.04
690.755	0.05
691.077	0.04
691.399	0.04
691.721	0.04
692.043	0.04
692.365	0.04
692.687	0.04
693.009	0.04
693.331	0.04
693.653	0.04
693.974	0.04
694.296	0.04
694.618	0.03
694.939	0.03
695.261	0.03
695.582	0.03
695.904	0.03
696.225	0.03
696.546	0.03
696.868	0.03
697.189	0.03
697.51	0.03
697.831	0.03
698.152	0.03
698.473	0.02
698.794	0.02
699.114	0.02
699.435	0.02
699.756	0.02
700.077	0.02
700.397	0.02
700.718	0.02
701.038	0.03
701.359	0.03
701.679	0.03
701.999	0.03
702.32	0.03
702.64	0.03
702.96	0.03
703.28	0.02
703.6	0.02
703.92	0.02
704.24	0.02
704.56	0.02
704.879	0.02
705.199	0.02
705.519	0.02
705.838	0.02
706.158	0.02
706.478	0.02
706.797	0.02
707.116	0.02
707.436	0.02
707.755	0.02
708.074	0.02
708.393	0.02
708.712	0.01
709.031	0.01
709.35	0.01
709.669	0.01
709.988	0.01
710.307	0.01
710.626	0.01
710.944	0.01
711.263	0.01
711.582	0.01
711.9	0.02
712.219	0.02
712.537	0.02
712.855	0.02
713.174	0.02
713.492	0.02
713.81	0.02
714.128	0.02
714.446	0.02
714.764	0.02
715.082	0.01
715.4	0.01
715.718	0.01
716.035	0.01
716.353	0.01
716.671	0.01
716.988	0.02
717.306	0.02
717.623	0.02
717.941	0.02
718.258	0.02
718.575	0.02
718.893	0.02
719.21	0.02
719.527	0.02
719.844	0.02
720.161	0.02
720.478	0.02
720.795	0.02
721.112	0.02
721.428	0.02
721.745	0.02
722.062	0.02
722.378	0.02
722.695	0.03
723.011	0.03
723.328	0.03
723.644	0.02
723.96	0.02
724.276	0.02
724.593	0.02
724.909	0.02
725.225	0.02
725.541	0.02
725.857	0.02
726.173	0.02
726.488	0.02
726.804	0.02
727.12	0.02
727.435	0.02
727.751	0.02
728.067	0.03
728.382	0.03
728.697	0.03
729.013	0.03
729.328	0.03
729.643	0.03
729.958	0.03
730.273	0.03
730.588	0.02
730.903	0.02
731.218	0.02
731.533	0.02
731.848	0.02
732.163	0.02
732.477	0.02
732.792	0.02
733.107	0.02
733.421	0.02
733.736	0.02
734.05	0.02
734.364	0.02
734.678	0.02
734.993	0.02
735.307	0.02
735.621	0.02
735.935	0.02
736.249	0.02
736.563	0.02
736.877	0.02
737.19	0.02
737.504	0.02
737.818	0.02
738.131	0.02
738.445	0.02
738.758	0.03
739.072	0.03
739.385	0.03
739.698	0.03
740.012	0.03
740.325	0.03
740.638	0.02
740.951	0.02
741.264	0.02
741.577	0.02
741.89	0.02
742.203	0.02
742.515	0.02
742.828	0.02
743.141	0.02
743.453	0.02
743.766	0.02
744.078	0.02
744.391	0.02
744.703	0.02
745.015	0.02
745.327	0.02
745.639	0.02
745.952	0.02
746.264	0.02
746.575	0.02
746.887	0.02
747.199	0.02
747.511	0.02
747.823	0.02
748.134	0.02
748.446	0.02
748.757	0.02
749.069	0.01
749.38	0.01
749.692	0.01
750.003	0.01
750.314	0.01
750.625	0.01
750.936	0.01
751.248	0.01
751.559	0.01
751.869	0.01
752.18	0.01
752.491	0.01
752.802	0.01
753.112	0.01
753.423	0.01
753.734	0.01
754.044	0.01
754.355	0.01
754.665	0.01
754.975	0.01
755.285	0.01
755.596	0.01
755.906	0.01
756.216	0.01
756.526	0.01
756.836	0.01
757.146	0.01
757.455	0.01
757.765	0.01
758.075	0.01
758.385	0.01
758.694	0.01
759.004	0.01
759.313	0.01
759.622	0.01
759.932	0.01
760.241	0.01
760.55	0.01
760.859	0.01
761.168	0
761.477	0
761.786	0
762.095	0
762.404	0
762.713	0
763.021	0
763.33	0.01
763.639	0.01
763.947	0.01
764.256	0.01
764.564	0.01
764.872	0.01
765.181	0.01
765.489	0.01
765.797	0
766.105	0
766.413	0
766.721	0
767.029	0.01
767.337	0.01
767.644	0.01
767.952	0.01
768.26	0.01
768.567	0.01
768.875	0.01
769.182	0.01
769.49	0.01
769.797	0.01
770.104	0.01
770.411	0.01
770.718	0.01
771.026	0.01
771.333	0.01
771.639	0.01
771.946	0.01
772.253	0.01
772.56	0.01
772.867	0.01
773.173	0.01
773.48	0.01
773.786	0.01
774.093	0.01
774.399	0.01
774.705	0.01
775.012	0.01
775.318	0.01
775.624	0.01
775.93	0.01
776.236	0.01
776.542	0.01
776.848	0.01
777.154	0.01
777.459	0.01
777.765	0.01
778.071	0.01
778.376	0.01
778.682	0.01
778.987	0.01
779.292	0.01
779.598	0.01
779.903	0.01
780.208	0.01
780.513	0.01
780.818	0.01
781.123	0.01
781.428	0.01
781.733	0.01
782.038	0
782.343	0
782.647	0
782.952	0
783.256	0
783.561	0
783.865	0
784.17	0.01
784.474	0.01
784.778	0.01
785.082	0.01
785.386	0.01
785.69	0
785.994	0
786.298	0
786.602	0
786.906	0
787.209	0
787.513	0
787.817	0
788.12	0
788.424	0
788.727	0
789.03	0
789.333	0
789.637	0
789.94	0
790.243	0
790.546	0.01
790.849	0.01
791.152	0.01
791.454	0.01
791.757	0.01
792.06	0.01
792.362	0.01
792.665	0
792.967	0
793.27	0
793.572	0
793.874	0
794.177	0
794.479	0
794.781	0
795.083	0.01
795.385	0.01
795.687	0.01
795.989	0.01
796.29	0.01
796.592	0.01
796.894	0.01
797.195	0.01
797.497	0.01
797.798	0.01
798.1	0.01
798.401	0.01
798.702	0.01
799.003	0.01
799.304	0.01
799.605	0.01
799.906	0.01
800.207	0.01
800.508	0.01
800.809	0.01
801.11	0.01
801.41	0.01
801.711	0.01
802.011	0.01
802.312	0.01
802.612	0.01
802.913	0
803.213	0
803.513	0
803.813	0
804.113	0
804.413	0
804.713	0
805.013	0
805.313	0
805.613	0
805.912	0
806.212	0
806.511	0
806.811	0
807.11	-0
807.41	-0
807.709	-0
808.008	-0
808.307	-0
808.606	0
808.905	0
809.204	0
809.503	0.01
809.802	0.01
810.101	0.01
810.399	0.01
810.698	0.01
810.997	0.01
811.295	0.01
811.593	0.01
811.892	0.01
812.19	0.01
812.488	0.01
812.786	0.01
813.084	0.01
813.383	0.01
813.68	0.01
813.978	0.01
814.276	0.01
814.574	0.01
814.872	0.01
815.169	0.01
815.467	0.01
815.764	0.01
816.062	0.01
816.359	0.01
816.656	0.01
816.954	0.01
817.251	0.01
817.548	0.01
817.845	0.01
818.142	0.01
818.439	0.01
818.735	0.01
819.032	0.01
819.329	0.01
819.626	0.01
819.922	0.01
820.219	0.01
820.515	0.01
820.811	0.01
821.108	0.01
821.404	0.01
821.7	0.01
821.996	0.01
822.292	0.01
822.588	0.01
822.884	0.01
823.18	0.01
823.475	0.01
823.771	0.01
824.067	0.01
824.362	0.01
824.658	0.01
824.953	0.01
825.249	0.01
825.544	0.01
825.839	0.01
826.134	0.01
826.429	0.01
826.724	0.01
827.019	0.01
827.314	0.01
827.609	0.01
827.904	0.01
828.198	0.01
828.493	0.02
828.787	0.02
829.082	0.02
829.376	0.02
829.671	0.02
829.965	0.01
830.259	0.01
830.553	0.01
830.847	0.02
831.141	0.02
831.435	0.02
831.729	0.02
832.023	0.02
832.317	0.02
832.61	0.02
832.904	0.02
833.197	0.02
833.491	0.02
833.784	0.02
834.077	0.02
834.371	0.02
834.664	0.02
834.957	0.02
835.25	0.02
835.543	0.02
835.836	0.02
836.129	0.02
836.421	0.02
836.714	0.02
837.007	0.02
837.299	0.02
837.592	0.02
837.884	0.02
838.177	0.02
838.469	0.02
838.761	0.02
839.053	0.01
839.345	0.01
839.637	0.01
839.929	0.01
840.221	0.01
840.513	0.01
840.805	0.01
841.096	0
841.388	0
841.68	0.01
841.971	0.01
842.262	0.01
842.554	0.02
842.845	0.02
843.136	0.02
843.427	0.02
843.718	0.02
844.009	0.02
844.3	0.02
844.591	0.02
844.882	0.02
845.173	0.03
845.463	0.03
845.754	0.02
846.044	0.02
846.335	0.03
846.625	0.02
846.915	0.02
847.206	0.02
847.496	0.02
847.786	0.02
848.076	0.02
848.366	0.02
848.656	0.02
848.945	0.02
849.235	0.02
849.525	0.02
849.814	0.02
850.104	0.02
850.393	0.02
850.683	0.02
850.972	0.02
851.261	0.02
851.551	0.02
851.84	0.02
852.129	0.02
852.418	0.02
852.707	0.02
852.995	0.02
853.284	0.02
853.573	0.02
853.862	0.02
854.15	0.02
854.439	0.02
854.727	0.02
855.015	0.02
855.304	0.02
855.592	0.03
855.88	0.03
856.168	0.03
856.456	0.02
856.744	0.02
857.032	0.02
857.32	0.02
857.607	0.03
857.895	0.02
858.183	0.02
858.47	0.03
858.757	0.03
859.045	0.03
859.332	0.03
859.619	0.02
859.907	0.02
860.194	0.02
860.481	0.02
860.768	0.02
861.054	0.02
861.341	0.01
861.628	0.02
861.915	0.02
862.201	0.02
862.488	0.02
862.774	0.02
863.061	0.02
863.347	0.02
863.633	0.02
863.919	0.02
864.205	0.01
864.491	0.01
864.777	0.01
865.063	0.01
865.349	0.01
865.635	0
865.92	0.01
866.206	0.01
866.492	0
866.777	0
867.062	0.01
867.348	0.01
867.633	0.01
867.918	0.01
868.203	0.01
868.488	0.02
868.773	0.02
869.058	0.01
869.343	0.01
869.628	0.01
869.912	0.01
870.197	0
870.482	-0.01
870.766	-0.01
871.05	-0.01
871.335	-0.01
871.619	-0.01
871.903	-0.01
872.187	-0
872.471	0.01
872.755	0.01
873.039	0
873.323	0.01
873.607	0
873.89	0.02
874.174	0.03
874.458	0.02
874.741	0.01
875.024	0.02
875.308	0.03
875.591	0.04
875.874	0.03
876.157	0.03
876.44	0.03
876.723	0.06
877.006	0.06
877.289	0.05
877.572	0.04
877.854	0.03
878.137	0
878.42	-0.02
878.702	-0.03
878.984	-0.04
879.267	-0.03
879.549	-0.02
879.831	-0.02
880.113	-0.02
880.395	0.01
880.677	0
880.959	0.01
