Data from Rubpy_BV_300_EDTA_Buffered_Absorbance_11-49-43-728.txt Node
Date: Wed Jul 01 11:49:43 BST 2026
User: fpm-admin
Spectrometer: OFX00224
Trigger mode: 0
Integration Time (sec): 7.000000E-2
Scans to average: 1
Nonlinearity correction enabled: false
Boxcar width: 3
Storing dark spectrum: false
XAxis mode: Wavelengths
Number of Pixels in Spectrum: 2136
>>>>>Begin Spectral Data<<<<<
154.91	-0.18
155.289	-0.16
155.669	-0.32
156.048	-0.32
156.428	-0.7
156.807	-0.43
157.186	0.68
157.566	0.55
157.945	0.65
158.325	0.33
158.704	0.49
159.083	0.67
159.462	0.55
159.842	1.36
160.221	-0
160.6	0.07
160.979	-0
161.359	-0
161.738	-0
162.117	-0
162.496	-0.7
162.875	-0.81
163.254	-0.15
163.633	0.74
164.012	0.34
164.391	-0
164.77	-0.39
165.149	-0.71
165.528	-0.94
165.907	-0.58
166.286	-0.81
166.665	-0.64
167.044	-0.68
167.423	-1.54
167.802	-0
168.181	-0
168.559	-0
168.938	0.05
169.317	0.28
169.696	0.48
170.074	0.3
170.453	0.8
170.832	0.24
171.21	0.18
171.589	0.63
171.968	0.68
172.346	-0
172.725	-0
173.103	0.79
173.482	-0
173.861	-0
174.239	-0
174.617	-0
174.996	-0
175.374	-0
175.753	-0
176.131	0.26
176.51	0.13
176.888	0.08
177.266	0.13
177.645	-0.04
178.023	0.2
178.401	0.14
178.779	0.15
179.158	-0
179.536	0.33
179.914	0.83
180.292	-0
180.67	-0.42
181.048	-0.28
181.427	-0.38
181.805	-0
182.183	-1.43
182.561	0.78
182.939	0.36
183.317	0.43
183.695	-0
184.073	-0
184.451	-0
184.829	-0
185.206	-0.32
185.584	-0.53
185.962	-0.27
186.34	-0.31
186.718	-0.2
187.096	-0.35
187.473	-0.1
187.851	-0.06
188.229	0.01
188.607	0.01
188.984	0.01
189.362	-0
189.74	0
190.117	0.01
190.495	0.01
190.872	0
191.25	-0.02
191.627	-0.04
192.005	-0.03
192.382	-0.03
192.76	-0.03
193.137	-0.03
193.515	-0.03
193.892	-0.01
194.269	0.02
194.647	0.05
195.024	0.06
195.401	0.03
195.779	0.02
196.156	0.03
196.533	0.01
196.91	0.03
197.288	0.03
197.665	0.01
198.042	0.04
198.419	0.06
198.796	0.05
199.173	0.07
199.55	0.07
199.927	0.04
200.304	0.07
200.681	0.05
201.058	0.05
201.435	0.07
201.812	0.07
202.189	0.08
202.566	0.1
202.943	0.11
203.32	0.1
203.697	0.1
204.073	0.07
204.45	0.08
204.827	0.08
205.204	0.07
205.58	0.06
205.957	0.06
206.334	0.06
206.71	0.05
207.087	0.04
207.464	0.03
207.84	0.03
208.217	0.01
208.593	0.01
208.97	-0.02
209.346	0
209.723	-0
210.099	0.02
210.476	0.02
210.852	0.04
211.228	0.04
211.605	0.05
211.981	0.06
212.357	0.08
212.733	0.07
213.11	0.08
213.486	0.09
213.862	0.08
214.238	0.1
214.614	0.08
214.991	0.06
215.367	0.05
215.743	0.02
216.119	-0
216.495	0
216.871	-0.01
217.247	-0.04
217.623	-0.04
217.999	-0.06
218.375	-0.06
218.751	-0.05
219.127	-0.07
219.502	-0.06
219.878	-0.03
220.254	-0
220.63	0
221.006	0.02
221.381	-0.01
221.757	0.01
222.133	0.02
222.508	0.02
222.884	-0.01
223.26	-0.01
223.635	0.01
224.011	0.01
224.386	0.02
224.762	0.02
225.137	0.03
225.513	0.06
225.888	0.06
226.264	0.04
226.639	0.05
227.014	0.03
227.39	0.03
227.765	0.01
228.14	0
228.516	0.02
228.891	0.01
229.266	0.03
229.641	0.03
230.017	0.04
230.392	0.03
230.767	0.02
231.142	0
231.517	0
231.892	0.01
232.267	0.02
232.642	0.03
233.017	0.02
233.392	0.01
233.767	-0.01
234.142	-0.01
234.517	-0.02
234.892	-0.03
235.267	-0.05
235.641	-0.02
236.016	-0.01
236.391	0.01
236.766	0.01
237.14	0.02
237.515	0.01
237.89	0.02
238.264	0.03
238.639	0.04
239.014	0.06
239.388	0.07
239.763	0.08
240.137	0.07
240.512	0.08
240.886	0.07
241.261	0.06
241.635	0.03
242.009	0.03
242.384	0.01
242.758	0.05
243.132	0.04
243.507	0.02
243.881	0.03
244.255	0.04
244.629	0.03
245.004	0.03
245.378	-0.01
245.752	-0.02
246.126	0.01
246.5	0.02
246.874	0.02
247.248	0.03
247.622	0.05
247.996	0.07
248.37	0.06
248.744	0.02
249.118	0.03
249.492	0.03
249.866	0.03
250.24	0.02
250.613	0.03
250.987	0.05
251.361	0.07
251.735	0.05
252.108	0.04
252.482	0.01
252.856	0
253.229	0.01
253.603	-0.01
253.977	-0.02
254.35	-0.01
254.724	-0.01
255.097	-0
255.471	-0.01
255.844	-0.02
256.218	-0.01
256.591	0
256.964	0.01
257.338	0.01
257.711	0.03
258.084	0.03
258.458	0.04
258.831	0.04
259.204	0.03
259.577	0.02
259.95	0.03
260.323	0.03
260.697	0.04
261.07	0.05
261.443	0.05
261.816	0.08
262.189	0.09
262.562	0.08
262.935	0.08
263.308	0.06
263.68	0.05
264.053	0.04
264.426	0.02
264.799	0.02
265.172	0.02
265.545	0.03
265.917	0.04
266.29	0.03
266.663	0.03
267.035	0.02
267.408	0.02
267.781	0.03
268.153	0.02
268.526	0.01
268.898	0.01
269.271	0.02
269.643	0.03
270.016	0.02
270.388	0.01
270.76	0.01
271.133	0.01
271.505	0.03
271.877	0.02
272.25	0.04
272.622	0.06
272.994	0.06
273.366	0.07
273.739	0.07
274.111	0.05
274.483	0.06
274.855	0.04
275.227	0.03
275.599	0.02
275.971	0.04
276.343	0.03
276.715	0.04
277.087	0.04
277.459	0.05
277.831	0.06
278.203	0.06
278.574	0.06
278.946	0.06
279.318	0.06
279.69	0.04
280.061	0.04
280.433	0.03
280.805	0.04
281.176	0.03
281.548	0.04
281.92	0.04
282.291	0.04
282.663	0.04
283.034	0.04
283.406	0.06
283.777	0.06
284.148	0.05
284.52	0.05
284.891	0.05
285.262	0.05
285.634	0.04
286.005	0.02
286.376	0.02
286.747	0.03
287.119	0.03
287.49	0.03
287.861	0.03
288.232	0.03
288.603	0.03
288.974	0.03
289.345	0.01
289.716	-0.01
290.087	0.01
290.458	0.03
290.829	0.04
291.2	0.05
291.571	0.05
291.941	0.07
292.312	0.08
292.683	0.08
293.054	0.07
293.424	0.07
293.795	0.07
294.166	0.07
294.536	0.07
294.907	0.07
295.277	0.07
295.648	0.08
296.018	0.07
296.389	0.06
296.759	0.06
297.13	0.05
297.5	0.04
297.871	0.04
298.241	0.03
298.611	0.03
298.981	0.02
299.352	0.02
299.722	0.02
300.092	0.03
300.462	0.01
300.832	0.01
301.202	-0
301.573	0
301.943	0
302.313	0.01
302.683	0.01
303.053	0.01
303.422	0.01
303.792	0.02
304.162	0.02
304.532	0.02
304.902	0.01
305.272	0.01
305.641	0.01
306.011	0.01
306.381	0.01
306.75	0.01
307.12	0
307.49	0.01
307.859	0.01
308.229	0.01
308.598	0.01
308.968	0.01
309.337	0.02
309.707	0.02
310.076	0.02
310.445	0.02
310.815	0.02
311.184	0.02
311.553	0.02
311.923	0.02
312.292	0.02
312.661	0.02
313.03	0.03
313.399	0.03
313.768	0.03
314.137	0.03
314.506	0.03
314.875	0.03
315.244	0.03
315.613	0.03
315.982	0.03
316.351	0.03
316.72	0.03
317.089	0.04
317.458	0.04
317.826	0.04
318.195	0.04
318.564	0.04
318.933	0.04
319.301	0.04
319.67	0.04
320.038	0.04
320.407	0.04
320.775	0.04
321.144	0.04
321.512	0.04
321.881	0.04
322.249	0.04
322.618	0.04
322.986	0.04
323.354	0.04
323.723	0.04
324.091	0.04
324.459	0.04
324.827	0.04
325.195	0.04
325.564	0.04
325.932	0.04
326.3	0.04
326.668	0.05
327.036	0.04
327.404	0.05
327.772	0.05
328.14	0.05
328.508	0.05
328.875	0.05
329.243	0.05
329.611	0.05
329.979	0.05
330.346	0.05
330.714	0.05
331.082	0.05
331.449	0.05
331.817	0.05
332.185	0.05
332.552	0.05
332.92	0.05
333.287	0.06
333.655	0.06
334.022	0.06
334.389	0.06
334.757	0.06
335.124	0.06
335.491	0.06
335.859	0.06
336.226	0.06
336.593	0.07
336.96	0.07
337.327	0.07
337.695	0.07
338.062	0.07
338.429	0.07
338.796	0.07
339.163	0.08
339.53	0.08
339.897	0.08
340.263	0.08
340.63	0.08
340.997	0.08
341.364	0.08
341.731	0.08
342.097	0.09
342.464	0.09
342.831	0.09
343.197	0.09
343.564	0.09
343.931	0.09
344.297	0.1
344.664	0.1
345.03	0.1
345.396	0.1
345.763	0.1
346.129	0.11
346.496	0.11
346.862	0.11
347.228	0.11
347.594	0.11
347.961	0.11
348.327	0.12
348.693	0.12
349.059	0.12
349.425	0.12
349.791	0.12
350.157	0.12
350.523	0.12
350.889	0.13
351.255	0.13
351.621	0.13
351.987	0.13
352.353	0.14
352.719	0.14
353.084	0.14
353.45	0.14
353.816	0.14
354.181	0.14
354.547	0.14
354.913	0.14
355.278	0.15
355.644	0.15
356.009	0.15
356.375	0.16
356.74	0.16
357.106	0.16
357.471	0.16
357.836	0.17
358.202	0.17
358.567	0.17
358.932	0.17
359.297	0.17
359.663	0.18
360.028	0.18
360.393	0.18
360.758	0.19
361.123	0.19
361.488	0.19
361.853	0.2
362.218	0.2
362.583	0.2
362.948	0.2
363.312	0.21
363.677	0.21
364.042	0.21
364.407	0.22
364.772	0.22
365.136	0.22
365.501	0.22
365.865	0.23
366.23	0.23
366.595	0.23
366.959	0.23
367.324	0.24
367.688	0.24
368.052	0.24
368.417	0.24
368.781	0.25
369.145	0.25
369.51	0.25
369.874	0.26
370.238	0.26
370.602	0.26
370.967	0.27
371.331	0.27
371.695	0.27
372.059	0.27
372.423	0.27
372.787	0.27
373.151	0.27
373.515	0.27
373.878	0.27
374.242	0.27
374.606	0.27
374.97	0.27
375.334	0.26
375.697	0.26
376.061	0.26
376.425	0.26
376.788	0.26
377.152	0.25
377.515	0.26
377.879	0.25
378.242	0.25
378.606	0.25
378.969	0.25
379.333	0.24
379.696	0.24
380.059	0.24
380.422	0.24
380.786	0.24
381.149	0.23
381.512	0.24
381.875	0.23
382.238	0.23
382.601	0.23
382.964	0.23
383.327	0.23
383.69	0.23
384.053	0.23
384.416	0.23
384.779	0.23
385.142	0.23
385.504	0.23
385.867	0.24
386.23	0.24
386.593	0.24
386.955	0.24
387.318	0.24
387.68	0.25
388.043	0.25
388.405	0.25
388.768	0.25
389.13	0.25
389.493	0.25
389.855	0.25
390.217	0.25
390.58	0.25
390.942	0.25
391.304	0.25
391.666	0.25
392.028	0.25
392.391	0.25
392.753	0.25
393.115	0.24
393.477	0.24
393.839	0.24
394.201	0.24
394.563	0.24
394.924	0.24
395.286	0.24
395.648	0.24
396.01	0.25
396.371	0.25
396.733	0.26
397.095	0.26
397.456	0.27
397.818	0.27
398.18	0.28
398.541	0.29
398.903	0.3
399.264	0.31
399.625	0.32
399.987	0.33
400.348	0.33
400.709	0.34
401.071	0.34
401.432	0.35
401.793	0.35
402.154	0.35
402.515	0.34
402.876	0.34
403.238	0.33
403.599	0.32
403.96	0.31
404.32	0.3
404.681	0.29
405.042	0.28
405.403	0.27
405.764	0.26
406.125	0.24
406.485	0.23
406.846	0.21
407.207	0.2
407.567	0.19
407.928	0.18
408.288	0.17
408.649	0.16
409.009	0.15
409.37	0.14
409.73	0.13
410.091	0.12
410.451	0.12
410.811	0.11
411.171	0.1
411.532	0.1
411.892	0.09
412.252	0.09
412.612	0.08
412.972	0.08
413.332	0.07
413.692	0.07
414.052	0.06
414.412	0.06
414.772	0.06
415.132	0.06
415.492	0.06
415.851	0.05
416.211	0.05
416.571	0.05
416.931	0.05
417.29	0.04
417.65	0.04
418.009	0.04
418.369	0.04
418.728	0.04
419.088	0.04
419.447	0.04
419.807	0.04
420.166	0.03
420.525	0.03
420.884	0.03
421.244	0.03
421.603	0.03
421.962	0.03
422.321	0.03
422.68	0.02
423.039	0.03
423.398	0.02
423.757	0.02
424.116	0.02
424.475	0.02
424.834	0.02
425.193	0.02
425.551	0.02
425.91	0.02
426.269	0.02
426.628	0.02
426.986	0.02
427.345	0.02
427.703	0.02
428.062	0.02
428.42	0.02
428.779	0.02
429.137	0.02
429.496	0.02
429.854	0.02
430.212	0.02
430.57	0.02
430.929	0.02
431.287	0.02
431.645	0.01
432.003	0.02
432.361	0.02
432.719	0.02
433.077	0.02
433.435	0.02
433.793	0.02
434.151	0.02
434.509	0.01
434.866	0.01
435.224	0.01
435.582	0.01
435.94	0.01
436.297	0.01
436.655	0.01
437.012	0.01
437.37	0.01
437.727	0.02
438.085	0.01
438.442	0.01
438.8	0.01
439.157	0.01
439.514	0.01
439.872	0.02
440.229	0.02
440.586	0.01
440.943	0.02
441.3	0.01
441.657	0.01
442.014	0.01
442.371	0.01
442.728	0.01
443.085	0.01
443.442	0.01
443.799	0.01
444.156	0.01
444.513	0.01
444.869	0.01
445.226	0.01
445.583	0.01
445.939	0.01
446.296	0.01
446.652	0.01
447.009	0.01
447.365	0.01
447.722	0.01
448.078	0.01
448.434	0.01
448.791	0.01
449.147	0.01
449.503	0.01
449.859	0.01
450.215	0.01
450.571	0.01
450.928	0.01
451.284	0.01
451.64	0.01
451.995	0
452.351	0
452.707	0
453.063	0
453.419	0
453.775	0
454.13	0
454.486	0
454.842	0
455.197	0
455.553	-0
455.908	-0.01
456.264	-0.01
456.619	-0.01
456.975	-0.01
457.33	-0.01
457.685	-0.01
458.04	-0.01
458.396	-0.01
458.751	-0.01
459.106	-0.01
459.461	-0.02
459.816	-0.02
460.171	-0.02
460.526	-0.02
460.881	-0.02
461.236	-0.02
461.591	-0.02
461.946	-0.03
462.301	-0.03
462.655	-0.02
463.01	-0.03
463.365	-0.03
463.719	-0.03
464.074	-0.03
464.428	-0.03
464.783	-0.04
465.137	-0.04
465.492	-0.04
465.846	-0.04
466.201	-0.04
466.555	-0.04
466.909	-0.04
467.263	-0.04
467.618	-0.04
467.972	-0.04
468.326	-0.04
468.68	-0.04
469.034	-0.04
469.388	-0.04
469.742	-0.04
470.096	-0.04
470.45	-0.04
470.804	-0.04
471.157	-0.04
471.511	-0.04
471.865	-0.04
472.218	-0.04
472.572	-0.04
472.926	-0.03
473.279	-0.03
473.633	-0.03
473.986	-0.03
474.34	-0.03
474.693	-0.03
475.046	-0.03
475.4	-0.02
475.753	-0.02
476.106	-0.02
476.459	-0.01
476.812	-0.01
477.165	-0.01
477.519	-0.01
477.872	-0
478.224	-0
478.577	0
478.93	0
479.283	0
479.636	0
479.989	0
480.341	0.01
480.694	0.01
481.047	0.01
481.399	0.01
481.752	0.01
482.104	0.01
482.457	0.01
482.809	0.01
483.162	0.02
483.514	0.02
483.866	0.02
484.219	0.02
484.571	0.02
484.923	0.02
485.275	0.02
485.627	0.03
485.979	0.03
486.331	0.03
486.683	0.03
487.035	0.03
487.387	0.03
487.739	0.03
488.091	0.03
488.443	0.03
488.794	0.04
489.146	0.04
489.498	0.04
489.849	0.04
490.201	0.04
490.552	0.04
490.904	0.04
491.255	0.04
491.607	0.04
491.958	0.04
492.309	0.04
492.661	0.04
493.012	0.04
493.363	0.04
493.714	0.04
494.065	0.05
494.416	0.05
494.767	0.05
495.118	0.05
495.469	0.05
495.82	0.05
496.171	0.05
496.522	0.05
496.872	0.05
497.223	0.05
497.574	0.05
497.924	0.05
498.275	0.05
498.626	0.06
498.976	0.06
499.327	0.06
499.677	0.06
500.027	0.06
500.378	0.06
500.728	0.06
501.078	0.06
501.428	0.06
501.779	0.06
502.129	0.06
502.479	0.06
502.829	0.06
503.179	0.06
503.529	0.06
503.879	0.06
504.229	0.07
504.578	0.07
504.928	0.07
505.278	0.07
505.628	0.07
505.977	0.07
506.327	0.07
506.676	0.07
507.026	0.07
507.375	0.07
507.725	0.07
508.074	0.07
508.424	0.07
508.773	0.07
509.122	0.07
509.471	0.07
509.82	0.08
510.17	0.08
510.519	0.08
510.868	0.08
511.217	0.08
511.566	0.08
511.915	0.08
512.263	0.08
512.612	0.08
512.961	0.08
513.31	0.08
513.659	0.08
514.007	0.08
514.356	0.09
514.704	0.09
515.053	0.09
515.401	0.09
515.75	0.09
516.098	0.09
516.447	0.09
516.795	0.09
517.143	0.09
517.491	0.09
517.839	0.09
518.188	0.09
518.536	0.09
518.884	0.09
519.232	0.09
519.58	0.09
519.928	0.09
520.275	0.09
520.623	0.09
520.971	0.09
521.319	0.09
521.666	0.09
522.014	0.09
522.362	0.09
522.709	0.1
523.057	0.1
523.404	0.09
523.752	0.09
524.099	0.09
524.446	0.1
524.794	0.1
525.141	0.1
525.488	0.1
525.835	0.1
526.182	0.1
526.529	0.1
526.876	0.1
527.223	0.1
527.57	0.1
527.917	0.1
528.264	0.1
528.611	0.1
528.958	0.1
529.304	0.1
529.651	0.11
529.998	0.11
530.344	0.1
530.691	0.1
531.037	0.1
531.384	0.11
531.73	0.11
532.076	0.11
532.423	0.11
532.769	0.11
533.115	0.11
533.461	0.11
533.807	0.11
534.154	0.11
534.5	0.11
534.846	0.11
535.192	0.11
535.537	0.11
535.883	0.11
536.229	0.11
536.575	0.11
536.921	0.11
537.266	0.11
537.612	0.11
537.957	0.11
538.303	0.11
538.649	0.11
538.994	0.11
539.339	0.11
539.685	0.11
540.03	0.11
540.375	0.11
540.721	0.11
541.066	0.11
541.411	0.11
541.756	0.11
542.101	0.12
542.446	0.12
542.791	0.12
543.136	0.12
543.481	0.12
543.825	0.12
544.17	0.12
544.515	0.12
544.86	0.12
545.204	0.12
545.549	0.12
545.893	0.12
546.238	0.12
546.582	0.12
546.927	0.12
547.271	0.12
547.615	0.12
547.96	0.12
548.304	0.12
548.648	0.12
548.992	0.12
549.336	0.12
549.68	0.12
550.024	0.12
550.368	0.13
550.712	0.13
551.056	0.13
551.4	0.13
551.743	0.13
552.087	0.13
552.431	0.13
552.774	0.13
553.118	0.13
553.462	0.13
553.805	0.13
554.148	0.13
554.492	0.13
554.835	0.13
555.178	0.13
555.522	0.13
555.865	0.13
556.208	0.13
556.551	0.13
556.894	0.13
557.237	0.13
557.58	0.13
557.923	0.13
558.266	0.13
558.609	0.13
558.952	0.13
559.294	0.13
559.637	0.13
559.98	0.13
560.322	0.13
560.665	0.13
561.007	0.13
561.35	0.13
561.692	0.13
562.034	0.13
562.377	0.13
562.719	0.13
563.061	0.13
563.403	0.13
563.745	0.13
564.088	0.13
564.43	0.13
564.772	0.13
565.113	0.13
565.455	0.13
565.797	0.13
566.139	0.13
566.481	0.13
566.822	0.13
567.164	0.13
567.506	0.13
567.847	0.13
568.189	0.13
568.53	0.13
568.872	0.13
569.213	0.13
569.554	0.13
569.895	0.13
570.237	0.13
570.578	0.13
570.919	0.13
571.26	0.13
571.601	0.13
571.942	0.13
572.283	0.13
572.624	0.12
572.965	0.12
573.306	0.12
573.646	0.12
573.987	0.12
574.328	0.12
574.668	0.12
575.009	0.12
575.349	0.12
575.69	0.12
576.03	0.12
576.37	0.12
576.711	0.12
577.051	0.12
577.391	0.12
577.731	0.12
578.072	0.12
578.412	0.12
578.752	0.11
579.092	0.11
579.431	0.1
579.771	0.1
580.111	0.1
580.451	0.1
580.791	0.1
581.13	0.1
581.47	0.11
581.81	0.11
582.149	0.11
582.489	0.1
582.828	0.09
583.167	0.08
583.507	0.08
583.846	0.07
584.185	0.07
584.525	0.08
584.864	0.08
585.203	0.1
585.542	0.11
585.881	0.11
586.22	0.11
586.559	0.11
586.898	0.1
587.236	0.1
587.575	0.1
587.914	0.1
588.252	0.1
588.591	0.1
588.93	0.11
589.268	0.11
589.607	0.11
589.945	0.11
590.283	0.11
590.622	0.12
590.96	0.12
591.298	0.12
591.636	0.12
591.974	0.12
592.313	0.12
592.651	0.12
592.989	0.13
593.326	0.12
593.664	0.12
594.002	0.12
594.34	0.12
594.678	0.12
595.015	0.12
595.353	0.11
595.691	0.12
596.028	0.12
596.366	0.12
596.703	0.12
597.04	0.12
597.378	0.13
597.715	0.13
598.052	0.13
598.389	0.13
598.726	0.13
599.064	0.13
599.401	0.13
599.738	0.13
600.074	0.13
600.411	0.12
600.748	0.12
601.085	0.12
601.422	0.12
601.758	0.12
602.095	0.12
602.432	0.12
602.768	0.12
603.105	0.12
603.441	0.12
603.777	0.13
604.114	0.13
604.45	0.13
604.786	0.13
605.122	0.13
605.459	0.13
605.795	0.13
606.131	0.13
606.467	0.13
606.803	0.13
607.139	0.13
607.474	0.13
607.81	0.13
608.146	0.13
608.482	0.13
608.817	0.13
609.153	0.13
609.488	0.13
609.824	0.12
610.159	0.12
610.495	0.12
610.83	0.12
611.165	0.12
611.5	0.12
611.836	0.12
612.171	0.12
612.506	0.12
612.841	0.12
613.176	0.12
613.511	0.12
613.845	0.12
614.18	0.12
614.515	0.12
614.85	0.12
615.184	0.12
615.519	0.12
615.854	0.12
616.188	0.12
616.523	0.12
616.857	0.12
617.191	0.12
617.526	0.12
617.86	0.12
618.194	0.12
618.528	0.12
618.862	0.12
619.196	0.12
619.53	0.12
619.864	0.12
620.198	0.12
620.532	0.12
620.866	0.12
621.2	0.12
621.533	0.12
621.867	0.12
622.201	0.12
622.534	0.11
622.868	0.11
623.201	0.11
623.534	0.11
623.868	0.11
624.201	0.11
624.534	0.11
624.868	0.11
625.201	0.11
625.534	0.11
625.867	0.11
626.2	0.11
626.533	0.11
626.865	0.11
627.198	0.1
627.531	0.11
627.864	0.1
628.196	0.1
628.529	0.1
628.862	0.11
629.194	0.1
629.527	0.1
629.859	0.1
630.191	0.1
630.524	0.1
630.856	0.1
631.188	0.1
631.52	0.1
631.852	0.1
632.184	0.1
632.516	0.1
632.848	0.1
633.18	0.1
633.512	0.1
633.844	0.1
634.175	0.1
634.507	0.1
634.839	0.1
635.17	0.09
635.502	0.09
635.833	0.09
636.165	0.09
636.496	0.09
636.827	0.09
637.159	0.09
637.49	0.09
637.821	0.09
638.152	0.09
638.483	0.09
638.814	0.09
639.145	0.09
639.476	0.09
639.807	0.08
640.137	0.08
640.468	0.08
640.799	0.08
641.129	0.08
641.46	0.08
641.791	0.08
642.121	0.08
642.451	0.08
642.782	0.08
643.112	0.08
643.442	0.08
643.773	0.08
644.103	0.08
644.433	0.08
644.763	0.08
645.093	0.08
645.423	0.07
645.753	0.07
646.082	0.07
646.412	0.07
646.742	0.07
647.072	0.07
647.401	0.07
647.731	0.07
648.06	0.07
648.39	0.07
648.719	0.07
649.048	0.07
649.378	0.07
649.707	0.07
650.036	0.07
650.365	0.07
650.694	0.07
651.023	0.07
651.352	0.07
651.681	0.07
652.01	0.07
652.339	0.07
652.668	0.07
652.996	0.07
653.325	0.07
653.654	0.07
653.982	0.07
654.311	0.07
654.639	0.07
654.967	0.07
655.296	0.07
655.624	0.07
655.952	0.07
656.28	0.07
656.609	0.06
656.937	0.05
657.265	0.04
657.593	0.03
657.92	0.02
658.248	0.01
658.576	0.01
658.904	0.02
659.231	0.02
659.559	0.03
659.887	0.04
660.214	0.05
660.542	0.06
660.869	0.07
661.196	0.07
661.524	0.07
661.851	0.07
662.178	0.06
662.505	0.06
662.832	0.06
663.159	0.06
663.486	0.06
663.813	0.06
664.14	0.06
664.467	0.06
664.794	0.06
665.12	0.06
665.447	0.06
665.774	0.06
666.1	0.06
666.427	0.06
666.753	0.06
667.079	0.06
667.406	0.06
667.732	0.06
668.058	0.06
668.384	0.06
668.71	0.06
669.036	0.06
669.362	0.06
669.688	0.06
670.014	0.06
670.34	0.06
670.666	0.06
670.991	0.06
671.317	0.06
671.643	0.06
671.968	0.05
672.294	0.05
672.619	0.05
672.945	0.05
673.27	0.05
673.595	0.05
673.92	0.05
674.246	0.05
674.571	0.05
674.896	0.05
675.221	0.05
675.546	0.05
675.87	0.05
676.195	0.05
676.52	0.04
676.845	0.04
677.169	0.04
677.494	0.04
677.819	0.04
678.143	0.04
678.468	0.04
678.792	0.04
679.116	0.04
679.44	0.04
679.765	0.04
680.089	0.04
680.413	0.04
680.737	0.04
681.061	0.04
681.385	0.04
681.709	0.04
682.033	0.04
682.356	0.04
682.68	0.04
683.004	0.04
683.327	0.04
683.651	0.04
683.974	0.04
684.298	0.04
684.621	0.04
684.944	0.04
685.268	0.04
685.591	0.03
685.914	0.03
686.237	0.03
686.56	0.03
686.883	0.03
687.206	0.03
687.529	0.03
687.852	0.03
688.175	0.03
688.497	0.02
688.82	0.02
689.142	0.02
689.465	0.02
689.787	0.02
690.11	0.02
690.432	0.03
690.755	0.03
691.077	0.03
691.399	0.02
691.721	0.02
692.043	0.02
692.365	0.02
692.687	0.02
693.009	0.02
693.331	0.02
693.653	0.02
693.974	0.02
694.296	0.02
694.618	0.02
694.939	0.02
695.261	0.02
695.582	0.02
695.904	0.02
696.225	0.02
696.546	0.02
696.868	0.02
697.189	0.02
697.51	0.02
697.831	0.01
698.152	0.01
698.473	0.01
698.794	0.01
699.114	0.01
699.435	0.01
699.756	0.01
700.077	0.01
700.397	0.01
700.718	0.01
701.038	0.01
701.359	0.01
701.679	0.01
701.999	0.01
702.32	0.01
702.64	0.01
702.96	0.01
703.28	0.01
703.6	0.01
703.92	0.01
704.24	0.01
704.56	0.01
704.879	0.01
705.199	0.01
705.519	0.01
705.838	0.01
706.158	0.01
706.478	0.01
706.797	0.01
707.116	0.01
707.436	0.01
707.755	0.01
708.074	0.01
708.393	0.01
708.712	0.01
709.031	0.01
709.35	0
709.669	0
709.988	0
710.307	0
710.626	0
710.944	0.01
711.263	0.01
711.582	0.01
711.9	0.01
712.219	0.01
712.537	0.01
712.855	0.01
713.174	0.01
713.492	0.01
713.81	0.01
714.128	0.01
714.446	0.01
714.764	0.01
715.082	0.01
715.4	0.01
715.718	0.01
716.035	0.01
716.353	0.01
716.671	0.01
716.988	0.01
717.306	0.01
717.623	0.01
717.941	0.01
718.258	0.01
718.575	0.01
718.893	0.01
719.21	0.01
719.527	0.01
719.844	0.01
720.161	0.01
720.478	0.01
720.795	0.01
721.112	0.01
721.428	0.01
721.745	0.01
722.062	0.01
722.378	0.01
722.695	0.01
723.011	0.01
723.328	0.01
723.644	0.01
723.96	0.01
724.276	0.01
724.593	0.01
724.909	0.01
725.225	0.01
725.541	0.01
725.857	0.01
726.173	0.01
726.488	0.01
726.804	0.01
727.12	0.01
727.435	0.01
727.751	0.01
728.067	0.01
728.382	0.01
728.697	0.01
729.013	0.01
729.328	0.01
729.643	0.01
729.958	0.01
730.273	0.01
730.588	0.01
730.903	0.01
731.218	0.01
731.533	0.01
731.848	0.01
732.163	0.01
732.477	0.01
732.792	0.01
733.107	0.01
733.421	0.01
733.736	0.01
734.05	0.01
734.364	0.01
734.678	0.01
734.993	0.01
735.307	0.01
735.621	0.01
735.935	0.01
736.249	0.01
736.563	0.01
736.877	0.01
737.19	0.01
737.504	0.01
737.818	0.01
738.131	0.01
738.445	0.01
738.758	0.01
739.072	0.01
739.385	0.02
739.698	0.02
740.012	0.02
740.325	0.01
740.638	0.01
740.951	0.01
741.264	0.01
741.577	0.01
741.89	0.01
742.203	0.01
742.515	0.01
742.828	0.01
743.141	0.01
743.453	0.01
743.766	0.01
744.078	0.01
744.391	0.01
744.703	0.01
745.015	0.01
745.327	0.01
745.639	0.01
745.952	0.01
746.264	0.01
746.575	0.01
746.887	0.01
747.199	0.01
747.511	0.01
747.823	0.01
748.134	0.01
748.446	0.01
748.757	0.01
749.069	0.01
749.38	0.01
749.692	0
750.003	0
750.314	0
750.625	0
750.936	0
751.248	0
751.559	0
751.869	0
752.18	0
752.491	0
752.802	0
753.112	0
753.423	0
753.734	0
754.044	0
754.355	0.01
754.665	0.01
754.975	0.01
755.285	0.01
755.596	0.01
755.906	0.01
756.216	0.01
756.526	0
756.836	0
757.146	0
757.455	0
757.765	0
758.075	0
758.385	0
758.694	0
759.004	0
759.313	0
759.622	0
759.932	0
760.241	0
760.55	0
760.859	0
761.168	0
761.477	0
761.786	0
762.095	0
762.404	0
762.713	0
763.021	0
763.33	0
763.639	0
763.947	0
764.256	0
764.564	0
764.872	0
765.181	0
765.489	0
765.797	0
766.105	-0
766.413	-0
766.721	-0
767.029	0
767.337	0
767.644	0
767.952	0
768.26	0
768.567	0
768.875	0
769.182	0
769.49	0
769.797	0
770.104	0
770.411	0
770.718	0
771.026	0
771.333	0
771.639	0
771.946	0
772.253	0
772.56	0
772.867	0
773.173	0
773.48	0
773.786	0
774.093	0
774.399	0
774.705	0
775.012	0
775.318	0
775.624	0
775.93	0
776.236	-0
776.542	0
776.848	0
777.154	0
777.459	0
777.765	0
778.071	0
778.376	0
778.682	0
778.987	0
779.292	0
779.598	0
779.903	0
780.208	0
780.513	0
780.818	0
781.123	0
781.428	0
781.733	0
782.038	0
782.343	-0
782.647	-0
782.952	-0
783.256	-0
783.561	-0
783.865	-0
784.17	-0
784.474	-0
784.778	-0
785.082	0
785.386	0
785.69	0
785.994	0
786.298	-0
786.602	-0
786.906	-0
787.209	-0
787.513	-0
787.817	-0
788.12	-0
788.424	-0
788.727	-0
789.03	-0
789.333	-0
789.637	-0
789.94	-0
790.243	-0
790.546	-0
790.849	-0
791.152	-0
791.454	-0
791.757	-0
792.06	-0
792.362	-0
792.665	-0
792.967	-0
793.27	-0
793.572	-0
793.874	-0
794.177	0
794.479	0
794.781	0
795.083	0
795.385	0
795.687	0
795.989	0
796.29	0
796.592	0
796.894	0
797.195	0
797.497	0.01
797.798	0
798.1	0
798.401	0
798.702	0
799.003	0
799.304	-0
799.605	-0
799.906	-0
800.207	-0
800.508	0
800.809	0
801.11	0
801.41	0
801.711	0
802.011	0
802.312	0
802.612	-0
802.913	-0
803.213	-0
803.513	-0
803.813	-0
804.113	-0
804.413	-0
804.713	-0
805.013	-0
805.313	-0
805.613	-0.01
805.912	-0.01
806.212	-0.01
806.511	-0.01
806.811	-0.01
807.11	-0.01
807.41	-0.01
807.709	-0.01
808.008	-0.01
808.307	-0
808.606	-0
808.905	-0
809.204	0
809.503	0
809.802	0.01
810.101	0.01
810.399	0.01
810.698	0.01
810.997	0
811.295	0
811.593	0
811.892	-0
812.19	-0
812.488	-0
812.786	-0
813.084	0
813.383	0
813.68	0
813.978	0
814.276	0
814.574	0
814.872	0
815.169	0
815.467	0
815.764	0.01
816.062	0.01
816.359	0.01
816.656	0.01
816.954	0
817.251	0
817.548	0
817.845	0
818.142	0
818.439	0
818.735	0
819.032	0
819.329	0.01
819.626	0.01
819.922	0.01
820.219	0.01
820.515	0.01
820.811	0.01
821.108	0.01
821.404	0
821.7	0
821.996	0
822.292	0
822.588	0
822.884	0
823.18	0
823.475	0
823.771	0
824.067	0
824.362	0
824.658	0
824.953	-0
825.249	0
825.544	0
825.839	0
826.134	0
826.429	0
826.724	0
827.019	0
827.314	0
827.609	0
827.904	0
828.198	0
828.493	0.01
828.787	0.01
829.082	0.01
829.376	0.01
829.671	0.01
829.965	0.01
830.259	0
830.553	0
830.847	0
831.141	0
831.435	0
831.729	0
832.023	0.01
832.317	0.01
832.61	0
832.904	0
833.197	0
833.491	0
833.784	0
834.077	0
834.371	0
834.664	0.01
834.957	0.01
835.25	0
835.543	0.01
835.836	0.01
836.129	0.01
836.421	0.01
836.714	0.01
837.007	0.01
837.299	0.01
837.592	0.01
837.884	0.01
838.177	0
838.469	0
838.761	0
839.053	0
839.345	0
839.637	-0
839.929	-0
840.221	-0
840.513	-0
840.805	-0
841.096	-0
841.388	-0
841.68	-0
841.971	-0
842.262	-0
842.554	0
842.845	0
843.136	0
843.427	0
843.718	0
844.009	0
844.3	0
844.591	0
844.882	0
845.173	0.01
845.463	0.01
845.754	0.01
846.044	0.01
846.335	0.01
846.625	0.01
846.915	0.01
847.206	0.01
847.496	0
847.786	0
848.076	0
848.366	-0
848.656	-0
848.945	-0
849.235	0
849.525	0
849.814	0
850.104	0
850.393	0
850.683	0
850.972	0
851.261	0
851.551	0
851.84	0
852.129	0
852.418	0.01
852.707	0
852.995	0
853.284	0
853.573	0
853.862	0
854.15	0
854.439	0
854.727	0.01
855.015	0.01
855.304	0.01
855.592	0.01
855.88	0.01
856.168	0.01
856.456	0.01
856.744	0.01
857.032	0.01
857.32	0.01
857.607	0.01
857.895	0.01
858.183	0.01
858.47	0.01
858.757	0.01
859.045	0.01
859.332	0
859.619	0
859.907	0
860.194	-0
860.481	0
860.768	-0
861.054	0
861.341	0
861.628	0
861.915	0
862.201	0
862.488	0.01
862.774	0
863.061	-0
863.347	-0
863.633	-0
863.919	-0.01
864.205	-0.02
864.491	-0.02
864.777	-0.02
865.063	-0.02
865.349	-0.02
865.635	-0.02
865.92	-0.01
866.206	-0
866.492	-0.01
866.777	-0.01
867.062	-0.01
867.348	0
867.633	0.01
867.918	-0.01
868.203	-0.01
868.488	-0.01
868.773	-0
869.058	-0
869.343	-0.01
869.628	-0.02
869.912	-0.01
870.197	-0.01
870.482	-0.01
870.766	-0.02
871.05	-0.02
871.335	-0.02
871.619	-0.02
871.903	-0.03
872.187	-0.02
872.471	-0.02
872.755	-0.03
873.039	-0.02
873.323	-0.02
873.607	-0.02
873.89	-0.01
874.174	0
874.458	-0.01
874.741	-0
875.024	-0
875.308	-0.01
875.591	-0.01
875.874	-0.03
876.157	-0.04
876.44	-0.02
876.723	-0.01
877.006	-0
877.289	-0.01
877.572	-0.01
877.854	0.01
878.137	0.02
878.42	-0
878.702	-0.02
878.984	-0.04
879.267	-0.03
879.549	-0.03
879.831	-0.04
880.113	-0.05
880.395	-0.03
880.677	-0.03
880.959	-0.01
