Data from Rubpy_BV_300_EDTA_Buffered_Absorbance_12-15-58-705.txt Node
Date: Wed Jul 01 12:15:58 BST 2026
User: fpm-admin
Spectrometer: OFX00224
Trigger mode: 0
Integration Time (sec): 7.000000E-2
Scans to average: 1
Nonlinearity correction enabled: false
Boxcar width: 3
Storing dark spectrum: false
XAxis mode: Wavelengths
Number of Pixels in Spectrum: 2136
>>>>>Begin Spectral Data<<<<<
154.91	-0
155.289	-0
155.669	-0
156.048	-0
156.428	-0
156.807	-0
157.186	-0.35
157.566	-0.05
157.945	0.13
158.325	0.03
158.704	0.01
159.083	0.01
159.462	-0.02
159.842	-0.04
160.221	-0.15
160.6	-0.6
160.979	-0
161.359	-0
161.738	-0
162.117	-0
162.496	-0.75
162.875	-0.84
163.254	-0.63
163.633	-0.39
164.012	-0.47
164.391	-1.43
164.77	-0
165.149	-0
165.528	-0
165.907	-0
166.286	-0
166.665	0.58
167.044	-0
167.423	-1.11
167.802	-0
168.181	0.19
168.559	0.24
168.938	0.15
169.317	0.39
169.696	0.54
170.074	0.52
170.453	0.45
170.832	0.34
171.21	0.29
171.589	0.63
171.968	0.68
172.346	0.54
172.725	0.32
173.103	0.22
173.482	0.58
173.861	-0
174.239	1.01
174.617	-0
174.996	0.46
175.374	0.56
175.753	-0
176.131	-0
176.51	0.27
176.888	0.09
177.266	0.47
177.645	0.47
178.023	0.42
178.401	0.28
178.779	0.01
179.158	-0
179.536	-0
179.914	-0
180.292	-0
180.67	-0.54
181.048	-0.19
181.427	-0.55
181.805	-0
182.183	-1.72
182.561	-0
182.939	-0
183.317	-0
183.695	-0
184.073	1.46
184.451	-0
184.829	-0
185.206	0.26
185.584	-0
185.962	0.08
186.34	-0.04
186.718	0.02
187.096	0.21
187.473	0.24
187.851	0.2
188.229	0.19
188.607	0.19
188.984	0.23
189.362	0.24
189.74	0.22
190.117	0.23
190.495	0.24
190.872	0.2
191.25	0.18
191.627	0.13
192.005	0.1
192.382	0.09
192.76	0.08
193.137	0.08
193.515	0.1
193.892	0.12
194.269	0.14
194.647	0.16
195.024	0.17
195.401	0.13
195.779	0.13
196.156	0.14
196.533	0.12
196.91	0.1
197.288	0.13
197.665	0.14
198.042	0.18
198.419	0.17
198.796	0.15
199.173	0.14
199.55	0.16
199.927	0.11
200.304	0.1
200.681	0.1
201.058	0.11
201.435	0.13
201.812	0.16
202.189	0.14
202.566	0.18
202.943	0.18
203.32	0.18
203.697	0.19
204.073	0.16
204.45	0.16
204.827	0.18
205.204	0.17
205.58	0.17
205.957	0.16
206.334	0.16
206.71	0.15
207.087	0.15
207.464	0.14
207.84	0.13
208.217	0.12
208.593	0.1
208.97	0.08
209.346	0.09
209.723	0.08
210.099	0.09
210.476	0.09
210.852	0.11
211.228	0.15
211.605	0.15
211.981	0.17
212.357	0.18
212.733	0.18
213.11	0.2
213.486	0.21
213.862	0.21
214.238	0.24
214.614	0.24
214.991	0.22
215.367	0.22
215.743	0.18
216.119	0.17
216.495	0.14
216.871	0.11
217.247	0.08
217.623	0.09
217.999	0.06
218.375	0.09
218.751	0.07
219.127	0.05
219.502	0.05
219.878	0.06
220.254	0.05
220.63	0.06
221.006	0.07
221.381	0.06
221.757	0.08
222.133	0.09
222.508	0.11
222.884	0.11
223.26	0.1
223.635	0.1
224.011	0.09
224.386	0.1
224.762	0.09
225.137	0.08
225.513	0.09
225.888	0.1
226.264	0.07
226.639	0.07
227.014	0.07
227.39	0.09
227.765	0.11
228.14	0.12
228.516	0.14
228.891	0.13
229.266	0.14
229.641	0.12
230.017	0.13
230.392	0.1
230.767	0.07
231.142	0.06
231.517	0.1
231.892	0.11
232.267	0.14
232.642	0.13
233.017	0.15
233.392	0.16
233.767	0.15
234.142	0.16
234.517	0.13
234.892	0.09
235.267	0.08
235.641	0.11
236.016	0.1
236.391	0.13
236.766	0.13
237.14	0.15
237.515	0.16
237.89	0.19
238.264	0.16
238.639	0.19
239.014	0.16
239.388	0.16
239.763	0.16
240.137	0.18
240.512	0.17
240.886	0.17
241.261	0.18
241.635	0.17
242.009	0.2
242.384	0.2
242.758	0.18
243.132	0.19
243.507	0.18
243.881	0.18
244.255	0.19
244.629	0.18
245.004	0.17
245.378	0.17
245.752	0.15
246.126	0.18
246.5	0.15
246.874	0.15
247.248	0.14
247.622	0.15
247.996	0.14
248.37	0.14
248.744	0.1
249.118	0.13
249.492	0.13
249.866	0.14
250.24	0.14
250.613	0.17
250.987	0.19
251.361	0.21
251.735	0.2
252.108	0.2
252.482	0.19
252.856	0.18
253.229	0.17
253.603	0.15
253.977	0.14
254.35	0.14
254.724	0.14
255.097	0.15
255.471	0.12
255.844	0.12
256.218	0.12
256.591	0.14
256.964	0.13
257.338	0.15
257.711	0.15
258.084	0.15
258.458	0.13
258.831	0.13
259.204	0.1
259.577	0.09
259.95	0.08
260.323	0.07
260.697	0.08
261.07	0.09
261.443	0.09
261.816	0.1
262.189	0.1
262.562	0.08
262.935	0.07
263.308	0.08
263.68	0.07
264.053	0.06
264.426	0.04
264.799	0.05
265.172	0.05
265.545	0.05
265.917	0.04
266.29	0.04
266.663	0.03
267.035	0.02
267.408	0.01
267.781	0.02
268.153	0.02
268.526	0.03
268.898	0.03
269.271	0.06
269.643	0.07
270.016	0.09
270.388	0.09
270.76	0.08
271.133	0.08
271.505	0.1
271.877	0.1
272.25	0.11
272.622	0.11
272.994	0.11
273.366	0.11
273.739	0.11
274.111	0.1
274.483	0.11
274.855	0.1
275.227	0.11
275.599	0.13
275.971	0.14
276.343	0.13
276.715	0.14
277.087	0.15
277.459	0.15
277.831	0.17
278.203	0.17
278.574	0.17
278.946	0.17
279.318	0.17
279.69	0.14
280.061	0.15
280.433	0.12
280.805	0.11
281.176	0.11
281.548	0.12
281.92	0.13
282.291	0.14
282.663	0.14
283.034	0.15
283.406	0.15
283.777	0.14
284.148	0.15
284.52	0.15
284.891	0.14
285.262	0.14
285.634	0.14
286.005	0.13
286.376	0.14
286.747	0.16
287.119	0.17
287.49	0.19
287.861	0.2
288.232	0.2
288.603	0.19
288.974	0.18
289.345	0.15
289.716	0.14
290.087	0.14
290.458	0.13
290.829	0.14
291.2	0.14
291.571	0.15
291.941	0.16
292.312	0.16
292.683	0.16
293.054	0.18
293.424	0.19
293.795	0.18
294.166	0.17
294.536	0.19
294.907	0.19
295.277	0.17
295.648	0.16
296.018	0.17
296.389	0.17
296.759	0.18
297.13	0.15
297.5	0.16
297.871	0.15
298.241	0.13
298.611	0.13
298.981	0.12
299.352	0.11
299.722	0.1
300.092	0.1
300.462	0.08
300.832	0.07
301.202	0.05
301.573	0.04
301.943	0.04
302.313	0.04
302.683	0.03
303.053	0.03
303.422	0.04
303.792	0.04
304.162	0.04
304.532	0.04
304.902	0.04
305.272	0.04
305.641	0.04
306.011	0.04
306.381	0.04
306.75	0.04
307.12	0.04
307.49	0.05
307.859	0.05
308.229	0.05
308.598	0.06
308.968	0.06
309.337	0.06
309.707	0.07
310.076	0.07
310.445	0.07
310.815	0.07
311.184	0.07
311.553	0.08
311.923	0.08
312.292	0.09
312.661	0.09
313.03	0.09
313.399	0.1
313.768	0.1
314.137	0.1
314.506	0.11
314.875	0.11
315.244	0.11
315.613	0.12
315.982	0.12
316.351	0.12
316.72	0.12
317.089	0.13
317.458	0.13
317.826	0.13
318.195	0.13
318.564	0.13
318.933	0.14
319.301	0.14
319.67	0.14
320.038	0.15
320.407	0.15
320.775	0.15
321.144	0.16
321.512	0.16
321.881	0.16
322.249	0.16
322.618	0.16
322.986	0.16
323.354	0.16
323.723	0.17
324.091	0.17
324.459	0.17
324.827	0.17
325.195	0.17
325.564	0.18
325.932	0.18
326.3	0.18
326.668	0.18
327.036	0.18
327.404	0.19
327.772	0.19
328.14	0.19
328.508	0.2
328.875	0.2
329.243	0.21
329.611	0.21
329.979	0.22
330.346	0.22
330.714	0.22
331.082	0.23
331.449	0.23
331.817	0.23
332.185	0.23
332.552	0.24
332.92	0.24
333.287	0.24
333.655	0.25
334.022	0.25
334.389	0.26
334.757	0.26
335.124	0.27
335.491	0.28
335.859	0.28
336.226	0.29
336.593	0.3
336.96	0.3
337.327	0.31
337.695	0.31
338.062	0.32
338.429	0.32
338.796	0.33
339.163	0.33
339.53	0.34
339.897	0.35
340.263	0.35
340.63	0.36
340.997	0.37
341.364	0.37
341.731	0.38
342.097	0.39
342.464	0.4
342.831	0.4
343.197	0.41
343.564	0.42
343.931	0.42
344.297	0.43
344.664	0.44
345.03	0.44
345.396	0.45
345.763	0.45
346.129	0.46
346.496	0.46
346.862	0.47
347.228	0.48
347.594	0.48
347.961	0.49
348.327	0.5
348.693	0.51
349.059	0.51
349.425	0.52
349.791	0.52
350.157	0.53
350.523	0.54
350.889	0.54
351.255	0.55
351.621	0.56
351.987	0.57
352.353	0.58
352.719	0.58
353.084	0.59
353.45	0.59
353.816	0.6
354.181	0.61
354.547	0.62
354.913	0.62
355.278	0.63
355.644	0.64
356.009	0.65
356.375	0.66
356.74	0.67
357.106	0.68
357.471	0.69
357.836	0.69
358.202	0.7
358.567	0.71
358.932	0.72
359.297	0.73
359.663	0.74
360.028	0.75
360.393	0.76
360.758	0.77
361.123	0.78
361.488	0.79
361.853	0.81
362.218	0.82
362.583	0.83
362.948	0.84
363.312	0.85
363.677	0.86
364.042	0.87
364.407	0.88
364.772	0.88
365.136	0.89
365.501	0.9
365.865	0.91
366.23	0.92
366.595	0.93
366.959	0.93
367.324	0.94
367.688	0.95
368.052	0.96
368.417	0.97
368.781	0.97
369.145	0.98
369.51	0.99
369.874	1
370.238	1.01
370.602	1.01
370.967	1.02
371.331	1.02
371.695	1.03
372.059	1.03
372.423	1.03
372.787	1.03
373.151	1.03
373.515	1.03
373.878	1.03
374.242	1.02
374.606	1.02
374.97	1.01
375.334	1
375.697	0.99
376.061	0.99
376.425	0.98
376.788	0.97
377.152	0.96
377.515	0.95
377.879	0.94
378.242	0.93
378.606	0.92
378.969	0.91
379.333	0.9
379.696	0.89
380.059	0.88
380.422	0.87
380.786	0.86
381.149	0.85
381.512	0.84
381.875	0.83
382.238	0.83
382.601	0.82
382.964	0.81
383.327	0.8
383.69	0.8
384.053	0.79
384.416	0.79
384.779	0.78
385.142	0.78
385.504	0.78
385.867	0.77
386.23	0.77
386.593	0.77
386.955	0.77
387.318	0.77
387.68	0.77
388.043	0.77
388.405	0.77
388.768	0.77
389.13	0.77
389.493	0.76
389.855	0.76
390.217	0.76
390.58	0.75
390.942	0.75
391.304	0.74
391.666	0.74
392.028	0.73
392.391	0.72
392.753	0.71
393.115	0.7
393.477	0.69
393.839	0.69
394.201	0.68
394.563	0.68
394.924	0.68
395.286	0.68
395.648	0.69
396.01	0.69
396.371	0.7
396.733	0.71
397.095	0.72
397.456	0.73
397.818	0.75
398.18	0.77
398.541	0.79
398.903	0.8
399.264	0.82
399.625	0.84
399.987	0.86
400.348	0.87
400.709	0.88
401.071	0.89
401.432	0.9
401.793	0.9
402.154	0.9
402.515	0.89
402.876	0.87
403.238	0.86
403.599	0.84
403.96	0.81
404.32	0.79
404.681	0.76
405.042	0.73
405.403	0.7
405.764	0.66
406.125	0.63
406.485	0.6
406.846	0.57
407.207	0.53
407.567	0.5
407.928	0.48
408.288	0.45
408.649	0.43
409.009	0.4
409.37	0.37
409.73	0.35
410.091	0.33
410.451	0.31
410.811	0.3
411.171	0.28
411.532	0.27
411.892	0.26
412.252	0.24
412.612	0.23
412.972	0.22
413.332	0.21
413.692	0.2
414.052	0.19
414.412	0.19
414.772	0.18
415.132	0.17
415.492	0.16
415.851	0.16
416.211	0.15
416.571	0.15
416.931	0.14
417.29	0.14
417.65	0.13
418.009	0.13
418.369	0.12
418.728	0.12
419.088	0.12
419.447	0.11
419.807	0.11
420.166	0.11
420.525	0.1
420.884	0.1
421.244	0.1
421.603	0.1
421.962	0.09
422.321	0.09
422.68	0.09
423.039	0.09
423.398	0.09
423.757	0.09
424.116	0.09
424.475	0.08
424.834	0.09
425.193	0.08
425.551	0.08
425.91	0.08
426.269	0.08
426.628	0.08
426.986	0.08
427.345	0.08
427.703	0.08
428.062	0.08
428.42	0.08
428.779	0.08
429.137	0.08
429.496	0.08
429.854	0.08
430.212	0.07
430.57	0.07
430.929	0.07
431.287	0.07
431.645	0.07
432.003	0.07
432.361	0.07
432.719	0.07
433.077	0.07
433.435	0.08
433.793	0.08
434.151	0.07
434.509	0.07
434.866	0.07
435.224	0.07
435.582	0.07
435.94	0.07
436.297	0.07
436.655	0.07
437.012	0.07
437.37	0.07
437.727	0.07
438.085	0.07
438.442	0.07
438.8	0.07
439.157	0.07
439.514	0.07
439.872	0.07
440.229	0.07
440.586	0.07
440.943	0.07
441.3	0.07
441.657	0.06
442.014	0.06
442.371	0.06
442.728	0.06
443.085	0.06
443.442	0.06
443.799	0.06
444.156	0.06
444.513	0.06
444.869	0.06
445.226	0.06
445.583	0.06
445.939	0.06
446.296	0.06
446.652	0.06
447.009	0.06
447.365	0.06
447.722	0.06
448.078	0.06
448.434	0.06
448.791	0.06
449.147	0.06
449.503	0.06
449.859	0.06
450.215	0.07
450.571	0.07
450.928	0.07
451.284	0.07
451.64	0.06
451.995	0.06
452.351	0.06
452.707	0.06
453.063	0.06
453.419	0.07
453.775	0.07
454.13	0.07
454.486	0.06
454.842	0.07
455.197	0.06
455.553	0.06
455.908	0.06
456.264	0.06
456.619	0.06
456.975	0.06
457.33	0.06
457.685	0.06
458.04	0.06
458.396	0.06
458.751	0.05
459.106	0.05
459.461	0.05
459.816	0.05
460.171	0.05
460.526	0.04
460.881	0.04
461.236	0.04
461.591	0.04
461.946	0.04
462.301	0.04
462.655	0.04
463.01	0.04
463.365	0.04
463.719	0.04
464.074	0.04
464.428	0.04
464.783	0.04
465.137	0.03
465.492	0.03
465.846	0.03
466.201	0.03
466.555	0.03
466.909	0.03
467.263	0.03
467.618	0.04
467.972	0.04
468.326	0.04
468.68	0.04
469.034	0.04
469.388	0.04
469.742	0.04
470.096	0.04
470.45	0.05
470.804	0.05
471.157	0.05
471.511	0.06
471.865	0.06
472.218	0.06
472.572	0.06
472.926	0.06
473.279	0.06
473.633	0.06
473.986	0.06
474.34	0.07
474.693	0.07
475.046	0.08
475.4	0.08
475.753	0.08
476.106	0.09
476.459	0.09
476.812	0.1
477.165	0.1
477.519	0.11
477.872	0.11
478.224	0.12
478.577	0.12
478.93	0.12
479.283	0.13
479.636	0.13
479.989	0.13
480.341	0.13
480.694	0.14
481.047	0.14
481.399	0.14
481.752	0.14
482.104	0.15
482.457	0.15
482.809	0.15
483.162	0.16
483.514	0.16
483.866	0.16
484.219	0.16
484.571	0.17
484.923	0.17
485.275	0.17
485.627	0.17
485.979	0.18
486.331	0.18
486.683	0.18
487.035	0.18
487.387	0.19
487.739	0.19
488.091	0.19
488.443	0.2
488.794	0.2
489.146	0.21
489.498	0.21
489.849	0.21
490.201	0.21
490.552	0.22
490.904	0.22
491.255	0.22
491.607	0.22
491.958	0.22
492.309	0.22
492.661	0.22
493.012	0.23
493.363	0.23
493.714	0.23
494.065	0.23
494.416	0.24
494.767	0.24
495.118	0.24
495.469	0.24
495.82	0.24
496.171	0.25
496.522	0.25
496.872	0.25
497.223	0.25
497.574	0.26
497.924	0.26
498.275	0.26
498.626	0.26
498.976	0.27
499.327	0.27
499.677	0.27
500.027	0.27
500.378	0.28
500.728	0.28
501.078	0.28
501.428	0.28
501.779	0.28
502.129	0.29
502.479	0.29
502.829	0.29
503.179	0.29
503.529	0.29
503.879	0.29
504.229	0.29
504.578	0.3
504.928	0.3
505.278	0.3
505.628	0.3
505.977	0.31
506.327	0.31
506.676	0.31
507.026	0.31
507.375	0.32
507.725	0.32
508.074	0.32
508.424	0.32
508.773	0.32
509.122	0.33
509.471	0.33
509.82	0.33
510.17	0.33
510.519	0.33
510.868	0.33
511.217	0.34
511.566	0.34
511.915	0.34
512.263	0.34
512.612	0.34
512.961	0.34
513.31	0.35
513.659	0.35
514.007	0.35
514.356	0.35
514.704	0.35
515.053	0.36
515.401	0.36
515.75	0.36
516.098	0.36
516.447	0.37
516.795	0.37
517.143	0.37
517.491	0.37
517.839	0.37
518.188	0.37
518.536	0.37
518.884	0.37
519.232	0.38
519.58	0.38
519.928	0.38
520.275	0.38
520.623	0.38
520.971	0.39
521.319	0.39
521.666	0.39
522.014	0.39
522.362	0.39
522.709	0.4
523.057	0.4
523.404	0.4
523.752	0.4
524.099	0.4
524.446	0.4
524.794	0.4
525.141	0.4
525.488	0.41
525.835	0.41
526.182	0.41
526.529	0.41
526.876	0.41
527.223	0.41
527.57	0.41
527.917	0.41
528.264	0.41
528.611	0.42
528.958	0.42
529.304	0.42
529.651	0.42
529.998	0.42
530.344	0.42
530.691	0.42
531.037	0.43
531.384	0.43
531.73	0.43
532.076	0.43
532.423	0.43
532.769	0.43
533.115	0.43
533.461	0.43
533.807	0.43
534.154	0.43
534.5	0.43
534.846	0.43
535.192	0.43
535.537	0.43
535.883	0.43
536.229	0.44
536.575	0.44
536.921	0.44
537.266	0.44
537.612	0.45
537.957	0.45
538.303	0.45
538.649	0.45
538.994	0.45
539.339	0.45
539.685	0.45
540.03	0.45
540.375	0.45
540.721	0.45
541.066	0.45
541.411	0.45
541.756	0.45
542.101	0.45
542.446	0.45
542.791	0.45
543.136	0.46
543.481	0.46
543.825	0.46
544.17	0.46
544.515	0.46
544.86	0.46
545.204	0.46
545.549	0.46
545.893	0.46
546.238	0.46
546.582	0.46
546.927	0.46
547.271	0.47
547.615	0.47
547.96	0.47
548.304	0.47
548.648	0.47
548.992	0.47
549.336	0.47
549.68	0.47
550.024	0.47
550.368	0.47
550.712	0.47
551.056	0.47
551.4	0.48
551.743	0.48
552.087	0.48
552.431	0.48
552.774	0.48
553.118	0.48
553.462	0.48
553.805	0.48
554.148	0.48
554.492	0.48
554.835	0.48
555.178	0.48
555.522	0.48
555.865	0.48
556.208	0.48
556.551	0.48
556.894	0.48
557.237	0.48
557.58	0.47
557.923	0.48
558.266	0.47
558.609	0.48
558.952	0.48
559.294	0.48
559.637	0.47
559.98	0.47
560.322	0.47
560.665	0.47
561.007	0.47
561.35	0.47
561.692	0.47
562.034	0.47
562.377	0.47
562.719	0.47
563.061	0.47
563.403	0.47
563.745	0.47
564.088	0.47
564.43	0.47
564.772	0.47
565.113	0.47
565.455	0.47
565.797	0.47
566.139	0.47
566.481	0.47
566.822	0.47
567.164	0.47
567.506	0.47
567.847	0.47
568.189	0.47
568.53	0.46
568.872	0.46
569.213	0.46
569.554	0.46
569.895	0.46
570.237	0.46
570.578	0.45
570.919	0.45
571.26	0.45
571.601	0.45
571.942	0.45
572.283	0.45
572.624	0.45
572.965	0.45
573.306	0.44
573.646	0.44
573.987	0.44
574.328	0.44
574.668	0.44
575.009	0.44
575.349	0.44
575.69	0.44
576.03	0.44
576.37	0.43
576.711	0.43
577.051	0.43
577.391	0.43
577.731	0.43
578.072	0.43
578.412	0.43
578.752	0.42
579.092	0.41
579.431	0.41
579.771	0.4
580.111	0.4
580.451	0.4
580.791	0.41
581.13	0.41
581.47	0.42
581.81	0.42
582.149	0.41
582.489	0.4
582.828	0.38
583.167	0.37
583.507	0.37
583.846	0.37
584.185	0.37
584.525	0.38
584.864	0.39
585.203	0.4
585.542	0.41
585.881	0.42
586.22	0.41
586.559	0.41
586.898	0.4
587.236	0.4
587.575	0.4
587.914	0.4
588.252	0.4
588.591	0.41
588.93	0.41
589.268	0.41
589.607	0.41
589.945	0.41
590.283	0.42
590.622	0.42
590.96	0.42
591.298	0.42
591.636	0.43
591.974	0.43
592.313	0.43
592.651	0.43
592.989	0.43
593.326	0.42
593.664	0.42
594.002	0.42
594.34	0.41
594.678	0.41
595.015	0.41
595.353	0.41
595.691	0.41
596.028	0.41
596.366	0.42
596.703	0.42
597.04	0.43
597.378	0.43
597.715	0.43
598.052	0.43
598.389	0.43
598.726	0.43
599.064	0.42
599.401	0.42
599.738	0.42
600.074	0.42
600.411	0.41
600.748	0.41
601.085	0.41
601.422	0.41
601.758	0.41
602.095	0.41
602.432	0.41
602.768	0.42
603.105	0.42
603.441	0.42
603.777	0.42
604.114	0.42
604.45	0.42
604.786	0.42
605.122	0.42
605.459	0.42
605.795	0.41
606.131	0.41
606.467	0.41
606.803	0.41
607.139	0.41
607.474	0.41
607.81	0.41
608.146	0.41
608.482	0.41
608.817	0.4
609.153	0.4
609.488	0.4
609.824	0.4
610.159	0.4
610.495	0.4
610.83	0.4
611.165	0.4
611.5	0.4
611.836	0.4
612.171	0.4
612.506	0.4
612.841	0.4
613.176	0.4
613.511	0.4
613.845	0.4
614.18	0.39
614.515	0.39
614.85	0.39
615.184	0.39
615.519	0.39
615.854	0.39
616.188	0.38
616.523	0.38
616.857	0.38
617.191	0.38
617.526	0.38
617.86	0.38
618.194	0.38
618.528	0.38
618.862	0.38
619.196	0.38
619.53	0.38
619.864	0.38
620.198	0.37
620.532	0.37
620.866	0.37
621.2	0.37
621.533	0.37
621.867	0.37
622.201	0.37
622.534	0.37
622.868	0.36
623.201	0.36
623.534	0.36
623.868	0.36
624.201	0.35
624.534	0.35
624.868	0.35
625.201	0.35
625.534	0.35
625.867	0.35
626.2	0.34
626.533	0.34
626.865	0.34
627.198	0.34
627.531	0.34
627.864	0.34
628.196	0.34
628.529	0.33
628.862	0.33
629.194	0.33
629.527	0.33
629.859	0.33
630.191	0.32
630.524	0.32
630.856	0.32
631.188	0.32
631.52	0.32
631.852	0.32
632.184	0.32
632.516	0.32
632.848	0.32
633.18	0.31
633.512	0.31
633.844	0.31
634.175	0.31
634.507	0.31
634.839	0.3
635.17	0.3
635.502	0.3
635.833	0.29
636.165	0.29
636.496	0.29
636.827	0.29
637.159	0.28
637.49	0.28
637.821	0.28
638.152	0.28
638.483	0.28
638.814	0.28
639.145	0.28
639.476	0.27
639.807	0.27
640.137	0.27
640.468	0.27
640.799	0.26
641.129	0.26
641.46	0.26
641.791	0.26
642.121	0.26
642.451	0.26
642.782	0.26
643.112	0.25
643.442	0.25
643.773	0.25
644.103	0.25
644.433	0.25
644.763	0.25
645.093	0.24
645.423	0.24
645.753	0.24
646.082	0.24
646.412	0.24
646.742	0.24
647.072	0.23
647.401	0.23
647.731	0.23
648.06	0.23
648.39	0.23
648.719	0.23
649.048	0.22
649.378	0.22
649.707	0.22
650.036	0.22
650.365	0.22
650.694	0.22
651.023	0.22
651.352	0.22
651.681	0.22
652.01	0.22
652.339	0.22
652.668	0.22
652.996	0.22
653.325	0.22
653.654	0.22
653.982	0.22
654.311	0.22
654.639	0.22
654.967	0.22
655.296	0.22
655.624	0.22
655.952	0.21
656.28	0.21
656.609	0.19
656.937	0.15
657.265	0.11
657.593	0.08
657.92	0.06
658.248	0.06
658.576	0.06
658.904	0.08
659.231	0.1
659.559	0.13
659.887	0.17
660.214	0.2
660.542	0.21
660.869	0.21
661.196	0.21
661.524	0.21
661.851	0.21
662.178	0.21
662.505	0.2
662.832	0.2
663.159	0.2
663.486	0.2
663.813	0.2
664.14	0.2
664.467	0.2
664.794	0.19
665.12	0.19
665.447	0.19
665.774	0.19
666.1	0.19
666.427	0.19
666.753	0.19
667.079	0.18
667.406	0.18
667.732	0.18
668.058	0.18
668.384	0.18
668.71	0.18
669.036	0.18
669.362	0.18
669.688	0.18
670.014	0.18
670.34	0.18
670.666	0.17
670.991	0.17
671.317	0.17
671.643	0.17
671.968	0.17
672.294	0.17
672.619	0.16
672.945	0.16
673.27	0.16
673.595	0.16
673.92	0.16
674.246	0.16
674.571	0.16
674.896	0.16
675.221	0.16
675.546	0.15
675.87	0.15
676.195	0.15
676.52	0.15
676.845	0.14
677.169	0.14
677.494	0.14
677.819	0.14
678.143	0.14
678.468	0.14
678.792	0.14
679.116	0.14
679.44	0.14
679.765	0.13
680.089	0.13
680.413	0.13
680.737	0.13
681.061	0.13
681.385	0.12
681.709	0.12
682.033	0.12
682.356	0.12
682.68	0.12
683.004	0.12
683.327	0.12
683.651	0.12
683.974	0.11
684.298	0.11
684.621	0.11
684.944	0.11
685.268	0.11
685.591	0.11
685.914	0.11
686.237	0.1
686.56	0.1
686.883	0.1
687.206	0.09
687.529	0.09
687.852	0.09
688.175	0.09
688.497	0.09
688.82	0.09
689.142	0.09
689.465	0.09
689.787	0.09
690.11	0.09
690.432	0.09
690.755	0.09
691.077	0.08
691.399	0.08
691.721	0.08
692.043	0.08
692.365	0.08
692.687	0.08
693.009	0.08
693.331	0.07
693.653	0.07
693.974	0.07
694.296	0.07
694.618	0.07
694.939	0.07
695.261	0.07
695.582	0.07
695.904	0.07
696.225	0.07
696.546	0.07
696.868	0.06
697.189	0.06
697.51	0.06
697.831	0.06
698.152	0.06
698.473	0.05
698.794	0.05
699.114	0.05
699.435	0.05
699.756	0.05
700.077	0.05
700.397	0.05
700.718	0.05
701.038	0.05
701.359	0.05
701.679	0.05
701.999	0.05
702.32	0.05
702.64	0.05
702.96	0.05
703.28	0.05
703.6	0.05
703.92	0.04
704.24	0.04
704.56	0.04
704.879	0.04
705.199	0.04
705.519	0.04
705.838	0.05
706.158	0.05
706.478	0.05
706.797	0.05
707.116	0.05
707.436	0.05
707.755	0.04
708.074	0.04
708.393	0.04
708.712	0.03
709.031	0.03
709.35	0.03
709.669	0.03
709.988	0.03
710.307	0.03
710.626	0.03
710.944	0.03
711.263	0.03
711.582	0.03
711.9	0.04
712.219	0.04
712.537	0.04
712.855	0.04
713.174	0.04
713.492	0.04
713.81	0.04
714.128	0.03
714.446	0.03
714.764	0.03
715.082	0.03
715.4	0.03
715.718	0.03
716.035	0.03
716.353	0.04
716.671	0.04
716.988	0.04
717.306	0.04
717.623	0.04
717.941	0.04
718.258	0.04
718.575	0.05
718.893	0.05
719.21	0.05
719.527	0.04
719.844	0.04
720.161	0.04
720.478	0.04
720.795	0.04
721.112	0.04
721.428	0.04
721.745	0.04
722.062	0.04
722.378	0.05
722.695	0.05
723.011	0.05
723.328	0.05
723.644	0.05
723.96	0.05
724.276	0.05
724.593	0.05
724.909	0.05
725.225	0.05
725.541	0.05
725.857	0.05
726.173	0.05
726.488	0.05
726.804	0.05
727.12	0.05
727.435	0.05
727.751	0.05
728.067	0.05
728.382	0.05
728.697	0.05
729.013	0.05
729.328	0.05
729.643	0.05
729.958	0.05
730.273	0.05
730.588	0.05
730.903	0.04
731.218	0.04
731.533	0.04
731.848	0.04
732.163	0.04
732.477	0.04
732.792	0.04
733.107	0.04
733.421	0.04
733.736	0.04
734.05	0.04
734.364	0.04
734.678	0.05
734.993	0.04
735.307	0.04
735.621	0.04
735.935	0.04
736.249	0.05
736.563	0.04
736.877	0.04
737.19	0.04
737.504	0.05
737.818	0.05
738.131	0.05
738.445	0.05
738.758	0.05
739.072	0.05
739.385	0.05
739.698	0.05
740.012	0.05
740.325	0.05
740.638	0.05
740.951	0.05
741.264	0.05
741.577	0.05
741.89	0.05
742.203	0.04
742.515	0.04
742.828	0.04
743.141	0.04
743.453	0.04
743.766	0.04
744.078	0.04
744.391	0.04
744.703	0.04
745.015	0.04
745.327	0.04
745.639	0.04
745.952	0.04
746.264	0.04
746.575	0.04
746.887	0.04
747.199	0.04
747.511	0.04
747.823	0.03
748.134	0.03
748.446	0.03
748.757	0.03
749.069	0.03
749.38	0.03
749.692	0.03
750.003	0.03
750.314	0.03
750.625	0.03
750.936	0.02
751.248	0.02
751.559	0.02
751.869	0.02
752.18	0.02
752.491	0.02
752.802	0.02
753.112	0.02
753.423	0.02
753.734	0.02
754.044	0.02
754.355	0.02
754.665	0.02
754.975	0.02
755.285	0.02
755.596	0.02
755.906	0.02
756.216	0.02
756.526	0.02
756.836	0.02
757.146	0.02
757.455	0.02
757.765	0.02
758.075	0.01
758.385	0.01
758.694	0.01
759.004	0.01
759.313	0.01
759.622	0.01
759.932	0.01
760.241	0.01
760.55	0.02
760.859	0.02
761.168	0.01
761.477	0.01
761.786	0.01
762.095	0.01
762.404	0.01
762.713	0.01
763.021	0.02
763.33	0.02
763.639	0.02
763.947	0.02
764.256	0.02
764.564	0.01
764.872	0.01
765.181	0.01
765.489	0.01
765.797	0.01
766.105	0.01
766.413	0.01
766.721	0.01
767.029	0.01
767.337	0.02
767.644	0.02
767.952	0.02
768.26	0.02
768.567	0.02
768.875	0.02
769.182	0.01
769.49	0.01
769.797	0.01
770.104	0.01
770.411	0.01
770.718	0.01
771.026	0.01
771.333	0.01
771.639	0.01
771.946	0.01
772.253	0.02
772.56	0.02
772.867	0.02
773.173	0.02
773.48	0.02
773.786	0.02
774.093	0.02
774.399	0.02
774.705	0.02
775.012	0.02
775.318	0.02
775.624	0.02
775.93	0.02
776.236	0.02
776.542	0.02
776.848	0.02
777.154	0.02
777.459	0.01
777.765	0.01
778.071	0.01
778.376	0.01
778.682	0.01
778.987	0.01
779.292	0.01
779.598	0.01
779.903	0.01
780.208	0.01
780.513	0.01
780.818	0.01
781.123	0.01
781.428	0.01
781.733	0.01
782.038	0.01
782.343	0.01
782.647	0.01
782.952	0.01
783.256	0.01
783.561	0.01
783.865	0.01
784.17	0.01
784.474	0.02
784.778	0.02
785.082	0.02
785.386	0.02
785.69	0.02
785.994	0.02
786.298	0.01
786.602	0.01
786.906	0.01
787.209	0.01
787.513	0.01
787.817	0.01
788.12	0.01
788.424	0.01
788.727	0.01
789.03	0.01
789.333	0.01
789.637	0.01
789.94	0.02
790.243	0.02
790.546	0.02
790.849	0.02
791.152	0.02
791.454	0.02
791.757	0.02
792.06	0.02
792.362	0.02
792.665	0.02
792.967	0.01
793.27	0.01
793.572	0.01
793.874	0.01
794.177	0.01
794.479	0.01
794.781	0.01
795.083	0.02
795.385	0.02
795.687	0.02
795.989	0.02
796.29	0.02
796.592	0.02
796.894	0.03
797.195	0.03
797.497	0.03
797.798	0.02
798.1	0.02
798.401	0.02
798.702	0.02
799.003	0.02
799.304	0.02
799.605	0.02
799.906	0.02
800.207	0.02
800.508	0.02
800.809	0.02
801.11	0.02
801.41	0.02
801.711	0.02
802.011	0.02
802.312	0.02
802.612	0.02
802.913	0.02
803.213	0.02
803.513	0.02
803.813	0.02
804.113	0.02
804.413	0.02
804.713	0.02
805.013	0.02
805.313	0.02
805.613	0.02
805.912	0.02
806.212	0.02
806.511	0.02
806.811	0.02
807.11	0.02
807.41	0.02
807.709	0.02
808.008	0.02
808.307	0.02
808.606	0.02
808.905	0.02
809.204	0.03
809.503	0.03
809.802	0.03
810.101	0.03
810.399	0.03
810.698	0.03
810.997	0.03
811.295	0.03
811.593	0.02
811.892	0.02
812.19	0.02
812.488	0.02
812.786	0.02
813.084	0.03
813.383	0.03
813.68	0.03
813.978	0.03
814.276	0.03
814.574	0.03
814.872	0.03
815.169	0.03
815.467	0.03
815.764	0.03
816.062	0.03
816.359	0.04
816.656	0.04
816.954	0.04
817.251	0.04
817.548	0.04
817.845	0.04
818.142	0.03
818.439	0.03
818.735	0.03
819.032	0.04
819.329	0.04
819.626	0.04
819.922	0.04
820.219	0.04
820.515	0.03
820.811	0.03
821.108	0.03
821.404	0.03
821.7	0.03
821.996	0.03
822.292	0.03
822.588	0.03
822.884	0.03
823.18	0.03
823.475	0.03
823.771	0.03
824.067	0.03
824.362	0.03
824.658	0.03
824.953	0.03
825.249	0.03
825.544	0.03
825.839	0.03
826.134	0.03
826.429	0.04
826.724	0.04
827.019	0.04
827.314	0.04
827.609	0.04
827.904	0.04
828.198	0.04
828.493	0.05
828.787	0.05
829.082	0.05
829.376	0.05
829.671	0.05
829.965	0.05
830.259	0.05
830.553	0.05
830.847	0.05
831.141	0.05
831.435	0.05
831.729	0.05
832.023	0.05
832.317	0.05
832.61	0.05
832.904	0.05
833.197	0.04
833.491	0.04
833.784	0.04
834.077	0.04
834.371	0.04
834.664	0.04
834.957	0.04
835.25	0.04
835.543	0.05
835.836	0.05
836.129	0.05
836.421	0.05
836.714	0.05
837.007	0.05
837.299	0.05
837.592	0.05
837.884	0.05
838.177	0.05
838.469	0.05
838.761	0.05
839.053	0.05
839.345	0.05
839.637	0.05
839.929	0.05
840.221	0.05
840.513	0.05
840.805	0.05
841.096	0.05
841.388	0.06
841.68	0.06
841.971	0.06
842.262	0.06
842.554	0.06
842.845	0.06
843.136	0.06
843.427	0.06
843.718	0.06
844.009	0.06
844.3	0.06
844.591	0.06
844.882	0.06
845.173	0.06
845.463	0.06
845.754	0.06
846.044	0.06
846.335	0.06
846.625	0.06
846.915	0.06
847.206	0.06
847.496	0.06
847.786	0.06
848.076	0.06
848.366	0.06
848.656	0.06
848.945	0.06
849.235	0.07
849.525	0.07
849.814	0.07
850.104	0.07
850.393	0.07
850.683	0.07
850.972	0.07
851.261	0.07
851.551	0.07
851.84	0.06
852.129	0.07
852.418	0.07
852.707	0.07
852.995	0.07
853.284	0.07
853.573	0.07
853.862	0.07
854.15	0.07
854.439	0.07
854.727	0.07
855.015	0.07
855.304	0.07
855.592	0.07
855.88	0.07
856.168	0.07
856.456	0.07
856.744	0.07
857.032	0.07
857.32	0.07
857.607	0.08
857.895	0.08
858.183	0.08
858.47	0.08
858.757	0.08
859.045	0.08
859.332	0.07
859.619	0.07
859.907	0.07
860.194	0.07
860.481	0.07
860.768	0.07
861.054	0.07
861.341	0.07
861.628	0.08
861.915	0.08
862.201	0.09
862.488	0.09
862.774	0.09
863.061	0.09
863.347	0.09
863.633	0.08
863.919	0.07
864.205	0.06
864.491	0.06
864.777	0.05
865.063	0.05
865.349	0.05
865.635	0.05
865.92	0.06
866.206	0.07
866.492	0.06
866.777	0.07
867.062	0.07
867.348	0.07
867.633	0.08
867.918	0.07
868.203	0.07
868.488	0.08
868.773	0.07
869.058	0.07
869.343	0.07
869.628	0.07
869.912	0.07
870.197	0.07
870.482	0.08
870.766	0.08
871.05	0.07
871.335	0.07
871.619	0.06
871.903	0.06
872.187	0.06
872.471	0.05
872.755	0.05
873.039	0.05
873.323	0.06
873.607	0.06
873.89	0.06
874.174	0.07
874.458	0.07
874.741	0.05
875.024	0.05
875.308	0.05
875.591	0.06
875.874	0.06
876.157	0.04
876.44	0.06
876.723	0.07
877.006	0.08
877.289	0.07
877.572	0.06
877.854	0.06
878.137	0.07
878.42	0.05
878.702	0.04
878.984	0.02
879.267	0.02
879.549	0.04
879.831	0.03
880.113	0.02
880.395	0.04
880.677	0.05
880.959	0.05
