Data from Rubpy_BV_300_EDTA_Buffered_Absorbance_11-47-17-716.txt Node
Date: Wed Jul 01 11:47:17 BST 2026
User: fpm-admin
Spectrometer: OFX00224
Trigger mode: 0
Integration Time (sec): 7.000000E-2
Scans to average: 1
Nonlinearity correction enabled: false
Boxcar width: 3
Storing dark spectrum: false
XAxis mode: Wavelengths
Number of Pixels in Spectrum: 2136
>>>>>Begin Spectral Data<<<<<
154.91	-0
155.289	-0.03
155.669	-0.07
156.048	-0.04
156.428	-0.67
156.807	-0.52
157.186	-0
157.566	-0
157.945	-0
158.325	1.2
158.704	1.05
159.083	-0
159.462	0.59
159.842	-0
160.221	-0
160.6	0.85
160.979	0.75
161.359	0.37
161.738	0.43
162.117	-0
162.496	-0.46
162.875	-0.7
163.254	-0
163.633	0.34
164.012	1.34
164.391	0.3
164.77	-0.02
165.149	-0.5
165.528	-0.69
165.907	-0.32
166.286	-0.68
166.665	-0.37
167.044	-0.34
167.423	-1.06
167.802	-0
168.181	0.67
168.559	0.24
168.938	-0.02
169.317	0.29
169.696	0.65
170.074	0.58
170.453	0.7
170.832	0.62
171.21	0.55
171.589	1.11
171.968	-0
172.346	-0
172.725	-0
173.103	-0
173.482	-0
173.861	-0
174.239	-0
174.617	-0
174.996	-0
175.374	-0
175.753	-0
176.131	0.13
176.51	-0.05
176.888	-0.13
177.266	0.04
177.645	-0.09
178.023	0.04
178.401	0
178.779	0.04
179.158	-0
179.536	-0
179.914	-0
180.292	-0
180.67	-0.55
181.048	-0.36
181.427	-0.47
181.805	-0
182.183	-1.43
182.561	0.9
182.939	1.14
183.317	-0
183.695	-0
184.073	-0
184.451	-0
184.829	-0
185.206	-0.14
185.584	-0.31
185.962	-0.08
186.34	-0.12
186.718	-0.09
187.096	-0.12
187.473	0.01
187.851	-0.04
188.229	0.02
188.607	0.04
188.984	0.07
189.362	0.06
189.74	0.06
190.117	0.08
190.495	0.07
190.872	0.06
191.25	0.02
191.627	-0.01
192.005	-0
192.382	-0
192.76	-0.02
193.137	0
193.515	-0
193.892	0
194.269	0.02
194.647	0.02
195.024	-0
195.401	-0.02
195.779	-0.03
196.156	-0.04
196.533	-0.04
196.91	-0.04
197.288	-0.04
197.665	-0.03
198.042	-0.02
198.419	-0.03
198.796	-0.01
199.173	-0.01
199.55	-0.02
199.927	-0.04
200.304	-0.03
200.681	-0.04
201.058	-0.04
201.435	-0.02
201.812	-0.03
202.189	-0.02
202.566	0.01
202.943	0.02
203.32	0.04
203.697	0.04
204.073	0.03
204.45	0.04
204.827	0.05
205.204	0.01
205.58	-0.01
205.957	-0
206.334	0
206.71	-0.01
207.087	-0
207.464	-0.03
207.84	-0.01
208.217	0.02
208.593	0
208.97	0
209.346	-0
209.723	-0.01
210.099	0.03
210.476	0.02
210.852	0.01
211.228	0.02
211.605	0.02
211.981	0.05
212.357	0.05
212.733	0.05
213.11	0.06
213.486	0.06
213.862	0.05
214.238	0.07
214.614	0.07
214.991	0.07
215.367	0.06
215.743	0.03
216.119	0.02
216.495	0
216.871	-0.03
217.247	-0.07
217.623	-0.07
217.999	-0.08
218.375	-0.08
218.751	-0.09
219.127	-0.08
219.502	-0.07
219.878	-0.04
220.254	-0.05
220.63	-0.06
221.006	-0.04
221.381	-0.04
221.757	-0.02
222.133	-0.01
222.508	-0
222.884	-0.01
223.26	0.01
223.635	0.01
224.011	0.02
224.386	0.02
224.762	0.01
225.137	-0
225.513	0.02
225.888	0
226.264	-0.01
226.639	-0.03
227.014	-0.04
227.39	-0.01
227.765	-0.01
228.14	-0.01
228.516	0.01
228.891	-0.01
229.266	0
229.641	0.01
230.017	-0.01
230.392	-0.01
230.767	-0.04
231.142	-0.05
231.517	-0.03
231.892	-0.03
232.267	-0.03
232.642	-0.03
233.017	-0.04
233.392	-0.02
233.767	-0.03
234.142	-0.02
234.517	-0.04
234.892	-0.02
235.267	-0.04
235.641	-0.02
236.016	-0.02
236.391	0
236.766	-0
237.14	0.02
237.515	-0.02
237.89	0.02
238.264	0.03
238.639	0.04
239.014	0.02
239.388	0.03
239.763	0.03
240.137	0.04
240.512	0.04
240.886	0.01
241.261	-0.01
241.635	-0.01
242.009	-0.03
242.384	-0.03
242.758	-0.02
243.132	-0.02
243.507	-0
243.881	0
244.255	0
244.629	0.01
245.004	0.01
245.378	0
245.752	-0.01
246.126	0.01
246.5	0.01
246.874	0.01
247.248	-0.01
247.622	-0.01
247.996	-0.01
248.37	-0.03
248.744	-0.06
249.118	-0.05
249.492	-0.05
249.866	-0.03
250.24	-0.04
250.613	-0.03
250.987	0.01
251.361	0.03
251.735	0.01
252.108	0.01
252.482	-0.01
252.856	0.01
253.229	0
253.603	-0.05
253.977	-0.07
254.35	-0.05
254.724	-0.05
255.097	-0.05
255.471	-0.07
255.844	-0.08
256.218	-0.05
256.591	-0.03
256.964	-0.03
257.338	-0.02
257.711	-0.01
258.084	-0
258.458	0
258.831	-0
259.204	0.01
259.577	-0.01
259.95	-0
260.323	-0
260.697	0.01
261.07	0.02
261.443	0.03
261.816	0.03
262.189	0.03
262.562	0.04
262.935	0.04
263.308	0.03
263.68	0.02
264.053	0.02
264.426	0.01
264.799	0.02
265.172	0.01
265.545	-0
265.917	0.01
266.29	-0.01
266.663	-0.01
267.035	-0.02
267.408	-0.03
267.781	-0.01
268.153	0
268.526	-0.01
268.898	0.01
269.271	0.01
269.643	0.02
270.016	0.02
270.388	0.01
270.76	0.02
271.133	0.02
271.505	0.02
271.877	0.02
272.25	0.03
272.622	0.04
272.994	0.03
273.366	0.01
273.739	0.02
274.111	-0
274.483	-0.01
274.855	-0.03
275.227	-0.03
275.599	-0.02
275.971	-0.02
276.343	-0.03
276.715	-0.01
277.087	0.01
277.459	0.02
277.831	0.03
278.203	0.03
278.574	0.03
278.946	0.04
279.318	0.05
279.69	0.01
280.061	0
280.433	-0.01
280.805	-0.02
281.176	-0.04
281.548	-0.03
281.92	-0.03
282.291	-0.01
282.663	-0
283.034	-0
283.406	0.01
283.777	0.03
284.148	0.02
284.52	0.02
284.891	0.01
285.262	0.01
285.634	0.01
286.005	-0
286.376	-0.02
286.747	-0
287.119	0
287.49	-0.01
287.861	-0
288.232	-0
288.603	-0
288.974	-0.02
289.345	-0.04
289.716	-0.05
290.087	-0.03
290.458	-0.03
290.829	-0.02
291.2	-0.01
291.571	0.01
291.941	0.01
292.312	0.02
292.683	0.03
293.054	0.03
293.424	0.03
293.795	0.01
294.166	0.01
294.536	0.02
294.907	0.02
295.277	0.01
295.648	0
296.018	0.01
296.389	0.03
296.759	0.02
297.13	-0.01
297.5	0.01
297.871	-0
298.241	0
298.611	0
298.981	0
299.352	0.01
299.722	0.03
300.092	0.02
300.462	0.01
300.832	0
301.202	-0.01
301.573	-0.01
301.943	0
302.313	0
302.683	0.01
303.053	0.01
303.422	0.01
303.792	0.01
304.162	0.01
304.532	0.01
304.902	0
305.272	-0
305.641	0
306.011	-0
306.381	-0.01
306.75	-0
307.12	-0.01
307.49	-0.01
307.859	-0.01
308.229	-0.01
308.598	-0.01
308.968	-0
309.337	-0
309.707	-0
310.076	-0
310.445	-0
310.815	-0
311.184	-0
311.553	-0
311.923	-0
312.292	0
312.661	0
313.03	-0
313.399	0
313.768	0
314.137	-0
314.506	0
314.875	0
315.244	0
315.613	0
315.982	0
316.351	0
316.72	0.01
317.089	0.01
317.458	0.01
317.826	0
318.195	0
318.564	0
318.933	0
319.301	0
319.67	0
320.038	0
320.407	0
320.775	0
321.144	0
321.512	0
321.881	0
322.249	0
322.618	-0
322.986	-0
323.354	0
323.723	0
324.091	0
324.459	0
324.827	0
325.195	0
325.564	0
325.932	0
326.3	0
326.668	0
327.036	0
327.404	0
327.772	0
328.14	0
328.508	0
328.875	0.01
329.243	0.01
329.611	0.01
329.979	0
330.346	0
330.714	0
331.082	0
331.449	0
331.817	0
332.185	-0
332.552	-0
332.92	-0
333.287	0
333.655	-0
334.022	0
334.389	0
334.757	0
335.124	0
335.491	0
335.859	0
336.226	0
336.593	0
336.96	0
337.327	0
337.695	0
338.062	0
338.429	0
338.796	0
339.163	0
339.53	0
339.897	0
340.263	0
340.63	0
340.997	0
341.364	0
341.731	0
342.097	0
342.464	0
342.831	0
343.197	0
343.564	0
343.931	0
344.297	0
344.664	0
345.03	0
345.396	0.01
345.763	0.01
346.129	0.01
346.496	0.01
346.862	0.01
347.228	0.01
347.594	0.01
347.961	0.01
348.327	0.01
348.693	0.01
349.059	0.01
349.425	0.01
349.791	0.01
350.157	0.01
350.523	0.01
350.889	0.01
351.255	0.01
351.621	0.01
351.987	0.01
352.353	0.01
352.719	0.01
353.084	0.01
353.45	0.01
353.816	0.01
354.181	0.01
354.547	0.01
354.913	0.01
355.278	0.01
355.644	0.01
356.009	0.01
356.375	0.01
356.74	0.01
357.106	0.01
357.471	0.01
357.836	0.01
358.202	0.01
358.567	0.02
358.932	0.02
359.297	0.02
359.663	0.02
360.028	0.02
360.393	0.02
360.758	0.02
361.123	0.02
361.488	0.02
361.853	0.02
362.218	0.02
362.583	0.02
362.948	0.02
363.312	0.02
363.677	0.02
364.042	0.02
364.407	0.02
364.772	0.02
365.136	0.02
365.501	0.02
365.865	0.02
366.23	0.02
366.595	0.02
366.959	0.02
367.324	0.02
367.688	0.03
368.052	0.03
368.417	0.03
368.781	0.03
369.145	0.03
369.51	0.03
369.874	0.03
370.238	0.03
370.602	0.03
370.967	0.03
371.331	0.03
371.695	0.03
372.059	0.03
372.423	0.03
372.787	0.03
373.151	0.03
373.515	0.03
373.878	0.03
374.242	0.03
374.606	0.03
374.97	0.03
375.334	0.03
375.697	0.03
376.061	0.03
376.425	0.03
376.788	0.03
377.152	0.03
377.515	0.03
377.879	0.03
378.242	0.03
378.606	0.03
378.969	0.03
379.333	0.03
379.696	0.03
380.059	0.03
380.422	0.03
380.786	0.03
381.149	0.03
381.512	0.03
381.875	0.03
382.238	0.03
382.601	0.03
382.964	0.03
383.327	0.03
383.69	0.04
384.053	0.04
384.416	0.04
384.779	0.04
385.142	0.04
385.504	0.04
385.867	0.04
386.23	0.04
386.593	0.04
386.955	0.04
387.318	0.04
387.68	0.04
388.043	0.04
388.405	0.04
388.768	0.04
389.13	0.05
389.493	0.05
389.855	0.05
390.217	0.05
390.58	0.05
390.942	0.05
391.304	0.05
391.666	0.05
392.028	0.05
392.391	0.05
392.753	0.05
393.115	0.05
393.477	0.05
393.839	0.05
394.201	0.05
394.563	0.05
394.924	0.05
395.286	0.05
395.648	0.05
396.01	0.05
396.371	0.05
396.733	0.05
397.095	0.05
397.456	0.05
397.818	0.05
398.18	0.06
398.541	0.06
398.903	0.06
399.264	0.06
399.625	0.07
399.987	0.07
400.348	0.07
400.709	0.07
401.071	0.07
401.432	0.07
401.793	0.07
402.154	0.07
402.515	0.07
402.876	0.07
403.238	0.07
403.599	0.07
403.96	0.06
404.32	0.06
404.681	0.06
405.042	0.06
405.403	0.05
405.764	0.05
406.125	0.04
406.485	0.04
406.846	0.04
407.207	0.04
407.567	0.04
407.928	0.03
408.288	0.03
408.649	0.03
409.009	0.03
409.37	0.02
409.73	0.02
410.091	0.02
410.451	0.02
410.811	0.02
411.171	0.02
411.532	0.02
411.892	0.02
412.252	0.02
412.612	0.02
412.972	0.01
413.332	0.01
413.692	0.01
414.052	0.01
414.412	0.01
414.772	0.01
415.132	0.01
415.492	0.01
415.851	0.01
416.211	0.01
416.571	0.01
416.931	0.01
417.29	0.01
417.65	0.01
418.009	0.01
418.369	0.01
418.728	0.01
419.088	0.01
419.447	0.01
419.807	0
420.166	0
420.525	0
420.884	-0
421.244	0
421.603	0
421.962	0
422.321	0
422.68	0
423.039	0
423.398	0
423.757	0
424.116	0
424.475	0
424.834	0
425.193	0
425.551	0
425.91	-0
426.269	-0
426.628	0
426.986	0
427.345	-0
427.703	0
428.062	0
428.42	0
428.779	0
429.137	0
429.496	0
429.854	0
430.212	0
430.57	0
430.929	0
431.287	0
431.645	0
432.003	-0
432.361	-0
432.719	-0
433.077	-0
433.435	-0
433.793	-0
434.151	-0
434.509	-0
434.866	-0.01
435.224	-0
435.582	-0
435.94	-0
436.297	-0
436.655	0
437.012	0
437.37	0
437.727	0
438.085	0
438.442	-0
438.8	-0
439.157	-0
439.514	-0
439.872	-0
440.229	-0
440.586	-0.01
440.943	-0
441.3	-0
441.657	-0.01
442.014	-0.01
442.371	-0
442.728	-0
443.085	-0
443.442	-0
443.799	-0
444.156	-0
444.513	-0
444.869	-0
445.226	-0.01
445.583	-0.01
445.939	-0.01
446.296	-0.01
446.652	-0.01
447.009	-0.01
447.365	-0.01
447.722	-0.01
448.078	-0.01
448.434	-0.01
448.791	-0.01
449.147	-0.01
449.503	-0.01
449.859	-0.01
450.215	-0.01
450.571	-0.01
450.928	-0.01
451.284	-0.01
451.64	-0.01
451.995	-0.01
452.351	-0.01
452.707	-0.01
453.063	-0.01
453.419	-0.01
453.775	-0.01
454.13	-0.01
454.486	-0.01
454.842	-0.02
455.197	-0.02
455.553	-0.02
455.908	-0.02
456.264	-0.02
456.619	-0.02
456.975	-0.03
457.33	-0.03
457.685	-0.03
458.04	-0.03
458.396	-0.03
458.751	-0.04
459.106	-0.04
459.461	-0.04
459.816	-0.04
460.171	-0.04
460.526	-0.04
460.881	-0.04
461.236	-0.04
461.591	-0.04
461.946	-0.05
462.301	-0.05
462.655	-0.05
463.01	-0.05
463.365	-0.05
463.719	-0.05
464.074	-0.05
464.428	-0.06
464.783	-0.06
465.137	-0.06
465.492	-0.06
465.846	-0.06
466.201	-0.06
466.555	-0.06
466.909	-0.06
467.263	-0.06
467.618	-0.06
467.972	-0.06
468.326	-0.06
468.68	-0.06
469.034	-0.06
469.388	-0.06
469.742	-0.06
470.096	-0.07
470.45	-0.06
470.804	-0.06
471.157	-0.06
471.511	-0.06
471.865	-0.06
472.218	-0.06
472.572	-0.06
472.926	-0.06
473.279	-0.06
473.633	-0.06
473.986	-0.06
474.34	-0.06
474.693	-0.05
475.046	-0.05
475.4	-0.05
475.753	-0.05
476.106	-0.05
476.459	-0.04
476.812	-0.04
477.165	-0.04
477.519	-0.04
477.872	-0.04
478.224	-0.03
478.577	-0.03
478.93	-0.03
479.283	-0.03
479.636	-0.03
479.989	-0.03
480.341	-0.03
480.694	-0.03
481.047	-0.03
481.399	-0.02
481.752	-0.02
482.104	-0.02
482.457	-0.02
482.809	-0.02
483.162	-0.02
483.514	-0.02
483.866	-0.02
484.219	-0.02
484.571	-0.02
484.923	-0.02
485.275	-0.02
485.627	-0.02
485.979	-0.02
486.331	-0.01
486.683	-0.02
487.035	-0.01
487.387	-0.01
487.739	-0.01
488.091	-0.01
488.443	-0.01
488.794	-0.01
489.146	-0.01
489.498	-0.01
489.849	-0.01
490.201	-0.01
490.552	-0.01
490.904	-0.01
491.255	-0.01
491.607	-0.01
491.958	-0.01
492.309	-0.01
492.661	-0.01
493.012	-0
493.363	-0
493.714	-0
494.065	-0
494.416	-0
494.767	-0
495.118	-0
495.469	-0
495.82	-0
496.171	-0
496.522	-0
496.872	-0
497.223	0
497.574	0
497.924	0
498.275	-0
498.626	-0
498.976	-0
499.327	-0
499.677	-0
500.027	-0
500.378	0
500.728	0
501.078	0
501.428	0
501.779	0
502.129	0
502.479	0
502.829	0
503.179	0
503.529	0
503.879	0
504.229	0
504.578	0
504.928	0
505.278	0
505.628	0
505.977	0
506.327	0
506.676	0.01
507.026	0.01
507.375	0.01
507.725	0.01
508.074	0.01
508.424	0.01
508.773	0.01
509.122	0.01
509.471	0.01
509.82	0.01
510.17	0.01
510.519	0.01
510.868	0.01
511.217	0.01
511.566	0.01
511.915	0.01
512.263	0.01
512.612	0.01
512.961	0.01
513.31	0
513.659	0
514.007	0.01
514.356	0.01
514.704	0.01
515.053	0.01
515.401	0.01
515.75	0.01
516.098	0.01
516.447	0.01
516.795	0.01
517.143	0.01
517.491	0.01
517.839	0.01
518.188	0.01
518.536	0.01
518.884	0.01
519.232	0.01
519.58	0.01
519.928	0.01
520.275	0.01
520.623	0.01
520.971	0.01
521.319	0.01
521.666	0.01
522.014	0.01
522.362	0.01
522.709	0.01
523.057	0.01
523.404	0.01
523.752	0.01
524.099	0.01
524.446	0.01
524.794	0.01
525.141	0.01
525.488	0.01
525.835	0.01
526.182	0.01
526.529	0.01
526.876	0.01
527.223	0.01
527.57	0.01
527.917	0.01
528.264	0.01
528.611	0.01
528.958	0.01
529.304	0.01
529.651	0.01
529.998	0.01
530.344	0.01
530.691	0.01
531.037	0.01
531.384	0.01
531.73	0.01
532.076	0.01
532.423	0.01
532.769	0.01
533.115	0.01
533.461	0.01
533.807	0.01
534.154	0.01
534.5	0.01
534.846	0.01
535.192	0.01
535.537	0.01
535.883	0.01
536.229	0.01
536.575	0.01
536.921	0.01
537.266	0.01
537.612	0.01
537.957	0.01
538.303	0.01
538.649	0.01
538.994	0.01
539.339	0.01
539.685	0.01
540.03	0.01
540.375	0.01
540.721	0.01
541.066	0.01
541.411	0.01
541.756	0.01
542.101	0.01
542.446	0.01
542.791	0.01
543.136	0.01
543.481	0.01
543.825	0.01
544.17	0.01
544.515	0.01
544.86	0.01
545.204	0.01
545.549	0.01
545.893	0.01
546.238	0.01
546.582	0.01
546.927	0.02
547.271	0.02
547.615	0.02
547.96	0.02
548.304	0.02
548.648	0.02
548.992	0.02
549.336	0.02
549.68	0.02
550.024	0.02
550.368	0.02
550.712	0.02
551.056	0.02
551.4	0.02
551.743	0.01
552.087	0.01
552.431	0.01
552.774	0.01
553.118	0.01
553.462	0.02
553.805	0.02
554.148	0.02
554.492	0.02
554.835	0.02
555.178	0.02
555.522	0.02
555.865	0.02
556.208	0.02
556.551	0.02
556.894	0.02
557.237	0.02
557.58	0.02
557.923	0.02
558.266	0.02
558.609	0.02
558.952	0.02
559.294	0.02
559.637	0.02
559.98	0.02
560.322	0.02
560.665	0.02
561.007	0.02
561.35	0.02
561.692	0.02
562.034	0.02
562.377	0.02
562.719	0.02
563.061	0.02
563.403	0.02
563.745	0.02
564.088	0.02
564.43	0.02
564.772	0.02
565.113	0.02
565.455	0.02
565.797	0.02
566.139	0.02
566.481	0.02
566.822	0.02
567.164	0.02
567.506	0.02
567.847	0.02
568.189	0.02
568.53	0.02
568.872	0.02
569.213	0.02
569.554	0.02
569.895	0.02
570.237	0.02
570.578	0.02
570.919	0.02
571.26	0.02
571.601	0.02
571.942	0.02
572.283	0.02
572.624	0.02
572.965	0.02
573.306	0.02
573.646	0.02
573.987	0.02
574.328	0.02
574.668	0.02
575.009	0.02
575.349	0.02
575.69	0.02
576.03	0.02
576.37	0.02
576.711	0.02
577.051	0.02
577.391	0.02
577.731	0.01
578.072	0.01
578.412	0.01
578.752	0.01
579.092	0.01
579.431	0.01
579.771	0.01
580.111	0.01
580.451	0.01
580.791	0.01
581.13	0.01
581.47	0.01
581.81	0.01
582.149	0.01
582.489	0.01
582.828	0.01
583.167	0.01
583.507	0
583.846	0
584.185	0
584.525	0
584.864	0.01
585.203	0.01
585.542	0.01
585.881	0.01
586.22	0.01
586.559	0.01
586.898	0.01
587.236	0.01
587.575	0.01
587.914	0.01
588.252	0.01
588.591	0.01
588.93	0.01
589.268	0.01
589.607	0.01
589.945	0.01
590.283	0.01
590.622	0.01
590.96	0.02
591.298	0.02
591.636	0.02
591.974	0.02
592.313	0.02
592.651	0.02
592.989	0.02
593.326	0.02
593.664	0.02
594.002	0.02
594.34	0.01
594.678	0.01
595.015	0.01
595.353	0.01
595.691	0.01
596.028	0.01
596.366	0.01
596.703	0.02
597.04	0.02
597.378	0.02
597.715	0.02
598.052	0.02
598.389	0.02
598.726	0.02
599.064	0.02
599.401	0.02
599.738	0.02
600.074	0.02
600.411	0.02
600.748	0.02
601.085	0.02
601.422	0.02
601.758	0.02
602.095	0.02
602.432	0.02
602.768	0.02
603.105	0.02
603.441	0.02
603.777	0.02
604.114	0.02
604.45	0.02
604.786	0.02
605.122	0.02
605.459	0.02
605.795	0.02
606.131	0.02
606.467	0.02
606.803	0.02
607.139	0.02
607.474	0.02
607.81	0.02
608.146	0.02
608.482	0.02
608.817	0.02
609.153	0.02
609.488	0.02
609.824	0.02
610.159	0.02
610.495	0.02
610.83	0.02
611.165	0.02
611.5	0.02
611.836	0.02
612.171	0.02
612.506	0.02
612.841	0.02
613.176	0.02
613.511	0.02
613.845	0.02
614.18	0.02
614.515	0.02
614.85	0.02
615.184	0.02
615.519	0.02
615.854	0.02
616.188	0.02
616.523	0.02
616.857	0.02
617.191	0.02
617.526	0.02
617.86	0.02
618.194	0.02
618.528	0.02
618.862	0.02
619.196	0.02
619.53	0.02
619.864	0.02
620.198	0.02
620.532	0.02
620.866	0.02
621.2	0.02
621.533	0.02
621.867	0.02
622.201	0.02
622.534	0.02
622.868	0.02
623.201	0.02
623.534	0.02
623.868	0.02
624.201	0.02
624.534	0.01
624.868	0.02
625.201	0.01
625.534	0.02
625.867	0.02
626.2	0.02
626.533	0.01
626.865	0.01
627.198	0.01
627.531	0.01
627.864	0.01
628.196	0.01
628.529	0.01
628.862	0.02
629.194	0.02
629.527	0.02
629.859	0.01
630.191	0.01
630.524	0.01
630.856	0.02
631.188	0.01
631.52	0.02
631.852	0.02
632.184	0.02
632.516	0.02
632.848	0.02
633.18	0.02
633.512	0.02
633.844	0.01
634.175	0.01
634.507	0.01
634.839	0.01
635.17	0.01
635.502	0.01
635.833	0.01
636.165	0.01
636.496	0.01
636.827	0.01
637.159	0.01
637.49	0.01
637.821	0.01
638.152	0.01
638.483	0.01
638.814	0.01
639.145	0.01
639.476	0.01
639.807	0.01
640.137	0.01
640.468	0.01
640.799	0.01
641.129	0.01
641.46	0.01
641.791	0.01
642.121	0.01
642.451	0.01
642.782	0.01
643.112	0.01
643.442	0.01
643.773	0.01
644.103	0.01
644.433	0.01
644.763	0.01
645.093	0.01
645.423	0.01
645.753	0.01
646.082	0.01
646.412	0.01
646.742	0.01
647.072	0.01
647.401	0.01
647.731	0.01
648.06	0
648.39	0
648.719	0
649.048	0
649.378	0
649.707	0
650.036	0
650.365	0.01
650.694	0.01
651.023	0.01
651.352	0.01
651.681	0.01
652.01	0.01
652.339	0.01
652.668	0.01
652.996	0.01
653.325	0.01
653.654	0.01
653.982	0.01
654.311	0.01
654.639	0.01
654.967	0.01
655.296	0.01
655.624	0.01
655.952	0.01
656.28	0.01
656.609	0.01
656.937	0
657.265	0
657.593	0
657.92	0
658.248	0
658.576	0
658.904	0
659.231	0
659.559	0
659.887	0.01
660.214	0.01
660.542	0.01
660.869	0.01
661.196	0.01
661.524	0.01
661.851	0.01
662.178	0.01
662.505	0.01
662.832	0.01
663.159	0.01
663.486	0.01
663.813	0.01
664.14	0.01
664.467	0.01
664.794	0.01
665.12	0.01
665.447	0.01
665.774	0.01
666.1	0.01
666.427	0.01
666.753	0.01
667.079	0.01
667.406	0.01
667.732	0.01
668.058	0.01
668.384	0.01
668.71	0.01
669.036	0.01
669.362	0.01
669.688	0.01
670.014	0.01
670.34	0.01
670.666	0.01
670.991	0.01
671.317	0.01
671.643	0.01
671.968	0.01
672.294	0
672.619	0
672.945	0
673.27	0
673.595	0.01
673.92	0.01
674.246	0.01
674.571	0.01
674.896	0.01
675.221	0.01
675.546	0.01
675.87	0.01
676.195	0.01
676.52	0
676.845	0
677.169	0
677.494	0
677.819	0
678.143	0
678.468	0
678.792	0
679.116	0
679.44	0
679.765	0.01
680.089	0
680.413	0
680.737	0
681.061	0
681.385	0
681.709	0
682.033	0
682.356	0.01
682.68	0
683.004	0
683.327	0
683.651	0
683.974	0
684.298	0
684.621	0
684.944	0
685.268	0
685.591	0
685.914	0
686.237	0
686.56	0
686.883	0
687.206	0
687.529	0
687.852	0
688.175	0
688.497	0
688.82	0
689.142	0
689.465	0
689.787	0
690.11	0
690.432	0
690.755	0
691.077	0
691.399	0
691.721	0
692.043	0
692.365	0
692.687	0
693.009	0
693.331	0
693.653	0
693.974	0
694.296	0
694.618	0
694.939	0
695.261	0
695.582	-0
695.904	-0
696.225	-0
696.546	-0
696.868	-0
697.189	-0
697.51	-0
697.831	-0
698.152	-0
698.473	-0
698.794	-0
699.114	-0
699.435	-0
699.756	-0
700.077	0
700.397	0
700.718	0
701.038	0
701.359	0
701.679	0
701.999	0
702.32	0
702.64	0
702.96	0
703.28	-0
703.6	-0
703.92	-0
704.24	-0
704.56	-0
704.879	-0
705.199	-0
705.519	-0
705.838	-0
706.158	-0
706.478	-0
706.797	-0
707.116	-0
707.436	-0
707.755	-0
708.074	-0
708.393	0
708.712	0
709.031	0
709.35	0
709.669	0
709.988	0
710.307	0
710.626	0
710.944	0
711.263	0
711.582	0
711.9	0
712.219	-0
712.537	-0
712.855	-0
713.174	-0
713.492	-0
713.81	-0
714.128	-0
714.446	-0
714.764	-0
715.082	-0
715.4	0
715.718	0
716.035	0
716.353	0
716.671	0
716.988	0
717.306	0
717.623	0
717.941	0
718.258	0
718.575	0
718.893	0
719.21	0
719.527	0
719.844	0
720.161	0
720.478	0
720.795	0
721.112	0
721.428	0
721.745	0
722.062	0
722.378	0
722.695	0
723.011	0
723.328	0
723.644	-0
723.96	-0
724.276	-0
724.593	-0
724.909	-0
725.225	-0
725.541	-0
725.857	-0
726.173	-0
726.488	-0
726.804	-0
727.12	-0
727.435	-0
727.751	-0
728.067	-0
728.382	-0
728.697	-0
729.013	-0
729.328	0
729.643	0
729.958	-0
730.273	-0
730.588	-0
730.903	-0
731.218	-0
731.533	-0
731.848	-0
732.163	-0
732.477	-0
732.792	-0
733.107	-0
733.421	-0
733.736	-0
734.05	-0
734.364	-0
734.678	-0
734.993	-0
735.307	-0
735.621	-0
735.935	-0
736.249	-0
736.563	-0
736.877	-0
737.19	-0
737.504	-0
737.818	-0
738.131	-0
738.445	-0
738.758	-0
739.072	0
739.385	0
739.698	0
740.012	0
740.325	0
740.638	0
740.951	0
741.264	-0
741.577	-0
741.89	-0
742.203	-0
742.515	-0
742.828	-0
743.141	-0
743.453	-0
743.766	-0
744.078	-0
744.391	-0
744.703	-0
745.015	-0
745.327	-0
745.639	-0
745.952	-0
746.264	-0
746.575	-0
746.887	-0
747.199	-0
747.511	-0
747.823	-0
748.134	-0
748.446	-0
748.757	-0
749.069	-0
749.38	-0
749.692	-0
750.003	-0
750.314	-0
750.625	-0
750.936	-0
751.248	-0
751.559	-0.01
751.869	-0
752.18	-0.01
752.491	-0.01
752.802	-0.01
753.112	-0
753.423	-0
753.734	-0
754.044	-0
754.355	-0
754.665	0
754.975	0
755.285	-0
755.596	0
755.906	-0
756.216	-0
756.526	-0
756.836	-0
757.146	-0
757.455	-0
757.765	-0
758.075	-0
758.385	-0
758.694	-0
759.004	-0
759.313	-0
759.622	-0
759.932	-0
760.241	-0
760.55	-0
760.859	-0
761.168	-0
761.477	-0
761.786	-0
762.095	-0
762.404	-0
762.713	-0
763.021	-0
763.33	-0
763.639	-0
763.947	-0
764.256	-0
764.564	-0
764.872	-0
765.181	-0
765.489	-0
765.797	-0
766.105	-0
766.413	-0
766.721	-0
767.029	-0
767.337	-0
767.644	-0
767.952	-0
768.26	-0
768.567	-0
768.875	-0
769.182	-0
769.49	-0
769.797	-0
770.104	-0
770.411	-0
770.718	-0
771.026	-0
771.333	-0
771.639	-0
771.946	-0
772.253	-0
772.56	-0
772.867	-0
773.173	-0
773.48	-0
773.786	-0
774.093	-0
774.399	-0
774.705	-0
775.012	-0
775.318	-0
775.624	-0
775.93	-0.01
776.236	-0.01
776.542	-0
776.848	-0
777.154	-0
777.459	-0
777.765	-0
778.071	-0
778.376	-0
778.682	-0
778.987	-0
779.292	-0
779.598	0
779.903	0
780.208	0
780.513	0
780.818	0
781.123	0
781.428	-0
781.733	-0
782.038	-0
782.343	-0
782.647	-0
782.952	-0
783.256	-0.01
783.561	-0.01
783.865	-0.01
784.17	-0
784.474	-0
784.778	-0
785.082	-0
785.386	-0
785.69	-0
785.994	-0
786.298	-0
786.602	-0.01
786.906	-0.01
787.209	-0.01
787.513	-0.01
787.817	-0.01
788.12	-0.01
788.424	-0.01
788.727	-0.01
789.03	-0.01
789.333	-0.01
789.637	-0.01
789.94	-0.01
790.243	-0.01
790.546	-0.01
790.849	-0.01
791.152	-0.01
791.454	-0.01
791.757	-0
792.06	-0.01
792.362	-0.01
792.665	-0.01
792.967	-0.01
793.27	-0
793.572	-0
793.874	-0
794.177	-0
794.479	-0
794.781	-0
795.083	-0
795.385	-0
795.687	-0
795.989	-0
796.29	-0
796.592	-0
796.894	-0
797.195	-0
797.497	-0
797.798	-0
798.1	-0
798.401	-0
798.702	-0
799.003	-0
799.304	-0
799.605	-0.01
799.906	-0.01
800.207	-0.01
800.508	-0
800.809	-0
801.11	-0
801.41	-0
801.711	-0
802.011	-0
802.312	-0.01
802.612	-0.01
802.913	-0.01
803.213	-0.01
803.513	-0.01
803.813	-0.01
804.113	-0.01
804.413	-0.01
804.713	-0.01
805.013	-0.01
805.313	-0.01
805.613	-0.01
805.912	-0.01
806.212	-0.01
806.511	-0.01
806.811	-0.01
807.11	-0.01
807.41	-0.01
807.709	-0.01
808.008	-0.01
808.307	-0.01
808.606	-0.01
808.905	-0
809.204	-0
809.503	0
809.802	0
810.101	0
810.399	0
810.698	0
810.997	-0
811.295	-0
811.593	-0.01
811.892	-0.01
812.19	-0.01
812.488	-0.01
812.786	-0.01
813.084	-0.01
813.383	-0.01
813.68	-0
813.978	-0
814.276	-0
814.574	-0
814.872	-0
815.169	-0
815.467	-0
815.764	-0
816.062	-0
816.359	-0
816.656	-0
816.954	-0
817.251	-0
817.548	-0
817.845	-0
818.142	-0
818.439	-0
818.735	-0
819.032	-0
819.329	-0
819.626	0
819.922	-0
820.219	-0
820.515	0
820.811	-0
821.108	-0
821.404	-0
821.7	-0
821.996	-0
822.292	-0
822.588	-0
822.884	-0
823.18	-0
823.475	-0
823.771	-0.01
824.067	-0.01
824.362	-0
824.658	-0.01
824.953	-0.01
825.249	-0.01
825.544	-0
825.839	-0
826.134	-0
826.429	-0
826.724	-0
827.019	-0
827.314	-0
827.609	-0
827.904	-0
828.198	-0
828.493	-0
828.787	-0
829.082	-0
829.376	-0
829.671	-0
829.965	-0
830.259	-0.01
830.553	-0.01
830.847	-0.01
831.141	-0.01
831.435	-0.01
831.729	-0.01
832.023	-0.01
832.317	-0
832.61	-0
832.904	-0
833.197	-0
833.491	-0
833.784	-0
834.077	-0
834.371	-0
834.664	-0
834.957	-0
835.25	-0
835.543	-0
835.836	-0
836.129	-0
836.421	-0
836.714	-0
837.007	-0
837.299	-0
837.592	-0
837.884	-0.01
838.177	-0.01
838.469	-0.01
838.761	-0.01
839.053	-0.01
839.345	-0.01
839.637	-0.01
839.929	-0.01
840.221	-0.01
840.513	-0.01
840.805	-0.01
841.096	-0.01
841.388	-0.01
841.68	-0.01
841.971	-0.01
842.262	-0.01
842.554	-0.01
842.845	-0.01
843.136	-0.01
843.427	-0
843.718	-0
844.009	-0
844.3	-0
844.591	-0
844.882	-0
845.173	-0
845.463	-0
845.754	-0
846.044	-0
846.335	-0
846.625	-0
846.915	-0
847.206	-0.01
847.496	-0.01
847.786	-0.01
848.076	-0.01
848.366	-0.01
848.656	-0.01
848.945	-0.01
849.235	-0.01
849.525	-0.01
849.814	-0.01
850.104	-0.01
850.393	-0.01
850.683	-0.01
850.972	-0.01
851.261	-0.02
851.551	-0.01
851.84	-0.02
852.129	-0.01
852.418	-0.01
852.707	-0.01
852.995	-0.01
853.284	-0.01
853.573	-0.01
853.862	-0.01
854.15	-0.01
854.439	-0.01
854.727	-0.01
855.015	-0.01
855.304	-0.01
855.592	-0.01
855.88	-0.01
856.168	-0.01
856.456	-0.01
856.744	-0.01
857.032	-0.01
857.32	-0.01
857.607	-0
857.895	-0
858.183	-0
858.47	-0
858.757	0
859.045	0
859.332	-0
859.619	-0
859.907	-0.01
860.194	-0.01
860.481	-0.01
860.768	-0.01
861.054	-0.01
861.341	-0.01
861.628	-0.01
861.915	-0.01
862.201	-0
862.488	0
862.774	0.01
863.061	0
863.347	-0
863.633	-0
863.919	-0.01
864.205	-0.02
864.491	-0.02
864.777	-0.02
865.063	-0.02
865.349	-0.02
865.635	-0.03
865.92	-0.02
866.206	-0.01
866.492	-0.02
866.777	-0.02
867.062	-0.03
867.348	-0.02
867.633	-0.02
867.918	-0.02
868.203	-0.02
868.488	-0.02
868.773	-0.02
869.058	-0.02
869.343	-0.02
869.628	-0.03
869.912	-0.02
870.197	-0.02
870.482	-0.01
870.766	-0.01
871.05	-0.01
871.335	-0.01
871.619	-0.01
871.903	-0.02
872.187	-0.02
872.471	-0.02
872.755	-0.01
873.039	-0.01
873.323	-0.01
873.607	-0.01
873.89	-0.01
874.174	-0.01
874.458	-0.01
874.741	-0.03
875.024	-0.02
875.308	-0.02
875.591	0
875.874	-0
876.157	-0.01
876.44	0.01
876.723	0.02
877.006	0.02
877.289	0.02
877.572	0
877.854	0
878.137	0
878.42	-0.02
878.702	-0.03
878.984	-0.03
879.267	-0.04
879.549	-0.03
879.831	-0.04
880.113	-0.03
880.395	-0.02
880.677	-0.02
880.959	-0.02
