Data from Rubpy_BV_300_EDTA_Buffered_Absorbance_11-52-18-700.txt Node
Date: Wed Jul 01 11:52:18 BST 2026
User: fpm-admin
Spectrometer: OFX00224
Trigger mode: 0
Integration Time (sec): 7.000000E-2
Scans to average: 1
Nonlinearity correction enabled: false
Boxcar width: 3
Storing dark spectrum: false
XAxis mode: Wavelengths
Number of Pixels in Spectrum: 2136
>>>>>Begin Spectral Data<<<<<
154.91	-0.44
155.289	-0.43
155.669	-0.5
156.048	-0.6
156.428	-0.94
156.807	-0.5
157.186	-0
157.566	0.32
157.945	0.4
158.325	0.24
158.704	0.21
159.083	0.77
159.462	1.16
159.842	-0
160.221	-0
160.6	0.1
160.979	-0
161.359	0.75
161.738	-0
162.117	-0
162.496	-0.89
162.875	-0.81
163.254	-0.25
163.633	0.56
164.012	0.26
164.391	-0.7
164.77	0.45
165.149	-0.18
165.528	-0.51
165.907	-0.23
166.286	-0.45
166.665	-0.2
167.044	-0.57
167.423	-1.3
167.802	-0
168.181	-0
168.559	0.46
168.938	0.28
169.317	0.82
169.696	0.76
170.074	0.51
170.453	0.5
170.832	0.22
171.21	0.35
171.589	0.4
171.968	1.19
172.346	0.75
172.725	0.81
173.103	0.6
173.482	-0
173.861	-0
174.239	-0
174.617	-0
174.996	-0
175.374	-0
175.753	-0
176.131	-0
176.51	0.25
176.888	0.08
177.266	0.22
177.645	-0
178.023	0.05
178.401	-0
178.779	-0.21
179.158	-0.1
179.536	0.39
179.914	0.35
180.292	-0
180.67	-0.54
181.048	-0.28
181.427	-0.53
181.805	-0
182.183	-1.67
182.561	-0
182.939	-0
183.317	-0
183.695	-0
184.073	-0
184.451	-0
184.829	-0
185.206	-0.28
185.584	-0.29
185.962	-0.13
186.34	-0.11
186.718	0.04
187.096	-0.04
187.473	-0.01
187.851	0.04
188.229	0.05
188.607	0.05
188.984	0.08
189.362	0.06
189.74	0.08
190.117	0.08
190.495	0.07
190.872	0.06
191.25	0.08
191.627	0.04
192.005	0.07
192.382	0.06
192.76	0.08
193.137	0.08
193.515	0.08
193.892	0.05
194.269	0.07
194.647	0.07
195.024	0.06
195.401	0.06
195.779	0.05
196.156	0.05
196.533	0.07
196.91	0.04
197.288	0.05
197.665	0.04
198.042	0.03
198.419	0.05
198.796	0.04
199.173	0.01
199.55	0.03
199.927	0
200.304	0.03
200.681	0.03
201.058	0.03
201.435	0.07
201.812	0.08
202.189	0.09
202.566	0.11
202.943	0.1
203.32	0.11
203.697	0.1
204.073	0.09
204.45	0.11
204.827	0.13
205.204	0.11
205.58	0.1
205.957	0.11
206.334	0.1
206.71	0.08
207.087	0.08
207.464	0.06
207.84	0.08
208.217	0.07
208.593	0.06
208.97	0.06
209.346	0.07
209.723	0.05
210.099	0.07
210.476	0.07
210.852	0.1
211.228	0.11
211.605	0.1
211.981	0.11
212.357	0.11
212.733	0.11
213.11	0.11
213.486	0.1
213.862	0.1
214.238	0.1
214.614	0.09
214.991	0.1
215.367	0.07
215.743	0.06
216.119	0.03
216.495	0.02
216.871	0.01
217.247	-0.01
217.623	0.01
217.999	-0.01
218.375	-0.01
218.751	-0
219.127	-0.01
219.502	0.01
219.878	0.03
220.254	0.03
220.63	0.03
221.006	0.05
221.381	0.03
221.757	0.03
222.133	0.04
222.508	0.07
222.884	0.05
223.26	0.08
223.635	0.08
224.011	0.09
224.386	0.11
224.762	0.09
225.137	0.08
225.513	0.09
225.888	0.07
226.264	0.05
226.639	0.06
227.014	0.03
227.39	0.07
227.765	0.04
228.14	0.04
228.516	0.06
228.891	0.06
229.266	0.08
229.641	0.07
230.017	0.07
230.392	0.07
230.767	0.06
231.142	0.05
231.517	0.07
231.892	0.06
232.267	0.08
232.642	0.07
233.017	0.06
233.392	0.07
233.767	0.07
234.142	0.04
234.517	0.03
234.892	0.01
235.267	0.01
235.641	0.04
236.016	0.05
236.391	0.07
236.766	0.07
237.14	0.09
237.515	0.09
237.89	0.11
238.264	0.13
238.639	0.11
239.014	0.09
239.388	0.11
239.763	0.11
240.137	0.15
240.512	0.13
240.886	0.1
241.261	0.11
241.635	0.09
242.009	0.08
242.384	0.06
242.758	0.05
243.132	0.04
243.507	0.05
243.881	0.06
244.255	0.07
244.629	0.08
245.004	0.08
245.378	0.07
245.752	0.06
246.126	0.09
246.5	0.11
246.874	0.13
247.248	0.11
247.622	0.14
247.996	0.12
248.37	0.1
248.744	0.06
249.118	0.05
249.492	0.04
249.866	0.05
250.24	0.04
250.613	0.04
250.987	0.06
251.361	0.07
251.735	0.05
252.108	0.06
252.482	0.04
252.856	0.03
253.229	0.04
253.603	0.02
253.977	0.03
254.35	0.02
254.724	0.03
255.097	0.04
255.471	0.04
255.844	0.04
256.218	0.05
256.591	0.07
256.964	0.09
257.338	0.08
257.711	0.08
258.084	0.08
258.458	0.07
258.831	0.08
259.204	0.08
259.577	0.07
259.95	0.08
260.323	0.08
260.697	0.1
261.07	0.12
261.443	0.12
261.816	0.1
262.189	0.1
262.562	0.1
262.935	0.08
263.308	0.06
263.68	0.04
264.053	0.05
264.426	0.05
264.799	0.05
265.172	0.06
265.545	0.06
265.917	0.06
266.29	0.06
266.663	0.05
267.035	0.04
267.408	0.03
267.781	0.02
268.153	0.03
268.526	0.03
268.898	0.04
269.271	0.03
269.643	0.05
270.016	0.06
270.388	0.07
270.76	0.05
271.133	0.05
271.505	0.05
271.877	0.06
272.25	0.08
272.622	0.07
272.994	0.06
273.366	0.06
273.739	0.07
274.111	0.06
274.483	0.07
274.855	0.04
275.227	0.05
275.599	0.06
275.971	0.08
276.343	0.09
276.715	0.09
277.087	0.11
277.459	0.12
277.831	0.11
278.203	0.12
278.574	0.11
278.946	0.09
279.318	0.09
279.69	0.07
280.061	0.07
280.433	0.08
280.805	0.06
281.176	0.07
281.548	0.07
281.92	0.07
282.291	0.07
282.663	0.07
283.034	0.06
283.406	0.08
283.777	0.07
284.148	0.06
284.52	0.06
284.891	0.06
285.262	0.07
285.634	0.06
286.005	0.04
286.376	0.03
286.747	0.06
287.119	0.07
287.49	0.07
287.861	0.05
288.232	0.06
288.603	0.06
288.974	0.07
289.345	0.05
289.716	0.05
290.087	0.06
290.458	0.07
290.829	0.07
291.2	0.09
291.571	0.08
291.941	0.08
292.312	0.08
292.683	0.09
293.054	0.1
293.424	0.1
293.795	0.09
294.166	0.09
294.536	0.11
294.907	0.11
295.277	0.1
295.648	0.09
296.018	0.1
296.389	0.1
296.759	0.1
297.13	0.08
297.5	0.08
297.871	0.08
298.241	0.07
298.611	0.07
298.981	0.06
299.352	0.04
299.722	0.05
300.092	0.04
300.462	0.03
300.832	0.02
301.202	0.01
301.573	0.01
301.943	0.02
302.313	0.02
302.683	0.02
303.053	0.02
303.422	0.02
303.792	0.03
304.162	0.03
304.532	0.03
304.902	0.03
305.272	0.02
305.641	0.03
306.011	0.03
306.381	0.02
306.75	0.03
307.12	0.02
307.49	0.02
307.859	0.03
308.229	0.02
308.598	0.03
308.968	0.03
309.337	0.03
309.707	0.04
310.076	0.04
310.445	0.04
310.815	0.04
311.184	0.04
311.553	0.04
311.923	0.04
312.292	0.04
312.661	0.05
313.03	0.05
313.399	0.05
313.768	0.05
314.137	0.05
314.506	0.05
314.875	0.05
315.244	0.05
315.613	0.06
315.982	0.06
316.351	0.06
316.72	0.06
317.089	0.06
317.458	0.06
317.826	0.06
318.195	0.06
318.564	0.06
318.933	0.06
319.301	0.07
319.67	0.07
320.038	0.07
320.407	0.07
320.775	0.07
321.144	0.07
321.512	0.07
321.881	0.07
322.249	0.07
322.618	0.07
322.986	0.07
323.354	0.07
323.723	0.07
324.091	0.07
324.459	0.07
324.827	0.08
325.195	0.08
325.564	0.08
325.932	0.08
326.3	0.08
326.668	0.08
327.036	0.08
327.404	0.09
327.772	0.09
328.14	0.09
328.508	0.09
328.875	0.09
329.243	0.09
329.611	0.1
329.979	0.09
330.346	0.1
330.714	0.1
331.082	0.1
331.449	0.1
331.817	0.1
332.185	0.1
332.552	0.1
332.92	0.1
333.287	0.1
333.655	0.11
334.022	0.11
334.389	0.11
334.757	0.12
335.124	0.12
335.491	0.12
335.859	0.12
336.226	0.12
336.593	0.13
336.96	0.13
337.327	0.13
337.695	0.13
338.062	0.13
338.429	0.14
338.796	0.14
339.163	0.14
339.53	0.14
339.897	0.15
340.263	0.15
340.63	0.15
340.997	0.16
341.364	0.16
341.731	0.16
342.097	0.16
342.464	0.17
342.831	0.17
343.197	0.17
343.564	0.17
343.931	0.18
344.297	0.18
344.664	0.18
345.03	0.18
345.396	0.19
345.763	0.19
346.129	0.2
346.496	0.2
346.862	0.2
347.228	0.2
347.594	0.21
347.961	0.21
348.327	0.21
348.693	0.22
349.059	0.22
349.425	0.22
349.791	0.23
350.157	0.23
350.523	0.23
350.889	0.23
351.255	0.24
351.621	0.24
351.987	0.24
352.353	0.25
352.719	0.25
353.084	0.25
353.45	0.26
353.816	0.26
354.181	0.26
354.547	0.26
354.913	0.27
355.278	0.27
355.644	0.27
356.009	0.28
356.375	0.28
356.74	0.29
357.106	0.29
357.471	0.3
357.836	0.3
358.202	0.3
358.567	0.31
358.932	0.31
359.297	0.32
359.663	0.32
360.028	0.33
360.393	0.33
360.758	0.34
361.123	0.34
361.488	0.35
361.853	0.36
362.218	0.36
362.583	0.37
362.948	0.37
363.312	0.37
363.677	0.38
364.042	0.38
364.407	0.39
364.772	0.39
365.136	0.4
365.501	0.4
365.865	0.4
366.23	0.41
366.595	0.41
366.959	0.41
367.324	0.42
367.688	0.42
368.052	0.43
368.417	0.43
368.781	0.44
369.145	0.44
369.51	0.45
369.874	0.45
370.238	0.46
370.602	0.46
370.967	0.46
371.331	0.47
371.695	0.47
372.059	0.48
372.423	0.48
372.787	0.48
373.151	0.48
373.515	0.47
373.878	0.47
374.242	0.47
374.606	0.47
374.97	0.46
375.334	0.46
375.697	0.46
376.061	0.46
376.425	0.45
376.788	0.44
377.152	0.44
377.515	0.44
377.879	0.44
378.242	0.43
378.606	0.43
378.969	0.43
379.333	0.42
379.696	0.42
380.059	0.41
380.422	0.41
380.786	0.41
381.149	0.4
381.512	0.4
381.875	0.4
382.238	0.39
382.601	0.39
382.964	0.39
383.327	0.39
383.69	0.39
384.053	0.38
384.416	0.38
384.779	0.38
385.142	0.38
385.504	0.38
385.867	0.38
386.23	0.39
386.593	0.39
386.955	0.39
387.318	0.39
387.68	0.39
388.043	0.4
388.405	0.39
388.768	0.4
389.13	0.4
389.493	0.4
389.855	0.4
390.217	0.4
390.58	0.4
390.942	0.4
391.304	0.39
391.666	0.39
392.028	0.39
392.391	0.38
392.753	0.38
393.115	0.38
393.477	0.37
393.839	0.37
394.201	0.37
394.563	0.37
394.924	0.37
395.286	0.37
395.648	0.37
396.01	0.38
396.371	0.38
396.733	0.39
397.095	0.4
397.456	0.41
397.818	0.41
398.18	0.42
398.541	0.44
398.903	0.45
399.264	0.46
399.625	0.47
399.987	0.48
400.348	0.49
400.709	0.5
401.071	0.51
401.432	0.51
401.793	0.52
402.154	0.51
402.515	0.51
402.876	0.51
403.238	0.5
403.599	0.48
403.96	0.47
404.32	0.45
404.681	0.44
405.042	0.42
405.403	0.4
405.764	0.38
406.125	0.36
406.485	0.34
406.846	0.32
407.207	0.3
407.567	0.29
407.928	0.27
408.288	0.26
408.649	0.24
409.009	0.22
409.37	0.21
409.73	0.2
410.091	0.19
410.451	0.18
410.811	0.17
411.171	0.16
411.532	0.15
411.892	0.14
412.252	0.13
412.612	0.13
412.972	0.12
413.332	0.11
413.692	0.11
414.052	0.1
414.412	0.1
414.772	0.09
415.132	0.09
415.492	0.09
415.851	0.08
416.211	0.08
416.571	0.08
416.931	0.08
417.29	0.08
417.65	0.07
418.009	0.07
418.369	0.07
418.728	0.06
419.088	0.06
419.447	0.06
419.807	0.06
420.166	0.06
420.525	0.05
420.884	0.05
421.244	0.05
421.603	0.05
421.962	0.05
422.321	0.05
422.68	0.05
423.039	0.05
423.398	0.05
423.757	0.05
424.116	0.05
424.475	0.04
424.834	0.04
425.193	0.04
425.551	0.04
425.91	0.04
426.269	0.04
426.628	0.04
426.986	0.04
427.345	0.04
427.703	0.04
428.062	0.04
428.42	0.04
428.779	0.04
429.137	0.04
429.496	0.04
429.854	0.03
430.212	0.03
430.57	0.03
430.929	0.03
431.287	0.03
431.645	0.03
432.003	0.03
432.361	0.03
432.719	0.03
433.077	0.03
433.435	0.03
433.793	0.03
434.151	0.03
434.509	0.03
434.866	0.03
435.224	0.03
435.582	0.03
435.94	0.03
436.297	0.04
436.655	0.04
437.012	0.03
437.37	0.03
437.727	0.03
438.085	0.03
438.442	0.03
438.8	0.03
439.157	0.03
439.514	0.03
439.872	0.03
440.229	0.03
440.586	0.03
440.943	0.03
441.3	0.03
441.657	0.03
442.014	0.03
442.371	0.03
442.728	0.03
443.085	0.03
443.442	0.03
443.799	0.03
444.156	0.03
444.513	0.03
444.869	0.03
445.226	0.03
445.583	0.02
445.939	0.02
446.296	0.03
446.652	0.03
447.009	0.03
447.365	0.03
447.722	0.03
448.078	0.02
448.434	0.02
448.791	0.02
449.147	0.03
449.503	0.02
449.859	0.02
450.215	0.02
450.571	0.02
450.928	0.02
451.284	0.02
451.64	0.02
451.995	0.02
452.351	0.02
452.707	0.02
453.063	0.02
453.419	0.02
453.775	0.02
454.13	0.02
454.486	0.02
454.842	0.02
455.197	0.02
455.553	0.02
455.908	0.01
456.264	0.01
456.619	0.01
456.975	0.01
457.33	0.01
457.685	0.01
458.04	0.01
458.396	0.01
458.751	0.01
459.106	0.01
459.461	0
459.816	-0
460.171	-0
460.526	-0
460.881	-0.01
461.236	-0.01
461.591	-0.01
461.946	-0.01
462.301	-0.01
462.655	-0.01
463.01	-0.01
463.365	-0.01
463.719	-0.01
464.074	-0.01
464.428	-0.01
464.783	-0.02
465.137	-0.02
465.492	-0.02
465.846	-0.02
466.201	-0.02
466.555	-0.02
466.909	-0.02
467.263	-0.02
467.618	-0.02
467.972	-0.02
468.326	-0.02
468.68	-0.02
469.034	-0.02
469.388	-0.02
469.742	-0.02
470.096	-0.02
470.45	-0.02
470.804	-0.02
471.157	-0.01
471.511	-0.01
471.865	-0.01
472.218	-0.01
472.572	-0.01
472.926	-0.01
473.279	-0.01
473.633	-0.01
473.986	-0.01
474.34	-0
474.693	-0
475.046	0
475.4	0
475.753	0.01
476.106	0.01
476.459	0.02
476.812	0.02
477.165	0.02
477.519	0.02
477.872	0.03
478.224	0.03
478.577	0.03
478.93	0.03
479.283	0.04
479.636	0.04
479.989	0.04
480.341	0.04
480.694	0.04
481.047	0.04
481.399	0.04
481.752	0.05
482.104	0.05
482.457	0.05
482.809	0.05
483.162	0.05
483.514	0.06
483.866	0.06
484.219	0.06
484.571	0.06
484.923	0.06
485.275	0.06
485.627	0.06
485.979	0.06
486.331	0.06
486.683	0.06
487.035	0.07
487.387	0.07
487.739	0.07
488.091	0.07
488.443	0.08
488.794	0.08
489.146	0.08
489.498	0.08
489.849	0.08
490.201	0.08
490.552	0.08
490.904	0.08
491.255	0.09
491.607	0.09
491.958	0.09
492.309	0.09
492.661	0.09
493.012	0.09
493.363	0.09
493.714	0.09
494.065	0.09
494.416	0.1
494.767	0.1
495.118	0.1
495.469	0.1
495.82	0.1
496.171	0.1
496.522	0.1
496.872	0.1
497.223	0.1
497.574	0.1
497.924	0.1
498.275	0.11
498.626	0.11
498.976	0.11
499.327	0.11
499.677	0.11
500.027	0.11
500.378	0.11
500.728	0.11
501.078	0.11
501.428	0.11
501.779	0.11
502.129	0.12
502.479	0.12
502.829	0.12
503.179	0.12
503.529	0.12
503.879	0.12
504.229	0.12
504.578	0.13
504.928	0.13
505.278	0.13
505.628	0.13
505.977	0.13
506.327	0.13
506.676	0.13
507.026	0.13
507.375	0.13
507.725	0.14
508.074	0.14
508.424	0.14
508.773	0.14
509.122	0.14
509.471	0.14
509.82	0.14
510.17	0.14
510.519	0.14
510.868	0.14
511.217	0.14
511.566	0.14
511.915	0.15
512.263	0.15
512.612	0.15
512.961	0.15
513.31	0.15
513.659	0.15
514.007	0.15
514.356	0.15
514.704	0.15
515.053	0.15
515.401	0.15
515.75	0.16
516.098	0.16
516.447	0.16
516.795	0.16
517.143	0.16
517.491	0.16
517.839	0.16
518.188	0.16
518.536	0.16
518.884	0.16
519.232	0.16
519.58	0.17
519.928	0.17
520.275	0.17
520.623	0.17
520.971	0.17
521.319	0.17
521.666	0.17
522.014	0.17
522.362	0.17
522.709	0.17
523.057	0.17
523.404	0.17
523.752	0.17
524.099	0.17
524.446	0.17
524.794	0.17
525.141	0.17
525.488	0.18
525.835	0.18
526.182	0.18
526.529	0.18
526.876	0.18
527.223	0.18
527.57	0.18
527.917	0.18
528.264	0.18
528.611	0.18
528.958	0.18
529.304	0.18
529.651	0.18
529.998	0.18
530.344	0.19
530.691	0.19
531.037	0.19
531.384	0.19
531.73	0.19
532.076	0.19
532.423	0.19
532.769	0.19
533.115	0.19
533.461	0.19
533.807	0.19
534.154	0.19
534.5	0.19
534.846	0.19
535.192	0.19
535.537	0.19
535.883	0.19
536.229	0.19
536.575	0.19
536.921	0.2
537.266	0.2
537.612	0.2
537.957	0.2
538.303	0.2
538.649	0.2
538.994	0.2
539.339	0.2
539.685	0.2
540.03	0.2
540.375	0.2
540.721	0.2
541.066	0.2
541.411	0.2
541.756	0.2
542.101	0.2
542.446	0.2
542.791	0.21
543.136	0.21
543.481	0.21
543.825	0.21
544.17	0.21
544.515	0.21
544.86	0.21
545.204	0.21
545.549	0.21
545.893	0.21
546.238	0.21
546.582	0.21
546.927	0.21
547.271	0.21
547.615	0.21
547.96	0.21
548.304	0.21
548.648	0.21
548.992	0.21
549.336	0.22
549.68	0.22
550.024	0.22
550.368	0.22
550.712	0.22
551.056	0.22
551.4	0.22
551.743	0.22
552.087	0.22
552.431	0.22
552.774	0.22
553.118	0.22
553.462	0.22
553.805	0.22
554.148	0.22
554.492	0.22
554.835	0.22
555.178	0.22
555.522	0.22
555.865	0.22
556.208	0.22
556.551	0.22
556.894	0.22
557.237	0.22
557.58	0.22
557.923	0.22
558.266	0.22
558.609	0.22
558.952	0.22
559.294	0.22
559.637	0.22
559.98	0.22
560.322	0.22
560.665	0.22
561.007	0.22
561.35	0.22
561.692	0.22
562.034	0.22
562.377	0.22
562.719	0.22
563.061	0.22
563.403	0.22
563.745	0.22
564.088	0.22
564.43	0.22
564.772	0.22
565.113	0.22
565.455	0.22
565.797	0.22
566.139	0.22
566.481	0.22
566.822	0.22
567.164	0.22
567.506	0.22
567.847	0.22
568.189	0.22
568.53	0.22
568.872	0.22
569.213	0.22
569.554	0.22
569.895	0.22
570.237	0.22
570.578	0.21
570.919	0.21
571.26	0.21
571.601	0.21
571.942	0.21
572.283	0.21
572.624	0.21
572.965	0.21
573.306	0.21
573.646	0.21
573.987	0.21
574.328	0.21
574.668	0.21
575.009	0.21
575.349	0.21
575.69	0.21
576.03	0.2
576.37	0.2
576.711	0.2
577.051	0.2
577.391	0.2
577.731	0.2
578.072	0.2
578.412	0.2
578.752	0.2
579.092	0.19
579.431	0.18
579.771	0.18
580.111	0.18
580.451	0.18
580.791	0.18
581.13	0.18
581.47	0.19
581.81	0.19
582.149	0.19
582.489	0.18
582.828	0.17
583.167	0.16
583.507	0.15
583.846	0.15
584.185	0.15
584.525	0.15
584.864	0.16
585.203	0.18
585.542	0.19
585.881	0.19
586.22	0.19
586.559	0.19
586.898	0.18
587.236	0.18
587.575	0.18
587.914	0.18
588.252	0.18
588.591	0.18
588.93	0.19
589.268	0.19
589.607	0.19
589.945	0.19
590.283	0.19
590.622	0.2
590.96	0.2
591.298	0.2
591.636	0.2
591.974	0.2
592.313	0.21
592.651	0.21
592.989	0.21
593.326	0.21
593.664	0.2
594.002	0.2
594.34	0.2
594.678	0.19
595.015	0.19
595.353	0.2
595.691	0.2
596.028	0.2
596.366	0.2
596.703	0.2
597.04	0.2
597.378	0.21
597.715	0.21
598.052	0.21
598.389	0.21
598.726	0.21
599.064	0.21
599.401	0.21
599.738	0.21
600.074	0.21
600.411	0.2
600.748	0.2
601.085	0.2
601.422	0.2
601.758	0.2
602.095	0.2
602.432	0.2
602.768	0.2
603.105	0.2
603.441	0.2
603.777	0.2
604.114	0.21
604.45	0.21
604.786	0.21
605.122	0.21
605.459	0.21
605.795	0.21
606.131	0.21
606.467	0.21
606.803	0.2
607.139	0.2
607.474	0.21
607.81	0.2
608.146	0.2
608.482	0.2
608.817	0.2
609.153	0.2
609.488	0.2
609.824	0.2
610.159	0.2
610.495	0.2
610.83	0.2
611.165	0.2
611.5	0.2
611.836	0.2
612.171	0.2
612.506	0.2
612.841	0.2
613.176	0.2
613.511	0.2
613.845	0.2
614.18	0.2
614.515	0.2
614.85	0.2
615.184	0.2
615.519	0.2
615.854	0.2
616.188	0.2
616.523	0.19
616.857	0.19
617.191	0.19
617.526	0.19
617.86	0.19
618.194	0.19
618.528	0.19
618.862	0.19
619.196	0.19
619.53	0.19
619.864	0.19
620.198	0.19
620.532	0.19
620.866	0.19
621.2	0.19
621.533	0.19
621.867	0.19
622.201	0.19
622.534	0.18
622.868	0.18
623.201	0.18
623.534	0.18
623.868	0.18
624.201	0.18
624.534	0.18
624.868	0.18
625.201	0.18
625.534	0.18
625.867	0.18
626.2	0.17
626.533	0.17
626.865	0.17
627.198	0.17
627.531	0.17
627.864	0.17
628.196	0.17
628.529	0.17
628.862	0.17
629.194	0.17
629.527	0.17
629.859	0.17
630.191	0.17
630.524	0.16
630.856	0.16
631.188	0.16
631.52	0.16
631.852	0.16
632.184	0.16
632.516	0.16
632.848	0.16
633.18	0.16
633.512	0.16
633.844	0.16
634.175	0.15
634.507	0.15
634.839	0.15
635.17	0.15
635.502	0.15
635.833	0.15
636.165	0.15
636.496	0.15
636.827	0.15
637.159	0.15
637.49	0.15
637.821	0.15
638.152	0.15
638.483	0.14
638.814	0.14
639.145	0.14
639.476	0.14
639.807	0.14
640.137	0.14
640.468	0.13
640.799	0.13
641.129	0.13
641.46	0.13
641.791	0.13
642.121	0.13
642.451	0.13
642.782	0.13
643.112	0.13
643.442	0.13
643.773	0.13
644.103	0.13
644.433	0.13
644.763	0.12
645.093	0.12
645.423	0.12
645.753	0.12
646.082	0.12
646.412	0.12
646.742	0.12
647.072	0.11
647.401	0.11
647.731	0.11
648.06	0.11
648.39	0.11
648.719	0.11
649.048	0.11
649.378	0.11
649.707	0.11
650.036	0.11
650.365	0.11
650.694	0.11
651.023	0.11
651.352	0.11
651.681	0.11
652.01	0.11
652.339	0.11
652.668	0.11
652.996	0.11
653.325	0.11
653.654	0.11
653.982	0.11
654.311	0.11
654.639	0.11
654.967	0.11
655.296	0.11
655.624	0.11
655.952	0.11
656.28	0.11
656.609	0.1
656.937	0.08
657.265	0.06
657.593	0.05
657.92	0.03
658.248	0.02
658.576	0.02
658.904	0.03
659.231	0.04
659.559	0.05
659.887	0.07
660.214	0.09
660.542	0.1
660.869	0.11
661.196	0.11
661.524	0.11
661.851	0.1
662.178	0.1
662.505	0.1
662.832	0.1
663.159	0.1
663.486	0.1
663.813	0.1
664.14	0.1
664.467	0.1
664.794	0.1
665.12	0.1
665.447	0.1
665.774	0.1
666.1	0.1
666.427	0.1
666.753	0.1
667.079	0.1
667.406	0.1
667.732	0.09
668.058	0.09
668.384	0.09
668.71	0.09
669.036	0.09
669.362	0.09
669.688	0.09
670.014	0.09
670.34	0.09
670.666	0.09
670.991	0.09
671.317	0.09
671.643	0.09
671.968	0.09
672.294	0.09
672.619	0.08
672.945	0.08
673.27	0.08
673.595	0.08
673.92	0.08
674.246	0.08
674.571	0.08
674.896	0.08
675.221	0.08
675.546	0.08
675.87	0.08
676.195	0.07
676.52	0.07
676.845	0.07
677.169	0.07
677.494	0.07
677.819	0.07
678.143	0.07
678.468	0.07
678.792	0.07
679.116	0.07
679.44	0.07
679.765	0.07
680.089	0.07
680.413	0.07
680.737	0.07
681.061	0.06
681.385	0.06
681.709	0.06
682.033	0.06
682.356	0.06
682.68	0.06
683.004	0.06
683.327	0.06
683.651	0.06
683.974	0.06
684.298	0.06
684.621	0.06
684.944	0.06
685.268	0.06
685.591	0.06
685.914	0.05
686.237	0.05
686.56	0.05
686.883	0.05
687.206	0.05
687.529	0.05
687.852	0.04
688.175	0.04
688.497	0.04
688.82	0.04
689.142	0.04
689.465	0.04
689.787	0.04
690.11	0.04
690.432	0.04
690.755	0.04
691.077	0.04
691.399	0.04
691.721	0.04
692.043	0.04
692.365	0.04
692.687	0.04
693.009	0.04
693.331	0.04
693.653	0.04
693.974	0.03
694.296	0.03
694.618	0.03
694.939	0.03
695.261	0.03
695.582	0.03
695.904	0.03
696.225	0.03
696.546	0.03
696.868	0.03
697.189	0.03
697.51	0.03
697.831	0.02
698.152	0.02
698.473	0.02
698.794	0.02
699.114	0.02
699.435	0.02
699.756	0.02
700.077	0.02
700.397	0.02
700.718	0.02
701.038	0.02
701.359	0.02
701.679	0.02
701.999	0.02
702.32	0.02
702.64	0.02
702.96	0.02
703.28	0.02
703.6	0.02
703.92	0.02
704.24	0.02
704.56	0.02
704.879	0.02
705.199	0.02
705.519	0.02
705.838	0.02
706.158	0.02
706.478	0.02
706.797	0.02
707.116	0.02
707.436	0.02
707.755	0.02
708.074	0.02
708.393	0.01
708.712	0.01
709.031	0.01
709.35	0.01
709.669	0.01
709.988	0.01
710.307	0.01
710.626	0.01
710.944	0.01
711.263	0.01
711.582	0.01
711.9	0.01
712.219	0.01
712.537	0.01
712.855	0.01
713.174	0.01
713.492	0.01
713.81	0.01
714.128	0.01
714.446	0.01
714.764	0.01
715.082	0.01
715.4	0.01
715.718	0.01
716.035	0.01
716.353	0.01
716.671	0.01
716.988	0.01
717.306	0.02
717.623	0.02
717.941	0.02
718.258	0.02
718.575	0.02
718.893	0.02
719.21	0.02
719.527	0.02
719.844	0.02
720.161	0.02
720.478	0.02
720.795	0.02
721.112	0.02
721.428	0.02
721.745	0.02
722.062	0.02
722.378	0.02
722.695	0.02
723.011	0.02
723.328	0.02
723.644	0.02
723.96	0.02
724.276	0.02
724.593	0.02
724.909	0.02
725.225	0.02
725.541	0.02
725.857	0.02
726.173	0.02
726.488	0.02
726.804	0.02
727.12	0.02
727.435	0.02
727.751	0.02
728.067	0.02
728.382	0.02
728.697	0.02
729.013	0.02
729.328	0.03
729.643	0.02
729.958	0.02
730.273	0.02
730.588	0.02
730.903	0.02
731.218	0.02
731.533	0.02
731.848	0.02
732.163	0.02
732.477	0.02
732.792	0.02
733.107	0.02
733.421	0.02
733.736	0.02
734.05	0.02
734.364	0.02
734.678	0.02
734.993	0.02
735.307	0.02
735.621	0.02
735.935	0.02
736.249	0.02
736.563	0.02
736.877	0.02
737.19	0.02
737.504	0.02
737.818	0.02
738.131	0.02
738.445	0.02
738.758	0.02
739.072	0.03
739.385	0.03
739.698	0.03
740.012	0.03
740.325	0.02
740.638	0.02
740.951	0.02
741.264	0.02
741.577	0.02
741.89	0.02
742.203	0.02
742.515	0.02
742.828	0.02
743.141	0.02
743.453	0.02
743.766	0.02
744.078	0.02
744.391	0.02
744.703	0.02
745.015	0.02
745.327	0.02
745.639	0.02
745.952	0.02
746.264	0.02
746.575	0.02
746.887	0.01
747.199	0.02
747.511	0.02
747.823	0.01
748.134	0.01
748.446	0.01
748.757	0.02
749.069	0.01
749.38	0.01
749.692	0.01
750.003	0.01
750.314	0.01
750.625	0.01
750.936	0.01
751.248	0.01
751.559	0.01
751.869	0.01
752.18	0.01
752.491	0.01
752.802	0.01
753.112	0.01
753.423	0.01
753.734	0.01
754.044	0.01
754.355	0.01
754.665	0.01
754.975	0.01
755.285	0.01
755.596	0.01
755.906	0.01
756.216	0.01
756.526	0.01
756.836	0.01
757.146	0.01
757.455	0.01
757.765	0.01
758.075	0.01
758.385	0.01
758.694	0.01
759.004	0.01
759.313	0.01
759.622	0.01
759.932	0.01
760.241	0
760.55	0.01
760.859	0
761.168	0
761.477	0
761.786	0
762.095	0
762.404	0
762.713	0
763.021	0
763.33	0.01
763.639	0.01
763.947	0.01
764.256	0.01
764.564	0.01
764.872	0.01
765.181	0
765.489	0
765.797	0
766.105	0
766.413	0
766.721	0
767.029	0.01
767.337	0.01
767.644	0.01
767.952	0.01
768.26	0.01
768.567	0.01
768.875	0.01
769.182	0.01
769.49	0.01
769.797	0.01
770.104	0.01
770.411	0.01
770.718	0.01
771.026	0.01
771.333	0.01
771.639	0.01
771.946	0.01
772.253	0.01
772.56	0.01
772.867	0.01
773.173	0.01
773.48	0.01
773.786	0.01
774.093	0.01
774.399	0.01
774.705	0.01
775.012	0.01
775.318	0.01
775.624	0.01
775.93	0.01
776.236	0.01
776.542	0.01
776.848	0.01
777.154	0.01
777.459	0.01
777.765	0.01
778.071	0.01
778.376	0.01
778.682	0.01
778.987	0.01
779.292	0.01
779.598	0.01
779.903	0.01
780.208	0.01
780.513	0.01
780.818	0.01
781.123	0.01
781.428	0.01
781.733	0
782.038	0
782.343	0
782.647	0
782.952	0
783.256	0
783.561	0
783.865	0
784.17	0
784.474	0
784.778	0
785.082	0
785.386	0
785.69	0
785.994	0
786.298	0
786.602	0
786.906	0
787.209	0
787.513	-0
787.817	-0
788.12	-0
788.424	-0
788.727	-0
789.03	0
789.333	0
789.637	0
789.94	0
790.243	0
790.546	0
790.849	0
791.152	0
791.454	0
791.757	0
792.06	0
792.362	0
792.665	0
792.967	0
793.27	0
793.572	0
793.874	0
794.177	0
794.479	0
794.781	0
795.083	0
795.385	0.01
795.687	0.01
795.989	0.01
796.29	0.01
796.592	0.01
796.894	0.01
797.195	0.01
797.497	0.01
797.798	0.01
798.1	0.01
798.401	0.01
798.702	0.01
799.003	0.01
799.304	0.01
799.605	0.01
799.906	0.01
800.207	0.01
800.508	0.01
800.809	0.01
801.11	0.01
801.41	0.01
801.711	0.01
802.011	0.01
802.312	0
802.612	0
802.913	0
803.213	0
803.513	0
803.813	0
804.113	0
804.413	0
804.713	0
805.013	0
805.313	0
805.613	0
805.912	-0
806.212	-0
806.511	-0
806.811	-0
807.11	-0
807.41	-0
807.709	-0
808.008	-0
808.307	-0
808.606	-0
808.905	0
809.204	0
809.503	0.01
809.802	0.01
810.101	0.01
810.399	0.01
810.698	0.01
810.997	0.01
811.295	0.01
811.593	0.01
811.892	0.01
812.19	0
812.488	0
812.786	0.01
813.084	0.01
813.383	0.01
813.68	0.01
813.978	0.01
814.276	0.01
814.574	0.01
814.872	0.01
815.169	0.01
815.467	0.01
815.764	0.01
816.062	0.01
816.359	0.01
816.656	0.01
816.954	0.01
817.251	0.01
817.548	0.01
817.845	0.01
818.142	0.01
818.439	0.01
818.735	0.01
819.032	0.01
819.329	0.01
819.626	0.01
819.922	0.01
820.219	0.01
820.515	0.01
820.811	0.01
821.108	0.01
821.404	0.01
821.7	0.01
821.996	0.01
822.292	0.01
822.588	0.01
822.884	0.01
823.18	0.01
823.475	0.01
823.771	0.01
824.067	0.01
824.362	0.01
824.658	0.01
824.953	0.01
825.249	0.01
825.544	0.01
825.839	0.01
826.134	0.01
826.429	0.01
826.724	0.01
827.019	0.01
827.314	0.01
827.609	0.01
827.904	0.01
828.198	0.01
828.493	0.02
828.787	0.02
829.082	0.02
829.376	0.02
829.671	0.02
829.965	0.02
830.259	0.01
830.553	0.01
830.847	0.01
831.141	0.02
831.435	0.02
831.729	0.02
832.023	0.02
832.317	0.02
832.61	0.02
832.904	0.01
833.197	0.01
833.491	0.01
833.784	0.01
834.077	0.01
834.371	0.01
834.664	0.02
834.957	0.02
835.25	0.02
835.543	0.02
835.836	0.02
836.129	0.02
836.421	0.02
836.714	0.02
837.007	0.02
837.299	0.02
837.592	0.02
837.884	0.02
838.177	0.02
838.469	0.01
838.761	0.01
839.053	0.01
839.345	0.01
839.637	0.01
839.929	0.01
840.221	0.01
840.513	0.01
840.805	0.01
841.096	0.01
841.388	0.01
841.68	0.01
841.971	0.01
842.262	0.01
842.554	0.02
842.845	0.02
843.136	0.02
843.427	0.02
843.718	0.02
844.009	0.02
844.3	0.02
844.591	0.02
844.882	0.02
845.173	0.02
845.463	0.02
845.754	0.02
846.044	0.02
846.335	0.02
846.625	0.02
846.915	0.02
847.206	0.02
847.496	0.02
847.786	0.02
848.076	0.02
848.366	0.02
848.656	0.02
848.945	0.02
849.235	0.02
849.525	0.02
849.814	0.02
850.104	0.02
850.393	0.02
850.683	0.01
850.972	0.01
851.261	0.01
851.551	0.01
851.84	0.01
852.129	0.01
852.418	0.01
852.707	0.02
852.995	0.01
853.284	0.02
853.573	0.02
853.862	0.02
854.15	0.02
854.439	0.02
854.727	0.02
855.015	0.02
855.304	0.02
855.592	0.02
855.88	0.02
856.168	0.02
856.456	0.02
856.744	0.02
857.032	0.02
857.32	0.02
857.607	0.03
857.895	0.03
858.183	0.03
858.47	0.03
858.757	0.03
859.045	0.03
859.332	0.02
859.619	0.02
859.907	0.02
860.194	0.02
860.481	0.02
860.768	0.02
861.054	0.02
861.341	0.02
861.628	0.02
861.915	0.02
862.201	0.02
862.488	0.02
862.774	0.02
863.061	0.02
863.347	0.02
863.633	0.02
863.919	0.02
864.205	0.01
864.491	0.01
864.777	0.01
865.063	0.01
865.349	0.01
865.635	0
865.92	0.01
866.206	0.02
866.492	0.01
866.777	0.01
867.062	0.01
867.348	0.02
867.633	0.02
867.918	0.01
868.203	0.01
868.488	0.01
868.773	0.01
869.058	0.01
869.343	0.01
869.628	-0
869.912	0.01
870.197	0
870.482	0.01
870.766	0.01
871.05	0.01
871.335	0.01
871.619	0.01
871.903	0
872.187	0
872.471	0
872.755	0
873.039	0.01
873.323	0.01
873.607	0.01
873.89	0.02
874.174	0.02
874.458	0.02
874.741	0.02
875.024	0.02
875.308	0.03
875.591	0.04
875.874	0.03
876.157	0.03
876.44	0.02
876.723	0.03
877.006	0.03
877.289	0.01
877.572	-0.01
877.854	-0.01
878.137	-0.02
878.42	-0.02
878.702	-0.02
878.984	-0.03
879.267	-0.03
879.549	-0.01
879.831	-0.02
880.113	-0.03
880.395	-0.02
880.677	-0.03
880.959	-0.01
