Data from Rubpy_BV_300_EDTA_Buffered_Absorbance_11-52-36-658.txt Node
Date: Wed Jul 01 11:52:36 BST 2026
User: fpm-admin
Spectrometer: OFX00224
Trigger mode: 0
Integration Time (sec): 7.000000E-2
Scans to average: 1
Nonlinearity correction enabled: false
Boxcar width: 3
Storing dark spectrum: false
XAxis mode: Wavelengths
Number of Pixels in Spectrum: 2136
>>>>>Begin Spectral Data<<<<<
154.91	0.11
155.289	-0.13
155.669	-0.29
156.048	-0.36
156.428	-0.65
156.807	-0.64
157.186	-0
157.566	-0
157.945	0.7
158.325	0.32
158.704	0.36
159.083	0.58
159.462	0.41
159.842	0.69
160.221	-0
160.6	-0
160.979	-0.22
161.359	-0.04
161.738	0.12
162.117	-0.48
162.496	-0
162.875	-0
163.254	-0
163.633	-0
164.012	-0
164.391	-0
164.77	-0.52
165.149	-0.69
165.528	-0.92
165.907	-0.54
166.286	-0.62
166.665	-0.34
167.044	-0.11
167.423	-0.74
167.802	-0
168.181	0.67
168.559	0.44
168.938	0.13
169.317	0.65
169.696	-0
170.074	-0
170.453	1.68
170.832	0.79
171.21	1.31
171.589	-0
171.968	-0
172.346	-0
172.725	-0
173.103	-0
173.482	-0
173.861	-0
174.239	-0
174.617	-0
174.996	-0
175.374	-0
175.753	-0
176.131	-0
176.51	0.27
176.888	-0.02
177.266	0.16
177.645	0.09
178.023	0.23
178.401	0.02
178.779	-0.04
179.158	1.04
179.536	0.38
179.914	0.02
180.292	-0.11
180.67	-0
181.048	0.59
181.427	0.98
181.805	-0.99
182.183	-0
182.561	-0.18
182.939	-0.05
183.317	0.43
183.695	-0
184.073	-0
184.451	-0
184.829	-0
185.206	-0.44
185.584	-0.62
185.962	-0.34
186.34	-0.38
186.718	-0.23
187.096	-0.38
187.473	-0.07
187.851	-0.02
188.229	0.03
188.607	0.05
188.984	0.09
189.362	0.07
189.74	0.08
190.117	0.1
190.495	0.12
190.872	0.12
191.25	0.12
191.627	0.11
192.005	0.13
192.382	0.16
192.76	0.12
193.137	0.1
193.515	0.09
193.892	0.08
194.269	0.08
194.647	0.06
195.024	0.04
195.401	0.02
195.779	0.02
196.156	0.01
196.533	0.01
196.91	0.01
197.288	0.03
197.665	0.03
198.042	0.06
198.419	0.07
198.796	0.08
199.173	0.07
199.55	0.09
199.927	0.05
200.304	0.08
200.681	0.05
201.058	0.06
201.435	0.05
201.812	0.05
202.189	0.01
202.566	0.05
202.943	0.03
203.32	0.04
203.697	0.03
204.073	0.03
204.45	0.05
204.827	0.09
205.204	0.08
205.58	0.09
205.957	0.1
206.334	0.12
206.71	0.12
207.087	0.11
207.464	0.08
207.84	0.08
208.217	0.09
208.593	0.1
208.97	0.05
209.346	0.05
209.723	0.05
210.099	0.08
210.476	0.07
210.852	0.08
211.228	0.09
211.605	0.13
211.981	0.14
212.357	0.15
212.733	0.14
213.11	0.17
213.486	0.18
213.862	0.15
214.238	0.12
214.614	0.09
214.991	0.1
215.367	0.08
215.743	0.04
216.119	0.02
216.495	0.01
216.871	0.02
217.247	0.02
217.623	0.03
217.999	0.03
218.375	0.04
218.751	0.01
219.127	0.02
219.502	0.02
219.878	0.03
220.254	0.02
220.63	0.02
221.006	0.03
221.381	0.06
221.757	0.06
222.133	0.05
222.508	0.07
222.884	0.08
223.26	0.1
223.635	0.11
224.011	0.08
224.386	0.09
224.762	0.08
225.137	0.07
225.513	0.05
225.888	0.04
226.264	0.05
226.639	0.06
227.014	0.04
227.39	0.07
227.765	0.06
228.14	0.1
228.516	0.11
228.891	0.08
229.266	0.09
229.641	0.1
230.017	0.08
230.392	0.06
230.767	0.02
231.142	0.02
231.517	0.04
231.892	0.05
232.267	0.05
232.642	0.06
233.017	0.06
233.392	0.06
233.767	0.03
234.142	0.01
234.517	-0.01
234.892	-0.03
235.267	-0.04
235.641	-0.01
236.016	0
236.391	0.03
236.766	0.03
237.14	0.05
237.515	0.06
237.89	0.07
238.264	0.08
238.639	0.08
239.014	0.07
239.388	0.1
239.763	0.09
240.137	0.1
240.512	0.11
240.886	0.08
241.261	0.09
241.635	0.08
242.009	0.08
242.384	0.08
242.758	0.06
243.132	0.04
243.507	0.06
243.881	0.06
244.255	0.06
244.629	0.04
245.004	0.04
245.378	0.03
245.752	0.04
246.126	0.04
246.5	0.03
246.874	0.03
247.248	0.05
247.622	0.05
247.996	0.07
248.37	0.06
248.744	0.05
249.118	0.09
249.492	0.08
249.866	0.08
250.24	0.07
250.613	0.09
250.987	0.1
251.361	0.11
251.735	0.09
252.108	0.09
252.482	0.07
252.856	0.05
253.229	0.03
253.603	-0.01
253.977	-0.01
254.35	-0
254.724	0.01
255.097	0.02
255.471	0.03
255.844	0.03
256.218	0.05
256.591	0.07
256.964	0.09
257.338	0.1
257.711	0.11
258.084	0.11
258.458	0.12
258.831	0.14
259.204	0.12
259.577	0.08
259.95	0.08
260.323	0.09
260.697	0.09
261.07	0.1
261.443	0.09
261.816	0.09
262.189	0.1
262.562	0.08
262.935	0.08
263.308	0.08
263.68	0.06
264.053	0.05
264.426	0.05
264.799	0.06
265.172	0.08
265.545	0.06
265.917	0.06
266.29	0.06
266.663	0.05
267.035	0.04
267.408	0.03
267.781	0.03
268.153	0.03
268.526	0.04
268.898	0.05
269.271	0.06
269.643	0.06
270.016	0.05
270.388	0.06
270.76	0.06
271.133	0.05
271.505	0.05
271.877	0.06
272.25	0.08
272.622	0.09
272.994	0.09
273.366	0.09
273.739	0.11
274.111	0.12
274.483	0.1
274.855	0.08
275.227	0.08
275.599	0.08
275.971	0.09
276.343	0.1
276.715	0.11
277.087	0.13
277.459	0.14
277.831	0.16
278.203	0.15
278.574	0.14
278.946	0.11
279.318	0.09
279.69	0.06
280.061	0.06
280.433	0.05
280.805	0.05
281.176	0.05
281.548	0.07
281.92	0.09
282.291	0.1
282.663	0.11
283.034	0.11
283.406	0.12
283.777	0.12
284.148	0.12
284.52	0.13
284.891	0.13
285.262	0.12
285.634	0.11
286.005	0.08
286.376	0.06
286.747	0.07
287.119	0.07
287.49	0.07
287.861	0.06
288.232	0.07
288.603	0.07
288.974	0.07
289.345	0.06
289.716	0.05
290.087	0.06
290.458	0.07
290.829	0.07
291.2	0.08
291.571	0.09
291.941	0.09
292.312	0.08
292.683	0.08
293.054	0.07
293.424	0.08
293.795	0.07
294.166	0.08
294.536	0.08
294.907	0.07
295.277	0.09
295.648	0.08
296.018	0.08
296.389	0.09
296.759	0.08
297.13	0.07
297.5	0.07
297.871	0.06
298.241	0.06
298.611	0.05
298.981	0.04
299.352	0.04
299.722	0.05
300.092	0.05
300.462	0.03
300.832	0.03
301.202	0.02
301.573	0.02
301.943	0.02
302.313	0.02
302.683	0.02
303.053	0.02
303.422	0.02
303.792	0.03
304.162	0.03
304.532	0.03
304.902	0.03
305.272	0.02
305.641	0.03
306.011	0.02
306.381	0.03
306.75	0.03
307.12	0.03
307.49	0.03
307.859	0.03
308.229	0.03
308.598	0.03
308.968	0.03
309.337	0.03
309.707	0.03
310.076	0.03
310.445	0.03
310.815	0.04
311.184	0.04
311.553	0.04
311.923	0.04
312.292	0.04
312.661	0.04
313.03	0.05
313.399	0.05
313.768	0.05
314.137	0.05
314.506	0.05
314.875	0.06
315.244	0.06
315.613	0.06
315.982	0.06
316.351	0.06
316.72	0.07
317.089	0.06
317.458	0.06
317.826	0.07
318.195	0.07
318.564	0.07
318.933	0.07
319.301	0.07
319.67	0.07
320.038	0.07
320.407	0.07
320.775	0.07
321.144	0.07
321.512	0.07
321.881	0.07
322.249	0.07
322.618	0.07
322.986	0.07
323.354	0.08
323.723	0.08
324.091	0.08
324.459	0.08
324.827	0.08
325.195	0.08
325.564	0.08
325.932	0.08
326.3	0.08
326.668	0.08
327.036	0.08
327.404	0.08
327.772	0.09
328.14	0.09
328.508	0.09
328.875	0.1
329.243	0.1
329.611	0.1
329.979	0.1
330.346	0.1
330.714	0.1
331.082	0.1
331.449	0.1
331.817	0.1
332.185	0.1
332.552	0.11
332.92	0.11
333.287	0.11
333.655	0.11
334.022	0.11
334.389	0.12
334.757	0.12
335.124	0.12
335.491	0.13
335.859	0.13
336.226	0.13
336.593	0.13
336.96	0.13
337.327	0.14
337.695	0.14
338.062	0.14
338.429	0.15
338.796	0.15
339.163	0.15
339.53	0.15
339.897	0.15
340.263	0.15
340.63	0.16
340.997	0.16
341.364	0.16
341.731	0.17
342.097	0.17
342.464	0.17
342.831	0.17
343.197	0.18
343.564	0.18
343.931	0.18
344.297	0.19
344.664	0.19
345.03	0.19
345.396	0.2
345.763	0.2
346.129	0.2
346.496	0.21
346.862	0.21
347.228	0.21
347.594	0.22
347.961	0.22
348.327	0.22
348.693	0.23
349.059	0.23
349.425	0.23
349.791	0.23
350.157	0.24
350.523	0.24
350.889	0.24
351.255	0.24
351.621	0.25
351.987	0.25
352.353	0.26
352.719	0.26
353.084	0.26
353.45	0.27
353.816	0.27
354.181	0.27
354.547	0.28
354.913	0.28
355.278	0.28
355.644	0.29
356.009	0.29
356.375	0.29
356.74	0.3
357.106	0.3
357.471	0.31
357.836	0.31
358.202	0.32
358.567	0.32
358.932	0.32
359.297	0.33
359.663	0.33
360.028	0.34
360.393	0.34
360.758	0.35
361.123	0.36
361.488	0.36
361.853	0.37
362.218	0.37
362.583	0.38
362.948	0.38
363.312	0.38
363.677	0.39
364.042	0.39
364.407	0.4
364.772	0.4
365.136	0.41
365.501	0.41
365.865	0.42
366.23	0.42
366.595	0.43
366.959	0.43
367.324	0.44
367.688	0.44
368.052	0.45
368.417	0.45
368.781	0.46
369.145	0.46
369.51	0.47
369.874	0.47
370.238	0.47
370.602	0.48
370.967	0.48
371.331	0.48
371.695	0.49
372.059	0.49
372.423	0.49
372.787	0.49
373.151	0.49
373.515	0.49
373.878	0.49
374.242	0.49
374.606	0.49
374.97	0.49
375.334	0.48
375.697	0.48
376.061	0.47
376.425	0.47
376.788	0.46
377.152	0.46
377.515	0.45
377.879	0.45
378.242	0.45
378.606	0.44
378.969	0.44
379.333	0.43
379.696	0.43
380.059	0.43
380.422	0.42
380.786	0.42
381.149	0.42
381.512	0.42
381.875	0.41
382.238	0.41
382.601	0.41
382.964	0.4
383.327	0.4
383.69	0.4
384.053	0.4
384.416	0.4
384.779	0.39
385.142	0.4
385.504	0.4
385.867	0.4
386.23	0.4
386.593	0.4
386.955	0.4
387.318	0.4
387.68	0.4
388.043	0.4
388.405	0.41
388.768	0.41
389.13	0.41
389.493	0.41
389.855	0.41
390.217	0.41
390.58	0.41
390.942	0.41
391.304	0.4
391.666	0.4
392.028	0.4
392.391	0.39
392.753	0.39
393.115	0.38
393.477	0.38
393.839	0.38
394.201	0.38
394.563	0.38
394.924	0.38
395.286	0.38
395.648	0.38
396.01	0.39
396.371	0.39
396.733	0.4
397.095	0.41
397.456	0.41
397.818	0.42
398.18	0.43
398.541	0.45
398.903	0.46
399.264	0.47
399.625	0.48
399.987	0.5
400.348	0.51
400.709	0.52
401.071	0.52
401.432	0.53
401.793	0.53
402.154	0.53
402.515	0.52
402.876	0.51
403.238	0.5
403.599	0.49
403.96	0.48
404.32	0.46
404.681	0.45
405.042	0.43
405.403	0.41
405.764	0.39
406.125	0.37
406.485	0.35
406.846	0.33
407.207	0.31
407.567	0.3
407.928	0.28
408.288	0.26
408.649	0.25
409.009	0.23
409.37	0.22
409.73	0.2
410.091	0.19
410.451	0.18
410.811	0.17
411.171	0.16
411.532	0.16
411.892	0.15
412.252	0.14
412.612	0.13
412.972	0.12
413.332	0.12
413.692	0.11
414.052	0.11
414.412	0.1
414.772	0.1
415.132	0.09
415.492	0.09
415.851	0.09
416.211	0.08
416.571	0.08
416.931	0.08
417.29	0.08
417.65	0.07
418.009	0.07
418.369	0.07
418.728	0.07
419.088	0.06
419.447	0.06
419.807	0.06
420.166	0.06
420.525	0.05
420.884	0.05
421.244	0.05
421.603	0.05
421.962	0.05
422.321	0.04
422.68	0.04
423.039	0.05
423.398	0.05
423.757	0.04
424.116	0.04
424.475	0.05
424.834	0.05
425.193	0.05
425.551	0.04
425.91	0.04
426.269	0.04
426.628	0.04
426.986	0.04
427.345	0.04
427.703	0.04
428.062	0.04
428.42	0.04
428.779	0.04
429.137	0.04
429.496	0.04
429.854	0.04
430.212	0.04
430.57	0.04
430.929	0.04
431.287	0.04
431.645	0.04
432.003	0.04
432.361	0.04
432.719	0.04
433.077	0.03
433.435	0.03
433.793	0.04
434.151	0.03
434.509	0.03
434.866	0.03
435.224	0.03
435.582	0.03
435.94	0.03
436.297	0.03
436.655	0.03
437.012	0.03
437.37	0.04
437.727	0.03
438.085	0.04
438.442	0.03
438.8	0.03
439.157	0.04
439.514	0.03
439.872	0.03
440.229	0.03
440.586	0.03
440.943	0.03
441.3	0.03
441.657	0.03
442.014	0.03
442.371	0.03
442.728	0.03
443.085	0.03
443.442	0.03
443.799	0.03
444.156	0.03
444.513	0.03
444.869	0.02
445.226	0.02
445.583	0.02
445.939	0.02
446.296	0.02
446.652	0.02
447.009	0.03
447.365	0.03
447.722	0.02
448.078	0.02
448.434	0.02
448.791	0.02
449.147	0.02
449.503	0.02
449.859	0.02
450.215	0.02
450.571	0.02
450.928	0.02
451.284	0.02
451.64	0.02
451.995	0.02
452.351	0.02
452.707	0.02
453.063	0.02
453.419	0.02
453.775	0.02
454.13	0.02
454.486	0.02
454.842	0.02
455.197	0.02
455.553	0.01
455.908	0.01
456.264	0.01
456.619	0.01
456.975	0.01
457.33	0.01
457.685	0.01
458.04	0.01
458.396	0.01
458.751	0.01
459.106	0
459.461	0
459.816	-0
460.171	-0
460.526	-0
460.881	-0
461.236	-0
461.591	-0.01
461.946	-0.01
462.301	-0.01
462.655	-0
463.01	-0.01
463.365	-0.01
463.719	-0.01
464.074	-0.01
464.428	-0.01
464.783	-0.02
465.137	-0.02
465.492	-0.02
465.846	-0.02
466.201	-0.02
466.555	-0.02
466.909	-0.02
467.263	-0.02
467.618	-0.02
467.972	-0.02
468.326	-0.02
468.68	-0.02
469.034	-0.02
469.388	-0.01
469.742	-0.02
470.096	-0.01
470.45	-0.01
470.804	-0.01
471.157	-0.01
471.511	-0.01
471.865	-0.01
472.218	-0.01
472.572	-0.01
472.926	-0.01
473.279	-0.01
473.633	-0.01
473.986	-0
474.34	-0
474.693	0
475.046	0.01
475.4	0.01
475.753	0.01
476.106	0.01
476.459	0.01
476.812	0.02
477.165	0.02
477.519	0.02
477.872	0.03
478.224	0.03
478.577	0.03
478.93	0.04
479.283	0.04
479.636	0.04
479.989	0.04
480.341	0.04
480.694	0.05
481.047	0.05
481.399	0.05
481.752	0.05
482.104	0.05
482.457	0.05
482.809	0.05
483.162	0.06
483.514	0.06
483.866	0.06
484.219	0.06
484.571	0.06
484.923	0.06
485.275	0.06
485.627	0.07
485.979	0.07
486.331	0.07
486.683	0.07
487.035	0.07
487.387	0.07
487.739	0.07
488.091	0.08
488.443	0.08
488.794	0.08
489.146	0.08
489.498	0.08
489.849	0.09
490.201	0.09
490.552	0.09
490.904	0.09
491.255	0.09
491.607	0.09
491.958	0.09
492.309	0.09
492.661	0.09
493.012	0.1
493.363	0.1
493.714	0.1
494.065	0.1
494.416	0.1
494.767	0.1
495.118	0.1
495.469	0.1
495.82	0.1
496.171	0.1
496.522	0.11
496.872	0.11
497.223	0.11
497.574	0.11
497.924	0.11
498.275	0.11
498.626	0.11
498.976	0.11
499.327	0.12
499.677	0.12
500.027	0.12
500.378	0.12
500.728	0.12
501.078	0.12
501.428	0.12
501.779	0.12
502.129	0.12
502.479	0.12
502.829	0.13
503.179	0.13
503.529	0.13
503.879	0.13
504.229	0.13
504.578	0.13
504.928	0.13
505.278	0.13
505.628	0.14
505.977	0.14
506.327	0.14
506.676	0.14
507.026	0.14
507.375	0.14
507.725	0.14
508.074	0.14
508.424	0.14
508.773	0.14
509.122	0.14
509.471	0.15
509.82	0.15
510.17	0.15
510.519	0.15
510.868	0.15
511.217	0.15
511.566	0.15
511.915	0.15
512.263	0.15
512.612	0.15
512.961	0.15
513.31	0.15
513.659	0.15
514.007	0.16
514.356	0.16
514.704	0.16
515.053	0.16
515.401	0.16
515.75	0.16
516.098	0.16
516.447	0.16
516.795	0.16
517.143	0.17
517.491	0.17
517.839	0.17
518.188	0.17
518.536	0.17
518.884	0.17
519.232	0.17
519.58	0.17
519.928	0.17
520.275	0.17
520.623	0.17
520.971	0.17
521.319	0.17
521.666	0.18
522.014	0.18
522.362	0.18
522.709	0.18
523.057	0.18
523.404	0.18
523.752	0.18
524.099	0.18
524.446	0.18
524.794	0.18
525.141	0.18
525.488	0.18
525.835	0.19
526.182	0.19
526.529	0.19
526.876	0.19
527.223	0.19
527.57	0.19
527.917	0.19
528.264	0.19
528.611	0.19
528.958	0.19
529.304	0.19
529.651	0.19
529.998	0.19
530.344	0.19
530.691	0.19
531.037	0.19
531.384	0.19
531.73	0.19
532.076	0.2
532.423	0.2
532.769	0.2
533.115	0.2
533.461	0.2
533.807	0.2
534.154	0.2
534.5	0.2
534.846	0.2
535.192	0.2
535.537	0.2
535.883	0.2
536.229	0.2
536.575	0.2
536.921	0.2
537.266	0.21
537.612	0.21
537.957	0.21
538.303	0.21
538.649	0.21
538.994	0.21
539.339	0.21
539.685	0.21
540.03	0.21
540.375	0.21
540.721	0.21
541.066	0.21
541.411	0.21
541.756	0.21
542.101	0.21
542.446	0.21
542.791	0.21
543.136	0.21
543.481	0.21
543.825	0.21
544.17	0.21
544.515	0.21
544.86	0.21
545.204	0.21
545.549	0.22
545.893	0.22
546.238	0.22
546.582	0.22
546.927	0.22
547.271	0.22
547.615	0.22
547.96	0.22
548.304	0.22
548.648	0.22
548.992	0.22
549.336	0.22
549.68	0.22
550.024	0.22
550.368	0.22
550.712	0.22
551.056	0.22
551.4	0.23
551.743	0.23
552.087	0.23
552.431	0.23
552.774	0.23
553.118	0.23
553.462	0.23
553.805	0.23
554.148	0.23
554.492	0.23
554.835	0.23
555.178	0.23
555.522	0.23
555.865	0.23
556.208	0.23
556.551	0.23
556.894	0.23
557.237	0.23
557.58	0.23
557.923	0.23
558.266	0.23
558.609	0.23
558.952	0.23
559.294	0.23
559.637	0.23
559.98	0.22
560.322	0.22
560.665	0.23
561.007	0.23
561.35	0.23
561.692	0.23
562.034	0.23
562.377	0.23
562.719	0.23
563.061	0.23
563.403	0.23
563.745	0.23
564.088	0.23
564.43	0.23
564.772	0.23
565.113	0.23
565.455	0.23
565.797	0.23
566.139	0.23
566.481	0.23
566.822	0.23
567.164	0.23
567.506	0.23
567.847	0.23
568.189	0.23
568.53	0.22
568.872	0.22
569.213	0.22
569.554	0.22
569.895	0.22
570.237	0.22
570.578	0.22
570.919	0.22
571.26	0.22
571.601	0.22
571.942	0.22
572.283	0.22
572.624	0.22
572.965	0.22
573.306	0.22
573.646	0.22
573.987	0.22
574.328	0.21
574.668	0.21
575.009	0.21
575.349	0.21
575.69	0.21
576.03	0.21
576.37	0.21
576.711	0.21
577.051	0.21
577.391	0.21
577.731	0.21
578.072	0.21
578.412	0.21
578.752	0.2
579.092	0.19
579.431	0.19
579.771	0.19
580.111	0.19
580.451	0.19
580.791	0.19
581.13	0.19
581.47	0.2
581.81	0.2
582.149	0.2
582.489	0.19
582.828	0.18
583.167	0.17
583.507	0.16
583.846	0.16
584.185	0.16
584.525	0.16
584.864	0.17
585.203	0.18
585.542	0.19
585.881	0.2
586.22	0.2
586.559	0.19
586.898	0.19
587.236	0.19
587.575	0.19
587.914	0.19
588.252	0.19
588.591	0.19
588.93	0.2
589.268	0.2
589.607	0.2
589.945	0.2
590.283	0.2
590.622	0.2
590.96	0.2
591.298	0.21
591.636	0.21
591.974	0.21
592.313	0.21
592.651	0.21
592.989	0.21
593.326	0.21
593.664	0.21
594.002	0.21
594.34	0.21
594.678	0.2
595.015	0.2
595.353	0.2
595.691	0.2
596.028	0.2
596.366	0.2
596.703	0.21
597.04	0.21
597.378	0.21
597.715	0.21
598.052	0.21
598.389	0.21
598.726	0.21
599.064	0.21
599.401	0.21
599.738	0.21
600.074	0.21
600.411	0.21
600.748	0.21
601.085	0.2
601.422	0.2
601.758	0.2
602.095	0.2
602.432	0.2
602.768	0.21
603.105	0.21
603.441	0.21
603.777	0.21
604.114	0.21
604.45	0.21
604.786	0.21
605.122	0.21
605.459	0.21
605.795	0.21
606.131	0.21
606.467	0.21
606.803	0.21
607.139	0.21
607.474	0.21
607.81	0.21
608.146	0.21
608.482	0.21
608.817	0.21
609.153	0.21
609.488	0.21
609.824	0.21
610.159	0.21
610.495	0.21
610.83	0.21
611.165	0.21
611.5	0.21
611.836	0.21
612.171	0.21
612.506	0.2
612.841	0.2
613.176	0.2
613.511	0.2
613.845	0.2
614.18	0.2
614.515	0.2
614.85	0.2
615.184	0.2
615.519	0.2
615.854	0.2
616.188	0.2
616.523	0.2
616.857	0.2
617.191	0.2
617.526	0.2
617.86	0.2
618.194	0.2
618.528	0.2
618.862	0.2
619.196	0.19
619.53	0.19
619.864	0.19
620.198	0.19
620.532	0.19
620.866	0.19
621.2	0.19
621.533	0.19
621.867	0.19
622.201	0.19
622.534	0.19
622.868	0.19
623.201	0.19
623.534	0.19
623.868	0.18
624.201	0.18
624.534	0.18
624.868	0.18
625.201	0.18
625.534	0.18
625.867	0.18
626.2	0.18
626.533	0.18
626.865	0.18
627.198	0.17
627.531	0.17
627.864	0.17
628.196	0.17
628.529	0.17
628.862	0.17
629.194	0.17
629.527	0.17
629.859	0.17
630.191	0.17
630.524	0.17
630.856	0.17
631.188	0.17
631.52	0.17
631.852	0.17
632.184	0.17
632.516	0.17
632.848	0.16
633.18	0.16
633.512	0.16
633.844	0.16
634.175	0.16
634.507	0.16
634.839	0.16
635.17	0.16
635.502	0.16
635.833	0.15
636.165	0.16
636.496	0.15
636.827	0.15
637.159	0.15
637.49	0.15
637.821	0.15
638.152	0.15
638.483	0.15
638.814	0.15
639.145	0.14
639.476	0.14
639.807	0.14
640.137	0.14
640.468	0.14
640.799	0.14
641.129	0.14
641.46	0.13
641.791	0.13
642.121	0.13
642.451	0.13
642.782	0.13
643.112	0.13
643.442	0.13
643.773	0.13
644.103	0.13
644.433	0.13
644.763	0.13
645.093	0.13
645.423	0.12
645.753	0.12
646.082	0.12
646.412	0.12
646.742	0.12
647.072	0.12
647.401	0.12
647.731	0.12
648.06	0.12
648.39	0.11
648.719	0.11
649.048	0.11
649.378	0.11
649.707	0.11
650.036	0.11
650.365	0.11
650.694	0.11
651.023	0.11
651.352	0.11
651.681	0.11
652.01	0.11
652.339	0.11
652.668	0.11
652.996	0.11
653.325	0.11
653.654	0.11
653.982	0.11
654.311	0.11
654.639	0.11
654.967	0.11
655.296	0.11
655.624	0.11
655.952	0.11
656.28	0.11
656.609	0.1
656.937	0.08
657.265	0.06
657.593	0.05
657.92	0.03
658.248	0.02
658.576	0.02
658.904	0.03
659.231	0.04
659.559	0.06
659.887	0.07
660.214	0.09
660.542	0.11
660.869	0.11
661.196	0.11
661.524	0.11
661.851	0.11
662.178	0.11
662.505	0.11
662.832	0.11
663.159	0.11
663.486	0.1
663.813	0.1
664.14	0.1
664.467	0.1
664.794	0.1
665.12	0.1
665.447	0.1
665.774	0.1
666.1	0.1
666.427	0.1
666.753	0.1
667.079	0.1
667.406	0.1
667.732	0.1
668.058	0.1
668.384	0.1
668.71	0.1
669.036	0.09
669.362	0.09
669.688	0.09
670.014	0.09
670.34	0.09
670.666	0.09
670.991	0.09
671.317	0.09
671.643	0.09
671.968	0.09
672.294	0.09
672.619	0.09
672.945	0.09
673.27	0.09
673.595	0.09
673.92	0.08
674.246	0.08
674.571	0.08
674.896	0.08
675.221	0.08
675.546	0.08
675.87	0.08
676.195	0.08
676.52	0.08
676.845	0.08
677.169	0.07
677.494	0.07
677.819	0.07
678.143	0.07
678.468	0.07
678.792	0.07
679.116	0.07
679.44	0.07
679.765	0.07
680.089	0.07
680.413	0.07
680.737	0.07
681.061	0.07
681.385	0.06
681.709	0.06
682.033	0.06
682.356	0.06
682.68	0.06
683.004	0.06
683.327	0.06
683.651	0.06
683.974	0.06
684.298	0.06
684.621	0.06
684.944	0.06
685.268	0.06
685.591	0.06
685.914	0.06
686.237	0.05
686.56	0.05
686.883	0.05
687.206	0.05
687.529	0.05
687.852	0.05
688.175	0.05
688.497	0.04
688.82	0.04
689.142	0.04
689.465	0.04
689.787	0.04
690.11	0.04
690.432	0.04
690.755	0.04
691.077	0.04
691.399	0.04
691.721	0.04
692.043	0.04
692.365	0.04
692.687	0.04
693.009	0.04
693.331	0.04
693.653	0.04
693.974	0.04
694.296	0.03
694.618	0.03
694.939	0.03
695.261	0.03
695.582	0.03
695.904	0.03
696.225	0.03
696.546	0.03
696.868	0.03
697.189	0.03
697.51	0.03
697.831	0.03
698.152	0.03
698.473	0.02
698.794	0.02
699.114	0.02
699.435	0.02
699.756	0.02
700.077	0.02
700.397	0.02
700.718	0.02
701.038	0.02
701.359	0.02
701.679	0.02
701.999	0.03
702.32	0.03
702.64	0.02
702.96	0.02
703.28	0.02
703.6	0.02
703.92	0.02
704.24	0.02
704.56	0.02
704.879	0.02
705.199	0.02
705.519	0.02
705.838	0.02
706.158	0.02
706.478	0.02
706.797	0.02
707.116	0.02
707.436	0.02
707.755	0.02
708.074	0.02
708.393	0.02
708.712	0.01
709.031	0.01
709.35	0.01
709.669	0.01
709.988	0.01
710.307	0.01
710.626	0.01
710.944	0.01
711.263	0.01
711.582	0.01
711.9	0.01
712.219	0.01
712.537	0.01
712.855	0.01
713.174	0.01
713.492	0.01
713.81	0.01
714.128	0.01
714.446	0.01
714.764	0.01
715.082	0.01
715.4	0.01
715.718	0.01
716.035	0.01
716.353	0.01
716.671	0.01
716.988	0.02
717.306	0.02
717.623	0.02
717.941	0.02
718.258	0.02
718.575	0.02
718.893	0.02
719.21	0.02
719.527	0.02
719.844	0.02
720.161	0.02
720.478	0.02
720.795	0.02
721.112	0.02
721.428	0.02
721.745	0.02
722.062	0.02
722.378	0.02
722.695	0.02
723.011	0.02
723.328	0.02
723.644	0.02
723.96	0.02
724.276	0.02
724.593	0.02
724.909	0.02
725.225	0.02
725.541	0.02
725.857	0.02
726.173	0.02
726.488	0.02
726.804	0.02
727.12	0.02
727.435	0.02
727.751	0.02
728.067	0.02
728.382	0.02
728.697	0.03
729.013	0.03
729.328	0.03
729.643	0.03
729.958	0.02
730.273	0.02
730.588	0.02
730.903	0.02
731.218	0.02
731.533	0.02
731.848	0.02
732.163	0.02
732.477	0.02
732.792	0.02
733.107	0.02
733.421	0.02
733.736	0.02
734.05	0.02
734.364	0.02
734.678	0.02
734.993	0.02
735.307	0.02
735.621	0.02
735.935	0.02
736.249	0.02
736.563	0.02
736.877	0.02
737.19	0.02
737.504	0.02
737.818	0.02
738.131	0.02
738.445	0.02
738.758	0.02
739.072	0.02
739.385	0.03
739.698	0.03
740.012	0.02
740.325	0.02
740.638	0.02
740.951	0.02
741.264	0.02
741.577	0.02
741.89	0.02
742.203	0.02
742.515	0.02
742.828	0.02
743.141	0.02
743.453	0.02
743.766	0.02
744.078	0.02
744.391	0.02
744.703	0.02
745.015	0.02
745.327	0.02
745.639	0.02
745.952	0.02
746.264	0.02
746.575	0.02
746.887	0.02
747.199	0.02
747.511	0.02
747.823	0.02
748.134	0.01
748.446	0.01
748.757	0.01
749.069	0.01
749.38	0.01
749.692	0.01
750.003	0.01
750.314	0.01
750.625	0.01
750.936	0.01
751.248	0.01
751.559	0.01
751.869	0.01
752.18	0.01
752.491	0.01
752.802	0.01
753.112	0.01
753.423	0.01
753.734	0.01
754.044	0.01
754.355	0.01
754.665	0.01
754.975	0.01
755.285	0.01
755.596	0.01
755.906	0.01
756.216	0.01
756.526	0.01
756.836	0.01
757.146	0.01
757.455	0.01
757.765	0.01
758.075	0.01
758.385	0.01
758.694	0.01
759.004	0.01
759.313	0.01
759.622	0
759.932	0
760.241	0
760.55	0.01
760.859	0
761.168	0
761.477	0
761.786	0
762.095	0
762.404	0
762.713	0
763.021	0
763.33	0.01
763.639	0.01
763.947	0.01
764.256	0.01
764.564	0.01
764.872	0.01
765.181	0.01
765.489	0
765.797	0
766.105	0
766.413	0
766.721	0
767.029	0.01
767.337	0.01
767.644	0.01
767.952	0.01
768.26	0.01
768.567	0.01
768.875	0.01
769.182	0.01
769.49	0.01
769.797	0.01
770.104	0.01
770.411	0.01
770.718	0.01
771.026	0.01
771.333	0.01
771.639	0.01
771.946	0.01
772.253	0.01
772.56	0.01
772.867	0.01
773.173	0.01
773.48	0.01
773.786	0.01
774.093	0.01
774.399	0.01
774.705	0.01
775.012	0.01
775.318	0.01
775.624	0.01
775.93	0.01
776.236	0.01
776.542	0.01
776.848	0.01
777.154	0.01
777.459	0.01
777.765	0.01
778.071	0.01
778.376	0.01
778.682	0.01
778.987	0.01
779.292	0.01
779.598	0.01
779.903	0.01
780.208	0.01
780.513	0.01
780.818	0.01
781.123	0.01
781.428	0.01
781.733	0
782.038	0
782.343	0
782.647	0
782.952	0
783.256	0
783.561	0
783.865	0
784.17	0
784.474	0
784.778	0
785.082	0
785.386	0
785.69	0
785.994	0
786.298	0
786.602	0
786.906	0
787.209	0
787.513	-0
787.817	0
788.12	0
788.424	0
788.727	0
789.03	0
789.333	0
789.637	0
789.94	0
790.243	0
790.546	0
790.849	0
791.152	0
791.454	0
791.757	0.01
792.06	0
792.362	0
792.665	0
792.967	0
793.27	0
793.572	0
793.874	0
794.177	0
794.479	0.01
794.781	0.01
795.083	0.01
795.385	0.01
795.687	0.01
795.989	0.01
796.29	0.01
796.592	0.01
796.894	0.01
797.195	0.01
797.497	0.01
797.798	0.01
798.1	0.01
798.401	0.01
798.702	0.01
799.003	0
799.304	0
799.605	0
799.906	0
800.207	0
800.508	0.01
800.809	0.01
801.11	0.01
801.41	0.01
801.711	0.01
802.011	0.01
802.312	0
802.612	0
802.913	0
803.213	0
803.513	0
803.813	0
804.113	0
804.413	0
804.713	0
805.013	0
805.313	0
805.613	0
805.912	0
806.212	-0
806.511	-0
806.811	-0
807.11	-0
807.41	-0
807.709	-0
808.008	0
808.307	0
808.606	0
808.905	0
809.204	0.01
809.503	0.01
809.802	0.01
810.101	0.01
810.399	0.01
810.698	0.01
810.997	0.01
811.295	0.01
811.593	0.01
811.892	0.01
812.19	0.01
812.488	0.01
812.786	0.01
813.084	0.01
813.383	0.01
813.68	0.01
813.978	0.01
814.276	0.01
814.574	0.01
814.872	0.01
815.169	0.01
815.467	0.01
815.764	0.01
816.062	0.01
816.359	0.01
816.656	0.01
816.954	0.01
817.251	0.01
817.548	0.01
817.845	0.01
818.142	0.01
818.439	0.01
818.735	0.01
819.032	0.01
819.329	0.01
819.626	0.01
819.922	0.01
820.219	0.01
820.515	0.01
820.811	0.01
821.108	0.01
821.404	0.01
821.7	0.01
821.996	0.01
822.292	0.01
822.588	0.01
822.884	0.01
823.18	0.01
823.475	0.01
823.771	0.01
824.067	0.01
824.362	0.01
824.658	0.01
824.953	0.01
825.249	0.01
825.544	0.01
825.839	0.01
826.134	0.01
826.429	0.01
826.724	0.01
827.019	0.01
827.314	0.01
827.609	0.01
827.904	0.01
828.198	0.01
828.493	0.02
828.787	0.01
829.082	0.01
829.376	0.01
829.671	0.01
829.965	0.01
830.259	0.01
830.553	0.01
830.847	0.01
831.141	0.01
831.435	0.01
831.729	0.02
832.023	0.02
832.317	0.02
832.61	0.02
832.904	0.02
833.197	0.01
833.491	0.01
833.784	0.01
834.077	0.01
834.371	0.01
834.664	0.02
834.957	0.02
835.25	0.02
835.543	0.02
835.836	0.02
836.129	0.02
836.421	0.02
836.714	0.02
837.007	0.02
837.299	0.02
837.592	0.02
837.884	0.02
838.177	0.02
838.469	0.02
838.761	0.02
839.053	0.01
839.345	0.01
839.637	0.01
839.929	0.01
840.221	0.01
840.513	0.01
840.805	0.01
841.096	0.01
841.388	0.01
841.68	0.01
841.971	0.01
842.262	0.01
842.554	0.02
842.845	0.02
843.136	0.02
843.427	0.02
843.718	0.02
844.009	0.02
844.3	0.02
844.591	0.02
844.882	0.02
845.173	0.02
845.463	0.02
845.754	0.02
846.044	0.02
846.335	0.02
846.625	0.02
846.915	0.02
847.206	0.02
847.496	0.02
847.786	0.02
848.076	0.02
848.366	0.02
848.656	0.02
848.945	0.02
849.235	0.02
849.525	0.02
849.814	0.02
850.104	0.02
850.393	0.01
850.683	0.02
850.972	0.02
851.261	0.01
851.551	0.01
851.84	0.01
852.129	0.01
852.418	0.01
852.707	0.01
852.995	0.01
853.284	0.01
853.573	0.01
853.862	0.02
854.15	0.02
854.439	0.02
854.727	0.02
855.015	0.02
855.304	0.02
855.592	0.03
855.88	0.02
856.168	0.02
856.456	0.02
856.744	0.02
857.032	0.02
857.32	0.02
857.607	0.02
857.895	0.02
858.183	0.02
858.47	0.03
858.757	0.03
859.045	0.03
859.332	0.03
859.619	0.03
859.907	0.03
860.194	0.02
860.481	0.02
860.768	0.02
861.054	0.01
861.341	0.01
861.628	0.01
861.915	0.01
862.201	0.01
862.488	0.02
862.774	0.01
863.061	0.01
863.347	0.01
863.633	0.01
863.919	0
864.205	-0
864.491	-0
864.777	0
865.063	-0
865.349	0
865.635	0.01
865.92	0.02
866.206	0.02
866.492	0.01
866.777	0.02
867.062	0.02
867.348	0.02
867.633	0.02
867.918	0.01
868.203	0.01
868.488	0.01
868.773	0.01
869.058	0.01
869.343	0.01
869.628	-0
869.912	0
870.197	-0
870.482	0
870.766	-0
871.05	-0
871.335	-0
871.619	0
871.903	-0.01
872.187	-0
872.471	-0.01
872.755	-0.01
873.039	-0.01
873.323	-0
873.607	0.01
873.89	0.02
874.174	0.03
874.458	0.02
874.741	0.02
875.024	0.02
875.308	0.02
875.591	0.02
875.874	-0
876.157	-0
876.44	0.02
876.723	0.03
877.006	0.03
877.289	0.03
877.572	0
877.854	0.01
878.137	-0.01
878.42	-0.03
878.702	-0.05
878.984	-0.05
879.267	-0.06
879.549	-0.05
879.831	-0.06
880.113	-0.05
880.395	-0.04
880.677	-0.04
880.959	-0.05
