Data from Rubpy_BV_300_EDTA_Buffered_Absorbance_11-51-53-704.txt Node
Date: Wed Jul 01 11:51:53 BST 2026
User: fpm-admin
Spectrometer: OFX00224
Trigger mode: 0
Integration Time (sec): 7.000000E-2
Scans to average: 1
Nonlinearity correction enabled: false
Boxcar width: 3
Storing dark spectrum: false
XAxis mode: Wavelengths
Number of Pixels in Spectrum: 2136
>>>>>Begin Spectral Data<<<<<
154.91	-0.08
155.289	-0.19
155.669	-0.3
156.048	-0.36
156.428	-0.65
156.807	-0.59
157.186	-0
157.566	0.83
157.945	0.72
158.325	0.53
158.704	0.89
159.083	-0
159.462	-0
159.842	-0
160.221	-0
160.6	-0
160.979	0.08
161.359	-0
161.738	-0
162.117	-0
162.496	-0.64
162.875	-0.77
163.254	-0.13
163.633	-0
164.012	-0
164.391	-0
164.77	0.12
165.149	-0.18
165.528	-0.56
165.907	-0.02
166.286	-0.36
166.665	-0.17
167.044	-0.11
167.423	-1.11
167.802	-0
168.181	-0
168.559	1.74
168.938	0.41
169.317	0.39
169.696	-0
170.074	0.79
170.453	0.68
170.832	0.31
171.21	0.18
171.589	0.31
171.968	0.95
172.346	0.21
172.725	0.37
173.103	0.49
173.482	1.2
173.861	-0
174.239	-0
174.617	-0
174.996	-0
175.374	-0
175.753	-0
176.131	-0
176.51	0.36
176.888	0.2
177.266	0.39
177.645	0.34
178.023	0.32
178.401	0.24
178.779	0.04
179.158	-0
179.536	-0
179.914	-0
180.292	-0
180.67	-0.59
181.048	-0.24
181.427	-0.55
181.805	-0
182.183	-1.41
182.561	-0
182.939	-0
183.317	-0
183.695	-0
184.073	-0
184.451	-0
184.829	-0
185.206	-0.33
185.584	-0.41
185.962	-0.04
186.34	-0.04
186.718	-0.13
187.096	-0.23
187.473	0.01
187.851	0.02
188.229	0.02
188.607	0.05
188.984	0.06
189.362	0.07
189.74	0.08
190.117	0.09
190.495	0.07
190.872	0.08
191.25	0.05
191.627	0.02
192.005	0.03
192.382	0.04
192.76	0.03
193.137	0.06
193.515	0.06
193.892	0.08
194.269	0.12
194.647	0.12
195.024	0.1
195.401	0.09
195.779	0.06
196.156	0.06
196.533	0.06
196.91	0.04
197.288	0.05
197.665	0.03
198.042	0.06
198.419	0.06
198.796	0.06
199.173	0.05
199.55	0.07
199.927	0.04
200.304	0.06
200.681	0.06
201.058	0.08
201.435	0.09
201.812	0.09
202.189	0.11
202.566	0.13
202.943	0.18
203.32	0.16
203.697	0.14
204.073	0.13
204.45	0.15
204.827	0.12
205.204	0.11
205.58	0.07
205.957	0.07
206.334	0.08
206.71	0.07
207.087	0.06
207.464	0.06
207.84	0.05
208.217	0.05
208.593	0.04
208.97	0.02
209.346	0.03
209.723	0.02
210.099	0.02
210.476	0.04
210.852	0.06
211.228	0.08
211.605	0.09
211.981	0.11
212.357	0.12
212.733	0.13
213.11	0.12
213.486	0.12
213.862	0.11
214.238	0.1
214.614	0.1
214.991	0.09
215.367	0.07
215.743	0.06
216.119	0.04
216.495	0.06
216.871	0.06
217.247	0.03
217.623	0.07
217.999	0.06
218.375	0.06
218.751	0.05
219.127	0.04
219.502	0.02
219.878	0.04
220.254	0.02
220.63	0.02
221.006	0.03
221.381	0.02
221.757	0.05
222.133	0.06
222.508	0.08
222.884	0.08
223.26	0.09
223.635	0.13
224.011	0.12
224.386	0.13
224.762	0.12
225.137	0.13
225.513	0.12
225.888	0.11
226.264	0.07
226.639	0.07
227.014	0.06
227.39	0.07
227.765	0.05
228.14	0.07
228.516	0.09
228.891	0.08
229.266	0.07
229.641	0.06
230.017	0.05
230.392	0.04
230.767	0.03
231.142	0.01
231.517	0.04
231.892	0.05
232.267	0.06
232.642	0.06
233.017	0.08
233.392	0.07
233.767	0.07
234.142	0.06
234.517	0.03
234.892	0.04
235.267	0.04
235.641	0.06
236.016	0.08
236.391	0.09
236.766	0.08
237.14	0.1
237.515	0.09
237.89	0.1
238.264	0.1
238.639	0.11
239.014	0.12
239.388	0.14
239.763	0.15
240.137	0.15
240.512	0.13
240.886	0.13
241.261	0.11
241.635	0.1
242.009	0.1
242.384	0.11
242.758	0.13
243.132	0.12
243.507	0.13
243.881	0.15
244.255	0.13
244.629	0.1
245.004	0.1
245.378	0.08
245.752	0.08
246.126	0.09
246.5	0.08
246.874	0.08
247.248	0.09
247.622	0.08
247.996	0.09
248.37	0.09
248.744	0.05
249.118	0.07
249.492	0.06
249.866	0.08
250.24	0.07
250.613	0.07
250.987	0.07
251.361	0.07
251.735	0.05
252.108	0.07
252.482	0.05
252.856	0.04
253.229	0.04
253.603	0.03
253.977	0.04
254.35	0.04
254.724	0.02
255.097	0.03
255.471	0.03
255.844	0.01
256.218	0.03
256.591	0.03
256.964	0.03
257.338	0.04
257.711	0.05
258.084	0.05
258.458	0.06
258.831	0.07
259.204	0.07
259.577	0.08
259.95	0.09
260.323	0.1
260.697	0.11
261.07	0.12
261.443	0.1
261.816	0.11
262.189	0.11
262.562	0.1
262.935	0.1
263.308	0.09
263.68	0.09
264.053	0.07
264.426	0.06
264.799	0.07
265.172	0.07
265.545	0.06
265.917	0.05
266.29	0.04
266.663	0.04
267.035	0.03
267.408	-0
267.781	0.01
268.153	0.01
268.526	0.02
268.898	0.03
269.271	0.04
269.643	0.06
270.016	0.08
270.388	0.07
270.76	0.07
271.133	0.07
271.505	0.08
271.877	0.08
272.25	0.11
272.622	0.11
272.994	0.11
273.366	0.12
273.739	0.11
274.111	0.11
274.483	0.11
274.855	0.08
275.227	0.08
275.599	0.09
275.971	0.1
276.343	0.12
276.715	0.11
277.087	0.13
277.459	0.14
277.831	0.13
278.203	0.12
278.574	0.11
278.946	0.1
279.318	0.1
279.69	0.07
280.061	0.09
280.433	0.1
280.805	0.09
281.176	0.09
281.548	0.09
281.92	0.11
282.291	0.11
282.663	0.08
283.034	0.07
283.406	0.08
283.777	0.08
284.148	0.09
284.52	0.08
284.891	0.09
285.262	0.09
285.634	0.11
286.005	0.1
286.376	0.1
286.747	0.1
287.119	0.1
287.49	0.1
287.861	0.1
288.232	0.08
288.603	0.09
288.974	0.08
289.345	0.06
289.716	0.05
290.087	0.06
290.458	0.07
290.829	0.08
291.2	0.09
291.571	0.09
291.941	0.11
292.312	0.12
292.683	0.14
293.054	0.13
293.424	0.1
293.795	0.08
294.166	0.09
294.536	0.1
294.907	0.08
295.277	0.07
295.648	0.07
296.018	0.08
296.389	0.1
296.759	0.09
297.13	0.07
297.5	0.08
297.871	0.07
298.241	0.07
298.611	0.08
298.981	0.06
299.352	0.05
299.722	0.06
300.092	0.05
300.462	0.04
300.832	0.03
301.202	0.03
301.573	0.04
301.943	0.04
302.313	0.03
302.683	0.03
303.053	0.03
303.422	0.03
303.792	0.03
304.162	0.03
304.532	0.03
304.902	0.03
305.272	0.03
305.641	0.03
306.011	0.03
306.381	0.03
306.75	0.02
307.12	0.02
307.49	0.02
307.859	0.03
308.229	0.03
308.598	0.03
308.968	0.03
309.337	0.03
309.707	0.03
310.076	0.03
310.445	0.03
310.815	0.03
311.184	0.03
311.553	0.03
311.923	0.03
312.292	0.04
312.661	0.04
313.03	0.04
313.399	0.04
313.768	0.04
314.137	0.04
314.506	0.05
314.875	0.05
315.244	0.05
315.613	0.05
315.982	0.05
316.351	0.05
316.72	0.06
317.089	0.06
317.458	0.06
317.826	0.06
318.195	0.06
318.564	0.06
318.933	0.06
319.301	0.06
319.67	0.06
320.038	0.06
320.407	0.06
320.775	0.06
321.144	0.06
321.512	0.06
321.881	0.06
322.249	0.07
322.618	0.07
322.986	0.07
323.354	0.07
323.723	0.07
324.091	0.07
324.459	0.07
324.827	0.07
325.195	0.07
325.564	0.07
325.932	0.07
326.3	0.07
326.668	0.07
327.036	0.08
327.404	0.08
327.772	0.08
328.14	0.08
328.508	0.08
328.875	0.09
329.243	0.09
329.611	0.09
329.979	0.09
330.346	0.09
330.714	0.09
331.082	0.09
331.449	0.09
331.817	0.09
332.185	0.09
332.552	0.1
332.92	0.1
333.287	0.1
333.655	0.1
334.022	0.1
334.389	0.1
334.757	0.11
335.124	0.11
335.491	0.11
335.859	0.11
336.226	0.11
336.593	0.12
336.96	0.12
337.327	0.12
337.695	0.13
338.062	0.13
338.429	0.13
338.796	0.13
339.163	0.13
339.53	0.14
339.897	0.14
340.263	0.14
340.63	0.14
340.997	0.14
341.364	0.15
341.731	0.15
342.097	0.15
342.464	0.15
342.831	0.16
343.197	0.16
343.564	0.16
343.931	0.17
344.297	0.17
344.664	0.17
345.03	0.17
345.396	0.18
345.763	0.18
346.129	0.18
346.496	0.19
346.862	0.19
347.228	0.19
347.594	0.2
347.961	0.2
348.327	0.2
348.693	0.2
349.059	0.21
349.425	0.21
349.791	0.21
350.157	0.21
350.523	0.21
350.889	0.22
351.255	0.22
351.621	0.23
351.987	0.23
352.353	0.23
352.719	0.23
353.084	0.24
353.45	0.24
353.816	0.24
354.181	0.25
354.547	0.25
354.913	0.25
355.278	0.26
355.644	0.26
356.009	0.26
356.375	0.27
356.74	0.27
357.106	0.28
357.471	0.28
357.836	0.28
358.202	0.29
358.567	0.29
358.932	0.3
359.297	0.3
359.663	0.3
360.028	0.31
360.393	0.31
360.758	0.32
361.123	0.33
361.488	0.33
361.853	0.34
362.218	0.34
362.583	0.34
362.948	0.35
363.312	0.35
363.677	0.36
364.042	0.36
364.407	0.36
364.772	0.37
365.136	0.37
365.501	0.38
365.865	0.38
366.23	0.39
366.595	0.39
366.959	0.39
367.324	0.4
367.688	0.4
368.052	0.41
368.417	0.41
368.781	0.42
369.145	0.42
369.51	0.43
369.874	0.43
370.238	0.43
370.602	0.44
370.967	0.44
371.331	0.44
371.695	0.44
372.059	0.45
372.423	0.45
372.787	0.45
373.151	0.45
373.515	0.45
373.878	0.45
374.242	0.45
374.606	0.44
374.97	0.44
375.334	0.44
375.697	0.44
376.061	0.43
376.425	0.43
376.788	0.43
377.152	0.42
377.515	0.42
377.879	0.42
378.242	0.41
378.606	0.4
378.969	0.4
379.333	0.4
379.696	0.39
380.059	0.39
380.422	0.39
380.786	0.38
381.149	0.38
381.512	0.38
381.875	0.38
382.238	0.38
382.601	0.38
382.964	0.37
383.327	0.37
383.69	0.37
384.053	0.37
384.416	0.37
384.779	0.37
385.142	0.37
385.504	0.37
385.867	0.37
386.23	0.37
386.593	0.37
386.955	0.37
387.318	0.37
387.68	0.37
388.043	0.38
388.405	0.38
388.768	0.38
389.13	0.38
389.493	0.38
389.855	0.38
390.217	0.38
390.58	0.38
390.942	0.38
391.304	0.38
391.666	0.38
392.028	0.37
392.391	0.37
392.753	0.36
393.115	0.36
393.477	0.36
393.839	0.35
394.201	0.35
394.563	0.35
394.924	0.35
395.286	0.35
395.648	0.36
396.01	0.36
396.371	0.37
396.733	0.37
397.095	0.38
397.456	0.39
397.818	0.4
398.18	0.41
398.541	0.42
398.903	0.43
399.264	0.44
399.625	0.46
399.987	0.47
400.348	0.48
400.709	0.48
401.071	0.49
401.432	0.49
401.793	0.5
402.154	0.5
402.515	0.49
402.876	0.49
403.238	0.48
403.599	0.47
403.96	0.45
404.32	0.44
404.681	0.42
405.042	0.4
405.403	0.38
405.764	0.37
406.125	0.35
406.485	0.33
406.846	0.31
407.207	0.29
407.567	0.28
407.928	0.26
408.288	0.25
408.649	0.23
409.009	0.22
409.37	0.2
409.73	0.19
410.091	0.18
410.451	0.17
410.811	0.16
411.171	0.15
411.532	0.15
411.892	0.14
412.252	0.13
412.612	0.12
412.972	0.12
413.332	0.11
413.692	0.11
414.052	0.1
414.412	0.1
414.772	0.09
415.132	0.09
415.492	0.08
415.851	0.08
416.211	0.08
416.571	0.08
416.931	0.07
417.29	0.07
417.65	0.07
418.009	0.07
418.369	0.06
418.728	0.06
419.088	0.06
419.447	0.06
419.807	0.06
420.166	0.05
420.525	0.05
420.884	0.05
421.244	0.05
421.603	0.05
421.962	0.05
422.321	0.04
422.68	0.04
423.039	0.04
423.398	0.04
423.757	0.04
424.116	0.04
424.475	0.04
424.834	0.04
425.193	0.04
425.551	0.04
425.91	0.04
426.269	0.04
426.628	0.04
426.986	0.04
427.345	0.03
427.703	0.04
428.062	0.03
428.42	0.03
428.779	0.03
429.137	0.03
429.496	0.04
429.854	0.04
430.212	0.03
430.57	0.04
430.929	0.04
431.287	0.03
431.645	0.03
432.003	0.03
432.361	0.03
432.719	0.03
433.077	0.03
433.435	0.03
433.793	0.03
434.151	0.03
434.509	0.03
434.866	0.03
435.224	0.03
435.582	0.03
435.94	0.03
436.297	0.03
436.655	0.03
437.012	0.03
437.37	0.03
437.727	0.03
438.085	0.03
438.442	0.03
438.8	0.03
439.157	0.03
439.514	0.03
439.872	0.03
440.229	0.03
440.586	0.03
440.943	0.03
441.3	0.03
441.657	0.03
442.014	0.03
442.371	0.03
442.728	0.03
443.085	0.03
443.442	0.03
443.799	0.03
444.156	0.03
444.513	0.03
444.869	0.02
445.226	0.02
445.583	0.02
445.939	0.02
446.296	0.02
446.652	0.02
447.009	0.02
447.365	0.02
447.722	0.02
448.078	0.02
448.434	0.02
448.791	0.02
449.147	0.02
449.503	0.02
449.859	0.02
450.215	0.02
450.571	0.02
450.928	0.02
451.284	0.02
451.64	0.02
451.995	0.02
452.351	0.02
452.707	0.02
453.063	0.02
453.419	0.02
453.775	0.02
454.13	0.02
454.486	0.02
454.842	0.02
455.197	0.01
455.553	0.01
455.908	0.01
456.264	0.01
456.619	0.01
456.975	0.01
457.33	0.01
457.685	0.01
458.04	0.01
458.396	0
458.751	0
459.106	0
459.461	0
459.816	-0
460.171	-0
460.526	-0
460.881	-0.01
461.236	-0
461.591	-0.01
461.946	-0.01
462.301	-0.01
462.655	-0.01
463.01	-0.01
463.365	-0.01
463.719	-0.01
464.074	-0.01
464.428	-0.01
464.783	-0.02
465.137	-0.02
465.492	-0.02
465.846	-0.02
466.201	-0.02
466.555	-0.02
466.909	-0.02
467.263	-0.01
467.618	-0.01
467.972	-0.01
468.326	-0.01
468.68	-0.02
469.034	-0.02
469.388	-0.02
469.742	-0.02
470.096	-0.02
470.45	-0.02
470.804	-0.02
471.157	-0.02
471.511	-0.01
471.865	-0.01
472.218	-0.01
472.572	-0.01
472.926	-0.01
473.279	-0.01
473.633	-0.01
473.986	-0.01
474.34	-0
474.693	-0
475.046	0
475.4	0.01
475.753	0.01
476.106	0.01
476.459	0.01
476.812	0.02
477.165	0.02
477.519	0.02
477.872	0.02
478.224	0.03
478.577	0.03
478.93	0.03
479.283	0.03
479.636	0.04
479.989	0.04
480.341	0.04
480.694	0.04
481.047	0.04
481.399	0.04
481.752	0.04
482.104	0.04
482.457	0.04
482.809	0.05
483.162	0.05
483.514	0.05
483.866	0.05
484.219	0.05
484.571	0.06
484.923	0.06
485.275	0.06
485.627	0.06
485.979	0.06
486.331	0.06
486.683	0.06
487.035	0.06
487.387	0.07
487.739	0.07
488.091	0.07
488.443	0.07
488.794	0.07
489.146	0.07
489.498	0.08
489.849	0.08
490.201	0.08
490.552	0.08
490.904	0.08
491.255	0.08
491.607	0.08
491.958	0.08
492.309	0.08
492.661	0.08
493.012	0.08
493.363	0.09
493.714	0.09
494.065	0.09
494.416	0.09
494.767	0.09
495.118	0.09
495.469	0.09
495.82	0.09
496.171	0.1
496.522	0.1
496.872	0.1
497.223	0.1
497.574	0.1
497.924	0.1
498.275	0.1
498.626	0.1
498.976	0.1
499.327	0.1
499.677	0.1
500.027	0.1
500.378	0.1
500.728	0.11
501.078	0.11
501.428	0.11
501.779	0.11
502.129	0.11
502.479	0.11
502.829	0.11
503.179	0.11
503.529	0.11
503.879	0.11
504.229	0.12
504.578	0.12
504.928	0.12
505.278	0.12
505.628	0.12
505.977	0.12
506.327	0.12
506.676	0.13
507.026	0.13
507.375	0.13
507.725	0.13
508.074	0.13
508.424	0.13
508.773	0.13
509.122	0.13
509.471	0.13
509.82	0.13
510.17	0.13
510.519	0.13
510.868	0.13
511.217	0.14
511.566	0.14
511.915	0.14
512.263	0.14
512.612	0.14
512.961	0.14
513.31	0.14
513.659	0.14
514.007	0.14
514.356	0.14
514.704	0.15
515.053	0.14
515.401	0.15
515.75	0.15
516.098	0.15
516.447	0.15
516.795	0.15
517.143	0.15
517.491	0.15
517.839	0.15
518.188	0.15
518.536	0.15
518.884	0.15
519.232	0.16
519.58	0.16
519.928	0.16
520.275	0.16
520.623	0.16
520.971	0.16
521.319	0.16
521.666	0.16
522.014	0.16
522.362	0.16
522.709	0.16
523.057	0.16
523.404	0.16
523.752	0.16
524.099	0.16
524.446	0.16
524.794	0.16
525.141	0.16
525.488	0.17
525.835	0.17
526.182	0.17
526.529	0.17
526.876	0.17
527.223	0.17
527.57	0.17
527.917	0.17
528.264	0.17
528.611	0.17
528.958	0.17
529.304	0.17
529.651	0.17
529.998	0.17
530.344	0.18
530.691	0.18
531.037	0.18
531.384	0.18
531.73	0.18
532.076	0.18
532.423	0.18
532.769	0.18
533.115	0.18
533.461	0.18
533.807	0.18
534.154	0.18
534.5	0.18
534.846	0.18
535.192	0.18
535.537	0.18
535.883	0.18
536.229	0.18
536.575	0.18
536.921	0.19
537.266	0.19
537.612	0.19
537.957	0.19
538.303	0.19
538.649	0.19
538.994	0.19
539.339	0.19
539.685	0.19
540.03	0.19
540.375	0.19
540.721	0.19
541.066	0.19
541.411	0.19
541.756	0.19
542.101	0.19
542.446	0.19
542.791	0.19
543.136	0.2
543.481	0.2
543.825	0.2
544.17	0.2
544.515	0.19
544.86	0.19
545.204	0.19
545.549	0.19
545.893	0.2
546.238	0.2
546.582	0.2
546.927	0.2
547.271	0.2
547.615	0.2
547.96	0.2
548.304	0.2
548.648	0.2
548.992	0.2
549.336	0.2
549.68	0.2
550.024	0.2
550.368	0.21
550.712	0.21
551.056	0.21
551.4	0.21
551.743	0.21
552.087	0.21
552.431	0.21
552.774	0.21
553.118	0.21
553.462	0.21
553.805	0.21
554.148	0.21
554.492	0.21
554.835	0.21
555.178	0.21
555.522	0.21
555.865	0.21
556.208	0.21
556.551	0.21
556.894	0.21
557.237	0.21
557.58	0.21
557.923	0.21
558.266	0.21
558.609	0.21
558.952	0.21
559.294	0.21
559.637	0.21
559.98	0.21
560.322	0.21
560.665	0.21
561.007	0.21
561.35	0.21
561.692	0.21
562.034	0.21
562.377	0.21
562.719	0.21
563.061	0.21
563.403	0.21
563.745	0.21
564.088	0.21
564.43	0.21
564.772	0.21
565.113	0.21
565.455	0.21
565.797	0.21
566.139	0.21
566.481	0.21
566.822	0.21
567.164	0.21
567.506	0.21
567.847	0.21
568.189	0.21
568.53	0.21
568.872	0.21
569.213	0.21
569.554	0.21
569.895	0.21
570.237	0.21
570.578	0.2
570.919	0.2
571.26	0.2
571.601	0.2
571.942	0.2
572.283	0.2
572.624	0.2
572.965	0.2
573.306	0.2
573.646	0.2
573.987	0.2
574.328	0.2
574.668	0.2
575.009	0.2
575.349	0.2
575.69	0.19
576.03	0.19
576.37	0.19
576.711	0.19
577.051	0.19
577.391	0.19
577.731	0.19
578.072	0.19
578.412	0.19
578.752	0.19
579.092	0.18
579.431	0.17
579.771	0.17
580.111	0.17
580.451	0.17
580.791	0.17
581.13	0.17
581.47	0.18
581.81	0.18
582.149	0.18
582.489	0.17
582.828	0.16
583.167	0.15
583.507	0.14
583.846	0.14
584.185	0.14
584.525	0.15
584.864	0.15
585.203	0.17
585.542	0.18
585.881	0.18
586.22	0.18
586.559	0.18
586.898	0.17
587.236	0.17
587.575	0.17
587.914	0.17
588.252	0.17
588.591	0.17
588.93	0.18
589.268	0.18
589.607	0.18
589.945	0.18
590.283	0.18
590.622	0.19
590.96	0.19
591.298	0.19
591.636	0.19
591.974	0.19
592.313	0.2
592.651	0.2
592.989	0.2
593.326	0.2
593.664	0.19
594.002	0.19
594.34	0.19
594.678	0.19
595.015	0.19
595.353	0.18
595.691	0.19
596.028	0.19
596.366	0.19
596.703	0.19
597.04	0.19
597.378	0.2
597.715	0.2
598.052	0.2
598.389	0.2
598.726	0.2
599.064	0.2
599.401	0.2
599.738	0.2
600.074	0.19
600.411	0.19
600.748	0.19
601.085	0.19
601.422	0.19
601.758	0.19
602.095	0.19
602.432	0.19
602.768	0.19
603.105	0.19
603.441	0.19
603.777	0.19
604.114	0.2
604.45	0.2
604.786	0.2
605.122	0.2
605.459	0.2
605.795	0.2
606.131	0.2
606.467	0.2
606.803	0.2
607.139	0.2
607.474	0.2
607.81	0.2
608.146	0.19
608.482	0.19
608.817	0.19
609.153	0.19
609.488	0.19
609.824	0.19
610.159	0.19
610.495	0.19
610.83	0.19
611.165	0.19
611.5	0.19
611.836	0.19
612.171	0.19
612.506	0.19
612.841	0.19
613.176	0.19
613.511	0.19
613.845	0.19
614.18	0.19
614.515	0.19
614.85	0.19
615.184	0.19
615.519	0.19
615.854	0.19
616.188	0.19
616.523	0.18
616.857	0.18
617.191	0.18
617.526	0.18
617.86	0.18
618.194	0.18
618.528	0.18
618.862	0.18
619.196	0.18
619.53	0.18
619.864	0.18
620.198	0.18
620.532	0.18
620.866	0.18
621.2	0.18
621.533	0.18
621.867	0.18
622.201	0.18
622.534	0.18
622.868	0.17
623.201	0.17
623.534	0.17
623.868	0.17
624.201	0.17
624.534	0.17
624.868	0.17
625.201	0.17
625.534	0.17
625.867	0.17
626.2	0.17
626.533	0.17
626.865	0.16
627.198	0.16
627.531	0.16
627.864	0.16
628.196	0.16
628.529	0.16
628.862	0.16
629.194	0.16
629.527	0.16
629.859	0.16
630.191	0.16
630.524	0.16
630.856	0.16
631.188	0.16
631.52	0.15
631.852	0.15
632.184	0.15
632.516	0.15
632.848	0.15
633.18	0.15
633.512	0.15
633.844	0.15
634.175	0.15
634.507	0.15
634.839	0.15
635.17	0.14
635.502	0.14
635.833	0.14
636.165	0.14
636.496	0.14
636.827	0.14
637.159	0.14
637.49	0.14
637.821	0.14
638.152	0.14
638.483	0.14
638.814	0.13
639.145	0.13
639.476	0.13
639.807	0.13
640.137	0.13
640.468	0.13
640.799	0.12
641.129	0.12
641.46	0.12
641.791	0.12
642.121	0.12
642.451	0.12
642.782	0.12
643.112	0.12
643.442	0.12
643.773	0.12
644.103	0.12
644.433	0.12
644.763	0.12
645.093	0.12
645.423	0.12
645.753	0.11
646.082	0.11
646.412	0.11
646.742	0.11
647.072	0.11
647.401	0.11
647.731	0.11
648.06	0.11
648.39	0.11
648.719	0.11
649.048	0.11
649.378	0.1
649.707	0.1
650.036	0.1
650.365	0.11
650.694	0.1
651.023	0.11
651.352	0.11
651.681	0.1
652.01	0.1
652.339	0.1
652.668	0.1
652.996	0.1
653.325	0.1
653.654	0.1
653.982	0.1
654.311	0.1
654.639	0.1
654.967	0.1
655.296	0.1
655.624	0.1
655.952	0.1
656.28	0.1
656.609	0.1
656.937	0.08
657.265	0.06
657.593	0.04
657.92	0.03
658.248	0.02
658.576	0.02
658.904	0.03
659.231	0.04
659.559	0.05
659.887	0.07
660.214	0.08
660.542	0.1
660.869	0.1
661.196	0.1
661.524	0.1
661.851	0.1
662.178	0.1
662.505	0.1
662.832	0.1
663.159	0.1
663.486	0.1
663.813	0.1
664.14	0.1
664.467	0.1
664.794	0.09
665.12	0.09
665.447	0.09
665.774	0.09
666.1	0.09
666.427	0.09
666.753	0.09
667.079	0.09
667.406	0.09
667.732	0.09
668.058	0.09
668.384	0.09
668.71	0.09
669.036	0.09
669.362	0.09
669.688	0.09
670.014	0.09
670.34	0.09
670.666	0.09
670.991	0.09
671.317	0.09
671.643	0.08
671.968	0.08
672.294	0.08
672.619	0.08
672.945	0.08
673.27	0.08
673.595	0.08
673.92	0.08
674.246	0.08
674.571	0.08
674.896	0.08
675.221	0.08
675.546	0.07
675.87	0.07
676.195	0.07
676.52	0.07
676.845	0.07
677.169	0.07
677.494	0.07
677.819	0.07
678.143	0.07
678.468	0.07
678.792	0.07
679.116	0.07
679.44	0.07
679.765	0.07
680.089	0.06
680.413	0.06
680.737	0.06
681.061	0.06
681.385	0.06
681.709	0.06
682.033	0.06
682.356	0.06
682.68	0.06
683.004	0.06
683.327	0.06
683.651	0.06
683.974	0.06
684.298	0.06
684.621	0.06
684.944	0.05
685.268	0.05
685.591	0.05
685.914	0.05
686.237	0.05
686.56	0.05
686.883	0.05
687.206	0.04
687.529	0.04
687.852	0.04
688.175	0.04
688.497	0.04
688.82	0.04
689.142	0.04
689.465	0.04
689.787	0.04
690.11	0.04
690.432	0.04
690.755	0.04
691.077	0.04
691.399	0.04
691.721	0.04
692.043	0.04
692.365	0.04
692.687	0.04
693.009	0.03
693.331	0.03
693.653	0.03
693.974	0.03
694.296	0.03
694.618	0.03
694.939	0.03
695.261	0.03
695.582	0.03
695.904	0.03
696.225	0.03
696.546	0.03
696.868	0.03
697.189	0.03
697.51	0.03
697.831	0.02
698.152	0.02
698.473	0.02
698.794	0.02
699.114	0.02
699.435	0.02
699.756	0.02
700.077	0.02
700.397	0.02
700.718	0.02
701.038	0.02
701.359	0.02
701.679	0.02
701.999	0.02
702.32	0.02
702.64	0.02
702.96	0.02
703.28	0.02
703.6	0.02
703.92	0.02
704.24	0.02
704.56	0.02
704.879	0.02
705.199	0.02
705.519	0.02
705.838	0.02
706.158	0.02
706.478	0.02
706.797	0.02
707.116	0.02
707.436	0.02
707.755	0.02
708.074	0.02
708.393	0.01
708.712	0.01
709.031	0.01
709.35	0.01
709.669	0.01
709.988	0.01
710.307	0.01
710.626	0.01
710.944	0.01
711.263	0.01
711.582	0.01
711.9	0.01
712.219	0.01
712.537	0.01
712.855	0.01
713.174	0.01
713.492	0.01
713.81	0.01
714.128	0.01
714.446	0.01
714.764	0.01
715.082	0.01
715.4	0.01
715.718	0.01
716.035	0.01
716.353	0.01
716.671	0.01
716.988	0.01
717.306	0.01
717.623	0.02
717.941	0.02
718.258	0.02
718.575	0.02
718.893	0.02
719.21	0.02
719.527	0.02
719.844	0.02
720.161	0.02
720.478	0.02
720.795	0.02
721.112	0.02
721.428	0.02
721.745	0.02
722.062	0.02
722.378	0.02
722.695	0.02
723.011	0.02
723.328	0.02
723.644	0.02
723.96	0.02
724.276	0.02
724.593	0.02
724.909	0.02
725.225	0.02
725.541	0.02
725.857	0.02
726.173	0.02
726.488	0.02
726.804	0.02
727.12	0.02
727.435	0.02
727.751	0.02
728.067	0.02
728.382	0.02
728.697	0.02
729.013	0.02
729.328	0.02
729.643	0.02
729.958	0.02
730.273	0.02
730.588	0.02
730.903	0.02
731.218	0.02
731.533	0.02
731.848	0.02
732.163	0.02
732.477	0.02
732.792	0.02
733.107	0.02
733.421	0.02
733.736	0.02
734.05	0.02
734.364	0.02
734.678	0.02
734.993	0.02
735.307	0.02
735.621	0.02
735.935	0.02
736.249	0.02
736.563	0.02
736.877	0.02
737.19	0.02
737.504	0.02
737.818	0.02
738.131	0.02
738.445	0.02
738.758	0.02
739.072	0.02
739.385	0.02
739.698	0.02
740.012	0.02
740.325	0.02
740.638	0.02
740.951	0.02
741.264	0.02
741.577	0.02
741.89	0.02
742.203	0.02
742.515	0.02
742.828	0.02
743.141	0.02
743.453	0.02
743.766	0.02
744.078	0.02
744.391	0.02
744.703	0.02
745.015	0.02
745.327	0.02
745.639	0.02
745.952	0.01
746.264	0.01
746.575	0.01
746.887	0.01
747.199	0.01
747.511	0.01
747.823	0.01
748.134	0.01
748.446	0.01
748.757	0.01
749.069	0.01
749.38	0.01
749.692	0.01
750.003	0.01
750.314	0.01
750.625	0.01
750.936	0.01
751.248	0.01
751.559	0.01
751.869	0.01
752.18	0.01
752.491	0.01
752.802	0.01
753.112	0.01
753.423	0.01
753.734	0.01
754.044	0.01
754.355	0.01
754.665	0.01
754.975	0.01
755.285	0.01
755.596	0.01
755.906	0.01
756.216	0.01
756.526	0.01
756.836	0.01
757.146	0.01
757.455	0.01
757.765	0.01
758.075	0.01
758.385	0.01
758.694	0.01
759.004	0
759.313	0
759.622	0
759.932	0
760.241	0
760.55	0
760.859	0
761.168	0
761.477	0
761.786	0
762.095	0
762.404	0
762.713	0
763.021	0
763.33	0.01
763.639	0.01
763.947	0.01
764.256	0.01
764.564	0.01
764.872	0
765.181	0
765.489	0
765.797	0
766.105	0
766.413	0
766.721	0
767.029	0.01
767.337	0.01
767.644	0.01
767.952	0.01
768.26	0.01
768.567	0.01
768.875	0.01
769.182	0.01
769.49	0.01
769.797	0.01
770.104	0.01
770.411	0.01
770.718	0.01
771.026	0.01
771.333	0.01
771.639	0.01
771.946	0.01
772.253	0.01
772.56	0.01
772.867	0.01
773.173	0.01
773.48	0.01
773.786	0.01
774.093	0.01
774.399	0.01
774.705	0.01
775.012	0.01
775.318	0.01
775.624	0.01
775.93	0.01
776.236	0.01
776.542	0.01
776.848	0.01
777.154	0.01
777.459	0.01
777.765	0.01
778.071	0.01
778.376	0.01
778.682	0.01
778.987	0.01
779.292	0.01
779.598	0.01
779.903	0.01
780.208	0.01
780.513	0.01
780.818	0.01
781.123	0.01
781.428	0
781.733	0
782.038	0
782.343	0
782.647	0
782.952	0
783.256	0
783.561	0
783.865	0
784.17	0
784.474	0
784.778	0
785.082	0
785.386	0
785.69	0
785.994	0
786.298	0
786.602	0
786.906	-0
787.209	-0
787.513	-0
787.817	-0
788.12	-0
788.424	-0
788.727	-0
789.03	-0
789.333	-0
789.637	0
789.94	0
790.243	0
790.546	0
790.849	0
791.152	0
791.454	0
791.757	0
792.06	0
792.362	0
792.665	0
792.967	0
793.27	0
793.572	0
793.874	0
794.177	0
794.479	0
794.781	0
795.083	0
795.385	0
795.687	0
795.989	0.01
796.29	0.01
796.592	0.01
796.894	0.01
797.195	0.01
797.497	0.01
797.798	0.01
798.1	0.01
798.401	0.01
798.702	0.01
799.003	0.01
799.304	0.01
799.605	0.01
799.906	0.01
800.207	0.01
800.508	0.01
800.809	0.01
801.11	0.01
801.41	0.01
801.711	0.01
802.011	0
802.312	0
802.612	0
802.913	0
803.213	0
803.513	0
803.813	0
804.113	0
804.413	0
804.713	0
805.013	0
805.313	0
805.613	-0
805.912	-0
806.212	-0
806.511	-0
806.811	-0
807.11	-0
807.41	-0
807.709	-0
808.008	-0
808.307	-0
808.606	0
808.905	0
809.204	0
809.503	0.01
809.802	0.01
810.101	0.01
810.399	0.01
810.698	0.01
810.997	0.01
811.295	0.01
811.593	0.01
811.892	0.01
812.19	0
812.488	0
812.786	0.01
813.084	0.01
813.383	0.01
813.68	0.01
813.978	0.01
814.276	0.01
814.574	0.01
814.872	0.01
815.169	0.01
815.467	0.01
815.764	0.01
816.062	0.01
816.359	0.01
816.656	0.01
816.954	0.01
817.251	0.01
817.548	0.01
817.845	0.01
818.142	0.01
818.439	0.01
818.735	0.01
819.032	0.01
819.329	0.01
819.626	0.01
819.922	0.01
820.219	0.01
820.515	0.01
820.811	0.01
821.108	0.01
821.404	0.01
821.7	0.01
821.996	0.01
822.292	0.01
822.588	0.01
822.884	0.01
823.18	0.01
823.475	0.01
823.771	0.01
824.067	0.01
824.362	0
824.658	0.01
824.953	0
825.249	0
825.544	0.01
825.839	0.01
826.134	0.01
826.429	0.01
826.724	0.01
827.019	0.01
827.314	0.01
827.609	0.01
827.904	0.01
828.198	0.01
828.493	0.01
828.787	0.01
829.082	0.01
829.376	0.01
829.671	0.01
829.965	0.01
830.259	0.01
830.553	0.01
830.847	0.01
831.141	0.01
831.435	0.02
831.729	0.02
832.023	0.02
832.317	0.02
832.61	0.02
832.904	0.02
833.197	0.02
833.491	0.01
833.784	0.01
834.077	0.01
834.371	0.01
834.664	0.01
834.957	0.01
835.25	0.02
835.543	0.02
835.836	0.02
836.129	0.02
836.421	0.02
836.714	0.02
837.007	0.02
837.299	0.02
837.592	0.02
837.884	0.02
838.177	0.02
838.469	0.02
838.761	0.01
839.053	0.01
839.345	0.01
839.637	0.01
839.929	0.01
840.221	0.01
840.513	0.01
840.805	0.01
841.096	0.01
841.388	0.01
841.68	0.01
841.971	0.01
842.262	0.01
842.554	0.01
842.845	0.01
843.136	0.01
843.427	0.02
843.718	0.02
844.009	0.02
844.3	0.02
844.591	0.02
844.882	0.02
845.173	0.02
845.463	0.02
845.754	0.02
846.044	0.02
846.335	0.02
846.625	0.02
846.915	0.02
847.206	0.02
847.496	0.02
847.786	0.02
848.076	0.02
848.366	0.02
848.656	0.02
848.945	0.02
849.235	0.02
849.525	0.01
849.814	0.02
850.104	0.01
850.393	0.01
850.683	0.01
850.972	0.01
851.261	0.01
851.551	0.01
851.84	0.01
852.129	0.01
852.418	0.01
852.707	0.01
852.995	0.01
853.284	0.01
853.573	0.01
853.862	0.01
854.15	0.01
854.439	0.01
854.727	0.02
855.015	0.02
855.304	0.02
855.592	0.02
855.88	0.02
856.168	0.02
856.456	0.02
856.744	0.02
857.032	0.02
857.32	0.02
857.607	0.02
857.895	0.02
858.183	0.02
858.47	0.02
858.757	0.02
859.045	0.02
859.332	0.02
859.619	0.02
859.907	0.02
860.194	0.01
860.481	0.01
860.768	0.01
861.054	0.01
861.341	0.01
861.628	0.01
861.915	0.01
862.201	0.02
862.488	0.02
862.774	0.02
863.061	0.02
863.347	0.02
863.633	0.01
863.919	0.01
864.205	-0
864.491	0
864.777	0
865.063	0.01
865.349	0.01
865.635	0.01
865.92	0.02
866.206	0.03
866.492	0.02
866.777	0.02
867.062	0.01
867.348	0.01
867.633	0.01
867.918	-0
868.203	-0.01
868.488	-0.01
868.773	-0.01
869.058	0
869.343	0.01
869.628	0.01
869.912	0.01
870.197	0.02
870.482	0.02
870.766	0.01
871.05	0
871.335	-0
871.619	-0
871.903	-0.01
872.187	-0.02
872.471	-0.02
872.755	-0.02
873.039	-0.01
873.323	-0.01
873.607	-0.01
873.89	0
874.174	0.02
874.458	0.02
874.741	0.01
875.024	0
875.308	0
875.591	0.01
875.874	0
876.157	-0.01
876.44	-0
876.723	0.01
877.006	0.02
877.289	0.03
877.572	0.02
877.854	0.02
878.137	0.02
878.42	-0.01
878.702	-0.03
878.984	-0.04
879.267	-0.05
879.549	-0.03
879.831	-0.05
880.113	-0.05
880.395	-0.03
880.677	-0.02
880.959	-0.02
