Data from Rubpy_BV_EDTA_TU(3000)_Blank_Blue_Flow_Absorbance__1888__13-18-10-835.txt Node

Date: Mon Aug 03 13:18:10 BST 2026
User: fpm-admin
Spectrometer: SR600986
Trigger mode: 0
Integration Time (sec): 8.000000E-3
Scans to average: 3
Nonlinearity correction enabled: true
Boxcar width: 0
Storing dark spectrum: false
XAxis mode: Wavelengths
Number of Pixels in Spectrum: 2048
>>>>>Begin Spectral Data<<<<<
188.613	0.27
189.078	0.28
189.542	0.25
190.007	0.31
190.472	0.27
190.936	0.26
191.401	0.3
191.865	0.28
192.33	0.29
192.794	0.28
193.258	0.25
193.723	0.29
194.187	0.29
194.651	0.28
195.115	0.28
195.579	0.29
196.043	0.28
196.507	0.26
196.971	0.29
197.435	0.29
197.899	0.25
198.363	0.28
198.827	0.27
199.29	0.28
199.754	0.29
200.218	0.27
200.681	0.27
201.145	0.3
201.608	0.28
202.072	0.28
202.535	0.28
202.998	0.27
203.462	0.29
203.925	0.26
204.388	0.26
204.851	0.28
205.314	0.27
205.777	0.28
206.24	0.25
206.703	0.28
207.166	0.25
207.629	0.3
208.092	0.3
208.555	0.26
209.018	0.25
209.48	0.25
209.943	0.26
210.406	0.3
210.868	0.28
211.331	0.26
211.793	0.28
212.256	0.29
212.718	0.27
213.18	0.29
213.643	0.27
214.105	0.27
214.567	0.24
215.029	0.31
215.491	0.26
215.953	0.23
216.415	0.29
216.877	0.26
217.339	0.28
217.801	0.28
218.263	0.24
218.725	0.3
219.186	0.28
219.648	0.25
220.11	0.27
220.571	0.27
221.033	0.29
221.494	0.29
221.956	0.27
222.417	0.24
222.878	0.27
223.34	0.26
223.801	0.29
224.262	0.27
224.723	0.25
225.185	0.28
225.646	0.26
226.107	0.28
226.568	0.25
227.029	0.29
227.489	0.27
227.95	0.29
228.411	0.27
228.872	0.27
229.332	0.26
229.793	0.26
230.254	0.28
230.714	0.29
231.175	0.26
231.635	0.26
232.096	0.27
232.556	0.28
233.016	0.26
233.477	0.28
233.937	0.25
234.397	0.26
234.857	0.27
235.317	0.26
235.777	0.28
236.237	0.26
236.697	0.3
237.157	0.26
237.617	0.24
238.077	0.26
238.537	0.29
238.996	0.23
239.456	0.26
239.916	0.29
240.375	0.26
240.835	0.27
241.294	0.26
241.754	0.28
242.213	0.26
242.672	0.27
243.132	0.26
243.591	0.31
244.05	0.27
244.509	0.25
244.968	0.28
245.427	0.26
245.886	0.31
246.345	0.26
246.804	0.31
247.263	0.27
247.722	0.28
248.181	0.26
248.639	0.26
249.098	0.27
249.557	0.29
250.015	0.28
250.474	0.23
250.932	0.31
251.391	0.25
251.849	0.29
252.308	0.28
252.766	0.24
253.224	0.28
253.682	0.27
254.14	0.24
254.599	0.27
255.057	0.3
255.515	0.25
255.973	0.31
256.431	0.29
256.888	0.23
257.346	0.28
257.804	0.25
258.262	0.29
258.719	0.29
259.177	0.26
259.635	0.27
260.092	0.29
260.55	0.28
261.007	0.25
261.465	0.27
261.922	0.31
262.379	0.24
262.836	0.28
263.294	0.3
263.751	0.25
264.208	0.28
264.665	0.26
265.122	0.3
265.579	0.27
266.036	0.29
266.493	0.26
266.95	0.3
267.406	0.28
267.863	0.28
268.32	0.29
268.777	0.25
269.233	0.27
269.69	0.28
270.146	0.28
270.603	0.28
271.059	0.26
271.515	0.28
271.972	0.29
272.428	0.24
272.884	0.29
273.34	0.31
273.796	0.23
274.253	0.26
274.709	0.29
275.165	0.31
275.62	0.29
276.076	0.25
276.532	0.28
276.988	0.26
277.444	0.29
277.899	0.27
278.355	0.29
278.811	0.28
279.266	0.25
279.722	0.27
280.177	0.26
280.633	0.25
281.088	0.28
281.543	0.28
281.998	0.29
282.454	0.24
282.909	0.27
283.364	0.27
283.819	0.3
284.274	0.26
284.729	0.26
285.184	0.29
285.639	0.27
286.094	0.29
286.548	0.28
287.003	0.26
287.458	0.29
287.913	0.25
288.367	0.28
288.822	0.29
289.276	0.28
289.731	0.27
290.185	0.28
290.639	0.28
291.094	0.26
291.548	0.29
292.002	0.3
292.456	0.28
292.91	0.3
293.365	0.24
293.819	0.31
294.273	0.27
294.726	0.3
295.18	0.27
295.634	0.28
296.088	0.27
296.542	0.27
296.995	0.28
297.449	0.29
297.903	0.25
298.356	0.25
298.81	0.24
299.263	0.31
299.716	0.27
300.17	0.31
300.623	0.26
301.076	0.3
301.53	0.28
301.983	0.29
302.436	0.28
302.889	0.28
303.342	0.27
303.795	0.26
304.248	0.32
304.701	0.3
305.153	0.25
305.606	0.27
306.059	0.27
306.512	0.27
306.964	0.31
307.417	0.26
307.869	0.27
308.322	0.33
308.774	0.29
309.227	0.26
309.679	0.3
310.131	0.28
310.584	0.29
311.036	0.25
311.488	0.29
311.94	0.3
312.392	0.29
312.844	0.29
313.296	0.29
313.748	0.3
314.2	0.34
314.652	0.29
315.103	0.3
315.555	0.3
316.007	0.32
316.458	0.31
316.91	0.31
317.361	0.27
317.813	0.33
318.264	0.31
318.716	0.3
319.167	0.35
319.618	0.34
320.07	0.31
320.521	0.33
320.972	0.38
321.423	0.35
321.874	0.35
322.325	0.38
322.776	0.39
323.227	0.4
323.678	0.37
324.128	0.39
324.579	0.43
325.03	0.4
325.48	0.44
325.931	0.45
326.382	0.43
326.832	0.46
327.283	0.48
327.733	0.48
328.183	0.48
328.634	0.54
329.084	0.54
329.534	0.58
329.984	0.57
330.434	0.56
330.884	0.63
331.334	0.62
331.784	0.64
332.234	0.67
332.684	0.67
333.134	0.69
333.584	0.71
334.034	0.73
334.483	0.74
334.933	0.76
335.382	0.78
335.832	0.79
336.281	0.8
336.731	0.84
337.18	0.84
337.63	0.88
338.079	0.88
338.528	0.91
338.977	0.9
339.426	0.96
339.876	0.96
340.325	0.97
340.774	0.98
341.223	0.99
341.671	1.01
342.12	1.04
342.569	1.03
343.018	1.06
343.467	1.07
343.915	1.1
344.364	1.1
344.812	1.14
345.261	1.13
345.709	1.14
346.158	1.2
346.606	1.18
347.054	1.18
347.503	1.2
347.951	1.22
348.399	1.21
348.847	1.24
349.295	1.24
349.743	1.23
350.191	1.28
350.639	1.26
351.087	1.26
351.535	1.3
351.983	1.28
352.43	1.29
352.878	1.29
353.326	1.35
353.773	1.31
354.221	1.36
354.668	1.34
355.116	1.37
355.563	1.36
356.01	1.38
356.458	1.38
356.905	1.41
357.352	1.41
357.799	1.4
358.246	1.45
358.693	1.43
359.14	1.45
359.587	1.46
360.034	1.47
360.481	1.5
360.928	1.47
361.375	1.52
361.821	1.53
362.268	1.54
362.714	1.56
363.161	1.57
363.608	1.53
364.054	1.58
364.5	1.6
364.947	1.55
365.393	1.59
365.839	1.63
366.285	1.59
366.732	1.61
367.178	1.61
367.624	1.63
368.07	1.65
368.516	1.61
368.962	1.65
369.408	1.63
369.853	1.63
370.299	1.63
370.745	1.59
371.19	1.61
371.636	1.59
372.082	1.64
372.527	1.6
372.973	1.64
373.418	1.61
373.863	1.63
374.309	1.57
374.754	1.64
375.199	1.63
375.644	1.59
376.09	1.6
376.535	1.61
376.98	1.6
377.425	1.55
377.87	1.59
378.314	1.56
378.759	1.55
379.204	1.55
379.649	1.55
380.093	1.49
380.538	1.47
380.983	1.48
381.427	1.45
381.872	1.41
382.316	1.44
382.76	1.39
383.205	1.36
383.649	1.33
384.093	1.31
384.537	1.29
384.982	1.28
385.426	1.23
385.87	1.2
386.314	1.19
386.758	1.16
387.201	1.14
387.645	1.13
388.089	1.1
388.533	1.06
388.976	1.05
389.42	1.04
389.864	1
390.307	0.98
390.751	0.96
391.194	0.93
391.638	0.92
392.081	0.91
392.524	0.88
392.967	0.88
393.411	0.85
393.854	0.85
394.297	0.84
394.74	0.82
395.183	0.81
395.626	0.8
396.069	0.8
396.512	0.78
396.954	0.79
397.397	0.79
397.84	0.79
398.282	0.78
398.725	0.8
399.168	0.79
399.61	0.78
400.052	0.77
400.495	0.76
400.937	0.76
401.38	0.73
401.822	0.72
402.264	0.71
402.706	0.7
403.148	0.68
403.59	0.65
404.032	0.65
404.474	0.62
404.916	0.59
405.358	0.58
405.8	0.56
406.241	0.53
406.683	0.51
407.125	0.5
407.566	0.48
408.008	0.46
408.449	0.46
408.891	0.43
409.332	0.42
409.774	0.4
410.215	0.38
410.656	0.37
411.097	0.36
411.539	0.34
411.98	0.34
412.421	0.32
412.862	0.31
413.303	0.29
413.744	0.31
414.184	0.28
414.625	0.29
415.066	0.27
415.507	0.26
415.947	0.28
416.388	0.26
416.828	0.24
417.269	0.25
417.709	0.25
418.15	0.25
418.59	0.24
419.03	0.25
419.471	0.23
419.911	0.23
420.351	0.23
420.791	0.23
421.231	0.23
421.671	0.22
422.111	0.22
422.551	0.21
422.991	0.23
423.431	0.23
423.87	0.22
424.31	0.22
424.75	0.22
425.189	0.23
425.629	0.21
426.068	0.24
426.508	0.2
426.947	0.22
427.386	0.22
427.826	0.22
428.265	0.23
428.704	0.22
429.143	0.22
429.582	0.21
430.021	0.23
430.46	0.23
430.899	0.22
431.338	0.21
431.777	0.23
432.216	0.21
432.655	0.22
433.093	0.23
433.532	0.23
433.971	0.22
434.409	0.22
434.848	0.22
435.286	0.22
435.724	0.23
436.163	0.24
436.601	0.24
437.039	0.25
437.477	0.22
437.916	0.26
438.354	0.24
438.792	0.23
439.23	0.24
439.668	0.25
440.105	0.22
440.543	0.23
440.981	0.25
441.419	0.23
441.856	0.25
442.294	0.25
442.732	0.24
443.169	0.26
443.607	0.23
444.044	0.27
444.481	0.28
444.919	0.24
445.356	0.27
445.793	0.28
446.23	0.27
446.668	0.26
447.105	0.25
447.542	0.27
447.979	0.27
448.416	0.29
448.852	0.28
449.289	0.28
449.726	0.28
450.163	0.28
450.599	0.27
451.036	0.27
451.473	0.3
451.909	0.28
452.346	0.27
452.782	0.27
453.218	0.28
453.655	0.26
454.091	0.27
454.527	0.3
454.963	0.27
455.399	0.29
455.835	0.32
456.271	0.27
456.707	0.3
457.143	0.29
457.579	0.3
458.015	0.3
458.451	0.28
458.886	0.31
459.322	0.31
459.758	0.28
460.193	0.34
460.629	0.3
461.064	0.31
461.5	0.33
461.935	0.29
462.37	0.34
462.805	0.32
463.241	0.33
463.676	0.32
464.111	0.31
464.546	0.37
464.981	0.34
465.416	0.34
465.851	0.35
466.286	0.36
466.72	0.35
467.155	0.37
467.59	0.37
468.024	0.39
468.459	0.38
468.893	0.38
469.328	0.39
469.762	0.4
470.197	0.4
470.631	0.4
471.065	0.4
471.5	0.4
471.934	0.44
472.368	0.42
472.802	0.43
473.236	0.45
473.67	0.46
474.104	0.46
474.538	0.48
474.972	0.48
475.405	0.48
475.839	0.5
476.273	0.51
476.706	0.49
477.14	0.53
477.573	0.52
478.007	0.53
478.44	0.54
478.874	0.54
479.307	0.55
479.74	0.56
480.173	0.58
480.606	0.58
481.04	0.58
481.473	0.6
481.906	0.59
482.339	0.61
482.771	0.62
483.204	0.62
483.637	0.62
484.07	0.63
484.502	0.65
484.935	0.65
485.368	0.66
485.8	0.67
486.233	0.68
486.665	0.68
487.098	0.68
487.53	0.69
487.962	0.7
488.394	0.7
488.827	0.71
489.259	0.71
489.691	0.71
490.123	0.73
490.555	0.73
490.987	0.74
491.418	0.74
491.85	0.75
492.282	0.75
492.714	0.76
493.145	0.77
493.577	0.78
494.009	0.78
494.44	0.79
494.872	0.8
495.303	0.8
495.734	0.8
496.166	0.82
496.597	0.83
497.028	0.83
497.459	0.83
497.89	0.84
498.321	0.85
498.752	0.85
499.183	0.86
499.614	0.86
500.045	0.86
500.476	0.88
500.906	0.88
501.337	0.89
501.768	0.9
502.198	0.89
502.629	0.91
503.059	0.91
503.49	0.92
503.92	0.92
504.35	0.92
504.781	0.94
505.211	0.93
505.641	0.95
506.071	0.95
506.501	0.96
506.931	0.96
507.361	0.96
507.791	0.96
508.221	0.97
508.651	0.97
509.081	0.99
509.51	0.99
509.94	0.99
510.37	1.01
510.799	1.01
511.229	1.01
511.658	1.02
512.087	1.02
512.517	1.02
512.946	1.03
513.375	1.03
513.804	1.04
514.234	1.02
514.663	1.05
515.092	1.05
515.521	1.05
515.95	1.04
516.378	1.06
516.807	1.07
517.236	1.06
517.665	1.06
518.093	1.07
518.522	1.08
518.951	1.09
519.379	1.08
519.807	1.09
520.236	1.09
520.664	1.09
521.093	1.09
521.521	1.1
521.949	1.08
522.377	1.1
522.805	1.1
523.233	1.1
523.661	1.12
524.089	1.11
524.517	1.11
524.945	1.12
525.373	1.11
525.8	1.12
526.228	1.12
526.656	1.11
527.083	1.13
527.511	1.13
527.938	1.12
528.366	1.12
528.793	1.13
529.22	1.13
529.648	1.14
530.075	1.14
530.502	1.14
530.929	1.14
531.356	1.15
531.783	1.14
532.21	1.14
532.637	1.13
533.064	1.15
533.49	1.15
533.917	1.15
534.344	1.16
534.771	1.15
535.197	1.15
535.624	1.15
536.05	1.15
536.477	1.15
536.903	1.16
537.329	1.15
537.755	1.16
538.182	1.16
538.608	1.16
539.034	1.15
539.46	1.16
539.886	1.17
540.312	1.14
540.738	1.16
541.164	1.15
541.589	1.15
542.015	1.16
542.441	1.16
542.867	1.15
543.292	1.15
543.718	1.15
544.143	1.15
544.569	1.15
544.994	1.16
545.419	1.15
545.845	1.15
546.27	1.15
546.695	1.15
547.12	1.14
547.545	1.14
547.97	1.14
548.395	1.14
548.82	1.13
549.245	1.14
549.67	1.14
550.094	1.14
550.519	1.13
550.944	1.13
551.368	1.13
551.793	1.12
552.217	1.13
552.642	1.12
553.066	1.13
553.49	1.12
553.915	1.12
554.339	1.11
554.763	1.12
555.187	1.11
555.611	1.11
556.035	1.11
556.459	1.11
556.883	1.1
557.307	1.1
557.731	1.1
558.154	1.09
558.578	1.09
559.002	1.09
559.425	1.08
559.849	1.07
560.272	1.08
560.696	1.08
561.119	1.07
561.543	1.07
561.966	1.07
562.389	1.06
562.812	1.07
563.235	1.05
563.658	1.05
564.081	1.06
564.504	1.05
564.927	1.04
565.35	1.04
565.773	1.04
566.196	1.04
566.618	1.03
567.041	1.03
567.463	1.02
567.886	1.02
568.309	1.02
568.731	1.02
569.153	1.02
569.576	1.02
569.998	1.01
570.42	1.01
570.842	1
571.264	1
571.686	0.99
572.108	0.99
572.53	0.99
572.952	0.99
573.374	0.99
573.796	0.98
574.218	0.98
574.639	0.97
575.061	0.97
575.483	0.96
575.904	0.96
576.326	0.95
576.747	0.95
577.168	0.95
577.59	0.94
578.011	0.94
578.432	0.93
578.853	0.93
579.274	0.93
579.695	0.92
580.116	0.92
580.537	0.92
580.958	0.91
581.379	0.91
581.8	0.91
582.221	0.91
582.641	0.9
583.062	0.89
583.482	0.89
583.903	0.89
584.323	0.88
584.744	0.88
585.164	0.88
585.584	0.87
586.005	0.87
586.425	0.86
586.845	0.87
587.265	0.86
587.685	0.86
588.105	0.85
588.525	0.85
588.945	0.85
589.365	0.84
589.785	0.84
590.204	0.84
590.624	0.83
591.044	0.83
591.463	0.83
591.883	0.83
592.302	0.82
592.721	0.82
593.141	0.82
593.56	0.81
593.979	0.81
594.399	0.81
594.818	0.8
595.237	0.8
595.656	0.8
596.075	0.8
596.494	0.79
596.913	0.79
597.331	0.78
597.75	0.78
598.169	0.78
598.587	0.78
599.006	0.78
599.425	0.77
599.843	0.77
600.262	0.76
600.68	0.76
601.098	0.75
601.517	0.76
601.935	0.75
602.353	0.75
602.771	0.74
603.189	0.74
603.607	0.74
604.025	0.74
604.443	0.73
604.861	0.73
605.279	0.72
605.696	0.72
606.114	0.72
606.532	0.71
606.949	0.71
607.367	0.71
607.784	0.71
608.202	0.7
608.619	0.7
609.036	0.69
609.454	0.69
609.871	0.69
610.288	0.68
610.705	0.68
611.122	0.68
611.539	0.67
611.956	0.67
612.373	0.67
612.79	0.66
613.207	0.66
613.623	0.65
614.04	0.65
614.457	0.65
614.873	0.65
615.29	0.64
615.706	0.64
616.122	0.63
616.539	0.63
616.955	0.63
617.371	0.63
617.788	0.62
618.204	0.62
618.62	0.61
619.036	0.61
619.452	0.61
619.868	0.6
620.284	0.6
620.699	0.6
621.115	0.59
621.531	0.59
621.946	0.59
622.362	0.59
622.778	0.58
623.193	0.58
623.608	0.57
624.024	0.57
624.439	0.56
624.854	0.56
625.27	0.56
625.685	0.56
626.1	0.55
626.515	0.55
626.93	0.55
627.345	0.54
627.76	0.54
628.175	0.53
628.589	0.53
629.004	0.53
629.419	0.53
629.833	0.52
630.248	0.52
630.663	0.51
631.077	0.51
631.491	0.51
631.906	0.5
632.32	0.5
632.734	0.5
633.148	0.49
633.563	0.49
633.977	0.48
634.391	0.48
634.805	0.48
635.219	0.47
635.632	0.47
636.046	0.47
636.46	0.46
636.874	0.46
637.287	0.46
637.701	0.45
638.115	0.45
638.528	0.44
638.941	0.44
639.355	0.44
639.768	0.44
640.181	0.43
640.595	0.43
641.008	0.43
641.421	0.43
641.834	0.42
642.247	0.42
642.66	0.41
643.073	0.41
643.486	0.41
643.898	0.4
644.311	0.4
644.724	0.4
645.136	0.39
645.549	0.39
645.961	0.39
646.374	0.38
646.786	0.38
647.199	0.38
647.611	0.38
648.023	0.37
648.435	0.37
648.847	0.37
649.26	0.37
649.672	0.36
650.084	0.36
650.495	0.36
650.907	0.35
651.319	0.35
651.731	0.35
652.143	0.35
652.554	0.34
652.966	0.34
653.377	0.34
653.789	0.34
654.2	0.34
654.612	0.33
655.023	0.34
655.434	0.32
655.845	0.31
656.256	0.33
656.668	0.33
657.079	0.32
657.49	0.32
657.901	0.32
658.311	0.31
658.722	0.31
659.133	0.31
659.544	0.31
659.954	0.31
660.365	0.31
660.775	0.3
661.186	0.3
661.596	0.3
662.007	0.29
662.417	0.3
662.827	0.29
663.238	0.29
663.648	0.29
664.058	0.29
664.468	0.28
664.878	0.28
665.288	0.28
665.698	0.28
666.108	0.28
666.517	0.27
666.927	0.27
667.337	0.27
667.746	0.27
668.156	0.27
668.565	0.26
668.975	0.26
669.384	0.26
669.794	0.25
670.203	0.26
670.612	0.25
671.021	0.25
671.43	0.25
671.84	0.24
672.249	0.24
672.658	0.24
673.066	0.24
673.475	0.24
673.884	0.23
674.293	0.23
674.702	0.23
675.11	0.23
675.519	0.23
675.927	0.22
676.336	0.22
676.744	0.22
677.152	0.22
677.561	0.21
677.969	0.21
678.377	0.21
678.785	0.21
679.193	0.21
679.601	0.2
680.009	0.2
680.417	0.2
680.825	0.2
681.233	0.2
681.641	0.19
682.048	0.19
682.456	0.19
682.864	0.19
683.271	0.19
683.679	0.18
684.086	0.18
684.493	0.18
684.901	0.18
685.308	0.18
685.715	0.17
686.122	0.17
686.529	0.17
686.936	0.17
687.343	0.17
687.75	0.17
688.157	0.16
688.564	0.16
688.971	0.16
689.378	0.16
689.784	0.16
690.191	0.15
690.597	0.15
691.004	0.15
691.41	0.15
691.817	0.15
692.223	0.15
692.629	0.14
693.035	0.14
693.442	0.14
693.848	0.15
694.254	0.14
694.66	0.14
695.066	0.14
695.471	0.14
695.877	0.13
696.283	0.13
696.689	0.13
697.094	0.13
697.5	0.13
697.906	0.13
698.311	0.13
698.716	0.13
699.122	0.12
699.527	0.12
699.932	0.12
700.338	0.12
700.743	0.12
701.148	0.12
701.553	0.12
701.958	0.12
702.363	0.12
702.768	0.12
703.173	0.12
703.577	0.12
703.982	0.11
704.387	0.12
704.791	0.12
705.196	0.11
705.6	0.11
706.005	0.11
706.409	0.11
706.814	0.11
707.218	0.11
707.622	0.11
708.026	0.11
708.43	0.11
708.834	0.11
709.238	0.11
709.642	0.11
710.046	0.11
710.45	0.11
710.854	0.11
711.257	0.11
711.661	0.11
712.065	0.11
712.468	0.11
712.872	0.1
713.275	0.11
713.679	0.1
714.082	0.11
714.485	0.11
714.888	0.11
715.291	0.11
715.695	0.1
716.098	0.1
716.501	0.11
716.904	0.11
717.306	0.11
717.709	0.1
718.112	0.11
718.515	0.1
718.917	0.1
719.32	0.1
719.723	0.11
720.125	0.1
720.527	0.11
720.93	0.1
721.332	0.1
721.734	0.11
722.137	0.1
722.539	0.1
722.941	0.11
723.343	0.11
723.745	0.11
724.147	0.1
724.549	0.11
724.95	0.1
725.352	0.1
725.754	0.11
726.156	0.1
726.557	0.1
726.959	0.1
727.36	0.1
727.762	0.1
728.163	0.1
728.564	0.1
728.966	0.1
729.367	0.1
729.768	0.1
730.169	0.1
730.57	0.1
730.971	0.1
731.372	0.1
731.773	0.1
732.174	0.1
732.574	0.1
732.975	0.1
733.376	0.1
733.776	0.1
734.177	0.1
734.577	0.1
734.978	0.1
735.378	0.1
735.778	0.1
736.179	0.1
736.579	0.1
736.979	0.1
737.379	0.1
737.779	0.1
738.179	0.1
738.579	0.09
738.979	0.09
739.379	0.09
739.778	0.09
740.178	0.09
740.578	0.09
740.977	0.09
741.377	0.09
741.776	0.09
742.176	0.09
742.575	0.09
742.974	0.09
743.374	0.09
743.773	0.09
744.172	0.09
744.571	0.09
744.97	0.09
745.369	0.09
745.768	0.09
746.167	0.09
746.565	0.09
746.964	0.09
747.363	0.09
747.761	0.09
748.16	0.09
748.559	0.08
748.957	0.08
749.355	0.09
749.754	0.09
750.152	0.09
750.55	0.09
750.948	0.08
751.347	0.08
751.745	0.08
752.143	0.09
752.541	0.08
752.938	0.08
753.336	0.08
753.734	0.08
754.132	0.08
754.529	0.08
754.927	0.08
755.325	0.08
755.722	0.08
756.119	0.08
756.517	0.08
756.914	0.08
757.311	0.08
757.709	0.08
758.106	0.08
758.503	0.08
758.9	0.08
759.297	0.08
759.694	0.08
760.091	0.08
760.488	0.08
760.884	0.08
761.281	0.08
761.678	0.08
762.074	0.08
762.471	0.08
762.867	0.08
763.264	0.08
763.66	0.08
764.056	0.08
764.453	0.08
764.849	0.08
765.245	0.08
765.641	0.08
766.037	0.08
766.433	0.08
766.829	0.08
767.225	0.08
767.621	0.08
768.016	0.08
768.412	0.08
768.808	0.08
769.203	0.08
769.599	0.08
769.994	0.08
770.389	0.08
770.785	0.08
771.18	0.08
771.575	0.08
771.971	0.08
772.366	0.08
772.761	0.08
773.156	0.09
773.551	0.09
773.945	0.09
774.34	0.09
774.735	0.09
775.13	0.09
775.524	0.09
775.919	0.09
776.314	0.09
776.708	0.09
777.103	0.09
777.497	0.09
777.891	0.09
778.285	0.09
778.68	0.09
779.074	0.09
779.468	0.09
779.862	0.09
780.256	0.09
780.65	0.09
781.044	0.09
781.438	0.09
781.831	0.09
782.225	0.1
782.619	0.1
783.012	0.09
783.406	0.1
783.799	0.09
784.193	0.09
784.586	0.1
784.979	0.1
785.372	0.1
785.766	0.1
786.159	0.1
786.552	0.1
786.945	0.1
787.338	0.1
787.731	0.1
788.123	0.1
788.516	0.1
788.909	0.1
789.302	0.1
789.694	0.1
790.087	0.1
790.479	0.11
790.872	0.11
791.264	0.11
791.656	0.11
792.049	0.11
792.441	0.11
792.833	0.11
793.225	0.11
793.617	0.11
794.009	0.11
794.401	0.11
794.793	0.11
795.185	0.11
795.576	0.11
795.968	0.12
796.36	0.12
796.751	0.11
797.143	0.12
797.534	0.12
797.926	0.12
798.317	0.12
798.708	0.12
799.1	0.12
799.491	0.12
799.882	0.12
800.273	0.12
800.664	0.12
801.055	0.12
801.446	0.12
801.837	0.12
802.227	0.12
802.618	0.13
803.009	0.13
803.399	0.13
803.79	0.13
804.18	0.13
804.571	0.13
804.961	0.13
805.351	0.13
805.742	0.13
806.132	0.13
806.522	0.13
806.912	0.13
807.302	0.13
807.692	0.14
808.082	0.14
808.472	0.14
808.862	0.14
809.251	0.14
809.641	0.14
810.031	0.14
810.42	0.14
810.81	0.14
811.199	0.14
811.589	0.14
811.978	0.14
812.367	0.14
812.756	0.14
813.146	0.15
813.535	0.15
813.924	0.15
814.313	0.15
814.702	0.15
815.091	0.15
815.479	0.15
815.868	0.15
816.257	0.15
816.645	0.15
817.034	0.16
817.423	0.15
817.811	0.15
818.199	0.16
818.588	0.16
818.976	0.16
819.364	0.16
819.753	0.16
820.141	0.16
820.529	0.16
820.917	0.16
821.305	0.16
821.693	0.16
822.08	0.16
822.468	0.17
822.856	0.17
823.244	0.17
823.631	0.17
824.019	0.17
824.406	0.17
824.794	0.17
825.181	0.17
825.568	0.17
825.956	0.17
826.343	0.17
826.73	0.18
827.117	0.18
827.504	0.18
827.891	0.18
828.278	0.18
828.665	0.18
829.052	0.18
829.438	0.18
829.825	0.18
830.212	0.19
830.598	0.19
830.985	0.18
831.371	0.19
831.757	0.19
832.144	0.19
832.53	0.19
832.916	0.19
833.302	0.19
833.688	0.19
834.075	0.2
834.461	0.19
834.846	0.19
835.232	0.19
835.618	0.2
836.004	0.2
836.39	0.2
836.775	0.2
837.161	0.2
837.546	0.2
837.932	0.2
838.317	0.2
838.702	0.2
839.088	0.2
839.473	0.21
839.858	0.21
840.243	0.21
840.628	0.21
841.013	0.21
841.398	0.21
841.783	0.21
842.168	0.21
842.553	0.21
842.937	0.21
843.322	0.21
843.707	0.22
844.091	0.22
844.476	0.22
844.86	0.22
845.244	0.22
845.629	0.22
846.013	0.22
846.397	0.22
846.781	0.22
847.165	0.23
847.549	0.23
847.933	0.23
848.317	0.23
848.701	0.23
849.085	0.23
849.468	0.23
849.852	0.23
850.236	0.23
850.619	0.23
851.003	0.23
851.386	0.24
851.769	0.24
852.153	0.24
852.536	0.24
852.919	0.24
853.302	0.24
853.685	0.24
854.068	0.24
854.451	0.24
854.834	0.24
855.217	0.25
855.6	0.24
855.982	0.25
856.365	0.25
856.748	0.25
857.13	0.25
857.513	0.25
857.895	0.25
858.277	0.25
858.66	0.25
859.042	0.25
859.424	0.26
859.806	0.25
860.188	0.26
860.57	0.26
860.952	0.26
861.334	0.26
861.716	0.26
862.098	0.26
862.48	0.26
862.861	0.26
863.243	0.26
863.624	0.26
864.006	0.26
864.387	0.26
864.769	0.26
865.15	0.27
865.531	0.27
865.912	0.27
866.294	0.27
866.675	0.27
867.056	0.27
867.437	0.27
867.818	0.27
868.198	0.27
868.579	0.27
868.96	0.27
869.341	0.28
869.721	0.28
870.102	0.28
870.482	0.28
870.863	0.28
871.243	0.28
871.623	0.28
872.003	0.28
872.384	0.28
872.764	0.28
873.144	0.29
873.524	0.29
873.904	0.29
874.284	0.29
874.664	0.29
875.043	0.29
875.423	0.29
875.803	0.29
876.182	0.29
876.562	0.29
876.941	0.29
877.321	0.29
877.7	0.3
878.079	0.3
878.459	0.3
878.838	0.3
879.217	0.3
879.596	0.3
879.975	0.3
880.354	0.3
880.733	0.3
881.112	0.3
881.491	0.3
881.869	0.3
882.248	0.3
882.627	0.3
883.005	0.3
883.384	0.3
883.762	0.31
884.14	0.31
884.519	0.31
884.897	0.31
885.275	0.31
885.653	0.31
886.031	0.31
886.409	0.31
886.787	0.31
887.165	0.31
887.543	0.31
887.921	0.31
888.298	0.32
888.676	0.32
889.054	0.32
889.431	0.32
889.809	0.32
890.186	0.32
890.563	0.32
890.941	0.32
891.318	0.32
891.695	0.32
892.072	0.32
892.449	0.32
892.826	0.32
893.203	0.32
893.58	0.32
893.957	0.32
894.334	0.32
894.71	0.32
895.087	0.32
895.464	0.33
895.84	0.33
896.217	0.33
896.593	0.33
896.969	0.33
897.346	0.33
897.722	0.33
898.098	0.33
898.474	0.33
898.85	0.33
899.226	0.33
899.602	0.33
899.978	0.33
900.354	0.33
900.73	0.33
901.105	0.33
901.481	0.33
901.857	0.33
902.232	0.33
902.608	0.34
902.983	0.33
903.358	0.34
903.734	0.34
904.109	0.34
904.484	0.34
904.859	0.34
905.234	0.34
905.609	0.34
905.984	0.34
906.359	0.34
906.734	0.34
907.108	0.34
907.483	0.34
907.858	0.34
908.232	0.34
908.607	0.34
908.981	0.34
909.356	0.34
909.73	0.34
910.104	0.35
910.478	0.34
910.853	0.34
911.227	0.35
911.601	0.35
911.975	0.34
912.349	0.34
912.722	0.35
913.096	0.35
913.47	0.34
913.844	0.35
914.217	0.35
914.591	0.35
914.964	0.35
915.338	0.35
915.711	0.35
916.084	0.35
916.458	0.35
916.831	0.35
917.204	0.35
917.577	0.35
917.95	0.35
918.323	0.35
918.696	0.35
919.069	0.35
919.441	0.35
919.814	0.35
920.187	0.35
920.559	0.35
920.932	0.35
921.304	0.35
921.677	0.35
922.049	0.35
922.421	0.35
922.794	0.35
923.166	0.35
923.538	0.35
923.91	0.36
924.282	0.35
924.654	0.35
925.026	0.35
925.398	0.35
925.769	0.35
926.141	0.36
926.513	0.35
926.884	0.35
927.256	0.35
927.627	0.36
927.999	0.35
928.37	0.35
928.741	0.35
929.113	0.36
929.484	0.36
929.855	0.35
930.226	0.36
930.597	0.35
930.968	0.36
931.339	0.36
931.709	0.36
932.08	0.35
932.451	0.36
932.821	0.35
933.192	0.36
933.562	0.36
933.933	0.36
934.303	0.35
934.673	0.36
935.044	0.36
935.414	0.36
935.784	0.35
936.154	0.36
936.524	0.35
936.894	0.36
937.264	0.36
937.634	0.36
938.004	0.36
938.373	0.36
938.743	0.36
939.113	0.36
939.482	0.36
939.852	0.36
940.221	0.36
940.59	0.36
940.96	0.36
941.329	0.36
941.698	0.36
942.067	0.36
942.436	0.36
942.805	0.36
943.174	0.36
943.543	0.36
943.912	0.36
944.28	0.35
944.649	0.35
945.018	0.36
945.386	0.36
945.755	0.36
946.123	0.36
946.492	0.36
946.86	0.36
947.228	0.36
947.596	0.36
947.965	0.36
948.333	0.36
948.701	0.36
949.069	0.36
949.437	0.36
949.804	0.36
950.172	0.36
950.54	0.36
950.908	0.35
951.275	0.36
951.643	0.36
952.01	0.36
952.378	0.36
952.745	0.36
953.112	0.36
953.479	0.36
953.847	0.35
954.214	0.36
954.581	0.36
954.948	0.36
955.315	0.36
955.682	0.35
956.048	0.35
956.415	0.35
956.782	0.36
957.148	0.35
957.515	0.36
957.881	0.35
958.248	0.35
958.614	0.35
958.981	0.36
959.347	0.35
959.713	0.36
960.079	0.35
960.445	0.35
960.811	0.35
961.177	0.35
961.543	0.35
961.909	0.35
962.275	0.35
962.641	0.35
963.006	0.35
963.372	0.35
963.737	0.35
964.103	0.35
964.468	0.35
964.834	0.35
965.199	0.35
965.564	0.35
965.929	0.35
966.294	0.35
966.659	0.35
967.024	0.35
967.389	0.35
967.754	0.35
968.119	0.35
968.484	0.35
968.848	0.35
969.213	0.35
969.578	0.34
969.942	0.35
970.307	0.34
970.671	0.35
971.035	0.35
971.399	0.34
971.764	0.35
972.128	0.35
972.492	0.34
972.856	0.35
973.22	0.34
973.584	0.34
973.948	0.34
974.311	0.35
974.675	0.35
975.039	0.35
975.402	0.34
975.766	0.34
976.129	0.34
976.493	0.34
976.856	0.34
977.219	0.34
977.582	0.34
977.946	0.34
978.309	0.34
978.672	0.34
979.035	0.34
979.398	0.34
979.761	0.34
980.123	0.34
980.486	0.34
980.849	0.34
981.211	0.35
981.574	0.34
981.936	0.33
982.299	0.34
982.661	0.33
983.023	0.34
983.386	0.34
983.748	0.33
984.11	0.34
984.472	0.34
984.834	0.34
985.196	0.34
985.558	0.34
985.92	0.33
986.281	0.34
986.643	0.34
987.005	0.34
987.366	0.34
987.728	0.33
988.089	0.34
988.451	0.33
988.812	0.33
989.173	0.33
989.534	0.33
989.895	0.33
990.257	0.33
990.618	0.33
990.979	0.33
991.339	0.33
991.7	0.33
992.061	0.33
992.422	0.32
992.782	0.33
993.143	0.33
993.503	0.33
993.864	0.33
994.224	0.33
994.585	0.32
994.945	0.32
995.305	0.33
995.665	0.32
996.025	0.32
996.385	0.33
996.745	0.32
997.105	0.32
997.465	0.32
997.825	0.32
998.185	0.32
998.544	0.32
998.904	0.32
999.263	0.32
999.623	0.32
999.982	0.32
1000.342	0.32
1000.701	0.32
1001.06	0.32
1001.419	0.32
1001.778	0.32
1002.138	0.32
1002.497	0.32
1002.855	0.31
1003.214	0.32
1003.573	0.32
1003.932	0.32
1004.29	0.31
1004.649	0.32
1005.008	0.32
1005.366	0.31
1005.725	0.31
1006.083	0.31
1006.441	0.31
1006.799	0.31
1007.158	0.32
1007.516	0.31
1007.874	0.31
1008.232	0.3
1008.59	0.31
1008.948	0.31
1009.305	0.31
1009.663	0.31
1010.021	0.3
1010.379	0.31
1010.736	0.31
1011.094	0.31
1011.451	0.3
1011.808	0.3
1012.166	0.31
1012.523	0.3
1012.88	0.3
1013.237	0.3
1013.594	0.3
1013.951	0.31
1014.308	0.3
1014.665	0.3
1015.022	0.31
1015.379	0.29
1015.735	0.3
1016.092	0.3
1016.449	0.3
1016.805	0.3
1017.162	0.3
1017.518	0.3
1017.874	0.3
1018.231	0.3
1018.587	0.29
1018.943	0.3
1019.299	0.3
1019.655	0.3
1020.011	0.3
1020.367	0.29
1020.723	0.3
1021.078	0.3
1021.434	0.3
1021.79	0.3
1022.145	0.3
1022.501	0.3
1022.856	0.29
1023.212	0.3
1023.567	0.3
1023.922	0.29
1024.278	0.29
1024.633	0.29
1024.988	0.29
1025.343	0.29
1025.698	0.29
1026.053	0.29
1026.408	0.28
1026.762	0.29
1027.117	0.29
1027.472	0.29
1027.826	0.28
1028.181	0.29
1028.535	0.28
1028.89	0.29
1029.244	0.29
1029.598	0.29
1029.952	0.28
1030.307	0.29
1030.661	0.29
1031.015	0.28
1031.369	0.29
1031.723	0.28
1032.076	0.28
