Data from Rubpy_BV_EDTA_TU(3000)_Blank_Blue_Flow_Absorbance__619__12-57-01-841.txt Node

Date: Mon Aug 03 12:57:01 BST 2026
User: fpm-admin
Spectrometer: SR600986
Trigger mode: 0
Integration Time (sec): 8.000000E-3
Scans to average: 3
Nonlinearity correction enabled: true
Boxcar width: 0
Storing dark spectrum: false
XAxis mode: Wavelengths
Number of Pixels in Spectrum: 2048
>>>>>Begin Spectral Data<<<<<
188.613	0.15
189.078	0.15
189.542	0.16
190.007	0.16
190.472	0.16
190.936	0.16
191.401	0.14
191.865	0.17
192.33	0.15
192.794	0.14
193.258	0.15
193.723	0.15
194.187	0.16
194.651	0.15
195.115	0.17
195.579	0.16
196.043	0.14
196.507	0.16
196.971	0.16
197.435	0.16
197.899	0.16
198.363	0.16
198.827	0.16
199.29	0.16
199.754	0.15
200.218	0.17
200.681	0.15
201.145	0.17
201.608	0.14
202.072	0.17
202.535	0.15
202.998	0.17
203.462	0.16
203.925	0.16
204.388	0.16
204.851	0.15
205.314	0.16
205.777	0.15
206.24	0.15
206.703	0.18
207.166	0.15
207.629	0.15
208.092	0.16
208.555	0.16
209.018	0.18
209.48	0.14
209.943	0.15
210.406	0.14
210.868	0.16
211.331	0.15
211.793	0.15
212.256	0.18
212.718	0.15
213.18	0.15
213.643	0.16
214.105	0.16
214.567	0.14
215.029	0.17
215.491	0.14
215.953	0.17
216.415	0.15
216.877	0.14
217.339	0.17
217.801	0.15
218.263	0.15
218.725	0.17
219.186	0.17
219.648	0.14
220.11	0.14
220.571	0.16
221.033	0.15
221.494	0.18
221.956	0.16
222.417	0.17
222.878	0.16
223.34	0.16
223.801	0.15
224.262	0.16
224.723	0.16
225.185	0.16
225.646	0.13
226.107	0.16
226.568	0.15
227.029	0.17
227.489	0.16
227.95	0.15
228.411	0.16
228.872	0.16
229.332	0.15
229.793	0.12
230.254	0.16
230.714	0.15
231.175	0.16
231.635	0.15
232.096	0.16
232.556	0.15
233.016	0.14
233.477	0.14
233.937	0.16
234.397	0.14
234.857	0.15
235.317	0.17
235.777	0.15
236.237	0.15
236.697	0.16
237.157	0.16
237.617	0.15
238.077	0.16
238.537	0.16
238.996	0.16
239.456	0.15
239.916	0.15
240.375	0.15
240.835	0.15
241.294	0.17
241.754	0.15
242.213	0.17
242.672	0.15
243.132	0.14
243.591	0.17
244.05	0.15
244.509	0.16
244.968	0.16
245.427	0.13
245.886	0.15
246.345	0.14
246.804	0.15
247.263	0.17
247.722	0.16
248.181	0.16
248.639	0.15
249.098	0.17
249.557	0.15
250.015	0.16
250.474	0.16
250.932	0.17
251.391	0.15
251.849	0.15
252.308	0.18
252.766	0.16
253.224	0.17
253.682	0.16
254.14	0.16
254.599	0.17
255.057	0.16
255.515	0.17
255.973	0.17
256.431	0.17
256.888	0.16
257.346	0.15
257.804	0.17
258.262	0.16
258.719	0.15
259.177	0.15
259.635	0.15
260.092	0.15
260.55	0.17
261.007	0.15
261.465	0.16
261.922	0.17
262.379	0.16
262.836	0.16
263.294	0.17
263.751	0.18
264.208	0.15
264.665	0.15
265.122	0.15
265.579	0.17
266.036	0.17
266.493	0.15
266.95	0.16
267.406	0.16
267.863	0.16
268.32	0.16
268.777	0.16
269.233	0.16
269.69	0.15
270.146	0.16
270.603	0.18
271.059	0.15
271.515	0.17
271.972	0.17
272.428	0.13
272.884	0.17
273.34	0.15
273.796	0.15
274.253	0.14
274.709	0.15
275.165	0.15
275.62	0.17
276.076	0.14
276.532	0.17
276.988	0.15
277.444	0.14
277.899	0.15
278.355	0.18
278.811	0.13
279.266	0.16
279.722	0.17
280.177	0.16
280.633	0.16
281.088	0.16
281.543	0.15
281.998	0.16
282.454	0.16
282.909	0.17
283.364	0.15
283.819	0.16
284.274	0.15
284.729	0.15
285.184	0.16
285.639	0.16
286.094	0.17
286.548	0.16
287.003	0.17
287.458	0.15
287.913	0.15
288.367	0.16
288.822	0.15
289.276	0.16
289.731	0.15
290.185	0.16
290.639	0.17
291.094	0.17
291.548	0.17
292.002	0.17
292.456	0.17
292.91	0.16
293.365	0.16
293.819	0.18
294.273	0.15
294.726	0.15
295.18	0.16
295.634	0.2
296.088	0.17
296.542	0.2
296.995	0.18
297.449	0.16
297.903	0.17
298.356	0.15
298.81	0.15
299.263	0.16
299.716	0.16
300.17	0.16
300.623	0.14
301.076	0.18
301.53	0.17
301.983	0.17
302.436	0.16
302.889	0.16
303.342	0.17
303.795	0.15
304.248	0.16
304.701	0.18
305.153	0.16
305.606	0.15
306.059	0.17
306.512	0.18
306.964	0.16
307.417	0.16
307.869	0.18
308.322	0.18
308.774	0.16
309.227	0.17
309.679	0.17
310.131	0.16
310.584	0.16
311.036	0.17
311.488	0.17
311.94	0.18
312.392	0.16
312.844	0.18
313.296	0.18
313.748	0.17
314.2	0.17
314.652	0.17
315.103	0.17
315.555	0.17
316.007	0.19
316.458	0.17
316.91	0.19
317.361	0.18
317.813	0.18
318.264	0.19
318.716	0.19
319.167	0.2
319.618	0.19
320.07	0.2
320.521	0.2
320.972	0.22
321.423	0.21
321.874	0.19
322.325	0.21
322.776	0.23
323.227	0.22
323.678	0.23
324.128	0.23
324.579	0.24
325.03	0.24
325.48	0.26
325.931	0.26
326.382	0.25
326.832	0.27
327.283	0.26
327.733	0.27
328.183	0.3
328.634	0.31
329.084	0.31
329.534	0.33
329.984	0.35
330.434	0.34
330.884	0.36
331.334	0.36
331.784	0.38
332.234	0.37
332.684	0.38
333.134	0.39
333.584	0.41
334.034	0.42
334.483	0.42
334.933	0.43
335.382	0.45
335.832	0.46
336.281	0.46
336.731	0.48
337.18	0.49
337.63	0.5
338.079	0.52
338.528	0.51
338.977	0.53
339.426	0.55
339.876	0.56
340.325	0.57
340.774	0.58
341.223	0.59
341.671	0.59
342.12	0.6
342.569	0.62
343.018	0.64
343.467	0.64
343.915	0.66
344.364	0.66
344.812	0.67
345.261	0.69
345.709	0.71
346.158	0.71
346.606	0.72
347.054	0.72
347.503	0.73
347.951	0.75
348.399	0.75
348.847	0.77
349.295	0.77
349.743	0.77
350.191	0.8
350.639	0.79
351.087	0.8
351.535	0.82
351.983	0.83
352.43	0.83
352.878	0.84
353.326	0.85
353.773	0.86
354.221	0.88
354.668	0.88
355.116	0.9
355.563	0.91
356.01	0.92
356.458	0.93
356.905	0.95
357.352	0.97
357.799	0.97
358.246	0.99
358.693	0.99
359.14	1
359.587	1.02
360.034	1.04
360.481	1.05
360.928	1.06
361.375	1.07
361.821	1.09
362.268	1.1
362.714	1.12
363.161	1.12
363.608	1.13
364.054	1.14
364.5	1.16
364.947	1.16
365.393	1.17
365.839	1.17
366.285	1.18
366.732	1.2
367.178	1.2
367.624	1.2
368.07	1.22
368.516	1.2
368.962	1.2
369.408	1.22
369.853	1.2
370.299	1.22
370.745	1.21
371.19	1.2
371.636	1.19
372.082	1.21
372.527	1.18
372.973	1.19
373.418	1.18
373.863	1.16
374.309	1.15
374.754	1.15
375.199	1.14
375.644	1.12
376.09	1.11
376.535	1.09
376.98	1.07
377.425	1.06
377.87	1.04
378.314	1.03
378.759	1.02
379.204	1
379.649	0.98
380.093	0.95
380.538	0.93
380.983	0.92
381.427	0.9
381.872	0.87
382.316	0.86
382.76	0.83
383.205	0.81
383.649	0.81
384.093	0.78
384.537	0.76
384.982	0.74
385.426	0.73
385.87	0.72
386.314	0.7
386.758	0.69
387.201	0.67
387.645	0.65
388.089	0.64
388.533	0.62
388.976	0.61
389.42	0.6
389.864	0.59
390.307	0.57
390.751	0.56
391.194	0.54
391.638	0.52
392.081	0.52
392.524	0.51
392.967	0.5
393.411	0.5
393.854	0.49
394.297	0.49
394.74	0.49
395.183	0.48
395.626	0.47
396.069	0.47
396.512	0.47
396.954	0.47
397.397	0.47
397.84	0.48
398.282	0.47
398.725	0.49
399.168	0.48
399.61	0.48
400.052	0.47
400.495	0.47
400.937	0.46
401.38	0.45
401.822	0.44
402.264	0.44
402.706	0.42
403.148	0.4
403.59	0.4
404.032	0.39
404.474	0.37
404.916	0.35
405.358	0.34
405.8	0.33
406.241	0.32
406.683	0.31
407.125	0.29
407.566	0.28
408.008	0.25
408.449	0.26
408.891	0.25
409.332	0.24
409.774	0.23
410.215	0.22
410.656	0.21
411.097	0.2
411.539	0.2
411.98	0.19
412.421	0.18
412.862	0.18
413.303	0.17
413.744	0.17
414.184	0.16
414.625	0.16
415.066	0.15
415.507	0.15
415.947	0.15
416.388	0.16
416.828	0.13
417.269	0.15
417.709	0.14
418.15	0.14
418.59	0.15
419.03	0.13
419.471	0.13
419.911	0.13
420.351	0.13
420.791	0.13
421.231	0.13
421.671	0.12
422.111	0.12
422.551	0.12
422.991	0.13
423.431	0.11
423.87	0.13
424.31	0.12
424.75	0.13
425.189	0.13
425.629	0.13
426.068	0.13
426.508	0.13
426.947	0.13
427.386	0.14
427.826	0.14
428.265	0.12
428.704	0.12
429.143	0.13
429.582	0.12
430.021	0.14
430.46	0.13
430.899	0.12
431.338	0.12
431.777	0.11
432.216	0.13
432.655	0.12
433.093	0.12
433.532	0.13
433.971	0.12
434.409	0.12
434.848	0.12
435.286	0.13
435.724	0.13
436.163	0.13
436.601	0.15
437.039	0.13
437.477	0.13
437.916	0.13
438.354	0.14
438.792	0.13
439.23	0.13
439.668	0.13
440.105	0.14
440.543	0.13
440.981	0.14
441.419	0.13
441.856	0.14
442.294	0.14
442.732	0.12
443.169	0.15
443.607	0.14
444.044	0.13
444.481	0.16
444.919	0.16
445.356	0.13
445.793	0.16
446.23	0.15
446.668	0.14
447.105	0.15
447.542	0.16
447.979	0.15
448.416	0.14
448.852	0.17
449.289	0.16
449.726	0.17
450.163	0.15
450.599	0.16
451.036	0.15
451.473	0.17
451.909	0.15
452.346	0.15
452.782	0.16
453.218	0.13
453.655	0.16
454.091	0.15
454.527	0.18
454.963	0.19
455.399	0.16
455.835	0.17
456.271	0.15
456.707	0.16
457.143	0.17
457.579	0.16
458.015	0.17
458.451	0.17
458.886	0.18
459.322	0.16
459.758	0.17
460.193	0.18
460.629	0.18
461.064	0.17
461.5	0.19
461.935	0.17
462.37	0.2
462.805	0.18
463.241	0.18
463.676	0.18
464.111	0.19
464.546	0.18
464.981	0.18
465.416	0.18
465.851	0.18
466.286	0.19
466.72	0.2
467.155	0.21
467.59	0.18
468.024	0.2
468.459	0.2
468.893	0.2
469.328	0.22
469.762	0.2
470.197	0.21
470.631	0.22
471.065	0.23
471.5	0.22
471.934	0.23
472.368	0.24
472.802	0.23
473.236	0.24
473.67	0.25
474.104	0.24
474.538	0.25
474.972	0.25
475.405	0.26
475.839	0.27
476.273	0.26
476.706	0.27
477.14	0.28
477.573	0.28
478.007	0.27
478.44	0.28
478.874	0.28
479.307	0.29
479.74	0.29
480.173	0.3
480.606	0.3
481.04	0.31
481.473	0.31
481.906	0.31
482.339	0.32
482.771	0.32
483.204	0.33
483.637	0.33
484.07	0.33
484.502	0.34
484.935	0.34
485.368	0.34
485.8	0.34
486.233	0.35
486.665	0.35
487.098	0.36
487.53	0.36
487.962	0.36
488.394	0.37
488.827	0.36
489.259	0.37
489.691	0.38
490.123	0.38
490.555	0.38
490.987	0.39
491.418	0.39
491.85	0.39
492.282	0.4
492.714	0.4
493.145	0.4
493.577	0.41
494.009	0.41
494.44	0.41
494.872	0.42
495.303	0.42
495.734	0.42
496.166	0.43
496.597	0.43
497.028	0.43
497.459	0.43
497.89	0.44
498.321	0.44
498.752	0.45
499.183	0.45
499.614	0.45
500.045	0.45
500.476	0.46
500.906	0.46
501.337	0.47
501.768	0.46
502.198	0.47
502.629	0.48
503.059	0.48
503.49	0.47
503.92	0.48
504.35	0.48
504.781	0.49
505.211	0.5
505.641	0.49
506.071	0.5
506.501	0.5
506.931	0.5
507.361	0.51
507.791	0.51
508.221	0.51
508.651	0.52
509.081	0.52
509.51	0.52
509.94	0.52
510.37	0.53
510.799	0.53
511.229	0.53
511.658	0.53
512.087	0.54
512.517	0.54
512.946	0.54
513.375	0.54
513.804	0.55
514.234	0.55
514.663	0.55
515.092	0.55
515.521	0.56
515.95	0.56
516.378	0.56
516.807	0.57
517.236	0.56
517.665	0.57
518.093	0.57
518.522	0.57
518.951	0.58
519.379	0.57
519.807	0.58
520.236	0.58
520.664	0.58
521.093	0.58
521.521	0.58
521.949	0.59
522.377	0.59
522.805	0.59
523.233	0.59
523.661	0.6
524.089	0.59
524.517	0.6
524.945	0.6
525.373	0.59
525.8	0.6
526.228	0.6
526.656	0.61
527.083	0.6
527.511	0.61
527.938	0.61
528.366	0.61
528.793	0.61
529.22	0.61
529.648	0.61
530.075	0.61
530.502	0.61
530.929	0.61
531.356	0.62
531.783	0.62
532.21	0.62
532.637	0.62
533.064	0.62
533.49	0.62
533.917	0.62
534.344	0.62
534.771	0.63
535.197	0.62
535.624	0.62
536.05	0.62
536.477	0.62
536.903	0.63
537.329	0.63
537.755	0.62
538.182	0.62
538.608	0.62
539.034	0.63
539.46	0.62
539.886	0.62
540.312	0.63
540.738	0.63
541.164	0.62
541.589	0.62
542.015	0.62
542.441	0.62
542.867	0.63
543.292	0.62
543.718	0.62
544.143	0.62
544.569	0.62
544.994	0.62
545.419	0.62
545.845	0.62
546.27	0.62
546.695	0.62
547.12	0.62
547.545	0.62
547.97	0.61
548.395	0.62
548.82	0.62
549.245	0.61
549.67	0.61
550.094	0.61
550.519	0.61
550.944	0.61
551.368	0.61
551.793	0.6
552.217	0.61
552.642	0.61
553.066	0.61
553.49	0.6
553.915	0.6
554.339	0.6
554.763	0.6
555.187	0.6
555.611	0.6
556.035	0.6
556.459	0.59
556.883	0.6
557.307	0.59
557.731	0.59
558.154	0.59
558.578	0.59
559.002	0.59
559.425	0.59
559.849	0.58
560.272	0.58
560.696	0.58
561.119	0.58
561.543	0.58
561.966	0.57
562.389	0.57
562.812	0.57
563.235	0.57
563.658	0.57
564.081	0.57
564.504	0.56
564.927	0.56
565.35	0.56
565.773	0.56
566.196	0.56
566.618	0.56
567.041	0.56
567.463	0.55
567.886	0.55
568.309	0.55
568.731	0.54
569.153	0.54
569.576	0.54
569.998	0.54
570.42	0.54
570.842	0.54
571.264	0.54
571.686	0.53
572.108	0.53
572.53	0.53
572.952	0.53
573.374	0.52
573.796	0.52
574.218	0.52
574.639	0.52
575.061	0.52
575.483	0.51
575.904	0.51
576.326	0.51
576.747	0.51
577.168	0.51
577.59	0.5
578.011	0.51
578.432	0.5
578.853	0.5
579.274	0.5
579.695	0.5
580.116	0.49
580.537	0.49
580.958	0.49
581.379	0.49
581.8	0.49
582.221	0.49
582.641	0.48
583.062	0.48
583.482	0.48
583.903	0.48
584.323	0.48
584.744	0.48
585.164	0.47
585.584	0.47
586.005	0.47
586.425	0.47
586.845	0.47
587.265	0.46
587.685	0.46
588.105	0.46
588.525	0.46
588.945	0.46
589.365	0.46
589.785	0.46
590.204	0.45
590.624	0.45
591.044	0.45
591.463	0.45
591.883	0.45
592.302	0.45
592.721	0.45
593.141	0.44
593.56	0.44
593.979	0.44
594.399	0.44
594.818	0.44
595.237	0.44
595.656	0.44
596.075	0.43
596.494	0.43
596.913	0.43
597.331	0.43
597.75	0.43
598.169	0.43
598.587	0.43
599.006	0.42
599.425	0.42
599.843	0.42
600.262	0.42
600.68	0.42
601.098	0.42
601.517	0.41
601.935	0.41
602.353	0.41
602.771	0.41
603.189	0.41
603.607	0.4
604.025	0.4
604.443	0.4
604.861	0.4
605.279	0.4
605.696	0.4
606.114	0.39
606.532	0.39
606.949	0.39
607.367	0.39
607.784	0.39
608.202	0.39
608.619	0.38
609.036	0.38
609.454	0.38
609.871	0.38
610.288	0.38
610.705	0.38
611.122	0.37
611.539	0.37
611.956	0.37
612.373	0.37
612.79	0.37
613.207	0.37
613.623	0.36
614.04	0.36
614.457	0.36
614.873	0.36
615.29	0.35
615.706	0.36
616.122	0.35
616.539	0.35
616.955	0.35
617.371	0.35
617.788	0.35
618.204	0.34
618.62	0.34
619.036	0.34
619.452	0.34
619.868	0.34
620.284	0.33
620.699	0.33
621.115	0.33
621.531	0.33
621.946	0.33
622.362	0.33
622.778	0.32
623.193	0.32
623.608	0.32
624.024	0.32
624.439	0.32
624.854	0.31
625.27	0.31
625.685	0.31
626.1	0.31
626.515	0.31
626.93	0.31
627.345	0.3
627.76	0.3
628.175	0.3
628.589	0.3
629.004	0.29
629.419	0.29
629.833	0.29
630.248	0.29
630.663	0.29
631.077	0.28
631.491	0.28
631.906	0.28
632.32	0.28
632.734	0.28
633.148	0.28
633.563	0.27
633.977	0.27
634.391	0.27
634.805	0.27
635.219	0.26
635.632	0.26
636.046	0.26
636.46	0.26
636.874	0.26
637.287	0.25
637.701	0.25
638.115	0.25
638.528	0.25
638.941	0.25
639.355	0.24
639.768	0.24
640.181	0.24
640.595	0.24
641.008	0.24
641.421	0.24
641.834	0.24
642.247	0.23
642.66	0.23
643.073	0.23
643.486	0.23
643.898	0.23
644.311	0.22
644.724	0.22
645.136	0.22
645.549	0.22
645.961	0.22
646.374	0.21
646.786	0.21
647.199	0.21
647.611	0.21
648.023	0.21
648.435	0.21
648.847	0.21
649.26	0.2
649.672	0.2
650.084	0.2
650.495	0.2
650.907	0.2
651.319	0.2
651.731	0.2
652.143	0.2
652.554	0.19
652.966	0.19
653.377	0.19
653.789	0.19
654.2	0.19
654.612	0.19
655.023	0.2
655.434	0.17
655.845	0.17
656.256	0.18
656.668	0.19
657.079	0.18
657.49	0.18
657.901	0.18
658.311	0.18
658.722	0.18
659.133	0.18
659.544	0.18
659.954	0.17
660.365	0.17
660.775	0.17
661.186	0.17
661.596	0.17
662.007	0.17
662.417	0.17
662.827	0.17
663.238	0.17
663.648	0.16
664.058	0.16
664.468	0.16
664.878	0.16
665.288	0.16
665.698	0.16
666.108	0.16
666.517	0.16
666.927	0.15
667.337	0.15
667.746	0.15
668.156	0.15
668.565	0.15
668.975	0.15
669.384	0.15
669.794	0.15
670.203	0.14
670.612	0.14
671.021	0.14
671.43	0.14
671.84	0.14
672.249	0.14
672.658	0.14
673.066	0.14
673.475	0.14
673.884	0.13
674.293	0.13
674.702	0.13
675.11	0.13
675.519	0.13
675.927	0.13
676.336	0.13
676.744	0.13
677.152	0.12
677.561	0.12
677.969	0.12
678.377	0.12
678.785	0.12
679.193	0.12
679.601	0.12
680.009	0.11
680.417	0.12
680.825	0.11
681.233	0.11
681.641	0.11
682.048	0.11
682.456	0.11
682.864	0.11
683.271	0.11
683.679	0.1
684.086	0.1
684.493	0.1
684.901	0.1
685.308	0.1
685.715	0.1
686.122	0.1
686.529	0.1
686.936	0.1
687.343	0.09
687.75	0.09
688.157	0.09
688.564	0.09
688.971	0.09
689.378	0.09
689.784	0.09
690.191	0.09
690.597	0.09
691.004	0.09
691.41	0.08
691.817	0.08
692.223	0.08
692.629	0.08
693.035	0.08
693.442	0.08
693.848	0.08
694.254	0.08
694.66	0.08
695.066	0.08
695.471	0.08
695.877	0.08
696.283	0.08
696.689	0.08
697.094	0.08
697.5	0.07
697.906	0.07
698.311	0.07
698.716	0.07
699.122	0.07
699.527	0.07
699.932	0.07
700.338	0.07
700.743	0.07
701.148	0.07
701.553	0.07
701.958	0.07
702.363	0.07
702.768	0.07
703.173	0.07
703.577	0.07
703.982	0.06
704.387	0.07
704.791	0.06
705.196	0.06
705.6	0.06
706.005	0.06
706.409	0.06
706.814	0.06
707.218	0.06
707.622	0.06
708.026	0.06
708.43	0.06
708.834	0.06
709.238	0.06
709.642	0.06
710.046	0.06
710.45	0.06
710.854	0.06
711.257	0.06
711.661	0.06
712.065	0.06
712.468	0.06
712.872	0.06
713.275	0.06
713.679	0.06
714.082	0.06
714.485	0.06
714.888	0.06
715.291	0.06
715.695	0.06
716.098	0.06
716.501	0.06
716.904	0.06
717.306	0.06
717.709	0.06
718.112	0.06
718.515	0.06
718.917	0.06
719.32	0.06
719.723	0.06
720.125	0.06
720.527	0.06
720.93	0.06
721.332	0.06
721.734	0.06
722.137	0.06
722.539	0.06
722.941	0.06
723.343	0.06
723.745	0.06
724.147	0.06
724.549	0.06
724.95	0.06
725.352	0.06
725.754	0.06
726.156	0.06
726.557	0.06
726.959	0.06
727.36	0.06
727.762	0.06
728.163	0.06
728.564	0.06
728.966	0.06
729.367	0.06
729.768	0.06
730.169	0.06
730.57	0.06
730.971	0.06
731.372	0.06
731.773	0.06
732.174	0.06
732.574	0.06
732.975	0.06
733.376	0.06
733.776	0.06
734.177	0.06
734.577	0.06
734.978	0.06
735.378	0.06
735.778	0.06
736.179	0.06
736.579	0.05
736.979	0.06
737.379	0.05
737.779	0.05
738.179	0.05
738.579	0.05
738.979	0.05
739.379	0.05
739.778	0.05
740.178	0.05
740.578	0.05
740.977	0.05
741.377	0.05
741.776	0.05
742.176	0.05
742.575	0.05
742.974	0.05
743.374	0.05
743.773	0.05
744.172	0.05
744.571	0.05
744.97	0.05
745.369	0.05
745.768	0.05
746.167	0.05
746.565	0.05
746.964	0.05
747.363	0.05
747.761	0.05
748.16	0.05
748.559	0.05
748.957	0.05
749.355	0.05
749.754	0.05
750.152	0.05
750.55	0.05
750.948	0.05
751.347	0.05
751.745	0.05
752.143	0.04
752.541	0.04
752.938	0.04
753.336	0.04
753.734	0.05
754.132	0.04
754.529	0.04
754.927	0.04
755.325	0.05
755.722	0.04
756.119	0.04
756.517	0.04
756.914	0.04
757.311	0.04
757.709	0.04
758.106	0.04
758.503	0.04
758.9	0.04
759.297	0.04
759.694	0.04
760.091	0.04
760.488	0.04
760.884	0.04
761.281	0.04
761.678	0.04
762.074	0.04
762.471	0.04
762.867	0.04
763.264	0.04
763.66	0.04
764.056	0.04
764.453	0.04
764.849	0.04
765.245	0.04
765.641	0.04
766.037	0.04
766.433	0.04
766.829	0.04
767.225	0.04
767.621	0.04
768.016	0.04
768.412	0.04
768.808	0.04
769.203	0.04
769.599	0.05
769.994	0.04
770.389	0.04
770.785	0.04
771.18	0.04
771.575	0.04
771.971	0.04
772.366	0.04
772.761	0.04
773.156	0.05
773.551	0.05
773.945	0.05
774.34	0.05
774.735	0.05
775.13	0.05
775.524	0.05
775.919	0.05
776.314	0.05
776.708	0.05
777.103	0.05
777.497	0.05
777.891	0.05
778.285	0.05
778.68	0.05
779.074	0.05
779.468	0.05
779.862	0.05
780.256	0.05
780.65	0.05
781.044	0.05
781.438	0.05
781.831	0.05
782.225	0.05
782.619	0.05
783.012	0.05
783.406	0.05
783.799	0.05
784.193	0.05
784.586	0.05
784.979	0.05
785.372	0.05
785.766	0.05
786.159	0.05
786.552	0.05
786.945	0.05
787.338	0.05
787.731	0.05
788.123	0.05
788.516	0.05
788.909	0.06
789.302	0.05
789.694	0.05
790.087	0.06
790.479	0.06
790.872	0.06
791.264	0.06
791.656	0.06
792.049	0.06
792.441	0.06
792.833	0.06
793.225	0.06
793.617	0.06
794.009	0.06
794.401	0.06
794.793	0.06
795.185	0.06
795.576	0.06
795.968	0.06
796.36	0.06
796.751	0.06
797.143	0.06
797.534	0.06
797.926	0.06
798.317	0.06
798.708	0.06
799.1	0.06
799.491	0.06
799.882	0.06
800.273	0.06
800.664	0.06
801.055	0.06
801.446	0.07
801.837	0.07
802.227	0.07
802.618	0.07
803.009	0.07
803.399	0.07
803.79	0.07
804.18	0.07
804.571	0.07
804.961	0.07
805.351	0.07
805.742	0.07
806.132	0.07
806.522	0.07
806.912	0.07
807.302	0.07
807.692	0.07
808.082	0.07
808.472	0.07
808.862	0.07
809.251	0.07
809.641	0.07
810.031	0.07
810.42	0.07
810.81	0.07
811.199	0.07
811.589	0.08
811.978	0.08
812.367	0.08
812.756	0.08
813.146	0.08
813.535	0.08
813.924	0.08
814.313	0.08
814.702	0.08
815.091	0.08
815.479	0.08
815.868	0.08
816.257	0.08
816.645	0.08
817.034	0.08
817.423	0.08
817.811	0.08
818.199	0.08
818.588	0.08
818.976	0.08
819.364	0.08
819.753	0.08
820.141	0.09
820.529	0.08
820.917	0.08
821.305	0.09
821.693	0.09
822.08	0.09
822.468	0.09
822.856	0.09
823.244	0.09
823.631	0.09
824.019	0.09
824.406	0.09
824.794	0.09
825.181	0.09
825.568	0.09
825.956	0.09
826.343	0.09
826.73	0.09
827.117	0.09
827.504	0.09
827.891	0.09
828.278	0.09
828.665	0.09
829.052	0.09
829.438	0.1
829.825	0.1
830.212	0.1
830.598	0.1
830.985	0.1
831.371	0.1
831.757	0.1
832.144	0.1
832.53	0.1
832.916	0.1
833.302	0.1
833.688	0.1
834.075	0.1
834.461	0.1
834.846	0.1
835.232	0.1
835.618	0.1
836.004	0.1
836.39	0.11
836.775	0.11
837.161	0.11
837.546	0.11
837.932	0.11
838.317	0.11
838.702	0.11
839.088	0.11
839.473	0.11
839.858	0.11
840.243	0.11
840.628	0.11
841.013	0.11
841.398	0.11
841.783	0.11
842.168	0.11
842.553	0.11
842.937	0.11
843.322	0.11
843.707	0.11
844.091	0.11
844.476	0.12
844.86	0.11
845.244	0.12
845.629	0.12
846.013	0.12
846.397	0.12
846.781	0.12
847.165	0.12
847.549	0.12
847.933	0.12
848.317	0.12
848.701	0.12
849.085	0.12
849.468	0.12
849.852	0.12
850.236	0.12
850.619	0.12
851.003	0.12
851.386	0.13
851.769	0.13
852.153	0.13
852.536	0.13
852.919	0.13
853.302	0.13
853.685	0.13
854.068	0.13
854.451	0.13
854.834	0.13
855.217	0.13
855.6	0.13
855.982	0.13
856.365	0.13
856.748	0.13
857.13	0.13
857.513	0.13
857.895	0.13
858.277	0.13
858.66	0.13
859.042	0.13
859.424	0.13
859.806	0.14
860.188	0.13
860.57	0.13
860.952	0.14
861.334	0.14
861.716	0.14
862.098	0.14
862.48	0.14
862.861	0.14
863.243	0.14
863.624	0.14
864.006	0.14
864.387	0.14
864.769	0.14
865.15	0.14
865.531	0.14
865.912	0.14
866.294	0.14
866.675	0.14
867.056	0.14
867.437	0.14
867.818	0.14
868.198	0.14
868.579	0.14
868.96	0.14
869.341	0.15
869.721	0.15
870.102	0.15
870.482	0.15
870.863	0.15
871.243	0.15
871.623	0.15
872.003	0.15
872.384	0.15
872.764	0.15
873.144	0.15
873.524	0.15
873.904	0.15
874.284	0.15
874.664	0.15
875.043	0.15
875.423	0.15
875.803	0.15
876.182	0.15
876.562	0.15
876.941	0.15
877.321	0.16
877.7	0.16
878.079	0.16
878.459	0.16
878.838	0.16
879.217	0.16
879.596	0.16
879.975	0.16
880.354	0.16
880.733	0.16
881.112	0.16
881.491	0.16
881.869	0.16
882.248	0.16
882.627	0.16
883.005	0.16
883.384	0.16
883.762	0.16
884.14	0.16
884.519	0.16
884.897	0.16
885.275	0.16
885.653	0.16
886.031	0.16
886.409	0.16
886.787	0.16
887.165	0.17
887.543	0.16
887.921	0.17
888.298	0.17
888.676	0.17
889.054	0.16
889.431	0.17
889.809	0.17
890.186	0.17
890.563	0.17
890.941	0.17
891.318	0.17
891.695	0.17
892.072	0.17
892.449	0.17
892.826	0.17
893.203	0.17
893.58	0.17
893.957	0.17
894.334	0.17
894.71	0.17
895.087	0.17
895.464	0.17
895.84	0.17
896.217	0.17
896.593	0.18
896.969	0.17
897.346	0.17
897.722	0.17
898.098	0.17
898.474	0.18
898.85	0.17
899.226	0.17
899.602	0.18
899.978	0.18
900.354	0.17
900.73	0.18
901.105	0.18
901.481	0.18
901.857	0.18
902.232	0.17
902.608	0.17
902.983	0.18
903.358	0.17
903.734	0.18
904.109	0.18
904.484	0.18
904.859	0.18
905.234	0.18
905.609	0.18
905.984	0.18
906.359	0.18
906.734	0.18
907.108	0.18
907.483	0.18
907.858	0.18
908.232	0.18
908.607	0.18
908.981	0.18
909.356	0.18
909.73	0.18
910.104	0.18
910.478	0.18
910.853	0.18
911.227	0.18
911.601	0.18
911.975	0.18
912.349	0.18
912.722	0.18
913.096	0.18
913.47	0.18
913.844	0.18
914.217	0.18
914.591	0.18
914.964	0.18
915.338	0.18
915.711	0.18
916.084	0.18
916.458	0.18
916.831	0.18
917.204	0.18
917.577	0.18
917.95	0.18
918.323	0.18
918.696	0.18
919.069	0.18
919.441	0.18
919.814	0.18
920.187	0.18
920.559	0.18
920.932	0.18
921.304	0.18
921.677	0.18
922.049	0.19
922.421	0.18
922.794	0.18
923.166	0.19
923.538	0.19
923.91	0.19
924.282	0.19
924.654	0.18
925.026	0.19
925.398	0.19
925.769	0.19
926.141	0.19
926.513	0.19
926.884	0.19
927.256	0.18
927.627	0.19
927.999	0.18
928.37	0.18
928.741	0.18
929.113	0.19
929.484	0.19
929.855	0.19
930.226	0.19
930.597	0.18
930.968	0.19
931.339	0.19
931.709	0.18
932.08	0.19
932.451	0.19
932.821	0.19
933.192	0.18
933.562	0.19
933.933	0.19
934.303	0.19
934.673	0.19
935.044	0.18
935.414	0.19
935.784	0.19
936.154	0.19
936.524	0.18
936.894	0.19
937.264	0.18
937.634	0.19
938.004	0.18
938.373	0.19
938.743	0.19
939.113	0.19
939.482	0.19
939.852	0.19
940.221	0.19
940.59	0.19
940.96	0.19
941.329	0.19
941.698	0.19
942.067	0.19
942.436	0.19
942.805	0.18
943.174	0.19
943.543	0.19
943.912	0.18
944.28	0.19
944.649	0.18
945.018	0.19
945.386	0.19
945.755	0.19
946.123	0.18
946.492	0.19
946.86	0.19
947.228	0.19
947.596	0.19
947.965	0.18
948.333	0.19
948.701	0.18
949.069	0.19
949.437	0.19
949.804	0.18
950.172	0.19
950.54	0.19
950.908	0.18
951.275	0.19
951.643	0.19
952.01	0.19
952.378	0.19
952.745	0.19
953.112	0.19
953.479	0.19
953.847	0.18
954.214	0.19
954.581	0.18
954.948	0.19
955.315	0.19
955.682	0.18
956.048	0.19
956.415	0.18
956.782	0.18
957.148	0.18
957.515	0.18
957.881	0.19
958.248	0.18
958.614	0.19
958.981	0.18
959.347	0.18
959.713	0.18
960.079	0.18
960.445	0.18
960.811	0.18
961.177	0.18
961.543	0.18
961.909	0.18
962.275	0.18
962.641	0.18
963.006	0.18
963.372	0.18
963.737	0.18
964.103	0.18
964.468	0.18
964.834	0.18
965.199	0.18
965.564	0.18
965.929	0.18
966.294	0.18
966.659	0.18
967.024	0.18
967.389	0.18
967.754	0.18
968.119	0.18
968.484	0.18
968.848	0.18
969.213	0.18
969.578	0.18
969.942	0.18
970.307	0.18
970.671	0.18
971.035	0.18
971.399	0.18
971.764	0.18
972.128	0.18
972.492	0.18
972.856	0.18
973.22	0.18
973.584	0.18
973.948	0.18
974.311	0.18
974.675	0.18
975.039	0.18
975.402	0.18
975.766	0.18
976.129	0.18
976.493	0.18
976.856	0.18
977.219	0.18
977.582	0.18
977.946	0.18
978.309	0.18
978.672	0.18
979.035	0.18
979.398	0.18
979.761	0.18
980.123	0.17
980.486	0.17
980.849	0.18
981.211	0.18
981.574	0.18
981.936	0.18
982.299	0.17
982.661	0.17
983.023	0.17
983.386	0.17
983.748	0.17
984.11	0.17
984.472	0.17
984.834	0.18
985.196	0.17
985.558	0.17
985.92	0.17
986.281	0.17
986.643	0.17
987.005	0.17
987.366	0.17
987.728	0.17
988.089	0.17
988.451	0.17
988.812	0.17
989.173	0.17
989.534	0.17
989.895	0.17
990.257	0.17
990.618	0.17
990.979	0.17
991.339	0.17
991.7	0.17
992.061	0.17
992.422	0.17
992.782	0.17
993.143	0.17
993.503	0.17
993.864	0.17
994.224	0.17
994.585	0.16
994.945	0.16
995.305	0.16
995.665	0.17
996.025	0.16
996.385	0.16
996.745	0.16
997.105	0.16
997.465	0.16
997.825	0.16
998.185	0.16
998.544	0.16
998.904	0.16
999.263	0.16
999.623	0.16
999.982	0.16
1000.342	0.16
1000.701	0.16
1001.06	0.16
1001.419	0.16
1001.778	0.16
1002.138	0.17
1002.497	0.16
1002.855	0.16
1003.214	0.16
1003.573	0.16
1003.932	0.16
1004.29	0.16
1004.649	0.16
1005.008	0.16
1005.366	0.16
1005.725	0.16
1006.083	0.16
1006.441	0.16
1006.799	0.16
1007.158	0.16
1007.516	0.16
1007.874	0.16
1008.232	0.16
1008.59	0.16
1008.948	0.16
1009.305	0.16
1009.663	0.16
1010.021	0.16
1010.379	0.16
1010.736	0.16
1011.094	0.16
1011.451	0.16
1011.808	0.15
1012.166	0.16
1012.523	0.16
1012.88	0.16
1013.237	0.15
1013.594	0.15
1013.951	0.15
1014.308	0.16
1014.665	0.15
1015.022	0.16
1015.379	0.15
1015.735	0.16
1016.092	0.15
1016.449	0.16
1016.805	0.15
1017.162	0.15
1017.518	0.16
1017.874	0.15
1018.231	0.16
1018.587	0.15
1018.943	0.16
1019.299	0.15
1019.655	0.15
1020.011	0.15
1020.367	0.15
1020.723	0.15
1021.078	0.15
1021.434	0.15
1021.79	0.15
1022.145	0.15
1022.501	0.15
1022.856	0.15
1023.212	0.15
1023.567	0.15
1023.922	0.15
1024.278	0.15
1024.633	0.14
1024.988	0.15
1025.343	0.15
1025.698	0.15
1026.053	0.15
1026.408	0.14
1026.762	0.15
1027.117	0.15
1027.472	0.14
1027.826	0.14
1028.181	0.15
1028.535	0.15
1028.89	0.15
1029.244	0.15
1029.598	0.15
1029.952	0.15
1030.307	0.14
1030.661	0.14
1031.015	0.14
1031.369	0.15
1031.723	0.14
1032.076	0.14
