Data from Rubpy_BV_EDTA_TU(3000)_Blank_Blue_Flow_Absorbance__1824__13-17-06-880.txt Node

Date: Mon Aug 03 13:17:06 BST 2026
User: fpm-admin
Spectrometer: SR600986
Trigger mode: 0
Integration Time (sec): 8.000000E-3
Scans to average: 3
Nonlinearity correction enabled: true
Boxcar width: 0
Storing dark spectrum: false
XAxis mode: Wavelengths
Number of Pixels in Spectrum: 2048
>>>>>Begin Spectral Data<<<<<
188.613	0.27
189.078	0.27
189.542	0.27
190.007	0.27
190.472	0.26
190.936	0.26
191.401	0.27
191.865	0.26
192.33	0.26
192.794	0.27
193.258	0.26
193.723	0.27
194.187	0.26
194.651	0.26
195.115	0.25
195.579	0.27
196.043	0.25
196.507	0.25
196.971	0.28
197.435	0.26
197.899	0.27
198.363	0.26
198.827	0.26
199.29	0.27
199.754	0.27
200.218	0.24
200.681	0.25
201.145	0.28
201.608	0.26
202.072	0.26
202.535	0.27
202.998	0.26
203.462	0.26
203.925	0.26
204.388	0.25
204.851	0.25
205.314	0.27
205.777	0.26
206.24	0.26
206.703	0.28
207.166	0.26
207.629	0.28
208.092	0.26
208.555	0.25
209.018	0.28
209.48	0.26
209.943	0.25
210.406	0.26
210.868	0.25
211.331	0.24
211.793	0.25
212.256	0.27
212.718	0.26
213.18	0.26
213.643	0.26
214.105	0.25
214.567	0.26
215.029	0.27
215.491	0.28
215.953	0.28
216.415	0.25
216.877	0.26
217.339	0.28
217.801	0.26
218.263	0.25
218.725	0.27
219.186	0.27
219.648	0.25
220.11	0.25
220.571	0.27
221.033	0.28
221.494	0.26
221.956	0.27
222.417	0.27
222.878	0.26
223.34	0.27
223.801	0.26
224.262	0.27
224.723	0.25
225.185	0.25
225.646	0.26
226.107	0.27
226.568	0.25
227.029	0.29
227.489	0.25
227.95	0.26
228.411	0.26
228.872	0.28
229.332	0.24
229.793	0.24
230.254	0.26
230.714	0.27
231.175	0.27
231.635	0.24
232.096	0.25
232.556	0.25
233.016	0.25
233.477	0.24
233.937	0.26
234.397	0.26
234.857	0.26
235.317	0.27
235.777	0.24
236.237	0.29
236.697	0.26
237.157	0.27
237.617	0.23
238.077	0.28
238.537	0.26
238.996	0.26
239.456	0.26
239.916	0.26
240.375	0.26
240.835	0.26
241.294	0.27
241.754	0.24
242.213	0.28
242.672	0.26
243.132	0.26
243.591	0.26
244.05	0.27
244.509	0.25
244.968	0.27
245.427	0.28
245.886	0.25
246.345	0.25
246.804	0.25
247.263	0.26
247.722	0.26
248.181	0.28
248.639	0.25
249.098	0.26
249.557	0.27
250.015	0.26
250.474	0.27
250.932	0.28
251.391	0.24
251.849	0.29
252.308	0.27
252.766	0.26
253.224	0.26
253.682	0.28
254.14	0.25
254.599	0.27
255.057	0.26
255.515	0.26
255.973	0.28
256.431	0.27
256.888	0.24
257.346	0.26
257.804	0.26
258.262	0.26
258.719	0.29
259.177	0.27
259.635	0.26
260.092	0.26
260.55	0.26
261.007	0.24
261.465	0.26
261.922	0.27
262.379	0.28
262.836	0.27
263.294	0.27
263.751	0.27
264.208	0.27
264.665	0.25
265.122	0.27
265.579	0.28
266.036	0.27
266.493	0.26
266.95	0.28
267.406	0.25
267.863	0.26
268.32	0.24
268.777	0.25
269.233	0.26
269.69	0.29
270.146	0.28
270.603	0.26
271.059	0.24
271.515	0.24
271.972	0.26
272.428	0.24
272.884	0.29
273.34	0.25
273.796	0.24
274.253	0.26
274.709	0.27
275.165	0.26
275.62	0.28
276.076	0.26
276.532	0.26
276.988	0.27
277.444	0.27
277.899	0.27
278.355	0.27
278.811	0.25
279.266	0.27
279.722	0.27
280.177	0.25
280.633	0.27
281.088	0.26
281.543	0.28
281.998	0.26
282.454	0.26
282.909	0.26
283.364	0.27
283.819	0.28
284.274	0.26
284.729	0.27
285.184	0.26
285.639	0.24
286.094	0.29
286.548	0.27
287.003	0.26
287.458	0.24
287.913	0.27
288.367	0.27
288.822	0.27
289.276	0.27
289.731	0.25
290.185	0.26
290.639	0.26
291.094	0.26
291.548	0.28
292.002	0.28
292.456	0.28
292.91	0.26
293.365	0.25
293.819	0.28
294.273	0.27
294.726	0.26
295.18	0.25
295.634	0.3
296.088	0.25
296.542	0.27
296.995	0.27
297.449	0.26
297.903	0.27
298.356	0.27
298.81	0.25
299.263	0.27
299.716	0.26
300.17	0.27
300.623	0.24
301.076	0.29
301.53	0.26
301.983	0.27
302.436	0.28
302.889	0.26
303.342	0.28
303.795	0.26
304.248	0.28
304.701	0.27
305.153	0.27
305.606	0.28
306.059	0.26
306.512	0.27
306.964	0.28
307.417	0.26
307.869	0.27
308.322	0.28
308.774	0.25
309.227	0.28
309.679	0.27
310.131	0.27
310.584	0.28
311.036	0.28
311.488	0.26
311.94	0.29
312.392	0.27
312.844	0.27
313.296	0.29
313.748	0.29
314.2	0.29
314.652	0.27
315.103	0.31
315.555	0.3
316.007	0.3
316.458	0.29
316.91	0.32
317.361	0.29
317.813	0.33
318.264	0.3
318.716	0.28
319.167	0.31
319.618	0.33
320.07	0.34
320.521	0.33
320.972	0.36
321.423	0.34
321.874	0.34
322.325	0.35
322.776	0.37
323.227	0.36
323.678	0.37
324.128	0.37
324.579	0.39
325.03	0.41
325.48	0.41
325.931	0.41
326.382	0.42
326.832	0.44
327.283	0.46
327.733	0.48
328.183	0.49
328.634	0.51
329.084	0.53
329.534	0.55
329.984	0.55
330.434	0.56
330.884	0.58
331.334	0.61
331.784	0.63
332.234	0.63
332.684	0.65
333.134	0.66
333.584	0.68
334.034	0.7
334.483	0.7
334.933	0.74
335.382	0.75
335.832	0.77
336.281	0.78
336.731	0.8
337.18	0.81
337.63	0.82
338.079	0.85
338.528	0.88
338.977	0.89
339.426	0.92
339.876	0.93
340.325	0.95
340.774	0.95
341.223	0.97
341.671	1
342.12	1
342.569	1.02
343.018	1.05
343.467	1.04
343.915	1.08
344.364	1.08
344.812	1.09
345.261	1.11
345.709	1.12
346.158	1.14
346.606	1.13
347.054	1.16
347.503	1.18
347.951	1.17
348.399	1.18
348.847	1.2
349.295	1.2
349.743	1.21
350.191	1.22
350.639	1.24
351.087	1.25
351.535	1.24
351.983	1.27
352.43	1.26
352.878	1.29
353.326	1.29
353.773	1.3
354.221	1.32
354.668	1.32
355.116	1.34
355.563	1.36
356.01	1.36
356.458	1.36
356.905	1.37
357.352	1.41
357.799	1.4
358.246	1.42
358.693	1.43
359.14	1.47
359.587	1.42
360.034	1.46
360.481	1.48
360.928	1.47
361.375	1.49
361.821	1.49
362.268	1.51
362.714	1.54
363.161	1.55
363.608	1.55
364.054	1.55
364.5	1.55
364.947	1.56
365.393	1.58
365.839	1.57
366.285	1.59
366.732	1.58
367.178	1.61
367.624	1.58
368.07	1.62
368.516	1.62
368.962	1.62
369.408	1.64
369.853	1.6
370.299	1.61
370.745	1.59
371.19	1.6
371.636	1.6
372.082	1.6
372.527	1.57
372.973	1.6
373.418	1.61
373.863	1.6
374.309	1.59
374.754	1.59
375.199	1.58
375.644	1.58
376.09	1.57
376.535	1.57
376.98	1.56
377.425	1.56
377.87	1.55
378.314	1.54
378.759	1.52
379.204	1.52
379.649	1.48
380.093	1.48
380.538	1.46
380.983	1.44
381.427	1.42
381.872	1.39
382.316	1.37
382.76	1.34
383.205	1.32
383.649	1.29
384.093	1.28
384.537	1.24
384.982	1.22
385.426	1.2
385.87	1.19
386.314	1.16
386.758	1.13
387.201	1.1
387.645	1.08
388.089	1.06
388.533	1.03
388.976	1.02
389.42	1
389.864	0.97
390.307	0.94
390.751	0.92
391.194	0.92
391.638	0.88
392.081	0.87
392.524	0.86
392.967	0.84
393.411	0.83
393.854	0.81
394.297	0.81
394.74	0.8
395.183	0.78
395.626	0.77
396.069	0.77
396.512	0.76
396.954	0.77
397.397	0.77
397.84	0.76
398.282	0.76
398.725	0.76
399.168	0.76
399.61	0.75
400.052	0.75
400.495	0.74
400.937	0.73
401.38	0.71
401.822	0.7
402.264	0.69
402.706	0.68
403.148	0.65
403.59	0.63
404.032	0.61
404.474	0.59
404.916	0.57
405.358	0.56
405.8	0.54
406.241	0.52
406.683	0.5
407.125	0.47
407.566	0.45
408.008	0.44
408.449	0.43
408.891	0.41
409.332	0.41
409.774	0.39
410.215	0.37
410.656	0.36
411.097	0.35
411.539	0.34
411.98	0.32
412.421	0.32
412.862	0.31
413.303	0.28
413.744	0.29
414.184	0.27
414.625	0.28
415.066	0.26
415.507	0.26
415.947	0.26
416.388	0.25
416.828	0.24
417.269	0.25
417.709	0.25
418.15	0.23
418.59	0.25
419.03	0.23
419.471	0.23
419.911	0.22
420.351	0.23
420.791	0.21
421.231	0.22
421.671	0.21
422.111	0.21
422.551	0.22
422.991	0.23
423.431	0.21
423.87	0.21
424.31	0.21
424.75	0.22
425.189	0.2
425.629	0.21
426.068	0.2
426.508	0.2
426.947	0.22
427.386	0.21
427.826	0.22
428.265	0.22
428.704	0.2
429.143	0.22
429.582	0.21
430.021	0.23
430.46	0.22
430.899	0.2
431.338	0.21
431.777	0.2
432.216	0.21
432.655	0.22
433.093	0.22
433.532	0.23
433.971	0.21
434.409	0.21
434.848	0.22
435.286	0.23
435.724	0.21
436.163	0.23
436.601	0.23
437.039	0.24
437.477	0.23
437.916	0.22
438.354	0.24
438.792	0.22
439.23	0.23
439.668	0.23
440.105	0.24
440.543	0.23
440.981	0.24
441.419	0.23
441.856	0.23
442.294	0.25
442.732	0.23
443.169	0.24
443.607	0.24
444.044	0.25
444.481	0.25
444.919	0.25
445.356	0.24
445.793	0.25
446.23	0.26
446.668	0.25
447.105	0.28
447.542	0.27
447.979	0.25
448.416	0.27
448.852	0.28
449.289	0.25
449.726	0.28
450.163	0.26
450.599	0.26
451.036	0.26
451.473	0.28
451.909	0.27
452.346	0.27
452.782	0.28
453.218	0.26
453.655	0.28
454.091	0.28
454.527	0.29
454.963	0.28
455.399	0.28
455.835	0.3
456.271	0.28
456.707	0.28
457.143	0.28
457.579	0.28
458.015	0.26
458.451	0.29
458.886	0.28
459.322	0.27
459.758	0.29
460.193	0.33
460.629	0.3
461.064	0.3
461.5	0.32
461.935	0.3
462.37	0.3
462.805	0.31
463.241	0.32
463.676	0.32
464.111	0.32
464.546	0.34
464.981	0.32
465.416	0.33
465.851	0.33
466.286	0.34
466.72	0.34
467.155	0.36
467.59	0.34
468.024	0.36
468.459	0.35
468.893	0.37
469.328	0.38
469.762	0.36
470.197	0.38
470.631	0.39
471.065	0.39
471.5	0.41
471.934	0.41
472.368	0.4
472.802	0.42
473.236	0.43
473.67	0.44
474.104	0.45
474.538	0.46
474.972	0.46
475.405	0.46
475.839	0.48
476.273	0.48
476.706	0.48
477.14	0.51
477.573	0.51
478.007	0.52
478.44	0.52
478.874	0.51
479.307	0.53
479.74	0.53
480.173	0.55
480.606	0.56
481.04	0.57
481.473	0.57
481.906	0.58
482.339	0.58
482.771	0.59
483.204	0.59
483.637	0.6
484.07	0.61
484.502	0.62
484.935	0.63
485.368	0.63
485.8	0.64
486.233	0.65
486.665	0.65
487.098	0.66
487.53	0.67
487.962	0.66
488.394	0.67
488.827	0.68
489.259	0.69
489.691	0.69
490.123	0.69
490.555	0.7
490.987	0.71
491.418	0.72
491.85	0.72
492.282	0.73
492.714	0.74
493.145	0.74
493.577	0.74
494.009	0.74
494.44	0.76
494.872	0.77
495.303	0.77
495.734	0.78
496.166	0.78
496.597	0.79
497.028	0.79
497.459	0.8
497.89	0.81
498.321	0.81
498.752	0.81
499.183	0.83
499.614	0.83
500.045	0.83
500.476	0.84
500.906	0.85
501.337	0.85
501.768	0.86
502.198	0.85
502.629	0.87
503.059	0.88
503.49	0.88
503.92	0.89
504.35	0.9
504.781	0.89
505.211	0.9
505.641	0.91
506.071	0.9
506.501	0.92
506.931	0.92
507.361	0.93
507.791	0.93
508.221	0.94
508.651	0.94
509.081	0.95
509.51	0.95
509.94	0.96
510.37	0.96
510.799	0.97
511.229	0.97
511.658	0.97
512.087	0.97
512.517	0.98
512.946	0.98
513.375	0.99
513.804	1
514.234	1
514.663	1
515.092	1
515.521	1.01
515.95	1.01
516.378	1.01
516.807	1.02
517.236	1.03
517.665	1.03
518.093	1.03
518.522	1.03
518.951	1.04
519.379	1.03
519.807	1.04
520.236	1.04
520.664	1.04
521.093	1.05
521.521	1.05
521.949	1.05
522.377	1.06
522.805	1.07
523.233	1.06
523.661	1.07
524.089	1.06
524.517	1.08
524.945	1.08
525.373	1.08
525.8	1.07
526.228	1.08
526.656	1.08
527.083	1.08
527.511	1.09
527.938	1.09
528.366	1.08
528.793	1.09
529.22	1.09
529.648	1.1
530.075	1.09
530.502	1.1
530.929	1.1
531.356	1.09
531.783	1.11
532.21	1.11
532.637	1.1
533.064	1.1
533.49	1.09
533.917	1.11
534.344	1.11
534.771	1.11
535.197	1.11
535.624	1.11
536.05	1.11
536.477	1.11
536.903	1.11
537.329	1.11
537.755	1.11
538.182	1.11
538.608	1.11
539.034	1.12
539.46	1.12
539.886	1.11
540.312	1.12
540.738	1.12
541.164	1.1
541.589	1.11
542.015	1.11
542.441	1.11
542.867	1.11
543.292	1.11
543.718	1.11
544.143	1.11
544.569	1.11
544.994	1.11
545.419	1.11
545.845	1.11
546.27	1.11
546.695	1.1
547.12	1.1
547.545	1.1
547.97	1.1
548.395	1.1
548.82	1.1
549.245	1.1
549.67	1.09
550.094	1.09
550.519	1.09
550.944	1.09
551.368	1.09
551.793	1.08
552.217	1.08
552.642	1.08
553.066	1.08
553.49	1.08
553.915	1.08
554.339	1.07
554.763	1.07
555.187	1.07
555.611	1.07
556.035	1.07
556.459	1.06
556.883	1.05
557.307	1.06
557.731	1.06
558.154	1.05
558.578	1.04
559.002	1.04
559.425	1.04
559.849	1.04
560.272	1.04
560.696	1.03
561.119	1.04
561.543	1.03
561.966	1.03
562.389	1.02
562.812	1.02
563.235	1.01
563.658	1.01
564.081	1.01
564.504	1
564.927	1
565.35	1
565.773	0.99
566.196	1
566.618	1
567.041	0.98
567.463	0.98
567.886	0.99
568.309	0.98
568.731	0.98
569.153	0.98
569.576	0.97
569.998	0.97
570.42	0.97
570.842	0.97
571.264	0.96
571.686	0.96
572.108	0.96
572.53	0.95
572.952	0.95
573.374	0.94
573.796	0.94
574.218	0.94
574.639	0.93
575.061	0.93
575.483	0.92
575.904	0.92
576.326	0.92
576.747	0.91
577.168	0.91
577.59	0.91
578.011	0.9
578.432	0.9
578.853	0.9
579.274	0.89
579.695	0.89
580.116	0.89
580.537	0.88
580.958	0.88
581.379	0.87
581.8	0.87
582.221	0.87
582.641	0.87
583.062	0.86
583.482	0.86
583.903	0.85
584.323	0.85
584.744	0.85
585.164	0.84
585.584	0.84
586.005	0.84
586.425	0.83
586.845	0.83
587.265	0.83
587.685	0.82
588.105	0.82
588.525	0.82
588.945	0.82
589.365	0.81
589.785	0.81
590.204	0.81
590.624	0.8
591.044	0.8
591.463	0.79
591.883	0.8
592.302	0.8
592.721	0.79
593.141	0.79
593.56	0.78
593.979	0.78
594.399	0.77
594.818	0.77
595.237	0.77
595.656	0.77
596.075	0.77
596.494	0.76
596.913	0.76
597.331	0.75
597.75	0.75
598.169	0.75
598.587	0.75
599.006	0.74
599.425	0.74
599.843	0.74
600.262	0.73
600.68	0.73
601.098	0.73
601.517	0.73
601.935	0.72
602.353	0.72
602.771	0.72
603.189	0.71
603.607	0.71
604.025	0.71
604.443	0.71
604.861	0.7
605.279	0.7
605.696	0.69
606.114	0.69
606.532	0.69
606.949	0.68
607.367	0.68
607.784	0.68
608.202	0.68
608.619	0.67
609.036	0.67
609.454	0.66
609.871	0.67
610.288	0.66
610.705	0.65
611.122	0.65
611.539	0.65
611.956	0.65
612.373	0.64
612.79	0.64
613.207	0.63
613.623	0.63
614.04	0.63
614.457	0.62
614.873	0.62
615.29	0.62
615.706	0.62
616.122	0.61
616.539	0.61
616.955	0.61
617.371	0.6
617.788	0.6
618.204	0.59
618.62	0.59
619.036	0.59
619.452	0.59
619.868	0.58
620.284	0.58
620.699	0.58
621.115	0.57
621.531	0.57
621.946	0.57
622.362	0.56
622.778	0.56
623.193	0.56
623.608	0.55
624.024	0.55
624.439	0.55
624.854	0.54
625.27	0.54
625.685	0.53
626.1	0.53
626.515	0.53
626.93	0.53
627.345	0.52
627.76	0.52
628.175	0.52
628.589	0.51
629.004	0.5
629.419	0.5
629.833	0.5
630.248	0.5
630.663	0.49
631.077	0.49
631.491	0.49
631.906	0.49
632.32	0.48
632.734	0.48
633.148	0.47
633.563	0.47
633.977	0.46
634.391	0.47
634.805	0.46
635.219	0.45
635.632	0.45
636.046	0.45
636.46	0.45
636.874	0.44
637.287	0.44
637.701	0.44
638.115	0.43
638.528	0.43
638.941	0.43
639.355	0.42
639.768	0.42
640.181	0.41
640.595	0.41
641.008	0.41
641.421	0.41
641.834	0.4
642.247	0.4
642.66	0.4
643.073	0.39
643.486	0.39
643.898	0.39
644.311	0.39
644.724	0.38
645.136	0.38
645.549	0.38
645.961	0.37
646.374	0.37
646.786	0.37
647.199	0.37
647.611	0.36
648.023	0.36
648.435	0.36
648.847	0.36
649.26	0.35
649.672	0.35
650.084	0.35
650.495	0.35
650.907	0.34
651.319	0.34
651.731	0.34
652.143	0.34
652.554	0.33
652.966	0.33
653.377	0.33
653.789	0.33
654.2	0.32
654.612	0.32
655.023	0.33
655.434	0.31
655.845	0.3
656.256	0.31
656.668	0.32
657.079	0.31
657.49	0.31
657.901	0.31
658.311	0.3
658.722	0.3
659.133	0.3
659.544	0.3
659.954	0.3
660.365	0.29
660.775	0.29
661.186	0.29
661.596	0.29
662.007	0.29
662.417	0.28
662.827	0.28
663.238	0.28
663.648	0.28
664.058	0.28
664.468	0.27
664.878	0.27
665.288	0.27
665.698	0.27
666.108	0.26
666.517	0.26
666.927	0.26
667.337	0.26
667.746	0.26
668.156	0.25
668.565	0.25
668.975	0.25
669.384	0.25
669.794	0.25
670.203	0.25
670.612	0.24
671.021	0.24
671.43	0.24
671.84	0.24
672.249	0.23
672.658	0.23
673.066	0.23
673.475	0.23
673.884	0.23
674.293	0.23
674.702	0.22
675.11	0.22
675.519	0.22
675.927	0.22
676.336	0.21
676.744	0.21
677.152	0.21
677.561	0.21
677.969	0.2
678.377	0.2
678.785	0.2
679.193	0.2
679.601	0.2
680.009	0.2
680.417	0.19
680.825	0.19
681.233	0.19
681.641	0.19
682.048	0.18
682.456	0.18
682.864	0.18
683.271	0.18
683.679	0.18
684.086	0.18
684.493	0.17
684.901	0.17
685.308	0.17
685.715	0.17
686.122	0.16
686.529	0.17
686.936	0.16
687.343	0.16
687.75	0.16
688.157	0.16
688.564	0.15
688.971	0.15
689.378	0.15
689.784	0.15
690.191	0.15
690.597	0.15
691.004	0.15
691.41	0.14
691.817	0.14
692.223	0.14
692.629	0.14
693.035	0.14
693.442	0.14
693.848	0.14
694.254	0.14
694.66	0.13
695.066	0.13
695.471	0.13
695.877	0.13
696.283	0.13
696.689	0.13
697.094	0.13
697.5	0.13
697.906	0.13
698.311	0.12
698.716	0.12
699.122	0.12
699.527	0.12
699.932	0.12
700.338	0.12
700.743	0.12
701.148	0.12
701.553	0.12
701.958	0.12
702.363	0.12
702.768	0.12
703.173	0.11
703.577	0.11
703.982	0.11
704.387	0.11
704.791	0.11
705.196	0.11
705.6	0.11
706.005	0.11
706.409	0.11
706.814	0.11
707.218	0.11
707.622	0.11
708.026	0.11
708.43	0.11
708.834	0.11
709.238	0.1
709.642	0.11
710.046	0.11
710.45	0.1
710.854	0.11
711.257	0.1
711.661	0.1
712.065	0.1
712.468	0.11
712.872	0.1
713.275	0.1
713.679	0.1
714.082	0.1
714.485	0.1
714.888	0.1
715.291	0.1
715.695	0.1
716.098	0.1
716.501	0.1
716.904	0.1
717.306	0.1
717.709	0.1
718.112	0.1
718.515	0.1
718.917	0.1
719.32	0.1
719.723	0.1
720.125	0.1
720.527	0.1
720.93	0.1
721.332	0.1
721.734	0.1
722.137	0.1
722.539	0.1
722.941	0.1
723.343	0.1
723.745	0.1
724.147	0.1
724.549	0.1
724.95	0.1
725.352	0.1
725.754	0.1
726.156	0.1
726.557	0.1
726.959	0.1
727.36	0.1
727.762	0.1
728.163	0.1
728.564	0.1
728.966	0.1
729.367	0.1
729.768	0.1
730.169	0.1
730.57	0.1
730.971	0.1
731.372	0.1
731.773	0.1
732.174	0.1
732.574	0.09
732.975	0.09
733.376	0.1
733.776	0.1
734.177	0.1
734.577	0.1
734.978	0.1
735.378	0.1
735.778	0.1
736.179	0.09
736.579	0.09
736.979	0.09
737.379	0.09
737.779	0.09
738.179	0.09
738.579	0.09
738.979	0.09
739.379	0.09
739.778	0.09
740.178	0.09
740.578	0.09
740.977	0.09
741.377	0.09
741.776	0.09
742.176	0.09
742.575	0.09
742.974	0.09
743.374	0.09
743.773	0.09
744.172	0.08
744.571	0.09
744.97	0.08
745.369	0.09
745.768	0.08
746.167	0.09
746.565	0.08
746.964	0.08
747.363	0.08
747.761	0.08
748.16	0.08
748.559	0.08
748.957	0.08
749.355	0.08
749.754	0.08
750.152	0.08
750.55	0.08
750.948	0.08
751.347	0.08
751.745	0.08
752.143	0.08
752.541	0.08
752.938	0.08
753.336	0.08
753.734	0.08
754.132	0.08
754.529	0.08
754.927	0.08
755.325	0.08
755.722	0.08
756.119	0.08
756.517	0.08
756.914	0.08
757.311	0.08
757.709	0.07
758.106	0.08
758.503	0.08
758.9	0.08
759.297	0.08
759.694	0.08
760.091	0.08
760.488	0.08
760.884	0.08
761.281	0.08
761.678	0.08
762.074	0.08
762.471	0.08
762.867	0.08
763.264	0.08
763.66	0.08
764.056	0.08
764.453	0.08
764.849	0.08
765.245	0.08
765.641	0.08
766.037	0.08
766.433	0.08
766.829	0.08
767.225	0.08
767.621	0.08
768.016	0.08
768.412	0.08
768.808	0.08
769.203	0.08
769.599	0.08
769.994	0.08
770.389	0.08
770.785	0.08
771.18	0.08
771.575	0.08
771.971	0.08
772.366	0.08
772.761	0.08
773.156	0.08
773.551	0.08
773.945	0.08
774.34	0.08
774.735	0.08
775.13	0.08
775.524	0.08
775.919	0.08
776.314	0.09
776.708	0.08
777.103	0.09
777.497	0.09
777.891	0.09
778.285	0.09
778.68	0.09
779.074	0.09
779.468	0.09
779.862	0.09
780.256	0.09
780.65	0.09
781.044	0.09
781.438	0.09
781.831	0.09
782.225	0.09
782.619	0.09
783.012	0.09
783.406	0.09
783.799	0.09
784.193	0.09
784.586	0.09
784.979	0.1
785.372	0.1
785.766	0.1
786.159	0.1
786.552	0.1
786.945	0.1
787.338	0.1
787.731	0.1
788.123	0.1
788.516	0.1
788.909	0.1
789.302	0.1
789.694	0.1
790.087	0.1
790.479	0.1
790.872	0.1
791.264	0.1
791.656	0.1
792.049	0.1
792.441	0.1
792.833	0.11
793.225	0.1
793.617	0.11
794.009	0.11
794.401	0.11
794.793	0.11
795.185	0.11
795.576	0.11
795.968	0.11
796.36	0.11
796.751	0.11
797.143	0.11
797.534	0.11
797.926	0.11
798.317	0.11
798.708	0.11
799.1	0.12
799.491	0.11
799.882	0.12
800.273	0.12
800.664	0.12
801.055	0.12
801.446	0.12
801.837	0.12
802.227	0.12
802.618	0.12
803.009	0.12
803.399	0.12
803.79	0.12
804.18	0.12
804.571	0.12
804.961	0.12
805.351	0.13
805.742	0.13
806.132	0.12
806.522	0.13
806.912	0.13
807.302	0.13
807.692	0.13
808.082	0.13
808.472	0.13
808.862	0.13
809.251	0.13
809.641	0.13
810.031	0.14
810.42	0.13
810.81	0.14
811.199	0.14
811.589	0.14
811.978	0.14
812.367	0.14
812.756	0.14
813.146	0.14
813.535	0.14
813.924	0.14
814.313	0.14
814.702	0.14
815.091	0.15
815.479	0.15
815.868	0.14
816.257	0.15
816.645	0.15
817.034	0.15
817.423	0.15
817.811	0.15
818.199	0.15
818.588	0.15
818.976	0.15
819.364	0.15
819.753	0.16
820.141	0.15
820.529	0.16
820.917	0.16
821.305	0.16
821.693	0.16
822.08	0.16
822.468	0.16
822.856	0.16
823.244	0.16
823.631	0.16
824.019	0.16
824.406	0.16
824.794	0.16
825.181	0.17
825.568	0.17
825.956	0.17
826.343	0.17
826.73	0.17
827.117	0.17
827.504	0.17
827.891	0.17
828.278	0.17
828.665	0.17
829.052	0.17
829.438	0.17
829.825	0.18
830.212	0.18
830.598	0.18
830.985	0.18
831.371	0.18
831.757	0.18
832.144	0.18
832.53	0.18
832.916	0.18
833.302	0.19
833.688	0.19
834.075	0.19
834.461	0.19
834.846	0.19
835.232	0.19
835.618	0.19
836.004	0.19
836.39	0.19
836.775	0.19
837.161	0.19
837.546	0.19
837.932	0.2
838.317	0.19
838.702	0.19
839.088	0.2
839.473	0.2
839.858	0.2
840.243	0.2
840.628	0.2
841.013	0.2
841.398	0.2
841.783	0.21
842.168	0.21
842.553	0.21
842.937	0.21
843.322	0.2
843.707	0.2
844.091	0.21
844.476	0.21
844.86	0.21
845.244	0.21
845.629	0.21
846.013	0.21
846.397	0.21
846.781	0.21
847.165	0.22
847.549	0.22
847.933	0.22
848.317	0.22
848.701	0.22
849.085	0.22
849.468	0.22
849.852	0.22
850.236	0.23
850.619	0.22
851.003	0.22
851.386	0.23
851.769	0.23
852.153	0.23
852.536	0.23
852.919	0.23
853.302	0.23
853.685	0.23
854.068	0.23
854.451	0.23
854.834	0.24
855.217	0.24
855.6	0.23
855.982	0.23
856.365	0.24
856.748	0.24
857.13	0.24
857.513	0.24
857.895	0.24
858.277	0.24
858.66	0.24
859.042	0.24
859.424	0.24
859.806	0.24
860.188	0.25
860.57	0.24
860.952	0.25
861.334	0.25
861.716	0.25
862.098	0.25
862.48	0.25
862.861	0.25
863.243	0.25
863.624	0.25
864.006	0.25
864.387	0.25
864.769	0.26
865.15	0.26
865.531	0.26
865.912	0.26
866.294	0.26
866.675	0.26
867.056	0.26
867.437	0.26
867.818	0.26
868.198	0.26
868.579	0.26
868.96	0.26
869.341	0.26
869.721	0.27
870.102	0.27
870.482	0.27
870.863	0.27
871.243	0.27
871.623	0.27
872.003	0.27
872.384	0.27
872.764	0.27
873.144	0.27
873.524	0.27
873.904	0.28
874.284	0.28
874.664	0.27
875.043	0.28
875.423	0.28
875.803	0.28
876.182	0.28
876.562	0.28
876.941	0.28
877.321	0.28
877.7	0.28
878.079	0.28
878.459	0.28
878.838	0.28
879.217	0.28
879.596	0.29
879.975	0.29
880.354	0.29
880.733	0.29
881.112	0.29
881.491	0.29
881.869	0.29
882.248	0.29
882.627	0.29
883.005	0.29
883.384	0.29
883.762	0.29
884.14	0.29
884.519	0.3
884.897	0.3
885.275	0.3
885.653	0.3
886.031	0.3
886.409	0.3
886.787	0.3
887.165	0.3
887.543	0.3
887.921	0.3
888.298	0.3
888.676	0.3
889.054	0.3
889.431	0.3
889.809	0.3
890.186	0.31
890.563	0.31
890.941	0.3
891.318	0.3
891.695	0.31
892.072	0.31
892.449	0.31
892.826	0.31
893.203	0.31
893.58	0.31
893.957	0.31
894.334	0.31
894.71	0.31
895.087	0.31
895.464	0.31
895.84	0.31
896.217	0.31
896.593	0.32
896.969	0.31
897.346	0.31
897.722	0.31
898.098	0.32
898.474	0.32
898.85	0.32
899.226	0.32
899.602	0.32
899.978	0.32
900.354	0.32
900.73	0.32
901.105	0.32
901.481	0.32
901.857	0.32
902.232	0.32
902.608	0.32
902.983	0.32
903.358	0.32
903.734	0.32
904.109	0.33
904.484	0.33
904.859	0.32
905.234	0.33
905.609	0.32
905.984	0.33
906.359	0.33
906.734	0.33
907.108	0.33
907.483	0.33
907.858	0.33
908.232	0.33
908.607	0.33
908.981	0.32
909.356	0.32
909.73	0.33
910.104	0.33
910.478	0.33
910.853	0.33
911.227	0.33
911.601	0.33
911.975	0.33
912.349	0.33
912.722	0.33
913.096	0.33
913.47	0.33
913.844	0.33
914.217	0.33
914.591	0.33
914.964	0.33
915.338	0.33
915.711	0.33
916.084	0.34
916.458	0.34
916.831	0.34
917.204	0.33
917.577	0.33
917.95	0.33
918.323	0.33
918.696	0.34
919.069	0.33
919.441	0.34
919.814	0.34
920.187	0.34
920.559	0.34
920.932	0.33
921.304	0.33
921.677	0.34
922.049	0.34
922.421	0.34
922.794	0.34
923.166	0.34
923.538	0.34
923.91	0.34
924.282	0.34
924.654	0.34
925.026	0.34
925.398	0.34
925.769	0.34
926.141	0.34
926.513	0.34
926.884	0.34
927.256	0.34
927.627	0.34
927.999	0.34
928.37	0.34
928.741	0.34
929.113	0.34
929.484	0.34
929.855	0.34
930.226	0.34
930.597	0.34
930.968	0.34
931.339	0.34
931.709	0.34
932.08	0.34
932.451	0.34
932.821	0.34
933.192	0.34
933.562	0.34
933.933	0.34
934.303	0.34
934.673	0.34
935.044	0.34
935.414	0.34
935.784	0.34
936.154	0.35
936.524	0.34
936.894	0.34
937.264	0.34
937.634	0.34
938.004	0.34
938.373	0.35
938.743	0.34
939.113	0.35
939.482	0.34
939.852	0.34
940.221	0.34
940.59	0.34
940.96	0.34
941.329	0.34
941.698	0.34
942.067	0.34
942.436	0.35
942.805	0.35
943.174	0.34
943.543	0.34
943.912	0.34
944.28	0.34
944.649	0.34
945.018	0.34
945.386	0.34
945.755	0.35
946.123	0.34
946.492	0.35
946.86	0.34
947.228	0.34
947.596	0.34
947.965	0.34
948.333	0.34
948.701	0.34
949.069	0.35
949.437	0.35
949.804	0.34
950.172	0.35
950.54	0.35
950.908	0.34
951.275	0.35
951.643	0.34
952.01	0.34
952.378	0.35
952.745	0.35
953.112	0.34
953.479	0.34
953.847	0.34
954.214	0.34
954.581	0.34
954.948	0.35
955.315	0.34
955.682	0.34
956.048	0.34
956.415	0.34
956.782	0.34
957.148	0.34
957.515	0.34
957.881	0.34
958.248	0.34
958.614	0.34
958.981	0.34
959.347	0.34
959.713	0.34
960.079	0.34
960.445	0.34
960.811	0.34
961.177	0.34
961.543	0.34
961.909	0.34
962.275	0.34
962.641	0.34
963.006	0.34
963.372	0.34
963.737	0.34
964.103	0.34
964.468	0.34
964.834	0.33
965.199	0.34
965.564	0.33
965.929	0.34
966.294	0.33
966.659	0.34
967.024	0.34
967.389	0.33
967.754	0.33
968.119	0.33
968.484	0.33
968.848	0.34
969.213	0.34
969.578	0.33
969.942	0.34
970.307	0.33
970.671	0.33
971.035	0.33
971.399	0.33
971.764	0.33
972.128	0.33
972.492	0.33
972.856	0.33
973.22	0.33
973.584	0.33
973.948	0.33
974.311	0.33
974.675	0.34
975.039	0.33
975.402	0.33
975.766	0.33
976.129	0.33
976.493	0.33
976.856	0.33
977.219	0.33
977.582	0.32
977.946	0.33
978.309	0.33
978.672	0.32
979.035	0.33
979.398	0.32
979.761	0.32
980.123	0.32
980.486	0.33
980.849	0.32
981.211	0.33
981.574	0.33
981.936	0.32
982.299	0.33
982.661	0.32
983.023	0.32
983.386	0.32
983.748	0.32
984.11	0.32
984.472	0.32
984.834	0.32
985.196	0.32
985.558	0.32
985.92	0.32
986.281	0.32
986.643	0.32
987.005	0.32
987.366	0.32
987.728	0.32
988.089	0.32
988.451	0.32
988.812	0.32
989.173	0.31
989.534	0.32
989.895	0.31
990.257	0.32
990.618	0.32
990.979	0.32
991.339	0.32
991.7	0.32
992.061	0.31
992.422	0.31
992.782	0.31
993.143	0.31
993.503	0.32
993.864	0.31
994.224	0.31
994.585	0.31
994.945	0.31
995.305	0.31
995.665	0.31
996.025	0.31
996.385	0.31
996.745	0.31
997.105	0.3
997.465	0.31
997.825	0.31
998.185	0.31
998.544	0.31
998.904	0.31
999.263	0.31
999.623	0.31
999.982	0.31
1000.342	0.3
1000.701	0.31
1001.06	0.31
1001.419	0.3
1001.778	0.31
1002.138	0.3
1002.497	0.3
1002.855	0.3
1003.214	0.3
1003.573	0.3
1003.932	0.3
1004.29	0.3
1004.649	0.3
1005.008	0.3
1005.366	0.3
1005.725	0.3
1006.083	0.3
1006.441	0.3
1006.799	0.3
1007.158	0.3
1007.516	0.29
1007.874	0.3
1008.232	0.3
1008.59	0.3
1008.948	0.29
1009.305	0.3
1009.663	0.29
1010.021	0.29
1010.379	0.3
1010.736	0.29
1011.094	0.29
1011.451	0.29
1011.808	0.29
1012.166	0.3
1012.523	0.29
1012.88	0.29
1013.237	0.29
1013.594	0.29
1013.951	0.29
1014.308	0.29
1014.665	0.29
1015.022	0.29
1015.379	0.29
1015.735	0.29
1016.092	0.29
1016.449	0.29
1016.805	0.29
1017.162	0.28
1017.518	0.29
1017.874	0.29
1018.231	0.29
1018.587	0.28
1018.943	0.29
1019.299	0.29
1019.655	0.28
1020.011	0.29
1020.367	0.28
1020.723	0.28
1021.078	0.28
1021.434	0.28
1021.79	0.28
1022.145	0.28
1022.501	0.28
1022.856	0.28
1023.212	0.28
1023.567	0.28
1023.922	0.28
1024.278	0.28
1024.633	0.27
1024.988	0.28
1025.343	0.28
1025.698	0.28
1026.053	0.28
1026.408	0.27
1026.762	0.28
1027.117	0.27
1027.472	0.28
1027.826	0.27
1028.181	0.28
1028.535	0.28
1028.89	0.28
1029.244	0.27
1029.598	0.27
1029.952	0.28
1030.307	0.27
1030.661	0.27
1031.015	0.26
1031.369	0.27
1031.723	0.27
1032.076	0.27
