Data from Rubpy_BV_EDTA_TU(3000)_Blank_Blue_Flow_Absorbance__372__12-52-54-858.txt Node

Date: Mon Aug 03 12:52:54 BST 2026
User: fpm-admin
Spectrometer: SR600986
Trigger mode: 0
Integration Time (sec): 8.000000E-3
Scans to average: 3
Nonlinearity correction enabled: true
Boxcar width: 0
Storing dark spectrum: false
XAxis mode: Wavelengths
Number of Pixels in Spectrum: 2048
>>>>>Begin Spectral Data<<<<<
188.613	0.1
189.078	0.12
189.542	0.13
190.007	0.12
190.472	0.11
190.936	0.11
191.401	0.11
191.865	0.1
192.33	0.12
192.794	0.11
193.258	0.12
193.723	0.11
194.187	0.12
194.651	0.1
195.115	0.1
195.579	0.14
196.043	0.09
196.507	0.11
196.971	0.12
197.435	0.1
197.899	0.11
198.363	0.1
198.827	0.12
199.29	0.1
199.754	0.11
200.218	0.12
200.681	0.1
201.145	0.11
201.608	0.11
202.072	0.12
202.535	0.12
202.998	0.12
203.462	0.14
203.925	0.11
204.388	0.09
204.851	0.11
205.314	0.11
205.777	0.1
206.24	0.11
206.703	0.13
207.166	0.1
207.629	0.1
208.092	0.11
208.555	0.09
209.018	0.13
209.48	0.1
209.943	0.11
210.406	0.11
210.868	0.09
211.331	0.1
211.793	0.11
212.256	0.12
212.718	0.11
213.18	0.13
213.643	0.11
214.105	0.11
214.567	0.1
215.029	0.12
215.491	0.1
215.953	0.11
216.415	0.1
216.877	0.12
217.339	0.11
217.801	0.12
218.263	0.11
218.725	0.14
219.186	0.11
219.648	0.1
220.11	0.09
220.571	0.12
221.033	0.12
221.494	0.11
221.956	0.11
222.417	0.12
222.878	0.1
223.34	0.1
223.801	0.09
224.262	0.13
224.723	0.11
225.185	0.1
225.646	0.09
226.107	0.11
226.568	0.1
227.029	0.12
227.489	0.11
227.95	0.13
228.411	0.11
228.872	0.1
229.332	0.11
229.793	0.1
230.254	0.11
230.714	0.11
231.175	0.11
231.635	0.11
232.096	0.11
232.556	0.1
233.016	0.11
233.477	0.09
233.937	0.1
234.397	0.1
234.857	0.11
235.317	0.12
235.777	0.1
236.237	0.1
236.697	0.11
237.157	0.11
237.617	0.11
238.077	0.11
238.537	0.13
238.996	0.12
239.456	0.11
239.916	0.11
240.375	0.09
240.835	0.1
241.294	0.13
241.754	0.1
242.213	0.12
242.672	0.11
243.132	0.11
243.591	0.11
244.05	0.1
244.509	0.11
244.968	0.12
245.427	0.11
245.886	0.1
246.345	0.12
246.804	0.1
247.263	0.12
247.722	0.11
248.181	0.09
248.639	0.1
249.098	0.11
249.557	0.15
250.015	0.09
250.474	0.11
250.932	0.13
251.391	0.1
251.849	0.12
252.308	0.13
252.766	0.1
253.224	0.12
253.682	0.12
254.14	0.11
254.599	0.12
255.057	0.12
255.515	0.11
255.973	0.11
256.431	0.12
256.888	0.11
257.346	0.11
257.804	0.12
258.262	0.1
258.719	0.12
259.177	0.11
259.635	0.1
260.092	0.12
260.55	0.11
261.007	0.12
261.465	0.12
261.922	0.12
262.379	0.1
262.836	0.13
263.294	0.11
263.751	0.15
264.208	0.1
264.665	0.11
265.122	0.11
265.579	0.13
266.036	0.13
266.493	0.11
266.95	0.11
267.406	0.12
267.863	0.12
268.32	0.12
268.777	0.11
269.233	0.1
269.69	0.11
270.146	0.12
270.603	0.13
271.059	0.1
271.515	0.1
271.972	0.13
272.428	0.09
272.884	0.11
273.34	0.09
273.796	0.11
274.253	0.12
274.709	0.12
275.165	0.11
275.62	0.11
276.076	0.09
276.532	0.11
276.988	0.12
277.444	0.11
277.899	0.1
278.355	0.12
278.811	0.1
279.266	0.12
279.722	0.11
280.177	0.12
280.633	0.1
281.088	0.11
281.543	0.13
281.998	0.11
282.454	0.11
282.909	0.13
283.364	0.08
283.819	0.11
284.274	0.09
284.729	0.12
285.184	0.11
285.639	0.09
286.094	0.11
286.548	0.12
287.003	0.13
287.458	0.1
287.913	0.12
288.367	0.13
288.822	0.11
289.276	0.1
289.731	0.11
290.185	0.11
290.639	0.11
291.094	0.12
291.548	0.12
292.002	0.11
292.456	0.1
292.91	0.12
293.365	0.11
293.819	0.14
294.273	0.1
294.726	0.11
295.18	0.11
295.634	0.13
296.088	0.1
296.542	0.12
296.995	0.12
297.449	0.11
297.903	0.12
298.356	0.11
298.81	0.1
299.263	0.11
299.716	0.12
300.17	0.12
300.623	0.1
301.076	0.12
301.53	0.12
301.983	0.12
302.436	0.12
302.889	0.12
303.342	0.13
303.795	0.13
304.248	0.11
304.701	0.12
305.153	0.12
305.606	0.1
306.059	0.12
306.512	0.11
306.964	0.12
307.417	0.1
307.869	0.12
308.322	0.12
308.774	0.11
309.227	0.13
309.679	0.12
310.131	0.12
310.584	0.12
311.036	0.1
311.488	0.12
311.94	0.12
312.392	0.12
312.844	0.12
313.296	0.1
313.748	0.12
314.2	0.11
314.652	0.12
315.103	0.13
315.555	0.14
316.007	0.13
316.458	0.13
316.91	0.13
317.361	0.13
317.813	0.14
318.264	0.12
318.716	0.12
319.167	0.14
319.618	0.12
320.07	0.14
320.521	0.13
320.972	0.14
321.423	0.14
321.874	0.14
322.325	0.15
322.776	0.17
323.227	0.15
323.678	0.15
324.128	0.16
324.579	0.18
325.03	0.17
325.48	0.19
325.931	0.18
326.382	0.18
326.832	0.18
327.283	0.19
327.733	0.2
328.183	0.2
328.634	0.23
329.084	0.22
329.534	0.23
329.984	0.25
330.434	0.24
330.884	0.24
331.334	0.25
331.784	0.26
332.234	0.27
332.684	0.27
333.134	0.27
333.584	0.28
334.034	0.28
334.483	0.29
334.933	0.31
335.382	0.31
335.832	0.32
336.281	0.32
336.731	0.33
337.18	0.34
337.63	0.34
338.079	0.35
338.528	0.36
338.977	0.37
339.426	0.38
339.876	0.38
340.325	0.4
340.774	0.4
341.223	0.41
341.671	0.41
342.12	0.42
342.569	0.43
343.018	0.44
343.467	0.45
343.915	0.45
344.364	0.46
344.812	0.48
345.261	0.48
345.709	0.48
346.158	0.49
346.606	0.5
347.054	0.51
347.503	0.51
347.951	0.52
348.399	0.52
348.847	0.53
349.295	0.54
349.743	0.54
350.191	0.55
350.639	0.55
351.087	0.57
351.535	0.58
351.983	0.59
352.43	0.59
352.878	0.6
353.326	0.61
353.773	0.6
354.221	0.62
354.668	0.63
355.116	0.64
355.563	0.64
356.01	0.65
356.458	0.67
356.905	0.68
357.352	0.69
357.799	0.7
358.246	0.71
358.693	0.71
359.14	0.73
359.587	0.74
360.034	0.75
360.481	0.76
360.928	0.77
361.375	0.78
361.821	0.78
362.268	0.81
362.714	0.81
363.161	0.81
363.608	0.83
364.054	0.83
364.5	0.84
364.947	0.85
365.393	0.85
365.839	0.86
366.285	0.87
366.732	0.87
367.178	0.87
367.624	0.88
368.07	0.89
368.516	0.88
368.962	0.89
369.408	0.89
369.853	0.89
370.299	0.88
370.745	0.88
371.19	0.89
371.636	0.88
372.082	0.89
372.527	0.87
372.973	0.86
373.418	0.86
373.863	0.86
374.309	0.84
374.754	0.83
375.199	0.82
375.644	0.81
376.09	0.79
376.535	0.78
376.98	0.77
377.425	0.76
377.87	0.74
378.314	0.73
378.759	0.72
379.204	0.71
379.649	0.69
380.093	0.68
380.538	0.66
380.983	0.64
381.427	0.63
381.872	0.61
382.316	0.6
382.76	0.58
383.205	0.57
383.649	0.56
384.093	0.55
384.537	0.54
384.982	0.53
385.426	0.52
385.87	0.5
386.314	0.49
386.758	0.48
387.201	0.47
387.645	0.46
388.089	0.45
388.533	0.44
388.976	0.43
389.42	0.42
389.864	0.41
390.307	0.4
390.751	0.39
391.194	0.39
391.638	0.38
392.081	0.37
392.524	0.36
392.967	0.36
393.411	0.35
393.854	0.35
394.297	0.35
394.74	0.34
395.183	0.34
395.626	0.35
396.069	0.34
396.512	0.34
396.954	0.34
397.397	0.35
397.84	0.35
398.282	0.35
398.725	0.35
399.168	0.35
399.61	0.35
400.052	0.35
400.495	0.35
400.937	0.33
401.38	0.33
401.822	0.33
402.264	0.32
402.706	0.31
403.148	0.3
403.59	0.29
404.032	0.28
404.474	0.27
404.916	0.26
405.358	0.25
405.8	0.24
406.241	0.22
406.683	0.22
407.125	0.2
407.566	0.2
408.008	0.18
408.449	0.19
408.891	0.18
409.332	0.17
409.774	0.16
410.215	0.15
410.656	0.15
411.097	0.15
411.539	0.13
411.98	0.13
412.421	0.13
412.862	0.12
413.303	0.11
413.744	0.12
414.184	0.11
414.625	0.11
415.066	0.11
415.507	0.11
415.947	0.11
416.388	0.11
416.828	0.09
417.269	0.11
417.709	0.1
418.15	0.1
418.59	0.1
419.03	0.1
419.471	0.1
419.911	0.08
420.351	0.09
420.791	0.09
421.231	0.09
421.671	0.09
422.111	0.09
422.551	0.09
422.991	0.09
423.431	0.08
423.87	0.09
424.31	0.09
424.75	0.09
425.189	0.09
425.629	0.08
426.068	0.08
426.508	0.09
426.947	0.1
427.386	0.09
427.826	0.09
428.265	0.09
428.704	0.09
429.143	0.09
429.582	0.08
430.021	0.1
430.46	0.09
430.899	0.09
431.338	0.09
431.777	0.09
432.216	0.08
432.655	0.1
433.093	0.09
433.532	0.1
433.971	0.08
434.409	0.07
434.848	0.09
435.286	0.08
435.724	0.09
436.163	0.09
436.601	0.1
437.039	0.08
437.477	0.09
437.916	0.08
438.354	0.11
438.792	0.09
439.23	0.09
439.668	0.1
440.105	0.08
440.543	0.09
440.981	0.1
441.419	0.1
441.856	0.1
442.294	0.1
442.732	0.09
443.169	0.11
443.607	0.1
444.044	0.11
444.481	0.11
444.919	0.1
445.356	0.1
445.793	0.11
446.23	0.11
446.668	0.09
447.105	0.11
447.542	0.11
447.979	0.1
448.416	0.11
448.852	0.1
449.289	0.1
449.726	0.12
450.163	0.11
450.599	0.11
451.036	0.11
451.473	0.12
451.909	0.11
452.346	0.12
452.782	0.12
453.218	0.1
453.655	0.1
454.091	0.1
454.527	0.11
454.963	0.12
455.399	0.1
455.835	0.11
456.271	0.12
456.707	0.11
457.143	0.11
457.579	0.11
458.015	0.1
458.451	0.12
458.886	0.13
459.322	0.12
459.758	0.11
460.193	0.13
460.629	0.12
461.064	0.12
461.5	0.12
461.935	0.12
462.37	0.13
462.805	0.12
463.241	0.14
463.676	0.13
464.111	0.13
464.546	0.13
464.981	0.13
465.416	0.14
465.851	0.14
466.286	0.12
466.72	0.14
467.155	0.14
467.59	0.13
468.024	0.14
468.459	0.13
468.893	0.14
469.328	0.15
469.762	0.15
470.197	0.14
470.631	0.15
471.065	0.14
471.5	0.16
471.934	0.17
472.368	0.16
472.802	0.16
473.236	0.17
473.67	0.16
474.104	0.17
474.538	0.17
474.972	0.17
475.405	0.18
475.839	0.17
476.273	0.18
476.706	0.17
477.14	0.19
477.573	0.18
478.007	0.19
478.44	0.19
478.874	0.19
479.307	0.2
479.74	0.19
480.173	0.21
480.606	0.2
481.04	0.2
481.473	0.21
481.906	0.21
482.339	0.21
482.771	0.22
483.204	0.22
483.637	0.22
484.07	0.23
484.502	0.23
484.935	0.23
485.368	0.23
485.8	0.23
486.233	0.24
486.665	0.23
487.098	0.24
487.53	0.24
487.962	0.24
488.394	0.24
488.827	0.25
489.259	0.25
489.691	0.25
490.123	0.25
490.555	0.25
490.987	0.26
491.418	0.26
491.85	0.26
492.282	0.26
492.714	0.27
493.145	0.27
493.577	0.27
494.009	0.28
494.44	0.27
494.872	0.28
495.303	0.28
495.734	0.28
496.166	0.28
496.597	0.29
497.028	0.29
497.459	0.29
497.89	0.29
498.321	0.29
498.752	0.3
499.183	0.3
499.614	0.3
500.045	0.3
500.476	0.31
500.906	0.31
501.337	0.31
501.768	0.31
502.198	0.31
502.629	0.32
503.059	0.32
503.49	0.32
503.92	0.32
504.35	0.33
504.781	0.33
505.211	0.33
505.641	0.33
506.071	0.33
506.501	0.34
506.931	0.33
507.361	0.34
507.791	0.34
508.221	0.34
508.651	0.34
509.081	0.35
509.51	0.35
509.94	0.35
510.37	0.35
510.799	0.35
511.229	0.36
511.658	0.36
512.087	0.36
512.517	0.36
512.946	0.36
513.375	0.37
513.804	0.37
514.234	0.37
514.663	0.37
515.092	0.38
515.521	0.37
515.95	0.37
516.378	0.37
516.807	0.38
517.236	0.38
517.665	0.39
518.093	0.38
518.522	0.39
518.951	0.39
519.379	0.39
519.807	0.39
520.236	0.39
520.664	0.39
521.093	0.39
521.521	0.39
521.949	0.4
522.377	0.39
522.805	0.39
523.233	0.4
523.661	0.4
524.089	0.4
524.517	0.4
524.945	0.4
525.373	0.4
525.8	0.41
526.228	0.4
526.656	0.4
527.083	0.41
527.511	0.41
527.938	0.41
528.366	0.41
528.793	0.41
529.22	0.41
529.648	0.41
530.075	0.41
530.502	0.41
530.929	0.42
531.356	0.41
531.783	0.42
532.21	0.42
532.637	0.41
533.064	0.42
533.49	0.41
533.917	0.42
534.344	0.42
534.771	0.42
535.197	0.42
535.624	0.42
536.05	0.42
536.477	0.42
536.903	0.42
537.329	0.42
537.755	0.42
538.182	0.42
538.608	0.42
539.034	0.42
539.46	0.42
539.886	0.42
540.312	0.42
540.738	0.42
541.164	0.42
541.589	0.43
542.015	0.42
542.441	0.42
542.867	0.42
543.292	0.42
543.718	0.42
544.143	0.42
544.569	0.42
544.994	0.42
545.419	0.42
545.845	0.42
546.27	0.42
546.695	0.42
547.12	0.42
547.545	0.42
547.97	0.42
548.395	0.42
548.82	0.42
549.245	0.41
549.67	0.41
550.094	0.41
550.519	0.41
550.944	0.41
551.368	0.41
551.793	0.41
552.217	0.41
552.642	0.41
553.066	0.41
553.49	0.41
553.915	0.41
554.339	0.41
554.763	0.4
555.187	0.4
555.611	0.41
556.035	0.4
556.459	0.4
556.883	0.4
557.307	0.4
557.731	0.4
558.154	0.4
558.578	0.4
559.002	0.4
559.425	0.4
559.849	0.39
560.272	0.39
560.696	0.39
561.119	0.39
561.543	0.39
561.966	0.39
562.389	0.39
562.812	0.39
563.235	0.38
563.658	0.39
564.081	0.38
564.504	0.38
564.927	0.38
565.35	0.38
565.773	0.38
566.196	0.38
566.618	0.38
567.041	0.38
567.463	0.38
567.886	0.38
568.309	0.37
568.731	0.37
569.153	0.37
569.576	0.37
569.998	0.37
570.42	0.37
570.842	0.37
571.264	0.36
571.686	0.36
572.108	0.36
572.53	0.36
572.952	0.36
573.374	0.35
573.796	0.35
574.218	0.36
574.639	0.35
575.061	0.35
575.483	0.35
575.904	0.35
576.326	0.35
576.747	0.35
577.168	0.35
577.59	0.35
578.011	0.34
578.432	0.34
578.853	0.34
579.274	0.34
579.695	0.34
580.116	0.34
580.537	0.34
580.958	0.34
581.379	0.33
581.8	0.33
582.221	0.33
582.641	0.33
583.062	0.33
583.482	0.33
583.903	0.33
584.323	0.33
584.744	0.33
585.164	0.32
585.584	0.32
586.005	0.32
586.425	0.32
586.845	0.32
587.265	0.32
587.685	0.32
588.105	0.31
588.525	0.32
588.945	0.31
589.365	0.31
589.785	0.31
590.204	0.31
590.624	0.31
591.044	0.31
591.463	0.31
591.883	0.31
592.302	0.31
592.721	0.31
593.141	0.31
593.56	0.3
593.979	0.3
594.399	0.3
594.818	0.3
595.237	0.3
595.656	0.3
596.075	0.3
596.494	0.3
596.913	0.3
597.331	0.3
597.75	0.3
598.169	0.29
598.587	0.3
599.006	0.29
599.425	0.29
599.843	0.29
600.262	0.29
600.68	0.29
601.098	0.29
601.517	0.28
601.935	0.28
602.353	0.28
602.771	0.28
603.189	0.28
603.607	0.28
604.025	0.28
604.443	0.28
604.861	0.28
605.279	0.28
605.696	0.28
606.114	0.27
606.532	0.27
606.949	0.27
607.367	0.27
607.784	0.27
608.202	0.27
608.619	0.27
609.036	0.26
609.454	0.27
609.871	0.26
610.288	0.26
610.705	0.26
611.122	0.26
611.539	0.26
611.956	0.26
612.373	0.26
612.79	0.26
613.207	0.25
613.623	0.25
614.04	0.25
614.457	0.25
614.873	0.25
615.29	0.25
615.706	0.25
616.122	0.24
616.539	0.25
616.955	0.25
617.371	0.24
617.788	0.24
618.204	0.24
618.62	0.24
619.036	0.24
619.452	0.24
619.868	0.23
620.284	0.23
620.699	0.23
621.115	0.23
621.531	0.23
621.946	0.23
622.362	0.23
622.778	0.23
623.193	0.22
623.608	0.22
624.024	0.22
624.439	0.22
624.854	0.22
625.27	0.22
625.685	0.22
626.1	0.21
626.515	0.21
626.93	0.21
627.345	0.21
627.76	0.21
628.175	0.21
628.589	0.21
629.004	0.21
629.419	0.21
629.833	0.2
630.248	0.2
630.663	0.2
631.077	0.2
631.491	0.2
631.906	0.2
632.32	0.2
632.734	0.19
633.148	0.19
633.563	0.19
633.977	0.19
634.391	0.19
634.805	0.19
635.219	0.19
635.632	0.18
636.046	0.19
636.46	0.18
636.874	0.18
637.287	0.18
637.701	0.18
638.115	0.17
638.528	0.18
638.941	0.17
639.355	0.17
639.768	0.17
640.181	0.17
640.595	0.17
641.008	0.17
641.421	0.17
641.834	0.16
642.247	0.16
642.66	0.16
643.073	0.16
643.486	0.16
643.898	0.16
644.311	0.16
644.724	0.16
645.136	0.16
645.549	0.16
645.961	0.15
646.374	0.15
646.786	0.15
647.199	0.15
647.611	0.15
648.023	0.15
648.435	0.14
648.847	0.15
649.26	0.14
649.672	0.14
650.084	0.14
650.495	0.14
650.907	0.14
651.319	0.14
651.731	0.14
652.143	0.14
652.554	0.14
652.966	0.14
653.377	0.14
653.789	0.13
654.2	0.13
654.612	0.13
655.023	0.14
655.434	0.12
655.845	0.11
656.256	0.13
656.668	0.13
657.079	0.13
657.49	0.13
657.901	0.13
658.311	0.12
658.722	0.12
659.133	0.13
659.544	0.12
659.954	0.12
660.365	0.12
660.775	0.12
661.186	0.12
661.596	0.12
662.007	0.12
662.417	0.12
662.827	0.12
663.238	0.12
663.648	0.12
664.058	0.12
664.468	0.11
664.878	0.11
665.288	0.11
665.698	0.11
666.108	0.11
666.517	0.11
666.927	0.11
667.337	0.11
667.746	0.11
668.156	0.11
668.565	0.1
668.975	0.1
669.384	0.1
669.794	0.11
670.203	0.1
670.612	0.1
671.021	0.1
671.43	0.1
671.84	0.1
672.249	0.1
672.658	0.1
673.066	0.1
673.475	0.1
673.884	0.09
674.293	0.09
674.702	0.09
675.11	0.09
675.519	0.09
675.927	0.09
676.336	0.09
676.744	0.09
677.152	0.09
677.561	0.09
677.969	0.08
678.377	0.09
678.785	0.08
679.193	0.08
679.601	0.08
680.009	0.08
680.417	0.08
680.825	0.08
681.233	0.08
681.641	0.08
682.048	0.08
682.456	0.08
682.864	0.08
683.271	0.08
683.679	0.07
684.086	0.07
684.493	0.07
684.901	0.07
685.308	0.07
685.715	0.07
686.122	0.07
686.529	0.07
686.936	0.07
687.343	0.07
687.75	0.07
688.157	0.06
688.564	0.06
688.971	0.06
689.378	0.07
689.784	0.06
690.191	0.06
690.597	0.06
691.004	0.06
691.41	0.06
691.817	0.06
692.223	0.06
692.629	0.06
693.035	0.06
693.442	0.06
693.848	0.06
694.254	0.06
694.66	0.06
695.066	0.05
695.471	0.06
695.877	0.06
696.283	0.05
696.689	0.05
697.094	0.05
697.5	0.05
697.906	0.05
698.311	0.05
698.716	0.05
699.122	0.05
699.527	0.05
699.932	0.05
700.338	0.05
700.743	0.05
701.148	0.05
701.553	0.05
701.958	0.05
702.363	0.05
702.768	0.05
703.173	0.05
703.577	0.05
703.982	0.05
704.387	0.05
704.791	0.05
705.196	0.05
705.6	0.04
706.005	0.05
706.409	0.04
706.814	0.04
707.218	0.04
707.622	0.04
708.026	0.04
708.43	0.05
708.834	0.05
709.238	0.04
709.642	0.04
710.046	0.05
710.45	0.04
710.854	0.04
711.257	0.04
711.661	0.04
712.065	0.04
712.468	0.04
712.872	0.04
713.275	0.04
713.679	0.04
714.082	0.04
714.485	0.04
714.888	0.04
715.291	0.04
715.695	0.04
716.098	0.04
716.501	0.04
716.904	0.04
717.306	0.04
717.709	0.04
718.112	0.04
718.515	0.04
718.917	0.04
719.32	0.04
719.723	0.04
720.125	0.04
720.527	0.04
720.93	0.04
721.332	0.04
721.734	0.04
722.137	0.04
722.539	0.04
722.941	0.04
723.343	0.04
723.745	0.04
724.147	0.04
724.549	0.04
724.95	0.04
725.352	0.04
725.754	0.04
726.156	0.04
726.557	0.04
726.959	0.04
727.36	0.04
727.762	0.04
728.163	0.04
728.564	0.04
728.966	0.04
729.367	0.04
729.768	0.04
730.169	0.04
730.57	0.04
730.971	0.04
731.372	0.04
731.773	0.04
732.174	0.04
732.574	0.04
732.975	0.04
733.376	0.04
733.776	0.04
734.177	0.04
734.577	0.04
734.978	0.04
735.378	0.04
735.778	0.04
736.179	0.04
736.579	0.04
736.979	0.04
737.379	0.04
737.779	0.04
738.179	0.04
738.579	0.04
738.979	0.04
739.379	0.04
739.778	0.04
740.178	0.03
740.578	0.04
740.977	0.04
741.377	0.04
741.776	0.04
742.176	0.04
742.575	0.04
742.974	0.04
743.374	0.04
743.773	0.03
744.172	0.03
744.571	0.03
744.97	0.03
745.369	0.03
745.768	0.03
746.167	0.04
746.565	0.03
746.964	0.03
747.363	0.03
747.761	0.03
748.16	0.03
748.559	0.03
748.957	0.03
749.355	0.03
749.754	0.03
750.152	0.03
750.55	0.03
750.948	0.03
751.347	0.03
751.745	0.03
752.143	0.03
752.541	0.03
752.938	0.03
753.336	0.03
753.734	0.03
754.132	0.03
754.529	0.03
754.927	0.03
755.325	0.03
755.722	0.03
756.119	0.03
756.517	0.03
756.914	0.03
757.311	0.03
757.709	0.03
758.106	0.03
758.503	0.03
758.9	0.03
759.297	0.03
759.694	0.03
760.091	0.03
760.488	0.03
760.884	0.03
761.281	0.03
761.678	0.03
762.074	0.03
762.471	0.03
762.867	0.03
763.264	0.03
763.66	0.03
764.056	0.03
764.453	0.03
764.849	0.03
765.245	0.03
765.641	0.03
766.037	0.03
766.433	0.03
766.829	0.03
767.225	0.03
767.621	0.03
768.016	0.03
768.412	0.03
768.808	0.03
769.203	0.03
769.599	0.03
769.994	0.03
770.389	0.03
770.785	0.03
771.18	0.03
771.575	0.03
771.971	0.03
772.366	0.03
772.761	0.03
773.156	0.03
773.551	0.03
773.945	0.03
774.34	0.03
774.735	0.03
775.13	0.03
775.524	0.03
775.919	0.03
776.314	0.03
776.708	0.03
777.103	0.03
777.497	0.03
777.891	0.03
778.285	0.03
778.68	0.03
779.074	0.03
779.468	0.03
779.862	0.03
780.256	0.03
780.65	0.03
781.044	0.03
781.438	0.03
781.831	0.03
782.225	0.04
782.619	0.03
783.012	0.03
783.406	0.03
783.799	0.03
784.193	0.03
784.586	0.04
784.979	0.04
785.372	0.04
785.766	0.03
786.159	0.04
786.552	0.04
786.945	0.04
787.338	0.04
787.731	0.04
788.123	0.04
788.516	0.03
788.909	0.04
789.302	0.04
789.694	0.04
790.087	0.04
790.479	0.04
790.872	0.04
791.264	0.04
791.656	0.04
792.049	0.04
792.441	0.04
792.833	0.04
793.225	0.04
793.617	0.04
794.009	0.04
794.401	0.04
794.793	0.04
795.185	0.04
795.576	0.04
795.968	0.04
796.36	0.04
796.751	0.04
797.143	0.04
797.534	0.04
797.926	0.04
798.317	0.04
798.708	0.04
799.1	0.04
799.491	0.04
799.882	0.04
800.273	0.04
800.664	0.04
801.055	0.04
801.446	0.05
801.837	0.04
802.227	0.05
802.618	0.04
803.009	0.04
803.399	0.05
803.79	0.05
804.18	0.05
804.571	0.04
804.961	0.05
805.351	0.04
805.742	0.05
806.132	0.05
806.522	0.04
806.912	0.05
807.302	0.05
807.692	0.05
808.082	0.05
808.472	0.05
808.862	0.05
809.251	0.05
809.641	0.05
810.031	0.05
810.42	0.05
810.81	0.05
811.199	0.05
811.589	0.05
811.978	0.05
812.367	0.05
812.756	0.05
813.146	0.05
813.535	0.05
813.924	0.05
814.313	0.05
814.702	0.05
815.091	0.05
815.479	0.05
815.868	0.05
816.257	0.05
816.645	0.05
817.034	0.06
817.423	0.05
817.811	0.06
818.199	0.05
818.588	0.06
818.976	0.05
819.364	0.06
819.753	0.06
820.141	0.06
820.529	0.06
820.917	0.06
821.305	0.06
821.693	0.06
822.08	0.06
822.468	0.06
822.856	0.06
823.244	0.06
823.631	0.06
824.019	0.06
824.406	0.06
824.794	0.06
825.181	0.06
825.568	0.06
825.956	0.06
826.343	0.06
826.73	0.06
827.117	0.06
827.504	0.06
827.891	0.06
828.278	0.06
828.665	0.06
829.052	0.06
829.438	0.06
829.825	0.06
830.212	0.07
830.598	0.06
830.985	0.07
831.371	0.07
831.757	0.07
832.144	0.07
832.53	0.07
832.916	0.07
833.302	0.07
833.688	0.07
834.075	0.07
834.461	0.07
834.846	0.07
835.232	0.07
835.618	0.07
836.004	0.07
836.39	0.07
836.775	0.07
837.161	0.07
837.546	0.07
837.932	0.07
838.317	0.07
838.702	0.07
839.088	0.07
839.473	0.07
839.858	0.07
840.243	0.07
840.628	0.07
841.013	0.07
841.398	0.08
841.783	0.08
842.168	0.07
842.553	0.08
842.937	0.08
843.322	0.08
843.707	0.08
844.091	0.08
844.476	0.08
844.86	0.08
845.244	0.07
845.629	0.08
846.013	0.08
846.397	0.08
846.781	0.08
847.165	0.08
847.549	0.08
847.933	0.08
848.317	0.08
848.701	0.08
849.085	0.08
849.468	0.08
849.852	0.08
850.236	0.08
850.619	0.08
851.003	0.08
851.386	0.09
851.769	0.08
852.153	0.09
852.536	0.08
852.919	0.09
853.302	0.08
853.685	0.09
854.068	0.08
854.451	0.09
854.834	0.09
855.217	0.09
855.6	0.09
855.982	0.09
856.365	0.09
856.748	0.09
857.13	0.09
857.513	0.09
857.895	0.09
858.277	0.09
858.66	0.09
859.042	0.09
859.424	0.09
859.806	0.09
860.188	0.09
860.57	0.09
860.952	0.09
861.334	0.09
861.716	0.09
862.098	0.09
862.48	0.09
862.861	0.09
863.243	0.09
863.624	0.09
864.006	0.09
864.387	0.09
864.769	0.09
865.15	0.09
865.531	0.09
865.912	0.09
866.294	0.09
866.675	0.09
867.056	0.1
867.437	0.1
867.818	0.1
868.198	0.1
868.579	0.1
868.96	0.1
869.341	0.1
869.721	0.1
870.102	0.1
870.482	0.1
870.863	0.1
871.243	0.1
871.623	0.1
872.003	0.1
872.384	0.1
872.764	0.1
873.144	0.1
873.524	0.1
873.904	0.1
874.284	0.1
874.664	0.1
875.043	0.1
875.423	0.1
875.803	0.1
876.182	0.1
876.562	0.1
876.941	0.1
877.321	0.11
877.7	0.1
878.079	0.11
878.459	0.1
878.838	0.1
879.217	0.11
879.596	0.11
879.975	0.11
880.354	0.11
880.733	0.11
881.112	0.11
881.491	0.11
881.869	0.1
882.248	0.1
882.627	0.11
883.005	0.11
883.384	0.11
883.762	0.11
884.14	0.11
884.519	0.11
884.897	0.11
885.275	0.11
885.653	0.11
886.031	0.11
886.409	0.11
886.787	0.11
887.165	0.11
887.543	0.11
887.921	0.11
888.298	0.11
888.676	0.11
889.054	0.11
889.431	0.11
889.809	0.11
890.186	0.11
890.563	0.11
890.941	0.11
891.318	0.11
891.695	0.11
892.072	0.11
892.449	0.11
892.826	0.11
893.203	0.11
893.58	0.11
893.957	0.12
894.334	0.11
894.71	0.11
895.087	0.11
895.464	0.12
895.84	0.11
896.217	0.12
896.593	0.12
896.969	0.12
897.346	0.11
897.722	0.12
898.098	0.12
898.474	0.12
898.85	0.12
899.226	0.12
899.602	0.12
899.978	0.12
900.354	0.12
900.73	0.12
901.105	0.12
901.481	0.12
901.857	0.12
902.232	0.12
902.608	0.12
902.983	0.12
903.358	0.12
903.734	0.12
904.109	0.12
904.484	0.12
904.859	0.12
905.234	0.12
905.609	0.12
905.984	0.12
906.359	0.12
906.734	0.12
907.108	0.12
907.483	0.12
907.858	0.12
908.232	0.12
908.607	0.12
908.981	0.12
909.356	0.12
909.73	0.12
910.104	0.12
910.478	0.12
910.853	0.12
911.227	0.12
911.601	0.12
911.975	0.12
912.349	0.12
912.722	0.12
913.096	0.12
913.47	0.12
913.844	0.12
914.217	0.12
914.591	0.12
914.964	0.12
915.338	0.12
915.711	0.12
916.084	0.12
916.458	0.12
916.831	0.12
917.204	0.12
917.577	0.12
917.95	0.12
918.323	0.12
918.696	0.12
919.069	0.12
919.441	0.12
919.814	0.12
920.187	0.12
920.559	0.12
920.932	0.12
921.304	0.12
921.677	0.12
922.049	0.12
922.421	0.12
922.794	0.12
923.166	0.12
923.538	0.12
923.91	0.13
924.282	0.12
924.654	0.13
925.026	0.12
925.398	0.12
925.769	0.12
926.141	0.12
926.513	0.12
926.884	0.12
927.256	0.12
927.627	0.13
927.999	0.12
928.37	0.12
928.741	0.12
929.113	0.12
929.484	0.12
929.855	0.13
930.226	0.12
930.597	0.12
930.968	0.12
931.339	0.13
931.709	0.12
932.08	0.12
932.451	0.12
932.821	0.12
933.192	0.12
933.562	0.13
933.933	0.13
934.303	0.13
934.673	0.12
935.044	0.12
935.414	0.12
935.784	0.12
936.154	0.13
936.524	0.12
936.894	0.12
937.264	0.13
937.634	0.12
938.004	0.12
938.373	0.13
938.743	0.12
939.113	0.12
939.482	0.12
939.852	0.12
940.221	0.12
940.59	0.12
940.96	0.12
941.329	0.13
941.698	0.12
942.067	0.12
942.436	0.13
942.805	0.12
943.174	0.12
943.543	0.13
943.912	0.12
944.28	0.12
944.649	0.12
945.018	0.12
945.386	0.12
945.755	0.13
946.123	0.12
946.492	0.13
946.86	0.12
947.228	0.13
947.596	0.12
947.965	0.12
948.333	0.12
948.701	0.12
949.069	0.13
949.437	0.13
949.804	0.12
950.172	0.12
950.54	0.13
950.908	0.12
951.275	0.12
951.643	0.12
952.01	0.13
952.378	0.12
952.745	0.12
953.112	0.12
953.479	0.12
953.847	0.12
954.214	0.12
954.581	0.12
954.948	0.13
955.315	0.12
955.682	0.12
956.048	0.12
956.415	0.12
956.782	0.12
957.148	0.12
957.515	0.12
957.881	0.12
958.248	0.12
958.614	0.12
958.981	0.12
959.347	0.12
959.713	0.12
960.079	0.12
960.445	0.12
960.811	0.12
961.177	0.12
961.543	0.12
961.909	0.12
962.275	0.12
962.641	0.12
963.006	0.12
963.372	0.12
963.737	0.12
964.103	0.12
964.468	0.12
964.834	0.12
965.199	0.12
965.564	0.12
965.929	0.12
966.294	0.12
966.659	0.12
967.024	0.12
967.389	0.12
967.754	0.12
968.119	0.12
968.484	0.12
968.848	0.12
969.213	0.12
969.578	0.12
969.942	0.12
970.307	0.12
970.671	0.12
971.035	0.12
971.399	0.12
971.764	0.12
972.128	0.12
972.492	0.12
972.856	0.12
973.22	0.12
973.584	0.11
973.948	0.12
974.311	0.11
974.675	0.12
975.039	0.12
975.402	0.12
975.766	0.12
976.129	0.11
976.493	0.12
976.856	0.12
977.219	0.12
977.582	0.12
977.946	0.11
978.309	0.12
978.672	0.12
979.035	0.12
979.398	0.11
979.761	0.11
980.123	0.11
980.486	0.12
980.849	0.11
981.211	0.12
981.574	0.12
981.936	0.12
982.299	0.12
982.661	0.11
983.023	0.12
983.386	0.12
983.748	0.11
984.11	0.11
984.472	0.12
984.834	0.12
985.196	0.11
985.558	0.11
985.92	0.12
986.281	0.11
986.643	0.11
987.005	0.11
987.366	0.11
987.728	0.11
988.089	0.12
988.451	0.11
988.812	0.11
989.173	0.11
989.534	0.11
989.895	0.11
990.257	0.11
990.618	0.11
990.979	0.11
991.339	0.11
991.7	0.11
992.061	0.11
992.422	0.11
992.782	0.11
993.143	0.11
993.503	0.11
993.864	0.11
994.224	0.11
994.585	0.11
994.945	0.11
995.305	0.11
995.665	0.11
996.025	0.11
996.385	0.11
996.745	0.11
997.105	0.11
997.465	0.11
997.825	0.11
998.185	0.11
998.544	0.11
998.904	0.11
999.263	0.11
999.623	0.11
999.982	0.11
1000.342	0.1
1000.701	0.11
1001.06	0.11
1001.419	0.11
1001.778	0.11
1002.138	0.11
1002.497	0.1
1002.855	0.11
1003.214	0.11
1003.573	0.11
1003.932	0.11
1004.29	0.11
1004.649	0.1
1005.008	0.1
1005.366	0.1
1005.725	0.11
1006.083	0.11
1006.441	0.1
1006.799	0.1
1007.158	0.11
1007.516	0.1
1007.874	0.11
1008.232	0.1
1008.59	0.11
1008.948	0.1
1009.305	0.11
1009.663	0.1
1010.021	0.1
1010.379	0.11
1010.736	0.1
1011.094	0.1
1011.451	0.1
1011.808	0.1
1012.166	0.11
1012.523	0.1
1012.88	0.1
1013.237	0.1
1013.594	0.1
1013.951	0.1
1014.308	0.11
1014.665	0.1
1015.022	0.1
1015.379	0.09
1015.735	0.1
1016.092	0.1
1016.449	0.11
1016.805	0.1
1017.162	0.1
1017.518	0.1
1017.874	0.1
1018.231	0.1
1018.587	0.1
1018.943	0.1
1019.299	0.1
1019.655	0.1
1020.011	0.1
1020.367	0.1
1020.723	0.1
1021.078	0.1
1021.434	0.11
1021.79	0.1
1022.145	0.11
1022.501	0.1
1022.856	0.1
1023.212	0.1
1023.567	0.1
1023.922	0.09
1024.278	0.1
1024.633	0.1
1024.988	0.1
1025.343	0.09
1025.698	0.1
1026.053	0.09
1026.408	0.09
1026.762	0.1
1027.117	0.09
1027.472	0.09
1027.826	0.09
1028.181	0.1
1028.535	0.1
1028.89	0.1
1029.244	0.09
1029.598	0.09
1029.952	0.1
1030.307	0.09
1030.661	0.1
1031.015	0.09
1031.369	0.1
1031.723	0.09
1032.076	0.09
