Data from Rubpy_BV_EDTA_TU(3000)_Blank_Blue_Flow_Absorbance__346__12-52-28-869.txt Node

Date: Mon Aug 03 12:52:28 BST 2026
User: fpm-admin
Spectrometer: SR600986
Trigger mode: 0
Integration Time (sec): 8.000000E-3
Scans to average: 3
Nonlinearity correction enabled: true
Boxcar width: 0
Storing dark spectrum: false
XAxis mode: Wavelengths
Number of Pixels in Spectrum: 2048
>>>>>Begin Spectral Data<<<<<
188.613	0.09
189.078	0.08
189.542	0.1
190.007	0.11
190.472	0.1
190.936	0.09
191.401	0.08
191.865	0.1
192.33	0.1
192.794	0.11
193.258	0.09
193.723	0.1
194.187	0.11
194.651	0.1
195.115	0.09
195.579	0.12
196.043	0.08
196.507	0.08
196.971	0.09
197.435	0.1
197.899	0.1
198.363	0.09
198.827	0.09
199.29	0.09
199.754	0.08
200.218	0.11
200.681	0.08
201.145	0.08
201.608	0.09
202.072	0.1
202.535	0.09
202.998	0.11
203.462	0.1
203.925	0.1
204.388	0.09
204.851	0.08
205.314	0.11
205.777	0.08
206.24	0.09
206.703	0.1
207.166	0.07
207.629	0.1
208.092	0.09
208.555	0.1
209.018	0.11
209.48	0.08
209.943	0.1
210.406	0.08
210.868	0.08
211.331	0.09
211.793	0.09
212.256	0.1
212.718	0.1
213.18	0.09
213.643	0.1
214.105	0.09
214.567	0.08
215.029	0.12
215.491	0.1
215.953	0.09
216.415	0.09
216.877	0.09
217.339	0.1
217.801	0.09
218.263	0.11
218.725	0.11
219.186	0.11
219.648	0.09
220.11	0.07
220.571	0.11
221.033	0.09
221.494	0.1
221.956	0.09
222.417	0.11
222.878	0.09
223.34	0.09
223.801	0.1
224.262	0.09
224.723	0.1
225.185	0.09
225.646	0.08
226.107	0.11
226.568	0.07
227.029	0.09
227.489	0.09
227.95	0.09
228.411	0.11
228.872	0.09
229.332	0.1
229.793	0.07
230.254	0.09
230.714	0.08
231.175	0.1
231.635	0.09
232.096	0.09
232.556	0.1
233.016	0.08
233.477	0.09
233.937	0.08
234.397	0.08
234.857	0.08
235.317	0.09
235.777	0.09
236.237	0.09
236.697	0.09
237.157	0.1
237.617	0.08
238.077	0.09
238.537	0.09
238.996	0.09
239.456	0.09
239.916	0.09
240.375	0.08
240.835	0.08
241.294	0.1
241.754	0.08
242.213	0.09
242.672	0.09
243.132	0.09
243.591	0.09
244.05	0.1
244.509	0.09
244.968	0.09
245.427	0.1
245.886	0.1
246.345	0.09
246.804	0.1
247.263	0.09
247.722	0.09
248.181	0.07
248.639	0.1
249.098	0.08
249.557	0.09
250.015	0.1
250.474	0.09
250.932	0.09
251.391	0.09
251.849	0.1
252.308	0.11
252.766	0.1
253.224	0.1
253.682	0.09
254.14	0.09
254.599	0.1
255.057	0.1
255.515	0.1
255.973	0.1
256.431	0.11
256.888	0.07
257.346	0.1
257.804	0.1
258.262	0.1
258.719	0.1
259.177	0.08
259.635	0.08
260.092	0.09
260.55	0.1
261.007	0.1
261.465	0.11
261.922	0.1
262.379	0.09
262.836	0.1
263.294	0.09
263.751	0.09
264.208	0.08
264.665	0.08
265.122	0.08
265.579	0.1
266.036	0.09
266.493	0.1
266.95	0.1
267.406	0.1
267.863	0.1
268.32	0.1
268.777	0.08
269.233	0.1
269.69	0.09
270.146	0.11
270.603	0.11
271.059	0.09
271.515	0.09
271.972	0.09
272.428	0.07
272.884	0.1
273.34	0.09
273.796	0.09
274.253	0.09
274.709	0.09
275.165	0.09
275.62	0.1
276.076	0.07
276.532	0.09
276.988	0.09
277.444	0.09
277.899	0.1
278.355	0.11
278.811	0.08
279.266	0.09
279.722	0.09
280.177	0.1
280.633	0.09
281.088	0.11
281.543	0.1
281.998	0.08
282.454	0.08
282.909	0.09
283.364	0.08
283.819	0.1
284.274	0.09
284.729	0.09
285.184	0.09
285.639	0.07
286.094	0.11
286.548	0.1
287.003	0.08
287.458	0.09
287.913	0.09
288.367	0.09
288.822	0.07
289.276	0.1
289.731	0.08
290.185	0.1
290.639	0.11
291.094	0.1
291.548	0.09
292.002	0.09
292.456	0.11
292.91	0.08
293.365	0.09
293.819	0.11
294.273	0.09
294.726	0.08
295.18	0.1
295.634	0.13
296.088	0.1
296.542	0.11
296.995	0.11
297.449	0.09
297.903	0.09
298.356	0.08
298.81	0.09
299.263	0.09
299.716	0.11
300.17	0.09
300.623	0.07
301.076	0.11
301.53	0.09
301.983	0.1
302.436	0.1
302.889	0.11
303.342	0.09
303.795	0.1
304.248	0.1
304.701	0.09
305.153	0.1
305.606	0.09
306.059	0.11
306.512	0.11
306.964	0.09
307.417	0.08
307.869	0.11
308.322	0.11
308.774	0.1
309.227	0.11
309.679	0.1
310.131	0.1
310.584	0.1
311.036	0.1
311.488	0.09
311.94	0.1
312.392	0.09
312.844	0.09
313.296	0.1
313.748	0.11
314.2	0.09
314.652	0.11
315.103	0.11
315.555	0.11
316.007	0.12
316.458	0.11
316.91	0.12
317.361	0.11
317.813	0.12
318.264	0.11
318.716	0.11
319.167	0.12
319.618	0.12
320.07	0.11
320.521	0.1
320.972	0.11
321.423	0.12
321.874	0.11
322.325	0.13
322.776	0.12
323.227	0.13
323.678	0.13
324.128	0.14
324.579	0.14
325.03	0.14
325.48	0.16
325.931	0.15
326.382	0.14
326.832	0.17
327.283	0.15
327.733	0.17
328.183	0.17
328.634	0.2
329.084	0.19
329.534	0.18
329.984	0.21
330.434	0.19
330.884	0.2
331.334	0.21
331.784	0.22
332.234	0.22
332.684	0.22
333.134	0.23
333.584	0.23
334.034	0.23
334.483	0.24
334.933	0.25
335.382	0.26
335.832	0.26
336.281	0.27
336.731	0.28
337.18	0.28
337.63	0.28
338.079	0.29
338.528	0.3
338.977	0.3
339.426	0.31
339.876	0.32
340.325	0.33
340.774	0.33
341.223	0.34
341.671	0.34
342.12	0.34
342.569	0.35
343.018	0.36
343.467	0.37
343.915	0.37
344.364	0.38
344.812	0.39
345.261	0.39
345.709	0.41
346.158	0.4
346.606	0.41
347.054	0.42
347.503	0.42
347.951	0.43
348.399	0.43
348.847	0.43
349.295	0.45
349.743	0.45
350.191	0.46
350.639	0.46
351.087	0.47
351.535	0.47
351.983	0.48
352.43	0.48
352.878	0.5
353.326	0.5
353.773	0.5
354.221	0.51
354.668	0.52
355.116	0.53
355.563	0.53
356.01	0.54
356.458	0.56
356.905	0.56
357.352	0.57
357.799	0.57
358.246	0.59
358.693	0.59
359.14	0.61
359.587	0.61
360.034	0.62
360.481	0.63
360.928	0.63
361.375	0.65
361.821	0.66
362.268	0.66
362.714	0.67
363.161	0.68
363.608	0.69
364.054	0.69
364.5	0.71
364.947	0.71
365.393	0.71
365.839	0.72
366.285	0.72
366.732	0.72
367.178	0.73
367.624	0.74
368.07	0.74
368.516	0.73
368.962	0.74
369.408	0.75
369.853	0.74
370.299	0.74
370.745	0.74
371.19	0.74
371.636	0.74
372.082	0.73
372.527	0.73
372.973	0.72
373.418	0.72
373.863	0.71
374.309	0.7
374.754	0.69
375.199	0.68
375.644	0.67
376.09	0.66
376.535	0.65
376.98	0.64
377.425	0.63
377.87	0.62
378.314	0.61
378.759	0.6
379.204	0.58
379.649	0.57
380.093	0.56
380.538	0.54
380.983	0.53
381.427	0.52
381.872	0.51
382.316	0.5
382.76	0.49
383.205	0.48
383.649	0.47
384.093	0.45
384.537	0.44
384.982	0.44
385.426	0.43
385.87	0.42
386.314	0.41
386.758	0.4
387.201	0.39
387.645	0.38
388.089	0.38
388.533	0.37
388.976	0.36
389.42	0.35
389.864	0.35
390.307	0.34
390.751	0.33
391.194	0.32
391.638	0.32
392.081	0.31
392.524	0.31
392.967	0.3
393.411	0.3
393.854	0.3
394.297	0.29
394.74	0.29
395.183	0.29
395.626	0.29
396.069	0.29
396.512	0.28
396.954	0.29
397.397	0.3
397.84	0.29
398.282	0.3
398.725	0.3
399.168	0.3
399.61	0.3
400.052	0.3
400.495	0.3
400.937	0.29
401.38	0.28
401.822	0.28
402.264	0.27
402.706	0.27
403.148	0.26
403.59	0.25
404.032	0.24
404.474	0.23
404.916	0.21
405.358	0.21
405.8	0.2
406.241	0.19
406.683	0.19
407.125	0.16
407.566	0.16
408.008	0.15
408.449	0.15
408.891	0.15
409.332	0.15
409.774	0.14
410.215	0.13
410.656	0.12
411.097	0.11
411.539	0.12
411.98	0.11
412.421	0.11
412.862	0.1
413.303	0.1
413.744	0.11
414.184	0.09
414.625	0.1
415.066	0.09
415.507	0.09
415.947	0.08
416.388	0.1
416.828	0.08
417.269	0.08
417.709	0.08
418.15	0.08
418.59	0.08
419.03	0.07
419.471	0.08
419.911	0.07
420.351	0.08
420.791	0.08
421.231	0.08
421.671	0.07
422.111	0.07
422.551	0.08
422.991	0.07
423.431	0.08
423.87	0.08
424.31	0.08
424.75	0.08
425.189	0.08
425.629	0.07
426.068	0.08
426.508	0.07
426.947	0.08
427.386	0.07
427.826	0.09
428.265	0.08
428.704	0.07
429.143	0.07
429.582	0.07
430.021	0.08
430.46	0.08
430.899	0.06
431.338	0.07
431.777	0.06
432.216	0.07
432.655	0.07
433.093	0.07
433.532	0.07
433.971	0.07
434.409	0.07
434.848	0.07
435.286	0.08
435.724	0.09
436.163	0.09
436.601	0.08
437.039	0.07
437.477	0.08
437.916	0.08
438.354	0.09
438.792	0.09
439.23	0.07
439.668	0.09
440.105	0.08
440.543	0.09
440.981	0.08
441.419	0.08
441.856	0.08
442.294	0.08
442.732	0.08
443.169	0.08
443.607	0.07
444.044	0.08
444.481	0.1
444.919	0.09
445.356	0.07
445.793	0.08
446.23	0.09
446.668	0.09
447.105	0.09
447.542	0.09
447.979	0.09
448.416	0.08
448.852	0.1
449.289	0.08
449.726	0.1
450.163	0.08
450.599	0.08
451.036	0.09
451.473	0.11
451.909	0.08
452.346	0.1
452.782	0.1
453.218	0.07
453.655	0.09
454.091	0.08
454.527	0.09
454.963	0.11
455.399	0.08
455.835	0.11
456.271	0.09
456.707	0.1
457.143	0.09
457.579	0.08
458.015	0.08
458.451	0.11
458.886	0.1
459.322	0.11
459.758	0.1
460.193	0.1
460.629	0.11
461.064	0.09
461.5	0.12
461.935	0.11
462.37	0.11
462.805	0.1
463.241	0.11
463.676	0.09
464.111	0.12
464.546	0.11
464.981	0.1
465.416	0.11
465.851	0.1
466.286	0.1
466.72	0.09
467.155	0.12
467.59	0.11
468.024	0.11
468.459	0.1
468.893	0.12
469.328	0.12
469.762	0.12
470.197	0.12
470.631	0.13
471.065	0.12
471.5	0.12
471.934	0.13
472.368	0.13
472.802	0.14
473.236	0.14
473.67	0.14
474.104	0.13
474.538	0.14
474.972	0.15
475.405	0.14
475.839	0.15
476.273	0.14
476.706	0.15
477.14	0.16
477.573	0.15
478.007	0.16
478.44	0.16
478.874	0.15
479.307	0.16
479.74	0.16
480.173	0.17
480.606	0.17
481.04	0.17
481.473	0.17
481.906	0.17
482.339	0.18
482.771	0.18
483.204	0.18
483.637	0.18
484.07	0.18
484.502	0.18
484.935	0.19
485.368	0.18
485.8	0.19
486.233	0.19
486.665	0.19
487.098	0.19
487.53	0.2
487.962	0.2
488.394	0.2
488.827	0.2
489.259	0.2
489.691	0.2
490.123	0.2
490.555	0.2
490.987	0.21
491.418	0.21
491.85	0.22
492.282	0.21
492.714	0.21
493.145	0.22
493.577	0.22
494.009	0.22
494.44	0.23
494.872	0.23
495.303	0.22
495.734	0.23
496.166	0.22
496.597	0.23
497.028	0.23
497.459	0.23
497.89	0.24
498.321	0.24
498.752	0.24
499.183	0.25
499.614	0.24
500.045	0.25
500.476	0.25
500.906	0.25
501.337	0.25
501.768	0.25
502.198	0.26
502.629	0.26
503.059	0.26
503.49	0.26
503.92	0.26
504.35	0.26
504.781	0.26
505.211	0.27
505.641	0.27
506.071	0.27
506.501	0.27
506.931	0.27
507.361	0.28
507.791	0.28
508.221	0.28
508.651	0.28
509.081	0.28
509.51	0.28
509.94	0.28
510.37	0.29
510.799	0.29
511.229	0.29
511.658	0.29
512.087	0.29
512.517	0.29
512.946	0.29
513.375	0.3
513.804	0.3
514.234	0.3
514.663	0.3
515.092	0.3
515.521	0.3
515.95	0.3
516.378	0.31
516.807	0.31
517.236	0.31
517.665	0.31
518.093	0.31
518.522	0.31
518.951	0.32
519.379	0.31
519.807	0.32
520.236	0.31
520.664	0.32
521.093	0.32
521.521	0.32
521.949	0.32
522.377	0.32
522.805	0.32
523.233	0.32
523.661	0.33
524.089	0.32
524.517	0.33
524.945	0.33
525.373	0.32
525.8	0.33
526.228	0.33
526.656	0.33
527.083	0.33
527.511	0.33
527.938	0.33
528.366	0.33
528.793	0.33
529.22	0.34
529.648	0.34
530.075	0.33
530.502	0.33
530.929	0.34
531.356	0.34
531.783	0.34
532.21	0.34
532.637	0.34
533.064	0.34
533.49	0.34
533.917	0.34
534.344	0.34
534.771	0.34
535.197	0.34
535.624	0.34
536.05	0.34
536.477	0.35
536.903	0.34
537.329	0.34
537.755	0.35
538.182	0.35
538.608	0.34
539.034	0.34
539.46	0.34
539.886	0.34
540.312	0.34
540.738	0.34
541.164	0.34
541.589	0.34
542.015	0.34
542.441	0.34
542.867	0.34
543.292	0.34
543.718	0.34
544.143	0.34
544.569	0.34
544.994	0.34
545.419	0.34
545.845	0.34
546.27	0.35
546.695	0.34
547.12	0.33
547.545	0.34
547.97	0.34
548.395	0.34
548.82	0.34
549.245	0.34
549.67	0.34
550.094	0.34
550.519	0.34
550.944	0.34
551.368	0.34
551.793	0.34
552.217	0.34
552.642	0.33
553.066	0.34
553.49	0.34
553.915	0.33
554.339	0.33
554.763	0.33
555.187	0.33
555.611	0.33
556.035	0.33
556.459	0.33
556.883	0.33
557.307	0.33
557.731	0.33
558.154	0.33
558.578	0.32
559.002	0.33
559.425	0.33
559.849	0.32
560.272	0.32
560.696	0.32
561.119	0.32
561.543	0.32
561.966	0.32
562.389	0.32
562.812	0.32
563.235	0.32
563.658	0.31
564.081	0.32
564.504	0.31
564.927	0.31
565.35	0.31
565.773	0.31
566.196	0.31
566.618	0.31
567.041	0.31
567.463	0.31
567.886	0.31
568.309	0.31
568.731	0.31
569.153	0.3
569.576	0.3
569.998	0.3
570.42	0.3
570.842	0.3
571.264	0.3
571.686	0.3
572.108	0.3
572.53	0.3
572.952	0.3
573.374	0.29
573.796	0.29
574.218	0.29
574.639	0.29
575.061	0.29
575.483	0.29
575.904	0.29
576.326	0.29
576.747	0.29
577.168	0.29
577.59	0.28
578.011	0.28
578.432	0.28
578.853	0.28
579.274	0.28
579.695	0.28
580.116	0.28
580.537	0.28
580.958	0.28
581.379	0.28
581.8	0.27
582.221	0.27
582.641	0.27
583.062	0.27
583.482	0.27
583.903	0.27
584.323	0.27
584.744	0.27
585.164	0.27
585.584	0.27
586.005	0.27
586.425	0.26
586.845	0.26
587.265	0.26
587.685	0.26
588.105	0.26
588.525	0.26
588.945	0.26
589.365	0.26
589.785	0.26
590.204	0.26
590.624	0.26
591.044	0.26
591.463	0.26
591.883	0.26
592.302	0.25
592.721	0.26
593.141	0.25
593.56	0.25
593.979	0.25
594.399	0.25
594.818	0.25
595.237	0.25
595.656	0.25
596.075	0.25
596.494	0.25
596.913	0.25
597.331	0.25
597.75	0.25
598.169	0.25
598.587	0.24
599.006	0.24
599.425	0.24
599.843	0.24
600.262	0.24
600.68	0.24
601.098	0.24
601.517	0.24
601.935	0.24
602.353	0.24
602.771	0.24
603.189	0.23
603.607	0.23
604.025	0.23
604.443	0.23
604.861	0.23
605.279	0.23
605.696	0.23
606.114	0.23
606.532	0.23
606.949	0.23
607.367	0.23
607.784	0.23
608.202	0.22
608.619	0.22
609.036	0.22
609.454	0.22
609.871	0.22
610.288	0.22
610.705	0.22
611.122	0.22
611.539	0.21
611.956	0.22
612.373	0.22
612.79	0.21
613.207	0.21
613.623	0.21
614.04	0.21
614.457	0.21
614.873	0.21
615.29	0.21
615.706	0.21
616.122	0.21
616.539	0.21
616.955	0.21
617.371	0.2
617.788	0.2
618.204	0.2
618.62	0.2
619.036	0.2
619.452	0.2
619.868	0.2
620.284	0.2
620.699	0.19
621.115	0.19
621.531	0.19
621.946	0.19
622.362	0.19
622.778	0.19
623.193	0.19
623.608	0.19
624.024	0.19
624.439	0.18
624.854	0.18
625.27	0.18
625.685	0.18
626.1	0.18
626.515	0.18
626.93	0.18
627.345	0.18
627.76	0.17
628.175	0.18
628.589	0.17
629.004	0.17
629.419	0.17
629.833	0.17
630.248	0.17
630.663	0.17
631.077	0.16
631.491	0.17
631.906	0.17
632.32	0.17
632.734	0.16
633.148	0.16
633.563	0.16
633.977	0.16
634.391	0.16
634.805	0.16
635.219	0.15
635.632	0.15
636.046	0.16
636.46	0.15
636.874	0.15
637.287	0.15
637.701	0.15
638.115	0.15
638.528	0.15
638.941	0.15
639.355	0.14
639.768	0.14
640.181	0.14
640.595	0.14
641.008	0.14
641.421	0.14
641.834	0.14
642.247	0.14
642.66	0.13
643.073	0.13
643.486	0.13
643.898	0.13
644.311	0.13
644.724	0.13
645.136	0.13
645.549	0.13
645.961	0.13
646.374	0.12
646.786	0.12
647.199	0.13
647.611	0.12
648.023	0.12
648.435	0.12
648.847	0.13
649.26	0.12
649.672	0.12
650.084	0.12
650.495	0.12
650.907	0.12
651.319	0.12
651.731	0.12
652.143	0.12
652.554	0.11
652.966	0.11
653.377	0.11
653.789	0.11
654.2	0.11
654.612	0.11
655.023	0.12
655.434	0.1
655.845	0.09
656.256	0.11
656.668	0.11
657.079	0.11
657.49	0.11
657.901	0.11
658.311	0.1
658.722	0.1
659.133	0.1
659.544	0.1
659.954	0.1
660.365	0.1
660.775	0.1
661.186	0.1
661.596	0.1
662.007	0.1
662.417	0.1
662.827	0.1
663.238	0.1
663.648	0.1
664.058	0.1
664.468	0.1
664.878	0.1
665.288	0.1
665.698	0.1
666.108	0.1
666.517	0.09
666.927	0.09
667.337	0.09
667.746	0.09
668.156	0.09
668.565	0.09
668.975	0.09
669.384	0.09
669.794	0.09
670.203	0.09
670.612	0.09
671.021	0.08
671.43	0.09
671.84	0.08
672.249	0.08
672.658	0.08
673.066	0.08
673.475	0.08
673.884	0.08
674.293	0.08
674.702	0.08
675.11	0.08
675.519	0.08
675.927	0.07
676.336	0.08
676.744	0.07
677.152	0.07
677.561	0.07
677.969	0.07
678.377	0.07
678.785	0.07
679.193	0.07
679.601	0.07
680.009	0.07
680.417	0.07
680.825	0.07
681.233	0.07
681.641	0.06
682.048	0.07
682.456	0.06
682.864	0.06
683.271	0.07
683.679	0.06
684.086	0.06
684.493	0.06
684.901	0.06
685.308	0.06
685.715	0.06
686.122	0.06
686.529	0.06
686.936	0.06
687.343	0.06
687.75	0.06
688.157	0.06
688.564	0.05
688.971	0.06
689.378	0.05
689.784	0.05
690.191	0.05
690.597	0.05
691.004	0.05
691.41	0.05
691.817	0.05
692.223	0.05
692.629	0.05
693.035	0.05
693.442	0.05
693.848	0.05
694.254	0.05
694.66	0.05
695.066	0.05
695.471	0.05
695.877	0.05
696.283	0.04
696.689	0.05
697.094	0.04
697.5	0.04
697.906	0.04
698.311	0.04
698.716	0.04
699.122	0.04
699.527	0.04
699.932	0.04
700.338	0.04
700.743	0.04
701.148	0.04
701.553	0.04
701.958	0.04
702.363	0.04
702.768	0.04
703.173	0.04
703.577	0.04
703.982	0.04
704.387	0.04
704.791	0.04
705.196	0.04
705.6	0.04
706.005	0.04
706.409	0.04
706.814	0.04
707.218	0.04
707.622	0.04
708.026	0.04
708.43	0.04
708.834	0.04
709.238	0.04
709.642	0.04
710.046	0.04
710.45	0.04
710.854	0.04
711.257	0.04
711.661	0.04
712.065	0.04
712.468	0.04
712.872	0.04
713.275	0.04
713.679	0.04
714.082	0.04
714.485	0.04
714.888	0.04
715.291	0.04
715.695	0.04
716.098	0.03
716.501	0.04
716.904	0.04
717.306	0.04
717.709	0.04
718.112	0.03
718.515	0.03
718.917	0.03
719.32	0.04
719.723	0.04
720.125	0.03
720.527	0.04
720.93	0.04
721.332	0.04
721.734	0.04
722.137	0.04
722.539	0.04
722.941	0.03
723.343	0.04
723.745	0.04
724.147	0.04
724.549	0.04
724.95	0.04
725.352	0.04
725.754	0.04
726.156	0.04
726.557	0.03
726.959	0.04
727.36	0.04
727.762	0.04
728.163	0.04
728.564	0.04
728.966	0.04
729.367	0.04
729.768	0.04
730.169	0.04
730.57	0.03
730.971	0.03
731.372	0.03
731.773	0.03
732.174	0.03
732.574	0.03
732.975	0.03
733.376	0.03
733.776	0.04
734.177	0.03
734.577	0.04
734.978	0.03
735.378	0.03
735.778	0.03
736.179	0.03
736.579	0.03
736.979	0.03
737.379	0.03
737.779	0.03
738.179	0.03
738.579	0.03
738.979	0.03
739.379	0.03
739.778	0.03
740.178	0.03
740.578	0.03
740.977	0.03
741.377	0.03
741.776	0.03
742.176	0.03
742.575	0.03
742.974	0.03
743.374	0.03
743.773	0.03
744.172	0.03
744.571	0.03
744.97	0.03
745.369	0.03
745.768	0.03
746.167	0.03
746.565	0.03
746.964	0.03
747.363	0.03
747.761	0.03
748.16	0.03
748.559	0.03
748.957	0.03
749.355	0.03
749.754	0.03
750.152	0.03
750.55	0.03
750.948	0.02
751.347	0.03
751.745	0.03
752.143	0.03
752.541	0.03
752.938	0.03
753.336	0.03
753.734	0.03
754.132	0.03
754.529	0.02
754.927	0.03
755.325	0.03
755.722	0.02
756.119	0.02
756.517	0.03
756.914	0.02
757.311	0.02
757.709	0.02
758.106	0.02
758.503	0.03
758.9	0.02
759.297	0.02
759.694	0.03
760.091	0.02
760.488	0.02
760.884	0.03
761.281	0.02
761.678	0.03
762.074	0.02
762.471	0.02
762.867	0.03
763.264	0.02
763.66	0.02
764.056	0.03
764.453	0.03
764.849	0.03
765.245	0.02
765.641	0.02
766.037	0.02
766.433	0.02
766.829	0.02
767.225	0.02
767.621	0.03
768.016	0.02
768.412	0.02
768.808	0.02
769.203	0.02
769.599	0.03
769.994	0.02
770.389	0.02
770.785	0.03
771.18	0.02
771.575	0.02
771.971	0.03
772.366	0.03
772.761	0.03
773.156	0.03
773.551	0.03
773.945	0.03
774.34	0.03
774.735	0.03
775.13	0.03
775.524	0.03
775.919	0.02
776.314	0.02
776.708	0.03
777.103	0.03
777.497	0.03
777.891	0.03
778.285	0.03
778.68	0.03
779.074	0.03
779.468	0.03
779.862	0.03
780.256	0.03
780.65	0.03
781.044	0.03
781.438	0.03
781.831	0.03
782.225	0.03
782.619	0.03
783.012	0.03
783.406	0.03
783.799	0.03
784.193	0.03
784.586	0.03
784.979	0.03
785.372	0.03
785.766	0.03
786.159	0.03
786.552	0.03
786.945	0.03
787.338	0.03
787.731	0.03
788.123	0.03
788.516	0.03
788.909	0.03
789.302	0.03
789.694	0.03
790.087	0.03
790.479	0.03
790.872	0.03
791.264	0.03
791.656	0.03
792.049	0.03
792.441	0.03
792.833	0.03
793.225	0.03
793.617	0.03
794.009	0.03
794.401	0.03
794.793	0.03
795.185	0.03
795.576	0.03
795.968	0.03
796.36	0.03
796.751	0.03
797.143	0.03
797.534	0.03
797.926	0.03
798.317	0.03
798.708	0.03
799.1	0.04
799.491	0.04
799.882	0.03
800.273	0.04
800.664	0.04
801.055	0.03
801.446	0.04
801.837	0.04
802.227	0.04
802.618	0.04
803.009	0.04
803.399	0.04
803.79	0.04
804.18	0.04
804.571	0.04
804.961	0.04
805.351	0.04
805.742	0.04
806.132	0.04
806.522	0.04
806.912	0.04
807.302	0.04
807.692	0.04
808.082	0.04
808.472	0.04
808.862	0.04
809.251	0.04
809.641	0.04
810.031	0.04
810.42	0.04
810.81	0.04
811.199	0.04
811.589	0.04
811.978	0.04
812.367	0.04
812.756	0.04
813.146	0.04
813.535	0.04
813.924	0.04
814.313	0.04
814.702	0.04
815.091	0.04
815.479	0.04
815.868	0.04
816.257	0.05
816.645	0.05
817.034	0.05
817.423	0.04
817.811	0.04
818.199	0.05
818.588	0.05
818.976	0.05
819.364	0.05
819.753	0.05
820.141	0.05
820.529	0.05
820.917	0.05
821.305	0.05
821.693	0.05
822.08	0.05
822.468	0.05
822.856	0.05
823.244	0.05
823.631	0.05
824.019	0.05
824.406	0.05
824.794	0.05
825.181	0.05
825.568	0.05
825.956	0.05
826.343	0.05
826.73	0.05
827.117	0.05
827.504	0.05
827.891	0.05
828.278	0.05
828.665	0.05
829.052	0.05
829.438	0.05
829.825	0.05
830.212	0.05
830.598	0.05
830.985	0.06
831.371	0.05
831.757	0.05
832.144	0.05
832.53	0.06
832.916	0.06
833.302	0.05
833.688	0.06
834.075	0.06
834.461	0.06
834.846	0.06
835.232	0.06
835.618	0.06
836.004	0.06
836.39	0.06
836.775	0.06
837.161	0.06
837.546	0.06
837.932	0.06
838.317	0.06
838.702	0.06
839.088	0.06
839.473	0.06
839.858	0.06
840.243	0.06
840.628	0.06
841.013	0.06
841.398	0.06
841.783	0.06
842.168	0.06
842.553	0.06
842.937	0.06
843.322	0.06
843.707	0.06
844.091	0.06
844.476	0.06
844.86	0.06
845.244	0.06
845.629	0.06
846.013	0.06
846.397	0.06
846.781	0.06
847.165	0.07
847.549	0.06
847.933	0.07
848.317	0.07
848.701	0.06
849.085	0.07
849.468	0.07
849.852	0.07
850.236	0.07
850.619	0.07
851.003	0.07
851.386	0.07
851.769	0.07
852.153	0.07
852.536	0.07
852.919	0.07
853.302	0.07
853.685	0.07
854.068	0.07
854.451	0.07
854.834	0.07
855.217	0.07
855.6	0.07
855.982	0.07
856.365	0.07
856.748	0.07
857.13	0.07
857.513	0.07
857.895	0.07
858.277	0.07
858.66	0.07
859.042	0.07
859.424	0.07
859.806	0.07
860.188	0.07
860.57	0.07
860.952	0.07
861.334	0.07
861.716	0.08
862.098	0.08
862.48	0.08
862.861	0.07
863.243	0.08
863.624	0.08
864.006	0.08
864.387	0.08
864.769	0.08
865.15	0.08
865.531	0.08
865.912	0.08
866.294	0.08
866.675	0.08
867.056	0.08
867.437	0.08
867.818	0.08
868.198	0.08
868.579	0.08
868.96	0.08
869.341	0.08
869.721	0.08
870.102	0.08
870.482	0.08
870.863	0.08
871.243	0.08
871.623	0.08
872.003	0.08
872.384	0.08
872.764	0.08
873.144	0.08
873.524	0.08
873.904	0.08
874.284	0.08
874.664	0.08
875.043	0.08
875.423	0.08
875.803	0.08
876.182	0.08
876.562	0.08
876.941	0.08
877.321	0.08
877.7	0.08
878.079	0.09
878.459	0.08
878.838	0.09
879.217	0.09
879.596	0.09
879.975	0.09
880.354	0.09
880.733	0.09
881.112	0.09
881.491	0.09
881.869	0.09
882.248	0.09
882.627	0.09
883.005	0.09
883.384	0.09
883.762	0.09
884.14	0.09
884.519	0.09
884.897	0.09
885.275	0.09
885.653	0.09
886.031	0.09
886.409	0.09
886.787	0.09
887.165	0.09
887.543	0.09
887.921	0.09
888.298	0.09
888.676	0.09
889.054	0.09
889.431	0.09
889.809	0.09
890.186	0.09
890.563	0.09
890.941	0.09
891.318	0.09
891.695	0.09
892.072	0.09
892.449	0.09
892.826	0.09
893.203	0.09
893.58	0.09
893.957	0.09
894.334	0.09
894.71	0.09
895.087	0.09
895.464	0.09
895.84	0.09
896.217	0.09
896.593	0.1
896.969	0.09
897.346	0.09
897.722	0.09
898.098	0.09
898.474	0.1
898.85	0.1
899.226	0.1
899.602	0.1
899.978	0.1
900.354	0.09
900.73	0.09
901.105	0.09
901.481	0.1
901.857	0.1
902.232	0.1
902.608	0.09
902.983	0.09
903.358	0.09
903.734	0.1
904.109	0.1
904.484	0.1
904.859	0.1
905.234	0.1
905.609	0.1
905.984	0.1
906.359	0.1
906.734	0.1
907.108	0.1
907.483	0.1
907.858	0.1
908.232	0.1
908.607	0.1
908.981	0.1
909.356	0.1
909.73	0.1
910.104	0.1
910.478	0.1
910.853	0.1
911.227	0.1
911.601	0.1
911.975	0.1
912.349	0.1
912.722	0.1
913.096	0.1
913.47	0.1
913.844	0.1
914.217	0.1
914.591	0.1
914.964	0.1
915.338	0.1
915.711	0.1
916.084	0.1
916.458	0.1
916.831	0.1
917.204	0.1
917.577	0.1
917.95	0.1
918.323	0.1
918.696	0.1
919.069	0.1
919.441	0.1
919.814	0.1
920.187	0.1
920.559	0.1
920.932	0.1
921.304	0.1
921.677	0.1
922.049	0.1
922.421	0.1
922.794	0.1
923.166	0.1
923.538	0.1
923.91	0.1
924.282	0.1
924.654	0.1
925.026	0.1
925.398	0.1
925.769	0.1
926.141	0.1
926.513	0.1
926.884	0.1
927.256	0.1
927.627	0.1
927.999	0.1
928.37	0.1
928.741	0.1
929.113	0.1
929.484	0.1
929.855	0.1
930.226	0.1
930.597	0.1
930.968	0.1
931.339	0.1
931.709	0.1
932.08	0.1
932.451	0.1
932.821	0.1
933.192	0.1
933.562	0.1
933.933	0.1
934.303	0.1
934.673	0.1
935.044	0.1
935.414	0.1
935.784	0.1
936.154	0.1
936.524	0.1
936.894	0.1
937.264	0.1
937.634	0.1
938.004	0.1
938.373	0.1
938.743	0.1
939.113	0.1
939.482	0.1
939.852	0.1
940.221	0.1
940.59	0.1
940.96	0.1
941.329	0.1
941.698	0.1
942.067	0.1
942.436	0.1
942.805	0.1
943.174	0.1
943.543	0.1
943.912	0.1
944.28	0.1
944.649	0.1
945.018	0.1
945.386	0.1
945.755	0.1
946.123	0.1
946.492	0.1
946.86	0.1
947.228	0.1
947.596	0.1
947.965	0.1
948.333	0.1
948.701	0.1
949.069	0.1
949.437	0.1
949.804	0.1
950.172	0.1
950.54	0.1
950.908	0.1
951.275	0.1
951.643	0.1
952.01	0.1
952.378	0.1
952.745	0.1
953.112	0.1
953.479	0.1
953.847	0.1
954.214	0.1
954.581	0.1
954.948	0.1
955.315	0.1
955.682	0.1
956.048	0.1
956.415	0.1
956.782	0.1
957.148	0.1
957.515	0.1
957.881	0.1
958.248	0.1
958.614	0.1
958.981	0.1
959.347	0.1
959.713	0.1
960.079	0.1
960.445	0.1
960.811	0.1
961.177	0.1
961.543	0.09
961.909	0.1
962.275	0.1
962.641	0.1
963.006	0.1
963.372	0.1
963.737	0.1
964.103	0.1
964.468	0.1
964.834	0.09
965.199	0.1
965.564	0.1
965.929	0.1
966.294	0.1
966.659	0.09
967.024	0.1
967.389	0.1
967.754	0.09
968.119	0.1
968.484	0.09
968.848	0.1
969.213	0.09
969.578	0.09
969.942	0.1
970.307	0.09
970.671	0.09
971.035	0.1
971.399	0.1
971.764	0.09
972.128	0.09
972.492	0.1
972.856	0.1
973.22	0.09
973.584	0.09
973.948	0.1
974.311	0.09
974.675	0.1
975.039	0.1
975.402	0.09
975.766	0.1
976.129	0.09
976.493	0.1
976.856	0.1
977.219	0.09
977.582	0.1
977.946	0.09
978.309	0.09
978.672	0.09
979.035	0.1
979.398	0.1
979.761	0.1
980.123	0.09
980.486	0.1
980.849	0.09
981.211	0.1
981.574	0.1
981.936	0.09
982.299	0.09
982.661	0.09
983.023	0.1
983.386	0.1
983.748	0.09
984.11	0.09
984.472	0.09
984.834	0.09
985.196	0.09
985.558	0.09
985.92	0.09
986.281	0.09
986.643	0.09
987.005	0.09
987.366	0.09
987.728	0.09
988.089	0.09
988.451	0.09
988.812	0.09
989.173	0.09
989.534	0.09
989.895	0.09
990.257	0.09
990.618	0.09
990.979	0.09
991.339	0.09
991.7	0.09
992.061	0.09
992.422	0.09
992.782	0.09
993.143	0.09
993.503	0.09
993.864	0.09
994.224	0.09
994.585	0.09
994.945	0.09
995.305	0.08
995.665	0.09
996.025	0.09
996.385	0.09
996.745	0.09
997.105	0.09
997.465	0.09
997.825	0.09
998.185	0.09
998.544	0.09
998.904	0.09
999.263	0.09
999.623	0.09
999.982	0.09
1000.342	0.09
1000.701	0.09
1001.06	0.09
1001.419	0.08
1001.778	0.09
1002.138	0.09
1002.497	0.09
1002.855	0.09
1003.214	0.09
1003.573	0.09
1003.932	0.09
1004.29	0.09
1004.649	0.08
1005.008	0.09
1005.366	0.09
1005.725	0.08
1006.083	0.08
1006.441	0.08
1006.799	0.09
1007.158	0.09
1007.516	0.08
1007.874	0.09
1008.232	0.08
1008.59	0.09
1008.948	0.08
1009.305	0.09
1009.663	0.08
1010.021	0.08
1010.379	0.08
1010.736	0.09
1011.094	0.08
1011.451	0.08
1011.808	0.09
1012.166	0.09
1012.523	0.08
1012.88	0.08
1013.237	0.08
1013.594	0.08
1013.951	0.08
1014.308	0.08
1014.665	0.08
1015.022	0.09
1015.379	0.08
1015.735	0.08
1016.092	0.08
1016.449	0.09
1016.805	0.08
1017.162	0.08
1017.518	0.08
1017.874	0.08
1018.231	0.08
1018.587	0.08
1018.943	0.09
1019.299	0.08
1019.655	0.08
1020.011	0.08
1020.367	0.08
1020.723	0.08
1021.078	0.08
1021.434	0.08
1021.79	0.08
1022.145	0.08
1022.501	0.08
1022.856	0.08
1023.212	0.09
1023.567	0.08
1023.922	0.08
1024.278	0.08
1024.633	0.08
1024.988	0.08
1025.343	0.08
1025.698	0.08
1026.053	0.08
1026.408	0.08
1026.762	0.08
1027.117	0.08
1027.472	0.08
1027.826	0.08
1028.181	0.07
1028.535	0.08
1028.89	0.08
1029.244	0.08
1029.598	0.08
1029.952	0.08
1030.307	0.08
1030.661	0.08
1031.015	0.07
1031.369	0.08
1031.723	0.07
1032.076	0.08
