Data from Rubpy_BV_EDTA_TU(3000)_Blank_Blue_Flow_Absorbance__691__12-58-13-862.txt Node

Date: Mon Aug 03 12:58:13 BST 2026
User: fpm-admin
Spectrometer: SR600986
Trigger mode: 0
Integration Time (sec): 8.000000E-3
Scans to average: 3
Nonlinearity correction enabled: true
Boxcar width: 0
Storing dark spectrum: false
XAxis mode: Wavelengths
Number of Pixels in Spectrum: 2048
>>>>>Begin Spectral Data<<<<<
188.613	0.19
189.078	0.18
189.542	0.21
190.007	0.18
190.472	0.2
190.936	0.18
191.401	0.19
191.865	0.18
192.33	0.19
192.794	0.18
193.258	0.19
193.723	0.17
194.187	0.19
194.651	0.17
195.115	0.17
195.579	0.2
196.043	0.17
196.507	0.2
196.971	0.2
197.435	0.19
197.899	0.19
198.363	0.19
198.827	0.19
199.29	0.17
199.754	0.18
200.218	0.19
200.681	0.16
201.145	0.19
201.608	0.18
202.072	0.2
202.535	0.18
202.998	0.2
203.462	0.18
203.925	0.19
204.388	0.18
204.851	0.19
205.314	0.2
205.777	0.17
206.24	0.17
206.703	0.2
207.166	0.18
207.629	0.19
208.092	0.22
208.555	0.18
209.018	0.19
209.48	0.17
209.943	0.18
210.406	0.18
210.868	0.16
211.331	0.16
211.793	0.19
212.256	0.21
212.718	0.19
213.18	0.2
213.643	0.19
214.105	0.17
214.567	0.18
215.029	0.2
215.491	0.18
215.953	0.18
216.415	0.18
216.877	0.18
217.339	0.19
217.801	0.18
218.263	0.18
218.725	0.2
219.186	0.21
219.648	0.17
220.11	0.16
220.571	0.2
221.033	0.18
221.494	0.2
221.956	0.18
222.417	0.19
222.878	0.18
223.34	0.17
223.801	0.18
224.262	0.18
224.723	0.18
225.185	0.17
225.646	0.16
226.107	0.2
226.568	0.16
227.029	0.18
227.489	0.19
227.95	0.18
228.411	0.19
228.872	0.18
229.332	0.16
229.793	0.18
230.254	0.19
230.714	0.19
231.175	0.18
231.635	0.18
232.096	0.19
232.556	0.17
233.016	0.19
233.477	0.16
233.937	0.18
234.397	0.19
234.857	0.18
235.317	0.19
235.777	0.18
236.237	0.19
236.697	0.19
237.157	0.18
237.617	0.17
238.077	0.19
238.537	0.18
238.996	0.19
239.456	0.19
239.916	0.19
240.375	0.18
240.835	0.17
241.294	0.19
241.754	0.18
242.213	0.19
242.672	0.19
243.132	0.18
243.591	0.19
244.05	0.18
244.509	0.17
244.968	0.2
245.427	0.2
245.886	0.18
246.345	0.16
246.804	0.19
247.263	0.19
247.722	0.19
248.181	0.19
248.639	0.18
249.098	0.18
249.557	0.21
250.015	0.18
250.474	0.19
250.932	0.18
251.391	0.19
251.849	0.2
252.308	0.2
252.766	0.17
253.224	0.19
253.682	0.18
254.14	0.19
254.599	0.17
255.057	0.17
255.515	0.18
255.973	0.2
256.431	0.18
256.888	0.18
257.346	0.18
257.804	0.19
258.262	0.18
258.719	0.2
259.177	0.17
259.635	0.18
260.092	0.2
260.55	0.19
261.007	0.18
261.465	0.19
261.922	0.19
262.379	0.17
262.836	0.2
263.294	0.19
263.751	0.2
264.208	0.19
264.665	0.17
265.122	0.18
265.579	0.21
266.036	0.19
266.493	0.18
266.95	0.21
267.406	0.19
267.863	0.18
268.32	0.17
268.777	0.18
269.233	0.2
269.69	0.19
270.146	0.21
270.603	0.2
271.059	0.19
271.515	0.17
271.972	0.21
272.428	0.16
272.884	0.19
273.34	0.18
273.796	0.19
274.253	0.19
274.709	0.19
275.165	0.18
275.62	0.19
276.076	0.16
276.532	0.18
276.988	0.18
277.444	0.16
277.899	0.16
278.355	0.18
278.811	0.18
279.266	0.18
279.722	0.2
280.177	0.18
280.633	0.21
281.088	0.18
281.543	0.19
281.998	0.19
282.454	0.19
282.909	0.19
283.364	0.17
283.819	0.21
284.274	0.18
284.729	0.18
285.184	0.19
285.639	0.18
286.094	0.2
286.548	0.19
287.003	0.18
287.458	0.18
287.913	0.2
288.367	0.18
288.822	0.18
289.276	0.18
289.731	0.19
290.185	0.19
290.639	0.2
291.094	0.19
291.548	0.19
292.002	0.18
292.456	0.18
292.91	0.21
293.365	0.2
293.819	0.18
294.273	0.17
294.726	0.19
295.18	0.17
295.634	0.2
296.088	0.2
296.542	0.21
296.995	0.2
297.449	0.18
297.903	0.2
298.356	0.19
298.81	0.15
299.263	0.2
299.716	0.19
300.17	0.2
300.623	0.16
301.076	0.22
301.53	0.19
301.983	0.2
302.436	0.2
302.889	0.17
303.342	0.19
303.795	0.18
304.248	0.2
304.701	0.2
305.153	0.17
305.606	0.2
306.059	0.2
306.512	0.19
306.964	0.19
307.417	0.18
307.869	0.19
308.322	0.2
308.774	0.19
309.227	0.18
309.679	0.2
310.131	0.2
310.584	0.2
311.036	0.16
311.488	0.19
311.94	0.21
312.392	0.18
312.844	0.18
313.296	0.21
313.748	0.22
314.2	0.2
314.652	0.21
315.103	0.22
315.555	0.19
316.007	0.23
316.458	0.21
316.91	0.22
317.361	0.2
317.813	0.21
318.264	0.2
318.716	0.22
319.167	0.23
319.618	0.22
320.07	0.23
320.521	0.23
320.972	0.25
321.423	0.22
321.874	0.24
322.325	0.24
322.776	0.25
323.227	0.25
323.678	0.25
324.128	0.28
324.579	0.28
325.03	0.29
325.48	0.3
325.931	0.3
326.382	0.3
326.832	0.31
327.283	0.33
327.733	0.32
328.183	0.34
328.634	0.37
329.084	0.38
329.534	0.38
329.984	0.41
330.434	0.4
330.884	0.4
331.334	0.42
331.784	0.43
332.234	0.45
332.684	0.45
333.134	0.47
333.584	0.47
334.034	0.49
334.483	0.5
334.933	0.53
335.382	0.53
335.832	0.54
336.281	0.55
336.731	0.56
337.18	0.56
337.63	0.58
338.079	0.6
338.528	0.6
338.977	0.62
339.426	0.63
339.876	0.66
340.325	0.66
340.774	0.68
341.223	0.7
341.671	0.71
342.12	0.72
342.569	0.74
343.018	0.75
343.467	0.75
343.915	0.77
344.364	0.77
344.812	0.78
345.261	0.79
345.709	0.81
346.158	0.84
346.606	0.84
347.054	0.85
347.503	0.85
347.951	0.88
348.399	0.88
348.847	0.88
349.295	0.9
349.743	0.9
350.191	0.92
350.639	0.92
351.087	0.93
351.535	0.95
351.983	0.96
352.43	0.96
352.878	0.98
353.326	0.99
353.773	1.01
354.221	1
354.668	1.04
355.116	1.04
355.563	1.04
356.01	1.05
356.458	1.08
356.905	1.09
357.352	1.1
357.799	1.13
358.246	1.13
358.693	1.13
359.14	1.16
359.587	1.16
360.034	1.18
360.481	1.19
360.928	1.2
361.375	1.22
361.821	1.23
362.268	1.25
362.714	1.27
363.161	1.28
363.608	1.28
364.054	1.29
364.5	1.3
364.947	1.31
365.393	1.31
365.839	1.33
366.285	1.33
366.732	1.34
367.178	1.34
367.624	1.35
368.07	1.35
368.516	1.36
368.962	1.35
369.408	1.36
369.853	1.35
370.299	1.36
370.745	1.36
371.19	1.34
371.636	1.34
372.082	1.35
372.527	1.34
372.973	1.31
373.418	1.33
373.863	1.31
374.309	1.31
374.754	1.29
375.199	1.28
375.644	1.28
376.09	1.27
376.535	1.26
376.98	1.24
377.425	1.21
377.87	1.21
378.314	1.19
378.759	1.18
379.204	1.14
379.649	1.13
380.093	1.11
380.538	1.09
380.983	1.07
381.427	1.05
381.872	1.03
382.316	1
382.76	0.98
383.205	0.96
383.649	0.94
384.093	0.92
384.537	0.89
384.982	0.88
385.426	0.86
385.87	0.83
386.314	0.82
386.758	0.8
387.201	0.77
387.645	0.77
388.089	0.75
388.533	0.74
388.976	0.71
389.42	0.7
389.864	0.68
390.307	0.67
390.751	0.64
391.194	0.64
391.638	0.62
392.081	0.61
392.524	0.6
392.967	0.59
393.411	0.58
393.854	0.57
394.297	0.57
394.74	0.56
395.183	0.55
395.626	0.55
396.069	0.55
396.512	0.55
396.954	0.55
397.397	0.56
397.84	0.55
398.282	0.55
398.725	0.55
399.168	0.55
399.61	0.55
400.052	0.55
400.495	0.54
400.937	0.53
401.38	0.52
401.822	0.51
402.264	0.5
402.706	0.48
403.148	0.48
403.59	0.46
404.032	0.45
404.474	0.42
404.916	0.41
405.358	0.4
405.8	0.38
406.241	0.38
406.683	0.35
407.125	0.33
407.566	0.32
408.008	0.3
408.449	0.3
408.891	0.29
409.332	0.28
409.774	0.27
410.215	0.26
410.656	0.25
411.097	0.23
411.539	0.23
411.98	0.22
412.421	0.22
412.862	0.2
413.303	0.19
413.744	0.2
414.184	0.19
414.625	0.19
415.066	0.18
415.507	0.18
415.947	0.17
416.388	0.17
416.828	0.17
417.269	0.17
417.709	0.16
418.15	0.16
418.59	0.16
419.03	0.16
419.471	0.16
419.911	0.15
420.351	0.15
420.791	0.16
421.231	0.16
421.671	0.14
422.111	0.15
422.551	0.14
422.991	0.15
423.431	0.15
423.87	0.15
424.31	0.14
424.75	0.14
425.189	0.15
425.629	0.14
426.068	0.14
426.508	0.15
426.947	0.15
427.386	0.15
427.826	0.15
428.265	0.15
428.704	0.14
429.143	0.15
429.582	0.14
430.021	0.15
430.46	0.15
430.899	0.13
431.338	0.15
431.777	0.15
432.216	0.14
432.655	0.16
433.093	0.14
433.532	0.16
433.971	0.14
434.409	0.16
434.848	0.16
435.286	0.15
435.724	0.15
436.163	0.14
436.601	0.16
437.039	0.16
437.477	0.16
437.916	0.16
438.354	0.16
438.792	0.15
439.23	0.16
439.668	0.17
440.105	0.15
440.543	0.14
440.981	0.17
441.419	0.16
441.856	0.17
442.294	0.17
442.732	0.17
443.169	0.17
443.607	0.16
444.044	0.18
444.481	0.18
444.919	0.17
445.356	0.16
445.793	0.18
446.23	0.18
446.668	0.18
447.105	0.18
447.542	0.17
447.979	0.16
448.416	0.17
448.852	0.18
449.289	0.19
449.726	0.19
450.163	0.19
450.599	0.18
451.036	0.19
451.473	0.19
451.909	0.18
452.346	0.18
452.782	0.19
453.218	0.18
453.655	0.2
454.091	0.19
454.527	0.19
454.963	0.19
455.399	0.19
455.835	0.2
456.271	0.19
456.707	0.19
457.143	0.19
457.579	0.19
458.015	0.18
458.451	0.22
458.886	0.21
459.322	0.2
459.758	0.21
460.193	0.21
460.629	0.2
461.064	0.2
461.5	0.23
461.935	0.21
462.37	0.21
462.805	0.22
463.241	0.22
463.676	0.23
464.111	0.22
464.546	0.23
464.981	0.22
465.416	0.22
465.851	0.22
466.286	0.22
466.72	0.22
467.155	0.25
467.59	0.24
468.024	0.25
468.459	0.23
468.893	0.25
469.328	0.25
469.762	0.24
470.197	0.27
470.631	0.26
471.065	0.27
471.5	0.27
471.934	0.27
472.368	0.28
472.802	0.28
473.236	0.28
473.67	0.3
474.104	0.29
474.538	0.3
474.972	0.31
475.405	0.31
475.839	0.32
476.273	0.32
476.706	0.32
477.14	0.33
477.573	0.33
478.007	0.33
478.44	0.34
478.874	0.35
479.307	0.36
479.74	0.35
480.173	0.36
480.606	0.37
481.04	0.37
481.473	0.37
481.906	0.38
482.339	0.39
482.771	0.38
483.204	0.39
483.637	0.4
484.07	0.4
484.502	0.41
484.935	0.41
485.368	0.41
485.8	0.42
486.233	0.43
486.665	0.42
487.098	0.43
487.53	0.43
487.962	0.43
488.394	0.44
488.827	0.44
489.259	0.45
489.691	0.45
490.123	0.45
490.555	0.46
490.987	0.46
491.418	0.47
491.85	0.47
492.282	0.47
492.714	0.48
493.145	0.49
493.577	0.49
494.009	0.49
494.44	0.5
494.872	0.5
495.303	0.5
495.734	0.51
496.166	0.51
496.597	0.52
497.028	0.52
497.459	0.52
497.89	0.53
498.321	0.53
498.752	0.54
499.183	0.54
499.614	0.54
500.045	0.54
500.476	0.55
500.906	0.56
501.337	0.56
501.768	0.56
502.198	0.57
502.629	0.57
503.059	0.57
503.49	0.58
503.92	0.58
504.35	0.59
504.781	0.59
505.211	0.59
505.641	0.6
506.071	0.6
506.501	0.6
506.931	0.61
507.361	0.61
507.791	0.61
508.221	0.62
508.651	0.62
509.081	0.63
509.51	0.62
509.94	0.63
510.37	0.63
510.799	0.64
511.229	0.64
511.658	0.64
512.087	0.65
512.517	0.65
512.946	0.65
513.375	0.66
513.804	0.66
514.234	0.66
514.663	0.66
515.092	0.67
515.521	0.67
515.95	0.67
516.378	0.67
516.807	0.68
517.236	0.69
517.665	0.68
518.093	0.68
518.522	0.69
518.951	0.69
519.379	0.69
519.807	0.7
520.236	0.7
520.664	0.7
521.093	0.7
521.521	0.7
521.949	0.7
522.377	0.7
522.805	0.7
523.233	0.71
523.661	0.71
524.089	0.72
524.517	0.72
524.945	0.72
525.373	0.72
525.8	0.73
526.228	0.72
526.656	0.73
527.083	0.73
527.511	0.72
527.938	0.73
528.366	0.73
528.793	0.73
529.22	0.73
529.648	0.73
530.075	0.73
530.502	0.74
530.929	0.74
531.356	0.74
531.783	0.74
532.21	0.74
532.637	0.73
533.064	0.74
533.49	0.74
533.917	0.75
534.344	0.74
534.771	0.74
535.197	0.75
535.624	0.74
536.05	0.74
536.477	0.75
536.903	0.75
537.329	0.75
537.755	0.74
538.182	0.74
538.608	0.75
539.034	0.75
539.46	0.75
539.886	0.74
540.312	0.75
540.738	0.75
541.164	0.75
541.589	0.74
542.015	0.75
542.441	0.75
542.867	0.75
543.292	0.75
543.718	0.75
544.143	0.74
544.569	0.74
544.994	0.74
545.419	0.74
545.845	0.74
546.27	0.74
546.695	0.74
547.12	0.74
547.545	0.74
547.97	0.73
548.395	0.74
548.82	0.74
549.245	0.73
549.67	0.73
550.094	0.73
550.519	0.73
550.944	0.73
551.368	0.72
551.793	0.73
552.217	0.72
552.642	0.73
553.066	0.73
553.49	0.73
553.915	0.72
554.339	0.72
554.763	0.71
555.187	0.72
555.611	0.72
556.035	0.71
556.459	0.71
556.883	0.71
557.307	0.71
557.731	0.71
558.154	0.71
558.578	0.7
559.002	0.7
559.425	0.7
559.849	0.69
560.272	0.7
560.696	0.69
561.119	0.69
561.543	0.69
561.966	0.69
562.389	0.68
562.812	0.69
563.235	0.68
563.658	0.68
564.081	0.68
564.504	0.67
564.927	0.67
565.35	0.67
565.773	0.67
566.196	0.67
566.618	0.66
567.041	0.66
567.463	0.66
567.886	0.66
568.309	0.66
568.731	0.65
569.153	0.65
569.576	0.65
569.998	0.64
570.42	0.65
570.842	0.65
571.264	0.64
571.686	0.64
572.108	0.64
572.53	0.63
572.952	0.63
573.374	0.62
573.796	0.63
574.218	0.62
574.639	0.62
575.061	0.62
575.483	0.61
575.904	0.61
576.326	0.61
576.747	0.61
577.168	0.61
577.59	0.6
578.011	0.6
578.432	0.6
578.853	0.6
579.274	0.59
579.695	0.59
580.116	0.59
580.537	0.59
580.958	0.59
581.379	0.58
581.8	0.58
582.221	0.58
582.641	0.58
583.062	0.57
583.482	0.57
583.903	0.57
584.323	0.57
584.744	0.57
585.164	0.56
585.584	0.56
586.005	0.56
586.425	0.56
586.845	0.55
587.265	0.56
587.685	0.55
588.105	0.55
588.525	0.54
588.945	0.55
589.365	0.54
589.785	0.54
590.204	0.54
590.624	0.54
591.044	0.54
591.463	0.54
591.883	0.53
592.302	0.53
592.721	0.53
593.141	0.53
593.56	0.53
593.979	0.52
594.399	0.52
594.818	0.52
595.237	0.52
595.656	0.52
596.075	0.51
596.494	0.51
596.913	0.51
597.331	0.51
597.75	0.51
598.169	0.51
598.587	0.5
599.006	0.5
599.425	0.5
599.843	0.5
600.262	0.5
600.68	0.5
601.098	0.49
601.517	0.49
601.935	0.49
602.353	0.49
602.771	0.49
603.189	0.48
603.607	0.48
604.025	0.48
604.443	0.48
604.861	0.47
605.279	0.47
605.696	0.47
606.114	0.47
606.532	0.47
606.949	0.46
607.367	0.46
607.784	0.46
608.202	0.46
608.619	0.46
609.036	0.45
609.454	0.45
609.871	0.45
610.288	0.45
610.705	0.45
611.122	0.44
611.539	0.44
611.956	0.44
612.373	0.44
612.79	0.43
613.207	0.43
613.623	0.43
614.04	0.43
614.457	0.42
614.873	0.42
615.29	0.42
615.706	0.42
616.122	0.42
616.539	0.42
616.955	0.41
617.371	0.41
617.788	0.41
618.204	0.4
618.62	0.4
619.036	0.4
619.452	0.4
619.868	0.4
620.284	0.39
620.699	0.39
621.115	0.39
621.531	0.39
621.946	0.39
622.362	0.38
622.778	0.38
623.193	0.38
623.608	0.38
624.024	0.38
624.439	0.37
624.854	0.37
625.27	0.37
625.685	0.36
626.1	0.36
626.515	0.36
626.93	0.36
627.345	0.36
627.76	0.35
628.175	0.35
628.589	0.35
629.004	0.35
629.419	0.34
629.833	0.34
630.248	0.34
630.663	0.34
631.077	0.33
631.491	0.33
631.906	0.33
632.32	0.33
632.734	0.33
633.148	0.33
633.563	0.32
633.977	0.32
634.391	0.32
634.805	0.32
635.219	0.31
635.632	0.31
636.046	0.31
636.46	0.31
636.874	0.3
637.287	0.3
637.701	0.3
638.115	0.29
638.528	0.29
638.941	0.29
639.355	0.29
639.768	0.29
640.181	0.28
640.595	0.28
641.008	0.28
641.421	0.28
641.834	0.28
642.247	0.27
642.66	0.27
643.073	0.27
643.486	0.27
643.898	0.27
644.311	0.26
644.724	0.26
645.136	0.26
645.549	0.26
645.961	0.26
646.374	0.25
646.786	0.25
647.199	0.25
647.611	0.25
648.023	0.25
648.435	0.25
648.847	0.25
649.26	0.24
649.672	0.24
650.084	0.24
650.495	0.24
650.907	0.24
651.319	0.23
651.731	0.23
652.143	0.23
652.554	0.23
652.966	0.23
653.377	0.23
653.789	0.22
654.2	0.22
654.612	0.22
655.023	0.23
655.434	0.21
655.845	0.2
656.256	0.22
656.668	0.22
657.079	0.21
657.49	0.21
657.901	0.21
658.311	0.21
658.722	0.21
659.133	0.21
659.544	0.21
659.954	0.21
660.365	0.2
660.775	0.2
661.186	0.2
661.596	0.2
662.007	0.2
662.417	0.19
662.827	0.19
663.238	0.19
663.648	0.19
664.058	0.19
664.468	0.19
664.878	0.19
665.288	0.19
665.698	0.18
666.108	0.18
666.517	0.18
666.927	0.18
667.337	0.18
667.746	0.18
668.156	0.18
668.565	0.17
668.975	0.17
669.384	0.17
669.794	0.17
670.203	0.17
670.612	0.17
671.021	0.17
671.43	0.17
671.84	0.17
672.249	0.16
672.658	0.16
673.066	0.16
673.475	0.16
673.884	0.16
674.293	0.16
674.702	0.15
675.11	0.15
675.519	0.15
675.927	0.15
676.336	0.15
676.744	0.15
677.152	0.14
677.561	0.15
677.969	0.14
678.377	0.14
678.785	0.14
679.193	0.14
679.601	0.14
680.009	0.14
680.417	0.14
680.825	0.13
681.233	0.13
681.641	0.13
682.048	0.13
682.456	0.12
682.864	0.12
683.271	0.13
683.679	0.12
684.086	0.12
684.493	0.12
684.901	0.12
685.308	0.12
685.715	0.11
686.122	0.11
686.529	0.11
686.936	0.11
687.343	0.11
687.75	0.11
688.157	0.11
688.564	0.11
688.971	0.1
689.378	0.11
689.784	0.11
690.191	0.1
690.597	0.1
691.004	0.1
691.41	0.1
691.817	0.1
692.223	0.1
692.629	0.1
693.035	0.09
693.442	0.1
693.848	0.09
694.254	0.09
694.66	0.09
695.066	0.09
695.471	0.09
695.877	0.09
696.283	0.09
696.689	0.09
697.094	0.09
697.5	0.09
697.906	0.08
698.311	0.09
698.716	0.09
699.122	0.08
699.527	0.08
699.932	0.08
700.338	0.08
700.743	0.08
701.148	0.08
701.553	0.08
701.958	0.08
702.363	0.08
702.768	0.08
703.173	0.08
703.577	0.08
703.982	0.08
704.387	0.08
704.791	0.08
705.196	0.08
705.6	0.07
706.005	0.07
706.409	0.07
706.814	0.07
707.218	0.07
707.622	0.07
708.026	0.07
708.43	0.07
708.834	0.07
709.238	0.07
709.642	0.07
710.046	0.07
710.45	0.07
710.854	0.07
711.257	0.07
711.661	0.07
712.065	0.07
712.468	0.07
712.872	0.07
713.275	0.07
713.679	0.07
714.082	0.07
714.485	0.07
714.888	0.07
715.291	0.07
715.695	0.07
716.098	0.07
716.501	0.07
716.904	0.07
717.306	0.07
717.709	0.07
718.112	0.07
718.515	0.07
718.917	0.07
719.32	0.07
719.723	0.07
720.125	0.07
720.527	0.07
720.93	0.07
721.332	0.07
721.734	0.07
722.137	0.07
722.539	0.07
722.941	0.07
723.343	0.07
723.745	0.07
724.147	0.07
724.549	0.07
724.95	0.07
725.352	0.07
725.754	0.07
726.156	0.07
726.557	0.07
726.959	0.07
727.36	0.07
727.762	0.07
728.163	0.07
728.564	0.07
728.966	0.07
729.367	0.07
729.768	0.07
730.169	0.07
730.57	0.07
730.971	0.07
731.372	0.07
731.773	0.07
732.174	0.07
732.574	0.06
732.975	0.07
733.376	0.07
733.776	0.07
734.177	0.07
734.577	0.07
734.978	0.07
735.378	0.07
735.778	0.07
736.179	0.06
736.579	0.06
736.979	0.06
737.379	0.06
737.779	0.07
738.179	0.06
738.579	0.06
738.979	0.06
739.379	0.06
739.778	0.06
740.178	0.06
740.578	0.06
740.977	0.06
741.377	0.06
741.776	0.06
742.176	0.06
742.575	0.06
742.974	0.06
743.374	0.06
743.773	0.06
744.172	0.06
744.571	0.06
744.97	0.06
745.369	0.06
745.768	0.06
746.167	0.06
746.565	0.06
746.964	0.06
747.363	0.06
747.761	0.06
748.16	0.06
748.559	0.06
748.957	0.06
749.355	0.05
749.754	0.06
750.152	0.06
750.55	0.06
750.948	0.05
751.347	0.05
751.745	0.05
752.143	0.05
752.541	0.05
752.938	0.05
753.336	0.05
753.734	0.05
754.132	0.05
754.529	0.05
754.927	0.05
755.325	0.05
755.722	0.05
756.119	0.05
756.517	0.05
756.914	0.05
757.311	0.05
757.709	0.05
758.106	0.05
758.503	0.05
758.9	0.05
759.297	0.05
759.694	0.05
760.091	0.05
760.488	0.05
760.884	0.05
761.281	0.05
761.678	0.05
762.074	0.05
762.471	0.05
762.867	0.05
763.264	0.05
763.66	0.05
764.056	0.05
764.453	0.05
764.849	0.05
765.245	0.05
765.641	0.05
766.037	0.05
766.433	0.05
766.829	0.05
767.225	0.05
767.621	0.05
768.016	0.05
768.412	0.05
768.808	0.05
769.203	0.05
769.599	0.05
769.994	0.05
770.389	0.05
770.785	0.05
771.18	0.05
771.575	0.06
771.971	0.05
772.366	0.05
772.761	0.05
773.156	0.06
773.551	0.05
773.945	0.06
774.34	0.06
774.735	0.06
775.13	0.06
775.524	0.05
775.919	0.06
776.314	0.06
776.708	0.05
777.103	0.06
777.497	0.06
777.891	0.06
778.285	0.06
778.68	0.06
779.074	0.06
779.468	0.06
779.862	0.06
780.256	0.06
780.65	0.06
781.044	0.06
781.438	0.06
781.831	0.06
782.225	0.06
782.619	0.06
783.012	0.06
783.406	0.06
783.799	0.06
784.193	0.06
784.586	0.06
784.979	0.06
785.372	0.06
785.766	0.06
786.159	0.06
786.552	0.07
786.945	0.06
787.338	0.06
787.731	0.07
788.123	0.06
788.516	0.06
788.909	0.07
789.302	0.06
789.694	0.07
790.087	0.07
790.479	0.07
790.872	0.07
791.264	0.07
791.656	0.07
792.049	0.07
792.441	0.07
792.833	0.07
793.225	0.07
793.617	0.07
794.009	0.07
794.401	0.07
794.793	0.07
795.185	0.07
795.576	0.07
795.968	0.07
796.36	0.07
796.751	0.07
797.143	0.07
797.534	0.07
797.926	0.08
798.317	0.08
798.708	0.07
799.1	0.08
799.491	0.08
799.882	0.08
800.273	0.08
800.664	0.08
801.055	0.08
801.446	0.08
801.837	0.08
802.227	0.08
802.618	0.08
803.009	0.08
803.399	0.08
803.79	0.08
804.18	0.08
804.571	0.08
804.961	0.08
805.351	0.08
805.742	0.08
806.132	0.08
806.522	0.08
806.912	0.09
807.302	0.09
807.692	0.09
808.082	0.09
808.472	0.09
808.862	0.09
809.251	0.09
809.641	0.09
810.031	0.09
810.42	0.09
810.81	0.09
811.199	0.09
811.589	0.09
811.978	0.09
812.367	0.09
812.756	0.09
813.146	0.09
813.535	0.09
813.924	0.09
814.313	0.09
814.702	0.09
815.091	0.09
815.479	0.1
815.868	0.09
816.257	0.1
816.645	0.1
817.034	0.1
817.423	0.1
817.811	0.1
818.199	0.1
818.588	0.1
818.976	0.1
819.364	0.1
819.753	0.1
820.141	0.1
820.529	0.1
820.917	0.1
821.305	0.1
821.693	0.1
822.08	0.1
822.468	0.11
822.856	0.11
823.244	0.11
823.631	0.11
824.019	0.11
824.406	0.11
824.794	0.11
825.181	0.11
825.568	0.11
825.956	0.11
826.343	0.11
826.73	0.11
827.117	0.11
827.504	0.11
827.891	0.11
828.278	0.11
828.665	0.11
829.052	0.11
829.438	0.11
829.825	0.12
830.212	0.12
830.598	0.12
830.985	0.12
831.371	0.12
831.757	0.12
832.144	0.12
832.53	0.12
832.916	0.12
833.302	0.12
833.688	0.12
834.075	0.12
834.461	0.12
834.846	0.12
835.232	0.12
835.618	0.12
836.004	0.13
836.39	0.13
836.775	0.13
837.161	0.13
837.546	0.13
837.932	0.13
838.317	0.13
838.702	0.13
839.088	0.13
839.473	0.13
839.858	0.13
840.243	0.13
840.628	0.13
841.013	0.13
841.398	0.13
841.783	0.13
842.168	0.14
842.553	0.14
842.937	0.14
843.322	0.13
843.707	0.14
844.091	0.14
844.476	0.14
844.86	0.14
845.244	0.14
845.629	0.14
846.013	0.14
846.397	0.14
846.781	0.14
847.165	0.14
847.549	0.14
847.933	0.14
848.317	0.15
848.701	0.14
849.085	0.15
849.468	0.15
849.852	0.15
850.236	0.15
850.619	0.15
851.003	0.15
851.386	0.15
851.769	0.15
852.153	0.16
852.536	0.15
852.919	0.15
853.302	0.15
853.685	0.15
854.068	0.15
854.451	0.15
854.834	0.16
855.217	0.16
855.6	0.15
855.982	0.16
856.365	0.16
856.748	0.16
857.13	0.16
857.513	0.16
857.895	0.16
858.277	0.16
858.66	0.16
859.042	0.16
859.424	0.16
859.806	0.16
860.188	0.16
860.57	0.16
860.952	0.16
861.334	0.16
861.716	0.17
862.098	0.17
862.48	0.17
862.861	0.17
863.243	0.16
863.624	0.17
864.006	0.17
864.387	0.17
864.769	0.17
865.15	0.17
865.531	0.17
865.912	0.17
866.294	0.17
866.675	0.17
867.056	0.17
867.437	0.18
867.818	0.17
868.198	0.17
868.579	0.17
868.96	0.18
869.341	0.18
869.721	0.18
870.102	0.18
870.482	0.18
870.863	0.18
871.243	0.18
871.623	0.18
872.003	0.18
872.384	0.18
872.764	0.18
873.144	0.18
873.524	0.18
873.904	0.18
874.284	0.18
874.664	0.18
875.043	0.18
875.423	0.19
875.803	0.18
876.182	0.18
876.562	0.19
876.941	0.18
877.321	0.19
877.7	0.19
878.079	0.19
878.459	0.19
878.838	0.19
879.217	0.19
879.596	0.19
879.975	0.19
880.354	0.19
880.733	0.19
881.112	0.19
881.491	0.19
881.869	0.19
882.248	0.19
882.627	0.19
883.005	0.2
883.384	0.19
883.762	0.2
884.14	0.2
884.519	0.2
884.897	0.2
885.275	0.2
885.653	0.2
886.031	0.2
886.409	0.2
886.787	0.2
887.165	0.2
887.543	0.2
887.921	0.2
888.298	0.2
888.676	0.2
889.054	0.2
889.431	0.2
889.809	0.2
890.186	0.2
890.563	0.2
890.941	0.2
891.318	0.2
891.695	0.21
892.072	0.2
892.449	0.2
892.826	0.2
893.203	0.21
893.58	0.21
893.957	0.21
894.334	0.2
894.71	0.21
895.087	0.21
895.464	0.21
895.84	0.21
896.217	0.21
896.593	0.21
896.969	0.21
897.346	0.21
897.722	0.21
898.098	0.21
898.474	0.21
898.85	0.21
899.226	0.21
899.602	0.21
899.978	0.21
900.354	0.21
900.73	0.21
901.105	0.21
901.481	0.21
901.857	0.21
902.232	0.21
902.608	0.21
902.983	0.21
903.358	0.21
903.734	0.21
904.109	0.21
904.484	0.22
904.859	0.21
905.234	0.22
905.609	0.22
905.984	0.21
906.359	0.22
906.734	0.21
907.108	0.22
907.483	0.22
907.858	0.22
908.232	0.21
908.607	0.22
908.981	0.21
909.356	0.21
909.73	0.22
910.104	0.22
910.478	0.22
910.853	0.22
911.227	0.22
911.601	0.22
911.975	0.22
912.349	0.22
912.722	0.22
913.096	0.22
913.47	0.22
913.844	0.22
914.217	0.22
914.591	0.22
914.964	0.22
915.338	0.22
915.711	0.22
916.084	0.22
916.458	0.22
916.831	0.22
917.204	0.22
917.577	0.22
917.95	0.22
918.323	0.22
918.696	0.22
919.069	0.22
919.441	0.22
919.814	0.22
920.187	0.22
920.559	0.22
920.932	0.22
921.304	0.22
921.677	0.22
922.049	0.22
922.421	0.22
922.794	0.22
923.166	0.22
923.538	0.22
923.91	0.23
924.282	0.22
924.654	0.22
925.026	0.22
925.398	0.22
925.769	0.22
926.141	0.22
926.513	0.23
926.884	0.22
927.256	0.22
927.627	0.23
927.999	0.22
928.37	0.22
928.741	0.22
929.113	0.22
929.484	0.23
929.855	0.23
930.226	0.22
930.597	0.22
930.968	0.23
931.339	0.23
931.709	0.23
932.08	0.22
932.451	0.23
932.821	0.23
933.192	0.22
933.562	0.23
933.933	0.23
934.303	0.22
934.673	0.22
935.044	0.22
935.414	0.23
935.784	0.22
936.154	0.23
936.524	0.22
936.894	0.22
937.264	0.22
937.634	0.23
938.004	0.22
938.373	0.22
938.743	0.23
939.113	0.22
939.482	0.22
939.852	0.22
940.221	0.22
940.59	0.22
940.96	0.23
941.329	0.23
941.698	0.23
942.067	0.23
942.436	0.23
942.805	0.23
943.174	0.23
943.543	0.23
943.912	0.22
944.28	0.22
944.649	0.22
945.018	0.22
945.386	0.22
945.755	0.23
946.123	0.22
946.492	0.23
946.86	0.23
947.228	0.23
947.596	0.22
947.965	0.23
948.333	0.23
948.701	0.23
949.069	0.22
949.437	0.23
949.804	0.23
950.172	0.22
950.54	0.23
950.908	0.22
951.275	0.23
951.643	0.22
952.01	0.22
952.378	0.23
952.745	0.23
953.112	0.22
953.479	0.23
953.847	0.22
954.214	0.23
954.581	0.22
954.948	0.23
955.315	0.23
955.682	0.22
956.048	0.22
956.415	0.22
956.782	0.22
957.148	0.22
957.515	0.22
957.881	0.22
958.248	0.22
958.614	0.22
958.981	0.22
959.347	0.22
959.713	0.22
960.079	0.22
960.445	0.22
960.811	0.22
961.177	0.22
961.543	0.22
961.909	0.22
962.275	0.22
962.641	0.23
963.006	0.22
963.372	0.22
963.737	0.22
964.103	0.22
964.468	0.22
964.834	0.22
965.199	0.22
965.564	0.22
965.929	0.22
966.294	0.22
966.659	0.22
967.024	0.22
967.389	0.21
967.754	0.22
968.119	0.22
968.484	0.22
968.848	0.22
969.213	0.21
969.578	0.21
969.942	0.22
970.307	0.21
970.671	0.22
971.035	0.22
971.399	0.22
971.764	0.21
972.128	0.21
972.492	0.22
972.856	0.22
973.22	0.22
973.584	0.21
973.948	0.22
974.311	0.22
974.675	0.22
975.039	0.22
975.402	0.21
975.766	0.22
976.129	0.21
976.493	0.22
976.856	0.22
977.219	0.21
977.582	0.21
977.946	0.21
978.309	0.21
978.672	0.22
979.035	0.21
979.398	0.21
979.761	0.21
980.123	0.21
980.486	0.21
980.849	0.21
981.211	0.22
981.574	0.21
981.936	0.21
982.299	0.21
982.661	0.21
983.023	0.21
983.386	0.21
983.748	0.21
984.11	0.21
984.472	0.21
984.834	0.21
985.196	0.21
985.558	0.21
985.92	0.21
986.281	0.21
986.643	0.21
987.005	0.21
987.366	0.21
987.728	0.2
988.089	0.21
988.451	0.21
988.812	0.21
989.173	0.21
989.534	0.2
989.895	0.21
990.257	0.21
990.618	0.2
990.979	0.21
991.339	0.2
991.7	0.2
992.061	0.2
992.422	0.2
992.782	0.2
993.143	0.2
993.503	0.21
993.864	0.2
994.224	0.2
994.585	0.2
994.945	0.2
995.305	0.2
995.665	0.2
996.025	0.2
996.385	0.2
996.745	0.2
997.105	0.2
997.465	0.2
997.825	0.2
998.185	0.2
998.544	0.2
998.904	0.2
999.263	0.2
999.623	0.2
999.982	0.2
1000.342	0.2
1000.701	0.2
1001.06	0.2
1001.419	0.2
1001.778	0.2
1002.138	0.2
1002.497	0.19
1002.855	0.19
1003.214	0.2
1003.573	0.19
1003.932	0.2
1004.29	0.19
1004.649	0.19
1005.008	0.19
1005.366	0.2
1005.725	0.19
1006.083	0.19
1006.441	0.19
1006.799	0.2
1007.158	0.2
1007.516	0.19
1007.874	0.19
1008.232	0.19
1008.59	0.19
1008.948	0.19
1009.305	0.19
1009.663	0.19
1010.021	0.19
1010.379	0.19
1010.736	0.19
1011.094	0.19
1011.451	0.19
1011.808	0.19
1012.166	0.19
1012.523	0.19
1012.88	0.19
1013.237	0.19
1013.594	0.18
1013.951	0.18
1014.308	0.18
1014.665	0.19
1015.022	0.19
1015.379	0.18
1015.735	0.19
1016.092	0.18
1016.449	0.19
1016.805	0.19
1017.162	0.18
1017.518	0.19
1017.874	0.19
1018.231	0.18
1018.587	0.18
1018.943	0.19
1019.299	0.19
1019.655	0.18
1020.011	0.18
1020.367	0.18
1020.723	0.19
1021.078	0.19
1021.434	0.19
1021.79	0.18
1022.145	0.19
1022.501	0.18
1022.856	0.18
1023.212	0.18
1023.567	0.18
1023.922	0.18
1024.278	0.18
1024.633	0.18
1024.988	0.18
1025.343	0.18
1025.698	0.18
1026.053	0.17
1026.408	0.18
1026.762	0.18
1027.117	0.18
1027.472	0.18
1027.826	0.17
1028.181	0.18
1028.535	0.18
1028.89	0.18
1029.244	0.18
1029.598	0.17
1029.952	0.18
1030.307	0.17
1030.661	0.18
1031.015	0.17
1031.369	0.17
1031.723	0.18
1032.076	0.17
