Data from Rubpy_BV_EDTA_TU(3000)_Blank_Blue_Flow_Absorbance__2696__13-31-38-840.txt Node

Date: Mon Aug 03 13:31:38 BST 2026
User: fpm-admin
Spectrometer: SR600986
Trigger mode: 0
Integration Time (sec): 8.000000E-3
Scans to average: 3
Nonlinearity correction enabled: true
Boxcar width: 0
Storing dark spectrum: false
XAxis mode: Wavelengths
Number of Pixels in Spectrum: 2048
>>>>>Begin Spectral Data<<<<<
188.613	0.28
189.078	0.3
189.542	0.32
190.007	0.32
190.472	0.3
190.936	0.28
191.401	0.31
191.865	0.3
192.33	0.29
192.794	0.29
193.258	0.31
193.723	0.29
194.187	0.3
194.651	0.3
195.115	0.29
195.579	0.32
196.043	0.28
196.507	0.33
196.971	0.28
197.435	0.29
197.899	0.29
198.363	0.3
198.827	0.3
199.29	0.3
199.754	0.29
200.218	0.33
200.681	0.29
201.145	0.3
201.608	0.27
202.072	0.31
202.535	0.3
202.998	0.31
203.462	0.32
203.925	0.32
204.388	0.29
204.851	0.27
205.314	0.31
205.777	0.31
206.24	0.3
206.703	0.32
207.166	0.29
207.629	0.3
208.092	0.31
208.555	0.27
209.018	0.31
209.48	0.27
209.943	0.3
210.406	0.3
210.868	0.28
211.331	0.27
211.793	0.3
212.256	0.32
212.718	0.28
213.18	0.32
213.643	0.31
214.105	0.29
214.567	0.3
215.029	0.29
215.491	0.29
215.953	0.29
216.415	0.28
216.877	0.29
217.339	0.32
217.801	0.3
218.263	0.29
218.725	0.32
219.186	0.31
219.648	0.31
220.11	0.26
220.571	0.28
221.033	0.29
221.494	0.31
221.956	0.31
222.417	0.31
222.878	0.3
223.34	0.31
223.801	0.28
224.262	0.31
224.723	0.29
225.185	0.28
225.646	0.27
226.107	0.31
226.568	0.29
227.029	0.29
227.489	0.29
227.95	0.3
228.411	0.31
228.872	0.3
229.332	0.28
229.793	0.28
230.254	0.28
230.714	0.29
231.175	0.3
231.635	0.29
232.096	0.3
232.556	0.29
233.016	0.27
233.477	0.29
233.937	0.29
234.397	0.28
234.857	0.3
235.317	0.3
235.777	0.3
236.237	0.28
236.697	0.31
237.157	0.31
237.617	0.29
238.077	0.31
238.537	0.29
238.996	0.32
239.456	0.27
239.916	0.3
240.375	0.28
240.835	0.28
241.294	0.31
241.754	0.3
242.213	0.3
242.672	0.29
243.132	0.3
243.591	0.32
244.05	0.28
244.509	0.29
244.968	0.29
245.427	0.3
245.886	0.3
246.345	0.29
246.804	0.28
247.263	0.33
247.722	0.3
248.181	0.31
248.639	0.29
249.098	0.3
249.557	0.32
250.015	0.29
250.474	0.29
250.932	0.32
251.391	0.3
251.849	0.32
252.308	0.34
252.766	0.27
253.224	0.32
253.682	0.3
254.14	0.28
254.599	0.3
255.057	0.31
255.515	0.3
255.973	0.31
256.431	0.31
256.888	0.29
257.346	0.28
257.804	0.3
258.262	0.3
258.719	0.29
259.177	0.3
259.635	0.29
260.092	0.28
260.55	0.3
261.007	0.28
261.465	0.29
261.922	0.3
262.379	0.3
262.836	0.32
263.294	0.28
263.751	0.33
264.208	0.31
264.665	0.29
265.122	0.31
265.579	0.32
266.036	0.29
266.493	0.3
266.95	0.31
267.406	0.31
267.863	0.29
268.32	0.29
268.777	0.29
269.233	0.29
269.69	0.29
270.146	0.3
270.603	0.3
271.059	0.3
271.515	0.28
271.972	0.31
272.428	0.27
272.884	0.32
273.34	0.29
273.796	0.28
274.253	0.29
274.709	0.29
275.165	0.27
275.62	0.31
276.076	0.28
276.532	0.3
276.988	0.29
277.444	0.29
277.899	0.29
278.355	0.31
278.811	0.28
279.266	0.29
279.722	0.28
280.177	0.29
280.633	0.32
281.088	0.31
281.543	0.28
281.998	0.32
282.454	0.33
282.909	0.31
283.364	0.3
283.819	0.3
284.274	0.27
284.729	0.31
285.184	0.29
285.639	0.27
286.094	0.32
286.548	0.3
287.003	0.31
287.458	0.3
287.913	0.28
288.367	0.31
288.822	0.28
289.276	0.32
289.731	0.3
290.185	0.31
290.639	0.32
291.094	0.3
291.548	0.32
292.002	0.3
292.456	0.32
292.91	0.31
293.365	0.31
293.819	0.3
294.273	0.3
294.726	0.31
295.18	0.29
295.634	0.33
296.088	0.3
296.542	0.31
296.995	0.3
297.449	0.3
297.903	0.33
298.356	0.27
298.81	0.3
299.263	0.29
299.716	0.3
300.17	0.31
300.623	0.3
301.076	0.34
301.53	0.31
301.983	0.31
302.436	0.31
302.889	0.3
303.342	0.3
303.795	0.3
304.248	0.3
304.701	0.32
305.153	0.3
305.606	0.3
306.059	0.3
306.512	0.31
306.964	0.33
307.417	0.31
307.869	0.29
308.322	0.32
308.774	0.28
309.227	0.32
309.679	0.32
310.131	0.31
310.584	0.31
311.036	0.31
311.488	0.31
311.94	0.32
312.392	0.29
312.844	0.31
313.296	0.3
313.748	0.32
314.2	0.32
314.652	0.32
315.103	0.33
315.555	0.32
316.007	0.34
316.458	0.34
316.91	0.34
317.361	0.33
317.813	0.35
318.264	0.34
318.716	0.35
319.167	0.36
319.618	0.36
320.07	0.37
320.521	0.37
320.972	0.38
321.423	0.38
321.874	0.39
322.325	0.4
322.776	0.41
323.227	0.41
323.678	0.42
324.128	0.43
324.579	0.44
325.03	0.45
325.48	0.47
325.931	0.47
326.382	0.48
326.832	0.48
327.283	0.5
327.733	0.52
328.183	0.56
328.634	0.58
329.084	0.59
329.534	0.62
329.984	0.64
330.434	0.64
330.884	0.65
331.334	0.68
331.784	0.69
332.234	0.72
332.684	0.73
333.134	0.73
333.584	0.78
334.034	0.8
334.483	0.81
334.933	0.82
335.382	0.84
335.832	0.87
336.281	0.86
336.731	0.89
337.18	0.92
337.63	0.93
338.079	0.95
338.528	0.96
338.977	0.99
339.426	1.01
339.876	1.04
340.325	1.06
340.774	1.05
341.223	1.08
341.671	1.09
342.12	1.1
342.569	1.12
343.018	1.16
343.467	1.15
343.915	1.18
344.364	1.19
344.812	1.21
345.261	1.2
345.709	1.22
346.158	1.26
346.606	1.25
347.054	1.27
347.503	1.27
347.951	1.29
348.399	1.3
348.847	1.31
349.295	1.31
349.743	1.31
350.191	1.31
350.639	1.32
351.087	1.34
351.535	1.34
351.983	1.36
352.43	1.36
352.878	1.37
353.326	1.39
353.773	1.35
354.221	1.41
354.668	1.4
355.116	1.43
355.563	1.43
356.01	1.4
356.458	1.45
356.905	1.47
357.352	1.47
357.799	1.49
358.246	1.5
358.693	1.5
359.14	1.52
359.587	1.5
360.034	1.54
360.481	1.53
360.928	1.56
361.375	1.56
361.821	1.56
362.268	1.58
362.714	1.59
363.161	1.59
363.608	1.63
364.054	1.62
364.5	1.62
364.947	1.64
365.393	1.64
365.839	1.63
366.285	1.63
366.732	1.66
367.178	1.68
367.624	1.66
368.07	1.66
368.516	1.67
368.962	1.64
369.408	1.66
369.853	1.66
370.299	1.69
370.745	1.65
371.19	1.67
371.636	1.64
372.082	1.66
372.527	1.66
372.973	1.67
373.418	1.67
373.863	1.66
374.309	1.66
374.754	1.66
375.199	1.66
375.644	1.65
376.09	1.65
376.535	1.64
376.98	1.65
377.425	1.64
377.87	1.64
378.314	1.61
378.759	1.64
379.204	1.62
379.649	1.62
380.093	1.57
380.538	1.57
380.983	1.56
381.427	1.54
381.872	1.51
382.316	1.49
382.76	1.47
383.205	1.45
383.649	1.44
384.093	1.4
384.537	1.38
384.982	1.37
385.426	1.33
385.87	1.3
386.314	1.29
386.758	1.26
387.201	1.24
387.645	1.21
388.089	1.19
388.533	1.17
388.976	1.14
389.42	1.11
389.864	1.08
390.307	1.07
390.751	1.04
391.194	1.03
391.638	0.99
392.081	0.98
392.524	0.97
392.967	0.95
393.411	0.92
393.854	0.92
394.297	0.9
394.74	0.9
395.183	0.88
395.626	0.87
396.069	0.87
396.512	0.85
396.954	0.85
397.397	0.85
397.84	0.85
398.282	0.86
398.725	0.86
399.168	0.85
399.61	0.84
400.052	0.84
400.495	0.82
400.937	0.82
401.38	0.81
401.822	0.79
402.264	0.77
402.706	0.75
403.148	0.74
403.59	0.71
404.032	0.7
404.474	0.68
404.916	0.64
405.358	0.63
405.8	0.6
406.241	0.59
406.683	0.57
407.125	0.54
407.566	0.52
408.008	0.5
408.449	0.49
408.891	0.48
409.332	0.46
409.774	0.44
410.215	0.42
410.656	0.41
411.097	0.39
411.539	0.38
411.98	0.36
412.421	0.35
412.862	0.35
413.303	0.33
413.744	0.33
414.184	0.32
414.625	0.32
415.066	0.3
415.507	0.29
415.947	0.3
416.388	0.29
416.828	0.27
417.269	0.27
417.709	0.28
418.15	0.27
418.59	0.27
419.03	0.27
419.471	0.26
419.911	0.25
420.351	0.25
420.791	0.26
421.231	0.25
421.671	0.25
422.111	0.24
422.551	0.23
422.991	0.26
423.431	0.23
423.87	0.25
424.31	0.23
424.75	0.25
425.189	0.24
425.629	0.25
426.068	0.25
426.508	0.23
426.947	0.25
427.386	0.25
427.826	0.24
428.265	0.23
428.704	0.24
429.143	0.24
429.582	0.23
430.021	0.23
430.46	0.24
430.899	0.23
431.338	0.24
431.777	0.25
432.216	0.25
432.655	0.25
433.093	0.23
433.532	0.25
433.971	0.25
434.409	0.24
434.848	0.27
435.286	0.27
435.724	0.26
436.163	0.24
436.601	0.27
437.039	0.26
437.477	0.26
437.916	0.25
438.354	0.26
438.792	0.25
439.23	0.25
439.668	0.26
440.105	0.27
440.543	0.27
440.981	0.26
441.419	0.27
441.856	0.27
442.294	0.27
442.732	0.26
443.169	0.27
443.607	0.28
444.044	0.28
444.481	0.29
444.919	0.28
445.356	0.28
445.793	0.28
446.23	0.28
446.668	0.28
447.105	0.3
447.542	0.3
447.979	0.31
448.416	0.28
448.852	0.32
449.289	0.31
449.726	0.29
450.163	0.31
450.599	0.29
451.036	0.29
451.473	0.29
451.909	0.32
452.346	0.31
452.782	0.33
453.218	0.31
453.655	0.31
454.091	0.31
454.527	0.32
454.963	0.33
455.399	0.31
455.835	0.32
456.271	0.32
456.707	0.32
457.143	0.29
457.579	0.33
458.015	0.31
458.451	0.32
458.886	0.35
459.322	0.34
459.758	0.33
460.193	0.35
460.629	0.34
461.064	0.33
461.5	0.35
461.935	0.34
462.37	0.36
462.805	0.37
463.241	0.35
463.676	0.35
464.111	0.36
464.546	0.38
464.981	0.36
465.416	0.38
465.851	0.38
466.286	0.37
466.72	0.39
467.155	0.4
467.59	0.4
468.024	0.42
468.459	0.42
468.893	0.43
469.328	0.43
469.762	0.44
470.197	0.43
470.631	0.45
471.065	0.44
471.5	0.45
471.934	0.47
472.368	0.47
472.802	0.49
473.236	0.5
473.67	0.5
474.104	0.51
474.538	0.52
474.972	0.53
475.405	0.55
475.839	0.56
476.273	0.55
476.706	0.56
477.14	0.58
477.573	0.58
478.007	0.58
478.44	0.59
478.874	0.61
479.307	0.62
479.74	0.62
480.173	0.63
480.606	0.65
481.04	0.65
481.473	0.66
481.906	0.67
482.339	0.67
482.771	0.68
483.204	0.69
483.637	0.7
484.07	0.7
484.502	0.72
484.935	0.72
485.368	0.73
485.8	0.74
486.233	0.75
486.665	0.76
487.098	0.76
487.53	0.77
487.962	0.78
488.394	0.78
488.827	0.78
489.259	0.8
489.691	0.79
490.123	0.81
490.555	0.82
490.987	0.82
491.418	0.83
491.85	0.84
492.282	0.84
492.714	0.85
493.145	0.86
493.577	0.86
494.009	0.87
494.44	0.88
494.872	0.89
495.303	0.89
495.734	0.9
496.166	0.9
496.597	0.91
497.028	0.92
497.459	0.93
497.89	0.93
498.321	0.94
498.752	0.94
499.183	0.95
499.614	0.96
500.045	0.96
500.476	0.97
500.906	0.98
501.337	0.99
501.768	1
502.198	1
502.629	1.01
503.059	1.01
503.49	1.02
503.92	1.02
504.35	1.02
504.781	1.03
505.211	1.05
505.641	1.05
506.071	1.04
506.501	1.06
506.931	1.05
507.361	1.08
507.791	1.07
508.221	1.07
508.651	1.08
509.081	1.09
509.51	1.09
509.94	1.1
510.37	1.1
510.799	1.11
511.229	1.11
511.658	1.11
512.087	1.12
512.517	1.13
512.946	1.14
513.375	1.14
513.804	1.14
514.234	1.14
514.663	1.15
515.092	1.15
515.521	1.14
515.95	1.16
516.378	1.16
516.807	1.17
517.236	1.17
517.665	1.19
518.093	1.19
518.522	1.18
518.951	1.2
519.379	1.18
519.807	1.19
520.236	1.2
520.664	1.21
521.093	1.21
521.521	1.2
521.949	1.21
522.377	1.22
522.805	1.22
523.233	1.21
523.661	1.22
524.089	1.23
524.517	1.23
524.945	1.23
525.373	1.23
525.8	1.24
526.228	1.24
526.656	1.24
527.083	1.24
527.511	1.24
527.938	1.25
528.366	1.25
528.793	1.24
529.22	1.24
529.648	1.25
530.075	1.25
530.502	1.26
530.929	1.26
531.356	1.26
531.783	1.26
532.21	1.25
532.637	1.26
533.064	1.27
533.49	1.25
533.917	1.26
534.344	1.28
534.771	1.27
535.197	1.27
535.624	1.27
536.05	1.27
536.477	1.26
536.903	1.27
537.329	1.28
537.755	1.28
538.182	1.27
538.608	1.28
539.034	1.28
539.46	1.27
539.886	1.27
540.312	1.28
540.738	1.28
541.164	1.27
541.589	1.27
542.015	1.28
542.441	1.27
542.867	1.27
543.292	1.27
543.718	1.27
544.143	1.28
544.569	1.27
544.994	1.27
545.419	1.27
545.845	1.27
546.27	1.27
546.695	1.26
547.12	1.25
547.545	1.27
547.97	1.26
548.395	1.26
548.82	1.26
549.245	1.25
549.67	1.24
550.094	1.25
550.519	1.24
550.944	1.25
551.368	1.24
551.793	1.24
552.217	1.25
552.642	1.24
553.066	1.23
553.49	1.23
553.915	1.24
554.339	1.23
554.763	1.23
555.187	1.23
555.611	1.22
556.035	1.22
556.459	1.22
556.883	1.22
557.307	1.21
557.731	1.21
558.154	1.2
558.578	1.19
559.002	1.2
559.425	1.2
559.849	1.19
560.272	1.2
560.696	1.19
561.119	1.19
561.543	1.18
561.966	1.18
562.389	1.18
562.812	1.17
563.235	1.16
563.658	1.17
564.081	1.17
564.504	1.16
564.927	1.15
565.35	1.15
565.773	1.15
566.196	1.14
566.618	1.14
567.041	1.14
567.463	1.13
567.886	1.13
568.309	1.13
568.731	1.13
569.153	1.12
569.576	1.12
569.998	1.12
570.42	1.12
570.842	1.11
571.264	1.1
571.686	1.1
572.108	1.1
572.53	1.1
572.952	1.09
573.374	1.09
573.796	1.08
574.218	1.08
574.639	1.07
575.061	1.07
575.483	1.07
575.904	1.07
576.326	1.06
576.747	1.06
577.168	1.05
577.59	1.05
578.011	1.04
578.432	1.04
578.853	1.03
579.274	1.03
579.695	1.03
580.116	1.02
580.537	1.02
580.958	1.01
581.379	1.01
581.8	1
582.221	1
582.641	1
583.062	0.99
583.482	0.99
583.903	0.99
584.323	0.98
584.744	0.98
585.164	0.98
585.584	0.97
586.005	0.97
586.425	0.96
586.845	0.95
587.265	0.96
587.685	0.95
588.105	0.94
588.525	0.94
588.945	0.94
589.365	0.94
589.785	0.93
590.204	0.93
590.624	0.93
591.044	0.92
591.463	0.92
591.883	0.91
592.302	0.91
592.721	0.91
593.141	0.9
593.56	0.9
593.979	0.89
594.399	0.89
594.818	0.89
595.237	0.88
595.656	0.89
596.075	0.88
596.494	0.88
596.913	0.87
597.331	0.87
597.75	0.87
598.169	0.86
598.587	0.86
599.006	0.86
599.425	0.85
599.843	0.84
600.262	0.85
600.68	0.84
601.098	0.84
601.517	0.83
601.935	0.83
602.353	0.83
602.771	0.82
603.189	0.82
603.607	0.81
604.025	0.81
604.443	0.81
604.861	0.81
605.279	0.8
605.696	0.8
606.114	0.79
606.532	0.79
606.949	0.79
607.367	0.78
607.784	0.78
608.202	0.77
608.619	0.77
609.036	0.77
609.454	0.76
609.871	0.76
610.288	0.75
610.705	0.75
611.122	0.75
611.539	0.74
611.956	0.74
612.373	0.74
612.79	0.73
613.207	0.73
613.623	0.72
614.04	0.72
614.457	0.72
614.873	0.71
615.29	0.71
615.706	0.71
616.122	0.7
616.539	0.7
616.955	0.7
617.371	0.69
617.788	0.69
618.204	0.69
618.62	0.68
619.036	0.67
619.452	0.67
619.868	0.67
620.284	0.67
620.699	0.66
621.115	0.66
621.531	0.65
621.946	0.65
622.362	0.64
622.778	0.64
623.193	0.64
623.608	0.63
624.024	0.63
624.439	0.63
624.854	0.62
625.27	0.62
625.685	0.61
626.1	0.61
626.515	0.61
626.93	0.6
627.345	0.6
627.76	0.59
628.175	0.59
628.589	0.59
629.004	0.58
629.419	0.58
629.833	0.58
630.248	0.57
630.663	0.56
631.077	0.56
631.491	0.56
631.906	0.56
632.32	0.55
632.734	0.55
633.148	0.54
633.563	0.54
633.977	0.53
634.391	0.53
634.805	0.53
635.219	0.52
635.632	0.52
636.046	0.52
636.46	0.51
636.874	0.5
637.287	0.5
637.701	0.5
638.115	0.49
638.528	0.49
638.941	0.49
639.355	0.48
639.768	0.48
640.181	0.48
640.595	0.47
641.008	0.47
641.421	0.47
641.834	0.46
642.247	0.46
642.66	0.46
643.073	0.45
643.486	0.45
643.898	0.44
644.311	0.44
644.724	0.44
645.136	0.44
645.549	0.43
645.961	0.43
646.374	0.42
646.786	0.42
647.199	0.42
647.611	0.41
648.023	0.41
648.435	0.41
648.847	0.41
649.26	0.4
649.672	0.4
650.084	0.4
650.495	0.4
650.907	0.39
651.319	0.39
651.731	0.39
652.143	0.38
652.554	0.38
652.966	0.38
653.377	0.38
653.789	0.38
654.2	0.37
654.612	0.37
655.023	0.38
655.434	0.35
655.845	0.34
656.256	0.36
656.668	0.36
657.079	0.36
657.49	0.35
657.901	0.35
658.311	0.35
658.722	0.34
659.133	0.34
659.544	0.34
659.954	0.34
660.365	0.34
660.775	0.33
661.186	0.33
661.596	0.33
662.007	0.32
662.417	0.32
662.827	0.32
663.238	0.32
663.648	0.32
664.058	0.32
664.468	0.31
664.878	0.31
665.288	0.31
665.698	0.31
666.108	0.3
666.517	0.3
666.927	0.3
667.337	0.3
667.746	0.29
668.156	0.29
668.565	0.29
668.975	0.29
669.384	0.29
669.794	0.28
670.203	0.28
670.612	0.28
671.021	0.27
671.43	0.27
671.84	0.27
672.249	0.27
672.658	0.27
673.066	0.26
673.475	0.26
673.884	0.26
674.293	0.26
674.702	0.25
675.11	0.25
675.519	0.25
675.927	0.25
676.336	0.24
676.744	0.24
677.152	0.24
677.561	0.24
677.969	0.23
678.377	0.23
678.785	0.23
679.193	0.23
679.601	0.22
680.009	0.22
680.417	0.22
680.825	0.22
681.233	0.22
681.641	0.21
682.048	0.21
682.456	0.21
682.864	0.21
683.271	0.21
683.679	0.2
684.086	0.2
684.493	0.2
684.901	0.19
685.308	0.19
685.715	0.19
686.122	0.19
686.529	0.19
686.936	0.18
687.343	0.18
687.75	0.18
688.157	0.18
688.564	0.18
688.971	0.18
689.378	0.17
689.784	0.17
690.191	0.17
690.597	0.17
691.004	0.17
691.41	0.16
691.817	0.16
692.223	0.16
692.629	0.16
693.035	0.16
693.442	0.16
693.848	0.16
694.254	0.15
694.66	0.15
695.066	0.15
695.471	0.15
695.877	0.15
696.283	0.15
696.689	0.15
697.094	0.15
697.5	0.14
697.906	0.14
698.311	0.14
698.716	0.14
699.122	0.14
699.527	0.14
699.932	0.14
700.338	0.13
700.743	0.13
701.148	0.13
701.553	0.13
701.958	0.13
702.363	0.13
702.768	0.13
703.173	0.13
703.577	0.13
703.982	0.13
704.387	0.13
704.791	0.13
705.196	0.13
705.6	0.12
706.005	0.12
706.409	0.12
706.814	0.12
707.218	0.12
707.622	0.12
708.026	0.12
708.43	0.12
708.834	0.12
709.238	0.12
709.642	0.12
710.046	0.12
710.45	0.12
710.854	0.12
711.257	0.12
711.661	0.12
712.065	0.12
712.468	0.12
712.872	0.12
713.275	0.12
713.679	0.12
714.082	0.12
714.485	0.11
714.888	0.12
715.291	0.12
715.695	0.12
716.098	0.11
716.501	0.12
716.904	0.12
717.306	0.12
717.709	0.12
718.112	0.11
718.515	0.12
718.917	0.11
719.32	0.11
719.723	0.12
720.125	0.11
720.527	0.12
720.93	0.11
721.332	0.12
721.734	0.12
722.137	0.11
722.539	0.12
722.941	0.11
723.343	0.11
723.745	0.11
724.147	0.11
724.549	0.12
724.95	0.12
725.352	0.11
725.754	0.11
726.156	0.11
726.557	0.11
726.959	0.12
727.36	0.11
727.762	0.11
728.163	0.11
728.564	0.11
728.966	0.11
729.367	0.11
729.768	0.11
730.169	0.11
730.57	0.11
730.971	0.11
731.372	0.11
731.773	0.11
732.174	0.11
732.574	0.11
732.975	0.11
733.376	0.11
733.776	0.11
734.177	0.11
734.577	0.11
734.978	0.11
735.378	0.11
735.778	0.11
736.179	0.11
736.579	0.11
736.979	0.11
737.379	0.11
737.779	0.11
738.179	0.11
738.579	0.1
738.979	0.1
739.379	0.1
739.778	0.1
740.178	0.1
740.578	0.1
740.977	0.1
741.377	0.1
741.776	0.1
742.176	0.1
742.575	0.1
742.974	0.1
743.374	0.1
743.773	0.1
744.172	0.1
744.571	0.1
744.97	0.1
745.369	0.1
745.768	0.1
746.167	0.1
746.565	0.09
746.964	0.1
747.363	0.09
747.761	0.09
748.16	0.09
748.559	0.09
748.957	0.09
749.355	0.09
749.754	0.09
750.152	0.1
750.55	0.09
750.948	0.09
751.347	0.09
751.745	0.09
752.143	0.09
752.541	0.09
752.938	0.09
753.336	0.09
753.734	0.09
754.132	0.09
754.529	0.09
754.927	0.09
755.325	0.09
755.722	0.09
756.119	0.09
756.517	0.09
756.914	0.09
757.311	0.09
757.709	0.09
758.106	0.09
758.503	0.09
758.9	0.09
759.297	0.09
759.694	0.09
760.091	0.09
760.488	0.09
760.884	0.09
761.281	0.09
761.678	0.09
762.074	0.09
762.471	0.09
762.867	0.09
763.264	0.09
763.66	0.09
764.056	0.09
764.453	0.09
764.849	0.09
765.245	0.09
765.641	0.09
766.037	0.09
766.433	0.09
766.829	0.09
767.225	0.09
767.621	0.09
768.016	0.09
768.412	0.09
768.808	0.09
769.203	0.09
769.599	0.09
769.994	0.09
770.389	0.09
770.785	0.09
771.18	0.09
771.575	0.09
771.971	0.09
772.366	0.1
772.761	0.09
773.156	0.1
773.551	0.1
773.945	0.1
774.34	0.1
774.735	0.1
775.13	0.1
775.524	0.1
775.919	0.1
776.314	0.1
776.708	0.1
777.103	0.1
777.497	0.1
777.891	0.1
778.285	0.1
778.68	0.1
779.074	0.1
779.468	0.1
779.862	0.1
780.256	0.1
780.65	0.1
781.044	0.1
781.438	0.1
781.831	0.1
782.225	0.11
782.619	0.1
783.012	0.1
783.406	0.11
783.799	0.1
784.193	0.11
784.586	0.11
784.979	0.11
785.372	0.11
785.766	0.11
786.159	0.11
786.552	0.11
786.945	0.11
787.338	0.11
787.731	0.11
788.123	0.12
788.516	0.11
788.909	0.12
789.302	0.11
789.694	0.12
790.087	0.12
790.479	0.12
790.872	0.12
791.264	0.12
791.656	0.12
792.049	0.12
792.441	0.12
792.833	0.12
793.225	0.12
793.617	0.12
794.009	0.12
794.401	0.12
794.793	0.12
795.185	0.13
795.576	0.13
795.968	0.12
796.36	0.13
796.751	0.13
797.143	0.13
797.534	0.13
797.926	0.13
798.317	0.13
798.708	0.13
799.1	0.13
799.491	0.14
799.882	0.13
800.273	0.14
800.664	0.14
801.055	0.14
801.446	0.14
801.837	0.14
802.227	0.14
802.618	0.14
803.009	0.14
803.399	0.14
803.79	0.14
804.18	0.14
804.571	0.14
804.961	0.14
805.351	0.15
805.742	0.15
806.132	0.15
806.522	0.15
806.912	0.15
807.302	0.15
807.692	0.15
808.082	0.15
808.472	0.15
808.862	0.15
809.251	0.15
809.641	0.15
810.031	0.15
810.42	0.16
810.81	0.16
811.199	0.16
811.589	0.16
811.978	0.16
812.367	0.16
812.756	0.16
813.146	0.16
813.535	0.16
813.924	0.16
814.313	0.16
814.702	0.17
815.091	0.17
815.479	0.17
815.868	0.17
816.257	0.17
816.645	0.17
817.034	0.17
817.423	0.17
817.811	0.17
818.199	0.17
818.588	0.18
818.976	0.18
819.364	0.18
819.753	0.18
820.141	0.18
820.529	0.18
820.917	0.18
821.305	0.18
821.693	0.18
822.08	0.18
822.468	0.19
822.856	0.19
823.244	0.19
823.631	0.19
824.019	0.19
824.406	0.19
824.794	0.19
825.181	0.19
825.568	0.19
825.956	0.19
826.343	0.19
826.73	0.2
827.117	0.2
827.504	0.2
827.891	0.2
828.278	0.2
828.665	0.2
829.052	0.2
829.438	0.2
829.825	0.21
830.212	0.21
830.598	0.21
830.985	0.21
831.371	0.21
831.757	0.21
832.144	0.21
832.53	0.21
832.916	0.21
833.302	0.21
833.688	0.21
834.075	0.22
834.461	0.21
834.846	0.21
835.232	0.22
835.618	0.22
836.004	0.22
836.39	0.22
836.775	0.22
837.161	0.22
837.546	0.22
837.932	0.23
838.317	0.23
838.702	0.23
839.088	0.23
839.473	0.23
839.858	0.23
840.243	0.23
840.628	0.23
841.013	0.23
841.398	0.24
841.783	0.24
842.168	0.24
842.553	0.24
842.937	0.24
843.322	0.24
843.707	0.24
844.091	0.24
844.476	0.24
844.86	0.24
845.244	0.24
845.629	0.25
846.013	0.25
846.397	0.25
846.781	0.25
847.165	0.25
847.549	0.25
847.933	0.25
848.317	0.25
848.701	0.25
849.085	0.25
849.468	0.26
849.852	0.26
850.236	0.26
850.619	0.26
851.003	0.26
851.386	0.26
851.769	0.26
852.153	0.27
852.536	0.26
852.919	0.27
853.302	0.26
853.685	0.27
854.068	0.27
854.451	0.27
854.834	0.27
855.217	0.27
855.6	0.27
855.982	0.27
856.365	0.27
856.748	0.27
857.13	0.27
857.513	0.28
857.895	0.28
858.277	0.28
858.66	0.28
859.042	0.28
859.424	0.28
859.806	0.28
860.188	0.28
860.57	0.28
860.952	0.29
861.334	0.29
861.716	0.29
862.098	0.29
862.48	0.29
862.861	0.29
863.243	0.29
863.624	0.29
864.006	0.29
864.387	0.29
864.769	0.3
865.15	0.3
865.531	0.3
865.912	0.3
866.294	0.3
866.675	0.3
867.056	0.3
867.437	0.3
867.818	0.3
868.198	0.3
868.579	0.31
868.96	0.31
869.341	0.31
869.721	0.31
870.102	0.31
870.482	0.31
870.863	0.32
871.243	0.31
871.623	0.31
872.003	0.31
872.384	0.31
872.764	0.32
873.144	0.32
873.524	0.32
873.904	0.32
874.284	0.32
874.664	0.32
875.043	0.32
875.423	0.32
875.803	0.32
876.182	0.32
876.562	0.32
876.941	0.33
877.321	0.33
877.7	0.33
878.079	0.33
878.459	0.33
878.838	0.33
879.217	0.33
879.596	0.33
879.975	0.33
880.354	0.33
880.733	0.33
881.112	0.33
881.491	0.33
881.869	0.34
882.248	0.33
882.627	0.34
883.005	0.34
883.384	0.34
883.762	0.34
884.14	0.34
884.519	0.34
884.897	0.34
885.275	0.34
885.653	0.35
886.031	0.34
886.409	0.35
886.787	0.35
887.165	0.35
887.543	0.35
887.921	0.35
888.298	0.35
888.676	0.35
889.054	0.35
889.431	0.35
889.809	0.35
890.186	0.35
890.563	0.35
890.941	0.35
891.318	0.35
891.695	0.36
892.072	0.36
892.449	0.36
892.826	0.36
893.203	0.36
893.58	0.36
893.957	0.36
894.334	0.36
894.71	0.36
895.087	0.36
895.464	0.36
895.84	0.36
896.217	0.36
896.593	0.36
896.969	0.36
897.346	0.36
897.722	0.36
898.098	0.36
898.474	0.37
898.85	0.37
899.226	0.37
899.602	0.37
899.978	0.37
900.354	0.37
900.73	0.37
901.105	0.37
901.481	0.37
901.857	0.37
902.232	0.37
902.608	0.37
902.983	0.37
903.358	0.37
903.734	0.38
904.109	0.38
904.484	0.38
904.859	0.37
905.234	0.38
905.609	0.38
905.984	0.38
906.359	0.38
906.734	0.38
907.108	0.38
907.483	0.38
907.858	0.38
908.232	0.38
908.607	0.38
908.981	0.38
909.356	0.38
909.73	0.38
910.104	0.38
910.478	0.38
910.853	0.38
911.227	0.38
911.601	0.38
911.975	0.39
912.349	0.38
912.722	0.38
913.096	0.38
913.47	0.38
913.844	0.38
914.217	0.39
914.591	0.39
914.964	0.39
915.338	0.39
915.711	0.39
916.084	0.39
916.458	0.39
916.831	0.39
917.204	0.39
917.577	0.39
917.95	0.39
918.323	0.39
918.696	0.39
919.069	0.39
919.441	0.39
919.814	0.39
920.187	0.39
920.559	0.39
920.932	0.39
921.304	0.39
921.677	0.39
922.049	0.39
922.421	0.39
922.794	0.39
923.166	0.39
923.538	0.39
923.91	0.39
924.282	0.39
924.654	0.39
925.026	0.39
925.398	0.4
925.769	0.39
926.141	0.39
926.513	0.4
926.884	0.39
927.256	0.39
927.627	0.39
927.999	0.39
928.37	0.39
928.741	0.4
929.113	0.39
929.484	0.4
929.855	0.4
930.226	0.4
930.597	0.39
930.968	0.4
931.339	0.4
931.709	0.39
932.08	0.4
932.451	0.4
932.821	0.4
933.192	0.4
933.562	0.4
933.933	0.4
934.303	0.4
934.673	0.4
935.044	0.4
935.414	0.4
935.784	0.4
936.154	0.4
936.524	0.4
936.894	0.4
937.264	0.4
937.634	0.4
938.004	0.4
938.373	0.4
938.743	0.4
939.113	0.4
939.482	0.4
939.852	0.4
940.221	0.4
940.59	0.4
940.96	0.4
941.329	0.4
941.698	0.4
942.067	0.4
942.436	0.4
942.805	0.4
943.174	0.4
943.543	0.4
943.912	0.4
944.28	0.39
944.649	0.4
945.018	0.4
945.386	0.4
945.755	0.4
946.123	0.4
946.492	0.4
946.86	0.4
947.228	0.4
947.596	0.4
947.965	0.4
948.333	0.4
948.701	0.4
949.069	0.4
949.437	0.4
949.804	0.4
950.172	0.4
950.54	0.4
950.908	0.4
951.275	0.4
951.643	0.4
952.01	0.4
952.378	0.4
952.745	0.4
953.112	0.4
953.479	0.4
953.847	0.4
954.214	0.4
954.581	0.4
954.948	0.4
955.315	0.4
955.682	0.4
956.048	0.4
956.415	0.4
956.782	0.4
957.148	0.39
957.515	0.39
957.881	0.4
958.248	0.39
958.614	0.4
958.981	0.4
959.347	0.4
959.713	0.39
960.079	0.39
960.445	0.39
960.811	0.39
961.177	0.39
961.543	0.39
961.909	0.39
962.275	0.39
962.641	0.4
963.006	0.39
963.372	0.39
963.737	0.39
964.103	0.39
964.468	0.39
964.834	0.39
965.199	0.39
965.564	0.39
965.929	0.39
966.294	0.39
966.659	0.39
967.024	0.39
967.389	0.39
967.754	0.39
968.119	0.39
968.484	0.39
968.848	0.39
969.213	0.39
969.578	0.38
969.942	0.39
970.307	0.38
970.671	0.39
971.035	0.39
971.399	0.39
971.764	0.38
972.128	0.38
972.492	0.39
972.856	0.39
973.22	0.38
973.584	0.38
973.948	0.38
974.311	0.38
974.675	0.38
975.039	0.38
975.402	0.38
975.766	0.39
976.129	0.38
976.493	0.39
976.856	0.38
977.219	0.38
977.582	0.38
977.946	0.38
978.309	0.38
978.672	0.38
979.035	0.38
979.398	0.38
979.761	0.37
980.123	0.37
980.486	0.38
980.849	0.38
981.211	0.38
981.574	0.38
981.936	0.38
982.299	0.38
982.661	0.37
983.023	0.38
983.386	0.38
983.748	0.38
984.11	0.37
984.472	0.37
984.834	0.37
985.196	0.38
985.558	0.37
985.92	0.38
986.281	0.37
986.643	0.37
987.005	0.38
987.366	0.38
987.728	0.37
988.089	0.38
988.451	0.37
988.812	0.37
989.173	0.37
989.534	0.37
989.895	0.37
990.257	0.37
990.618	0.37
990.979	0.37
991.339	0.36
991.7	0.36
992.061	0.37
992.422	0.36
992.782	0.37
993.143	0.37
993.503	0.37
993.864	0.36
994.224	0.37
994.585	0.37
994.945	0.36
995.305	0.37
995.665	0.36
996.025	0.37
996.385	0.36
996.745	0.36
997.105	0.36
997.465	0.36
997.825	0.36
998.185	0.36
998.544	0.36
998.904	0.36
999.263	0.36
999.623	0.36
999.982	0.36
1000.342	0.35
1000.701	0.35
1001.06	0.36
1001.419	0.35
1001.778	0.35
1002.138	0.36
1002.497	0.36
1002.855	0.35
1003.214	0.36
1003.573	0.35
1003.932	0.36
1004.29	0.35
1004.649	0.35
1005.008	0.35
1005.366	0.35
1005.725	0.35
1006.083	0.35
1006.441	0.34
1006.799	0.35
1007.158	0.35
1007.516	0.34
1007.874	0.35
1008.232	0.34
1008.59	0.35
1008.948	0.35
1009.305	0.35
1009.663	0.35
1010.021	0.34
1010.379	0.35
1010.736	0.35
1011.094	0.35
1011.451	0.34
1011.808	0.34
1012.166	0.35
1012.523	0.34
1012.88	0.34
1013.237	0.34
1013.594	0.34
1013.951	0.34
1014.308	0.34
1014.665	0.34
1015.022	0.34
1015.379	0.34
1015.735	0.34
1016.092	0.33
1016.449	0.34
1016.805	0.34
1017.162	0.33
1017.518	0.34
1017.874	0.34
1018.231	0.34
1018.587	0.33
1018.943	0.33
1019.299	0.34
1019.655	0.33
1020.011	0.33
1020.367	0.33
1020.723	0.33
1021.078	0.33
1021.434	0.33
1021.79	0.33
1022.145	0.34
1022.501	0.32
1022.856	0.33
1023.212	0.33
1023.567	0.32
1023.922	0.32
1024.278	0.33
1024.633	0.32
1024.988	0.32
1025.343	0.32
1025.698	0.32
1026.053	0.33
1026.408	0.33
1026.762	0.32
1027.117	0.32
1027.472	0.32
1027.826	0.32
1028.181	0.32
1028.535	0.32
1028.89	0.32
1029.244	0.32
1029.598	0.32
1029.952	0.32
1030.307	0.32
1030.661	0.33
1031.015	0.31
1031.369	0.32
1031.723	0.31
1032.076	0.32
