Data from Rubpy_BV_EDTA_TU(3000)_Blank_Blue_Flow_Absorbance__2825__13-33-47-859.txt Node

Date: Mon Aug 03 13:33:47 BST 2026
User: fpm-admin
Spectrometer: SR600986
Trigger mode: 0
Integration Time (sec): 8.000000E-3
Scans to average: 3
Nonlinearity correction enabled: true
Boxcar width: 0
Storing dark spectrum: false
XAxis mode: Wavelengths
Number of Pixels in Spectrum: 2048
>>>>>Begin Spectral Data<<<<<
188.613	0.31
189.078	0.31
189.542	0.33
190.007	0.32
190.472	0.32
190.936	0.32
191.401	0.31
191.865	0.32
192.33	0.32
192.794	0.32
193.258	0.34
193.723	0.3
194.187	0.32
194.651	0.31
195.115	0.31
195.579	0.34
196.043	0.3
196.507	0.3
196.971	0.32
197.435	0.3
197.899	0.31
198.363	0.33
198.827	0.33
199.29	0.31
199.754	0.33
200.218	0.31
200.681	0.3
201.145	0.32
201.608	0.3
202.072	0.31
202.535	0.31
202.998	0.33
203.462	0.32
203.925	0.33
204.388	0.27
204.851	0.32
205.314	0.33
205.777	0.29
206.24	0.31
206.703	0.31
207.166	0.32
207.629	0.29
208.092	0.33
208.555	0.31
209.018	0.32
209.48	0.29
209.943	0.3
210.406	0.31
210.868	0.34
211.331	0.28
211.793	0.3
212.256	0.33
212.718	0.3
213.18	0.33
213.643	0.32
214.105	0.3
214.567	0.3
215.029	0.32
215.491	0.31
215.953	0.31
216.415	0.29
216.877	0.3
217.339	0.32
217.801	0.29
218.263	0.31
218.725	0.32
219.186	0.33
219.648	0.31
220.11	0.29
220.571	0.31
221.033	0.31
221.494	0.33
221.956	0.32
222.417	0.32
222.878	0.31
223.34	0.32
223.801	0.31
224.262	0.32
224.723	0.32
225.185	0.3
225.646	0.29
226.107	0.33
226.568	0.29
227.029	0.31
227.489	0.31
227.95	0.33
228.411	0.3
228.872	0.31
229.332	0.28
229.793	0.31
230.254	0.3
230.714	0.31
231.175	0.31
231.635	0.31
232.096	0.32
232.556	0.3
233.016	0.3
233.477	0.29
233.937	0.32
234.397	0.31
234.857	0.31
235.317	0.33
235.777	0.33
236.237	0.29
236.697	0.31
237.157	0.32
237.617	0.32
238.077	0.31
238.537	0.31
238.996	0.31
239.456	0.32
239.916	0.3
240.375	0.3
240.835	0.29
241.294	0.33
241.754	0.3
242.213	0.32
242.672	0.32
243.132	0.32
243.591	0.35
244.05	0.31
244.509	0.31
244.968	0.3
245.427	0.31
245.886	0.3
246.345	0.32
246.804	0.31
247.263	0.32
247.722	0.31
248.181	0.31
248.639	0.3
249.098	0.31
249.557	0.32
250.015	0.29
250.474	0.32
250.932	0.35
251.391	0.32
251.849	0.32
252.308	0.33
252.766	0.31
253.224	0.33
253.682	0.34
254.14	0.33
254.599	0.31
255.057	0.31
255.515	0.33
255.973	0.31
256.431	0.31
256.888	0.31
257.346	0.3
257.804	0.32
258.262	0.32
258.719	0.33
259.177	0.31
259.635	0.32
260.092	0.32
260.55	0.33
261.007	0.3
261.465	0.33
261.922	0.31
262.379	0.32
262.836	0.32
263.294	0.33
263.751	0.34
264.208	0.33
264.665	0.31
265.122	0.31
265.579	0.33
266.036	0.33
266.493	0.31
266.95	0.34
267.406	0.32
267.863	0.32
268.32	0.33
268.777	0.32
269.233	0.32
269.69	0.3
270.146	0.32
270.603	0.35
271.059	0.31
271.515	0.32
271.972	0.34
272.428	0.28
272.884	0.31
273.34	0.3
273.796	0.32
274.253	0.31
274.709	0.31
275.165	0.3
275.62	0.31
276.076	0.3
276.532	0.31
276.988	0.3
277.444	0.29
277.899	0.3
278.355	0.33
278.811	0.33
279.266	0.31
279.722	0.33
280.177	0.31
280.633	0.32
281.088	0.32
281.543	0.32
281.998	0.32
282.454	0.34
282.909	0.3
283.364	0.32
283.819	0.31
284.274	0.3
284.729	0.31
285.184	0.32
285.639	0.29
286.094	0.33
286.548	0.3
287.003	0.32
287.458	0.31
287.913	0.31
288.367	0.32
288.822	0.29
289.276	0.31
289.731	0.31
290.185	0.31
290.639	0.31
291.094	0.32
291.548	0.33
292.002	0.34
292.456	0.29
292.91	0.33
293.365	0.3
293.819	0.32
294.273	0.3
294.726	0.31
295.18	0.31
295.634	0.35
296.088	0.31
296.542	0.34
296.995	0.3
297.449	0.31
297.903	0.31
298.356	0.31
298.81	0.31
299.263	0.32
299.716	0.33
300.17	0.32
300.623	0.28
301.076	0.34
301.53	0.32
301.983	0.32
302.436	0.32
302.889	0.29
303.342	0.31
303.795	0.31
304.248	0.33
304.701	0.37
305.153	0.34
305.606	0.33
306.059	0.32
306.512	0.31
306.964	0.32
307.417	0.31
307.869	0.33
308.322	0.36
308.774	0.35
309.227	0.33
309.679	0.32
310.131	0.33
310.584	0.33
311.036	0.32
311.488	0.32
311.94	0.34
312.392	0.32
312.844	0.33
313.296	0.34
313.748	0.35
314.2	0.34
314.652	0.35
315.103	0.32
315.555	0.33
316.007	0.37
316.458	0.33
316.91	0.37
317.361	0.36
317.813	0.36
318.264	0.35
318.716	0.36
319.167	0.38
319.618	0.39
320.07	0.38
320.521	0.37
320.972	0.41
321.423	0.4
321.874	0.4
322.325	0.43
322.776	0.44
323.227	0.43
323.678	0.43
324.128	0.45
324.579	0.46
325.03	0.5
325.48	0.49
325.931	0.5
326.382	0.5
326.832	0.52
327.283	0.56
327.733	0.54
328.183	0.57
328.634	0.59
329.084	0.61
329.534	0.63
329.984	0.67
330.434	0.65
330.884	0.69
331.334	0.69
331.784	0.71
332.234	0.77
332.684	0.78
333.134	0.79
333.584	0.8
334.034	0.82
334.483	0.83
334.933	0.87
335.382	0.87
335.832	0.89
336.281	0.9
336.731	0.94
337.18	0.94
337.63	0.98
338.079	0.99
338.528	1.02
338.977	1.02
339.426	1.06
339.876	1.06
340.325	1.1
340.774	1.1
341.223	1.1
341.671	1.15
342.12	1.15
342.569	1.17
343.018	1.21
343.467	1.18
343.915	1.21
344.364	1.23
344.812	1.23
345.261	1.25
345.709	1.27
346.158	1.29
346.606	1.28
347.054	1.31
347.503	1.29
347.951	1.34
348.399	1.31
348.847	1.33
349.295	1.35
349.743	1.35
350.191	1.34
350.639	1.36
351.087	1.39
351.535	1.39
351.983	1.42
352.43	1.4
352.878	1.39
353.326	1.41
353.773	1.42
354.221	1.42
354.668	1.43
355.116	1.47
355.563	1.44
356.01	1.45
356.458	1.46
356.905	1.48
357.352	1.49
357.799	1.5
358.246	1.52
358.693	1.52
359.14	1.54
359.587	1.55
360.034	1.55
360.481	1.57
360.928	1.56
361.375	1.6
361.821	1.6
362.268	1.59
362.714	1.62
363.161	1.63
363.608	1.62
364.054	1.62
364.5	1.64
364.947	1.66
365.393	1.68
365.839	1.67
366.285	1.64
366.732	1.65
367.178	1.68
367.624	1.66
368.07	1.69
368.516	1.69
368.962	1.66
369.408	1.67
369.853	1.69
370.299	1.69
370.745	1.69
371.19	1.69
371.636	1.68
372.082	1.7
372.527	1.66
372.973	1.69
373.418	1.68
373.863	1.69
374.309	1.69
374.754	1.69
375.199	1.69
375.644	1.69
376.09	1.68
376.535	1.68
376.98	1.66
377.425	1.68
377.87	1.69
378.314	1.67
378.759	1.66
379.204	1.65
379.649	1.63
380.093	1.61
380.538	1.61
380.983	1.6
381.427	1.57
381.872	1.56
382.316	1.53
382.76	1.53
383.205	1.5
383.649	1.47
384.093	1.45
384.537	1.44
384.982	1.42
385.426	1.38
385.87	1.35
386.314	1.33
386.758	1.3
387.201	1.27
387.645	1.26
388.089	1.23
388.533	1.21
388.976	1.19
389.42	1.16
389.864	1.12
390.307	1.12
390.751	1.08
391.194	1.07
391.638	1.06
392.081	1.03
392.524	1
392.967	0.99
393.411	0.97
393.854	0.96
394.297	0.94
394.74	0.93
395.183	0.92
395.626	0.92
396.069	0.91
396.512	0.89
396.954	0.89
397.397	0.9
397.84	0.9
398.282	0.89
398.725	0.88
399.168	0.88
399.61	0.88
400.052	0.87
400.495	0.86
400.937	0.84
401.38	0.83
401.822	0.81
402.264	0.8
402.706	0.79
403.148	0.77
403.59	0.74
404.032	0.72
404.474	0.7
404.916	0.67
405.358	0.66
405.8	0.64
406.241	0.61
406.683	0.59
407.125	0.56
407.566	0.54
408.008	0.53
408.449	0.51
408.891	0.49
409.332	0.48
409.774	0.47
410.215	0.43
410.656	0.43
411.097	0.4
411.539	0.39
411.98	0.38
412.421	0.37
412.862	0.36
413.303	0.35
413.744	0.35
414.184	0.33
414.625	0.33
415.066	0.32
415.507	0.31
415.947	0.32
416.388	0.31
416.828	0.28
417.269	0.29
417.709	0.29
418.15	0.28
418.59	0.28
419.03	0.28
419.471	0.28
419.911	0.27
420.351	0.25
420.791	0.26
421.231	0.26
421.671	0.26
422.111	0.25
422.551	0.25
422.991	0.26
423.431	0.26
423.87	0.25
424.31	0.26
424.75	0.27
425.189	0.24
425.629	0.26
426.068	0.25
426.508	0.25
426.947	0.25
427.386	0.26
427.826	0.25
428.265	0.26
428.704	0.25
429.143	0.26
429.582	0.25
430.021	0.26
430.46	0.26
430.899	0.24
431.338	0.27
431.777	0.25
432.216	0.26
432.655	0.25
433.093	0.24
433.532	0.27
433.971	0.25
434.409	0.26
434.848	0.27
435.286	0.27
435.724	0.27
436.163	0.26
436.601	0.28
437.039	0.26
437.477	0.28
437.916	0.27
438.354	0.29
438.792	0.26
439.23	0.27
439.668	0.27
440.105	0.27
440.543	0.27
440.981	0.28
441.419	0.28
441.856	0.3
442.294	0.29
442.732	0.28
443.169	0.28
443.607	0.29
444.044	0.28
444.481	0.31
444.919	0.29
445.356	0.29
445.793	0.3
446.23	0.31
446.668	0.3
447.105	0.31
447.542	0.31
447.979	0.3
448.416	0.32
448.852	0.31
449.289	0.31
449.726	0.31
450.163	0.31
450.599	0.31
451.036	0.31
451.473	0.34
451.909	0.35
452.346	0.31
452.782	0.32
453.218	0.32
453.655	0.33
454.091	0.32
454.527	0.35
454.963	0.34
455.399	0.32
455.835	0.34
456.271	0.34
456.707	0.33
457.143	0.34
457.579	0.33
458.015	0.33
458.451	0.35
458.886	0.34
459.322	0.34
459.758	0.33
460.193	0.36
460.629	0.37
461.064	0.35
461.5	0.37
461.935	0.36
462.37	0.36
462.805	0.38
463.241	0.36
463.676	0.38
464.111	0.4
464.546	0.38
464.981	0.38
465.416	0.4
465.851	0.41
466.286	0.39
466.72	0.42
467.155	0.42
467.59	0.42
468.024	0.42
468.459	0.42
468.893	0.43
469.328	0.45
469.762	0.45
470.197	0.47
470.631	0.46
471.065	0.47
471.5	0.48
471.934	0.5
472.368	0.5
472.802	0.5
473.236	0.51
473.67	0.53
474.104	0.54
474.538	0.54
474.972	0.55
475.405	0.57
475.839	0.58
476.273	0.59
476.706	0.58
477.14	0.6
477.573	0.61
478.007	0.62
478.44	0.63
478.874	0.63
479.307	0.64
479.74	0.65
480.173	0.67
480.606	0.68
481.04	0.69
481.473	0.68
481.906	0.7
482.339	0.71
482.771	0.72
483.204	0.71
483.637	0.74
484.07	0.74
484.502	0.76
484.935	0.76
485.368	0.77
485.8	0.79
486.233	0.79
486.665	0.79
487.098	0.8
487.53	0.8
487.962	0.81
488.394	0.82
488.827	0.82
489.259	0.84
489.691	0.83
490.123	0.85
490.555	0.85
490.987	0.86
491.418	0.87
491.85	0.88
492.282	0.89
492.714	0.89
493.145	0.9
493.577	0.91
494.009	0.91
494.44	0.93
494.872	0.94
495.303	0.93
495.734	0.95
496.166	0.95
496.597	0.96
497.028	0.97
497.459	0.97
497.89	0.97
498.321	0.98
498.752	1
499.183	0.99
499.614	1
500.045	1.01
500.476	1.02
500.906	1.03
501.337	1.04
501.768	1.04
502.198	1.04
502.629	1.06
503.059	1.07
503.49	1.07
503.92	1.08
504.35	1.07
504.781	1.09
505.211	1.09
505.641	1.1
506.071	1.1
506.501	1.11
506.931	1.11
507.361	1.13
507.791	1.12
508.221	1.13
508.651	1.13
509.081	1.15
509.51	1.15
509.94	1.15
510.37	1.16
510.799	1.17
511.229	1.18
511.658	1.17
512.087	1.18
512.517	1.18
512.946	1.19
513.375	1.19
513.804	1.19
514.234	1.2
514.663	1.21
515.092	1.21
515.521	1.22
515.95	1.22
516.378	1.22
516.807	1.22
517.236	1.24
517.665	1.24
518.093	1.23
518.522	1.24
518.951	1.25
519.379	1.24
519.807	1.25
520.236	1.26
520.664	1.26
521.093	1.27
521.521	1.26
521.949	1.27
522.377	1.27
522.805	1.27
523.233	1.28
523.661	1.27
524.089	1.29
524.517	1.28
524.945	1.28
525.373	1.3
525.8	1.3
526.228	1.29
526.656	1.29
527.083	1.29
527.511	1.31
527.938	1.3
528.366	1.3
528.793	1.3
529.22	1.31
529.648	1.31
530.075	1.31
530.502	1.31
530.929	1.31
531.356	1.31
531.783	1.32
532.21	1.32
532.637	1.33
533.064	1.34
533.49	1.32
533.917	1.32
534.344	1.33
534.771	1.32
535.197	1.33
535.624	1.33
536.05	1.34
536.477	1.33
536.903	1.32
537.329	1.34
537.755	1.33
538.182	1.34
538.608	1.33
539.034	1.33
539.46	1.33
539.886	1.33
540.312	1.33
540.738	1.34
541.164	1.33
541.589	1.33
542.015	1.33
542.441	1.33
542.867	1.34
543.292	1.35
543.718	1.34
544.143	1.33
544.569	1.32
544.994	1.33
545.419	1.33
545.845	1.32
546.27	1.32
546.695	1.31
547.12	1.32
547.545	1.32
547.97	1.31
548.395	1.32
548.82	1.33
549.245	1.32
549.67	1.31
550.094	1.31
550.519	1.3
550.944	1.31
551.368	1.31
551.793	1.3
552.217	1.31
552.642	1.29
553.066	1.29
553.49	1.29
553.915	1.3
554.339	1.29
554.763	1.29
555.187	1.29
555.611	1.29
556.035	1.28
556.459	1.28
556.883	1.28
557.307	1.26
557.731	1.27
558.154	1.26
558.578	1.26
559.002	1.25
559.425	1.26
559.849	1.25
560.272	1.25
560.696	1.25
561.119	1.24
561.543	1.24
561.966	1.24
562.389	1.23
562.812	1.23
563.235	1.23
563.658	1.22
564.081	1.21
564.504	1.21
564.927	1.2
565.35	1.2
565.773	1.21
566.196	1.2
566.618	1.19
567.041	1.19
567.463	1.19
567.886	1.19
568.309	1.19
568.731	1.18
569.153	1.18
569.576	1.18
569.998	1.17
570.42	1.17
570.842	1.17
571.264	1.17
571.686	1.16
572.108	1.16
572.53	1.15
572.952	1.15
573.374	1.14
573.796	1.14
574.218	1.14
574.639	1.13
575.061	1.12
575.483	1.12
575.904	1.12
576.326	1.12
576.747	1.11
577.168	1.11
577.59	1.1
578.011	1.1
578.432	1.09
578.853	1.08
579.274	1.08
579.695	1.08
580.116	1.07
580.537	1.07
580.958	1.07
581.379	1.06
581.8	1.06
582.221	1.05
582.641	1.05
583.062	1.05
583.482	1.04
583.903	1.04
584.323	1.03
584.744	1.03
585.164	1.02
585.584	1.02
586.005	1.02
586.425	1.01
586.845	1.01
587.265	1
587.685	1
588.105	0.99
588.525	0.99
588.945	0.99
589.365	0.98
589.785	0.98
590.204	0.98
590.624	0.97
591.044	0.97
591.463	0.97
591.883	0.96
592.302	0.96
592.721	0.96
593.141	0.95
593.56	0.94
593.979	0.94
594.399	0.94
594.818	0.94
595.237	0.93
595.656	0.93
596.075	0.93
596.494	0.92
596.913	0.92
597.331	0.91
597.75	0.91
598.169	0.91
598.587	0.91
599.006	0.9
599.425	0.9
599.843	0.89
600.262	0.89
600.68	0.89
601.098	0.88
601.517	0.87
601.935	0.87
602.353	0.87
602.771	0.87
603.189	0.86
603.607	0.86
604.025	0.85
604.443	0.85
604.861	0.85
605.279	0.84
605.696	0.84
606.114	0.83
606.532	0.83
606.949	0.83
607.367	0.82
607.784	0.82
608.202	0.81
608.619	0.81
609.036	0.8
609.454	0.8
609.871	0.8
610.288	0.79
610.705	0.79
611.122	0.78
611.539	0.78
611.956	0.78
612.373	0.78
612.79	0.77
613.207	0.76
613.623	0.76
614.04	0.76
614.457	0.75
614.873	0.75
615.29	0.74
615.706	0.74
616.122	0.74
616.539	0.74
616.955	0.73
617.371	0.72
617.788	0.73
618.204	0.72
618.62	0.71
619.036	0.71
619.452	0.71
619.868	0.7
620.284	0.7
620.699	0.69
621.115	0.69
621.531	0.68
621.946	0.68
622.362	0.68
622.778	0.67
623.193	0.67
623.608	0.66
624.024	0.66
624.439	0.65
624.854	0.65
625.27	0.65
625.685	0.64
626.1	0.64
626.515	0.63
626.93	0.63
627.345	0.63
627.76	0.62
628.175	0.62
628.589	0.61
629.004	0.61
629.419	0.6
629.833	0.6
630.248	0.6
630.663	0.59
631.077	0.59
631.491	0.59
631.906	0.58
632.32	0.58
632.734	0.58
633.148	0.57
633.563	0.57
633.977	0.56
634.391	0.56
634.805	0.55
635.219	0.55
635.632	0.54
636.046	0.54
636.46	0.53
636.874	0.53
637.287	0.52
637.701	0.52
638.115	0.52
638.528	0.52
638.941	0.51
639.355	0.51
639.768	0.5
640.181	0.5
640.595	0.5
641.008	0.49
641.421	0.49
641.834	0.49
642.247	0.48
642.66	0.48
643.073	0.47
643.486	0.47
643.898	0.47
644.311	0.46
644.724	0.46
645.136	0.46
645.549	0.45
645.961	0.45
646.374	0.45
646.786	0.44
647.199	0.44
647.611	0.43
648.023	0.43
648.435	0.43
648.847	0.43
649.26	0.42
649.672	0.42
650.084	0.42
650.495	0.41
650.907	0.41
651.319	0.41
651.731	0.4
652.143	0.4
652.554	0.4
652.966	0.4
653.377	0.4
653.789	0.4
654.2	0.39
654.612	0.39
655.023	0.4
655.434	0.37
655.845	0.36
656.256	0.38
656.668	0.38
657.079	0.37
657.49	0.37
657.901	0.37
658.311	0.37
658.722	0.36
659.133	0.36
659.544	0.36
659.954	0.35
660.365	0.35
660.775	0.35
661.186	0.35
661.596	0.34
662.007	0.34
662.417	0.34
662.827	0.34
663.238	0.33
663.648	0.33
664.058	0.33
664.468	0.33
664.878	0.33
665.288	0.32
665.698	0.32
666.108	0.32
666.517	0.31
666.927	0.31
667.337	0.31
667.746	0.31
668.156	0.3
668.565	0.3
668.975	0.3
669.384	0.3
669.794	0.3
670.203	0.29
670.612	0.29
671.021	0.28
671.43	0.28
671.84	0.28
672.249	0.28
672.658	0.28
673.066	0.27
673.475	0.27
673.884	0.27
674.293	0.27
674.702	0.26
675.11	0.26
675.519	0.26
675.927	0.26
676.336	0.25
676.744	0.25
677.152	0.25
677.561	0.25
677.969	0.24
678.377	0.24
678.785	0.24
679.193	0.24
679.601	0.24
680.009	0.23
680.417	0.23
680.825	0.23
681.233	0.22
681.641	0.22
682.048	0.22
682.456	0.22
682.864	0.22
683.271	0.22
683.679	0.21
684.086	0.21
684.493	0.21
684.901	0.2
685.308	0.2
685.715	0.2
686.122	0.2
686.529	0.2
686.936	0.2
687.343	0.19
687.75	0.19
688.157	0.19
688.564	0.19
688.971	0.18
689.378	0.18
689.784	0.18
690.191	0.18
690.597	0.18
691.004	0.17
691.41	0.17
691.817	0.17
692.223	0.17
692.629	0.17
693.035	0.17
693.442	0.17
693.848	0.16
694.254	0.16
694.66	0.16
695.066	0.16
695.471	0.16
695.877	0.16
696.283	0.15
696.689	0.15
697.094	0.15
697.5	0.15
697.906	0.15
698.311	0.15
698.716	0.15
699.122	0.14
699.527	0.14
699.932	0.14
700.338	0.14
700.743	0.14
701.148	0.14
701.553	0.14
701.958	0.14
702.363	0.14
702.768	0.14
703.173	0.14
703.577	0.14
703.982	0.13
704.387	0.13
704.791	0.13
705.196	0.13
705.6	0.13
706.005	0.13
706.409	0.13
706.814	0.13
707.218	0.13
707.622	0.13
708.026	0.13
708.43	0.13
708.834	0.13
709.238	0.13
709.642	0.13
710.046	0.13
710.45	0.12
710.854	0.13
711.257	0.12
711.661	0.12
712.065	0.13
712.468	0.12
712.872	0.12
713.275	0.12
713.679	0.12
714.082	0.12
714.485	0.12
714.888	0.12
715.291	0.12
715.695	0.12
716.098	0.12
716.501	0.12
716.904	0.12
717.306	0.12
717.709	0.12
718.112	0.12
718.515	0.12
718.917	0.12
719.32	0.12
719.723	0.12
720.125	0.12
720.527	0.12
720.93	0.12
721.332	0.12
721.734	0.12
722.137	0.12
722.539	0.12
722.941	0.12
723.343	0.12
723.745	0.12
724.147	0.12
724.549	0.12
724.95	0.12
725.352	0.12
725.754	0.12
726.156	0.12
726.557	0.12
726.959	0.12
727.36	0.12
727.762	0.12
728.163	0.12
728.564	0.12
728.966	0.12
729.367	0.12
729.768	0.12
730.169	0.12
730.57	0.12
730.971	0.12
731.372	0.12
731.773	0.12
732.174	0.12
732.574	0.11
732.975	0.11
733.376	0.12
733.776	0.12
734.177	0.11
734.577	0.11
734.978	0.11
735.378	0.11
735.778	0.11
736.179	0.11
736.579	0.11
736.979	0.11
737.379	0.11
737.779	0.11
738.179	0.11
738.579	0.11
738.979	0.11
739.379	0.11
739.778	0.11
740.178	0.11
740.578	0.11
740.977	0.11
741.377	0.11
741.776	0.1
742.176	0.11
742.575	0.1
742.974	0.1
743.374	0.1
743.773	0.1
744.172	0.1
744.571	0.1
744.97	0.1
745.369	0.1
745.768	0.1
746.167	0.1
746.565	0.1
746.964	0.1
747.363	0.1
747.761	0.1
748.16	0.1
748.559	0.1
748.957	0.1
749.355	0.1
749.754	0.1
750.152	0.1
750.55	0.1
750.948	0.1
751.347	0.1
751.745	0.1
752.143	0.1
752.541	0.1
752.938	0.09
753.336	0.09
753.734	0.1
754.132	0.1
754.529	0.09
754.927	0.09
755.325	0.1
755.722	0.09
756.119	0.09
756.517	0.09
756.914	0.09
757.311	0.09
757.709	0.09
758.106	0.09
758.503	0.09
758.9	0.09
759.297	0.09
759.694	0.09
760.091	0.09
760.488	0.09
760.884	0.09
761.281	0.09
761.678	0.09
762.074	0.09
762.471	0.09
762.867	0.09
763.264	0.09
763.66	0.09
764.056	0.09
764.453	0.09
764.849	0.1
765.245	0.09
765.641	0.09
766.037	0.09
766.433	0.09
766.829	0.09
767.225	0.09
767.621	0.1
768.016	0.09
768.412	0.1
768.808	0.1
769.203	0.1
769.599	0.1
769.994	0.1
770.389	0.1
770.785	0.1
771.18	0.1
771.575	0.1
771.971	0.1
772.366	0.1
772.761	0.1
773.156	0.1
773.551	0.1
773.945	0.1
774.34	0.1
774.735	0.1
775.13	0.1
775.524	0.1
775.919	0.1
776.314	0.1
776.708	0.1
777.103	0.1
777.497	0.11
777.891	0.11
778.285	0.11
778.68	0.11
779.074	0.11
779.468	0.11
779.862	0.11
780.256	0.11
780.65	0.11
781.044	0.11
781.438	0.11
781.831	0.11
782.225	0.11
782.619	0.11
783.012	0.11
783.406	0.11
783.799	0.11
784.193	0.11
784.586	0.12
784.979	0.12
785.372	0.12
785.766	0.12
786.159	0.12
786.552	0.12
786.945	0.12
787.338	0.12
787.731	0.12
788.123	0.12
788.516	0.12
788.909	0.12
789.302	0.12
789.694	0.12
790.087	0.12
790.479	0.13
790.872	0.12
791.264	0.13
791.656	0.13
792.049	0.13
792.441	0.13
792.833	0.13
793.225	0.13
793.617	0.13
794.009	0.13
794.401	0.13
794.793	0.13
795.185	0.13
795.576	0.13
795.968	0.13
796.36	0.13
796.751	0.14
797.143	0.14
797.534	0.13
797.926	0.14
798.317	0.14
798.708	0.14
799.1	0.14
799.491	0.14
799.882	0.14
800.273	0.14
800.664	0.14
801.055	0.14
801.446	0.15
801.837	0.15
802.227	0.15
802.618	0.15
803.009	0.15
803.399	0.15
803.79	0.15
804.18	0.15
804.571	0.15
804.961	0.15
805.351	0.15
805.742	0.15
806.132	0.15
806.522	0.15
806.912	0.16
807.302	0.16
807.692	0.16
808.082	0.16
808.472	0.16
808.862	0.16
809.251	0.16
809.641	0.16
810.031	0.16
810.42	0.16
810.81	0.17
811.199	0.17
811.589	0.17
811.978	0.17
812.367	0.17
812.756	0.17
813.146	0.17
813.535	0.17
813.924	0.17
814.313	0.17
814.702	0.17
815.091	0.18
815.479	0.18
815.868	0.18
816.257	0.18
816.645	0.18
817.034	0.18
817.423	0.18
817.811	0.18
818.199	0.18
818.588	0.18
818.976	0.19
819.364	0.19
819.753	0.19
820.141	0.19
820.529	0.19
820.917	0.19
821.305	0.19
821.693	0.19
822.08	0.19
822.468	0.2
822.856	0.2
823.244	0.2
823.631	0.2
824.019	0.2
824.406	0.2
824.794	0.2
825.181	0.2
825.568	0.2
825.956	0.2
826.343	0.2
826.73	0.21
827.117	0.21
827.504	0.21
827.891	0.21
828.278	0.21
828.665	0.21
829.052	0.21
829.438	0.21
829.825	0.22
830.212	0.22
830.598	0.22
830.985	0.22
831.371	0.22
831.757	0.22
832.144	0.22
832.53	0.22
832.916	0.22
833.302	0.22
833.688	0.23
834.075	0.23
834.461	0.23
834.846	0.23
835.232	0.23
835.618	0.23
836.004	0.23
836.39	0.24
836.775	0.23
837.161	0.24
837.546	0.24
837.932	0.24
838.317	0.24
838.702	0.24
839.088	0.24
839.473	0.24
839.858	0.24
840.243	0.24
840.628	0.25
841.013	0.25
841.398	0.25
841.783	0.25
842.168	0.25
842.553	0.25
842.937	0.25
843.322	0.25
843.707	0.25
844.091	0.25
844.476	0.26
844.86	0.26
845.244	0.26
845.629	0.26
846.013	0.26
846.397	0.26
846.781	0.26
847.165	0.27
847.549	0.26
847.933	0.27
848.317	0.27
848.701	0.27
849.085	0.27
849.468	0.27
849.852	0.27
850.236	0.27
850.619	0.27
851.003	0.27
851.386	0.28
851.769	0.28
852.153	0.28
852.536	0.28
852.919	0.28
853.302	0.28
853.685	0.28
854.068	0.28
854.451	0.28
854.834	0.29
855.217	0.29
855.6	0.29
855.982	0.29
856.365	0.29
856.748	0.29
857.13	0.29
857.513	0.29
857.895	0.3
858.277	0.29
858.66	0.29
859.042	0.3
859.424	0.3
859.806	0.3
860.188	0.3
860.57	0.3
860.952	0.3
861.334	0.3
861.716	0.3
862.098	0.3
862.48	0.31
862.861	0.31
863.243	0.31
863.624	0.31
864.006	0.31
864.387	0.31
864.769	0.31
865.15	0.31
865.531	0.31
865.912	0.32
866.294	0.32
866.675	0.32
867.056	0.32
867.437	0.32
867.818	0.32
868.198	0.32
868.579	0.32
868.96	0.32
869.341	0.33
869.721	0.33
870.102	0.33
870.482	0.33
870.863	0.33
871.243	0.33
871.623	0.33
872.003	0.33
872.384	0.33
872.764	0.33
873.144	0.33
873.524	0.33
873.904	0.34
874.284	0.34
874.664	0.34
875.043	0.34
875.423	0.34
875.803	0.34
876.182	0.34
876.562	0.34
876.941	0.34
877.321	0.34
877.7	0.34
878.079	0.35
878.459	0.34
878.838	0.35
879.217	0.34
879.596	0.35
879.975	0.35
880.354	0.35
880.733	0.35
881.112	0.35
881.491	0.35
881.869	0.35
882.248	0.35
882.627	0.36
883.005	0.36
883.384	0.36
883.762	0.36
884.14	0.36
884.519	0.36
884.897	0.36
885.275	0.36
885.653	0.36
886.031	0.36
886.409	0.36
886.787	0.37
887.165	0.37
887.543	0.37
887.921	0.37
888.298	0.37
888.676	0.37
889.054	0.37
889.431	0.37
889.809	0.37
890.186	0.37
890.563	0.37
890.941	0.37
891.318	0.37
891.695	0.38
892.072	0.37
892.449	0.37
892.826	0.38
893.203	0.38
893.58	0.38
893.957	0.38
894.334	0.38
894.71	0.38
895.087	0.38
895.464	0.38
895.84	0.38
896.217	0.38
896.593	0.39
896.969	0.38
897.346	0.38
897.722	0.39
898.098	0.38
898.474	0.39
898.85	0.39
899.226	0.39
899.602	0.39
899.978	0.39
900.354	0.38
900.73	0.39
901.105	0.39
901.481	0.39
901.857	0.39
902.232	0.39
902.608	0.39
902.983	0.39
903.358	0.39
903.734	0.39
904.109	0.4
904.484	0.4
904.859	0.4
905.234	0.4
905.609	0.4
905.984	0.4
906.359	0.4
906.734	0.4
907.108	0.4
907.483	0.4
907.858	0.4
908.232	0.4
908.607	0.4
908.981	0.4
909.356	0.4
909.73	0.4
910.104	0.4
910.478	0.41
910.853	0.4
911.227	0.4
911.601	0.41
911.975	0.4
912.349	0.41
912.722	0.41
913.096	0.4
913.47	0.41
913.844	0.41
914.217	0.41
914.591	0.41
914.964	0.41
915.338	0.41
915.711	0.41
916.084	0.41
916.458	0.41
916.831	0.41
917.204	0.41
917.577	0.41
917.95	0.41
918.323	0.41
918.696	0.41
919.069	0.41
919.441	0.41
919.814	0.41
920.187	0.41
920.559	0.41
920.932	0.41
921.304	0.41
921.677	0.41
922.049	0.41
922.421	0.41
922.794	0.42
923.166	0.42
923.538	0.41
923.91	0.42
924.282	0.42
924.654	0.42
925.026	0.41
925.398	0.42
925.769	0.41
926.141	0.42
926.513	0.42
926.884	0.42
927.256	0.41
927.627	0.42
927.999	0.41
928.37	0.42
928.741	0.42
929.113	0.42
929.484	0.42
929.855	0.42
930.226	0.41
930.597	0.42
930.968	0.42
931.339	0.42
931.709	0.42
932.08	0.42
932.451	0.42
932.821	0.42
933.192	0.42
933.562	0.42
933.933	0.42
934.303	0.42
934.673	0.42
935.044	0.42
935.414	0.42
935.784	0.42
936.154	0.42
936.524	0.42
936.894	0.42
937.264	0.42
937.634	0.42
938.004	0.42
938.373	0.42
938.743	0.42
939.113	0.42
939.482	0.42
939.852	0.42
940.221	0.42
940.59	0.42
940.96	0.42
941.329	0.42
941.698	0.43
942.067	0.42
942.436	0.42
942.805	0.42
943.174	0.42
943.543	0.42
943.912	0.42
944.28	0.42
944.649	0.42
945.018	0.42
945.386	0.42
945.755	0.42
946.123	0.42
946.492	0.43
946.86	0.42
947.228	0.42
947.596	0.42
947.965	0.42
948.333	0.42
948.701	0.42
949.069	0.42
949.437	0.42
949.804	0.42
950.172	0.42
950.54	0.42
950.908	0.42
951.275	0.42
951.643	0.42
952.01	0.42
952.378	0.42
952.745	0.42
953.112	0.42
953.479	0.42
953.847	0.42
954.214	0.42
954.581	0.42
954.948	0.42
955.315	0.42
955.682	0.42
956.048	0.42
956.415	0.42
956.782	0.42
957.148	0.42
957.515	0.42
957.881	0.41
958.248	0.42
958.614	0.41
958.981	0.42
959.347	0.41
959.713	0.42
960.079	0.42
960.445	0.42
960.811	0.42
961.177	0.41
961.543	0.41
961.909	0.41
962.275	0.41
962.641	0.41
963.006	0.41
963.372	0.41
963.737	0.41
964.103	0.42
964.468	0.41
964.834	0.41
965.199	0.41
965.564	0.41
965.929	0.41
966.294	0.41
966.659	0.41
967.024	0.41
967.389	0.41
967.754	0.41
968.119	0.41
968.484	0.41
968.848	0.41
969.213	0.41
969.578	0.41
969.942	0.41
970.307	0.41
970.671	0.41
971.035	0.41
971.399	0.41
971.764	0.41
972.128	0.41
972.492	0.41
972.856	0.41
973.22	0.4
973.584	0.4
973.948	0.4
974.311	0.4
974.675	0.41
975.039	0.4
975.402	0.41
975.766	0.41
976.129	0.4
976.493	0.4
976.856	0.41
977.219	0.4
977.582	0.41
977.946	0.41
978.309	0.4
978.672	0.41
979.035	0.4
979.398	0.4
979.761	0.39
980.123	0.4
980.486	0.4
980.849	0.4
981.211	0.41
981.574	0.4
981.936	0.4
982.299	0.4
982.661	0.4
983.023	0.4
983.386	0.4
983.748	0.4
984.11	0.4
984.472	0.4
984.834	0.4
985.196	0.39
985.558	0.4
985.92	0.39
986.281	0.4
986.643	0.39
987.005	0.4
987.366	0.39
987.728	0.39
988.089	0.39
988.451	0.39
988.812	0.39
989.173	0.39
989.534	0.39
989.895	0.39
990.257	0.39
990.618	0.39
990.979	0.39
991.339	0.39
991.7	0.39
992.061	0.39
992.422	0.38
992.782	0.39
993.143	0.38
993.503	0.39
993.864	0.39
994.224	0.39
994.585	0.38
994.945	0.39
995.305	0.38
995.665	0.38
996.025	0.38
996.385	0.38
996.745	0.38
997.105	0.38
997.465	0.37
997.825	0.38
998.185	0.38
998.544	0.38
998.904	0.38
999.263	0.38
999.623	0.38
999.982	0.38
1000.342	0.38
1000.701	0.38
1001.06	0.37
1001.419	0.38
1001.778	0.38
1002.138	0.38
1002.497	0.38
1002.855	0.37
1003.214	0.37
1003.573	0.37
1003.932	0.38
1004.29	0.37
1004.649	0.37
1005.008	0.37
1005.366	0.37
1005.725	0.37
1006.083	0.37
1006.441	0.37
1006.799	0.37
1007.158	0.37
1007.516	0.36
1007.874	0.36
1008.232	0.36
1008.59	0.37
1008.948	0.36
1009.305	0.37
1009.663	0.37
1010.021	0.36
1010.379	0.36
1010.736	0.37
1011.094	0.37
1011.451	0.36
1011.808	0.36
1012.166	0.36
1012.523	0.36
1012.88	0.36
1013.237	0.36
1013.594	0.36
1013.951	0.35
1014.308	0.36
1014.665	0.36
1015.022	0.36
1015.379	0.35
1015.735	0.36
1016.092	0.36
1016.449	0.36
1016.805	0.36
1017.162	0.35
1017.518	0.35
1017.874	0.36
1018.231	0.35
1018.587	0.35
1018.943	0.36
1019.299	0.35
1019.655	0.35
1020.011	0.35
1020.367	0.35
1020.723	0.36
1021.078	0.35
1021.434	0.35
1021.79	0.35
1022.145	0.36
1022.501	0.35
1022.856	0.35
1023.212	0.35
1023.567	0.34
1023.922	0.35
1024.278	0.35
1024.633	0.35
1024.988	0.34
1025.343	0.34
1025.698	0.34
1026.053	0.34
1026.408	0.34
1026.762	0.34
1027.117	0.34
1027.472	0.34
1027.826	0.34
1028.181	0.34
1028.535	0.35
1028.89	0.34
1029.244	0.35
1029.598	0.34
1029.952	0.34
1030.307	0.34
1030.661	0.34
1031.015	0.33
1031.369	0.34
1031.723	0.33
1032.076	0.33
