Data from Rubpy_BV_EDTA_TU(3000)_Blank_Blue_Flow_Absorbance__1960__13-19-22-849.txt Node

Date: Mon Aug 03 13:19:22 BST 2026
User: fpm-admin
Spectrometer: SR600986
Trigger mode: 0
Integration Time (sec): 8.000000E-3
Scans to average: 3
Nonlinearity correction enabled: true
Boxcar width: 0
Storing dark spectrum: false
XAxis mode: Wavelengths
Number of Pixels in Spectrum: 2048
>>>>>Begin Spectral Data<<<<<
188.613	0.28
189.078	0.28
189.542	0.29
190.007	0.28
190.472	0.28
190.936	0.28
191.401	0.28
191.865	0.27
192.33	0.29
192.794	0.27
193.258	0.28
193.723	0.27
194.187	0.3
194.651	0.27
195.115	0.28
195.579	0.3
196.043	0.27
196.507	0.3
196.971	0.29
197.435	0.27
197.899	0.29
198.363	0.29
198.827	0.27
199.29	0.28
199.754	0.28
200.218	0.31
200.681	0.27
201.145	0.29
201.608	0.27
202.072	0.29
202.535	0.27
202.998	0.3
203.462	0.27
203.925	0.27
204.388	0.27
204.851	0.29
205.314	0.28
205.777	0.27
206.24	0.27
206.703	0.3
207.166	0.28
207.629	0.27
208.092	0.29
208.555	0.26
209.018	0.29
209.48	0.25
209.943	0.28
210.406	0.26
210.868	0.27
211.331	0.26
211.793	0.29
212.256	0.29
212.718	0.3
213.18	0.28
213.643	0.28
214.105	0.26
214.567	0.26
215.029	0.29
215.491	0.28
215.953	0.27
216.415	0.27
216.877	0.27
217.339	0.3
217.801	0.28
218.263	0.29
218.725	0.31
219.186	0.29
219.648	0.28
220.11	0.25
220.571	0.28
221.033	0.3
221.494	0.29
221.956	0.29
222.417	0.28
222.878	0.28
223.34	0.28
223.801	0.29
224.262	0.29
224.723	0.28
225.185	0.27
225.646	0.26
226.107	0.27
226.568	0.27
227.029	0.28
227.489	0.26
227.95	0.31
228.411	0.29
228.872	0.29
229.332	0.26
229.793	0.27
230.254	0.29
230.714	0.28
231.175	0.28
231.635	0.26
232.096	0.27
232.556	0.28
233.016	0.26
233.477	0.25
233.937	0.28
234.397	0.28
234.857	0.26
235.317	0.29
235.777	0.27
236.237	0.28
236.697	0.27
237.157	0.3
237.617	0.26
238.077	0.28
238.537	0.27
238.996	0.27
239.456	0.27
239.916	0.28
240.375	0.28
240.835	0.28
241.294	0.3
241.754	0.29
242.213	0.29
242.672	0.27
243.132	0.28
243.591	0.27
244.05	0.26
244.509	0.27
244.968	0.27
245.427	0.28
245.886	0.26
246.345	0.28
246.804	0.27
247.263	0.28
247.722	0.28
248.181	0.29
248.639	0.26
249.098	0.28
249.557	0.28
250.015	0.27
250.474	0.29
250.932	0.3
251.391	0.26
251.849	0.3
252.308	0.28
252.766	0.26
253.224	0.3
253.682	0.3
254.14	0.27
254.599	0.29
255.057	0.29
255.515	0.28
255.973	0.29
256.431	0.3
256.888	0.27
257.346	0.26
257.804	0.27
258.262	0.28
258.719	0.27
259.177	0.28
259.635	0.25
260.092	0.28
260.55	0.29
261.007	0.29
261.465	0.29
261.922	0.29
262.379	0.27
262.836	0.32
263.294	0.27
263.751	0.28
264.208	0.29
264.665	0.27
265.122	0.27
265.579	0.31
266.036	0.29
266.493	0.27
266.95	0.28
267.406	0.28
267.863	0.28
268.32	0.3
268.777	0.29
269.233	0.28
269.69	0.29
270.146	0.28
270.603	0.31
271.059	0.28
271.515	0.28
271.972	0.28
272.428	0.27
272.884	0.28
273.34	0.3
273.796	0.29
274.253	0.28
274.709	0.27
275.165	0.27
275.62	0.27
276.076	0.28
276.532	0.29
276.988	0.28
277.444	0.27
277.899	0.27
278.355	0.3
278.811	0.27
279.266	0.28
279.722	0.27
280.177	0.27
280.633	0.3
281.088	0.3
281.543	0.29
281.998	0.28
282.454	0.26
282.909	0.29
283.364	0.29
283.819	0.3
284.274	0.26
284.729	0.28
285.184	0.3
285.639	0.29
286.094	0.28
286.548	0.27
287.003	0.27
287.458	0.28
287.913	0.28
288.367	0.3
288.822	0.28
289.276	0.28
289.731	0.28
290.185	0.29
290.639	0.29
291.094	0.28
291.548	0.29
292.002	0.28
292.456	0.28
292.91	0.28
293.365	0.29
293.819	0.29
294.273	0.27
294.726	0.28
295.18	0.29
295.634	0.32
296.088	0.29
296.542	0.31
296.995	0.29
297.449	0.3
297.903	0.28
298.356	0.26
298.81	0.28
299.263	0.28
299.716	0.29
300.17	0.28
300.623	0.27
301.076	0.32
301.53	0.31
301.983	0.29
302.436	0.28
302.889	0.28
303.342	0.3
303.795	0.28
304.248	0.28
304.701	0.31
305.153	0.28
305.606	0.3
306.059	0.3
306.512	0.3
306.964	0.29
307.417	0.29
307.869	0.28
308.322	0.31
308.774	0.3
309.227	0.31
309.679	0.31
310.131	0.29
310.584	0.31
311.036	0.26
311.488	0.29
311.94	0.29
312.392	0.26
312.844	0.31
313.296	0.3
313.748	0.31
314.2	0.28
314.652	0.32
315.103	0.3
315.555	0.32
316.007	0.3
316.458	0.32
316.91	0.32
317.361	0.32
317.813	0.34
318.264	0.31
318.716	0.33
319.167	0.33
319.618	0.34
320.07	0.34
320.521	0.35
320.972	0.37
321.423	0.35
321.874	0.36
322.325	0.38
322.776	0.38
323.227	0.39
323.678	0.41
324.128	0.4
324.579	0.41
325.03	0.44
325.48	0.44
325.931	0.46
326.382	0.47
326.832	0.47
327.283	0.49
327.733	0.52
328.183	0.51
328.634	0.54
329.084	0.56
329.534	0.57
329.984	0.62
330.434	0.61
330.884	0.63
331.334	0.66
331.784	0.65
332.234	0.69
332.684	0.7
333.134	0.7
333.584	0.74
334.034	0.74
334.483	0.76
334.933	0.79
335.382	0.8
335.832	0.82
336.281	0.83
336.731	0.84
337.18	0.86
337.63	0.89
338.079	0.9
338.528	0.93
338.977	0.94
339.426	0.96
339.876	0.98
340.325	0.99
340.774	1.01
341.223	1.02
341.671	1.04
342.12	1.06
342.569	1.06
343.018	1.11
343.467	1.1
343.915	1.13
344.364	1.14
344.812	1.15
345.261	1.17
345.709	1.17
346.158	1.21
346.606	1.2
347.054	1.22
347.503	1.23
347.951	1.26
348.399	1.24
348.847	1.27
349.295	1.26
349.743	1.28
350.191	1.28
350.639	1.28
351.087	1.3
351.535	1.32
351.983	1.32
352.43	1.34
352.878	1.32
353.326	1.34
353.773	1.35
354.221	1.38
354.668	1.36
355.116	1.38
355.563	1.38
356.01	1.39
356.458	1.4
356.905	1.42
357.352	1.44
357.799	1.45
358.246	1.47
358.693	1.46
359.14	1.48
359.587	1.47
360.034	1.51
360.481	1.49
360.928	1.52
361.375	1.54
361.821	1.54
362.268	1.55
362.714	1.57
363.161	1.57
363.608	1.59
364.054	1.59
364.5	1.59
364.947	1.6
365.393	1.61
365.839	1.61
366.285	1.61
366.732	1.63
367.178	1.62
367.624	1.63
368.07	1.63
368.516	1.63
368.962	1.62
369.408	1.64
369.853	1.63
370.299	1.65
370.745	1.64
371.19	1.62
371.636	1.65
372.082	1.63
372.527	1.64
372.973	1.64
373.418	1.64
373.863	1.64
374.309	1.63
374.754	1.64
375.199	1.64
375.644	1.61
376.09	1.6
376.535	1.61
376.98	1.58
377.425	1.61
377.87	1.6
378.314	1.58
378.759	1.6
379.204	1.56
379.649	1.56
380.093	1.53
380.538	1.53
380.983	1.5
381.427	1.49
381.872	1.46
382.316	1.43
382.76	1.41
383.205	1.39
383.649	1.36
384.093	1.34
384.537	1.31
384.982	1.3
385.426	1.26
385.87	1.26
386.314	1.23
386.758	1.19
387.201	1.17
387.645	1.15
388.089	1.12
388.533	1.1
388.976	1.07
389.42	1.06
389.864	1.03
390.307	1
390.751	0.97
391.194	0.96
391.638	0.94
392.081	0.93
392.524	0.91
392.967	0.89
393.411	0.88
393.854	0.87
394.297	0.86
394.74	0.84
395.183	0.83
395.626	0.82
396.069	0.82
396.512	0.81
396.954	0.8
397.397	0.8
397.84	0.81
398.282	0.81
398.725	0.81
399.168	0.8
399.61	0.79
400.052	0.79
400.495	0.77
400.937	0.76
401.38	0.75
401.822	0.75
402.264	0.73
402.706	0.71
403.148	0.7
403.59	0.67
404.032	0.66
404.474	0.63
404.916	0.6
405.358	0.59
405.8	0.58
406.241	0.56
406.683	0.53
407.125	0.5
407.566	0.49
408.008	0.47
408.449	0.47
408.891	0.45
409.332	0.43
409.774	0.42
410.215	0.39
410.656	0.38
411.097	0.37
411.539	0.35
411.98	0.35
412.421	0.33
412.862	0.32
413.303	0.3
413.744	0.31
414.184	0.3
414.625	0.29
415.066	0.28
415.507	0.28
415.947	0.27
416.388	0.27
416.828	0.26
417.269	0.26
417.709	0.27
418.15	0.25
418.59	0.25
419.03	0.25
419.471	0.24
419.911	0.24
420.351	0.24
420.791	0.23
421.231	0.23
421.671	0.24
422.111	0.23
422.551	0.22
422.991	0.24
423.431	0.23
423.87	0.24
424.31	0.22
424.75	0.23
425.189	0.23
425.629	0.22
426.068	0.23
426.508	0.22
426.947	0.22
427.386	0.23
427.826	0.22
428.265	0.23
428.704	0.22
429.143	0.23
429.582	0.21
430.021	0.23
430.46	0.25
430.899	0.22
431.338	0.22
431.777	0.22
432.216	0.23
432.655	0.23
433.093	0.22
433.532	0.25
433.971	0.22
434.409	0.23
434.848	0.24
435.286	0.23
435.724	0.25
436.163	0.23
436.601	0.24
437.039	0.26
437.477	0.22
437.916	0.24
438.354	0.25
438.792	0.24
439.23	0.26
439.668	0.25
440.105	0.24
440.543	0.24
440.981	0.25
441.419	0.26
441.856	0.26
442.294	0.24
442.732	0.26
443.169	0.24
443.607	0.27
444.044	0.25
444.481	0.28
444.919	0.26
445.356	0.25
445.793	0.27
446.23	0.28
446.668	0.26
447.105	0.28
447.542	0.27
447.979	0.28
448.416	0.27
448.852	0.29
449.289	0.29
449.726	0.29
450.163	0.29
450.599	0.29
451.036	0.29
451.473	0.31
451.909	0.29
452.346	0.3
452.782	0.3
453.218	0.28
453.655	0.29
454.091	0.29
454.527	0.3
454.963	0.32
455.399	0.29
455.835	0.31
456.271	0.31
456.707	0.31
457.143	0.28
457.579	0.29
458.015	0.3
458.451	0.32
458.886	0.32
459.322	0.32
459.758	0.32
460.193	0.33
460.629	0.33
461.064	0.31
461.5	0.33
461.935	0.33
462.37	0.34
462.805	0.33
463.241	0.32
463.676	0.33
464.111	0.33
464.546	0.34
464.981	0.34
465.416	0.35
465.851	0.36
466.286	0.36
466.72	0.37
467.155	0.39
467.59	0.38
468.024	0.39
468.459	0.39
468.893	0.4
469.328	0.4
469.762	0.4
470.197	0.41
470.631	0.43
471.065	0.42
471.5	0.43
471.934	0.45
472.368	0.45
472.802	0.46
473.236	0.46
473.67	0.48
474.104	0.47
474.538	0.49
474.972	0.49
475.405	0.5
475.839	0.51
476.273	0.52
476.706	0.52
477.14	0.54
477.573	0.55
478.007	0.55
478.44	0.55
478.874	0.56
479.307	0.58
479.74	0.58
480.173	0.59
480.606	0.6
481.04	0.6
481.473	0.61
481.906	0.62
482.339	0.63
482.771	0.64
483.204	0.64
483.637	0.65
484.07	0.65
484.502	0.67
484.935	0.67
485.368	0.68
485.8	0.69
486.233	0.69
486.665	0.7
487.098	0.71
487.53	0.71
487.962	0.71
488.394	0.72
488.827	0.73
489.259	0.74
489.691	0.74
490.123	0.75
490.555	0.75
490.987	0.77
491.418	0.77
491.85	0.78
492.282	0.78
492.714	0.79
493.145	0.8
493.577	0.81
494.009	0.81
494.44	0.82
494.872	0.82
495.303	0.83
495.734	0.84
496.166	0.84
496.597	0.85
497.028	0.85
497.459	0.86
497.89	0.87
498.321	0.88
498.752	0.88
499.183	0.88
499.614	0.89
500.045	0.9
500.476	0.9
500.906	0.91
501.337	0.92
501.768	0.92
502.198	0.93
502.629	0.93
503.059	0.94
503.49	0.95
503.92	0.95
504.35	0.96
504.781	0.96
505.211	0.96
505.641	0.97
506.071	0.98
506.501	0.99
506.931	0.99
507.361	1
507.791	1
508.221	1.02
508.651	1.01
509.081	1.02
509.51	1.02
509.94	1.02
510.37	1.03
510.799	1.04
511.229	1.04
511.658	1.04
512.087	1.05
512.517	1.05
512.946	1.06
513.375	1.06
513.804	1.07
514.234	1.07
514.663	1.08
515.092	1.08
515.521	1.08
515.95	1.09
516.378	1.08
516.807	1.09
517.236	1.09
517.665	1.1
518.093	1.11
518.522	1.11
518.951	1.12
519.379	1.11
519.807	1.13
520.236	1.12
520.664	1.13
521.093	1.13
521.521	1.13
521.949	1.13
522.377	1.14
522.805	1.13
523.233	1.14
523.661	1.14
524.089	1.15
524.517	1.15
524.945	1.15
525.373	1.15
525.8	1.16
526.228	1.15
526.656	1.15
527.083	1.15
527.511	1.18
527.938	1.17
528.366	1.17
528.793	1.17
529.22	1.17
529.648	1.17
530.075	1.17
530.502	1.16
530.929	1.18
531.356	1.18
531.783	1.18
532.21	1.18
532.637	1.18
533.064	1.19
533.49	1.19
533.917	1.19
534.344	1.19
534.771	1.2
535.197	1.19
535.624	1.18
536.05	1.19
536.477	1.18
536.903	1.19
537.329	1.19
537.755	1.19
538.182	1.2
538.608	1.19
539.034	1.19
539.46	1.19
539.886	1.19
540.312	1.19
540.738	1.2
541.164	1.19
541.589	1.2
542.015	1.2
542.441	1.19
542.867	1.2
543.292	1.19
543.718	1.2
544.143	1.19
544.569	1.18
544.994	1.19
545.419	1.19
545.845	1.19
546.27	1.18
546.695	1.19
547.12	1.18
547.545	1.18
547.97	1.18
548.395	1.18
548.82	1.18
549.245	1.18
549.67	1.17
550.094	1.17
550.519	1.17
550.944	1.17
551.368	1.17
551.793	1.16
552.217	1.17
552.642	1.16
553.066	1.16
553.49	1.16
553.915	1.16
554.339	1.16
554.763	1.15
555.187	1.15
555.611	1.14
556.035	1.14
556.459	1.13
556.883	1.14
557.307	1.14
557.731	1.13
558.154	1.13
558.578	1.12
559.002	1.12
559.425	1.13
559.849	1.11
560.272	1.12
560.696	1.11
561.119	1.11
561.543	1.1
561.966	1.1
562.389	1.1
562.812	1.1
563.235	1.09
563.658	1.09
564.081	1.09
564.504	1.09
564.927	1.08
565.35	1.07
565.773	1.07
566.196	1.07
566.618	1.06
567.041	1.06
567.463	1.06
567.886	1.06
568.309	1.05
568.731	1.05
569.153	1.06
569.576	1.05
569.998	1.04
570.42	1.04
570.842	1.04
571.264	1.03
571.686	1.03
572.108	1.02
572.53	1.02
572.952	1.02
573.374	1.01
573.796	1.01
574.218	1.01
574.639	1
575.061	1
575.483	0.99
575.904	0.99
576.326	0.99
576.747	0.99
577.168	0.98
577.59	0.98
578.011	0.97
578.432	0.97
578.853	0.96
579.274	0.96
579.695	0.96
580.116	0.95
580.537	0.95
580.958	0.94
581.379	0.94
581.8	0.94
582.221	0.94
582.641	0.93
583.062	0.92
583.482	0.92
583.903	0.92
584.323	0.92
584.744	0.91
585.164	0.9
585.584	0.9
586.005	0.9
586.425	0.89
586.845	0.89
587.265	0.89
587.685	0.89
588.105	0.88
588.525	0.88
588.945	0.88
589.365	0.87
589.785	0.87
590.204	0.87
590.624	0.86
591.044	0.86
591.463	0.86
591.883	0.86
592.302	0.85
592.721	0.85
593.141	0.84
593.56	0.84
593.979	0.84
594.399	0.83
594.818	0.83
595.237	0.83
595.656	0.83
596.075	0.82
596.494	0.82
596.913	0.81
597.331	0.81
597.75	0.81
598.169	0.81
598.587	0.8
599.006	0.8
599.425	0.8
599.843	0.79
600.262	0.79
600.68	0.79
601.098	0.78
601.517	0.78
601.935	0.78
602.353	0.77
602.771	0.77
603.189	0.77
603.607	0.76
604.025	0.76
604.443	0.76
604.861	0.75
605.279	0.75
605.696	0.75
606.114	0.74
606.532	0.74
606.949	0.74
607.367	0.73
607.784	0.73
608.202	0.72
608.619	0.72
609.036	0.72
609.454	0.71
609.871	0.71
610.288	0.71
610.705	0.7
611.122	0.7
611.539	0.7
611.956	0.7
612.373	0.69
612.79	0.69
613.207	0.68
613.623	0.68
614.04	0.67
614.457	0.67
614.873	0.66
615.29	0.66
615.706	0.66
616.122	0.66
616.539	0.65
616.955	0.65
617.371	0.64
617.788	0.64
618.204	0.64
618.62	0.63
619.036	0.63
619.452	0.63
619.868	0.63
620.284	0.62
620.699	0.62
621.115	0.61
621.531	0.61
621.946	0.61
622.362	0.6
622.778	0.6
623.193	0.6
623.608	0.59
624.024	0.59
624.439	0.59
624.854	0.58
625.27	0.58
625.685	0.58
626.1	0.57
626.515	0.57
626.93	0.56
627.345	0.56
627.76	0.55
628.175	0.55
628.589	0.55
629.004	0.54
629.419	0.54
629.833	0.54
630.248	0.53
630.663	0.53
631.077	0.52
631.491	0.52
631.906	0.52
632.32	0.51
632.734	0.51
633.148	0.51
633.563	0.5
633.977	0.5
634.391	0.5
634.805	0.49
635.219	0.49
635.632	0.48
636.046	0.48
636.46	0.48
636.874	0.47
637.287	0.47
637.701	0.47
638.115	0.46
638.528	0.46
638.941	0.46
639.355	0.45
639.768	0.45
640.181	0.45
640.595	0.44
641.008	0.44
641.421	0.44
641.834	0.43
642.247	0.43
642.66	0.43
643.073	0.42
643.486	0.42
643.898	0.42
644.311	0.41
644.724	0.41
645.136	0.41
645.549	0.4
645.961	0.4
646.374	0.39
646.786	0.4
647.199	0.39
647.611	0.39
648.023	0.39
648.435	0.39
648.847	0.38
649.26	0.38
649.672	0.38
650.084	0.37
650.495	0.37
650.907	0.37
651.319	0.36
651.731	0.36
652.143	0.36
652.554	0.36
652.966	0.36
653.377	0.35
653.789	0.35
654.2	0.35
654.612	0.35
655.023	0.35
655.434	0.33
655.845	0.32
656.256	0.34
656.668	0.34
657.079	0.33
657.49	0.33
657.901	0.33
658.311	0.33
658.722	0.32
659.133	0.32
659.544	0.32
659.954	0.32
660.365	0.32
660.775	0.31
661.186	0.31
661.596	0.31
662.007	0.31
662.417	0.3
662.827	0.3
663.238	0.3
663.648	0.3
664.058	0.3
664.468	0.29
664.878	0.29
665.288	0.29
665.698	0.29
666.108	0.28
666.517	0.28
666.927	0.28
667.337	0.28
667.746	0.27
668.156	0.27
668.565	0.27
668.975	0.27
669.384	0.26
669.794	0.26
670.203	0.26
670.612	0.26
671.021	0.26
671.43	0.26
671.84	0.25
672.249	0.25
672.658	0.25
673.066	0.25
673.475	0.24
673.884	0.24
674.293	0.24
674.702	0.24
675.11	0.23
675.519	0.23
675.927	0.23
676.336	0.23
676.744	0.23
677.152	0.22
677.561	0.22
677.969	0.22
678.377	0.22
678.785	0.21
679.193	0.21
679.601	0.21
680.009	0.21
680.417	0.21
680.825	0.21
681.233	0.2
681.641	0.2
682.048	0.2
682.456	0.2
682.864	0.19
683.271	0.19
683.679	0.19
684.086	0.19
684.493	0.18
684.901	0.18
685.308	0.18
685.715	0.18
686.122	0.18
686.529	0.18
686.936	0.17
687.343	0.17
687.75	0.17
688.157	0.17
688.564	0.17
688.971	0.16
689.378	0.17
689.784	0.16
690.191	0.16
690.597	0.16
691.004	0.16
691.41	0.15
691.817	0.15
692.223	0.15
692.629	0.15
693.035	0.15
693.442	0.15
693.848	0.15
694.254	0.15
694.66	0.14
695.066	0.14
695.471	0.14
695.877	0.14
696.283	0.14
696.689	0.14
697.094	0.14
697.5	0.14
697.906	0.13
698.311	0.13
698.716	0.13
699.122	0.13
699.527	0.13
699.932	0.13
700.338	0.13
700.743	0.13
701.148	0.13
701.553	0.12
701.958	0.13
702.363	0.12
702.768	0.12
703.173	0.12
703.577	0.12
703.982	0.12
704.387	0.12
704.791	0.12
705.196	0.12
705.6	0.12
706.005	0.12
706.409	0.11
706.814	0.12
707.218	0.11
707.622	0.11
708.026	0.11
708.43	0.11
708.834	0.11
709.238	0.11
709.642	0.11
710.046	0.11
710.45	0.11
710.854	0.11
711.257	0.11
711.661	0.11
712.065	0.11
712.468	0.11
712.872	0.11
713.275	0.11
713.679	0.11
714.082	0.11
714.485	0.11
714.888	0.11
715.291	0.11
715.695	0.11
716.098	0.11
716.501	0.11
716.904	0.11
717.306	0.11
717.709	0.11
718.112	0.11
718.515	0.11
718.917	0.11
719.32	0.11
719.723	0.11
720.125	0.11
720.527	0.11
720.93	0.11
721.332	0.11
721.734	0.11
722.137	0.11
722.539	0.11
722.941	0.11
723.343	0.11
723.745	0.11
724.147	0.11
724.549	0.11
724.95	0.11
725.352	0.11
725.754	0.11
726.156	0.1
726.557	0.1
726.959	0.11
727.36	0.11
727.762	0.11
728.163	0.11
728.564	0.11
728.966	0.11
729.367	0.11
729.768	0.11
730.169	0.1
730.57	0.1
730.971	0.1
731.372	0.1
731.773	0.1
732.174	0.1
732.574	0.1
732.975	0.1
733.376	0.1
733.776	0.1
734.177	0.1
734.577	0.1
734.978	0.1
735.378	0.1
735.778	0.1
736.179	0.1
736.579	0.1
736.979	0.1
737.379	0.1
737.779	0.1
738.179	0.1
738.579	0.1
738.979	0.1
739.379	0.1
739.778	0.1
740.178	0.09
740.578	0.1
740.977	0.1
741.377	0.09
741.776	0.09
742.176	0.09
742.575	0.09
742.974	0.09
743.374	0.09
743.773	0.09
744.172	0.09
744.571	0.09
744.97	0.09
745.369	0.09
745.768	0.09
746.167	0.09
746.565	0.09
746.964	0.09
747.363	0.09
747.761	0.09
748.16	0.09
748.559	0.09
748.957	0.09
749.355	0.09
749.754	0.09
750.152	0.09
750.55	0.09
750.948	0.09
751.347	0.09
751.745	0.09
752.143	0.09
752.541	0.09
752.938	0.08
753.336	0.08
753.734	0.08
754.132	0.08
754.529	0.08
754.927	0.08
755.325	0.08
755.722	0.08
756.119	0.08
756.517	0.08
756.914	0.08
757.311	0.08
757.709	0.08
758.106	0.08
758.503	0.08
758.9	0.08
759.297	0.08
759.694	0.08
760.091	0.08
760.488	0.08
760.884	0.08
761.281	0.08
761.678	0.08
762.074	0.08
762.471	0.08
762.867	0.08
763.264	0.08
763.66	0.08
764.056	0.08
764.453	0.08
764.849	0.08
765.245	0.08
765.641	0.08
766.037	0.08
766.433	0.08
766.829	0.08
767.225	0.08
767.621	0.08
768.016	0.08
768.412	0.09
768.808	0.08
769.203	0.08
769.599	0.09
769.994	0.08
770.389	0.09
770.785	0.09
771.18	0.09
771.575	0.09
771.971	0.09
772.366	0.09
772.761	0.09
773.156	0.09
773.551	0.09
773.945	0.09
774.34	0.09
774.735	0.09
775.13	0.09
775.524	0.09
775.919	0.09
776.314	0.09
776.708	0.09
777.103	0.09
777.497	0.09
777.891	0.09
778.285	0.09
778.68	0.09
779.074	0.09
779.468	0.1
779.862	0.1
780.256	0.1
780.65	0.09
781.044	0.1
781.438	0.1
781.831	0.1
782.225	0.1
782.619	0.1
783.012	0.1
783.406	0.1
783.799	0.1
784.193	0.1
784.586	0.1
784.979	0.1
785.372	0.1
785.766	0.1
786.159	0.1
786.552	0.1
786.945	0.1
787.338	0.11
787.731	0.11
788.123	0.11
788.516	0.11
788.909	0.11
789.302	0.11
789.694	0.11
790.087	0.11
790.479	0.11
790.872	0.11
791.264	0.11
791.656	0.11
792.049	0.11
792.441	0.11
792.833	0.11
793.225	0.11
793.617	0.11
794.009	0.11
794.401	0.11
794.793	0.12
795.185	0.11
795.576	0.12
795.968	0.12
796.36	0.12
796.751	0.12
797.143	0.12
797.534	0.12
797.926	0.12
798.317	0.12
798.708	0.12
799.1	0.12
799.491	0.13
799.882	0.12
800.273	0.13
800.664	0.13
801.055	0.13
801.446	0.13
801.837	0.13
802.227	0.13
802.618	0.13
803.009	0.13
803.399	0.13
803.79	0.13
804.18	0.13
804.571	0.13
804.961	0.13
805.351	0.14
805.742	0.14
806.132	0.13
806.522	0.13
806.912	0.14
807.302	0.14
807.692	0.14
808.082	0.14
808.472	0.14
808.862	0.14
809.251	0.14
809.641	0.14
810.031	0.15
810.42	0.14
810.81	0.15
811.199	0.15
811.589	0.15
811.978	0.15
812.367	0.15
812.756	0.15
813.146	0.15
813.535	0.15
813.924	0.15
814.313	0.16
814.702	0.15
815.091	0.15
815.479	0.16
815.868	0.16
816.257	0.16
816.645	0.16
817.034	0.16
817.423	0.16
817.811	0.16
818.199	0.16
818.588	0.16
818.976	0.17
819.364	0.16
819.753	0.17
820.141	0.17
820.529	0.17
820.917	0.17
821.305	0.17
821.693	0.17
822.08	0.17
822.468	0.17
822.856	0.17
823.244	0.17
823.631	0.17
824.019	0.18
824.406	0.18
824.794	0.18
825.181	0.18
825.568	0.18
825.956	0.18
826.343	0.18
826.73	0.18
827.117	0.18
827.504	0.18
827.891	0.18
828.278	0.18
828.665	0.18
829.052	0.19
829.438	0.19
829.825	0.19
830.212	0.19
830.598	0.19
830.985	0.19
831.371	0.19
831.757	0.2
832.144	0.2
832.53	0.2
832.916	0.2
833.302	0.2
833.688	0.2
834.075	0.2
834.461	0.2
834.846	0.2
835.232	0.2
835.618	0.2
836.004	0.2
836.39	0.21
836.775	0.21
837.161	0.21
837.546	0.21
837.932	0.21
838.317	0.21
838.702	0.21
839.088	0.21
839.473	0.21
839.858	0.22
840.243	0.22
840.628	0.22
841.013	0.22
841.398	0.22
841.783	0.22
842.168	0.22
842.553	0.22
842.937	0.22
843.322	0.22
843.707	0.22
844.091	0.22
844.476	0.23
844.86	0.23
845.244	0.23
845.629	0.23
846.013	0.23
846.397	0.23
846.781	0.23
847.165	0.23
847.549	0.23
847.933	0.24
848.317	0.24
848.701	0.24
849.085	0.24
849.468	0.24
849.852	0.24
850.236	0.24
850.619	0.24
851.003	0.24
851.386	0.25
851.769	0.25
852.153	0.25
852.536	0.25
852.919	0.25
853.302	0.25
853.685	0.25
854.068	0.25
854.451	0.25
854.834	0.25
855.217	0.25
855.6	0.25
855.982	0.26
856.365	0.25
856.748	0.25
857.13	0.26
857.513	0.26
857.895	0.26
858.277	0.26
858.66	0.26
859.042	0.26
859.424	0.26
859.806	0.26
860.188	0.27
860.57	0.27
860.952	0.26
861.334	0.27
861.716	0.27
862.098	0.27
862.48	0.27
862.861	0.27
863.243	0.27
863.624	0.27
864.006	0.27
864.387	0.27
864.769	0.27
865.15	0.28
865.531	0.28
865.912	0.28
866.294	0.28
866.675	0.28
867.056	0.28
867.437	0.28
867.818	0.28
868.198	0.28
868.579	0.29
868.96	0.28
869.341	0.29
869.721	0.29
870.102	0.29
870.482	0.29
870.863	0.29
871.243	0.29
871.623	0.29
872.003	0.29
872.384	0.29
872.764	0.29
873.144	0.29
873.524	0.3
873.904	0.3
874.284	0.3
874.664	0.3
875.043	0.3
875.423	0.3
875.803	0.3
876.182	0.3
876.562	0.3
876.941	0.3
877.321	0.31
877.7	0.3
878.079	0.31
878.459	0.31
878.838	0.31
879.217	0.31
879.596	0.31
879.975	0.31
880.354	0.31
880.733	0.31
881.112	0.31
881.491	0.31
881.869	0.31
882.248	0.31
882.627	0.31
883.005	0.31
883.384	0.32
883.762	0.32
884.14	0.32
884.519	0.32
884.897	0.32
885.275	0.32
885.653	0.32
886.031	0.32
886.409	0.32
886.787	0.32
887.165	0.33
887.543	0.32
887.921	0.32
888.298	0.32
888.676	0.33
889.054	0.32
889.431	0.33
889.809	0.33
890.186	0.33
890.563	0.33
890.941	0.33
891.318	0.33
891.695	0.33
892.072	0.33
892.449	0.33
892.826	0.33
893.203	0.33
893.58	0.33
893.957	0.34
894.334	0.33
894.71	0.33
895.087	0.34
895.464	0.34
895.84	0.34
896.217	0.34
896.593	0.34
896.969	0.34
897.346	0.34
897.722	0.34
898.098	0.34
898.474	0.34
898.85	0.34
899.226	0.35
899.602	0.34
899.978	0.35
900.354	0.34
900.73	0.34
901.105	0.34
901.481	0.35
901.857	0.34
902.232	0.35
902.608	0.34
902.983	0.35
903.358	0.35
903.734	0.35
904.109	0.35
904.484	0.35
904.859	0.35
905.234	0.35
905.609	0.35
905.984	0.35
906.359	0.35
906.734	0.35
907.108	0.35
907.483	0.35
907.858	0.35
908.232	0.35
908.607	0.35
908.981	0.35
909.356	0.35
909.73	0.35
910.104	0.36
910.478	0.35
910.853	0.36
911.227	0.36
911.601	0.36
911.975	0.36
912.349	0.36
912.722	0.36
913.096	0.36
913.47	0.36
913.844	0.36
914.217	0.36
914.591	0.36
914.964	0.36
915.338	0.36
915.711	0.36
916.084	0.36
916.458	0.36
916.831	0.36
917.204	0.36
917.577	0.36
917.95	0.36
918.323	0.36
918.696	0.36
919.069	0.36
919.441	0.37
919.814	0.36
920.187	0.36
920.559	0.36
920.932	0.36
921.304	0.36
921.677	0.36
922.049	0.36
922.421	0.36
922.794	0.37
923.166	0.37
923.538	0.37
923.91	0.37
924.282	0.37
924.654	0.37
925.026	0.37
925.398	0.36
925.769	0.37
926.141	0.37
926.513	0.37
926.884	0.37
927.256	0.37
927.627	0.37
927.999	0.36
928.37	0.36
928.741	0.37
929.113	0.37
929.484	0.37
929.855	0.37
930.226	0.37
930.597	0.37
930.968	0.37
931.339	0.37
931.709	0.37
932.08	0.37
932.451	0.37
932.821	0.37
933.192	0.37
933.562	0.37
933.933	0.37
934.303	0.37
934.673	0.37
935.044	0.37
935.414	0.37
935.784	0.37
936.154	0.37
936.524	0.37
936.894	0.37
937.264	0.37
937.634	0.37
938.004	0.37
938.373	0.37
938.743	0.37
939.113	0.38
939.482	0.37
939.852	0.37
940.221	0.37
940.59	0.37
940.96	0.37
941.329	0.37
941.698	0.37
942.067	0.37
942.436	0.38
942.805	0.37
943.174	0.37
943.543	0.37
943.912	0.37
944.28	0.37
944.649	0.37
945.018	0.37
945.386	0.37
945.755	0.38
946.123	0.37
946.492	0.38
946.86	0.37
947.228	0.37
947.596	0.37
947.965	0.37
948.333	0.37
948.701	0.37
949.069	0.37
949.437	0.37
949.804	0.37
950.172	0.37
950.54	0.37
950.908	0.37
951.275	0.37
951.643	0.37
952.01	0.37
952.378	0.37
952.745	0.37
953.112	0.37
953.479	0.37
953.847	0.37
954.214	0.37
954.581	0.37
954.948	0.37
955.315	0.37
955.682	0.37
956.048	0.37
956.415	0.37
956.782	0.37
957.148	0.37
957.515	0.36
957.881	0.37
958.248	0.37
958.614	0.37
958.981	0.36
959.347	0.37
959.713	0.37
960.079	0.37
960.445	0.37
960.811	0.37
961.177	0.36
961.543	0.37
961.909	0.37
962.275	0.37
962.641	0.37
963.006	0.37
963.372	0.36
963.737	0.37
964.103	0.37
964.468	0.37
964.834	0.36
965.199	0.37
965.564	0.36
965.929	0.36
966.294	0.36
966.659	0.36
967.024	0.36
967.389	0.36
967.754	0.36
968.119	0.36
968.484	0.36
968.848	0.36
969.213	0.36
969.578	0.36
969.942	0.36
970.307	0.36
970.671	0.36
971.035	0.37
971.399	0.36
971.764	0.36
972.128	0.36
972.492	0.36
972.856	0.36
973.22	0.36
973.584	0.36
973.948	0.36
974.311	0.35
974.675	0.36
975.039	0.36
975.402	0.36
975.766	0.36
976.129	0.35
976.493	0.36
976.856	0.36
977.219	0.36
977.582	0.36
977.946	0.36
978.309	0.35
978.672	0.36
979.035	0.35
979.398	0.36
979.761	0.35
980.123	0.35
980.486	0.35
980.849	0.35
981.211	0.36
981.574	0.35
981.936	0.35
982.299	0.35
982.661	0.35
983.023	0.35
983.386	0.35
983.748	0.35
984.11	0.35
984.472	0.35
984.834	0.35
985.196	0.35
985.558	0.35
985.92	0.35
986.281	0.35
986.643	0.34
987.005	0.35
987.366	0.34
987.728	0.34
988.089	0.35
988.451	0.34
988.812	0.34
989.173	0.34
989.534	0.34
989.895	0.35
990.257	0.35
990.618	0.34
990.979	0.34
991.339	0.34
991.7	0.34
992.061	0.34
992.422	0.34
992.782	0.34
993.143	0.34
993.503	0.34
993.864	0.34
994.224	0.34
994.585	0.34
994.945	0.33
995.305	0.33
995.665	0.33
996.025	0.34
996.385	0.33
996.745	0.33
997.105	0.33
997.465	0.33
997.825	0.33
998.185	0.33
998.544	0.33
998.904	0.33
999.263	0.33
999.623	0.33
999.982	0.33
1000.342	0.33
1000.701	0.33
1001.06	0.33
1001.419	0.33
1001.778	0.33
1002.138	0.33
1002.497	0.33
1002.855	0.33
1003.214	0.33
1003.573	0.33
1003.932	0.33
1004.29	0.33
1004.649	0.32
1005.008	0.33
1005.366	0.33
1005.725	0.32
1006.083	0.32
1006.441	0.32
1006.799	0.32
1007.158	0.33
1007.516	0.32
1007.874	0.33
1008.232	0.32
1008.59	0.32
1008.948	0.32
1009.305	0.32
1009.663	0.32
1010.021	0.32
1010.379	0.32
1010.736	0.32
1011.094	0.32
1011.451	0.32
1011.808	0.32
1012.166	0.32
1012.523	0.31
1012.88	0.32
1013.237	0.32
1013.594	0.31
1013.951	0.32
1014.308	0.32
1014.665	0.31
1015.022	0.32
1015.379	0.31
1015.735	0.31
1016.092	0.31
1016.449	0.32
1016.805	0.32
1017.162	0.31
1017.518	0.31
1017.874	0.31
1018.231	0.31
1018.587	0.31
1018.943	0.31
1019.299	0.3
1019.655	0.3
1020.011	0.31
1020.367	0.3
1020.723	0.31
1021.078	0.31
1021.434	0.31
1021.79	0.31
1022.145	0.31
1022.501	0.3
1022.856	0.3
1023.212	0.31
1023.567	0.3
1023.922	0.3
1024.278	0.3
1024.633	0.3
1024.988	0.3
1025.343	0.3
1025.698	0.3
1026.053	0.3
1026.408	0.3
1026.762	0.3
1027.117	0.3
1027.472	0.29
1027.826	0.29
1028.181	0.29
1028.535	0.3
1028.89	0.3
1029.244	0.3
1029.598	0.3
1029.952	0.3
1030.307	0.3
1030.661	0.3
1031.015	0.29
1031.369	0.3
1031.723	0.29
1032.076	0.29
