Data from Rubpy_BV_EDTA_TU(3000)_Blank_Blue_Flow_Absorbance__386__12-53-08-885.txt Node

Date: Mon Aug 03 12:53:08 BST 2026
User: fpm-admin
Spectrometer: SR600986
Trigger mode: 0
Integration Time (sec): 8.000000E-3
Scans to average: 3
Nonlinearity correction enabled: true
Boxcar width: 0
Storing dark spectrum: false
XAxis mode: Wavelengths
Number of Pixels in Spectrum: 2048
>>>>>Begin Spectral Data<<<<<
188.613	0.12
189.078	0.13
189.542	0.14
190.007	0.12
190.472	0.13
190.936	0.12
191.401	0.11
191.865	0.12
192.33	0.12
192.794	0.11
193.258	0.12
193.723	0.12
194.187	0.12
194.651	0.11
195.115	0.13
195.579	0.15
196.043	0.1
196.507	0.12
196.971	0.12
197.435	0.13
197.899	0.11
198.363	0.12
198.827	0.12
199.29	0.11
199.754	0.12
200.218	0.14
200.681	0.11
201.145	0.11
201.608	0.11
202.072	0.13
202.535	0.12
202.998	0.12
203.462	0.12
203.925	0.12
204.388	0.12
204.851	0.11
205.314	0.14
205.777	0.11
206.24	0.12
206.703	0.13
207.166	0.11
207.629	0.12
208.092	0.12
208.555	0.11
209.018	0.13
209.48	0.1
209.943	0.13
210.406	0.11
210.868	0.11
211.331	0.1
211.793	0.11
212.256	0.12
212.718	0.11
213.18	0.12
213.643	0.12
214.105	0.1
214.567	0.1
215.029	0.13
215.491	0.13
215.953	0.13
216.415	0.1
216.877	0.11
217.339	0.13
217.801	0.11
218.263	0.12
218.725	0.14
219.186	0.13
219.648	0.12
220.11	0.11
220.571	0.14
221.033	0.11
221.494	0.13
221.956	0.13
222.417	0.13
222.878	0.11
223.34	0.12
223.801	0.11
224.262	0.12
224.723	0.11
225.185	0.11
225.646	0.09
226.107	0.13
226.568	0.09
227.029	0.1
227.489	0.13
227.95	0.12
228.411	0.11
228.872	0.12
229.332	0.11
229.793	0.1
230.254	0.11
230.714	0.11
231.175	0.13
231.635	0.1
232.096	0.1
232.556	0.11
233.016	0.11
233.477	0.11
233.937	0.11
234.397	0.1
234.857	0.11
235.317	0.12
235.777	0.11
236.237	0.1
236.697	0.12
237.157	0.12
237.617	0.12
238.077	0.11
238.537	0.12
238.996	0.13
239.456	0.12
239.916	0.12
240.375	0.11
240.835	0.11
241.294	0.12
241.754	0.12
242.213	0.12
242.672	0.11
243.132	0.11
243.591	0.12
244.05	0.11
244.509	0.12
244.968	0.13
245.427	0.12
245.886	0.12
246.345	0.1
246.804	0.11
247.263	0.12
247.722	0.11
248.181	0.11
248.639	0.12
249.098	0.1
249.557	0.14
250.015	0.12
250.474	0.12
250.932	0.13
251.391	0.1
251.849	0.13
252.308	0.14
252.766	0.11
253.224	0.13
253.682	0.13
254.14	0.11
254.599	0.12
255.057	0.12
255.515	0.11
255.973	0.15
256.431	0.12
256.888	0.11
257.346	0.12
257.804	0.12
258.262	0.13
258.719	0.13
259.177	0.12
259.635	0.12
260.092	0.1
260.55	0.11
261.007	0.13
261.465	0.13
261.922	0.11
262.379	0.12
262.836	0.13
263.294	0.12
263.751	0.13
264.208	0.13
264.665	0.11
265.122	0.13
265.579	0.14
266.036	0.13
266.493	0.13
266.95	0.14
267.406	0.12
267.863	0.1
268.32	0.11
268.777	0.11
269.233	0.12
269.69	0.12
270.146	0.12
270.603	0.13
271.059	0.1
271.515	0.11
271.972	0.13
272.428	0.1
272.884	0.12
273.34	0.12
273.796	0.11
274.253	0.12
274.709	0.11
275.165	0.11
275.62	0.12
276.076	0.1
276.532	0.13
276.988	0.11
277.444	0.13
277.899	0.1
278.355	0.13
278.811	0.1
279.266	0.12
279.722	0.13
280.177	0.12
280.633	0.1
281.088	0.13
281.543	0.12
281.998	0.13
282.454	0.12
282.909	0.13
283.364	0.11
283.819	0.14
284.274	0.13
284.729	0.12
285.184	0.1
285.639	0.12
286.094	0.12
286.548	0.13
287.003	0.13
287.458	0.13
287.913	0.11
288.367	0.13
288.822	0.11
289.276	0.13
289.731	0.11
290.185	0.12
290.639	0.14
291.094	0.12
291.548	0.16
292.002	0.13
292.456	0.11
292.91	0.13
293.365	0.12
293.819	0.15
294.273	0.1
294.726	0.14
295.18	0.14
295.634	0.15
296.088	0.14
296.542	0.14
296.995	0.12
297.449	0.12
297.903	0.15
298.356	0.12
298.81	0.11
299.263	0.12
299.716	0.13
300.17	0.12
300.623	0.11
301.076	0.15
301.53	0.13
301.983	0.11
302.436	0.12
302.889	0.12
303.342	0.13
303.795	0.13
304.248	0.11
304.701	0.13
305.153	0.13
305.606	0.1
306.059	0.14
306.512	0.13
306.964	0.12
307.417	0.11
307.869	0.12
308.322	0.14
308.774	0.12
309.227	0.12
309.679	0.12
310.131	0.12
310.584	0.13
311.036	0.12
311.488	0.12
311.94	0.12
312.392	0.12
312.844	0.12
313.296	0.13
313.748	0.12
314.2	0.12
314.652	0.12
315.103	0.12
315.555	0.13
316.007	0.15
316.458	0.11
316.91	0.13
317.361	0.14
317.813	0.14
318.264	0.14
318.716	0.13
319.167	0.15
319.618	0.15
320.07	0.14
320.521	0.15
320.972	0.15
321.423	0.15
321.874	0.13
322.325	0.16
322.776	0.17
323.227	0.15
323.678	0.16
324.128	0.16
324.579	0.17
325.03	0.17
325.48	0.19
325.931	0.2
326.382	0.18
326.832	0.19
327.283	0.19
327.733	0.21
328.183	0.22
328.634	0.24
329.084	0.24
329.534	0.25
329.984	0.26
330.434	0.25
330.884	0.25
331.334	0.27
331.784	0.28
332.234	0.29
332.684	0.28
333.134	0.3
333.584	0.31
334.034	0.3
334.483	0.31
334.933	0.33
335.382	0.33
335.832	0.33
336.281	0.34
336.731	0.35
337.18	0.36
337.63	0.37
338.079	0.37
338.528	0.38
338.977	0.4
339.426	0.39
339.876	0.41
340.325	0.42
340.774	0.42
341.223	0.43
341.671	0.45
342.12	0.44
342.569	0.45
343.018	0.47
343.467	0.47
343.915	0.49
344.364	0.49
344.812	0.5
345.261	0.51
345.709	0.51
346.158	0.53
346.606	0.54
347.054	0.54
347.503	0.53
347.951	0.56
348.399	0.56
348.847	0.57
349.295	0.57
349.743	0.57
350.191	0.58
350.639	0.59
351.087	0.61
351.535	0.61
351.983	0.62
352.43	0.62
352.878	0.63
353.326	0.64
353.773	0.65
354.221	0.66
354.668	0.66
355.116	0.68
355.563	0.69
356.01	0.7
356.458	0.71
356.905	0.72
357.352	0.72
357.799	0.73
358.246	0.74
358.693	0.76
359.14	0.78
359.587	0.78
360.034	0.79
360.481	0.79
360.928	0.82
361.375	0.82
361.821	0.83
362.268	0.84
362.714	0.85
363.161	0.86
363.608	0.87
364.054	0.88
364.5	0.89
364.947	0.89
365.393	0.89
365.839	0.91
366.285	0.91
366.732	0.92
367.178	0.92
367.624	0.93
368.07	0.94
368.516	0.93
368.962	0.94
369.408	0.94
369.853	0.94
370.299	0.94
370.745	0.94
371.19	0.93
371.636	0.93
372.082	0.93
372.527	0.91
372.973	0.92
373.418	0.91
373.863	0.9
374.309	0.89
374.754	0.88
375.199	0.87
375.644	0.87
376.09	0.84
376.535	0.83
376.98	0.81
377.425	0.8
377.87	0.79
378.314	0.77
378.759	0.77
379.204	0.74
379.649	0.73
380.093	0.71
380.538	0.7
380.983	0.68
381.427	0.67
381.872	0.65
382.316	0.64
382.76	0.62
383.205	0.61
383.649	0.59
384.093	0.59
384.537	0.57
384.982	0.56
385.426	0.55
385.87	0.53
386.314	0.52
386.758	0.51
387.201	0.5
387.645	0.49
388.089	0.47
388.533	0.47
388.976	0.46
389.42	0.44
389.864	0.43
390.307	0.43
390.751	0.42
391.194	0.42
391.638	0.4
392.081	0.39
392.524	0.39
392.967	0.38
393.411	0.37
393.854	0.37
394.297	0.37
394.74	0.36
395.183	0.37
395.626	0.36
396.069	0.36
396.512	0.36
396.954	0.36
397.397	0.37
397.84	0.36
398.282	0.37
398.725	0.37
399.168	0.37
399.61	0.36
400.052	0.37
400.495	0.36
400.937	0.35
401.38	0.35
401.822	0.34
402.264	0.34
402.706	0.33
403.148	0.32
403.59	0.3
404.032	0.3
404.474	0.28
404.916	0.26
405.358	0.26
405.8	0.26
406.241	0.24
406.683	0.23
407.125	0.22
407.566	0.2
408.008	0.2
408.449	0.2
408.891	0.19
409.332	0.18
409.774	0.17
410.215	0.17
410.656	0.16
411.097	0.15
411.539	0.15
411.98	0.15
412.421	0.14
412.862	0.13
413.303	0.13
413.744	0.12
414.184	0.12
414.625	0.11
415.066	0.11
415.507	0.11
415.947	0.12
416.388	0.12
416.828	0.1
417.269	0.11
417.709	0.11
418.15	0.1
418.59	0.11
419.03	0.11
419.471	0.1
419.911	0.1
420.351	0.1
420.791	0.09
421.231	0.1
421.671	0.09
422.111	0.1
422.551	0.08
422.991	0.1
423.431	0.09
423.87	0.11
424.31	0.09
424.75	0.1
425.189	0.09
425.629	0.08
426.068	0.1
426.508	0.09
426.947	0.1
427.386	0.1
427.826	0.09
428.265	0.11
428.704	0.09
429.143	0.1
429.582	0.1
430.021	0.09
430.46	0.1
430.899	0.08
431.338	0.09
431.777	0.09
432.216	0.1
432.655	0.1
433.093	0.08
433.532	0.1
433.971	0.1
434.409	0.09
434.848	0.09
435.286	0.09
435.724	0.1
436.163	0.1
436.601	0.1
437.039	0.1
437.477	0.1
437.916	0.09
438.354	0.11
438.792	0.1
439.23	0.1
439.668	0.11
440.105	0.11
440.543	0.1
440.981	0.1
441.419	0.08
441.856	0.11
442.294	0.1
442.732	0.1
443.169	0.11
443.607	0.11
444.044	0.11
444.481	0.12
444.919	0.11
445.356	0.11
445.793	0.11
446.23	0.13
446.668	0.11
447.105	0.12
447.542	0.11
447.979	0.11
448.416	0.1
448.852	0.12
449.289	0.12
449.726	0.13
450.163	0.1
450.599	0.11
451.036	0.11
451.473	0.12
451.909	0.14
452.346	0.11
452.782	0.14
453.218	0.1
453.655	0.12
454.091	0.11
454.527	0.12
454.963	0.13
455.399	0.12
455.835	0.14
456.271	0.11
456.707	0.11
457.143	0.1
457.579	0.12
458.015	0.12
458.451	0.13
458.886	0.13
459.322	0.12
459.758	0.13
460.193	0.14
460.629	0.12
461.064	0.12
461.5	0.14
461.935	0.14
462.37	0.13
462.805	0.13
463.241	0.13
463.676	0.14
464.111	0.14
464.546	0.13
464.981	0.14
465.416	0.13
465.851	0.13
466.286	0.13
466.72	0.14
467.155	0.15
467.59	0.14
468.024	0.15
468.459	0.14
468.893	0.16
469.328	0.17
469.762	0.16
470.197	0.16
470.631	0.17
471.065	0.16
471.5	0.16
471.934	0.16
472.368	0.16
472.802	0.17
473.236	0.18
473.67	0.18
474.104	0.17
474.538	0.17
474.972	0.18
475.405	0.19
475.839	0.19
476.273	0.18
476.706	0.19
477.14	0.2
477.573	0.2
478.007	0.21
478.44	0.21
478.874	0.2
479.307	0.21
479.74	0.2
480.173	0.22
480.606	0.22
481.04	0.22
481.473	0.22
481.906	0.23
482.339	0.23
482.771	0.23
483.204	0.24
483.637	0.24
484.07	0.24
484.502	0.24
484.935	0.24
485.368	0.25
485.8	0.25
486.233	0.25
486.665	0.25
487.098	0.25
487.53	0.25
487.962	0.26
488.394	0.26
488.827	0.26
489.259	0.27
489.691	0.27
490.123	0.27
490.555	0.27
490.987	0.28
491.418	0.27
491.85	0.28
492.282	0.28
492.714	0.28
493.145	0.29
493.577	0.29
494.009	0.29
494.44	0.29
494.872	0.3
495.303	0.3
495.734	0.3
496.166	0.3
496.597	0.31
497.028	0.31
497.459	0.31
497.89	0.31
498.321	0.32
498.752	0.31
499.183	0.32
499.614	0.32
500.045	0.32
500.476	0.33
500.906	0.33
501.337	0.34
501.768	0.34
502.198	0.34
502.629	0.34
503.059	0.34
503.49	0.34
503.92	0.34
504.35	0.35
504.781	0.35
505.211	0.35
505.641	0.35
506.071	0.36
506.501	0.35
506.931	0.36
507.361	0.36
507.791	0.36
508.221	0.37
508.651	0.37
509.081	0.37
509.51	0.37
509.94	0.38
510.37	0.38
510.799	0.39
511.229	0.38
511.658	0.38
512.087	0.38
512.517	0.39
512.946	0.39
513.375	0.39
513.804	0.39
514.234	0.39
514.663	0.4
515.092	0.39
515.521	0.4
515.95	0.4
516.378	0.4
516.807	0.4
517.236	0.41
517.665	0.41
518.093	0.41
518.522	0.41
518.951	0.41
519.379	0.41
519.807	0.41
520.236	0.41
520.664	0.42
521.093	0.42
521.521	0.42
521.949	0.42
522.377	0.42
522.805	0.43
523.233	0.42
523.661	0.43
524.089	0.42
524.517	0.43
524.945	0.43
525.373	0.43
525.8	0.44
526.228	0.43
526.656	0.43
527.083	0.44
527.511	0.44
527.938	0.44
528.366	0.43
528.793	0.44
529.22	0.44
529.648	0.44
530.075	0.44
530.502	0.44
530.929	0.44
531.356	0.44
531.783	0.44
532.21	0.44
532.637	0.44
533.064	0.45
533.49	0.45
533.917	0.44
534.344	0.45
534.771	0.45
535.197	0.44
535.624	0.44
536.05	0.44
536.477	0.45
536.903	0.45
537.329	0.45
537.755	0.45
538.182	0.45
538.608	0.44
539.034	0.45
539.46	0.45
539.886	0.45
540.312	0.45
540.738	0.45
541.164	0.45
541.589	0.45
542.015	0.45
542.441	0.45
542.867	0.45
543.292	0.45
543.718	0.45
544.143	0.45
544.569	0.45
544.994	0.45
545.419	0.45
545.845	0.45
546.27	0.45
546.695	0.45
547.12	0.45
547.545	0.45
547.97	0.44
548.395	0.44
548.82	0.44
549.245	0.44
549.67	0.44
550.094	0.44
550.519	0.44
550.944	0.44
551.368	0.44
551.793	0.44
552.217	0.44
552.642	0.44
553.066	0.44
553.49	0.44
553.915	0.44
554.339	0.43
554.763	0.43
555.187	0.43
555.611	0.43
556.035	0.43
556.459	0.43
556.883	0.42
557.307	0.43
557.731	0.42
558.154	0.42
558.578	0.42
559.002	0.42
559.425	0.42
559.849	0.42
560.272	0.42
560.696	0.42
561.119	0.42
561.543	0.42
561.966	0.42
562.389	0.41
562.812	0.41
563.235	0.41
563.658	0.41
564.081	0.41
564.504	0.41
564.927	0.4
565.35	0.4
565.773	0.4
566.196	0.4
566.618	0.4
567.041	0.4
567.463	0.4
567.886	0.4
568.309	0.4
568.731	0.39
569.153	0.39
569.576	0.39
569.998	0.39
570.42	0.39
570.842	0.39
571.264	0.39
571.686	0.39
572.108	0.38
572.53	0.38
572.952	0.38
573.374	0.38
573.796	0.38
574.218	0.38
574.639	0.38
575.061	0.37
575.483	0.37
575.904	0.37
576.326	0.37
576.747	0.37
577.168	0.37
577.59	0.37
578.011	0.37
578.432	0.36
578.853	0.36
579.274	0.36
579.695	0.36
580.116	0.36
580.537	0.36
580.958	0.36
581.379	0.35
581.8	0.35
582.221	0.35
582.641	0.35
583.062	0.35
583.482	0.35
583.903	0.35
584.323	0.35
584.744	0.34
585.164	0.34
585.584	0.34
586.005	0.34
586.425	0.34
586.845	0.34
587.265	0.34
587.685	0.34
588.105	0.33
588.525	0.34
588.945	0.33
589.365	0.33
589.785	0.33
590.204	0.33
590.624	0.33
591.044	0.33
591.463	0.33
591.883	0.33
592.302	0.33
592.721	0.33
593.141	0.33
593.56	0.32
593.979	0.32
594.399	0.32
594.818	0.32
595.237	0.32
595.656	0.32
596.075	0.32
596.494	0.32
596.913	0.31
597.331	0.31
597.75	0.32
598.169	0.32
598.587	0.31
599.006	0.31
599.425	0.31
599.843	0.31
600.262	0.31
600.68	0.31
601.098	0.31
601.517	0.3
601.935	0.31
602.353	0.3
602.771	0.3
603.189	0.3
603.607	0.3
604.025	0.3
604.443	0.3
604.861	0.29
605.279	0.29
605.696	0.29
606.114	0.29
606.532	0.29
606.949	0.29
607.367	0.29
607.784	0.29
608.202	0.28
608.619	0.28
609.036	0.28
609.454	0.28
609.871	0.28
610.288	0.28
610.705	0.28
611.122	0.28
611.539	0.27
611.956	0.28
612.373	0.27
612.79	0.27
613.207	0.27
613.623	0.27
614.04	0.27
614.457	0.26
614.873	0.26
615.29	0.26
615.706	0.26
616.122	0.26
616.539	0.26
616.955	0.26
617.371	0.25
617.788	0.26
618.204	0.25
618.62	0.25
619.036	0.25
619.452	0.25
619.868	0.25
620.284	0.25
620.699	0.25
621.115	0.24
621.531	0.24
621.946	0.24
622.362	0.24
622.778	0.24
623.193	0.24
623.608	0.24
624.024	0.23
624.439	0.23
624.854	0.23
625.27	0.23
625.685	0.23
626.1	0.23
626.515	0.22
626.93	0.23
627.345	0.22
627.76	0.22
628.175	0.22
628.589	0.22
629.004	0.22
629.419	0.22
629.833	0.21
630.248	0.21
630.663	0.21
631.077	0.21
631.491	0.21
631.906	0.21
632.32	0.21
632.734	0.2
633.148	0.21
633.563	0.2
633.977	0.2
634.391	0.2
634.805	0.2
635.219	0.2
635.632	0.19
636.046	0.19
636.46	0.19
636.874	0.19
637.287	0.19
637.701	0.19
638.115	0.19
638.528	0.18
638.941	0.18
639.355	0.18
639.768	0.18
640.181	0.18
640.595	0.18
641.008	0.18
641.421	0.18
641.834	0.17
642.247	0.17
642.66	0.17
643.073	0.17
643.486	0.17
643.898	0.17
644.311	0.17
644.724	0.16
645.136	0.17
645.549	0.16
645.961	0.16
646.374	0.16
646.786	0.16
647.199	0.16
647.611	0.16
648.023	0.15
648.435	0.15
648.847	0.16
649.26	0.15
649.672	0.15
650.084	0.15
650.495	0.15
650.907	0.15
651.319	0.15
651.731	0.15
652.143	0.15
652.554	0.14
652.966	0.14
653.377	0.14
653.789	0.14
654.2	0.14
654.612	0.14
655.023	0.15
655.434	0.13
655.845	0.12
656.256	0.14
656.668	0.14
657.079	0.14
657.49	0.13
657.901	0.13
658.311	0.13
658.722	0.13
659.133	0.13
659.544	0.13
659.954	0.13
660.365	0.13
660.775	0.13
661.186	0.13
661.596	0.13
662.007	0.13
662.417	0.13
662.827	0.12
663.238	0.12
663.648	0.12
664.058	0.12
664.468	0.12
664.878	0.12
665.288	0.12
665.698	0.12
666.108	0.12
666.517	0.12
666.927	0.12
667.337	0.12
667.746	0.11
668.156	0.11
668.565	0.11
668.975	0.11
669.384	0.11
669.794	0.11
670.203	0.11
670.612	0.11
671.021	0.11
671.43	0.1
671.84	0.1
672.249	0.1
672.658	0.1
673.066	0.1
673.475	0.1
673.884	0.1
674.293	0.1
674.702	0.1
675.11	0.1
675.519	0.1
675.927	0.1
676.336	0.1
676.744	0.09
677.152	0.09
677.561	0.09
677.969	0.09
678.377	0.09
678.785	0.09
679.193	0.09
679.601	0.09
680.009	0.09
680.417	0.09
680.825	0.08
681.233	0.08
681.641	0.08
682.048	0.08
682.456	0.08
682.864	0.08
683.271	0.08
683.679	0.08
684.086	0.08
684.493	0.08
684.901	0.08
685.308	0.08
685.715	0.07
686.122	0.07
686.529	0.07
686.936	0.07
687.343	0.07
687.75	0.07
688.157	0.07
688.564	0.07
688.971	0.07
689.378	0.07
689.784	0.07
690.191	0.07
690.597	0.06
691.004	0.06
691.41	0.06
691.817	0.06
692.223	0.06
692.629	0.06
693.035	0.06
693.442	0.06
693.848	0.06
694.254	0.06
694.66	0.06
695.066	0.06
695.471	0.06
695.877	0.06
696.283	0.06
696.689	0.06
697.094	0.06
697.5	0.06
697.906	0.05
698.311	0.06
698.716	0.06
699.122	0.05
699.527	0.05
699.932	0.05
700.338	0.05
700.743	0.05
701.148	0.05
701.553	0.05
701.958	0.05
702.363	0.05
702.768	0.05
703.173	0.05
703.577	0.05
703.982	0.05
704.387	0.05
704.791	0.05
705.196	0.05
705.6	0.05
706.005	0.05
706.409	0.05
706.814	0.05
707.218	0.05
707.622	0.05
708.026	0.05
708.43	0.05
708.834	0.05
709.238	0.05
709.642	0.05
710.046	0.05
710.45	0.05
710.854	0.05
711.257	0.05
711.661	0.05
712.065	0.05
712.468	0.05
712.872	0.05
713.275	0.05
713.679	0.05
714.082	0.05
714.485	0.04
714.888	0.05
715.291	0.05
715.695	0.05
716.098	0.05
716.501	0.05
716.904	0.05
717.306	0.05
717.709	0.04
718.112	0.04
718.515	0.05
718.917	0.04
719.32	0.05
719.723	0.05
720.125	0.05
720.527	0.05
720.93	0.04
721.332	0.04
721.734	0.05
722.137	0.04
722.539	0.04
722.941	0.05
723.343	0.05
723.745	0.05
724.147	0.04
724.549	0.04
724.95	0.05
725.352	0.05
725.754	0.05
726.156	0.04
726.557	0.04
726.959	0.05
727.36	0.04
727.762	0.04
728.163	0.04
728.564	0.05
728.966	0.05
729.367	0.05
729.768	0.04
730.169	0.04
730.57	0.04
730.971	0.04
731.372	0.05
731.773	0.04
732.174	0.04
732.574	0.04
732.975	0.04
733.376	0.04
733.776	0.04
734.177	0.04
734.577	0.04
734.978	0.04
735.378	0.04
735.778	0.04
736.179	0.04
736.579	0.04
736.979	0.04
737.379	0.04
737.779	0.04
738.179	0.04
738.579	0.04
738.979	0.04
739.379	0.04
739.778	0.04
740.178	0.04
740.578	0.04
740.977	0.04
741.377	0.04
741.776	0.04
742.176	0.04
742.575	0.04
742.974	0.04
743.374	0.04
743.773	0.04
744.172	0.04
744.571	0.04
744.97	0.04
745.369	0.04
745.768	0.04
746.167	0.04
746.565	0.04
746.964	0.04
747.363	0.04
747.761	0.04
748.16	0.03
748.559	0.04
748.957	0.04
749.355	0.04
749.754	0.04
750.152	0.03
750.55	0.04
750.948	0.03
751.347	0.03
751.745	0.04
752.143	0.03
752.541	0.03
752.938	0.03
753.336	0.03
753.734	0.03
754.132	0.03
754.529	0.03
754.927	0.03
755.325	0.03
755.722	0.03
756.119	0.03
756.517	0.03
756.914	0.03
757.311	0.03
757.709	0.03
758.106	0.03
758.503	0.03
758.9	0.03
759.297	0.03
759.694	0.03
760.091	0.03
760.488	0.03
760.884	0.03
761.281	0.03
761.678	0.03
762.074	0.03
762.471	0.03
762.867	0.03
763.264	0.03
763.66	0.03
764.056	0.03
764.453	0.03
764.849	0.03
765.245	0.03
765.641	0.03
766.037	0.03
766.433	0.03
766.829	0.03
767.225	0.03
767.621	0.03
768.016	0.03
768.412	0.03
768.808	0.03
769.203	0.03
769.599	0.03
769.994	0.03
770.389	0.03
770.785	0.03
771.18	0.03
771.575	0.03
771.971	0.03
772.366	0.03
772.761	0.03
773.156	0.03
773.551	0.03
773.945	0.03
774.34	0.03
774.735	0.03
775.13	0.04
775.524	0.03
775.919	0.03
776.314	0.03
776.708	0.03
777.103	0.03
777.497	0.04
777.891	0.04
778.285	0.03
778.68	0.03
779.074	0.03
779.468	0.04
779.862	0.04
780.256	0.04
780.65	0.03
781.044	0.04
781.438	0.04
781.831	0.03
782.225	0.04
782.619	0.04
783.012	0.03
783.406	0.04
783.799	0.03
784.193	0.04
784.586	0.04
784.979	0.04
785.372	0.04
785.766	0.04
786.159	0.04
786.552	0.04
786.945	0.04
787.338	0.04
787.731	0.04
788.123	0.04
788.516	0.04
788.909	0.04
789.302	0.04
789.694	0.04
790.087	0.04
790.479	0.04
790.872	0.04
791.264	0.04
791.656	0.04
792.049	0.04
792.441	0.04
792.833	0.04
793.225	0.04
793.617	0.04
794.009	0.04
794.401	0.04
794.793	0.05
795.185	0.04
795.576	0.04
795.968	0.04
796.36	0.04
796.751	0.04
797.143	0.04
797.534	0.04
797.926	0.04
798.317	0.05
798.708	0.04
799.1	0.05
799.491	0.04
799.882	0.04
800.273	0.05
800.664	0.05
801.055	0.05
801.446	0.05
801.837	0.05
802.227	0.05
802.618	0.05
803.009	0.05
803.399	0.05
803.79	0.05
804.18	0.05
804.571	0.05
804.961	0.05
805.351	0.05
805.742	0.05
806.132	0.05
806.522	0.05
806.912	0.05
807.302	0.05
807.692	0.05
808.082	0.05
808.472	0.05
808.862	0.05
809.251	0.05
809.641	0.05
810.031	0.05
810.42	0.05
810.81	0.06
811.199	0.05
811.589	0.05
811.978	0.05
812.367	0.05
812.756	0.05
813.146	0.06
813.535	0.06
813.924	0.06
814.313	0.06
814.702	0.06
815.091	0.06
815.479	0.06
815.868	0.06
816.257	0.06
816.645	0.06
817.034	0.06
817.423	0.06
817.811	0.06
818.199	0.06
818.588	0.06
818.976	0.06
819.364	0.06
819.753	0.06
820.141	0.06
820.529	0.06
820.917	0.06
821.305	0.06
821.693	0.06
822.08	0.06
822.468	0.06
822.856	0.06
823.244	0.06
823.631	0.06
824.019	0.06
824.406	0.06
824.794	0.06
825.181	0.07
825.568	0.07
825.956	0.07
826.343	0.06
826.73	0.07
827.117	0.07
827.504	0.07
827.891	0.07
828.278	0.07
828.665	0.07
829.052	0.07
829.438	0.07
829.825	0.07
830.212	0.07
830.598	0.07
830.985	0.07
831.371	0.07
831.757	0.07
832.144	0.07
832.53	0.07
832.916	0.07
833.302	0.07
833.688	0.07
834.075	0.08
834.461	0.07
834.846	0.08
835.232	0.07
835.618	0.07
836.004	0.07
836.39	0.08
836.775	0.08
837.161	0.08
837.546	0.08
837.932	0.08
838.317	0.08
838.702	0.08
839.088	0.08
839.473	0.08
839.858	0.08
840.243	0.08
840.628	0.08
841.013	0.08
841.398	0.08
841.783	0.08
842.168	0.08
842.553	0.08
842.937	0.08
843.322	0.08
843.707	0.08
844.091	0.08
844.476	0.08
844.86	0.08
845.244	0.08
845.629	0.08
846.013	0.09
846.397	0.08
846.781	0.09
847.165	0.08
847.549	0.08
847.933	0.09
848.317	0.09
848.701	0.08
849.085	0.09
849.468	0.09
849.852	0.09
850.236	0.09
850.619	0.09
851.003	0.09
851.386	0.09
851.769	0.09
852.153	0.09
852.536	0.09
852.919	0.09
853.302	0.09
853.685	0.09
854.068	0.09
854.451	0.09
854.834	0.09
855.217	0.09
855.6	0.09
855.982	0.09
856.365	0.09
856.748	0.1
857.13	0.09
857.513	0.09
857.895	0.1
858.277	0.09
858.66	0.1
859.042	0.1
859.424	0.1
859.806	0.1
860.188	0.1
860.57	0.1
860.952	0.1
861.334	0.1
861.716	0.1
862.098	0.1
862.48	0.1
862.861	0.1
863.243	0.1
863.624	0.1
864.006	0.1
864.387	0.1
864.769	0.1
865.15	0.1
865.531	0.1
865.912	0.1
866.294	0.1
866.675	0.1
867.056	0.1
867.437	0.1
867.818	0.1
868.198	0.1
868.579	0.1
868.96	0.1
869.341	0.11
869.721	0.11
870.102	0.1
870.482	0.11
870.863	0.11
871.243	0.11
871.623	0.11
872.003	0.11
872.384	0.1
872.764	0.11
873.144	0.11
873.524	0.11
873.904	0.11
874.284	0.11
874.664	0.11
875.043	0.11
875.423	0.11
875.803	0.11
876.182	0.11
876.562	0.11
876.941	0.11
877.321	0.11
877.7	0.11
878.079	0.11
878.459	0.11
878.838	0.11
879.217	0.11
879.596	0.11
879.975	0.11
880.354	0.11
880.733	0.11
881.112	0.11
881.491	0.11
881.869	0.12
882.248	0.11
882.627	0.12
883.005	0.12
883.384	0.11
883.762	0.12
884.14	0.12
884.519	0.12
884.897	0.11
885.275	0.12
885.653	0.12
886.031	0.12
886.409	0.12
886.787	0.12
887.165	0.12
887.543	0.12
887.921	0.12
888.298	0.12
888.676	0.12
889.054	0.12
889.431	0.12
889.809	0.12
890.186	0.12
890.563	0.12
890.941	0.12
891.318	0.12
891.695	0.12
892.072	0.12
892.449	0.12
892.826	0.12
893.203	0.12
893.58	0.12
893.957	0.12
894.334	0.12
894.71	0.12
895.087	0.12
895.464	0.12
895.84	0.12
896.217	0.12
896.593	0.12
896.969	0.12
897.346	0.12
897.722	0.12
898.098	0.12
898.474	0.13
898.85	0.12
899.226	0.12
899.602	0.13
899.978	0.13
900.354	0.12
900.73	0.12
901.105	0.13
901.481	0.13
901.857	0.13
902.232	0.13
902.608	0.12
902.983	0.13
903.358	0.12
903.734	0.13
904.109	0.13
904.484	0.13
904.859	0.13
905.234	0.13
905.609	0.13
905.984	0.13
906.359	0.13
906.734	0.13
907.108	0.13
907.483	0.13
907.858	0.13
908.232	0.13
908.607	0.13
908.981	0.13
909.356	0.13
909.73	0.13
910.104	0.13
910.478	0.13
910.853	0.13
911.227	0.13
911.601	0.13
911.975	0.13
912.349	0.13
912.722	0.13
913.096	0.13
913.47	0.13
913.844	0.13
914.217	0.13
914.591	0.13
914.964	0.13
915.338	0.13
915.711	0.13
916.084	0.13
916.458	0.13
916.831	0.13
917.204	0.13
917.577	0.13
917.95	0.13
918.323	0.13
918.696	0.13
919.069	0.13
919.441	0.13
919.814	0.13
920.187	0.13
920.559	0.13
920.932	0.13
921.304	0.13
921.677	0.13
922.049	0.13
922.421	0.13
922.794	0.13
923.166	0.13
923.538	0.13
923.91	0.13
924.282	0.13
924.654	0.13
925.026	0.13
925.398	0.13
925.769	0.13
926.141	0.13
926.513	0.13
926.884	0.13
927.256	0.13
927.627	0.13
927.999	0.13
928.37	0.13
928.741	0.13
929.113	0.13
929.484	0.13
929.855	0.13
930.226	0.13
930.597	0.13
930.968	0.13
931.339	0.13
931.709	0.13
932.08	0.13
932.451	0.14
932.821	0.13
933.192	0.13
933.562	0.13
933.933	0.13
934.303	0.13
934.673	0.13
935.044	0.13
935.414	0.13
935.784	0.13
936.154	0.14
936.524	0.13
936.894	0.13
937.264	0.13
937.634	0.13
938.004	0.13
938.373	0.13
938.743	0.13
939.113	0.14
939.482	0.13
939.852	0.13
940.221	0.13
940.59	0.13
940.96	0.13
941.329	0.13
941.698	0.13
942.067	0.13
942.436	0.13
942.805	0.13
943.174	0.13
943.543	0.13
943.912	0.13
944.28	0.13
944.649	0.13
945.018	0.13
945.386	0.13
945.755	0.13
946.123	0.13
946.492	0.13
946.86	0.14
947.228	0.14
947.596	0.13
947.965	0.13
948.333	0.13
948.701	0.13
949.069	0.13
949.437	0.14
949.804	0.13
950.172	0.13
950.54	0.14
950.908	0.13
951.275	0.13
951.643	0.13
952.01	0.13
952.378	0.13
952.745	0.13
953.112	0.13
953.479	0.13
953.847	0.13
954.214	0.13
954.581	0.13
954.948	0.13
955.315	0.13
955.682	0.13
956.048	0.13
956.415	0.13
956.782	0.13
957.148	0.13
957.515	0.13
957.881	0.13
958.248	0.13
958.614	0.13
958.981	0.13
959.347	0.13
959.713	0.13
960.079	0.13
960.445	0.13
960.811	0.13
961.177	0.13
961.543	0.13
961.909	0.13
962.275	0.13
962.641	0.13
963.006	0.13
963.372	0.13
963.737	0.13
964.103	0.13
964.468	0.13
964.834	0.13
965.199	0.13
965.564	0.13
965.929	0.13
966.294	0.13
966.659	0.13
967.024	0.13
967.389	0.12
967.754	0.13
968.119	0.12
968.484	0.13
968.848	0.13
969.213	0.13
969.578	0.12
969.942	0.13
970.307	0.12
970.671	0.13
971.035	0.13
971.399	0.13
971.764	0.13
972.128	0.12
972.492	0.13
972.856	0.13
973.22	0.13
973.584	0.13
973.948	0.13
974.311	0.12
974.675	0.13
975.039	0.12
975.402	0.13
975.766	0.13
976.129	0.13
976.493	0.13
976.856	0.13
977.219	0.12
977.582	0.13
977.946	0.13
978.309	0.12
978.672	0.13
979.035	0.13
979.398	0.12
979.761	0.12
980.123	0.12
980.486	0.13
980.849	0.12
981.211	0.13
981.574	0.13
981.936	0.12
982.299	0.12
982.661	0.12
983.023	0.12
983.386	0.13
983.748	0.12
984.11	0.12
984.472	0.13
984.834	0.12
985.196	0.12
985.558	0.12
985.92	0.13
986.281	0.13
986.643	0.12
987.005	0.12
987.366	0.12
987.728	0.12
988.089	0.13
988.451	0.12
988.812	0.12
989.173	0.12
989.534	0.12
989.895	0.12
990.257	0.12
990.618	0.12
990.979	0.12
991.339	0.12
991.7	0.12
992.061	0.12
992.422	0.12
992.782	0.12
993.143	0.12
993.503	0.12
993.864	0.12
994.224	0.12
994.585	0.11
994.945	0.11
995.305	0.12
995.665	0.12
996.025	0.12
996.385	0.12
996.745	0.11
997.105	0.12
997.465	0.11
997.825	0.12
998.185	0.11
998.544	0.12
998.904	0.11
999.263	0.12
999.623	0.12
999.982	0.12
1000.342	0.11
1000.701	0.12
1001.06	0.12
1001.419	0.12
1001.778	0.12
1002.138	0.12
1002.497	0.12
1002.855	0.12
1003.214	0.12
1003.573	0.12
1003.932	0.12
1004.29	0.11
1004.649	0.12
1005.008	0.12
1005.366	0.11
1005.725	0.11
1006.083	0.11
1006.441	0.11
1006.799	0.11
1007.158	0.12
1007.516	0.11
1007.874	0.12
1008.232	0.11
1008.59	0.11
1008.948	0.11
1009.305	0.12
1009.663	0.11
1010.021	0.11
1010.379	0.11
1010.736	0.11
1011.094	0.11
1011.451	0.11
1011.808	0.11
1012.166	0.11
1012.523	0.11
1012.88	0.11
1013.237	0.11
1013.594	0.1
1013.951	0.11
1014.308	0.11
1014.665	0.11
1015.022	0.12
1015.379	0.1
1015.735	0.11
1016.092	0.1
1016.449	0.11
1016.805	0.11
1017.162	0.11
1017.518	0.11
1017.874	0.11
1018.231	0.11
1018.587	0.11
1018.943	0.11
1019.299	0.11
1019.655	0.11
1020.011	0.11
1020.367	0.11
1020.723	0.11
1021.078	0.11
1021.434	0.11
1021.79	0.11
1022.145	0.11
1022.501	0.11
1022.856	0.11
1023.212	0.11
1023.567	0.11
1023.922	0.1
1024.278	0.11
1024.633	0.11
1024.988	0.1
1025.343	0.1
1025.698	0.11
1026.053	0.1
1026.408	0.1
1026.762	0.11
1027.117	0.1
1027.472	0.1
1027.826	0.1
1028.181	0.1
1028.535	0.11
1028.89	0.11
1029.244	0.11
1029.598	0.11
1029.952	0.1
1030.307	0.11
1030.661	0.1
1031.015	0.1
1031.369	0.1
1031.723	0.1
1032.076	0.1
