Data from Rubpy_BV_EDTA_TU(3000)_Blank_Blue_Flow_Absorbance__1213__13-06-55-865.txt Node

Date: Mon Aug 03 13:06:55 BST 2026
User: fpm-admin
Spectrometer: SR600986
Trigger mode: 0
Integration Time (sec): 8.000000E-3
Scans to average: 3
Nonlinearity correction enabled: true
Boxcar width: 0
Storing dark spectrum: false
XAxis mode: Wavelengths
Number of Pixels in Spectrum: 2048
>>>>>Begin Spectral Data<<<<<
188.613	0.22
189.078	0.25
189.542	0.24
190.007	0.26
190.472	0.25
190.936	0.22
191.401	0.23
191.865	0.25
192.33	0.24
192.794	0.24
193.258	0.24
193.723	0.24
194.187	0.25
194.651	0.24
195.115	0.25
195.579	0.25
196.043	0.21
196.507	0.23
196.971	0.25
197.435	0.22
197.899	0.25
198.363	0.26
198.827	0.24
199.29	0.22
199.754	0.23
200.218	0.26
200.681	0.23
201.145	0.23
201.608	0.22
202.072	0.22
202.535	0.23
202.998	0.24
203.462	0.25
203.925	0.24
204.388	0.24
204.851	0.24
205.314	0.24
205.777	0.23
206.24	0.24
206.703	0.26
207.166	0.23
207.629	0.22
208.092	0.22
208.555	0.24
209.018	0.24
209.48	0.22
209.943	0.25
210.406	0.23
210.868	0.25
211.331	0.23
211.793	0.24
212.256	0.24
212.718	0.25
213.18	0.24
213.643	0.24
214.105	0.21
214.567	0.22
215.029	0.24
215.491	0.24
215.953	0.24
216.415	0.22
216.877	0.24
217.339	0.24
217.801	0.22
218.263	0.24
218.725	0.27
219.186	0.24
219.648	0.23
220.11	0.22
220.571	0.24
221.033	0.25
221.494	0.26
221.956	0.24
222.417	0.25
222.878	0.22
223.34	0.23
223.801	0.22
224.262	0.24
224.723	0.23
225.185	0.22
225.646	0.2
226.107	0.23
226.568	0.22
227.029	0.23
227.489	0.24
227.95	0.24
228.411	0.23
228.872	0.24
229.332	0.22
229.793	0.23
230.254	0.23
230.714	0.23
231.175	0.25
231.635	0.24
232.096	0.23
232.556	0.24
233.016	0.22
233.477	0.22
233.937	0.23
234.397	0.22
234.857	0.24
235.317	0.24
235.777	0.24
236.237	0.23
236.697	0.24
237.157	0.25
237.617	0.23
238.077	0.25
238.537	0.24
238.996	0.24
239.456	0.24
239.916	0.23
240.375	0.24
240.835	0.24
241.294	0.26
241.754	0.22
242.213	0.23
242.672	0.23
243.132	0.24
243.591	0.26
244.05	0.23
244.509	0.24
244.968	0.23
245.427	0.24
245.886	0.23
246.345	0.25
246.804	0.24
247.263	0.23
247.722	0.24
248.181	0.23
248.639	0.23
249.098	0.22
249.557	0.24
250.015	0.21
250.474	0.24
250.932	0.26
251.391	0.23
251.849	0.25
252.308	0.25
252.766	0.23
253.224	0.25
253.682	0.25
254.14	0.24
254.599	0.24
255.057	0.26
255.515	0.24
255.973	0.23
256.431	0.25
256.888	0.24
257.346	0.24
257.804	0.24
258.262	0.24
258.719	0.23
259.177	0.23
259.635	0.24
260.092	0.23
260.55	0.24
261.007	0.23
261.465	0.23
261.922	0.25
262.379	0.21
262.836	0.24
263.294	0.24
263.751	0.25
264.208	0.25
264.665	0.22
265.122	0.25
265.579	0.25
266.036	0.25
266.493	0.21
266.95	0.26
267.406	0.26
267.863	0.23
268.32	0.26
268.777	0.23
269.233	0.23
269.69	0.23
270.146	0.24
270.603	0.25
271.059	0.25
271.515	0.24
271.972	0.24
272.428	0.22
272.884	0.25
273.34	0.24
273.796	0.24
274.253	0.21
274.709	0.22
275.165	0.23
275.62	0.23
276.076	0.23
276.532	0.26
276.988	0.23
277.444	0.22
277.899	0.2
278.355	0.23
278.811	0.24
279.266	0.25
279.722	0.23
280.177	0.25
280.633	0.24
281.088	0.24
281.543	0.24
281.998	0.22
282.454	0.25
282.909	0.23
283.364	0.23
283.819	0.25
284.274	0.22
284.729	0.23
285.184	0.23
285.639	0.21
286.094	0.27
286.548	0.25
287.003	0.24
287.458	0.24
287.913	0.25
288.367	0.26
288.822	0.22
289.276	0.24
289.731	0.22
290.185	0.24
290.639	0.25
291.094	0.23
291.548	0.25
292.002	0.25
292.456	0.25
292.91	0.24
293.365	0.22
293.819	0.26
294.273	0.22
294.726	0.23
295.18	0.22
295.634	0.26
296.088	0.25
296.542	0.25
296.995	0.22
297.449	0.24
297.903	0.24
298.356	0.23
298.81	0.23
299.263	0.24
299.716	0.26
300.17	0.25
300.623	0.21
301.076	0.27
301.53	0.26
301.983	0.25
302.436	0.23
302.889	0.24
303.342	0.24
303.795	0.23
304.248	0.24
304.701	0.24
305.153	0.25
305.606	0.25
306.059	0.26
306.512	0.24
306.964	0.23
307.417	0.25
307.869	0.23
308.322	0.25
308.774	0.24
309.227	0.26
309.679	0.24
310.131	0.25
310.584	0.25
311.036	0.22
311.488	0.25
311.94	0.27
312.392	0.23
312.844	0.26
313.296	0.26
313.748	0.28
314.2	0.23
314.652	0.26
315.103	0.25
315.555	0.28
316.007	0.26
316.458	0.25
316.91	0.29
317.361	0.29
317.813	0.28
318.264	0.28
318.716	0.29
319.167	0.29
319.618	0.3
320.07	0.29
320.521	0.29
320.972	0.3
321.423	0.32
321.874	0.31
322.325	0.3
322.776	0.33
323.227	0.32
323.678	0.34
324.128	0.33
324.579	0.34
325.03	0.36
325.48	0.38
325.931	0.37
326.382	0.39
326.832	0.41
327.283	0.4
327.733	0.43
328.183	0.43
328.634	0.46
329.084	0.48
329.534	0.49
329.984	0.51
330.434	0.51
330.884	0.52
331.334	0.54
331.784	0.56
332.234	0.57
332.684	0.6
333.134	0.59
333.584	0.62
334.034	0.63
334.483	0.65
334.933	0.67
335.382	0.68
335.832	0.7
336.281	0.7
336.731	0.73
337.18	0.74
337.63	0.76
338.079	0.77
338.528	0.77
338.977	0.8
339.426	0.82
339.876	0.84
340.325	0.87
340.774	0.86
341.223	0.89
341.671	0.91
342.12	0.92
342.569	0.93
343.018	0.96
343.467	0.96
343.915	0.97
344.364	0.99
344.812	1.01
345.261	1.01
345.709	1.02
346.158	1.05
346.606	1.05
347.054	1.08
347.503	1.07
347.951	1.08
348.399	1.11
348.847	1.12
349.295	1.12
349.743	1.11
350.191	1.14
350.639	1.13
351.087	1.15
351.535	1.17
351.983	1.18
352.43	1.18
352.878	1.2
353.326	1.21
353.773	1.21
354.221	1.22
354.668	1.25
355.116	1.26
355.563	1.26
356.01	1.27
356.458	1.29
356.905	1.31
357.352	1.31
357.799	1.34
358.246	1.34
358.693	1.34
359.14	1.38
359.587	1.36
360.034	1.39
360.481	1.4
360.928	1.41
361.375	1.44
361.821	1.44
362.268	1.45
362.714	1.45
363.161	1.47
363.608	1.49
364.054	1.49
364.5	1.51
364.947	1.51
365.393	1.52
365.839	1.5
366.285	1.52
366.732	1.53
367.178	1.52
367.624	1.54
368.07	1.56
368.516	1.56
368.962	1.54
369.408	1.54
369.853	1.57
370.299	1.55
370.745	1.53
371.19	1.52
371.636	1.55
372.082	1.54
372.527	1.53
372.973	1.54
373.418	1.53
373.863	1.53
374.309	1.52
374.754	1.52
375.199	1.51
375.644	1.52
376.09	1.49
376.535	1.5
376.98	1.45
377.425	1.48
377.87	1.46
378.314	1.44
378.759	1.43
379.204	1.41
379.649	1.39
380.093	1.37
380.538	1.36
380.983	1.34
381.427	1.3
381.872	1.28
382.316	1.25
382.76	1.23
383.205	1.2
383.649	1.18
384.093	1.16
384.537	1.14
384.982	1.11
385.426	1.08
385.87	1.07
386.314	1.05
386.758	1.02
387.201	0.99
387.645	0.98
388.089	0.96
388.533	0.94
388.976	0.91
389.42	0.9
389.864	0.88
390.307	0.85
390.751	0.84
391.194	0.82
391.638	0.8
392.081	0.78
392.524	0.77
392.967	0.75
393.411	0.73
393.854	0.74
394.297	0.72
394.74	0.71
395.183	0.71
395.626	0.7
396.069	0.7
396.512	0.71
396.954	0.7
397.397	0.69
397.84	0.7
398.282	0.7
398.725	0.7
399.168	0.68
399.61	0.68
400.052	0.68
400.495	0.67
400.937	0.66
401.38	0.65
401.822	0.63
402.264	0.63
402.706	0.61
403.148	0.59
403.59	0.58
404.032	0.57
404.474	0.55
404.916	0.52
405.358	0.5
405.8	0.49
406.241	0.47
406.683	0.45
407.125	0.42
407.566	0.41
408.008	0.4
408.449	0.39
408.891	0.37
409.332	0.36
409.774	0.34
410.215	0.32
410.656	0.32
411.097	0.31
411.539	0.3
411.98	0.29
412.421	0.28
412.862	0.27
413.303	0.26
413.744	0.26
414.184	0.24
414.625	0.25
415.066	0.24
415.507	0.23
415.947	0.23
416.388	0.23
416.828	0.22
417.269	0.22
417.709	0.21
418.15	0.22
418.59	0.2
419.03	0.21
419.471	0.2
419.911	0.19
420.351	0.19
420.791	0.2
421.231	0.19
421.671	0.19
422.111	0.19
422.551	0.18
422.991	0.2
423.431	0.18
423.87	0.18
424.31	0.19
424.75	0.2
425.189	0.2
425.629	0.18
426.068	0.2
426.508	0.19
426.947	0.19
427.386	0.2
427.826	0.2
428.265	0.2
428.704	0.19
429.143	0.18
429.582	0.18
430.021	0.2
430.46	0.2
430.899	0.19
431.338	0.19
431.777	0.18
432.216	0.18
432.655	0.19
433.093	0.18
433.532	0.2
433.971	0.18
434.409	0.19
434.848	0.2
435.286	0.2
435.724	0.2
436.163	0.18
436.601	0.2
437.039	0.2
437.477	0.2
437.916	0.2
438.354	0.22
438.792	0.19
439.23	0.21
439.668	0.2
440.105	0.21
440.543	0.21
440.981	0.22
441.419	0.2
441.856	0.21
442.294	0.21
442.732	0.21
443.169	0.21
443.607	0.22
444.044	0.21
444.481	0.23
444.919	0.21
445.356	0.21
445.793	0.23
446.23	0.23
446.668	0.24
447.105	0.23
447.542	0.23
447.979	0.24
448.416	0.22
448.852	0.25
449.289	0.22
449.726	0.23
450.163	0.23
450.599	0.24
451.036	0.25
451.473	0.25
451.909	0.24
452.346	0.23
452.782	0.25
453.218	0.25
453.655	0.24
454.091	0.21
454.527	0.24
454.963	0.25
455.399	0.24
455.835	0.26
456.271	0.25
456.707	0.24
457.143	0.25
457.579	0.24
458.015	0.23
458.451	0.26
458.886	0.27
459.322	0.25
459.758	0.25
460.193	0.29
460.629	0.25
461.064	0.26
461.5	0.28
461.935	0.28
462.37	0.28
462.805	0.28
463.241	0.28
463.676	0.28
464.111	0.29
464.546	0.3
464.981	0.3
465.416	0.29
465.851	0.3
466.286	0.3
466.72	0.31
467.155	0.31
467.59	0.32
468.024	0.33
468.459	0.3
468.893	0.32
469.328	0.33
469.762	0.33
470.197	0.36
470.631	0.35
471.065	0.35
471.5	0.35
471.934	0.36
472.368	0.37
472.802	0.39
473.236	0.39
473.67	0.4
474.104	0.39
474.538	0.41
474.972	0.41
475.405	0.42
475.839	0.42
476.273	0.43
476.706	0.43
477.14	0.45
477.573	0.44
478.007	0.46
478.44	0.45
478.874	0.45
479.307	0.48
479.74	0.47
480.173	0.49
480.606	0.49
481.04	0.49
481.473	0.5
481.906	0.51
482.339	0.52
482.771	0.52
483.204	0.52
483.637	0.53
484.07	0.54
484.502	0.54
484.935	0.55
485.368	0.56
485.8	0.56
486.233	0.57
486.665	0.57
487.098	0.58
487.53	0.58
487.962	0.58
488.394	0.58
488.827	0.59
489.259	0.61
489.691	0.61
490.123	0.61
490.555	0.62
490.987	0.63
491.418	0.63
491.85	0.64
492.282	0.64
492.714	0.65
493.145	0.65
493.577	0.66
494.009	0.66
494.44	0.66
494.872	0.68
495.303	0.68
495.734	0.69
496.166	0.69
496.597	0.7
497.028	0.7
497.459	0.7
497.89	0.71
498.321	0.72
498.752	0.71
499.183	0.73
499.614	0.73
500.045	0.73
500.476	0.75
500.906	0.75
501.337	0.75
501.768	0.75
502.198	0.77
502.629	0.77
503.059	0.78
503.49	0.78
503.92	0.78
504.35	0.79
504.781	0.79
505.211	0.79
505.641	0.8
506.071	0.81
506.501	0.81
506.931	0.82
507.361	0.82
507.791	0.82
508.221	0.83
508.651	0.83
509.081	0.84
509.51	0.85
509.94	0.84
510.37	0.85
510.799	0.86
511.229	0.86
511.658	0.86
512.087	0.87
512.517	0.87
512.946	0.87
513.375	0.87
513.804	0.88
514.234	0.89
514.663	0.88
515.092	0.89
515.521	0.89
515.95	0.89
516.378	0.9
516.807	0.91
517.236	0.91
517.665	0.91
518.093	0.91
518.522	0.92
518.951	0.92
519.379	0.92
519.807	0.93
520.236	0.92
520.664	0.93
521.093	0.93
521.521	0.94
521.949	0.94
522.377	0.94
522.805	0.95
523.233	0.94
523.661	0.94
524.089	0.96
524.517	0.95
524.945	0.96
525.373	0.95
525.8	0.97
526.228	0.96
526.656	0.96
527.083	0.96
527.511	0.97
527.938	0.97
528.366	0.97
528.793	0.97
529.22	0.97
529.648	0.97
530.075	0.97
530.502	0.98
530.929	0.97
531.356	0.98
531.783	0.98
532.21	0.98
532.637	0.98
533.064	0.98
533.49	0.98
533.917	0.99
534.344	0.99
534.771	0.99
535.197	0.98
535.624	0.99
536.05	0.99
536.477	0.99
536.903	0.99
537.329	0.99
537.755	1
538.182	0.99
538.608	0.99
539.034	0.99
539.46	0.99
539.886	0.99
540.312	1
540.738	0.99
541.164	0.99
541.589	0.99
542.015	0.99
542.441	0.99
542.867	0.99
543.292	0.99
543.718	0.99
544.143	0.98
544.569	0.98
544.994	0.99
545.419	0.98
545.845	0.98
546.27	0.99
546.695	0.98
547.12	0.99
547.545	0.98
547.97	0.98
548.395	0.99
548.82	0.97
549.245	0.97
549.67	0.97
550.094	0.98
550.519	0.97
550.944	0.97
551.368	0.97
551.793	0.96
552.217	0.97
552.642	0.96
553.066	0.97
553.49	0.96
553.915	0.96
554.339	0.96
554.763	0.95
555.187	0.96
555.611	0.96
556.035	0.95
556.459	0.95
556.883	0.94
557.307	0.94
557.731	0.94
558.154	0.93
558.578	0.94
559.002	0.93
559.425	0.93
559.849	0.93
560.272	0.93
560.696	0.93
561.119	0.92
561.543	0.92
561.966	0.92
562.389	0.91
562.812	0.91
563.235	0.9
563.658	0.9
564.081	0.9
564.504	0.9
564.927	0.89
565.35	0.89
565.773	0.88
566.196	0.89
566.618	0.88
567.041	0.88
567.463	0.88
567.886	0.88
568.309	0.87
568.731	0.87
569.153	0.87
569.576	0.86
569.998	0.86
570.42	0.85
570.842	0.86
571.264	0.85
571.686	0.85
572.108	0.85
572.53	0.84
572.952	0.83
573.374	0.83
573.796	0.83
574.218	0.83
574.639	0.82
575.061	0.82
575.483	0.82
575.904	0.82
576.326	0.81
576.747	0.81
577.168	0.8
577.59	0.8
578.011	0.8
578.432	0.79
578.853	0.79
579.274	0.79
579.695	0.79
580.116	0.78
580.537	0.78
580.958	0.78
581.379	0.77
581.8	0.77
582.221	0.77
582.641	0.77
583.062	0.76
583.482	0.76
583.903	0.76
584.323	0.75
584.744	0.75
585.164	0.75
585.584	0.75
586.005	0.75
586.425	0.74
586.845	0.74
587.265	0.73
587.685	0.73
588.105	0.72
588.525	0.73
588.945	0.73
589.365	0.72
589.785	0.72
590.204	0.72
590.624	0.71
591.044	0.71
591.463	0.71
591.883	0.71
592.302	0.71
592.721	0.7
593.141	0.7
593.56	0.69
593.979	0.69
594.399	0.69
594.818	0.69
595.237	0.68
595.656	0.68
596.075	0.68
596.494	0.68
596.913	0.68
597.331	0.67
597.75	0.67
598.169	0.67
598.587	0.67
599.006	0.66
599.425	0.66
599.843	0.66
600.262	0.65
600.68	0.65
601.098	0.64
601.517	0.65
601.935	0.64
602.353	0.64
602.771	0.64
603.189	0.63
603.607	0.63
604.025	0.63
604.443	0.63
604.861	0.62
605.279	0.62
605.696	0.62
606.114	0.61
606.532	0.61
606.949	0.61
607.367	0.61
607.784	0.61
608.202	0.6
608.619	0.6
609.036	0.59
609.454	0.59
609.871	0.59
610.288	0.59
610.705	0.58
611.122	0.58
611.539	0.58
611.956	0.57
612.373	0.57
612.79	0.57
613.207	0.57
613.623	0.56
614.04	0.56
614.457	0.56
614.873	0.55
615.29	0.55
615.706	0.55
616.122	0.54
616.539	0.55
616.955	0.54
617.371	0.53
617.788	0.54
618.204	0.53
618.62	0.53
619.036	0.52
619.452	0.52
619.868	0.52
620.284	0.52
620.699	0.51
621.115	0.51
621.531	0.51
621.946	0.5
622.362	0.5
622.778	0.5
623.193	0.5
623.608	0.49
624.024	0.49
624.439	0.48
624.854	0.48
625.27	0.48
625.685	0.48
626.1	0.47
626.515	0.47
626.93	0.47
627.345	0.47
627.76	0.46
628.175	0.46
628.589	0.46
629.004	0.45
629.419	0.45
629.833	0.45
630.248	0.45
630.663	0.44
631.077	0.44
631.491	0.43
631.906	0.43
632.32	0.43
632.734	0.43
633.148	0.42
633.563	0.42
633.977	0.41
634.391	0.41
634.805	0.41
635.219	0.41
635.632	0.41
636.046	0.4
636.46	0.4
636.874	0.39
637.287	0.39
637.701	0.39
638.115	0.38
638.528	0.38
638.941	0.38
639.355	0.38
639.768	0.37
640.181	0.37
640.595	0.37
641.008	0.37
641.421	0.37
641.834	0.36
642.247	0.36
642.66	0.36
643.073	0.35
643.486	0.35
643.898	0.35
644.311	0.34
644.724	0.34
645.136	0.34
645.549	0.34
645.961	0.33
646.374	0.33
646.786	0.33
647.199	0.33
647.611	0.32
648.023	0.32
648.435	0.32
648.847	0.32
649.26	0.31
649.672	0.31
650.084	0.31
650.495	0.31
650.907	0.31
651.319	0.3
651.731	0.3
652.143	0.3
652.554	0.3
652.966	0.3
653.377	0.3
653.789	0.29
654.2	0.29
654.612	0.29
655.023	0.29
655.434	0.27
655.845	0.26
656.256	0.28
656.668	0.28
657.079	0.28
657.49	0.27
657.901	0.27
658.311	0.27
658.722	0.27
659.133	0.27
659.544	0.27
659.954	0.27
660.365	0.26
660.775	0.26
661.186	0.26
661.596	0.26
662.007	0.26
662.417	0.25
662.827	0.25
663.238	0.25
663.648	0.25
664.058	0.25
664.468	0.25
664.878	0.24
665.288	0.24
665.698	0.24
666.108	0.24
666.517	0.24
666.927	0.24
667.337	0.23
667.746	0.23
668.156	0.23
668.565	0.23
668.975	0.23
669.384	0.22
669.794	0.22
670.203	0.22
670.612	0.22
671.021	0.22
671.43	0.21
671.84	0.21
672.249	0.21
672.658	0.21
673.066	0.21
673.475	0.2
673.884	0.2
674.293	0.2
674.702	0.2
675.11	0.2
675.519	0.2
675.927	0.19
676.336	0.19
676.744	0.19
677.152	0.19
677.561	0.18
677.969	0.18
678.377	0.18
678.785	0.18
679.193	0.18
679.601	0.18
680.009	0.17
680.417	0.17
680.825	0.17
681.233	0.17
681.641	0.17
682.048	0.17
682.456	0.16
682.864	0.16
683.271	0.16
683.679	0.16
684.086	0.15
684.493	0.15
684.901	0.15
685.308	0.15
685.715	0.15
686.122	0.15
686.529	0.15
686.936	0.15
687.343	0.14
687.75	0.14
688.157	0.14
688.564	0.14
688.971	0.14
689.378	0.14
689.784	0.14
690.191	0.13
690.597	0.13
691.004	0.13
691.41	0.13
691.817	0.13
692.223	0.13
692.629	0.13
693.035	0.12
693.442	0.13
693.848	0.12
694.254	0.12
694.66	0.12
695.066	0.12
695.471	0.12
695.877	0.12
696.283	0.11
696.689	0.12
697.094	0.11
697.5	0.11
697.906	0.11
698.311	0.11
698.716	0.11
699.122	0.11
699.527	0.11
699.932	0.11
700.338	0.11
700.743	0.1
701.148	0.1
701.553	0.1
701.958	0.1
702.363	0.1
702.768	0.1
703.173	0.1
703.577	0.1
703.982	0.1
704.387	0.1
704.791	0.1
705.196	0.1
705.6	0.1
706.005	0.1
706.409	0.1
706.814	0.1
707.218	0.09
707.622	0.09
708.026	0.09
708.43	0.1
708.834	0.1
709.238	0.09
709.642	0.1
710.046	0.1
710.45	0.09
710.854	0.09
711.257	0.09
711.661	0.09
712.065	0.09
712.468	0.09
712.872	0.09
713.275	0.09
713.679	0.09
714.082	0.09
714.485	0.09
714.888	0.09
715.291	0.09
715.695	0.09
716.098	0.09
716.501	0.09
716.904	0.09
717.306	0.09
717.709	0.09
718.112	0.09
718.515	0.09
718.917	0.09
719.32	0.09
719.723	0.09
720.125	0.09
720.527	0.09
720.93	0.09
721.332	0.09
721.734	0.09
722.137	0.09
722.539	0.09
722.941	0.09
723.343	0.09
723.745	0.09
724.147	0.09
724.549	0.09
724.95	0.09
725.352	0.09
725.754	0.09
726.156	0.09
726.557	0.09
726.959	0.09
727.36	0.09
727.762	0.09
728.163	0.09
728.564	0.09
728.966	0.09
729.367	0.09
729.768	0.09
730.169	0.09
730.57	0.09
730.971	0.09
731.372	0.09
731.773	0.09
732.174	0.09
732.574	0.08
732.975	0.09
733.376	0.08
733.776	0.09
734.177	0.09
734.577	0.09
734.978	0.08
735.378	0.09
735.778	0.09
736.179	0.08
736.579	0.08
736.979	0.08
737.379	0.08
737.779	0.08
738.179	0.08
738.579	0.08
738.979	0.08
739.379	0.08
739.778	0.08
740.178	0.08
740.578	0.08
740.977	0.08
741.377	0.08
741.776	0.08
742.176	0.08
742.575	0.08
742.974	0.08
743.374	0.08
743.773	0.08
744.172	0.08
744.571	0.08
744.97	0.08
745.369	0.08
745.768	0.08
746.167	0.08
746.565	0.08
746.964	0.07
747.363	0.07
747.761	0.07
748.16	0.07
748.559	0.07
748.957	0.07
749.355	0.07
749.754	0.07
750.152	0.07
750.55	0.07
750.948	0.07
751.347	0.07
751.745	0.07
752.143	0.07
752.541	0.07
752.938	0.07
753.336	0.07
753.734	0.07
754.132	0.07
754.529	0.07
754.927	0.07
755.325	0.07
755.722	0.07
756.119	0.07
756.517	0.07
756.914	0.07
757.311	0.07
757.709	0.07
758.106	0.07
758.503	0.07
758.9	0.07
759.297	0.07
759.694	0.07
760.091	0.07
760.488	0.07
760.884	0.07
761.281	0.07
761.678	0.07
762.074	0.07
762.471	0.07
762.867	0.07
763.264	0.07
763.66	0.07
764.056	0.07
764.453	0.07
764.849	0.07
765.245	0.07
765.641	0.07
766.037	0.07
766.433	0.07
766.829	0.07
767.225	0.07
767.621	0.07
768.016	0.07
768.412	0.07
768.808	0.07
769.203	0.07
769.599	0.07
769.994	0.07
770.389	0.07
770.785	0.07
771.18	0.07
771.575	0.07
771.971	0.07
772.366	0.07
772.761	0.07
773.156	0.07
773.551	0.07
773.945	0.07
774.34	0.07
774.735	0.07
775.13	0.08
775.524	0.07
775.919	0.07
776.314	0.07
776.708	0.08
777.103	0.07
777.497	0.08
777.891	0.08
778.285	0.08
778.68	0.08
779.074	0.08
779.468	0.08
779.862	0.08
780.256	0.08
780.65	0.08
781.044	0.08
781.438	0.08
781.831	0.08
782.225	0.08
782.619	0.08
783.012	0.08
783.406	0.08
783.799	0.08
784.193	0.08
784.586	0.08
784.979	0.09
785.372	0.08
785.766	0.09
786.159	0.09
786.552	0.08
786.945	0.08
787.338	0.09
787.731	0.09
788.123	0.09
788.516	0.09
788.909	0.09
789.302	0.09
789.694	0.09
790.087	0.09
790.479	0.09
790.872	0.09
791.264	0.09
791.656	0.09
792.049	0.09
792.441	0.09
792.833	0.09
793.225	0.09
793.617	0.09
794.009	0.09
794.401	0.09
794.793	0.09
795.185	0.09
795.576	0.1
795.968	0.09
796.36	0.1
796.751	0.1
797.143	0.1
797.534	0.1
797.926	0.1
798.317	0.1
798.708	0.1
799.1	0.1
799.491	0.1
799.882	0.1
800.273	0.1
800.664	0.1
801.055	0.1
801.446	0.11
801.837	0.1
802.227	0.11
802.618	0.11
803.009	0.11
803.399	0.11
803.79	0.11
804.18	0.11
804.571	0.11
804.961	0.11
805.351	0.11
805.742	0.11
806.132	0.11
806.522	0.11
806.912	0.11
807.302	0.11
807.692	0.12
808.082	0.12
808.472	0.11
808.862	0.12
809.251	0.12
809.641	0.12
810.031	0.12
810.42	0.12
810.81	0.12
811.199	0.12
811.589	0.12
811.978	0.12
812.367	0.12
812.756	0.12
813.146	0.12
813.535	0.13
813.924	0.13
814.313	0.13
814.702	0.13
815.091	0.13
815.479	0.13
815.868	0.13
816.257	0.13
816.645	0.13
817.034	0.13
817.423	0.13
817.811	0.13
818.199	0.13
818.588	0.13
818.976	0.13
819.364	0.14
819.753	0.14
820.141	0.14
820.529	0.14
820.917	0.14
821.305	0.14
821.693	0.14
822.08	0.14
822.468	0.14
822.856	0.14
823.244	0.14
823.631	0.14
824.019	0.15
824.406	0.14
824.794	0.14
825.181	0.15
825.568	0.15
825.956	0.15
826.343	0.15
826.73	0.15
827.117	0.15
827.504	0.15
827.891	0.15
828.278	0.15
828.665	0.15
829.052	0.15
829.438	0.16
829.825	0.16
830.212	0.16
830.598	0.16
830.985	0.16
831.371	0.16
831.757	0.16
832.144	0.16
832.53	0.16
832.916	0.16
833.302	0.16
833.688	0.17
834.075	0.17
834.461	0.16
834.846	0.16
835.232	0.17
835.618	0.17
836.004	0.17
836.39	0.17
836.775	0.17
837.161	0.17
837.546	0.17
837.932	0.17
838.317	0.17
838.702	0.17
839.088	0.17
839.473	0.18
839.858	0.18
840.243	0.18
840.628	0.18
841.013	0.18
841.398	0.18
841.783	0.18
842.168	0.18
842.553	0.18
842.937	0.18
843.322	0.18
843.707	0.18
844.091	0.18
844.476	0.18
844.86	0.19
845.244	0.18
845.629	0.19
846.013	0.19
846.397	0.19
846.781	0.19
847.165	0.19
847.549	0.19
847.933	0.19
848.317	0.19
848.701	0.19
849.085	0.19
849.468	0.2
849.852	0.2
850.236	0.2
850.619	0.2
851.003	0.2
851.386	0.2
851.769	0.2
852.153	0.2
852.536	0.2
852.919	0.2
853.302	0.2
853.685	0.2
854.068	0.21
854.451	0.21
854.834	0.21
855.217	0.21
855.6	0.21
855.982	0.21
856.365	0.21
856.748	0.21
857.13	0.21
857.513	0.21
857.895	0.21
858.277	0.21
858.66	0.21
859.042	0.21
859.424	0.22
859.806	0.22
860.188	0.22
860.57	0.22
860.952	0.22
861.334	0.22
861.716	0.22
862.098	0.22
862.48	0.22
862.861	0.22
863.243	0.22
863.624	0.22
864.006	0.22
864.387	0.22
864.769	0.23
865.15	0.23
865.531	0.23
865.912	0.23
866.294	0.23
866.675	0.23
867.056	0.23
867.437	0.23
867.818	0.23
868.198	0.23
868.579	0.23
868.96	0.24
869.341	0.23
869.721	0.24
870.102	0.24
870.482	0.24
870.863	0.24
871.243	0.24
871.623	0.24
872.003	0.24
872.384	0.24
872.764	0.24
873.144	0.24
873.524	0.24
873.904	0.24
874.284	0.24
874.664	0.24
875.043	0.24
875.423	0.25
875.803	0.24
876.182	0.24
876.562	0.25
876.941	0.25
877.321	0.25
877.7	0.25
878.079	0.25
878.459	0.25
878.838	0.25
879.217	0.25
879.596	0.25
879.975	0.25
880.354	0.25
880.733	0.25
881.112	0.26
881.491	0.26
881.869	0.26
882.248	0.26
882.627	0.26
883.005	0.26
883.384	0.26
883.762	0.26
884.14	0.26
884.519	0.26
884.897	0.26
885.275	0.26
885.653	0.26
886.031	0.27
886.409	0.26
886.787	0.26
887.165	0.26
887.543	0.26
887.921	0.27
888.298	0.27
888.676	0.27
889.054	0.27
889.431	0.27
889.809	0.27
890.186	0.27
890.563	0.27
890.941	0.27
891.318	0.27
891.695	0.27
892.072	0.27
892.449	0.27
892.826	0.27
893.203	0.27
893.58	0.28
893.957	0.28
894.334	0.27
894.71	0.27
895.087	0.27
895.464	0.28
895.84	0.28
896.217	0.28
896.593	0.28
896.969	0.28
897.346	0.28
897.722	0.28
898.098	0.28
898.474	0.28
898.85	0.28
899.226	0.28
899.602	0.28
899.978	0.28
900.354	0.28
900.73	0.28
901.105	0.28
901.481	0.28
901.857	0.28
902.232	0.28
902.608	0.28
902.983	0.28
903.358	0.29
903.734	0.29
904.109	0.29
904.484	0.29
904.859	0.29
905.234	0.29
905.609	0.29
905.984	0.29
906.359	0.29
906.734	0.29
907.108	0.29
907.483	0.29
907.858	0.29
908.232	0.29
908.607	0.29
908.981	0.29
909.356	0.29
909.73	0.29
910.104	0.29
910.478	0.29
910.853	0.29
911.227	0.29
911.601	0.29
911.975	0.29
912.349	0.29
912.722	0.29
913.096	0.29
913.47	0.29
913.844	0.29
914.217	0.29
914.591	0.29
914.964	0.29
915.338	0.3
915.711	0.29
916.084	0.3
916.458	0.3
916.831	0.29
917.204	0.29
917.577	0.3
917.95	0.3
918.323	0.29
918.696	0.3
919.069	0.29
919.441	0.3
919.814	0.3
920.187	0.3
920.559	0.3
920.932	0.3
921.304	0.3
921.677	0.3
922.049	0.3
922.421	0.3
922.794	0.3
923.166	0.3
923.538	0.3
923.91	0.3
924.282	0.3
924.654	0.3
925.026	0.3
925.398	0.3
925.769	0.3
926.141	0.3
926.513	0.3
926.884	0.3
927.256	0.3
927.627	0.3
927.999	0.3
928.37	0.3
928.741	0.3
929.113	0.3
929.484	0.3
929.855	0.3
930.226	0.3
930.597	0.3
930.968	0.3
931.339	0.3
931.709	0.3
932.08	0.3
932.451	0.3
932.821	0.3
933.192	0.3
933.562	0.3
933.933	0.3
934.303	0.3
934.673	0.3
935.044	0.3
935.414	0.3
935.784	0.3
936.154	0.3
936.524	0.3
936.894	0.3
937.264	0.3
937.634	0.3
938.004	0.3
938.373	0.3
938.743	0.3
939.113	0.3
939.482	0.3
939.852	0.3
940.221	0.3
940.59	0.3
940.96	0.3
941.329	0.3
941.698	0.3
942.067	0.3
942.436	0.31
942.805	0.3
943.174	0.3
943.543	0.3
943.912	0.3
944.28	0.3
944.649	0.3
945.018	0.3
945.386	0.3
945.755	0.31
946.123	0.3
946.492	0.31
946.86	0.3
947.228	0.3
947.596	0.31
947.965	0.3
948.333	0.31
948.701	0.3
949.069	0.31
949.437	0.3
949.804	0.3
950.172	0.3
950.54	0.3
950.908	0.3
951.275	0.3
951.643	0.3
952.01	0.3
952.378	0.3
952.745	0.31
953.112	0.3
953.479	0.31
953.847	0.3
954.214	0.3
954.581	0.3
954.948	0.3
955.315	0.3
955.682	0.3
956.048	0.3
956.415	0.3
956.782	0.3
957.148	0.3
957.515	0.3
957.881	0.3
958.248	0.3
958.614	0.3
958.981	0.3
959.347	0.3
959.713	0.3
960.079	0.3
960.445	0.29
960.811	0.3
961.177	0.3
961.543	0.3
961.909	0.3
962.275	0.29
962.641	0.3
963.006	0.3
963.372	0.29
963.737	0.3
964.103	0.3
964.468	0.29
964.834	0.29
965.199	0.3
965.564	0.29
965.929	0.3
966.294	0.29
966.659	0.3
967.024	0.29
967.389	0.29
967.754	0.29
968.119	0.29
968.484	0.29
968.848	0.29
969.213	0.29
969.578	0.29
969.942	0.29
970.307	0.29
970.671	0.29
971.035	0.29
971.399	0.29
971.764	0.29
972.128	0.29
972.492	0.29
972.856	0.29
973.22	0.29
973.584	0.29
973.948	0.29
974.311	0.29
974.675	0.3
975.039	0.29
975.402	0.29
975.766	0.29
976.129	0.29
976.493	0.29
976.856	0.29
977.219	0.29
977.582	0.29
977.946	0.29
978.309	0.28
978.672	0.29
979.035	0.29
979.398	0.29
979.761	0.28
980.123	0.28
980.486	0.29
980.849	0.28
981.211	0.29
981.574	0.29
981.936	0.28
982.299	0.29
982.661	0.28
983.023	0.28
983.386	0.28
983.748	0.29
984.11	0.28
984.472	0.28
984.834	0.28
985.196	0.29
985.558	0.28
985.92	0.28
986.281	0.28
986.643	0.28
987.005	0.29
987.366	0.28
987.728	0.28
988.089	0.28
988.451	0.28
988.812	0.28
989.173	0.27
989.534	0.28
989.895	0.28
990.257	0.28
990.618	0.28
990.979	0.28
991.339	0.27
991.7	0.28
992.061	0.28
992.422	0.28
992.782	0.28
993.143	0.27
993.503	0.28
993.864	0.28
994.224	0.28
994.585	0.27
994.945	0.27
995.305	0.27
995.665	0.27
996.025	0.28
996.385	0.27
996.745	0.27
997.105	0.27
997.465	0.27
997.825	0.27
998.185	0.27
998.544	0.27
998.904	0.27
999.263	0.27
999.623	0.27
999.982	0.27
1000.342	0.27
1000.701	0.27
1001.06	0.26
1001.419	0.27
1001.778	0.27
1002.138	0.27
1002.497	0.27
1002.855	0.26
1003.214	0.27
1003.573	0.26
1003.932	0.27
1004.29	0.27
1004.649	0.26
1005.008	0.26
1005.366	0.26
1005.725	0.26
1006.083	0.26
1006.441	0.26
1006.799	0.27
1007.158	0.26
1007.516	0.26
1007.874	0.26
1008.232	0.26
1008.59	0.27
1008.948	0.26
1009.305	0.26
1009.663	0.26
1010.021	0.26
1010.379	0.26
1010.736	0.26
1011.094	0.26
1011.451	0.26
1011.808	0.26
1012.166	0.25
1012.523	0.25
1012.88	0.26
1013.237	0.26
1013.594	0.25
1013.951	0.25
1014.308	0.25
1014.665	0.26
1015.022	0.26
1015.379	0.25
1015.735	0.25
1016.092	0.25
1016.449	0.25
1016.805	0.25
1017.162	0.25
1017.518	0.25
1017.874	0.26
1018.231	0.25
1018.587	0.25
1018.943	0.25
1019.299	0.25
1019.655	0.25
1020.011	0.25
1020.367	0.25
1020.723	0.25
1021.078	0.25
1021.434	0.25
1021.79	0.25
1022.145	0.25
1022.501	0.25
1022.856	0.25
1023.212	0.25
1023.567	0.24
1023.922	0.25
1024.278	0.24
1024.633	0.25
1024.988	0.24
1025.343	0.24
1025.698	0.24
1026.053	0.25
1026.408	0.24
1026.762	0.24
1027.117	0.24
1027.472	0.24
1027.826	0.24
1028.181	0.24
1028.535	0.24
1028.89	0.25
1029.244	0.24
1029.598	0.24
1029.952	0.24
1030.307	0.24
1030.661	0.24
1031.015	0.23
1031.369	0.24
1031.723	0.24
1032.076	0.24
