Data from Rubpy_BV_EDTA_TU(3000)_Blank_Blue_Flow_Absorbance__1177__13-06-19-847.txt Node

Date: Mon Aug 03 13:06:19 BST 2026
User: fpm-admin
Spectrometer: SR600986
Trigger mode: 0
Integration Time (sec): 8.000000E-3
Scans to average: 3
Nonlinearity correction enabled: true
Boxcar width: 0
Storing dark spectrum: false
XAxis mode: Wavelengths
Number of Pixels in Spectrum: 2048
>>>>>Begin Spectral Data<<<<<
188.613	0.24
189.078	0.22
189.542	0.24
190.007	0.23
190.472	0.23
190.936	0.22
191.401	0.24
191.865	0.22
192.33	0.24
192.794	0.21
193.258	0.23
193.723	0.23
194.187	0.25
194.651	0.24
195.115	0.22
195.579	0.24
196.043	0.2
196.507	0.23
196.971	0.24
197.435	0.23
197.899	0.23
198.363	0.25
198.827	0.24
199.29	0.23
199.754	0.22
200.218	0.24
200.681	0.21
201.145	0.23
201.608	0.21
202.072	0.24
202.535	0.22
202.998	0.23
203.462	0.23
203.925	0.24
204.388	0.22
204.851	0.23
205.314	0.23
205.777	0.19
206.24	0.23
206.703	0.24
207.166	0.21
207.629	0.23
208.092	0.23
208.555	0.24
209.018	0.24
209.48	0.22
209.943	0.21
210.406	0.23
210.868	0.22
211.331	0.22
211.793	0.23
212.256	0.24
212.718	0.22
213.18	0.23
213.643	0.23
214.105	0.21
214.567	0.22
215.029	0.24
215.491	0.22
215.953	0.22
216.415	0.22
216.877	0.22
217.339	0.23
217.801	0.23
218.263	0.24
218.725	0.24
219.186	0.24
219.648	0.22
220.11	0.2
220.571	0.23
221.033	0.21
221.494	0.23
221.956	0.22
222.417	0.24
222.878	0.23
223.34	0.24
223.801	0.21
224.262	0.23
224.723	0.24
225.185	0.19
225.646	0.21
226.107	0.24
226.568	0.22
227.029	0.25
227.489	0.22
227.95	0.22
228.411	0.24
228.872	0.22
229.332	0.22
229.793	0.21
230.254	0.24
230.714	0.2
231.175	0.22
231.635	0.21
232.096	0.23
232.556	0.23
233.016	0.23
233.477	0.21
233.937	0.24
234.397	0.22
234.857	0.23
235.317	0.24
235.777	0.23
236.237	0.21
236.697	0.23
237.157	0.24
237.617	0.22
238.077	0.22
238.537	0.23
238.996	0.24
239.456	0.21
239.916	0.23
240.375	0.23
240.835	0.22
241.294	0.23
241.754	0.22
242.213	0.24
242.672	0.22
243.132	0.22
243.591	0.23
244.05	0.22
244.509	0.22
244.968	0.23
245.427	0.22
245.886	0.22
246.345	0.23
246.804	0.23
247.263	0.25
247.722	0.23
248.181	0.22
248.639	0.22
249.098	0.24
249.557	0.25
250.015	0.23
250.474	0.24
250.932	0.25
251.391	0.21
251.849	0.23
252.308	0.23
252.766	0.22
253.224	0.25
253.682	0.23
254.14	0.22
254.599	0.23
255.057	0.23
255.515	0.22
255.973	0.24
256.431	0.24
256.888	0.24
257.346	0.23
257.804	0.25
258.262	0.23
258.719	0.22
259.177	0.24
259.635	0.24
260.092	0.23
260.55	0.24
261.007	0.22
261.465	0.23
261.922	0.25
262.379	0.22
262.836	0.25
263.294	0.24
263.751	0.23
264.208	0.23
264.665	0.23
265.122	0.22
265.579	0.25
266.036	0.24
266.493	0.22
266.95	0.24
267.406	0.24
267.863	0.23
268.32	0.22
268.777	0.22
269.233	0.22
269.69	0.23
270.146	0.24
270.603	0.24
271.059	0.24
271.515	0.23
271.972	0.24
272.428	0.21
272.884	0.24
273.34	0.22
273.796	0.24
274.253	0.22
274.709	0.24
275.165	0.21
275.62	0.23
276.076	0.21
276.532	0.23
276.988	0.2
277.444	0.21
277.899	0.22
278.355	0.25
278.811	0.23
279.266	0.22
279.722	0.23
280.177	0.23
280.633	0.24
281.088	0.23
281.543	0.23
281.998	0.23
282.454	0.21
282.909	0.23
283.364	0.23
283.819	0.23
284.274	0.23
284.729	0.2
285.184	0.22
285.639	0.22
286.094	0.23
286.548	0.22
287.003	0.24
287.458	0.23
287.913	0.22
288.367	0.23
288.822	0.22
289.276	0.22
289.731	0.21
290.185	0.24
290.639	0.24
291.094	0.24
291.548	0.23
292.002	0.23
292.456	0.24
292.91	0.23
293.365	0.24
293.819	0.22
294.273	0.22
294.726	0.23
295.18	0.23
295.634	0.27
296.088	0.25
296.542	0.26
296.995	0.23
297.449	0.21
297.903	0.23
298.356	0.24
298.81	0.24
299.263	0.24
299.716	0.25
300.17	0.25
300.623	0.22
301.076	0.25
301.53	0.23
301.983	0.25
302.436	0.21
302.889	0.23
303.342	0.23
303.795	0.24
304.248	0.23
304.701	0.22
305.153	0.23
305.606	0.23
306.059	0.24
306.512	0.23
306.964	0.25
307.417	0.24
307.869	0.23
308.322	0.26
308.774	0.24
309.227	0.26
309.679	0.24
310.131	0.24
310.584	0.27
311.036	0.23
311.488	0.25
311.94	0.24
312.392	0.22
312.844	0.23
313.296	0.26
313.748	0.27
314.2	0.24
314.652	0.25
315.103	0.26
315.555	0.24
316.007	0.27
316.458	0.27
316.91	0.28
317.361	0.24
317.813	0.27
318.264	0.28
318.716	0.27
319.167	0.29
319.618	0.28
320.07	0.28
320.521	0.27
320.972	0.3
321.423	0.3
321.874	0.31
322.325	0.32
322.776	0.32
323.227	0.31
323.678	0.31
324.128	0.33
324.579	0.34
325.03	0.36
325.48	0.36
325.931	0.35
326.382	0.38
326.832	0.39
327.283	0.39
327.733	0.4
328.183	0.42
328.634	0.43
329.084	0.45
329.534	0.47
329.984	0.49
330.434	0.49
330.884	0.51
331.334	0.53
331.784	0.55
332.234	0.56
332.684	0.58
333.134	0.57
333.584	0.6
334.034	0.61
334.483	0.62
334.933	0.65
335.382	0.65
335.832	0.67
336.281	0.66
336.731	0.69
337.18	0.71
337.63	0.73
338.079	0.74
338.528	0.77
338.977	0.78
339.426	0.78
339.876	0.81
340.325	0.82
340.774	0.83
341.223	0.86
341.671	0.87
342.12	0.89
342.569	0.9
343.018	0.91
343.467	0.91
343.915	0.94
344.364	0.96
344.812	0.97
345.261	0.99
345.709	1
346.158	1.02
346.606	1.02
347.054	1.03
347.503	1.04
347.951	1.06
348.399	1.05
348.847	1.07
349.295	1.08
349.743	1.09
350.191	1.11
350.639	1.11
351.087	1.12
351.535	1.14
351.983	1.15
352.43	1.15
352.878	1.15
353.326	1.17
353.773	1.19
354.221	1.19
354.668	1.22
355.116	1.23
355.563	1.21
356.01	1.23
356.458	1.26
356.905	1.26
357.352	1.28
357.799	1.29
358.246	1.31
358.693	1.32
359.14	1.36
359.587	1.35
360.034	1.38
360.481	1.38
360.928	1.38
361.375	1.41
361.821	1.4
362.268	1.44
362.714	1.45
363.161	1.44
363.608	1.46
364.054	1.45
364.5	1.48
364.947	1.46
365.393	1.49
365.839	1.49
366.285	1.51
366.732	1.5
367.178	1.52
367.624	1.5
368.07	1.51
368.516	1.51
368.962	1.51
369.408	1.53
369.853	1.52
370.299	1.53
370.745	1.5
371.19	1.53
371.636	1.52
372.082	1.5
372.527	1.5
372.973	1.5
373.418	1.51
373.863	1.5
374.309	1.5
374.754	1.49
375.199	1.48
375.644	1.47
376.09	1.44
376.535	1.45
376.98	1.44
377.425	1.43
377.87	1.42
378.314	1.4
378.759	1.39
379.204	1.38
379.649	1.36
380.093	1.33
380.538	1.32
380.983	1.29
381.427	1.26
381.872	1.23
382.316	1.22
382.76	1.18
383.205	1.17
383.649	1.15
384.093	1.13
384.537	1.11
384.982	1.07
385.426	1.05
385.87	1.04
386.314	1.01
386.758	0.99
387.201	0.96
387.645	0.94
388.089	0.92
388.533	0.9
388.976	0.88
389.42	0.87
389.864	0.83
390.307	0.84
390.751	0.81
391.194	0.79
391.638	0.76
392.081	0.75
392.524	0.74
392.967	0.73
393.411	0.71
393.854	0.71
394.297	0.69
394.74	0.68
395.183	0.67
395.626	0.67
396.069	0.67
396.512	0.66
396.954	0.67
397.397	0.67
397.84	0.67
398.282	0.67
398.725	0.68
399.168	0.66
399.61	0.66
400.052	0.66
400.495	0.65
400.937	0.65
401.38	0.63
401.822	0.61
402.264	0.6
402.706	0.58
403.148	0.57
403.59	0.56
404.032	0.55
404.474	0.52
404.916	0.5
405.358	0.49
405.8	0.48
406.241	0.45
406.683	0.43
407.125	0.42
407.566	0.4
408.008	0.38
408.449	0.37
408.891	0.36
409.332	0.35
409.774	0.33
410.215	0.31
410.656	0.31
411.097	0.3
411.539	0.28
411.98	0.27
412.421	0.26
412.862	0.26
413.303	0.25
413.744	0.25
414.184	0.24
414.625	0.24
415.066	0.22
415.507	0.22
415.947	0.22
416.388	0.22
416.828	0.2
417.269	0.22
417.709	0.21
418.15	0.2
418.59	0.21
419.03	0.2
419.471	0.2
419.911	0.19
420.351	0.19
420.791	0.19
421.231	0.2
421.671	0.19
422.111	0.18
422.551	0.17
422.991	0.19
423.431	0.18
423.87	0.18
424.31	0.19
424.75	0.2
425.189	0.18
425.629	0.18
426.068	0.18
426.508	0.18
426.947	0.19
427.386	0.19
427.826	0.19
428.265	0.19
428.704	0.18
429.143	0.18
429.582	0.18
430.021	0.18
430.46	0.19
430.899	0.17
431.338	0.19
431.777	0.19
432.216	0.19
432.655	0.18
433.093	0.18
433.532	0.18
433.971	0.17
434.409	0.18
434.848	0.19
435.286	0.19
435.724	0.19
436.163	0.19
436.601	0.19
437.039	0.2
437.477	0.2
437.916	0.2
438.354	0.2
438.792	0.19
439.23	0.19
439.668	0.2
440.105	0.2
440.543	0.2
440.981	0.21
441.419	0.19
441.856	0.19
442.294	0.19
442.732	0.2
443.169	0.21
443.607	0.21
444.044	0.2
444.481	0.24
444.919	0.2
445.356	0.21
445.793	0.23
446.23	0.22
446.668	0.22
447.105	0.22
447.542	0.23
447.979	0.2
448.416	0.22
448.852	0.23
449.289	0.21
449.726	0.24
450.163	0.21
450.599	0.24
451.036	0.23
451.473	0.25
451.909	0.24
452.346	0.23
452.782	0.24
453.218	0.22
453.655	0.23
454.091	0.22
454.527	0.24
454.963	0.24
455.399	0.24
455.835	0.26
456.271	0.24
456.707	0.22
457.143	0.24
457.579	0.25
458.015	0.24
458.451	0.25
458.886	0.25
459.322	0.24
459.758	0.26
460.193	0.28
460.629	0.26
461.064	0.26
461.5	0.27
461.935	0.24
462.37	0.27
462.805	0.27
463.241	0.26
463.676	0.26
464.111	0.29
464.546	0.27
464.981	0.28
465.416	0.27
465.851	0.29
466.286	0.29
466.72	0.29
467.155	0.3
467.59	0.31
468.024	0.3
468.459	0.3
468.893	0.31
469.328	0.33
469.762	0.31
470.197	0.32
470.631	0.34
471.065	0.34
471.5	0.33
471.934	0.34
472.368	0.35
472.802	0.36
473.236	0.38
473.67	0.37
474.104	0.38
474.538	0.38
474.972	0.39
475.405	0.39
475.839	0.4
476.273	0.4
476.706	0.41
477.14	0.43
477.573	0.42
478.007	0.43
478.44	0.44
478.874	0.44
479.307	0.45
479.74	0.45
480.173	0.46
480.606	0.47
481.04	0.48
481.473	0.48
481.906	0.48
482.339	0.49
482.771	0.49
483.204	0.5
483.637	0.51
484.07	0.51
484.502	0.52
484.935	0.53
485.368	0.54
485.8	0.54
486.233	0.54
486.665	0.55
487.098	0.55
487.53	0.56
487.962	0.57
488.394	0.57
488.827	0.57
489.259	0.58
489.691	0.58
490.123	0.58
490.555	0.58
490.987	0.6
491.418	0.61
491.85	0.61
492.282	0.62
492.714	0.62
493.145	0.63
493.577	0.63
494.009	0.64
494.44	0.64
494.872	0.65
495.303	0.65
495.734	0.65
496.166	0.66
496.597	0.66
497.028	0.67
497.459	0.67
497.89	0.68
498.321	0.68
498.752	0.69
499.183	0.69
499.614	0.7
500.045	0.7
500.476	0.71
500.906	0.71
501.337	0.72
501.768	0.73
502.198	0.73
502.629	0.74
503.059	0.73
503.49	0.75
503.92	0.75
504.35	0.75
504.781	0.76
505.211	0.76
505.641	0.77
506.071	0.77
506.501	0.78
506.931	0.78
507.361	0.78
507.791	0.79
508.221	0.8
508.651	0.79
509.081	0.8
509.51	0.81
509.94	0.81
510.37	0.82
510.799	0.82
511.229	0.82
511.658	0.82
512.087	0.83
512.517	0.83
512.946	0.84
513.375	0.84
513.804	0.84
514.234	0.84
514.663	0.85
515.092	0.86
515.521	0.86
515.95	0.86
516.378	0.86
516.807	0.87
517.236	0.88
517.665	0.87
518.093	0.87
518.522	0.88
518.951	0.88
519.379	0.88
519.807	0.88
520.236	0.89
520.664	0.89
521.093	0.89
521.521	0.9
521.949	0.9
522.377	0.9
522.805	0.9
523.233	0.91
523.661	0.91
524.089	0.9
524.517	0.91
524.945	0.91
525.373	0.91
525.8	0.92
526.228	0.92
526.656	0.92
527.083	0.92
527.511	0.92
527.938	0.93
528.366	0.93
528.793	0.94
529.22	0.94
529.648	0.93
530.075	0.93
530.502	0.94
530.929	0.95
531.356	0.94
531.783	0.94
532.21	0.94
532.637	0.95
533.064	0.95
533.49	0.94
533.917	0.95
534.344	0.95
534.771	0.95
535.197	0.95
535.624	0.95
536.05	0.95
536.477	0.95
536.903	0.95
537.329	0.95
537.755	0.95
538.182	0.95
538.608	0.94
539.034	0.95
539.46	0.95
539.886	0.95
540.312	0.94
540.738	0.95
541.164	0.95
541.589	0.95
542.015	0.95
542.441	0.95
542.867	0.95
543.292	0.95
543.718	0.94
544.143	0.95
544.569	0.94
544.994	0.95
545.419	0.95
545.845	0.94
546.27	0.94
546.695	0.94
547.12	0.94
547.545	0.94
547.97	0.94
548.395	0.93
548.82	0.94
549.245	0.94
549.67	0.93
550.094	0.93
550.519	0.93
550.944	0.93
551.368	0.93
551.793	0.92
552.217	0.93
552.642	0.92
553.066	0.92
553.49	0.92
553.915	0.92
554.339	0.92
554.763	0.91
555.187	0.92
555.611	0.91
556.035	0.91
556.459	0.91
556.883	0.9
557.307	0.9
557.731	0.9
558.154	0.89
558.578	0.89
559.002	0.89
559.425	0.89
559.849	0.89
560.272	0.89
560.696	0.88
561.119	0.88
561.543	0.88
561.966	0.88
562.389	0.87
562.812	0.87
563.235	0.86
563.658	0.86
564.081	0.86
564.504	0.86
564.927	0.85
565.35	0.85
565.773	0.85
566.196	0.85
566.618	0.85
567.041	0.84
567.463	0.84
567.886	0.83
568.309	0.83
568.731	0.83
569.153	0.83
569.576	0.83
569.998	0.82
570.42	0.82
570.842	0.82
571.264	0.81
571.686	0.81
572.108	0.81
572.53	0.81
572.952	0.8
573.374	0.8
573.796	0.8
574.218	0.79
574.639	0.79
575.061	0.79
575.483	0.78
575.904	0.78
576.326	0.78
576.747	0.78
577.168	0.77
577.59	0.77
578.011	0.76
578.432	0.76
578.853	0.76
579.274	0.76
579.695	0.75
580.116	0.75
580.537	0.75
580.958	0.75
581.379	0.74
581.8	0.74
582.221	0.73
582.641	0.73
583.062	0.73
583.482	0.73
583.903	0.73
584.323	0.72
584.744	0.72
585.164	0.72
585.584	0.71
586.005	0.71
586.425	0.71
586.845	0.71
587.265	0.7
587.685	0.7
588.105	0.69
588.525	0.69
588.945	0.69
589.365	0.69
589.785	0.69
590.204	0.68
590.624	0.68
591.044	0.68
591.463	0.68
591.883	0.68
592.302	0.68
592.721	0.67
593.141	0.67
593.56	0.67
593.979	0.66
594.399	0.66
594.818	0.65
595.237	0.66
595.656	0.65
596.075	0.65
596.494	0.65
596.913	0.65
597.331	0.64
597.75	0.64
598.169	0.64
598.587	0.64
599.006	0.63
599.425	0.63
599.843	0.63
600.262	0.62
600.68	0.62
601.098	0.62
601.517	0.62
601.935	0.62
602.353	0.62
602.771	0.61
603.189	0.61
603.607	0.61
604.025	0.6
604.443	0.6
604.861	0.6
605.279	0.59
605.696	0.59
606.114	0.59
606.532	0.59
606.949	0.58
607.367	0.58
607.784	0.58
608.202	0.57
608.619	0.57
609.036	0.57
609.454	0.57
609.871	0.57
610.288	0.56
610.705	0.56
611.122	0.56
611.539	0.55
611.956	0.55
612.373	0.55
612.79	0.54
613.207	0.54
613.623	0.54
614.04	0.53
614.457	0.54
614.873	0.53
615.29	0.53
615.706	0.53
616.122	0.52
616.539	0.52
616.955	0.52
617.371	0.51
617.788	0.51
618.204	0.51
618.62	0.51
619.036	0.51
619.452	0.5
619.868	0.5
620.284	0.5
620.699	0.49
621.115	0.49
621.531	0.49
621.946	0.48
622.362	0.48
622.778	0.48
623.193	0.48
623.608	0.47
624.024	0.47
624.439	0.47
624.854	0.47
625.27	0.46
625.685	0.46
626.1	0.46
626.515	0.45
626.93	0.45
627.345	0.45
627.76	0.44
628.175	0.44
628.589	0.44
629.004	0.43
629.419	0.43
629.833	0.43
630.248	0.43
630.663	0.42
631.077	0.42
631.491	0.42
631.906	0.42
632.32	0.41
632.734	0.41
633.148	0.41
633.563	0.4
633.977	0.4
634.391	0.39
634.805	0.39
635.219	0.39
635.632	0.39
636.046	0.39
636.46	0.38
636.874	0.38
637.287	0.37
637.701	0.37
638.115	0.37
638.528	0.37
638.941	0.36
639.355	0.36
639.768	0.36
640.181	0.36
640.595	0.35
641.008	0.35
641.421	0.35
641.834	0.35
642.247	0.34
642.66	0.34
643.073	0.33
643.486	0.34
643.898	0.33
644.311	0.33
644.724	0.33
645.136	0.33
645.549	0.32
645.961	0.32
646.374	0.32
646.786	0.32
647.199	0.32
647.611	0.31
648.023	0.31
648.435	0.31
648.847	0.31
649.26	0.3
649.672	0.3
650.084	0.3
650.495	0.3
650.907	0.29
651.319	0.29
651.731	0.29
652.143	0.29
652.554	0.29
652.966	0.29
653.377	0.28
653.789	0.28
654.2	0.28
654.612	0.28
655.023	0.28
655.434	0.26
655.845	0.25
656.256	0.27
656.668	0.27
657.079	0.27
657.49	0.26
657.901	0.26
658.311	0.26
658.722	0.26
659.133	0.26
659.544	0.26
659.954	0.25
660.365	0.26
660.775	0.25
661.186	0.25
661.596	0.25
662.007	0.25
662.417	0.25
662.827	0.24
663.238	0.24
663.648	0.24
664.058	0.24
664.468	0.24
664.878	0.23
665.288	0.23
665.698	0.23
666.108	0.23
666.517	0.23
666.927	0.23
667.337	0.22
667.746	0.22
668.156	0.22
668.565	0.22
668.975	0.22
669.384	0.21
669.794	0.21
670.203	0.21
670.612	0.21
671.021	0.21
671.43	0.21
671.84	0.2
672.249	0.2
672.658	0.2
673.066	0.2
673.475	0.2
673.884	0.19
674.293	0.19
674.702	0.19
675.11	0.19
675.519	0.19
675.927	0.19
676.336	0.18
676.744	0.18
677.152	0.18
677.561	0.18
677.969	0.18
678.377	0.17
678.785	0.17
679.193	0.17
679.601	0.17
680.009	0.17
680.417	0.17
680.825	0.16
681.233	0.16
681.641	0.16
682.048	0.16
682.456	0.16
682.864	0.16
683.271	0.16
683.679	0.15
684.086	0.15
684.493	0.15
684.901	0.15
685.308	0.15
685.715	0.15
686.122	0.14
686.529	0.14
686.936	0.14
687.343	0.14
687.75	0.14
688.157	0.14
688.564	0.13
688.971	0.13
689.378	0.13
689.784	0.13
690.191	0.13
690.597	0.13
691.004	0.13
691.41	0.12
691.817	0.12
692.223	0.12
692.629	0.12
693.035	0.12
693.442	0.12
693.848	0.12
694.254	0.12
694.66	0.11
695.066	0.11
695.471	0.11
695.877	0.11
696.283	0.11
696.689	0.11
697.094	0.11
697.5	0.11
697.906	0.11
698.311	0.11
698.716	0.11
699.122	0.1
699.527	0.1
699.932	0.1
700.338	0.1
700.743	0.1
701.148	0.1
701.553	0.1
701.958	0.1
702.363	0.1
702.768	0.1
703.173	0.1
703.577	0.1
703.982	0.1
704.387	0.1
704.791	0.09
705.196	0.1
705.6	0.09
706.005	0.09
706.409	0.09
706.814	0.09
707.218	0.09
707.622	0.09
708.026	0.09
708.43	0.09
708.834	0.09
709.238	0.09
709.642	0.09
710.046	0.09
710.45	0.09
710.854	0.09
711.257	0.09
711.661	0.09
712.065	0.09
712.468	0.09
712.872	0.09
713.275	0.09
713.679	0.09
714.082	0.09
714.485	0.09
714.888	0.09
715.291	0.09
715.695	0.09
716.098	0.09
716.501	0.09
716.904	0.09
717.306	0.09
717.709	0.09
718.112	0.08
718.515	0.09
718.917	0.09
719.32	0.09
719.723	0.09
720.125	0.09
720.527	0.09
720.93	0.08
721.332	0.09
721.734	0.09
722.137	0.09
722.539	0.09
722.941	0.09
723.343	0.09
723.745	0.09
724.147	0.09
724.549	0.09
724.95	0.09
725.352	0.09
725.754	0.09
726.156	0.09
726.557	0.08
726.959	0.09
727.36	0.09
727.762	0.08
728.163	0.08
728.564	0.09
728.966	0.09
729.367	0.09
729.768	0.08
730.169	0.08
730.57	0.08
730.971	0.08
731.372	0.08
731.773	0.08
732.174	0.08
732.574	0.08
732.975	0.08
733.376	0.08
733.776	0.08
734.177	0.08
734.577	0.08
734.978	0.08
735.378	0.08
735.778	0.08
736.179	0.08
736.579	0.08
736.979	0.08
737.379	0.08
737.779	0.08
738.179	0.08
738.579	0.08
738.979	0.08
739.379	0.08
739.778	0.08
740.178	0.07
740.578	0.08
740.977	0.08
741.377	0.08
741.776	0.08
742.176	0.08
742.575	0.08
742.974	0.07
743.374	0.08
743.773	0.07
744.172	0.07
744.571	0.07
744.97	0.07
745.369	0.07
745.768	0.07
746.167	0.07
746.565	0.07
746.964	0.07
747.363	0.07
747.761	0.07
748.16	0.07
748.559	0.07
748.957	0.07
749.355	0.07
749.754	0.07
750.152	0.07
750.55	0.07
750.948	0.07
751.347	0.07
751.745	0.07
752.143	0.07
752.541	0.07
752.938	0.07
753.336	0.07
753.734	0.07
754.132	0.07
754.529	0.07
754.927	0.07
755.325	0.07
755.722	0.07
756.119	0.07
756.517	0.06
756.914	0.06
757.311	0.07
757.709	0.06
758.106	0.06
758.503	0.07
758.9	0.07
759.297	0.06
759.694	0.07
760.091	0.07
760.488	0.06
760.884	0.07
761.281	0.06
761.678	0.07
762.074	0.07
762.471	0.07
762.867	0.07
763.264	0.06
763.66	0.06
764.056	0.06
764.453	0.07
764.849	0.07
765.245	0.06
765.641	0.07
766.037	0.06
766.433	0.07
766.829	0.07
767.225	0.07
767.621	0.07
768.016	0.07
768.412	0.07
768.808	0.07
769.203	0.07
769.599	0.07
769.994	0.07
770.389	0.07
770.785	0.07
771.18	0.07
771.575	0.07
771.971	0.07
772.366	0.07
772.761	0.07
773.156	0.07
773.551	0.07
773.945	0.07
774.34	0.07
774.735	0.07
775.13	0.07
775.524	0.07
775.919	0.07
776.314	0.07
776.708	0.07
777.103	0.07
777.497	0.07
777.891	0.07
778.285	0.07
778.68	0.07
779.074	0.07
779.468	0.07
779.862	0.07
780.256	0.08
780.65	0.07
781.044	0.08
781.438	0.08
781.831	0.07
782.225	0.08
782.619	0.08
783.012	0.08
783.406	0.08
783.799	0.08
784.193	0.08
784.586	0.08
784.979	0.08
785.372	0.08
785.766	0.08
786.159	0.08
786.552	0.08
786.945	0.08
787.338	0.08
787.731	0.08
788.123	0.08
788.516	0.08
788.909	0.08
789.302	0.08
789.694	0.08
790.087	0.09
790.479	0.09
790.872	0.09
791.264	0.09
791.656	0.09
792.049	0.09
792.441	0.09
792.833	0.09
793.225	0.09
793.617	0.09
794.009	0.09
794.401	0.09
794.793	0.09
795.185	0.09
795.576	0.09
795.968	0.09
796.36	0.09
796.751	0.09
797.143	0.09
797.534	0.09
797.926	0.1
798.317	0.1
798.708	0.09
799.1	0.1
799.491	0.1
799.882	0.1
800.273	0.1
800.664	0.1
801.055	0.1
801.446	0.1
801.837	0.1
802.227	0.1
802.618	0.1
803.009	0.1
803.399	0.1
803.79	0.11
804.18	0.1
804.571	0.11
804.961	0.1
805.351	0.11
805.742	0.11
806.132	0.11
806.522	0.11
806.912	0.11
807.302	0.11
807.692	0.11
808.082	0.11
808.472	0.11
808.862	0.11
809.251	0.11
809.641	0.11
810.031	0.11
810.42	0.11
810.81	0.11
811.199	0.12
811.589	0.12
811.978	0.12
812.367	0.12
812.756	0.12
813.146	0.12
813.535	0.12
813.924	0.12
814.313	0.12
814.702	0.12
815.091	0.12
815.479	0.12
815.868	0.12
816.257	0.12
816.645	0.12
817.034	0.13
817.423	0.12
817.811	0.13
818.199	0.13
818.588	0.13
818.976	0.13
819.364	0.13
819.753	0.13
820.141	0.13
820.529	0.13
820.917	0.13
821.305	0.13
821.693	0.13
822.08	0.13
822.468	0.14
822.856	0.14
823.244	0.14
823.631	0.14
824.019	0.14
824.406	0.14
824.794	0.14
825.181	0.14
825.568	0.14
825.956	0.14
826.343	0.14
826.73	0.14
827.117	0.14
827.504	0.14
827.891	0.15
828.278	0.14
828.665	0.14
829.052	0.15
829.438	0.15
829.825	0.15
830.212	0.15
830.598	0.15
830.985	0.15
831.371	0.15
831.757	0.15
832.144	0.15
832.53	0.16
832.916	0.15
833.302	0.16
833.688	0.16
834.075	0.16
834.461	0.16
834.846	0.16
835.232	0.16
835.618	0.16
836.004	0.16
836.39	0.16
836.775	0.16
837.161	0.16
837.546	0.16
837.932	0.17
838.317	0.16
838.702	0.17
839.088	0.17
839.473	0.17
839.858	0.17
840.243	0.17
840.628	0.17
841.013	0.17
841.398	0.17
841.783	0.17
842.168	0.17
842.553	0.18
842.937	0.18
843.322	0.17
843.707	0.17
844.091	0.17
844.476	0.18
844.86	0.18
845.244	0.18
845.629	0.18
846.013	0.18
846.397	0.18
846.781	0.18
847.165	0.18
847.549	0.18
847.933	0.18
848.317	0.18
848.701	0.18
849.085	0.19
849.468	0.19
849.852	0.19
850.236	0.19
850.619	0.19
851.003	0.19
851.386	0.19
851.769	0.19
852.153	0.19
852.536	0.19
852.919	0.2
853.302	0.2
853.685	0.19
854.068	0.19
854.451	0.2
854.834	0.2
855.217	0.2
855.6	0.2
855.982	0.2
856.365	0.2
856.748	0.2
857.13	0.2
857.513	0.2
857.895	0.21
858.277	0.2
858.66	0.21
859.042	0.21
859.424	0.21
859.806	0.21
860.188	0.21
860.57	0.21
860.952	0.21
861.334	0.21
861.716	0.21
862.098	0.21
862.48	0.21
862.861	0.21
863.243	0.21
863.624	0.21
864.006	0.21
864.387	0.21
864.769	0.22
865.15	0.22
865.531	0.22
865.912	0.22
866.294	0.22
866.675	0.22
867.056	0.22
867.437	0.22
867.818	0.22
868.198	0.22
868.579	0.22
868.96	0.22
869.341	0.23
869.721	0.23
870.102	0.23
870.482	0.23
870.863	0.23
871.243	0.23
871.623	0.23
872.003	0.23
872.384	0.23
872.764	0.23
873.144	0.23
873.524	0.23
873.904	0.23
874.284	0.23
874.664	0.23
875.043	0.23
875.423	0.24
875.803	0.24
876.182	0.24
876.562	0.24
876.941	0.24
877.321	0.24
877.7	0.24
878.079	0.24
878.459	0.24
878.838	0.24
879.217	0.24
879.596	0.25
879.975	0.24
880.354	0.24
880.733	0.25
881.112	0.25
881.491	0.24
881.869	0.25
882.248	0.25
882.627	0.24
883.005	0.25
883.384	0.25
883.762	0.25
884.14	0.25
884.519	0.25
884.897	0.25
885.275	0.25
885.653	0.25
886.031	0.25
886.409	0.25
886.787	0.26
887.165	0.26
887.543	0.25
887.921	0.26
888.298	0.26
888.676	0.26
889.054	0.26
889.431	0.26
889.809	0.25
890.186	0.26
890.563	0.26
890.941	0.26
891.318	0.26
891.695	0.26
892.072	0.26
892.449	0.26
892.826	0.26
893.203	0.26
893.58	0.26
893.957	0.26
894.334	0.26
894.71	0.26
895.087	0.26
895.464	0.26
895.84	0.27
896.217	0.27
896.593	0.27
896.969	0.26
897.346	0.27
897.722	0.27
898.098	0.27
898.474	0.27
898.85	0.27
899.226	0.27
899.602	0.27
899.978	0.27
900.354	0.27
900.73	0.27
901.105	0.27
901.481	0.27
901.857	0.27
902.232	0.27
902.608	0.27
902.983	0.27
903.358	0.27
903.734	0.27
904.109	0.28
904.484	0.28
904.859	0.28
905.234	0.27
905.609	0.27
905.984	0.27
906.359	0.28
906.734	0.28
907.108	0.28
907.483	0.28
907.858	0.28
908.232	0.28
908.607	0.28
908.981	0.28
909.356	0.28
909.73	0.27
910.104	0.28
910.478	0.28
910.853	0.28
911.227	0.28
911.601	0.28
911.975	0.28
912.349	0.28
912.722	0.28
913.096	0.28
913.47	0.28
913.844	0.28
914.217	0.28
914.591	0.28
914.964	0.28
915.338	0.28
915.711	0.28
916.084	0.28
916.458	0.29
916.831	0.28
917.204	0.28
917.577	0.28
917.95	0.28
918.323	0.28
918.696	0.28
919.069	0.28
919.441	0.28
919.814	0.28
920.187	0.28
920.559	0.29
920.932	0.28
921.304	0.28
921.677	0.28
922.049	0.29
922.421	0.29
922.794	0.28
923.166	0.29
923.538	0.29
923.91	0.29
924.282	0.29
924.654	0.29
925.026	0.29
925.398	0.28
925.769	0.29
926.141	0.29
926.513	0.29
926.884	0.29
927.256	0.29
927.627	0.29
927.999	0.29
928.37	0.29
928.741	0.29
929.113	0.28
929.484	0.29
929.855	0.29
930.226	0.29
930.597	0.29
930.968	0.29
931.339	0.29
931.709	0.29
932.08	0.29
932.451	0.29
932.821	0.29
933.192	0.29
933.562	0.29
933.933	0.29
934.303	0.29
934.673	0.29
935.044	0.29
935.414	0.29
935.784	0.29
936.154	0.29
936.524	0.29
936.894	0.29
937.264	0.29
937.634	0.29
938.004	0.29
938.373	0.29
938.743	0.29
939.113	0.29
939.482	0.29
939.852	0.29
940.221	0.29
940.59	0.29
940.96	0.29
941.329	0.29
941.698	0.29
942.067	0.29
942.436	0.29
942.805	0.29
943.174	0.29
943.543	0.29
943.912	0.29
944.28	0.29
944.649	0.29
945.018	0.29
945.386	0.29
945.755	0.29
946.123	0.29
946.492	0.29
946.86	0.29
947.228	0.29
947.596	0.29
947.965	0.29
948.333	0.29
948.701	0.29
949.069	0.29
949.437	0.29
949.804	0.29
950.172	0.29
950.54	0.29
950.908	0.29
951.275	0.29
951.643	0.29
952.01	0.29
952.378	0.29
952.745	0.29
953.112	0.29
953.479	0.29
953.847	0.28
954.214	0.29
954.581	0.29
954.948	0.29
955.315	0.29
955.682	0.29
956.048	0.28
956.415	0.28
956.782	0.29
957.148	0.29
957.515	0.29
957.881	0.28
958.248	0.28
958.614	0.29
958.981	0.28
959.347	0.28
959.713	0.29
960.079	0.28
960.445	0.29
960.811	0.29
961.177	0.28
961.543	0.28
961.909	0.28
962.275	0.28
962.641	0.29
963.006	0.28
963.372	0.28
963.737	0.28
964.103	0.29
964.468	0.28
964.834	0.28
965.199	0.28
965.564	0.28
965.929	0.28
966.294	0.28
966.659	0.28
967.024	0.28
967.389	0.28
967.754	0.28
968.119	0.28
968.484	0.28
968.848	0.28
969.213	0.28
969.578	0.28
969.942	0.28
970.307	0.28
970.671	0.28
971.035	0.28
971.399	0.28
971.764	0.28
972.128	0.28
972.492	0.28
972.856	0.27
973.22	0.27
973.584	0.27
973.948	0.28
974.311	0.28
974.675	0.28
975.039	0.28
975.402	0.28
975.766	0.28
976.129	0.28
976.493	0.27
976.856	0.28
977.219	0.28
977.582	0.28
977.946	0.27
978.309	0.28
978.672	0.28
979.035	0.28
979.398	0.27
979.761	0.27
980.123	0.27
980.486	0.27
980.849	0.27
981.211	0.27
981.574	0.27
981.936	0.28
982.299	0.27
982.661	0.27
983.023	0.27
983.386	0.27
983.748	0.27
984.11	0.27
984.472	0.27
984.834	0.27
985.196	0.27
985.558	0.27
985.92	0.27
986.281	0.27
986.643	0.27
987.005	0.27
987.366	0.27
987.728	0.27
988.089	0.27
988.451	0.27
988.812	0.26
989.173	0.27
989.534	0.26
989.895	0.27
990.257	0.27
990.618	0.26
990.979	0.26
991.339	0.26
991.7	0.26
992.061	0.26
992.422	0.26
992.782	0.27
993.143	0.26
993.503	0.26
993.864	0.26
994.224	0.26
994.585	0.26
994.945	0.26
995.305	0.26
995.665	0.26
996.025	0.26
996.385	0.26
996.745	0.26
997.105	0.25
997.465	0.26
997.825	0.26
998.185	0.26
998.544	0.25
998.904	0.25
999.263	0.26
999.623	0.26
999.982	0.26
1000.342	0.26
1000.701	0.26
1001.06	0.25
1001.419	0.25
1001.778	0.26
1002.138	0.26
1002.497	0.26
1002.855	0.25
1003.214	0.26
1003.573	0.25
1003.932	0.25
1004.29	0.25
1004.649	0.25
1005.008	0.25
1005.366	0.25
1005.725	0.25
1006.083	0.25
1006.441	0.25
1006.799	0.25
1007.158	0.25
1007.516	0.25
1007.874	0.25
1008.232	0.24
1008.59	0.25
1008.948	0.25
1009.305	0.25
1009.663	0.25
1010.021	0.25
1010.379	0.25
1010.736	0.24
1011.094	0.25
1011.451	0.24
1011.808	0.25
1012.166	0.24
1012.523	0.24
1012.88	0.24
1013.237	0.24
1013.594	0.24
1013.951	0.24
1014.308	0.24
1014.665	0.24
1015.022	0.25
1015.379	0.24
1015.735	0.24
1016.092	0.24
1016.449	0.24
1016.805	0.24
1017.162	0.24
1017.518	0.24
1017.874	0.24
1018.231	0.24
1018.587	0.24
1018.943	0.24
1019.299	0.24
1019.655	0.23
1020.011	0.24
1020.367	0.24
1020.723	0.24
1021.078	0.24
1021.434	0.24
1021.79	0.24
1022.145	0.24
1022.501	0.23
1022.856	0.23
1023.212	0.23
1023.567	0.24
1023.922	0.23
1024.278	0.23
1024.633	0.24
1024.988	0.23
1025.343	0.23
1025.698	0.23
1026.053	0.23
1026.408	0.23
1026.762	0.24
1027.117	0.23
1027.472	0.23
1027.826	0.22
1028.181	0.22
1028.535	0.23
1028.89	0.23
1029.244	0.23
1029.598	0.23
1029.952	0.23
1030.307	0.23
1030.661	0.23
1031.015	0.22
1031.369	0.23
1031.723	0.23
1032.076	0.23
