Data from Rubpy_BV_EDTA_TU(3000)_Blank_Blue_Flow_Absorbance__3985__13-53-07-864.txt Node

Date: Mon Aug 03 13:53:07 BST 2026
User: fpm-admin
Spectrometer: SR600986
Trigger mode: 0
Integration Time (sec): 8.000000E-3
Scans to average: 3
Nonlinearity correction enabled: true
Boxcar width: 0
Storing dark spectrum: false
XAxis mode: Wavelengths
Number of Pixels in Spectrum: 2048
>>>>>Begin Spectral Data<<<<<
188.613	0.31
189.078	0.35
189.542	0.34
190.007	0.35
190.472	0.33
190.936	0.34
191.401	0.32
191.865	0.33
192.33	0.32
192.794	0.32
193.258	0.32
193.723	0.32
194.187	0.32
194.651	0.33
195.115	0.33
195.579	0.35
196.043	0.32
196.507	0.33
196.971	0.33
197.435	0.32
197.899	0.34
198.363	0.33
198.827	0.34
199.29	0.31
199.754	0.33
200.218	0.32
200.681	0.33
201.145	0.36
201.608	0.32
202.072	0.32
202.535	0.33
202.998	0.35
203.462	0.34
203.925	0.34
204.388	0.31
204.851	0.31
205.314	0.32
205.777	0.3
206.24	0.35
206.703	0.33
207.166	0.33
207.629	0.35
208.092	0.32
208.555	0.31
209.018	0.33
209.48	0.32
209.943	0.32
210.406	0.35
210.868	0.33
211.331	0.31
211.793	0.33
212.256	0.33
212.718	0.33
213.18	0.33
213.643	0.32
214.105	0.32
214.567	0.32
215.029	0.34
215.491	0.33
215.953	0.32
216.415	0.29
216.877	0.33
217.339	0.35
217.801	0.32
218.263	0.33
218.725	0.34
219.186	0.35
219.648	0.32
220.11	0.31
220.571	0.33
221.033	0.31
221.494	0.33
221.956	0.32
222.417	0.33
222.878	0.33
223.34	0.34
223.801	0.33
224.262	0.34
224.723	0.35
225.185	0.32
225.646	0.28
226.107	0.34
226.568	0.3
227.029	0.34
227.489	0.33
227.95	0.35
228.411	0.34
228.872	0.33
229.332	0.32
229.793	0.31
230.254	0.33
230.714	0.33
231.175	0.34
231.635	0.35
232.096	0.33
232.556	0.32
233.016	0.35
233.477	0.3
233.937	0.33
234.397	0.33
234.857	0.33
235.317	0.34
235.777	0.34
236.237	0.34
236.697	0.32
237.157	0.33
237.617	0.31
238.077	0.32
238.537	0.34
238.996	0.33
239.456	0.33
239.916	0.35
240.375	0.32
240.835	0.31
241.294	0.35
241.754	0.31
242.213	0.34
242.672	0.33
243.132	0.35
243.591	0.33
244.05	0.34
244.509	0.34
244.968	0.33
245.427	0.34
245.886	0.34
246.345	0.32
246.804	0.34
247.263	0.34
247.722	0.34
248.181	0.33
248.639	0.34
249.098	0.33
249.557	0.33
250.015	0.33
250.474	0.34
250.932	0.34
251.391	0.32
251.849	0.33
252.308	0.33
252.766	0.31
253.224	0.33
253.682	0.35
254.14	0.32
254.599	0.34
255.057	0.33
255.515	0.34
255.973	0.34
256.431	0.34
256.888	0.34
257.346	0.34
257.804	0.31
258.262	0.32
258.719	0.33
259.177	0.31
259.635	0.34
260.092	0.33
260.55	0.34
261.007	0.31
261.465	0.34
261.922	0.35
262.379	0.33
262.836	0.34
263.294	0.32
263.751	0.33
264.208	0.33
264.665	0.32
265.122	0.32
265.579	0.35
266.036	0.35
266.493	0.34
266.95	0.34
267.406	0.34
267.863	0.32
268.32	0.31
268.777	0.31
269.233	0.34
269.69	0.34
270.146	0.34
270.603	0.38
271.059	0.33
271.515	0.32
271.972	0.34
272.428	0.32
272.884	0.33
273.34	0.31
273.796	0.33
274.253	0.32
274.709	0.33
275.165	0.33
275.62	0.33
276.076	0.31
276.532	0.35
276.988	0.33
277.444	0.33
277.899	0.35
278.355	0.34
278.811	0.34
279.266	0.32
279.722	0.33
280.177	0.31
280.633	0.32
281.088	0.32
281.543	0.34
281.998	0.34
282.454	0.34
282.909	0.34
283.364	0.31
283.819	0.34
284.274	0.33
284.729	0.34
285.184	0.33
285.639	0.33
286.094	0.37
286.548	0.34
287.003	0.32
287.458	0.34
287.913	0.35
288.367	0.33
288.822	0.32
289.276	0.34
289.731	0.35
290.185	0.34
290.639	0.36
291.094	0.34
291.548	0.34
292.002	0.35
292.456	0.31
292.91	0.33
293.365	0.34
293.819	0.34
294.273	0.33
294.726	0.32
295.18	0.33
295.634	0.37
296.088	0.35
296.542	0.37
296.995	0.33
297.449	0.32
297.903	0.33
298.356	0.29
298.81	0.34
299.263	0.32
299.716	0.32
300.17	0.33
300.623	0.32
301.076	0.35
301.53	0.32
301.983	0.33
302.436	0.32
302.889	0.32
303.342	0.33
303.795	0.34
304.248	0.32
304.701	0.33
305.153	0.34
305.606	0.33
306.059	0.35
306.512	0.33
306.964	0.35
307.417	0.34
307.869	0.33
308.322	0.36
308.774	0.34
309.227	0.35
309.679	0.33
310.131	0.34
310.584	0.35
311.036	0.33
311.488	0.37
311.94	0.36
312.392	0.33
312.844	0.35
313.296	0.36
313.748	0.34
314.2	0.35
314.652	0.35
315.103	0.35
315.555	0.35
316.007	0.38
316.458	0.36
316.91	0.36
317.361	0.38
317.813	0.38
318.264	0.37
318.716	0.39
319.167	0.39
319.618	0.41
320.07	0.41
320.521	0.4
320.972	0.42
321.423	0.42
321.874	0.42
322.325	0.43
322.776	0.46
323.227	0.46
323.678	0.45
324.128	0.47
324.579	0.49
325.03	0.48
325.48	0.52
325.931	0.53
326.382	0.54
326.832	0.55
327.283	0.57
327.733	0.59
328.183	0.62
328.634	0.64
329.084	0.65
329.534	0.67
329.984	0.7
330.434	0.7
330.884	0.72
331.334	0.74
331.784	0.76
332.234	0.79
332.684	0.8
333.134	0.82
333.584	0.85
334.034	0.86
334.483	0.88
334.933	0.92
335.382	0.93
335.832	0.94
336.281	0.95
336.731	0.96
337.18	1
337.63	1.02
338.079	1.02
338.528	1.05
338.977	1.06
339.426	1.1
339.876	1.11
340.325	1.15
340.774	1.12
341.223	1.15
341.671	1.18
342.12	1.19
342.569	1.22
343.018	1.24
343.467	1.21
343.915	1.27
344.364	1.28
344.812	1.29
345.261	1.29
345.709	1.31
346.158	1.32
346.606	1.31
347.054	1.37
347.503	1.36
347.951	1.37
348.399	1.36
348.847	1.36
349.295	1.39
349.743	1.37
350.191	1.4
350.639	1.41
351.087	1.4
351.535	1.41
351.983	1.44
352.43	1.42
352.878	1.43
353.326	1.46
353.773	1.44
354.221	1.47
354.668	1.44
355.116	1.49
355.563	1.46
356.01	1.49
356.458	1.5
356.905	1.51
357.352	1.52
357.799	1.54
358.246	1.56
358.693	1.55
359.14	1.58
359.587	1.55
360.034	1.58
360.481	1.6
360.928	1.58
361.375	1.6
361.821	1.62
362.268	1.62
362.714	1.62
363.161	1.66
363.608	1.65
364.054	1.65
364.5	1.69
364.947	1.65
365.393	1.67
365.839	1.66
366.285	1.67
366.732	1.68
367.178	1.72
367.624	1.69
368.07	1.72
368.516	1.73
368.962	1.72
369.408	1.69
369.853	1.71
370.299	1.7
370.745	1.7
371.19	1.7
371.636	1.72
372.082	1.71
372.527	1.69
372.973	1.72
373.418	1.7
373.863	1.71
374.309	1.72
374.754	1.71
375.199	1.71
375.644	1.71
376.09	1.7
376.535	1.71
376.98	1.69
377.425	1.71
377.87	1.72
378.314	1.71
378.759	1.7
379.204	1.7
379.649	1.68
380.093	1.65
380.538	1.68
380.983	1.65
381.427	1.65
381.872	1.6
382.316	1.59
382.76	1.58
383.205	1.56
383.649	1.52
384.093	1.51
384.537	1.46
384.982	1.46
385.426	1.45
385.87	1.43
386.314	1.4
386.758	1.37
387.201	1.34
387.645	1.32
388.089	1.3
388.533	1.27
388.976	1.25
389.42	1.22
389.864	1.19
390.307	1.17
390.751	1.13
391.194	1.12
391.638	1.1
392.081	1.08
392.524	1.07
392.967	1.05
393.411	1.02
393.854	1.02
394.297	1
394.74	0.99
395.183	0.98
395.626	0.95
396.069	0.96
396.512	0.94
396.954	0.94
397.397	0.94
397.84	0.94
398.282	0.94
398.725	0.93
399.168	0.93
399.61	0.91
400.052	0.91
400.495	0.9
400.937	0.9
401.38	0.86
401.822	0.85
402.264	0.84
402.706	0.81
403.148	0.81
403.59	0.79
404.032	0.76
404.474	0.74
404.916	0.72
405.358	0.7
405.8	0.67
406.241	0.65
406.683	0.63
407.125	0.6
407.566	0.59
408.008	0.56
408.449	0.55
408.891	0.53
409.332	0.51
409.774	0.48
410.215	0.47
410.656	0.46
411.097	0.44
411.539	0.42
411.98	0.41
412.421	0.41
412.862	0.39
413.303	0.37
413.744	0.37
414.184	0.35
414.625	0.35
415.066	0.34
415.507	0.33
415.947	0.33
416.388	0.32
416.828	0.31
417.269	0.32
417.709	0.32
418.15	0.3
418.59	0.31
419.03	0.29
419.471	0.28
419.911	0.27
420.351	0.28
420.791	0.28
421.231	0.28
421.671	0.27
422.111	0.26
422.551	0.27
422.991	0.27
423.431	0.26
423.87	0.27
424.31	0.26
424.75	0.26
425.189	0.27
425.629	0.27
426.068	0.27
426.508	0.27
426.947	0.27
427.386	0.28
427.826	0.28
428.265	0.27
428.704	0.26
429.143	0.27
429.582	0.26
430.021	0.28
430.46	0.28
430.899	0.27
431.338	0.26
431.777	0.27
432.216	0.29
432.655	0.27
433.093	0.27
433.532	0.29
433.971	0.27
434.409	0.27
434.848	0.29
435.286	0.28
435.724	0.29
436.163	0.29
436.601	0.29
437.039	0.3
437.477	0.29
437.916	0.28
438.354	0.29
438.792	0.27
439.23	0.3
439.668	0.3
440.105	0.31
440.543	0.3
440.981	0.31
441.419	0.29
441.856	0.31
442.294	0.3
442.732	0.3
443.169	0.32
443.607	0.33
444.044	0.3
444.481	0.31
444.919	0.33
445.356	0.32
445.793	0.31
446.23	0.33
446.668	0.31
447.105	0.33
447.542	0.33
447.979	0.31
448.416	0.32
448.852	0.33
449.289	0.33
449.726	0.34
450.163	0.34
450.599	0.35
451.036	0.34
451.473	0.33
451.909	0.34
452.346	0.34
452.782	0.36
453.218	0.32
453.655	0.34
454.091	0.35
454.527	0.35
454.963	0.36
455.399	0.35
455.835	0.36
456.271	0.35
456.707	0.36
457.143	0.34
457.579	0.35
458.015	0.36
458.451	0.39
458.886	0.38
459.322	0.38
459.758	0.37
460.193	0.39
460.629	0.38
461.064	0.37
461.5	0.39
461.935	0.38
462.37	0.4
462.805	0.4
463.241	0.41
463.676	0.38
464.111	0.41
464.546	0.41
464.981	0.43
465.416	0.43
465.851	0.42
466.286	0.44
466.72	0.44
467.155	0.45
467.59	0.45
468.024	0.45
468.459	0.46
468.893	0.48
469.328	0.48
469.762	0.48
470.197	0.49
470.631	0.51
471.065	0.51
471.5	0.52
471.934	0.53
472.368	0.55
472.802	0.55
473.236	0.57
473.67	0.57
474.104	0.58
474.538	0.59
474.972	0.59
475.405	0.6
475.839	0.61
476.273	0.63
476.706	0.63
477.14	0.64
477.573	0.65
478.007	0.65
478.44	0.66
478.874	0.68
479.307	0.69
479.74	0.69
480.173	0.71
480.606	0.73
481.04	0.73
481.473	0.74
481.906	0.76
482.339	0.76
482.771	0.76
483.204	0.77
483.637	0.78
484.07	0.79
484.502	0.8
484.935	0.82
485.368	0.82
485.8	0.84
486.233	0.84
486.665	0.85
487.098	0.85
487.53	0.86
487.962	0.87
488.394	0.89
488.827	0.88
489.259	0.89
489.691	0.9
490.123	0.9
490.555	0.91
490.987	0.93
491.418	0.93
491.85	0.94
492.282	0.95
492.714	0.95
493.145	0.96
493.577	0.96
494.009	0.98
494.44	0.99
494.872	1.01
495.303	1
495.734	1.01
496.166	1.02
496.597	1.03
497.028	1.03
497.459	1.04
497.89	1.04
498.321	1.05
498.752	1.06
499.183	1.07
499.614	1.07
500.045	1.08
500.476	1.09
500.906	1.1
501.337	1.1
501.768	1.11
502.198	1.13
502.629	1.13
503.059	1.13
503.49	1.14
503.92	1.15
504.35	1.16
504.781	1.15
505.211	1.16
505.641	1.17
506.071	1.18
506.501	1.19
506.931	1.18
507.361	1.2
507.791	1.19
508.221	1.21
508.651	1.21
509.081	1.22
509.51	1.23
509.94	1.24
510.37	1.25
510.799	1.25
511.229	1.25
511.658	1.25
512.087	1.26
512.517	1.25
512.946	1.26
513.375	1.27
513.804	1.28
514.234	1.28
514.663	1.29
515.092	1.27
515.521	1.3
515.95	1.29
516.378	1.31
516.807	1.31
517.236	1.31
517.665	1.32
518.093	1.32
518.522	1.32
518.951	1.32
519.379	1.33
519.807	1.34
520.236	1.33
520.664	1.33
521.093	1.34
521.521	1.33
521.949	1.33
522.377	1.35
522.805	1.34
523.233	1.36
523.661	1.36
524.089	1.36
524.517	1.37
524.945	1.37
525.373	1.37
525.8	1.38
526.228	1.38
526.656	1.37
527.083	1.38
527.511	1.39
527.938	1.38
528.366	1.38
528.793	1.38
529.22	1.38
529.648	1.39
530.075	1.38
530.502	1.39
530.929	1.4
531.356	1.4
531.783	1.4
532.21	1.4
532.637	1.4
533.064	1.4
533.49	1.41
533.917	1.4
534.344	1.41
534.771	1.41
535.197	1.41
535.624	1.41
536.05	1.41
536.477	1.41
536.903	1.42
537.329	1.42
537.755	1.41
538.182	1.42
538.608	1.42
539.034	1.43
539.46	1.42
539.886	1.41
540.312	1.41
540.738	1.41
541.164	1.41
541.589	1.42
542.015	1.41
542.441	1.42
542.867	1.42
543.292	1.41
543.718	1.41
544.143	1.41
544.569	1.4
544.994	1.41
545.419	1.41
545.845	1.4
546.27	1.41
546.695	1.4
547.12	1.41
547.545	1.41
547.97	1.4
548.395	1.4
548.82	1.4
549.245	1.39
549.67	1.39
550.094	1.4
550.519	1.39
550.944	1.39
551.368	1.39
551.793	1.37
552.217	1.38
552.642	1.39
553.066	1.37
553.49	1.37
553.915	1.39
554.339	1.38
554.763	1.37
555.187	1.37
555.611	1.37
556.035	1.36
556.459	1.36
556.883	1.36
557.307	1.35
557.731	1.35
558.154	1.35
558.578	1.34
559.002	1.35
559.425	1.33
559.849	1.33
560.272	1.33
560.696	1.33
561.119	1.32
561.543	1.32
561.966	1.32
562.389	1.32
562.812	1.31
563.235	1.3
563.658	1.31
564.081	1.29
564.504	1.3
564.927	1.29
565.35	1.28
565.773	1.28
566.196	1.27
566.618	1.28
567.041	1.27
567.463	1.26
567.886	1.27
568.309	1.27
568.731	1.25
569.153	1.26
569.576	1.26
569.998	1.25
570.42	1.25
570.842	1.25
571.264	1.24
571.686	1.24
572.108	1.23
572.53	1.23
572.952	1.22
573.374	1.22
573.796	1.22
574.218	1.21
574.639	1.2
575.061	1.2
575.483	1.2
575.904	1.19
576.326	1.19
576.747	1.18
577.168	1.18
577.59	1.18
578.011	1.17
578.432	1.17
578.853	1.17
579.274	1.16
579.695	1.15
580.116	1.15
580.537	1.14
580.958	1.15
581.379	1.14
581.8	1.13
582.221	1.13
582.641	1.12
583.062	1.12
583.482	1.11
583.903	1.11
584.323	1.1
584.744	1.1
585.164	1.1
585.584	1.09
586.005	1.09
586.425	1.08
586.845	1.08
587.265	1.08
587.685	1.07
588.105	1.06
588.525	1.06
588.945	1.05
589.365	1.06
589.785	1.05
590.204	1.04
590.624	1.04
591.044	1.04
591.463	1.04
591.883	1.03
592.302	1.03
592.721	1.02
593.141	1.02
593.56	1.02
593.979	1.01
594.399	1
594.818	1
595.237	1
595.656	0.99
596.075	0.99
596.494	0.99
596.913	0.98
597.331	0.98
597.75	0.98
598.169	0.97
598.587	0.97
599.006	0.96
599.425	0.96
599.843	0.96
600.262	0.95
600.68	0.95
601.098	0.94
601.517	0.94
601.935	0.93
602.353	0.93
602.771	0.92
603.189	0.92
603.607	0.92
604.025	0.91
604.443	0.91
604.861	0.9
605.279	0.9
605.696	0.9
606.114	0.89
606.532	0.89
606.949	0.88
607.367	0.87
607.784	0.88
608.202	0.87
608.619	0.87
609.036	0.86
609.454	0.86
609.871	0.85
610.288	0.85
610.705	0.84
611.122	0.84
611.539	0.83
611.956	0.83
612.373	0.83
612.79	0.82
613.207	0.82
613.623	0.82
614.04	0.81
614.457	0.8
614.873	0.8
615.29	0.8
615.706	0.79
616.122	0.79
616.539	0.79
616.955	0.78
617.371	0.77
617.788	0.77
618.204	0.77
618.62	0.76
619.036	0.76
619.452	0.76
619.868	0.75
620.284	0.75
620.699	0.74
621.115	0.74
621.531	0.73
621.946	0.73
622.362	0.72
622.778	0.72
623.193	0.71
623.608	0.71
624.024	0.7
624.439	0.7
624.854	0.7
625.27	0.69
625.685	0.69
626.1	0.68
626.515	0.68
626.93	0.68
627.345	0.67
627.76	0.67
628.175	0.66
628.589	0.66
629.004	0.65
629.419	0.65
629.833	0.64
630.248	0.64
630.663	0.63
631.077	0.63
631.491	0.63
631.906	0.62
632.32	0.62
632.734	0.62
633.148	0.61
633.563	0.6
633.977	0.6
634.391	0.59
634.805	0.59
635.219	0.58
635.632	0.58
636.046	0.58
636.46	0.57
636.874	0.56
637.287	0.56
637.701	0.56
638.115	0.56
638.528	0.55
638.941	0.55
639.355	0.54
639.768	0.54
640.181	0.54
640.595	0.53
641.008	0.53
641.421	0.53
641.834	0.52
642.247	0.51
642.66	0.51
643.073	0.51
643.486	0.5
643.898	0.5
644.311	0.49
644.724	0.49
645.136	0.49
645.549	0.48
645.961	0.48
646.374	0.47
646.786	0.47
647.199	0.47
647.611	0.47
648.023	0.46
648.435	0.46
648.847	0.46
649.26	0.45
649.672	0.45
650.084	0.45
650.495	0.44
650.907	0.44
651.319	0.44
651.731	0.43
652.143	0.43
652.554	0.42
652.966	0.42
653.377	0.42
653.789	0.42
654.2	0.41
654.612	0.41
655.023	0.42
655.434	0.4
655.845	0.39
656.256	0.4
656.668	0.4
657.079	0.4
657.49	0.4
657.901	0.39
658.311	0.39
658.722	0.39
659.133	0.38
659.544	0.38
659.954	0.38
660.365	0.38
660.775	0.37
661.186	0.37
661.596	0.37
662.007	0.36
662.417	0.36
662.827	0.36
663.238	0.35
663.648	0.35
664.058	0.35
664.468	0.35
664.878	0.35
665.288	0.34
665.698	0.34
666.108	0.34
666.517	0.34
666.927	0.33
667.337	0.33
667.746	0.33
668.156	0.32
668.565	0.32
668.975	0.32
669.384	0.32
669.794	0.32
670.203	0.31
670.612	0.31
671.021	0.3
671.43	0.3
671.84	0.3
672.249	0.3
672.658	0.3
673.066	0.29
673.475	0.29
673.884	0.29
674.293	0.29
674.702	0.28
675.11	0.28
675.519	0.28
675.927	0.27
676.336	0.27
676.744	0.27
677.152	0.27
677.561	0.27
677.969	0.26
678.377	0.26
678.785	0.26
679.193	0.25
679.601	0.25
680.009	0.25
680.417	0.25
680.825	0.24
681.233	0.24
681.641	0.24
682.048	0.24
682.456	0.23
682.864	0.23
683.271	0.23
683.679	0.22
684.086	0.22
684.493	0.22
684.901	0.22
685.308	0.22
685.715	0.22
686.122	0.21
686.529	0.21
686.936	0.21
687.343	0.21
687.75	0.2
688.157	0.2
688.564	0.2
688.971	0.2
689.378	0.2
689.784	0.19
690.191	0.19
690.597	0.19
691.004	0.19
691.41	0.18
691.817	0.18
692.223	0.18
692.629	0.18
693.035	0.18
693.442	0.18
693.848	0.18
694.254	0.17
694.66	0.17
695.066	0.17
695.471	0.17
695.877	0.17
696.283	0.16
696.689	0.16
697.094	0.16
697.5	0.16
697.906	0.16
698.311	0.16
698.716	0.16
699.122	0.16
699.527	0.15
699.932	0.15
700.338	0.15
700.743	0.15
701.148	0.15
701.553	0.15
701.958	0.15
702.363	0.15
702.768	0.15
703.173	0.14
703.577	0.15
703.982	0.14
704.387	0.14
704.791	0.14
705.196	0.14
705.6	0.14
706.005	0.14
706.409	0.14
706.814	0.14
707.218	0.14
707.622	0.14
708.026	0.14
708.43	0.14
708.834	0.14
709.238	0.14
709.642	0.13
710.046	0.14
710.45	0.13
710.854	0.13
711.257	0.13
711.661	0.13
712.065	0.13
712.468	0.13
712.872	0.13
713.275	0.13
713.679	0.13
714.082	0.13
714.485	0.13
714.888	0.13
715.291	0.13
715.695	0.13
716.098	0.13
716.501	0.13
716.904	0.13
717.306	0.13
717.709	0.13
718.112	0.13
718.515	0.13
718.917	0.13
719.32	0.13
719.723	0.13
720.125	0.13
720.527	0.13
720.93	0.13
721.332	0.13
721.734	0.13
722.137	0.13
722.539	0.13
722.941	0.13
723.343	0.13
723.745	0.13
724.147	0.13
724.549	0.13
724.95	0.13
725.352	0.13
725.754	0.13
726.156	0.13
726.557	0.13
726.959	0.13
727.36	0.13
727.762	0.13
728.163	0.13
728.564	0.13
728.966	0.13
729.367	0.13
729.768	0.13
730.169	0.13
730.57	0.13
730.971	0.12
731.372	0.13
731.773	0.12
732.174	0.12
732.574	0.12
732.975	0.12
733.376	0.12
733.776	0.12
734.177	0.12
734.577	0.12
734.978	0.12
735.378	0.12
735.778	0.12
736.179	0.12
736.579	0.12
736.979	0.12
737.379	0.12
737.779	0.12
738.179	0.12
738.579	0.12
738.979	0.12
739.379	0.12
739.778	0.12
740.178	0.11
740.578	0.11
740.977	0.11
741.377	0.11
741.776	0.11
742.176	0.11
742.575	0.11
742.974	0.11
743.374	0.11
743.773	0.11
744.172	0.11
744.571	0.11
744.97	0.11
745.369	0.11
745.768	0.11
746.167	0.11
746.565	0.11
746.964	0.11
747.363	0.11
747.761	0.11
748.16	0.11
748.559	0.11
748.957	0.11
749.355	0.1
749.754	0.11
750.152	0.1
750.55	0.11
750.948	0.1
751.347	0.1
751.745	0.11
752.143	0.1
752.541	0.1
752.938	0.1
753.336	0.1
753.734	0.1
754.132	0.1
754.529	0.1
754.927	0.1
755.325	0.1
755.722	0.1
756.119	0.1
756.517	0.1
756.914	0.1
757.311	0.1
757.709	0.1
758.106	0.1
758.503	0.1
758.9	0.1
759.297	0.1
759.694	0.1
760.091	0.1
760.488	0.1
760.884	0.1
761.281	0.1
761.678	0.1
762.074	0.1
762.471	0.1
762.867	0.1
763.264	0.1
763.66	0.1
764.056	0.1
764.453	0.1
764.849	0.1
765.245	0.1
765.641	0.1
766.037	0.1
766.433	0.1
766.829	0.1
767.225	0.1
767.621	0.1
768.016	0.1
768.412	0.1
768.808	0.11
769.203	0.1
769.599	0.11
769.994	0.1
770.389	0.1
770.785	0.11
771.18	0.1
771.575	0.11
771.971	0.11
772.366	0.11
772.761	0.11
773.156	0.11
773.551	0.11
773.945	0.11
774.34	0.11
774.735	0.11
775.13	0.11
775.524	0.11
775.919	0.11
776.314	0.11
776.708	0.11
777.103	0.11
777.497	0.11
777.891	0.11
778.285	0.11
778.68	0.11
779.074	0.12
779.468	0.12
779.862	0.12
780.256	0.12
780.65	0.12
781.044	0.12
781.438	0.12
781.831	0.12
782.225	0.12
782.619	0.12
783.012	0.12
783.406	0.12
783.799	0.12
784.193	0.12
784.586	0.12
784.979	0.12
785.372	0.12
785.766	0.13
786.159	0.13
786.552	0.13
786.945	0.13
787.338	0.13
787.731	0.13
788.123	0.13
788.516	0.13
788.909	0.13
789.302	0.13
789.694	0.13
790.087	0.13
790.479	0.14
790.872	0.13
791.264	0.14
791.656	0.13
792.049	0.14
792.441	0.14
792.833	0.14
793.225	0.14
793.617	0.14
794.009	0.14
794.401	0.14
794.793	0.14
795.185	0.14
795.576	0.14
795.968	0.14
796.36	0.15
796.751	0.15
797.143	0.15
797.534	0.15
797.926	0.15
798.317	0.15
798.708	0.15
799.1	0.15
799.491	0.15
799.882	0.15
800.273	0.15
800.664	0.15
801.055	0.16
801.446	0.16
801.837	0.16
802.227	0.16
802.618	0.16
803.009	0.16
803.399	0.16
803.79	0.16
804.18	0.16
804.571	0.16
804.961	0.16
805.351	0.16
805.742	0.17
806.132	0.17
806.522	0.17
806.912	0.17
807.302	0.17
807.692	0.17
808.082	0.17
808.472	0.17
808.862	0.17
809.251	0.17
809.641	0.17
810.031	0.17
810.42	0.18
810.81	0.18
811.199	0.18
811.589	0.18
811.978	0.18
812.367	0.18
812.756	0.18
813.146	0.19
813.535	0.19
813.924	0.19
814.313	0.19
814.702	0.19
815.091	0.19
815.479	0.19
815.868	0.19
816.257	0.19
816.645	0.19
817.034	0.19
817.423	0.19
817.811	0.19
818.199	0.2
818.588	0.2
818.976	0.2
819.364	0.2
819.753	0.2
820.141	0.2
820.529	0.2
820.917	0.2
821.305	0.2
821.693	0.21
822.08	0.21
822.468	0.21
822.856	0.21
823.244	0.21
823.631	0.21
824.019	0.21
824.406	0.21
824.794	0.21
825.181	0.22
825.568	0.22
825.956	0.22
826.343	0.22
826.73	0.22
827.117	0.22
827.504	0.22
827.891	0.22
828.278	0.22
828.665	0.23
829.052	0.23
829.438	0.23
829.825	0.23
830.212	0.23
830.598	0.23
830.985	0.24
831.371	0.23
831.757	0.24
832.144	0.24
832.53	0.24
832.916	0.24
833.302	0.24
833.688	0.24
834.075	0.24
834.461	0.24
834.846	0.24
835.232	0.25
835.618	0.25
836.004	0.25
836.39	0.25
836.775	0.25
837.161	0.25
837.546	0.25
837.932	0.26
838.317	0.26
838.702	0.26
839.088	0.26
839.473	0.26
839.858	0.26
840.243	0.26
840.628	0.27
841.013	0.26
841.398	0.26
841.783	0.27
842.168	0.27
842.553	0.27
842.937	0.27
843.322	0.27
843.707	0.27
844.091	0.27
844.476	0.27
844.86	0.28
845.244	0.27
845.629	0.28
846.013	0.28
846.397	0.28
846.781	0.28
847.165	0.28
847.549	0.28
847.933	0.29
848.317	0.29
848.701	0.28
849.085	0.29
849.468	0.29
849.852	0.29
850.236	0.29
850.619	0.29
851.003	0.29
851.386	0.3
851.769	0.3
852.153	0.3
852.536	0.3
852.919	0.3
853.302	0.3
853.685	0.3
854.068	0.3
854.451	0.3
854.834	0.31
855.217	0.31
855.6	0.31
855.982	0.31
856.365	0.31
856.748	0.31
857.13	0.31
857.513	0.31
857.895	0.32
858.277	0.32
858.66	0.32
859.042	0.32
859.424	0.32
859.806	0.32
860.188	0.32
860.57	0.32
860.952	0.32
861.334	0.33
861.716	0.33
862.098	0.32
862.48	0.33
862.861	0.33
863.243	0.33
863.624	0.33
864.006	0.33
864.387	0.33
864.769	0.33
865.15	0.33
865.531	0.34
865.912	0.34
866.294	0.34
866.675	0.34
867.056	0.34
867.437	0.34
867.818	0.34
868.198	0.34
868.579	0.34
868.96	0.35
869.341	0.35
869.721	0.35
870.102	0.35
870.482	0.35
870.863	0.35
871.243	0.35
871.623	0.35
872.003	0.35
872.384	0.35
872.764	0.36
873.144	0.36
873.524	0.36
873.904	0.36
874.284	0.36
874.664	0.36
875.043	0.36
875.423	0.36
875.803	0.36
876.182	0.36
876.562	0.37
876.941	0.37
877.321	0.37
877.7	0.37
878.079	0.37
878.459	0.37
878.838	0.37
879.217	0.37
879.596	0.37
879.975	0.38
880.354	0.38
880.733	0.38
881.112	0.38
881.491	0.38
881.869	0.38
882.248	0.38
882.627	0.38
883.005	0.38
883.384	0.38
883.762	0.38
884.14	0.38
884.519	0.39
884.897	0.39
885.275	0.39
885.653	0.39
886.031	0.39
886.409	0.39
886.787	0.39
887.165	0.39
887.543	0.39
887.921	0.4
888.298	0.39
888.676	0.39
889.054	0.39
889.431	0.4
889.809	0.4
890.186	0.39
890.563	0.4
890.941	0.4
891.318	0.4
891.695	0.4
892.072	0.4
892.449	0.4
892.826	0.4
893.203	0.41
893.58	0.41
893.957	0.41
894.334	0.4
894.71	0.4
895.087	0.41
895.464	0.41
895.84	0.41
896.217	0.41
896.593	0.41
896.969	0.41
897.346	0.41
897.722	0.41
898.098	0.41
898.474	0.41
898.85	0.42
899.226	0.42
899.602	0.42
899.978	0.42
900.354	0.42
900.73	0.42
901.105	0.42
901.481	0.42
901.857	0.42
902.232	0.42
902.608	0.42
902.983	0.42
903.358	0.42
903.734	0.42
904.109	0.42
904.484	0.43
904.859	0.43
905.234	0.43
905.609	0.43
905.984	0.43
906.359	0.43
906.734	0.43
907.108	0.43
907.483	0.43
907.858	0.43
908.232	0.43
908.607	0.43
908.981	0.43
909.356	0.43
909.73	0.43
910.104	0.43
910.478	0.43
910.853	0.43
911.227	0.43
911.601	0.43
911.975	0.44
912.349	0.43
912.722	0.44
913.096	0.43
913.47	0.43
913.844	0.43
914.217	0.44
914.591	0.44
914.964	0.44
915.338	0.44
915.711	0.44
916.084	0.44
916.458	0.44
916.831	0.44
917.204	0.44
917.577	0.44
917.95	0.44
918.323	0.44
918.696	0.44
919.069	0.44
919.441	0.44
919.814	0.44
920.187	0.44
920.559	0.44
920.932	0.44
921.304	0.44
921.677	0.44
922.049	0.44
922.421	0.44
922.794	0.44
923.166	0.45
923.538	0.44
923.91	0.45
924.282	0.44
924.654	0.44
925.026	0.44
925.398	0.45
925.769	0.44
926.141	0.45
926.513	0.45
926.884	0.44
927.256	0.44
927.627	0.45
927.999	0.44
928.37	0.44
928.741	0.45
929.113	0.45
929.484	0.45
929.855	0.45
930.226	0.45
930.597	0.45
930.968	0.45
931.339	0.45
931.709	0.44
932.08	0.45
932.451	0.45
932.821	0.45
933.192	0.45
933.562	0.45
933.933	0.45
934.303	0.45
934.673	0.45
935.044	0.45
935.414	0.45
935.784	0.45
936.154	0.45
936.524	0.45
936.894	0.45
937.264	0.45
937.634	0.45
938.004	0.45
938.373	0.45
938.743	0.45
939.113	0.45
939.482	0.45
939.852	0.45
940.221	0.46
940.59	0.45
940.96	0.45
941.329	0.45
941.698	0.45
942.067	0.45
942.436	0.45
942.805	0.45
943.174	0.45
943.543	0.45
943.912	0.45
944.28	0.45
944.649	0.45
945.018	0.45
945.386	0.45
945.755	0.45
946.123	0.45
946.492	0.46
946.86	0.45
947.228	0.45
947.596	0.46
947.965	0.45
948.333	0.45
948.701	0.45
949.069	0.45
949.437	0.45
949.804	0.45
950.172	0.45
950.54	0.45
950.908	0.45
951.275	0.45
951.643	0.45
952.01	0.45
952.378	0.45
952.745	0.45
953.112	0.45
953.479	0.45
953.847	0.45
954.214	0.45
954.581	0.45
954.948	0.45
955.315	0.45
955.682	0.45
956.048	0.45
956.415	0.45
956.782	0.45
957.148	0.45
957.515	0.45
957.881	0.44
958.248	0.45
958.614	0.45
958.981	0.45
959.347	0.45
959.713	0.45
960.079	0.45
960.445	0.44
960.811	0.45
961.177	0.45
961.543	0.45
961.909	0.44
962.275	0.44
962.641	0.44
963.006	0.44
963.372	0.44
963.737	0.44
964.103	0.45
964.468	0.45
964.834	0.44
965.199	0.45
965.564	0.44
965.929	0.44
966.294	0.44
966.659	0.44
967.024	0.44
967.389	0.44
967.754	0.44
968.119	0.44
968.484	0.43
968.848	0.44
969.213	0.44
969.578	0.44
969.942	0.44
970.307	0.44
970.671	0.44
971.035	0.44
971.399	0.43
971.764	0.43
972.128	0.43
972.492	0.44
972.856	0.43
973.22	0.43
973.584	0.43
973.948	0.43
974.311	0.43
974.675	0.43
975.039	0.44
975.402	0.43
975.766	0.43
976.129	0.43
976.493	0.43
976.856	0.43
977.219	0.43
977.582	0.43
977.946	0.43
978.309	0.43
978.672	0.43
979.035	0.43
979.398	0.43
979.761	0.43
980.123	0.43
980.486	0.43
980.849	0.43
981.211	0.43
981.574	0.43
981.936	0.43
982.299	0.43
982.661	0.43
983.023	0.43
983.386	0.43
983.748	0.42
984.11	0.43
984.472	0.43
984.834	0.43
985.196	0.42
985.558	0.43
985.92	0.43
986.281	0.42
986.643	0.42
987.005	0.42
987.366	0.43
987.728	0.42
988.089	0.42
988.451	0.42
988.812	0.42
989.173	0.42
989.534	0.42
989.895	0.42
990.257	0.42
990.618	0.42
990.979	0.42
991.339	0.42
991.7	0.42
992.061	0.42
992.422	0.42
992.782	0.42
993.143	0.41
993.503	0.42
993.864	0.41
994.224	0.41
994.585	0.41
994.945	0.41
995.305	0.41
995.665	0.41
996.025	0.41
996.385	0.42
996.745	0.41
997.105	0.41
997.465	0.41
997.825	0.41
998.185	0.41
998.544	0.41
998.904	0.41
999.263	0.41
999.623	0.41
999.982	0.41
1000.342	0.4
1000.701	0.4
1001.06	0.41
1001.419	0.4
1001.778	0.41
1002.138	0.4
1002.497	0.4
1002.855	0.39
1003.214	0.41
1003.573	0.4
1003.932	0.4
1004.29	0.4
1004.649	0.41
1005.008	0.4
1005.366	0.4
1005.725	0.39
1006.083	0.4
1006.441	0.39
1006.799	0.4
1007.158	0.4
1007.516	0.39
1007.874	0.4
1008.232	0.39
1008.59	0.39
1008.948	0.39
1009.305	0.39
1009.663	0.39
1010.021	0.39
1010.379	0.4
1010.736	0.39
1011.094	0.39
1011.451	0.39
1011.808	0.39
1012.166	0.39
1012.523	0.39
1012.88	0.39
1013.237	0.39
1013.594	0.38
1013.951	0.39
1014.308	0.39
1014.665	0.38
1015.022	0.39
1015.379	0.38
1015.735	0.38
1016.092	0.38
1016.449	0.38
1016.805	0.38
1017.162	0.38
1017.518	0.38
1017.874	0.39
1018.231	0.38
1018.587	0.38
1018.943	0.38
1019.299	0.38
1019.655	0.38
1020.011	0.38
1020.367	0.38
1020.723	0.37
1021.078	0.37
1021.434	0.37
1021.79	0.38
1022.145	0.38
1022.501	0.38
1022.856	0.38
1023.212	0.37
1023.567	0.37
1023.922	0.37
1024.278	0.37
1024.633	0.37
1024.988	0.37
1025.343	0.37
1025.698	0.37
1026.053	0.37
1026.408	0.36
1026.762	0.37
1027.117	0.37
1027.472	0.36
1027.826	0.36
1028.181	0.36
1028.535	0.36
1028.89	0.37
1029.244	0.37
1029.598	0.36
1029.952	0.37
1030.307	0.36
1030.661	0.36
1031.015	0.37
1031.369	0.37
1031.723	0.35
1032.076	0.36
