Data from Rubpy_BV_EDTA_TU(3000)_Blank_Blue_Flow_Absorbance__2851__13-34-13-845.txt Node

Date: Mon Aug 03 13:34:13 BST 2026
User: fpm-admin
Spectrometer: SR600986
Trigger mode: 0
Integration Time (sec): 8.000000E-3
Scans to average: 3
Nonlinearity correction enabled: true
Boxcar width: 0
Storing dark spectrum: false
XAxis mode: Wavelengths
Number of Pixels in Spectrum: 2048
>>>>>Begin Spectral Data<<<<<
188.613	0.32
189.078	0.32
189.542	0.29
190.007	0.35
190.472	0.3
190.936	0.3
191.401	0.32
191.865	0.32
192.33	0.3
192.794	0.32
193.258	0.3
193.723	0.35
194.187	0.32
194.651	0.31
195.115	0.32
195.579	0.33
196.043	0.29
196.507	0.28
196.971	0.33
197.435	0.34
197.899	0.31
198.363	0.32
198.827	0.3
199.29	0.29
199.754	0.32
200.218	0.32
200.681	0.28
201.145	0.32
201.608	0.32
202.072	0.33
202.535	0.3
202.998	0.32
203.462	0.34
203.925	0.32
204.388	0.33
204.851	0.3
205.314	0.31
205.777	0.32
206.24	0.31
206.703	0.31
207.166	0.3
207.629	0.34
208.092	0.31
208.555	0.31
209.018	0.3
209.48	0.29
209.943	0.33
210.406	0.31
210.868	0.29
211.331	0.31
211.793	0.3
212.256	0.32
212.718	0.3
213.18	0.31
213.643	0.33
214.105	0.31
214.567	0.3
215.029	0.35
215.491	0.28
215.953	0.31
216.415	0.34
216.877	0.32
217.339	0.32
217.801	0.34
218.263	0.3
218.725	0.34
219.186	0.32
219.648	0.31
220.11	0.3
220.571	0.31
221.033	0.33
221.494	0.32
221.956	0.33
222.417	0.31
222.878	0.3
223.34	0.32
223.801	0.33
224.262	0.31
224.723	0.3
225.185	0.31
225.646	0.28
226.107	0.34
226.568	0.31
227.029	0.33
227.489	0.31
227.95	0.31
228.411	0.31
228.872	0.31
229.332	0.28
229.793	0.31
230.254	0.31
230.714	0.34
231.175	0.31
231.635	0.3
232.096	0.3
232.556	0.31
233.016	0.33
233.477	0.31
233.937	0.28
234.397	0.29
234.857	0.32
235.317	0.32
235.777	0.29
236.237	0.33
236.697	0.33
237.157	0.3
237.617	0.28
238.077	0.32
238.537	0.33
238.996	0.3
239.456	0.31
239.916	0.31
240.375	0.28
240.835	0.31
241.294	0.33
241.754	0.3
242.213	0.3
242.672	0.32
243.132	0.31
243.591	0.34
244.05	0.31
244.509	0.28
244.968	0.31
245.427	0.34
245.886	0.32
246.345	0.3
246.804	0.31
247.263	0.32
247.722	0.31
248.181	0.27
248.639	0.32
249.098	0.32
249.557	0.32
250.015	0.36
250.474	0.28
250.932	0.37
251.391	0.29
251.849	0.32
252.308	0.36
252.766	0.31
253.224	0.33
253.682	0.36
254.14	0.3
254.599	0.33
255.057	0.32
255.515	0.29
255.973	0.29
256.431	0.33
256.888	0.29
257.346	0.32
257.804	0.28
258.262	0.33
258.719	0.34
259.177	0.31
259.635	0.29
260.092	0.33
260.55	0.33
261.007	0.31
261.465	0.3
261.922	0.33
262.379	0.33
262.836	0.34
263.294	0.3
263.751	0.31
264.208	0.33
264.665	0.31
265.122	0.31
265.579	0.3
266.036	0.35
266.493	0.34
266.95	0.34
267.406	0.34
267.863	0.31
268.32	0.32
268.777	0.3
269.233	0.32
269.69	0.3
270.146	0.33
270.603	0.31
271.059	0.3
271.515	0.32
271.972	0.31
272.428	0.28
272.884	0.31
273.34	0.36
273.796	0.27
274.253	0.32
274.709	0.29
275.165	0.33
275.62	0.32
276.076	0.29
276.532	0.31
276.988	0.3
277.444	0.33
277.899	0.32
278.355	0.32
278.811	0.32
279.266	0.3
279.722	0.3
280.177	0.3
280.633	0.32
281.088	0.33
281.543	0.3
281.998	0.35
282.454	0.28
282.909	0.33
283.364	0.32
283.819	0.35
284.274	0.3
284.729	0.33
285.184	0.34
285.639	0.27
286.094	0.33
286.548	0.34
287.003	0.32
287.458	0.31
287.913	0.32
288.367	0.34
288.822	0.33
289.276	0.32
289.731	0.29
290.185	0.32
290.639	0.31
291.094	0.3
291.548	0.35
292.002	0.3
292.456	0.31
292.91	0.32
293.365	0.32
293.819	0.33
294.273	0.3
294.726	0.34
295.18	0.33
295.634	0.33
296.088	0.34
296.542	0.32
296.995	0.32
297.449	0.33
297.903	0.3
298.356	0.29
298.81	0.3
299.263	0.35
299.716	0.32
300.17	0.33
300.623	0.31
301.076	0.33
301.53	0.32
301.983	0.37
302.436	0.31
302.889	0.33
303.342	0.3
303.795	0.31
304.248	0.34
304.701	0.35
305.153	0.31
305.606	0.33
306.059	0.34
306.512	0.33
306.964	0.36
307.417	0.3
307.869	0.36
308.322	0.32
308.774	0.31
309.227	0.33
309.679	0.32
310.131	0.32
310.584	0.37
311.036	0.3
311.488	0.35
311.94	0.35
312.392	0.31
312.844	0.33
313.296	0.33
313.748	0.32
314.2	0.38
314.652	0.32
315.103	0.35
315.555	0.33
316.007	0.37
316.458	0.34
316.91	0.37
317.361	0.34
317.813	0.38
318.264	0.38
318.716	0.35
319.167	0.39
319.618	0.41
320.07	0.41
320.521	0.38
320.972	0.39
321.423	0.42
321.874	0.39
322.325	0.43
322.776	0.43
323.227	0.45
323.678	0.43
324.128	0.42
324.579	0.49
325.03	0.45
325.48	0.48
325.931	0.49
326.382	0.51
326.832	0.5
327.283	0.53
327.733	0.58
328.183	0.54
328.634	0.63
329.084	0.61
329.534	0.63
329.984	0.67
330.434	0.65
330.884	0.74
331.334	0.71
331.784	0.73
332.234	0.76
332.684	0.76
333.134	0.79
333.584	0.81
334.034	0.81
334.483	0.85
334.933	0.86
335.382	0.88
335.832	0.9
336.281	0.92
336.731	0.92
337.18	0.95
337.63	0.99
338.079	0.99
338.528	0.99
338.977	1.05
339.426	1.06
339.876	1.09
340.325	1.1
340.774	1.11
341.223	1.13
341.671	1.13
342.12	1.15
342.569	1.15
343.018	1.21
343.467	1.19
343.915	1.22
344.364	1.23
344.812	1.27
345.261	1.27
345.709	1.27
346.158	1.31
346.606	1.3
347.054	1.31
347.503	1.33
347.951	1.31
348.399	1.3
348.847	1.34
349.295	1.34
349.743	1.34
350.191	1.35
350.639	1.39
351.087	1.38
351.535	1.38
351.983	1.4
352.43	1.4
352.878	1.38
353.326	1.44
353.773	1.42
354.221	1.44
354.668	1.41
355.116	1.45
355.563	1.48
356.01	1.45
356.458	1.45
356.905	1.48
357.352	1.54
357.799	1.48
358.246	1.56
358.693	1.53
359.14	1.54
359.587	1.55
360.034	1.54
360.481	1.59
360.928	1.55
361.375	1.6
361.821	1.59
362.268	1.63
362.714	1.63
363.161	1.65
363.608	1.61
364.054	1.63
364.5	1.65
364.947	1.62
365.393	1.65
365.839	1.67
366.285	1.65
366.732	1.67
367.178	1.68
367.624	1.69
368.07	1.69
368.516	1.66
368.962	1.69
369.408	1.68
369.853	1.71
370.299	1.71
370.745	1.65
371.19	1.68
371.636	1.67
372.082	1.69
372.527	1.67
372.973	1.72
373.418	1.69
373.863	1.68
374.309	1.65
374.754	1.69
375.199	1.73
375.644	1.68
376.09	1.7
376.535	1.68
376.98	1.68
377.425	1.68
377.87	1.68
378.314	1.66
378.759	1.68
379.204	1.65
379.649	1.64
380.093	1.64
380.538	1.63
380.983	1.61
381.427	1.58
381.872	1.55
382.316	1.56
382.76	1.52
383.205	1.51
383.649	1.49
384.093	1.47
384.537	1.44
384.982	1.44
385.426	1.39
385.87	1.37
386.314	1.35
386.758	1.32
387.201	1.3
387.645	1.27
388.089	1.24
388.533	1.2
388.976	1.2
389.42	1.17
389.864	1.14
390.307	1.12
390.751	1.1
391.194	1.06
391.638	1.06
392.081	1.03
392.524	1.02
392.967	1
393.411	0.97
393.854	0.97
394.297	0.96
394.74	0.94
395.183	0.93
395.626	0.91
396.069	0.91
396.512	0.89
396.954	0.9
397.397	0.9
397.84	0.9
398.282	0.9
398.725	0.89
399.168	0.89
399.61	0.88
400.052	0.88
400.495	0.86
400.937	0.85
401.38	0.83
401.822	0.83
402.264	0.79
402.706	0.79
403.148	0.77
403.59	0.76
404.032	0.73
404.474	0.71
404.916	0.68
405.358	0.67
405.8	0.64
406.241	0.62
406.683	0.6
407.125	0.58
407.566	0.55
408.008	0.53
408.449	0.52
408.891	0.5
409.332	0.49
409.774	0.47
410.215	0.44
410.656	0.43
411.097	0.42
411.539	0.41
411.98	0.39
412.421	0.38
412.862	0.37
413.303	0.35
413.744	0.35
414.184	0.33
414.625	0.32
415.066	0.32
415.507	0.32
415.947	0.33
416.388	0.3
416.828	0.29
417.269	0.3
417.709	0.29
418.15	0.29
418.59	0.28
419.03	0.29
419.471	0.28
419.911	0.27
420.351	0.26
420.791	0.26
421.231	0.25
421.671	0.26
422.111	0.27
422.551	0.26
422.991	0.27
423.431	0.26
423.87	0.26
424.31	0.27
424.75	0.26
425.189	0.28
425.629	0.26
426.068	0.26
426.508	0.24
426.947	0.27
427.386	0.26
427.826	0.25
428.265	0.26
428.704	0.24
429.143	0.26
429.582	0.25
430.021	0.27
430.46	0.26
430.899	0.25
431.338	0.27
431.777	0.25
432.216	0.24
432.655	0.26
433.093	0.26
433.532	0.27
433.971	0.26
434.409	0.26
434.848	0.26
435.286	0.25
435.724	0.26
436.163	0.28
436.601	0.27
437.039	0.29
437.477	0.26
437.916	0.28
438.354	0.26
438.792	0.26
439.23	0.28
439.668	0.29
440.105	0.28
440.543	0.3
440.981	0.29
441.419	0.28
441.856	0.28
442.294	0.29
442.732	0.29
443.169	0.29
443.607	0.28
444.044	0.3
444.481	0.3
444.919	0.3
445.356	0.31
445.793	0.31
446.23	0.31
446.668	0.29
447.105	0.29
447.542	0.32
447.979	0.31
448.416	0.34
448.852	0.31
449.289	0.31
449.726	0.32
450.163	0.31
450.599	0.32
451.036	0.32
451.473	0.32
451.909	0.31
452.346	0.33
452.782	0.34
453.218	0.31
453.655	0.32
454.091	0.35
454.527	0.32
454.963	0.34
455.399	0.33
455.835	0.37
456.271	0.33
456.707	0.31
457.143	0.33
457.579	0.35
458.015	0.34
458.451	0.32
458.886	0.33
459.322	0.34
459.758	0.34
460.193	0.37
460.629	0.37
461.064	0.36
461.5	0.38
461.935	0.33
462.37	0.37
462.805	0.39
463.241	0.38
463.676	0.4
464.111	0.39
464.546	0.42
464.981	0.4
465.416	0.39
465.851	0.42
466.286	0.41
466.72	0.42
467.155	0.43
467.59	0.42
468.024	0.45
468.459	0.44
468.893	0.43
469.328	0.46
469.762	0.44
470.197	0.47
470.631	0.49
471.065	0.49
471.5	0.48
471.934	0.5
472.368	0.5
472.802	0.53
473.236	0.54
473.67	0.54
474.104	0.55
474.538	0.56
474.972	0.57
475.405	0.58
475.839	0.59
476.273	0.59
476.706	0.58
477.14	0.62
477.573	0.61
478.007	0.63
478.44	0.64
478.874	0.65
479.307	0.65
479.74	0.66
480.173	0.68
480.606	0.69
481.04	0.69
481.473	0.7
481.906	0.71
482.339	0.71
482.771	0.73
483.204	0.73
483.637	0.73
484.07	0.74
484.502	0.77
484.935	0.77
485.368	0.78
485.8	0.79
486.233	0.8
486.665	0.81
487.098	0.8
487.53	0.81
487.962	0.82
488.394	0.82
488.827	0.84
489.259	0.84
489.691	0.85
490.123	0.85
490.555	0.86
490.987	0.87
491.418	0.87
491.85	0.89
492.282	0.89
492.714	0.9
493.145	0.91
493.577	0.91
494.009	0.93
494.44	0.93
494.872	0.94
495.303	0.94
495.734	0.96
496.166	0.96
496.597	0.97
497.028	0.97
497.459	0.98
497.89	0.99
498.321	1
498.752	1
499.183	1.02
499.614	1.01
500.045	1.02
500.476	1.04
500.906	1.04
501.337	1.05
501.768	1.06
502.198	1.06
502.629	1.07
503.059	1.07
503.49	1.08
503.92	1.08
504.35	1.1
504.781	1.1
505.211	1.1
505.641	1.11
506.071	1.11
506.501	1.13
506.931	1.12
507.361	1.13
507.791	1.14
508.221	1.14
508.651	1.15
509.081	1.15
509.51	1.16
509.94	1.17
510.37	1.18
510.799	1.18
511.229	1.19
511.658	1.18
512.087	1.19
512.517	1.2
512.946	1.19
513.375	1.21
513.804	1.22
514.234	1.2
514.663	1.22
515.092	1.23
515.521	1.23
515.95	1.22
516.378	1.24
516.807	1.23
517.236	1.24
517.665	1.25
518.093	1.26
518.522	1.25
518.951	1.27
519.379	1.28
519.807	1.26
520.236	1.26
520.664	1.29
521.093	1.28
521.521	1.28
521.949	1.27
522.377	1.28
522.805	1.28
523.233	1.28
523.661	1.3
524.089	1.29
524.517	1.29
524.945	1.3
525.373	1.31
525.8	1.3
526.228	1.31
526.656	1.31
527.083	1.31
527.511	1.33
527.938	1.31
528.366	1.3
528.793	1.33
529.22	1.31
529.648	1.32
530.075	1.32
530.502	1.32
530.929	1.34
531.356	1.32
531.783	1.32
532.21	1.33
532.637	1.33
533.064	1.33
533.49	1.34
533.917	1.33
534.344	1.35
534.771	1.33
535.197	1.35
535.624	1.33
536.05	1.34
536.477	1.35
536.903	1.35
537.329	1.34
537.755	1.34
538.182	1.35
538.608	1.34
539.034	1.34
539.46	1.35
539.886	1.35
540.312	1.34
540.738	1.35
541.164	1.34
541.589	1.35
542.015	1.34
542.441	1.33
542.867	1.35
543.292	1.35
543.718	1.34
544.143	1.34
544.569	1.34
544.994	1.34
545.419	1.34
545.845	1.34
546.27	1.33
546.695	1.33
547.12	1.34
547.545	1.34
547.97	1.32
548.395	1.32
548.82	1.32
549.245	1.32
549.67	1.33
550.094	1.32
550.519	1.32
550.944	1.33
551.368	1.31
551.793	1.31
552.217	1.32
552.642	1.31
553.066	1.33
553.49	1.3
553.915	1.3
554.339	1.31
554.763	1.3
555.187	1.3
555.611	1.31
556.035	1.3
556.459	1.29
556.883	1.29
557.307	1.28
557.731	1.28
558.154	1.27
558.578	1.27
559.002	1.28
559.425	1.27
559.849	1.26
560.272	1.27
560.696	1.26
561.119	1.26
561.543	1.25
561.966	1.26
562.389	1.25
562.812	1.25
563.235	1.24
563.658	1.23
564.081	1.23
564.504	1.23
564.927	1.22
565.35	1.21
565.773	1.22
566.196	1.21
566.618	1.21
567.041	1.21
567.463	1.2
567.886	1.19
568.309	1.2
568.731	1.2
569.153	1.2
569.576	1.19
569.998	1.19
570.42	1.18
570.842	1.18
571.264	1.18
571.686	1.17
572.108	1.17
572.53	1.16
572.952	1.16
573.374	1.16
573.796	1.15
574.218	1.15
574.639	1.14
575.061	1.13
575.483	1.13
575.904	1.13
576.326	1.12
576.747	1.12
577.168	1.12
577.59	1.11
578.011	1.11
578.432	1.1
578.853	1.1
579.274	1.09
579.695	1.09
580.116	1.09
580.537	1.08
580.958	1.08
581.379	1.07
581.8	1.07
582.221	1.07
582.641	1.06
583.062	1.05
583.482	1.05
583.903	1.05
584.323	1.04
584.744	1.04
585.164	1.03
585.584	1.03
586.005	1.03
586.425	1.02
586.845	1.02
587.265	1.01
587.685	1.01
588.105	1
588.525	1
588.945	1
589.365	0.99
589.785	0.99
590.204	0.99
590.624	0.98
591.044	0.98
591.463	0.97
591.883	0.97
592.302	0.97
592.721	0.97
593.141	0.96
593.56	0.96
593.979	0.95
594.399	0.95
594.818	0.94
595.237	0.94
595.656	0.94
596.075	0.94
596.494	0.94
596.913	0.93
597.331	0.92
597.75	0.92
598.169	0.92
598.587	0.92
599.006	0.91
599.425	0.9
599.843	0.9
600.262	0.89
600.68	0.9
601.098	0.89
601.517	0.88
601.935	0.88
602.353	0.88
602.771	0.87
603.189	0.87
603.607	0.87
604.025	0.86
604.443	0.86
604.861	0.86
605.279	0.85
605.696	0.85
606.114	0.84
606.532	0.84
606.949	0.84
607.367	0.83
607.784	0.83
608.202	0.82
608.619	0.82
609.036	0.81
609.454	0.81
609.871	0.8
610.288	0.8
610.705	0.8
611.122	0.79
611.539	0.79
611.956	0.79
612.373	0.79
612.79	0.78
613.207	0.78
613.623	0.77
614.04	0.77
614.457	0.76
614.873	0.76
615.29	0.75
615.706	0.75
616.122	0.74
616.539	0.74
616.955	0.74
617.371	0.73
617.788	0.73
618.204	0.73
618.62	0.72
619.036	0.72
619.452	0.71
619.868	0.71
620.284	0.7
620.699	0.7
621.115	0.69
621.531	0.69
621.946	0.69
622.362	0.68
622.778	0.68
623.193	0.68
623.608	0.67
624.024	0.67
624.439	0.66
624.854	0.66
625.27	0.65
625.685	0.65
626.1	0.65
626.515	0.65
626.93	0.64
627.345	0.63
627.76	0.63
628.175	0.63
628.589	0.62
629.004	0.62
629.419	0.61
629.833	0.61
630.248	0.61
630.663	0.6
631.077	0.59
631.491	0.59
631.906	0.59
632.32	0.59
632.734	0.58
633.148	0.58
633.563	0.57
633.977	0.56
634.391	0.56
634.805	0.56
635.219	0.55
635.632	0.55
636.046	0.55
636.46	0.54
636.874	0.54
637.287	0.53
637.701	0.53
638.115	0.52
638.528	0.52
638.941	0.52
639.355	0.51
639.768	0.51
640.181	0.51
640.595	0.5
641.008	0.5
641.421	0.49
641.834	0.49
642.247	0.49
642.66	0.48
643.073	0.48
643.486	0.47
643.898	0.47
644.311	0.47
644.724	0.46
645.136	0.46
645.549	0.46
645.961	0.45
646.374	0.45
646.786	0.44
647.199	0.44
647.611	0.44
648.023	0.44
648.435	0.43
648.847	0.43
649.26	0.43
649.672	0.42
650.084	0.42
650.495	0.42
650.907	0.42
651.319	0.41
651.731	0.41
652.143	0.41
652.554	0.4
652.966	0.4
653.377	0.4
653.789	0.4
654.2	0.39
654.612	0.39
655.023	0.4
655.434	0.38
655.845	0.37
656.256	0.38
656.668	0.38
657.079	0.38
657.49	0.37
657.901	0.37
658.311	0.37
658.722	0.36
659.133	0.36
659.544	0.36
659.954	0.36
660.365	0.35
660.775	0.35
661.186	0.35
661.596	0.35
662.007	0.35
662.417	0.34
662.827	0.34
663.238	0.34
663.648	0.34
664.058	0.33
664.468	0.33
664.878	0.33
665.288	0.32
665.698	0.32
666.108	0.32
666.517	0.32
666.927	0.32
667.337	0.31
667.746	0.31
668.156	0.31
668.565	0.3
668.975	0.3
669.384	0.3
669.794	0.3
670.203	0.29
670.612	0.29
671.021	0.29
671.43	0.29
671.84	0.28
672.249	0.28
672.658	0.28
673.066	0.28
673.475	0.28
673.884	0.27
674.293	0.27
674.702	0.27
675.11	0.26
675.519	0.26
675.927	0.26
676.336	0.26
676.744	0.26
677.152	0.25
677.561	0.25
677.969	0.25
678.377	0.24
678.785	0.25
679.193	0.24
679.601	0.24
680.009	0.23
680.417	0.23
680.825	0.23
681.233	0.23
681.641	0.22
682.048	0.22
682.456	0.22
682.864	0.22
683.271	0.22
683.679	0.21
684.086	0.21
684.493	0.21
684.901	0.21
685.308	0.21
685.715	0.2
686.122	0.2
686.529	0.2
686.936	0.2
687.343	0.19
687.75	0.19
688.157	0.19
688.564	0.19
688.971	0.19
689.378	0.18
689.784	0.18
690.191	0.18
690.597	0.18
691.004	0.18
691.41	0.17
691.817	0.17
692.223	0.17
692.629	0.17
693.035	0.17
693.442	0.17
693.848	0.17
694.254	0.16
694.66	0.16
695.066	0.16
695.471	0.16
695.877	0.16
696.283	0.16
696.689	0.16
697.094	0.16
697.5	0.15
697.906	0.15
698.311	0.15
698.716	0.15
699.122	0.15
699.527	0.14
699.932	0.14
700.338	0.14
700.743	0.14
701.148	0.14
701.553	0.14
701.958	0.14
702.363	0.14
702.768	0.14
703.173	0.14
703.577	0.14
703.982	0.13
704.387	0.13
704.791	0.13
705.196	0.13
705.6	0.13
706.005	0.13
706.409	0.13
706.814	0.13
707.218	0.13
707.622	0.13
708.026	0.13
708.43	0.13
708.834	0.13
709.238	0.13
709.642	0.13
710.046	0.13
710.45	0.13
710.854	0.13
711.257	0.12
711.661	0.13
712.065	0.13
712.468	0.12
712.872	0.12
713.275	0.12
713.679	0.12
714.082	0.12
714.485	0.12
714.888	0.13
715.291	0.12
715.695	0.12
716.098	0.12
716.501	0.12
716.904	0.12
717.306	0.12
717.709	0.12
718.112	0.12
718.515	0.12
718.917	0.12
719.32	0.12
719.723	0.12
720.125	0.12
720.527	0.12
720.93	0.12
721.332	0.12
721.734	0.12
722.137	0.12
722.539	0.12
722.941	0.12
723.343	0.12
723.745	0.12
724.147	0.12
724.549	0.12
724.95	0.12
725.352	0.12
725.754	0.12
726.156	0.12
726.557	0.12
726.959	0.12
727.36	0.12
727.762	0.12
728.163	0.12
728.564	0.12
728.966	0.12
729.367	0.12
729.768	0.12
730.169	0.12
730.57	0.12
730.971	0.12
731.372	0.12
731.773	0.12
732.174	0.12
732.574	0.11
732.975	0.12
733.376	0.12
733.776	0.12
734.177	0.12
734.577	0.12
734.978	0.11
735.378	0.12
735.778	0.11
736.179	0.11
736.579	0.11
736.979	0.11
737.379	0.11
737.779	0.11
738.179	0.11
738.579	0.11
738.979	0.11
739.379	0.11
739.778	0.11
740.178	0.11
740.578	0.11
740.977	0.11
741.377	0.11
741.776	0.11
742.176	0.11
742.575	0.11
742.974	0.11
743.374	0.11
743.773	0.1
744.172	0.1
744.571	0.1
744.97	0.1
745.369	0.11
745.768	0.1
746.167	0.1
746.565	0.1
746.964	0.1
747.363	0.1
747.761	0.1
748.16	0.1
748.559	0.1
748.957	0.1
749.355	0.1
749.754	0.1
750.152	0.1
750.55	0.1
750.948	0.1
751.347	0.1
751.745	0.1
752.143	0.1
752.541	0.1
752.938	0.1
753.336	0.1
753.734	0.1
754.132	0.1
754.529	0.1
754.927	0.09
755.325	0.09
755.722	0.09
756.119	0.09
756.517	0.1
756.914	0.09
757.311	0.09
757.709	0.09
758.106	0.09
758.503	0.1
758.9	0.09
759.297	0.09
759.694	0.09
760.091	0.09
760.488	0.09
760.884	0.1
761.281	0.09
761.678	0.1
762.074	0.1
762.471	0.09
762.867	0.1
763.264	0.09
763.66	0.09
764.056	0.09
764.453	0.1
764.849	0.1
765.245	0.1
765.641	0.1
766.037	0.09
766.433	0.09
766.829	0.1
767.225	0.09
767.621	0.1
768.016	0.1
768.412	0.1
768.808	0.1
769.203	0.1
769.599	0.1
769.994	0.1
770.389	0.1
770.785	0.1
771.18	0.1
771.575	0.1
771.971	0.1
772.366	0.1
772.761	0.1
773.156	0.1
773.551	0.1
773.945	0.1
774.34	0.1
774.735	0.1
775.13	0.1
775.524	0.1
775.919	0.1
776.314	0.1
776.708	0.1
777.103	0.11
777.497	0.11
777.891	0.11
778.285	0.11
778.68	0.11
779.074	0.11
779.468	0.11
779.862	0.11
780.256	0.11
780.65	0.11
781.044	0.11
781.438	0.11
781.831	0.11
782.225	0.11
782.619	0.11
783.012	0.11
783.406	0.11
783.799	0.11
784.193	0.11
784.586	0.11
784.979	0.12
785.372	0.12
785.766	0.12
786.159	0.12
786.552	0.12
786.945	0.12
787.338	0.12
787.731	0.12
788.123	0.12
788.516	0.12
788.909	0.12
789.302	0.12
789.694	0.13
790.087	0.12
790.479	0.13
790.872	0.13
791.264	0.13
791.656	0.13
792.049	0.13
792.441	0.13
792.833	0.13
793.225	0.13
793.617	0.13
794.009	0.13
794.401	0.13
794.793	0.13
795.185	0.13
795.576	0.13
795.968	0.14
796.36	0.14
796.751	0.14
797.143	0.14
797.534	0.14
797.926	0.14
798.317	0.14
798.708	0.14
799.1	0.14
799.491	0.14
799.882	0.14
800.273	0.14
800.664	0.14
801.055	0.14
801.446	0.15
801.837	0.15
802.227	0.15
802.618	0.15
803.009	0.15
803.399	0.15
803.79	0.15
804.18	0.15
804.571	0.15
804.961	0.15
805.351	0.16
805.742	0.16
806.132	0.16
806.522	0.16
806.912	0.16
807.302	0.16
807.692	0.16
808.082	0.16
808.472	0.16
808.862	0.16
809.251	0.16
809.641	0.16
810.031	0.16
810.42	0.17
810.81	0.17
811.199	0.17
811.589	0.17
811.978	0.17
812.367	0.17
812.756	0.17
813.146	0.17
813.535	0.18
813.924	0.18
814.313	0.17
814.702	0.18
815.091	0.18
815.479	0.18
815.868	0.18
816.257	0.18
816.645	0.18
817.034	0.18
817.423	0.18
817.811	0.18
818.199	0.18
818.588	0.19
818.976	0.19
819.364	0.19
819.753	0.19
820.141	0.19
820.529	0.19
820.917	0.19
821.305	0.19
821.693	0.2
822.08	0.19
822.468	0.2
822.856	0.2
823.244	0.2
823.631	0.2
824.019	0.2
824.406	0.2
824.794	0.2
825.181	0.2
825.568	0.2
825.956	0.21
826.343	0.2
826.73	0.21
827.117	0.21
827.504	0.21
827.891	0.21
828.278	0.21
828.665	0.21
829.052	0.21
829.438	0.22
829.825	0.22
830.212	0.22
830.598	0.22
830.985	0.22
831.371	0.22
831.757	0.22
832.144	0.22
832.53	0.22
832.916	0.23
833.302	0.23
833.688	0.23
834.075	0.23
834.461	0.23
834.846	0.23
835.232	0.23
835.618	0.23
836.004	0.24
836.39	0.24
836.775	0.24
837.161	0.24
837.546	0.24
837.932	0.24
838.317	0.24
838.702	0.24
839.088	0.24
839.473	0.25
839.858	0.25
840.243	0.25
840.628	0.25
841.013	0.25
841.398	0.25
841.783	0.25
842.168	0.25
842.553	0.25
842.937	0.26
843.322	0.25
843.707	0.25
844.091	0.26
844.476	0.26
844.86	0.26
845.244	0.26
845.629	0.26
846.013	0.26
846.397	0.26
846.781	0.27
847.165	0.27
847.549	0.27
847.933	0.27
848.317	0.27
848.701	0.27
849.085	0.27
849.468	0.27
849.852	0.27
850.236	0.27
850.619	0.28
851.003	0.28
851.386	0.28
851.769	0.28
852.153	0.28
852.536	0.28
852.919	0.28
853.302	0.28
853.685	0.28
854.068	0.28
854.451	0.29
854.834	0.29
855.217	0.29
855.6	0.29
855.982	0.29
856.365	0.29
856.748	0.29
857.13	0.29
857.513	0.29
857.895	0.3
858.277	0.3
858.66	0.3
859.042	0.3
859.424	0.3
859.806	0.3
860.188	0.3
860.57	0.3
860.952	0.31
861.334	0.31
861.716	0.31
862.098	0.31
862.48	0.31
862.861	0.31
863.243	0.31
863.624	0.31
864.006	0.31
864.387	0.31
864.769	0.31
865.15	0.32
865.531	0.32
865.912	0.32
866.294	0.32
866.675	0.32
867.056	0.32
867.437	0.32
867.818	0.32
868.198	0.32
868.579	0.32
868.96	0.32
869.341	0.33
869.721	0.33
870.102	0.33
870.482	0.33
870.863	0.33
871.243	0.33
871.623	0.33
872.003	0.33
872.384	0.34
872.764	0.34
873.144	0.34
873.524	0.34
873.904	0.34
874.284	0.34
874.664	0.34
875.043	0.34
875.423	0.34
875.803	0.34
876.182	0.34
876.562	0.34
876.941	0.35
877.321	0.35
877.7	0.35
878.079	0.35
878.459	0.35
878.838	0.35
879.217	0.35
879.596	0.35
879.975	0.35
880.354	0.36
880.733	0.36
881.112	0.35
881.491	0.36
881.869	0.36
882.248	0.36
882.627	0.36
883.005	0.36
883.384	0.36
883.762	0.36
884.14	0.36
884.519	0.37
884.897	0.37
885.275	0.37
885.653	0.37
886.031	0.37
886.409	0.37
886.787	0.37
887.165	0.37
887.543	0.37
887.921	0.37
888.298	0.37
888.676	0.37
889.054	0.37
889.431	0.37
889.809	0.37
890.186	0.37
890.563	0.38
890.941	0.38
891.318	0.38
891.695	0.38
892.072	0.38
892.449	0.38
892.826	0.38
893.203	0.38
893.58	0.38
893.957	0.39
894.334	0.38
894.71	0.39
895.087	0.38
895.464	0.38
895.84	0.38
896.217	0.39
896.593	0.39
896.969	0.39
897.346	0.39
897.722	0.39
898.098	0.39
898.474	0.39
898.85	0.39
899.226	0.39
899.602	0.39
899.978	0.39
900.354	0.39
900.73	0.4
901.105	0.39
901.481	0.4
901.857	0.4
902.232	0.4
902.608	0.4
902.983	0.4
903.358	0.4
903.734	0.4
904.109	0.4
904.484	0.4
904.859	0.4
905.234	0.4
905.609	0.4
905.984	0.4
906.359	0.4
906.734	0.4
907.108	0.41
907.483	0.41
907.858	0.4
908.232	0.4
908.607	0.4
908.981	0.4
909.356	0.4
909.73	0.41
910.104	0.41
910.478	0.41
910.853	0.41
911.227	0.41
911.601	0.41
911.975	0.41
912.349	0.41
912.722	0.41
913.096	0.41
913.47	0.41
913.844	0.41
914.217	0.41
914.591	0.41
914.964	0.41
915.338	0.41
915.711	0.41
916.084	0.41
916.458	0.42
916.831	0.41
917.204	0.41
917.577	0.42
917.95	0.41
918.323	0.41
918.696	0.42
919.069	0.41
919.441	0.42
919.814	0.41
920.187	0.42
920.559	0.42
920.932	0.41
921.304	0.41
921.677	0.42
922.049	0.42
922.421	0.42
922.794	0.42
923.166	0.42
923.538	0.42
923.91	0.42
924.282	0.42
924.654	0.42
925.026	0.42
925.398	0.42
925.769	0.42
926.141	0.42
926.513	0.42
926.884	0.42
927.256	0.42
927.627	0.42
927.999	0.42
928.37	0.42
928.741	0.42
929.113	0.42
929.484	0.42
929.855	0.42
930.226	0.42
930.597	0.42
930.968	0.42
931.339	0.43
931.709	0.42
932.08	0.42
932.451	0.42
932.821	0.43
933.192	0.42
933.562	0.42
933.933	0.42
934.303	0.43
934.673	0.42
935.044	0.42
935.414	0.42
935.784	0.42
936.154	0.43
936.524	0.42
936.894	0.42
937.264	0.43
937.634	0.43
938.004	0.42
938.373	0.43
938.743	0.43
939.113	0.43
939.482	0.43
939.852	0.43
940.221	0.43
940.59	0.42
940.96	0.42
941.329	0.43
941.698	0.43
942.067	0.43
942.436	0.43
942.805	0.43
943.174	0.43
943.543	0.43
943.912	0.42
944.28	0.43
944.649	0.43
945.018	0.43
945.386	0.42
945.755	0.43
946.123	0.42
946.492	0.43
946.86	0.43
947.228	0.43
947.596	0.43
947.965	0.42
948.333	0.43
948.701	0.43
949.069	0.43
949.437	0.43
949.804	0.43
950.172	0.43
950.54	0.43
950.908	0.43
951.275	0.43
951.643	0.42
952.01	0.43
952.378	0.42
952.745	0.43
953.112	0.42
953.479	0.43
953.847	0.42
954.214	0.43
954.581	0.43
954.948	0.43
955.315	0.43
955.682	0.42
956.048	0.43
956.415	0.42
956.782	0.42
957.148	0.42
957.515	0.42
957.881	0.42
958.248	0.42
958.614	0.42
958.981	0.42
959.347	0.42
959.713	0.42
960.079	0.42
960.445	0.42
960.811	0.42
961.177	0.42
961.543	0.42
961.909	0.42
962.275	0.42
962.641	0.42
963.006	0.42
963.372	0.42
963.737	0.42
964.103	0.42
964.468	0.42
964.834	0.41
965.199	0.42
965.564	0.42
965.929	0.41
966.294	0.42
966.659	0.42
967.024	0.42
967.389	0.42
967.754	0.41
968.119	0.42
968.484	0.41
968.848	0.42
969.213	0.41
969.578	0.41
969.942	0.42
970.307	0.41
970.671	0.41
971.035	0.41
971.399	0.41
971.764	0.41
972.128	0.41
972.492	0.42
972.856	0.41
973.22	0.41
973.584	0.41
973.948	0.41
974.311	0.41
974.675	0.42
975.039	0.41
975.402	0.41
975.766	0.41
976.129	0.41
976.493	0.42
976.856	0.41
977.219	0.41
977.582	0.41
977.946	0.41
978.309	0.41
978.672	0.41
979.035	0.41
979.398	0.41
979.761	0.4
980.123	0.4
980.486	0.4
980.849	0.4
981.211	0.41
981.574	0.41
981.936	0.4
982.299	0.4
982.661	0.4
983.023	0.4
983.386	0.4
983.748	0.4
984.11	0.4
984.472	0.4
984.834	0.4
985.196	0.4
985.558	0.4
985.92	0.4
986.281	0.4
986.643	0.4
987.005	0.4
987.366	0.4
987.728	0.39
988.089	0.4
988.451	0.4
988.812	0.4
989.173	0.39
989.534	0.4
989.895	0.39
990.257	0.4
990.618	0.39
990.979	0.39
991.339	0.39
991.7	0.39
992.061	0.39
992.422	0.39
992.782	0.39
993.143	0.39
993.503	0.39
993.864	0.39
994.224	0.39
994.585	0.39
994.945	0.38
995.305	0.39
995.665	0.39
996.025	0.39
996.385	0.38
996.745	0.38
997.105	0.38
997.465	0.38
997.825	0.38
998.185	0.38
998.544	0.38
998.904	0.39
999.263	0.38
999.623	0.39
999.982	0.38
1000.342	0.38
1000.701	0.38
1001.06	0.38
1001.419	0.38
1001.778	0.38
1002.138	0.38
1002.497	0.39
1002.855	0.37
1003.214	0.38
1003.573	0.38
1003.932	0.38
1004.29	0.38
1004.649	0.38
1005.008	0.38
1005.366	0.38
1005.725	0.38
1006.083	0.37
1006.441	0.37
1006.799	0.38
1007.158	0.37
1007.516	0.37
1007.874	0.37
1008.232	0.37
1008.59	0.36
1008.948	0.37
1009.305	0.38
1009.663	0.36
1010.021	0.37
1010.379	0.37
1010.736	0.37
1011.094	0.37
1011.451	0.36
1011.808	0.37
1012.166	0.37
1012.523	0.36
1012.88	0.36
1013.237	0.37
1013.594	0.36
1013.951	0.36
1014.308	0.36
1014.665	0.37
1015.022	0.37
1015.379	0.36
1015.735	0.36
1016.092	0.35
1016.449	0.36
1016.805	0.36
1017.162	0.36
1017.518	0.36
1017.874	0.35
1018.231	0.36
1018.587	0.36
1018.943	0.36
1019.299	0.36
1019.655	0.35
1020.011	0.35
1020.367	0.35
1020.723	0.35
1021.078	0.36
1021.434	0.36
1021.79	0.36
1022.145	0.36
1022.501	0.34
1022.856	0.35
1023.212	0.35
1023.567	0.35
1023.922	0.35
1024.278	0.35
1024.633	0.34
1024.988	0.35
1025.343	0.35
1025.698	0.35
1026.053	0.34
1026.408	0.34
1026.762	0.35
1027.117	0.35
1027.472	0.34
1027.826	0.34
1028.181	0.34
1028.535	0.34
1028.89	0.35
1029.244	0.34
1029.598	0.34
1029.952	0.35
1030.307	0.34
1030.661	0.34
1031.015	0.33
1031.369	0.35
1031.723	0.34
1032.076	0.34
