Data from Rubpy_BV_EDTA_TU(3000)_Blank_Blue_Flow_Absorbance__297__12-51-39-884.txt Node

Date: Mon Aug 03 12:51:39 BST 2026
User: fpm-admin
Spectrometer: SR600986
Trigger mode: 0
Integration Time (sec): 8.000000E-3
Scans to average: 3
Nonlinearity correction enabled: true
Boxcar width: 0
Storing dark spectrum: false
XAxis mode: Wavelengths
Number of Pixels in Spectrum: 2048
>>>>>Begin Spectral Data<<<<<
188.613	0.05
189.078	0.05
189.542	0.06
190.007	0.05
190.472	0.05
190.936	0.05
191.401	0.04
191.865	0.05
192.33	0.05
192.794	0.05
193.258	0.05
193.723	0.05
194.187	0.05
194.651	0.05
195.115	0.04
195.579	0.05
196.043	0.04
196.507	0.05
196.971	0.05
197.435	0.04
197.899	0.04
198.363	0.04
198.827	0.04
199.29	0.05
199.754	0.05
200.218	0.05
200.681	0.05
201.145	0.06
201.608	0.04
202.072	0.06
202.535	0.05
202.998	0.05
203.462	0.06
203.925	0.04
204.388	0.03
204.851	0.06
205.314	0.04
205.777	0.03
206.24	0.04
206.703	0.06
207.166	0.04
207.629	0.05
208.092	0.05
208.555	0.05
209.018	0.06
209.48	0.04
209.943	0.06
210.406	0.04
210.868	0.04
211.331	0.03
211.793	0.05
212.256	0.06
212.718	0.02
213.18	0.08
213.643	0.07
214.105	0.04
214.567	0.04
215.029	0.05
215.491	0.05
215.953	0.03
216.415	0.03
216.877	0.05
217.339	0.06
217.801	0.03
218.263	0.05
218.725	0.07
219.186	0.06
219.648	0.04
220.11	0.04
220.571	0.07
221.033	0.04
221.494	0.05
221.956	0.05
222.417	0.05
222.878	0.04
223.34	0.05
223.801	0.03
224.262	0.06
224.723	0.06
225.185	0.04
225.646	0.01
226.107	0.06
226.568	0.04
227.029	0.04
227.489	0.05
227.95	0.04
228.411	0.05
228.872	0.05
229.332	0.04
229.793	0.02
230.254	0.05
230.714	0.05
231.175	0.06
231.635	0.04
232.096	0.05
232.556	0.05
233.016	0.04
233.477	0.03
233.937	0.04
234.397	0.03
234.857	0.06
235.317	0.05
235.777	0.05
236.237	0.04
236.697	0.05
237.157	0.05
237.617	0.03
238.077	0.04
238.537	0.05
238.996	0.05
239.456	0.05
239.916	0.05
240.375	0.04
240.835	0.04
241.294	0.06
241.754	0.05
242.213	0.05
242.672	0.05
243.132	0.05
243.591	0.05
244.05	0.03
244.509	0.04
244.968	0.04
245.427	0.05
245.886	0.04
246.345	0.04
246.804	0.04
247.263	0.05
247.722	0.05
248.181	0.04
248.639	0.03
249.098	0.05
249.557	0.06
250.015	0.05
250.474	0.06
250.932	0.06
251.391	0.05
251.849	0.06
252.308	0.07
252.766	0.04
253.224	0.06
253.682	0.06
254.14	0.05
254.599	0.06
255.057	0.05
255.515	0.03
255.973	0.07
256.431	0.05
256.888	0.04
257.346	0.05
257.804	0.05
258.262	0.05
258.719	0.05
259.177	0.05
259.635	0.05
260.092	0.05
260.55	0.06
261.007	0.03
261.465	0.06
261.922	0.06
262.379	0.04
262.836	0.06
263.294	0.05
263.751	0.06
264.208	0.06
264.665	0.03
265.122	0.04
265.579	0.07
266.036	0.06
266.493	0.06
266.95	0.06
267.406	0.06
267.863	0.04
268.32	0.03
268.777	0.05
269.233	0.05
269.69	0.06
270.146	0.07
270.603	0.06
271.059	0.04
271.515	0.05
271.972	0.05
272.428	0.01
272.884	0.05
273.34	0.06
273.796	0.04
274.253	0.06
274.709	0.04
275.165	0.05
275.62	0.05
276.076	0.04
276.532	0.05
276.988	0.02
277.444	0.03
277.899	0.04
278.355	0.05
278.811	0.03
279.266	0.05
279.722	0.05
280.177	0.06
280.633	0.05
281.088	0.06
281.543	0.04
281.998	0.04
282.454	0.06
282.909	0.05
283.364	0.04
283.819	0.06
284.274	0.04
284.729	0.05
285.184	0.04
285.639	0.03
286.094	0.06
286.548	0.06
287.003	0.06
287.458	0.06
287.913	0.04
288.367	0.06
288.822	0.04
289.276	0.06
289.731	0.03
290.185	0.06
290.639	0.06
291.094	0.06
291.548	0.05
292.002	0.04
292.456	0.06
292.91	0.06
293.365	0.06
293.819	0.06
294.273	0.04
294.726	0.04
295.18	0.04
295.634	0.08
296.088	0.05
296.542	0.07
296.995	0.03
297.449	0.03
297.903	0.06
298.356	0.04
298.81	0.03
299.263	0.06
299.716	0.06
300.17	0.06
300.623	0.05
301.076	0.07
301.53	0.05
301.983	0.05
302.436	0.05
302.889	0.04
303.342	0.07
303.795	0.06
304.248	0.04
304.701	0.05
305.153	0.05
305.606	0.05
306.059	0.06
306.512	0.04
306.964	0.04
307.417	0.05
307.869	0.05
308.322	0.06
308.774	0.06
309.227	0.06
309.679	0.06
310.131	0.06
310.584	0.06
311.036	0.04
311.488	0.05
311.94	0.05
312.392	0.04
312.844	0.04
313.296	0.05
313.748	0.06
314.2	0.04
314.652	0.06
315.103	0.06
315.555	0.06
316.007	0.06
316.458	0.07
316.91	0.07
317.361	0.06
317.813	0.06
318.264	0.03
318.716	0.05
319.167	0.06
319.618	0.06
320.07	0.04
320.521	0.06
320.972	0.06
321.423	0.06
321.874	0.04
322.325	0.05
322.776	0.06
323.227	0.05
323.678	0.06
324.128	0.07
324.579	0.07
325.03	0.09
325.48	0.09
325.931	0.08
326.382	0.08
326.832	0.07
327.283	0.08
327.733	0.08
328.183	0.08
328.634	0.1
329.084	0.09
329.534	0.1
329.984	0.1
330.434	0.09
330.884	0.1
331.334	0.11
331.784	0.11
332.234	0.11
332.684	0.11
333.134	0.11
333.584	0.12
334.034	0.12
334.483	0.12
334.933	0.14
335.382	0.13
335.832	0.13
336.281	0.13
336.731	0.13
337.18	0.13
337.63	0.13
338.079	0.13
338.528	0.14
338.977	0.14
339.426	0.15
339.876	0.16
340.325	0.16
340.774	0.16
341.223	0.17
341.671	0.17
342.12	0.17
342.569	0.17
343.018	0.17
343.467	0.18
343.915	0.18
344.364	0.19
344.812	0.19
345.261	0.19
345.709	0.19
346.158	0.19
346.606	0.2
347.054	0.2
347.503	0.2
347.951	0.21
348.399	0.21
348.847	0.21
349.295	0.21
349.743	0.21
350.191	0.22
350.639	0.22
351.087	0.22
351.535	0.23
351.983	0.23
352.43	0.23
352.878	0.24
353.326	0.24
353.773	0.24
354.221	0.26
354.668	0.25
355.116	0.26
355.563	0.26
356.01	0.26
356.458	0.27
356.905	0.27
357.352	0.28
357.799	0.28
358.246	0.28
358.693	0.29
359.14	0.29
359.587	0.3
360.034	0.3
360.481	0.3
360.928	0.3
361.375	0.31
361.821	0.32
362.268	0.32
362.714	0.32
363.161	0.33
363.608	0.33
364.054	0.34
364.5	0.34
364.947	0.34
365.393	0.35
365.839	0.35
366.285	0.35
366.732	0.35
367.178	0.36
367.624	0.35
368.07	0.36
368.516	0.36
368.962	0.36
369.408	0.36
369.853	0.36
370.299	0.37
370.745	0.36
371.19	0.36
371.636	0.36
372.082	0.36
372.527	0.35
372.973	0.35
373.418	0.35
373.863	0.35
374.309	0.34
374.754	0.33
375.199	0.33
375.644	0.33
376.09	0.32
376.535	0.32
376.98	0.31
377.425	0.31
377.87	0.3
378.314	0.29
378.759	0.29
379.204	0.28
379.649	0.28
380.093	0.27
380.538	0.27
380.983	0.26
381.427	0.25
381.872	0.24
382.316	0.24
382.76	0.24
383.205	0.23
383.649	0.23
384.093	0.22
384.537	0.22
384.982	0.21
385.426	0.21
385.87	0.21
386.314	0.2
386.758	0.2
387.201	0.19
387.645	0.19
388.089	0.19
388.533	0.18
388.976	0.18
389.42	0.18
389.864	0.18
390.307	0.17
390.751	0.17
391.194	0.17
391.638	0.16
392.081	0.16
392.524	0.16
392.967	0.15
393.411	0.16
393.854	0.15
394.297	0.16
394.74	0.16
395.183	0.15
395.626	0.16
396.069	0.15
396.512	0.15
396.954	0.15
397.397	0.16
397.84	0.16
398.282	0.16
398.725	0.16
399.168	0.16
399.61	0.16
400.052	0.17
400.495	0.16
400.937	0.15
401.38	0.15
401.822	0.15
402.264	0.15
402.706	0.14
403.148	0.14
403.59	0.14
404.032	0.13
404.474	0.12
404.916	0.11
405.358	0.12
405.8	0.11
406.241	0.1
406.683	0.1
407.125	0.09
407.566	0.09
408.008	0.08
408.449	0.09
408.891	0.08
409.332	0.07
409.774	0.07
410.215	0.06
410.656	0.06
411.097	0.06
411.539	0.06
411.98	0.06
412.421	0.05
412.862	0.05
413.303	0.04
413.744	0.05
414.184	0.05
414.625	0.05
415.066	0.05
415.507	0.04
415.947	0.05
416.388	0.06
416.828	0.03
417.269	0.05
417.709	0.04
418.15	0.04
418.59	0.05
419.03	0.04
419.471	0.05
419.911	0.03
420.351	0.04
420.791	0.04
421.231	0.04
421.671	0.03
422.111	0.03
422.551	0.03
422.991	0.04
423.431	0.03
423.87	0.03
424.31	0.05
424.75	0.04
425.189	0.04
425.629	0.04
426.068	0.04
426.508	0.04
426.947	0.04
427.386	0.04
427.826	0.04
428.265	0.04
428.704	0.03
429.143	0.04
429.582	0.04
430.021	0.05
430.46	0.05
430.899	0.03
431.338	0.04
431.777	0.04
432.216	0.03
432.655	0.04
433.093	0.03
433.532	0.04
433.971	0.03
434.409	0.03
434.848	0.05
435.286	0.04
435.724	0.03
436.163	0.04
436.601	0.04
437.039	0.04
437.477	0.04
437.916	0.05
438.354	0.05
438.792	0.04
439.23	0.04
439.668	0.05
440.105	0.04
440.543	0.03
440.981	0.04
441.419	0.05
441.856	0.05
442.294	0.04
442.732	0.04
443.169	0.05
443.607	0.04
444.044	0.03
444.481	0.06
444.919	0.04
445.356	0.05
445.793	0.04
446.23	0.05
446.668	0.05
447.105	0.04
447.542	0.04
447.979	0.03
448.416	0.04
448.852	0.04
449.289	0.04
449.726	0.05
450.163	0.05
450.599	0.03
451.036	0.04
451.473	0.06
451.909	0.04
452.346	0.04
452.782	0.05
453.218	0.04
453.655	0.05
454.091	0.05
454.527	0.06
454.963	0.07
455.399	0.04
455.835	0.05
456.271	0.06
456.707	0.06
457.143	0.04
457.579	0.04
458.015	0.04
458.451	0.06
458.886	0.06
459.322	0.04
459.758	0.05
460.193	0.06
460.629	0.04
461.064	0.04
461.5	0.06
461.935	0.04
462.37	0.06
462.805	0.06
463.241	0.07
463.676	0.05
464.111	0.05
464.546	0.05
464.981	0.06
465.416	0.05
465.851	0.05
466.286	0.05
466.72	0.05
467.155	0.05
467.59	0.04
468.024	0.06
468.459	0.06
468.893	0.06
469.328	0.06
469.762	0.06
470.197	0.06
470.631	0.07
471.065	0.06
471.5	0.05
471.934	0.05
472.368	0.07
472.802	0.06
473.236	0.07
473.67	0.07
474.104	0.07
474.538	0.07
474.972	0.07
475.405	0.06
475.839	0.07
476.273	0.06
476.706	0.06
477.14	0.08
477.573	0.06
478.007	0.07
478.44	0.07
478.874	0.07
479.307	0.08
479.74	0.07
480.173	0.08
480.606	0.08
481.04	0.08
481.473	0.08
481.906	0.08
482.339	0.08
482.771	0.08
483.204	0.08
483.637	0.09
484.07	0.09
484.502	0.08
484.935	0.09
485.368	0.09
485.8	0.09
486.233	0.09
486.665	0.09
487.098	0.09
487.53	0.09
487.962	0.09
488.394	0.09
488.827	0.09
489.259	0.1
489.691	0.09
490.123	0.1
490.555	0.09
490.987	0.1
491.418	0.1
491.85	0.1
492.282	0.1
492.714	0.1
493.145	0.1
493.577	0.1
494.009	0.1
494.44	0.1
494.872	0.1
495.303	0.1
495.734	0.1
496.166	0.1
496.597	0.1
497.028	0.11
497.459	0.11
497.89	0.11
498.321	0.12
498.752	0.11
499.183	0.11
499.614	0.11
500.045	0.11
500.476	0.11
500.906	0.12
501.337	0.12
501.768	0.11
502.198	0.12
502.629	0.12
503.059	0.12
503.49	0.12
503.92	0.12
504.35	0.12
504.781	0.12
505.211	0.12
505.641	0.12
506.071	0.13
506.501	0.13
506.931	0.13
507.361	0.13
507.791	0.13
508.221	0.13
508.651	0.13
509.081	0.13
509.51	0.13
509.94	0.13
510.37	0.14
510.799	0.14
511.229	0.14
511.658	0.13
512.087	0.14
512.517	0.14
512.946	0.14
513.375	0.14
513.804	0.14
514.234	0.14
514.663	0.14
515.092	0.14
515.521	0.14
515.95	0.14
516.378	0.14
516.807	0.14
517.236	0.15
517.665	0.15
518.093	0.14
518.522	0.15
518.951	0.15
519.379	0.15
519.807	0.15
520.236	0.15
520.664	0.15
521.093	0.15
521.521	0.15
521.949	0.15
522.377	0.15
522.805	0.15
523.233	0.15
523.661	0.15
524.089	0.15
524.517	0.15
524.945	0.15
525.373	0.15
525.8	0.16
526.228	0.15
526.656	0.15
527.083	0.16
527.511	0.16
527.938	0.16
528.366	0.16
528.793	0.16
529.22	0.16
529.648	0.16
530.075	0.16
530.502	0.16
530.929	0.16
531.356	0.16
531.783	0.16
532.21	0.16
532.637	0.16
533.064	0.16
533.49	0.16
533.917	0.16
534.344	0.16
534.771	0.16
535.197	0.16
535.624	0.16
536.05	0.16
536.477	0.16
536.903	0.16
537.329	0.16
537.755	0.17
538.182	0.16
538.608	0.16
539.034	0.16
539.46	0.16
539.886	0.16
540.312	0.16
540.738	0.16
541.164	0.16
541.589	0.16
542.015	0.16
542.441	0.16
542.867	0.17
543.292	0.16
543.718	0.16
544.143	0.16
544.569	0.16
544.994	0.16
545.419	0.17
545.845	0.16
546.27	0.16
546.695	0.16
547.12	0.16
547.545	0.16
547.97	0.16
548.395	0.16
548.82	0.16
549.245	0.17
549.67	0.16
550.094	0.16
550.519	0.16
550.944	0.16
551.368	0.16
551.793	0.16
552.217	0.16
552.642	0.16
553.066	0.16
553.49	0.16
553.915	0.16
554.339	0.16
554.763	0.16
555.187	0.16
555.611	0.16
556.035	0.16
556.459	0.16
556.883	0.16
557.307	0.16
557.731	0.16
558.154	0.16
558.578	0.16
559.002	0.16
559.425	0.16
559.849	0.15
560.272	0.16
560.696	0.16
561.119	0.16
561.543	0.16
561.966	0.15
562.389	0.15
562.812	0.16
563.235	0.15
563.658	0.15
564.081	0.15
564.504	0.15
564.927	0.15
565.35	0.15
565.773	0.15
566.196	0.15
566.618	0.15
567.041	0.15
567.463	0.15
567.886	0.15
568.309	0.15
568.731	0.15
569.153	0.15
569.576	0.15
569.998	0.15
570.42	0.15
570.842	0.15
571.264	0.15
571.686	0.14
572.108	0.14
572.53	0.15
572.952	0.14
573.374	0.14
573.796	0.14
574.218	0.14
574.639	0.14
575.061	0.14
575.483	0.14
575.904	0.14
576.326	0.14
576.747	0.14
577.168	0.14
577.59	0.14
578.011	0.14
578.432	0.14
578.853	0.14
579.274	0.14
579.695	0.13
580.116	0.14
580.537	0.13
580.958	0.13
581.379	0.13
581.8	0.13
582.221	0.13
582.641	0.13
583.062	0.13
583.482	0.13
583.903	0.13
584.323	0.13
584.744	0.13
585.164	0.13
585.584	0.13
586.005	0.13
586.425	0.13
586.845	0.13
587.265	0.13
587.685	0.13
588.105	0.13
588.525	0.13
588.945	0.13
589.365	0.13
589.785	0.13
590.204	0.13
590.624	0.13
591.044	0.13
591.463	0.13
591.883	0.13
592.302	0.13
592.721	0.13
593.141	0.13
593.56	0.13
593.979	0.13
594.399	0.12
594.818	0.12
595.237	0.12
595.656	0.13
596.075	0.12
596.494	0.12
596.913	0.12
597.331	0.12
597.75	0.12
598.169	0.12
598.587	0.12
599.006	0.12
599.425	0.12
599.843	0.12
600.262	0.12
600.68	0.12
601.098	0.12
601.517	0.12
601.935	0.12
602.353	0.12
602.771	0.12
603.189	0.12
603.607	0.12
604.025	0.12
604.443	0.12
604.861	0.12
605.279	0.12
605.696	0.12
606.114	0.11
606.532	0.11
606.949	0.11
607.367	0.11
607.784	0.11
608.202	0.11
608.619	0.11
609.036	0.11
609.454	0.11
609.871	0.11
610.288	0.11
610.705	0.11
611.122	0.11
611.539	0.11
611.956	0.11
612.373	0.11
612.79	0.11
613.207	0.11
613.623	0.11
614.04	0.11
614.457	0.11
614.873	0.11
615.29	0.11
615.706	0.11
616.122	0.1
616.539	0.11
616.955	0.11
617.371	0.1
617.788	0.1
618.204	0.1
618.62	0.1
619.036	0.1
619.452	0.1
619.868	0.1
620.284	0.1
620.699	0.1
621.115	0.1
621.531	0.1
621.946	0.1
622.362	0.1
622.778	0.1
623.193	0.1
623.608	0.1
624.024	0.1
624.439	0.09
624.854	0.09
625.27	0.1
625.685	0.09
626.1	0.1
626.515	0.09
626.93	0.09
627.345	0.09
627.76	0.09
628.175	0.09
628.589	0.09
629.004	0.09
629.419	0.09
629.833	0.09
630.248	0.09
630.663	0.09
631.077	0.09
631.491	0.09
631.906	0.09
632.32	0.09
632.734	0.09
633.148	0.09
633.563	0.08
633.977	0.08
634.391	0.08
634.805	0.08
635.219	0.08
635.632	0.08
636.046	0.08
636.46	0.08
636.874	0.08
637.287	0.08
637.701	0.08
638.115	0.08
638.528	0.08
638.941	0.08
639.355	0.08
639.768	0.08
640.181	0.07
640.595	0.07
641.008	0.08
641.421	0.07
641.834	0.07
642.247	0.07
642.66	0.07
643.073	0.07
643.486	0.07
643.898	0.07
644.311	0.07
644.724	0.07
645.136	0.07
645.549	0.07
645.961	0.07
646.374	0.07
646.786	0.07
647.199	0.07
647.611	0.07
648.023	0.06
648.435	0.06
648.847	0.07
649.26	0.06
649.672	0.06
650.084	0.06
650.495	0.06
650.907	0.06
651.319	0.06
651.731	0.06
652.143	0.06
652.554	0.06
652.966	0.06
653.377	0.06
653.789	0.06
654.2	0.06
654.612	0.06
655.023	0.07
655.434	0.04
655.845	0.03
656.256	0.06
656.668	0.06
657.079	0.06
657.49	0.06
657.901	0.06
658.311	0.06
658.722	0.05
659.133	0.06
659.544	0.06
659.954	0.06
660.365	0.06
660.775	0.06
661.186	0.05
661.596	0.05
662.007	0.05
662.417	0.06
662.827	0.05
663.238	0.05
663.648	0.05
664.058	0.05
664.468	0.05
664.878	0.05
665.288	0.05
665.698	0.05
666.108	0.05
666.517	0.05
666.927	0.05
667.337	0.05
667.746	0.05
668.156	0.05
668.565	0.05
668.975	0.05
669.384	0.05
669.794	0.05
670.203	0.05
670.612	0.05
671.021	0.05
671.43	0.05
671.84	0.05
672.249	0.04
672.658	0.05
673.066	0.04
673.475	0.04
673.884	0.04
674.293	0.04
674.702	0.04
675.11	0.04
675.519	0.04
675.927	0.04
676.336	0.04
676.744	0.04
677.152	0.04
677.561	0.04
677.969	0.04
678.377	0.04
678.785	0.04
679.193	0.04
679.601	0.04
680.009	0.04
680.417	0.04
680.825	0.04
681.233	0.04
681.641	0.03
682.048	0.03
682.456	0.03
682.864	0.04
683.271	0.04
683.679	0.03
684.086	0.03
684.493	0.03
684.901	0.03
685.308	0.03
685.715	0.03
686.122	0.03
686.529	0.03
686.936	0.03
687.343	0.03
687.75	0.03
688.157	0.03
688.564	0.03
688.971	0.03
689.378	0.03
689.784	0.03
690.191	0.03
690.597	0.03
691.004	0.03
691.41	0.03
691.817	0.03
692.223	0.03
692.629	0.03
693.035	0.03
693.442	0.03
693.848	0.03
694.254	0.03
694.66	0.02
695.066	0.03
695.471	0.03
695.877	0.03
696.283	0.02
696.689	0.02
697.094	0.02
697.5	0.02
697.906	0.02
698.311	0.02
698.716	0.02
699.122	0.02
699.527	0.02
699.932	0.02
700.338	0.02
700.743	0.02
701.148	0.02
701.553	0.02
701.958	0.03
702.363	0.02
702.768	0.02
703.173	0.02
703.577	0.02
703.982	0.02
704.387	0.02
704.791	0.02
705.196	0.02
705.6	0.02
706.005	0.02
706.409	0.02
706.814	0.02
707.218	0.02
707.622	0.02
708.026	0.02
708.43	0.02
708.834	0.02
709.238	0.02
709.642	0.02
710.046	0.02
710.45	0.02
710.854	0.02
711.257	0.02
711.661	0.02
712.065	0.02
712.468	0.02
712.872	0.02
713.275	0.02
713.679	0.02
714.082	0.02
714.485	0.02
714.888	0.02
715.291	0.02
715.695	0.02
716.098	0.02
716.501	0.02
716.904	0.02
717.306	0.02
717.709	0.02
718.112	0.02
718.515	0.02
718.917	0.02
719.32	0.02
719.723	0.02
720.125	0.02
720.527	0.02
720.93	0.02
721.332	0.02
721.734	0.02
722.137	0.02
722.539	0.02
722.941	0.02
723.343	0.02
723.745	0.02
724.147	0.02
724.549	0.02
724.95	0.02
725.352	0.02
725.754	0.02
726.156	0.02
726.557	0.02
726.959	0.02
727.36	0.02
727.762	0.02
728.163	0.02
728.564	0.02
728.966	0.02
729.367	0.02
729.768	0.02
730.169	0.02
730.57	0.02
730.971	0.02
731.372	0.02
731.773	0.02
732.174	0.02
732.574	0.02
732.975	0.02
733.376	0.02
733.776	0.02
734.177	0.02
734.577	0.02
734.978	0.02
735.378	0.02
735.778	0.02
736.179	0.02
736.579	0.02
736.979	0.02
737.379	0.02
737.779	0.02
738.179	0.02
738.579	0.02
738.979	0.02
739.379	0.02
739.778	0.02
740.178	0.02
740.578	0.02
740.977	0.02
741.377	0.02
741.776	0.02
742.176	0.02
742.575	0.02
742.974	0.02
743.374	0.02
743.773	0.02
744.172	0.02
744.571	0.02
744.97	0.01
745.369	0.02
745.768	0.01
746.167	0.02
746.565	0.02
746.964	0.02
747.363	0.02
747.761	0.02
748.16	0.02
748.559	0.02
748.957	0.02
749.355	0.01
749.754	0.02
750.152	0.02
750.55	0.02
750.948	0.01
751.347	0.01
751.745	0.02
752.143	0.01
752.541	0.01
752.938	0.01
753.336	0.01
753.734	0.02
754.132	0.01
754.529	0.01
754.927	0.01
755.325	0.01
755.722	0.01
756.119	0.01
756.517	0.01
756.914	0.01
757.311	0.01
757.709	0.01
758.106	0.01
758.503	0.01
758.9	0.01
759.297	0.01
759.694	0.01
760.091	0.01
760.488	0.01
760.884	0.01
761.281	0.01
761.678	0.01
762.074	0.01
762.471	0.01
762.867	0.01
763.264	0.01
763.66	0.01
764.056	0.01
764.453	0.01
764.849	0.01
765.245	0.01
765.641	0.01
766.037	0.01
766.433	0.01
766.829	0.01
767.225	0.01
767.621	0.01
768.016	0.01
768.412	0.01
768.808	0.01
769.203	0.01
769.599	0.01
769.994	0.01
770.389	0.01
770.785	0.01
771.18	0.01
771.575	0.01
771.971	0.01
772.366	0.01
772.761	0.01
773.156	0.01
773.551	0.01
773.945	0.01
774.34	0.01
774.735	0.01
775.13	0.01
775.524	0.01
775.919	0.01
776.314	0.01
776.708	0.01
777.103	0.02
777.497	0.01
777.891	0.01
778.285	0.01
778.68	0.01
779.074	0.01
779.468	0.01
779.862	0.01
780.256	0.01
780.65	0.01
781.044	0.01
781.438	0.01
781.831	0.01
782.225	0.01
782.619	0.02
783.012	0.01
783.406	0.01
783.799	0.01
784.193	0.01
784.586	0.02
784.979	0.02
785.372	0.01
785.766	0.02
786.159	0.02
786.552	0.02
786.945	0.01
787.338	0.02
787.731	0.01
788.123	0.02
788.516	0.02
788.909	0.02
789.302	0.01
789.694	0.02
790.087	0.02
790.479	0.02
790.872	0.02
791.264	0.02
791.656	0.02
792.049	0.02
792.441	0.01
792.833	0.02
793.225	0.02
793.617	0.02
794.009	0.02
794.401	0.02
794.793	0.02
795.185	0.02
795.576	0.02
795.968	0.02
796.36	0.02
796.751	0.02
797.143	0.02
797.534	0.01
797.926	0.02
798.317	0.02
798.708	0.02
799.1	0.02
799.491	0.02
799.882	0.02
800.273	0.02
800.664	0.02
801.055	0.02
801.446	0.02
801.837	0.02
802.227	0.02
802.618	0.02
803.009	0.02
803.399	0.02
803.79	0.02
804.18	0.02
804.571	0.02
804.961	0.02
805.351	0.02
805.742	0.02
806.132	0.02
806.522	0.02
806.912	0.02
807.302	0.02
807.692	0.02
808.082	0.02
808.472	0.02
808.862	0.02
809.251	0.02
809.641	0.02
810.031	0.02
810.42	0.02
810.81	0.02
811.199	0.02
811.589	0.02
811.978	0.02
812.367	0.02
812.756	0.02
813.146	0.02
813.535	0.02
813.924	0.02
814.313	0.02
814.702	0.02
815.091	0.02
815.479	0.02
815.868	0.02
816.257	0.02
816.645	0.02
817.034	0.02
817.423	0.02
817.811	0.02
818.199	0.02
818.588	0.02
818.976	0.02
819.364	0.02
819.753	0.02
820.141	0.02
820.529	0.02
820.917	0.02
821.305	0.02
821.693	0.02
822.08	0.02
822.468	0.02
822.856	0.03
823.244	0.02
823.631	0.02
824.019	0.02
824.406	0.02
824.794	0.02
825.181	0.03
825.568	0.02
825.956	0.03
826.343	0.02
826.73	0.03
827.117	0.02
827.504	0.03
827.891	0.02
828.278	0.03
828.665	0.02
829.052	0.03
829.438	0.03
829.825	0.03
830.212	0.03
830.598	0.03
830.985	0.03
831.371	0.03
831.757	0.03
832.144	0.03
832.53	0.03
832.916	0.03
833.302	0.03
833.688	0.03
834.075	0.03
834.461	0.03
834.846	0.03
835.232	0.03
835.618	0.03
836.004	0.03
836.39	0.03
836.775	0.03
837.161	0.03
837.546	0.03
837.932	0.03
838.317	0.03
838.702	0.03
839.088	0.03
839.473	0.03
839.858	0.03
840.243	0.03
840.628	0.03
841.013	0.03
841.398	0.03
841.783	0.03
842.168	0.03
842.553	0.03
842.937	0.03
843.322	0.03
843.707	0.03
844.091	0.03
844.476	0.03
844.86	0.03
845.244	0.03
845.629	0.03
846.013	0.03
846.397	0.03
846.781	0.03
847.165	0.03
847.549	0.03
847.933	0.03
848.317	0.03
848.701	0.03
849.085	0.03
849.468	0.03
849.852	0.03
850.236	0.03
850.619	0.03
851.003	0.03
851.386	0.04
851.769	0.03
852.153	0.03
852.536	0.03
852.919	0.04
853.302	0.03
853.685	0.03
854.068	0.03
854.451	0.03
854.834	0.04
855.217	0.03
855.6	0.03
855.982	0.03
856.365	0.03
856.748	0.03
857.13	0.03
857.513	0.03
857.895	0.04
858.277	0.04
858.66	0.04
859.042	0.04
859.424	0.04
859.806	0.04
860.188	0.04
860.57	0.03
860.952	0.04
861.334	0.04
861.716	0.04
862.098	0.04
862.48	0.04
862.861	0.04
863.243	0.04
863.624	0.04
864.006	0.04
864.387	0.04
864.769	0.04
865.15	0.04
865.531	0.04
865.912	0.04
866.294	0.04
866.675	0.04
867.056	0.04
867.437	0.04
867.818	0.04
868.198	0.04
868.579	0.04
868.96	0.04
869.341	0.04
869.721	0.04
870.102	0.04
870.482	0.04
870.863	0.04
871.243	0.04
871.623	0.04
872.003	0.04
872.384	0.04
872.764	0.04
873.144	0.04
873.524	0.04
873.904	0.04
874.284	0.04
874.664	0.04
875.043	0.04
875.423	0.04
875.803	0.04
876.182	0.04
876.562	0.04
876.941	0.04
877.321	0.04
877.7	0.04
878.079	0.04
878.459	0.04
878.838	0.04
879.217	0.04
879.596	0.04
879.975	0.04
880.354	0.04
880.733	0.04
881.112	0.04
881.491	0.04
881.869	0.04
882.248	0.04
882.627	0.04
883.005	0.04
883.384	0.04
883.762	0.04
884.14	0.04
884.519	0.05
884.897	0.04
885.275	0.04
885.653	0.04
886.031	0.04
886.409	0.04
886.787	0.04
887.165	0.04
887.543	0.04
887.921	0.04
888.298	0.05
888.676	0.04
889.054	0.05
889.431	0.04
889.809	0.04
890.186	0.04
890.563	0.04
890.941	0.04
891.318	0.04
891.695	0.05
892.072	0.04
892.449	0.05
892.826	0.05
893.203	0.05
893.58	0.05
893.957	0.05
894.334	0.04
894.71	0.05
895.087	0.05
895.464	0.05
895.84	0.05
896.217	0.04
896.593	0.05
896.969	0.05
897.346	0.05
897.722	0.04
898.098	0.05
898.474	0.05
898.85	0.05
899.226	0.05
899.602	0.05
899.978	0.05
900.354	0.05
900.73	0.05
901.105	0.05
901.481	0.05
901.857	0.05
902.232	0.05
902.608	0.04
902.983	0.05
903.358	0.05
903.734	0.05
904.109	0.05
904.484	0.05
904.859	0.05
905.234	0.05
905.609	0.05
905.984	0.05
906.359	0.05
906.734	0.05
907.108	0.05
907.483	0.05
907.858	0.05
908.232	0.05
908.607	0.05
908.981	0.05
909.356	0.05
909.73	0.04
910.104	0.05
910.478	0.05
910.853	0.05
911.227	0.05
911.601	0.05
911.975	0.05
912.349	0.05
912.722	0.05
913.096	0.05
913.47	0.05
913.844	0.05
914.217	0.05
914.591	0.05
914.964	0.05
915.338	0.05
915.711	0.05
916.084	0.05
916.458	0.05
916.831	0.05
917.204	0.05
917.577	0.05
917.95	0.05
918.323	0.05
918.696	0.05
919.069	0.05
919.441	0.05
919.814	0.05
920.187	0.05
920.559	0.05
920.932	0.05
921.304	0.05
921.677	0.05
922.049	0.05
922.421	0.05
922.794	0.05
923.166	0.05
923.538	0.05
923.91	0.05
924.282	0.05
924.654	0.05
925.026	0.05
925.398	0.05
925.769	0.05
926.141	0.05
926.513	0.05
926.884	0.05
927.256	0.05
927.627	0.05
927.999	0.05
928.37	0.05
928.741	0.05
929.113	0.05
929.484	0.05
929.855	0.05
930.226	0.05
930.597	0.05
930.968	0.05
931.339	0.05
931.709	0.05
932.08	0.05
932.451	0.05
932.821	0.05
933.192	0.05
933.562	0.05
933.933	0.05
934.303	0.05
934.673	0.05
935.044	0.05
935.414	0.05
935.784	0.05
936.154	0.05
936.524	0.05
936.894	0.05
937.264	0.05
937.634	0.05
938.004	0.05
938.373	0.05
938.743	0.05
939.113	0.05
939.482	0.05
939.852	0.05
940.221	0.05
940.59	0.05
940.96	0.05
941.329	0.05
941.698	0.05
942.067	0.05
942.436	0.05
942.805	0.05
943.174	0.05
943.543	0.05
943.912	0.05
944.28	0.05
944.649	0.05
945.018	0.05
945.386	0.05
945.755	0.05
946.123	0.05
946.492	0.05
946.86	0.05
947.228	0.05
947.596	0.05
947.965	0.05
948.333	0.05
948.701	0.05
949.069	0.05
949.437	0.05
949.804	0.05
950.172	0.05
950.54	0.05
950.908	0.05
951.275	0.05
951.643	0.05
952.01	0.05
952.378	0.05
952.745	0.05
953.112	0.05
953.479	0.05
953.847	0.05
954.214	0.05
954.581	0.05
954.948	0.05
955.315	0.05
955.682	0.04
956.048	0.05
956.415	0.05
956.782	0.05
957.148	0.05
957.515	0.05
957.881	0.05
958.248	0.05
958.614	0.05
958.981	0.05
959.347	0.05
959.713	0.05
960.079	0.05
960.445	0.05
960.811	0.05
961.177	0.05
961.543	0.05
961.909	0.04
962.275	0.04
962.641	0.05
963.006	0.05
963.372	0.05
963.737	0.05
964.103	0.05
964.468	0.05
964.834	0.05
965.199	0.05
965.564	0.05
965.929	0.04
966.294	0.05
966.659	0.05
967.024	0.04
967.389	0.04
967.754	0.05
968.119	0.04
968.484	0.05
968.848	0.05
969.213	0.05
969.578	0.04
969.942	0.05
970.307	0.04
970.671	0.05
971.035	0.05
971.399	0.05
971.764	0.05
972.128	0.04
972.492	0.05
972.856	0.05
973.22	0.04
973.584	0.04
973.948	0.05
974.311	0.04
974.675	0.05
975.039	0.04
975.402	0.04
975.766	0.05
976.129	0.04
976.493	0.04
976.856	0.05
977.219	0.04
977.582	0.05
977.946	0.05
978.309	0.05
978.672	0.05
979.035	0.05
979.398	0.05
979.761	0.04
980.123	0.05
980.486	0.04
980.849	0.05
981.211	0.05
981.574	0.05
981.936	0.05
982.299	0.04
982.661	0.04
983.023	0.05
983.386	0.04
983.748	0.05
984.11	0.04
984.472	0.05
984.834	0.05
985.196	0.05
985.558	0.05
985.92	0.05
986.281	0.05
986.643	0.04
987.005	0.05
987.366	0.04
987.728	0.04
988.089	0.05
988.451	0.05
988.812	0.04
989.173	0.04
989.534	0.04
989.895	0.04
990.257	0.05
990.618	0.04
990.979	0.04
991.339	0.04
991.7	0.04
992.061	0.04
992.422	0.04
992.782	0.05
993.143	0.04
993.503	0.05
993.864	0.04
994.224	0.04
994.585	0.04
994.945	0.04
995.305	0.04
995.665	0.04
996.025	0.04
996.385	0.04
996.745	0.04
997.105	0.04
997.465	0.04
997.825	0.04
998.185	0.04
998.544	0.04
998.904	0.04
999.263	0.05
999.623	0.04
999.982	0.04
1000.342	0.04
1000.701	0.04
1001.06	0.04
1001.419	0.04
1001.778	0.04
1002.138	0.04
1002.497	0.04
1002.855	0.04
1003.214	0.05
1003.573	0.04
1003.932	0.04
1004.29	0.04
1004.649	0.04
1005.008	0.04
1005.366	0.04
1005.725	0.04
1006.083	0.04
1006.441	0.04
1006.799	0.04
1007.158	0.04
1007.516	0.04
1007.874	0.04
1008.232	0.04
1008.59	0.04
1008.948	0.04
1009.305	0.04
1009.663	0.04
1010.021	0.04
1010.379	0.04
1010.736	0.04
1011.094	0.04
1011.451	0.04
1011.808	0.04
1012.166	0.04
1012.523	0.04
1012.88	0.04
1013.237	0.04
1013.594	0.03
1013.951	0.04
1014.308	0.04
1014.665	0.04
1015.022	0.05
1015.379	0.04
1015.735	0.04
1016.092	0.04
1016.449	0.04
1016.805	0.04
1017.162	0.04
1017.518	0.04
1017.874	0.04
1018.231	0.04
1018.587	0.04
1018.943	0.04
1019.299	0.04
1019.655	0.04
1020.011	0.04
1020.367	0.04
1020.723	0.04
1021.078	0.04
1021.434	0.04
1021.79	0.04
1022.145	0.04
1022.501	0.04
1022.856	0.04
1023.212	0.04
1023.567	0.04
1023.922	0.04
1024.278	0.04
1024.633	0.03
1024.988	0.04
1025.343	0.04
1025.698	0.04
1026.053	0.04
1026.408	0.04
1026.762	0.04
1027.117	0.04
1027.472	0.03
1027.826	0.03
1028.181	0.04
1028.535	0.03
1028.89	0.04
1029.244	0.04
1029.598	0.04
1029.952	0.04
1030.307	0.04
1030.661	0.04
1031.015	0.03
1031.369	0.04
1031.723	0.03
1032.076	0.04
