Data from Rubpy_BV_EDTA_TU(3000)_Blank_Blue_Flow_Absorbance__318__12-52-00-887.txt Node

Date: Mon Aug 03 12:52:00 BST 2026
User: fpm-admin
Spectrometer: SR600986
Trigger mode: 0
Integration Time (sec): 8.000000E-3
Scans to average: 3
Nonlinearity correction enabled: true
Boxcar width: 0
Storing dark spectrum: false
XAxis mode: Wavelengths
Number of Pixels in Spectrum: 2048
>>>>>Begin Spectral Data<<<<<
188.613	0.05
189.078	0.07
189.542	0.07
190.007	0.08
190.472	0.07
190.936	0.05
191.401	0.08
191.865	0.07
192.33	0.08
192.794	0.06
193.258	0.06
193.723	0.06
194.187	0.08
194.651	0.08
195.115	0.07
195.579	0.08
196.043	0.05
196.507	0.07
196.971	0.08
197.435	0.07
197.899	0.08
198.363	0.07
198.827	0.07
199.29	0.06
199.754	0.06
200.218	0.08
200.681	0.05
201.145	0.07
201.608	0.06
202.072	0.07
202.535	0.07
202.998	0.08
203.462	0.07
203.925	0.07
204.388	0.06
204.851	0.06
205.314	0.08
205.777	0.06
206.24	0.06
206.703	0.08
207.166	0.07
207.629	0.08
208.092	0.07
208.555	0.08
209.018	0.08
209.48	0.06
209.943	0.08
210.406	0.08
210.868	0.06
211.331	0.05
211.793	0.07
212.256	0.09
212.718	0.08
213.18	0.07
213.643	0.08
214.105	0.06
214.567	0.06
215.029	0.09
215.491	0.07
215.953	0.08
216.415	0.06
216.877	0.07
217.339	0.09
217.801	0.06
218.263	0.05
218.725	0.07
219.186	0.08
219.648	0.06
220.11	0.06
220.571	0.08
221.033	0.07
221.494	0.07
221.956	0.07
222.417	0.08
222.878	0.06
223.34	0.08
223.801	0.05
224.262	0.07
224.723	0.06
225.185	0.06
225.646	0.06
226.107	0.08
226.568	0.06
227.029	0.08
227.489	0.07
227.95	0.07
228.411	0.06
228.872	0.07
229.332	0.06
229.793	0.05
230.254	0.07
230.714	0.07
231.175	0.08
231.635	0.06
232.096	0.07
232.556	0.06
233.016	0.06
233.477	0.06
233.937	0.05
234.397	0.06
234.857	0.06
235.317	0.06
235.777	0.07
236.237	0.06
236.697	0.07
237.157	0.06
237.617	0.07
238.077	0.07
238.537	0.08
238.996	0.06
239.456	0.08
239.916	0.07
240.375	0.06
240.835	0.05
241.294	0.08
241.754	0.07
242.213	0.09
242.672	0.06
243.132	0.07
243.591	0.08
244.05	0.06
244.509	0.06
244.968	0.07
245.427	0.09
245.886	0.07
246.345	0.07
246.804	0.06
247.263	0.08
247.722	0.06
248.181	0.07
248.639	0.06
249.098	0.07
249.557	0.09
250.015	0.07
250.474	0.07
250.932	0.08
251.391	0.06
251.849	0.08
252.308	0.08
252.766	0.07
253.224	0.08
253.682	0.07
254.14	0.07
254.599	0.08
255.057	0.07
255.515	0.06
255.973	0.07
256.431	0.07
256.888	0.05
257.346	0.06
257.804	0.06
258.262	0.07
258.719	0.08
259.177	0.06
259.635	0.08
260.092	0.08
260.55	0.07
261.007	0.06
261.465	0.07
261.922	0.07
262.379	0.06
262.836	0.06
263.294	0.07
263.751	0.09
264.208	0.06
264.665	0.06
265.122	0.06
265.579	0.07
266.036	0.08
266.493	0.07
266.95	0.07
267.406	0.09
267.863	0.08
268.32	0.08
268.777	0.08
269.233	0.08
269.69	0.06
270.146	0.09
270.603	0.08
271.059	0.05
271.515	0.06
271.972	0.07
272.428	0.06
272.884	0.07
273.34	0.08
273.796	0.05
274.253	0.08
274.709	0.05
275.165	0.05
275.62	0.08
276.076	0.05
276.532	0.08
276.988	0.05
277.444	0.07
277.899	0.06
278.355	0.07
278.811	0.07
279.266	0.07
279.722	0.07
280.177	0.06
280.633	0.05
281.088	0.06
281.543	0.08
281.998	0.07
282.454	0.07
282.909	0.08
283.364	0.06
283.819	0.07
284.274	0.06
284.729	0.07
285.184	0.06
285.639	0.06
286.094	0.09
286.548	0.07
287.003	0.07
287.458	0.08
287.913	0.07
288.367	0.07
288.822	0.06
289.276	0.07
289.731	0.05
290.185	0.07
290.639	0.07
291.094	0.06
291.548	0.08
292.002	0.08
292.456	0.08
292.91	0.07
293.365	0.07
293.819	0.08
294.273	0.06
294.726	0.06
295.18	0.05
295.634	0.09
296.088	0.07
296.542	0.07
296.995	0.07
297.449	0.06
297.903	0.07
298.356	0.06
298.81	0.06
299.263	0.08
299.716	0.06
300.17	0.07
300.623	0.05
301.076	0.08
301.53	0.07
301.983	0.08
302.436	0.08
302.889	0.07
303.342	0.07
303.795	0.07
304.248	0.05
304.701	0.07
305.153	0.08
305.606	0.07
306.059	0.08
306.512	0.08
306.964	0.06
307.417	0.07
307.869	0.07
308.322	0.08
308.774	0.07
309.227	0.08
309.679	0.08
310.131	0.09
310.584	0.08
311.036	0.05
311.488	0.07
311.94	0.08
312.392	0.05
312.844	0.08
313.296	0.07
313.748	0.08
314.2	0.06
314.652	0.09
315.103	0.07
315.555	0.08
316.007	0.08
316.458	0.08
316.91	0.08
317.361	0.07
317.813	0.09
318.264	0.07
318.716	0.07
319.167	0.07
319.618	0.08
320.07	0.08
320.521	0.09
320.972	0.1
321.423	0.09
321.874	0.09
322.325	0.09
322.776	0.1
323.227	0.09
323.678	0.09
324.128	0.1
324.579	0.1
325.03	0.12
325.48	0.11
325.931	0.11
326.382	0.11
326.832	0.11
327.283	0.11
327.733	0.11
328.183	0.12
328.634	0.14
329.084	0.13
329.534	0.14
329.984	0.15
330.434	0.14
330.884	0.14
331.334	0.15
331.784	0.16
332.234	0.16
332.684	0.16
333.134	0.17
333.584	0.17
334.034	0.17
334.483	0.18
334.933	0.19
335.382	0.19
335.832	0.19
336.281	0.19
336.731	0.2
337.18	0.2
337.63	0.2
338.079	0.21
338.528	0.21
338.977	0.22
339.426	0.22
339.876	0.23
340.325	0.23
340.774	0.23
341.223	0.24
341.671	0.25
342.12	0.25
342.569	0.25
343.018	0.26
343.467	0.26
343.915	0.27
344.364	0.27
344.812	0.28
345.261	0.28
345.709	0.29
346.158	0.28
346.606	0.3
347.054	0.3
347.503	0.29
347.951	0.31
348.399	0.31
348.847	0.32
349.295	0.32
349.743	0.31
350.191	0.33
350.639	0.33
351.087	0.33
351.535	0.34
351.983	0.34
352.43	0.35
352.878	0.36
353.326	0.35
353.773	0.36
354.221	0.37
354.668	0.37
355.116	0.38
355.563	0.38
356.01	0.39
356.458	0.4
356.905	0.41
357.352	0.41
357.799	0.42
358.246	0.43
358.693	0.43
359.14	0.44
359.587	0.44
360.034	0.45
360.481	0.45
360.928	0.45
361.375	0.47
361.821	0.48
362.268	0.48
362.714	0.48
363.161	0.49
363.608	0.5
364.054	0.5
364.5	0.51
364.947	0.51
365.393	0.52
365.839	0.52
366.285	0.52
366.732	0.53
367.178	0.53
367.624	0.53
368.07	0.54
368.516	0.54
368.962	0.54
369.408	0.54
369.853	0.54
370.299	0.54
370.745	0.54
371.19	0.54
371.636	0.53
372.082	0.54
372.527	0.53
372.973	0.53
373.418	0.52
373.863	0.51
374.309	0.51
374.754	0.5
375.199	0.5
375.644	0.49
376.09	0.48
376.535	0.48
376.98	0.46
377.425	0.46
377.87	0.44
378.314	0.43
378.759	0.43
379.204	0.42
379.649	0.41
380.093	0.4
380.538	0.4
380.983	0.39
381.427	0.38
381.872	0.37
382.316	0.36
382.76	0.35
383.205	0.34
383.649	0.34
384.093	0.33
384.537	0.32
384.982	0.32
385.426	0.31
385.87	0.3
386.314	0.3
386.758	0.3
387.201	0.29
387.645	0.28
388.089	0.28
388.533	0.27
388.976	0.27
389.42	0.26
389.864	0.26
390.307	0.25
390.751	0.25
391.194	0.24
391.638	0.23
392.081	0.23
392.524	0.23
392.967	0.22
393.411	0.22
393.854	0.22
394.297	0.22
394.74	0.22
395.183	0.22
395.626	0.22
396.069	0.22
396.512	0.22
396.954	0.22
397.397	0.23
397.84	0.23
398.282	0.23
398.725	0.23
399.168	0.24
399.61	0.23
400.052	0.24
400.495	0.22
400.937	0.22
401.38	0.22
401.822	0.21
402.264	0.21
402.706	0.21
403.148	0.2
403.59	0.19
404.032	0.19
404.474	0.18
404.916	0.16
405.358	0.15
405.8	0.15
406.241	0.15
406.683	0.14
407.125	0.13
407.566	0.13
408.008	0.11
408.449	0.11
408.891	0.12
409.332	0.11
409.774	0.11
410.215	0.09
410.656	0.1
411.097	0.09
411.539	0.08
411.98	0.08
412.421	0.07
412.862	0.08
413.303	0.06
413.744	0.07
414.184	0.06
414.625	0.08
415.066	0.07
415.507	0.07
415.947	0.07
416.388	0.08
416.828	0.07
417.269	0.06
417.709	0.06
418.15	0.06
418.59	0.07
419.03	0.05
419.471	0.06
419.911	0.04
420.351	0.05
420.791	0.05
421.231	0.06
421.671	0.06
422.111	0.05
422.551	0.05
422.991	0.06
423.431	0.05
423.87	0.06
424.31	0.06
424.75	0.06
425.189	0.05
425.629	0.05
426.068	0.06
426.508	0.05
426.947	0.06
427.386	0.05
427.826	0.06
428.265	0.06
428.704	0.05
429.143	0.05
429.582	0.06
430.021	0.06
430.46	0.06
430.899	0.05
431.338	0.05
431.777	0.06
432.216	0.06
432.655	0.05
433.093	0.05
433.532	0.05
433.971	0.05
434.409	0.06
434.848	0.06
435.286	0.05
435.724	0.06
436.163	0.05
436.601	0.06
437.039	0.06
437.477	0.05
437.916	0.05
438.354	0.07
438.792	0.06
439.23	0.06
439.668	0.07
440.105	0.06
440.543	0.06
440.981	0.07
441.419	0.06
441.856	0.05
442.294	0.06
442.732	0.06
443.169	0.06
443.607	0.06
444.044	0.05
444.481	0.08
444.919	0.07
445.356	0.06
445.793	0.06
446.23	0.08
446.668	0.07
447.105	0.07
447.542	0.06
447.979	0.06
448.416	0.05
448.852	0.07
449.289	0.06
449.726	0.07
450.163	0.07
450.599	0.07
451.036	0.05
451.473	0.08
451.909	0.07
452.346	0.06
452.782	0.07
453.218	0.06
453.655	0.07
454.091	0.06
454.527	0.08
454.963	0.09
455.399	0.06
455.835	0.06
456.271	0.06
456.707	0.07
457.143	0.06
457.579	0.04
458.015	0.06
458.451	0.09
458.886	0.07
459.322	0.07
459.758	0.06
460.193	0.09
460.629	0.08
461.064	0.08
461.5	0.08
461.935	0.07
462.37	0.07
462.805	0.07
463.241	0.08
463.676	0.06
464.111	0.07
464.546	0.07
464.981	0.08
465.416	0.07
465.851	0.09
466.286	0.07
466.72	0.06
467.155	0.07
467.59	0.08
468.024	0.09
468.459	0.08
468.893	0.09
469.328	0.09
469.762	0.09
470.197	0.09
470.631	0.1
471.065	0.09
471.5	0.08
471.934	0.1
472.368	0.09
472.802	0.09
473.236	0.09
473.67	0.1
474.104	0.1
474.538	0.1
474.972	0.1
475.405	0.1
475.839	0.11
476.273	0.11
476.706	0.1
477.14	0.12
477.573	0.11
478.007	0.12
478.44	0.11
478.874	0.11
479.307	0.12
479.74	0.11
480.173	0.12
480.606	0.13
481.04	0.12
481.473	0.12
481.906	0.12
482.339	0.12
482.771	0.12
483.204	0.13
483.637	0.13
484.07	0.13
484.502	0.12
484.935	0.13
485.368	0.13
485.8	0.13
486.233	0.14
486.665	0.13
487.098	0.14
487.53	0.14
487.962	0.14
488.394	0.14
488.827	0.14
489.259	0.14
489.691	0.14
490.123	0.15
490.555	0.14
490.987	0.15
491.418	0.15
491.85	0.15
492.282	0.15
492.714	0.15
493.145	0.15
493.577	0.16
494.009	0.16
494.44	0.16
494.872	0.16
495.303	0.16
495.734	0.16
496.166	0.16
496.597	0.16
497.028	0.16
497.459	0.17
497.89	0.17
498.321	0.17
498.752	0.17
499.183	0.17
499.614	0.17
500.045	0.17
500.476	0.18
500.906	0.18
501.337	0.18
501.768	0.18
502.198	0.18
502.629	0.18
503.059	0.18
503.49	0.18
503.92	0.18
504.35	0.19
504.781	0.19
505.211	0.19
505.641	0.19
506.071	0.19
506.501	0.19
506.931	0.19
507.361	0.19
507.791	0.19
508.221	0.2
508.651	0.2
509.081	0.2
509.51	0.2
509.94	0.2
510.37	0.2
510.799	0.2
511.229	0.2
511.658	0.2
512.087	0.21
512.517	0.21
512.946	0.21
513.375	0.21
513.804	0.21
514.234	0.21
514.663	0.21
515.092	0.22
515.521	0.21
515.95	0.22
516.378	0.22
516.807	0.22
517.236	0.22
517.665	0.22
518.093	0.22
518.522	0.22
518.951	0.22
519.379	0.22
519.807	0.22
520.236	0.22
520.664	0.23
521.093	0.23
521.521	0.23
521.949	0.22
522.377	0.23
522.805	0.23
523.233	0.23
523.661	0.23
524.089	0.23
524.517	0.23
524.945	0.23
525.373	0.23
525.8	0.24
526.228	0.23
526.656	0.24
527.083	0.24
527.511	0.24
527.938	0.23
528.366	0.23
528.793	0.24
529.22	0.24
529.648	0.24
530.075	0.24
530.502	0.24
530.929	0.24
531.356	0.24
531.783	0.24
532.21	0.24
532.637	0.24
533.064	0.24
533.49	0.24
533.917	0.24
534.344	0.24
534.771	0.24
535.197	0.24
535.624	0.24
536.05	0.24
536.477	0.24
536.903	0.24
537.329	0.24
537.755	0.24
538.182	0.24
538.608	0.24
539.034	0.24
539.46	0.24
539.886	0.24
540.312	0.25
540.738	0.24
541.164	0.25
541.589	0.25
542.015	0.24
542.441	0.24
542.867	0.24
543.292	0.25
543.718	0.24
544.143	0.24
544.569	0.24
544.994	0.25
545.419	0.25
545.845	0.24
546.27	0.24
546.695	0.24
547.12	0.24
547.545	0.24
547.97	0.24
548.395	0.24
548.82	0.24
549.245	0.24
549.67	0.24
550.094	0.24
550.519	0.24
550.944	0.24
551.368	0.24
551.793	0.24
552.217	0.24
552.642	0.24
553.066	0.24
553.49	0.24
553.915	0.24
554.339	0.24
554.763	0.24
555.187	0.24
555.611	0.24
556.035	0.24
556.459	0.24
556.883	0.24
557.307	0.24
557.731	0.23
558.154	0.23
558.578	0.23
559.002	0.23
559.425	0.24
559.849	0.23
560.272	0.23
560.696	0.23
561.119	0.23
561.543	0.23
561.966	0.23
562.389	0.23
562.812	0.23
563.235	0.23
563.658	0.23
564.081	0.23
564.504	0.23
564.927	0.22
565.35	0.22
565.773	0.22
566.196	0.22
566.618	0.22
567.041	0.22
567.463	0.22
567.886	0.22
568.309	0.22
568.731	0.22
569.153	0.22
569.576	0.22
569.998	0.22
570.42	0.22
570.842	0.22
571.264	0.22
571.686	0.21
572.108	0.21
572.53	0.21
572.952	0.22
573.374	0.21
573.796	0.21
574.218	0.21
574.639	0.21
575.061	0.21
575.483	0.21
575.904	0.21
576.326	0.21
576.747	0.21
577.168	0.2
577.59	0.2
578.011	0.2
578.432	0.2
578.853	0.2
579.274	0.2
579.695	0.2
580.116	0.2
580.537	0.2
580.958	0.2
581.379	0.2
581.8	0.2
582.221	0.2
582.641	0.2
583.062	0.2
583.482	0.19
583.903	0.2
584.323	0.19
584.744	0.19
585.164	0.19
585.584	0.19
586.005	0.19
586.425	0.19
586.845	0.19
587.265	0.19
587.685	0.19
588.105	0.19
588.525	0.19
588.945	0.19
589.365	0.19
589.785	0.19
590.204	0.19
590.624	0.19
591.044	0.19
591.463	0.19
591.883	0.19
592.302	0.19
592.721	0.19
593.141	0.19
593.56	0.18
593.979	0.18
594.399	0.18
594.818	0.18
595.237	0.18
595.656	0.18
596.075	0.18
596.494	0.18
596.913	0.18
597.331	0.18
597.75	0.18
598.169	0.18
598.587	0.18
599.006	0.18
599.425	0.18
599.843	0.18
600.262	0.17
600.68	0.18
601.098	0.17
601.517	0.17
601.935	0.17
602.353	0.17
602.771	0.17
603.189	0.17
603.607	0.17
604.025	0.17
604.443	0.17
604.861	0.17
605.279	0.17
605.696	0.17
606.114	0.17
606.532	0.17
606.949	0.17
607.367	0.17
607.784	0.17
608.202	0.16
608.619	0.16
609.036	0.16
609.454	0.16
609.871	0.16
610.288	0.16
610.705	0.16
611.122	0.16
611.539	0.16
611.956	0.16
612.373	0.16
612.79	0.16
613.207	0.16
613.623	0.15
614.04	0.15
614.457	0.15
614.873	0.15
615.29	0.15
615.706	0.15
616.122	0.15
616.539	0.15
616.955	0.15
617.371	0.15
617.788	0.15
618.204	0.15
618.62	0.15
619.036	0.15
619.452	0.15
619.868	0.14
620.284	0.14
620.699	0.14
621.115	0.14
621.531	0.14
621.946	0.14
622.362	0.14
622.778	0.14
623.193	0.14
623.608	0.14
624.024	0.14
624.439	0.14
624.854	0.14
625.27	0.13
625.685	0.13
626.1	0.13
626.515	0.13
626.93	0.13
627.345	0.13
627.76	0.13
628.175	0.13
628.589	0.13
629.004	0.13
629.419	0.13
629.833	0.13
630.248	0.13
630.663	0.12
631.077	0.12
631.491	0.12
631.906	0.12
632.32	0.12
632.734	0.12
633.148	0.12
633.563	0.12
633.977	0.12
634.391	0.12
634.805	0.12
635.219	0.12
635.632	0.12
636.046	0.12
636.46	0.11
636.874	0.11
637.287	0.11
637.701	0.11
638.115	0.11
638.528	0.11
638.941	0.11
639.355	0.11
639.768	0.11
640.181	0.1
640.595	0.1
641.008	0.1
641.421	0.11
641.834	0.1
642.247	0.1
642.66	0.1
643.073	0.1
643.486	0.1
643.898	0.1
644.311	0.1
644.724	0.1
645.136	0.1
645.549	0.1
645.961	0.1
646.374	0.09
646.786	0.09
647.199	0.09
647.611	0.09
648.023	0.09
648.435	0.09
648.847	0.09
649.26	0.09
649.672	0.09
650.084	0.09
650.495	0.09
650.907	0.09
651.319	0.09
651.731	0.09
652.143	0.09
652.554	0.08
652.966	0.09
653.377	0.08
653.789	0.08
654.2	0.08
654.612	0.08
655.023	0.09
655.434	0.07
655.845	0.06
656.256	0.08
656.668	0.08
657.079	0.08
657.49	0.08
657.901	0.08
658.311	0.08
658.722	0.08
659.133	0.08
659.544	0.08
659.954	0.08
660.365	0.08
660.775	0.07
661.186	0.08
661.596	0.08
662.007	0.07
662.417	0.07
662.827	0.07
663.238	0.07
663.648	0.07
664.058	0.07
664.468	0.07
664.878	0.07
665.288	0.07
665.698	0.07
666.108	0.07
666.517	0.07
666.927	0.07
667.337	0.07
667.746	0.07
668.156	0.07
668.565	0.07
668.975	0.07
669.384	0.07
669.794	0.07
670.203	0.07
670.612	0.07
671.021	0.06
671.43	0.06
671.84	0.06
672.249	0.06
672.658	0.06
673.066	0.06
673.475	0.06
673.884	0.06
674.293	0.06
674.702	0.06
675.11	0.06
675.519	0.06
675.927	0.06
676.336	0.06
676.744	0.06
677.152	0.05
677.561	0.06
677.969	0.05
678.377	0.05
678.785	0.05
679.193	0.05
679.601	0.05
680.009	0.05
680.417	0.05
680.825	0.05
681.233	0.05
681.641	0.05
682.048	0.05
682.456	0.05
682.864	0.05
683.271	0.05
683.679	0.04
684.086	0.05
684.493	0.04
684.901	0.05
685.308	0.05
685.715	0.04
686.122	0.04
686.529	0.04
686.936	0.04
687.343	0.04
687.75	0.04
688.157	0.04
688.564	0.04
688.971	0.04
689.378	0.04
689.784	0.04
690.191	0.04
690.597	0.04
691.004	0.04
691.41	0.04
691.817	0.04
692.223	0.04
692.629	0.04
693.035	0.03
693.442	0.04
693.848	0.04
694.254	0.04
694.66	0.04
695.066	0.04
695.471	0.04
695.877	0.03
696.283	0.03
696.689	0.03
697.094	0.03
697.5	0.03
697.906	0.03
698.311	0.03
698.716	0.03
699.122	0.03
699.527	0.03
699.932	0.03
700.338	0.03
700.743	0.03
701.148	0.03
701.553	0.03
701.958	0.03
702.363	0.03
702.768	0.03
703.173	0.03
703.577	0.03
703.982	0.03
704.387	0.03
704.791	0.03
705.196	0.03
705.6	0.03
706.005	0.03
706.409	0.03
706.814	0.03
707.218	0.03
707.622	0.03
708.026	0.03
708.43	0.03
708.834	0.03
709.238	0.03
709.642	0.03
710.046	0.03
710.45	0.03
710.854	0.03
711.257	0.03
711.661	0.03
712.065	0.03
712.468	0.03
712.872	0.03
713.275	0.03
713.679	0.03
714.082	0.03
714.485	0.03
714.888	0.03
715.291	0.03
715.695	0.03
716.098	0.03
716.501	0.03
716.904	0.03
717.306	0.03
717.709	0.03
718.112	0.03
718.515	0.03
718.917	0.02
719.32	0.03
719.723	0.03
720.125	0.03
720.527	0.03
720.93	0.03
721.332	0.03
721.734	0.03
722.137	0.03
722.539	0.03
722.941	0.03
723.343	0.03
723.745	0.03
724.147	0.03
724.549	0.03
724.95	0.03
725.352	0.03
725.754	0.03
726.156	0.03
726.557	0.03
726.959	0.03
727.36	0.03
727.762	0.03
728.163	0.03
728.564	0.03
728.966	0.03
729.367	0.03
729.768	0.03
730.169	0.02
730.57	0.03
730.971	0.02
731.372	0.03
731.773	0.03
732.174	0.03
732.574	0.02
732.975	0.03
733.376	0.03
733.776	0.03
734.177	0.02
734.577	0.03
734.978	0.02
735.378	0.03
735.778	0.03
736.179	0.02
736.579	0.02
736.979	0.02
737.379	0.02
737.779	0.03
738.179	0.03
738.579	0.02
738.979	0.02
739.379	0.03
739.778	0.02
740.178	0.02
740.578	0.02
740.977	0.02
741.377	0.02
741.776	0.02
742.176	0.02
742.575	0.02
742.974	0.02
743.374	0.02
743.773	0.02
744.172	0.02
744.571	0.02
744.97	0.02
745.369	0.02
745.768	0.02
746.167	0.02
746.565	0.02
746.964	0.02
747.363	0.02
747.761	0.02
748.16	0.02
748.559	0.02
748.957	0.02
749.355	0.02
749.754	0.02
750.152	0.02
750.55	0.02
750.948	0.02
751.347	0.02
751.745	0.02
752.143	0.02
752.541	0.02
752.938	0.02
753.336	0.02
753.734	0.02
754.132	0.02
754.529	0.02
754.927	0.02
755.325	0.02
755.722	0.02
756.119	0.02
756.517	0.02
756.914	0.02
757.311	0.02
757.709	0.02
758.106	0.02
758.503	0.02
758.9	0.02
759.297	0.02
759.694	0.02
760.091	0.02
760.488	0.02
760.884	0.02
761.281	0.02
761.678	0.02
762.074	0.02
762.471	0.02
762.867	0.02
763.264	0.02
763.66	0.02
764.056	0.02
764.453	0.02
764.849	0.02
765.245	0.02
765.641	0.02
766.037	0.02
766.433	0.02
766.829	0.02
767.225	0.02
767.621	0.02
768.016	0.02
768.412	0.02
768.808	0.02
769.203	0.02
769.599	0.02
769.994	0.02
770.389	0.02
770.785	0.02
771.18	0.02
771.575	0.02
771.971	0.02
772.366	0.02
772.761	0.02
773.156	0.02
773.551	0.02
773.945	0.02
774.34	0.02
774.735	0.02
775.13	0.02
775.524	0.02
775.919	0.02
776.314	0.02
776.708	0.02
777.103	0.02
777.497	0.02
777.891	0.02
778.285	0.02
778.68	0.02
779.074	0.02
779.468	0.02
779.862	0.02
780.256	0.02
780.65	0.02
781.044	0.02
781.438	0.02
781.831	0.02
782.225	0.02
782.619	0.02
783.012	0.02
783.406	0.02
783.799	0.02
784.193	0.02
784.586	0.02
784.979	0.02
785.372	0.02
785.766	0.02
786.159	0.02
786.552	0.02
786.945	0.02
787.338	0.02
787.731	0.02
788.123	0.02
788.516	0.02
788.909	0.02
789.302	0.02
789.694	0.02
790.087	0.02
790.479	0.02
790.872	0.02
791.264	0.02
791.656	0.02
792.049	0.02
792.441	0.02
792.833	0.02
793.225	0.02
793.617	0.02
794.009	0.02
794.401	0.02
794.793	0.02
795.185	0.02
795.576	0.02
795.968	0.02
796.36	0.02
796.751	0.02
797.143	0.02
797.534	0.02
797.926	0.02
798.317	0.03
798.708	0.02
799.1	0.03
799.491	0.02
799.882	0.03
800.273	0.03
800.664	0.02
801.055	0.02
801.446	0.03
801.837	0.03
802.227	0.03
802.618	0.03
803.009	0.03
803.399	0.03
803.79	0.03
804.18	0.03
804.571	0.03
804.961	0.03
805.351	0.03
805.742	0.03
806.132	0.03
806.522	0.03
806.912	0.03
807.302	0.03
807.692	0.03
808.082	0.03
808.472	0.03
808.862	0.03
809.251	0.03
809.641	0.03
810.031	0.03
810.42	0.03
810.81	0.03
811.199	0.03
811.589	0.03
811.978	0.03
812.367	0.03
812.756	0.03
813.146	0.03
813.535	0.03
813.924	0.03
814.313	0.03
814.702	0.03
815.091	0.03
815.479	0.03
815.868	0.03
816.257	0.03
816.645	0.03
817.034	0.03
817.423	0.03
817.811	0.03
818.199	0.03
818.588	0.03
818.976	0.03
819.364	0.03
819.753	0.03
820.141	0.03
820.529	0.03
820.917	0.03
821.305	0.03
821.693	0.03
822.08	0.03
822.468	0.03
822.856	0.03
823.244	0.03
823.631	0.03
824.019	0.03
824.406	0.03
824.794	0.03
825.181	0.04
825.568	0.03
825.956	0.03
826.343	0.04
826.73	0.03
827.117	0.04
827.504	0.04
827.891	0.04
828.278	0.04
828.665	0.04
829.052	0.04
829.438	0.04
829.825	0.04
830.212	0.04
830.598	0.04
830.985	0.04
831.371	0.04
831.757	0.04
832.144	0.04
832.53	0.04
832.916	0.04
833.302	0.04
833.688	0.04
834.075	0.04
834.461	0.04
834.846	0.04
835.232	0.04
835.618	0.04
836.004	0.04
836.39	0.04
836.775	0.04
837.161	0.04
837.546	0.04
837.932	0.04
838.317	0.04
838.702	0.04
839.088	0.04
839.473	0.04
839.858	0.04
840.243	0.04
840.628	0.04
841.013	0.04
841.398	0.04
841.783	0.04
842.168	0.04
842.553	0.04
842.937	0.04
843.322	0.04
843.707	0.04
844.091	0.04
844.476	0.05
844.86	0.04
845.244	0.04
845.629	0.04
846.013	0.04
846.397	0.04
846.781	0.05
847.165	0.05
847.549	0.05
847.933	0.05
848.317	0.05
848.701	0.04
849.085	0.05
849.468	0.05
849.852	0.05
850.236	0.05
850.619	0.05
851.003	0.05
851.386	0.05
851.769	0.05
852.153	0.05
852.536	0.05
852.919	0.05
853.302	0.05
853.685	0.05
854.068	0.05
854.451	0.05
854.834	0.05
855.217	0.05
855.6	0.05
855.982	0.05
856.365	0.05
856.748	0.05
857.13	0.05
857.513	0.05
857.895	0.05
858.277	0.05
858.66	0.05
859.042	0.05
859.424	0.05
859.806	0.05
860.188	0.05
860.57	0.05
860.952	0.05
861.334	0.05
861.716	0.05
862.098	0.05
862.48	0.05
862.861	0.05
863.243	0.05
863.624	0.05
864.006	0.05
864.387	0.05
864.769	0.05
865.15	0.06
865.531	0.05
865.912	0.05
866.294	0.06
866.675	0.05
867.056	0.06
867.437	0.06
867.818	0.06
868.198	0.06
868.579	0.06
868.96	0.06
869.341	0.06
869.721	0.06
870.102	0.06
870.482	0.06
870.863	0.06
871.243	0.06
871.623	0.06
872.003	0.06
872.384	0.06
872.764	0.06
873.144	0.06
873.524	0.06
873.904	0.06
874.284	0.06
874.664	0.06
875.043	0.06
875.423	0.06
875.803	0.06
876.182	0.06
876.562	0.06
876.941	0.06
877.321	0.06
877.7	0.06
878.079	0.06
878.459	0.06
878.838	0.06
879.217	0.06
879.596	0.06
879.975	0.06
880.354	0.06
880.733	0.06
881.112	0.06
881.491	0.06
881.869	0.06
882.248	0.06
882.627	0.06
883.005	0.06
883.384	0.06
883.762	0.06
884.14	0.06
884.519	0.07
884.897	0.06
885.275	0.06
885.653	0.07
886.031	0.07
886.409	0.06
886.787	0.06
887.165	0.07
887.543	0.06
887.921	0.06
888.298	0.07
888.676	0.07
889.054	0.06
889.431	0.07
889.809	0.06
890.186	0.06
890.563	0.06
890.941	0.06
891.318	0.06
891.695	0.06
892.072	0.06
892.449	0.07
892.826	0.06
893.203	0.07
893.58	0.07
893.957	0.07
894.334	0.06
894.71	0.07
895.087	0.06
895.464	0.07
895.84	0.06
896.217	0.07
896.593	0.07
896.969	0.06
897.346	0.07
897.722	0.07
898.098	0.07
898.474	0.07
898.85	0.07
899.226	0.07
899.602	0.07
899.978	0.07
900.354	0.07
900.73	0.07
901.105	0.07
901.481	0.07
901.857	0.07
902.232	0.07
902.608	0.07
902.983	0.07
903.358	0.07
903.734	0.07
904.109	0.07
904.484	0.07
904.859	0.07
905.234	0.07
905.609	0.07
905.984	0.07
906.359	0.07
906.734	0.07
907.108	0.07
907.483	0.07
907.858	0.07
908.232	0.07
908.607	0.07
908.981	0.07
909.356	0.07
909.73	0.07
910.104	0.07
910.478	0.07
910.853	0.07
911.227	0.07
911.601	0.07
911.975	0.07
912.349	0.07
912.722	0.07
913.096	0.07
913.47	0.07
913.844	0.07
914.217	0.07
914.591	0.07
914.964	0.07
915.338	0.07
915.711	0.07
916.084	0.07
916.458	0.07
916.831	0.07
917.204	0.07
917.577	0.07
917.95	0.07
918.323	0.07
918.696	0.07
919.069	0.07
919.441	0.07
919.814	0.07
920.187	0.07
920.559	0.07
920.932	0.07
921.304	0.07
921.677	0.07
922.049	0.07
922.421	0.07
922.794	0.07
923.166	0.07
923.538	0.07
923.91	0.07
924.282	0.07
924.654	0.07
925.026	0.07
925.398	0.07
925.769	0.07
926.141	0.07
926.513	0.07
926.884	0.07
927.256	0.07
927.627	0.07
927.999	0.07
928.37	0.07
928.741	0.07
929.113	0.07
929.484	0.07
929.855	0.07
930.226	0.07
930.597	0.07
930.968	0.07
931.339	0.07
931.709	0.07
932.08	0.07
932.451	0.07
932.821	0.07
933.192	0.07
933.562	0.07
933.933	0.07
934.303	0.07
934.673	0.07
935.044	0.07
935.414	0.07
935.784	0.07
936.154	0.07
936.524	0.07
936.894	0.07
937.264	0.07
937.634	0.07
938.004	0.07
938.373	0.07
938.743	0.07
939.113	0.07
939.482	0.07
939.852	0.07
940.221	0.07
940.59	0.07
940.96	0.07
941.329	0.07
941.698	0.07
942.067	0.07
942.436	0.07
942.805	0.07
943.174	0.07
943.543	0.07
943.912	0.07
944.28	0.07
944.649	0.07
945.018	0.07
945.386	0.07
945.755	0.07
946.123	0.07
946.492	0.07
946.86	0.07
947.228	0.07
947.596	0.07
947.965	0.07
948.333	0.07
948.701	0.07
949.069	0.07
949.437	0.07
949.804	0.07
950.172	0.07
950.54	0.07
950.908	0.07
951.275	0.07
951.643	0.07
952.01	0.07
952.378	0.07
952.745	0.07
953.112	0.07
953.479	0.07
953.847	0.07
954.214	0.07
954.581	0.07
954.948	0.07
955.315	0.07
955.682	0.07
956.048	0.07
956.415	0.07
956.782	0.07
957.148	0.07
957.515	0.07
957.881	0.07
958.248	0.07
958.614	0.07
958.981	0.07
959.347	0.07
959.713	0.07
960.079	0.07
960.445	0.07
960.811	0.07
961.177	0.07
961.543	0.07
961.909	0.07
962.275	0.07
962.641	0.07
963.006	0.07
963.372	0.07
963.737	0.07
964.103	0.07
964.468	0.07
964.834	0.06
965.199	0.07
965.564	0.07
965.929	0.07
966.294	0.07
966.659	0.07
967.024	0.07
967.389	0.07
967.754	0.07
968.119	0.07
968.484	0.07
968.848	0.07
969.213	0.07
969.578	0.06
969.942	0.07
970.307	0.07
970.671	0.07
971.035	0.07
971.399	0.06
971.764	0.07
972.128	0.07
972.492	0.07
972.856	0.07
973.22	0.06
973.584	0.06
973.948	0.06
974.311	0.07
974.675	0.07
975.039	0.07
975.402	0.07
975.766	0.07
976.129	0.06
976.493	0.07
976.856	0.07
977.219	0.07
977.582	0.07
977.946	0.07
978.309	0.07
978.672	0.07
979.035	0.07
979.398	0.07
979.761	0.07
980.123	0.07
980.486	0.06
980.849	0.07
981.211	0.07
981.574	0.07
981.936	0.07
982.299	0.06
982.661	0.06
983.023	0.07
983.386	0.07
983.748	0.06
984.11	0.06
984.472	0.07
984.834	0.06
985.196	0.06
985.558	0.06
985.92	0.07
986.281	0.06
986.643	0.06
987.005	0.07
987.366	0.06
987.728	0.06
988.089	0.06
988.451	0.06
988.812	0.06
989.173	0.06
989.534	0.06
989.895	0.06
990.257	0.07
990.618	0.06
990.979	0.06
991.339	0.06
991.7	0.07
992.061	0.06
992.422	0.06
992.782	0.07
993.143	0.06
993.503	0.07
993.864	0.07
994.224	0.06
994.585	0.06
994.945	0.06
995.305	0.06
995.665	0.06
996.025	0.07
996.385	0.06
996.745	0.06
997.105	0.06
997.465	0.06
997.825	0.06
998.185	0.06
998.544	0.06
998.904	0.06
999.263	0.06
999.623	0.06
999.982	0.06
1000.342	0.06
1000.701	0.06
1001.06	0.06
1001.419	0.06
1001.778	0.06
1002.138	0.06
1002.497	0.06
1002.855	0.06
1003.214	0.07
1003.573	0.06
1003.932	0.06
1004.29	0.06
1004.649	0.06
1005.008	0.06
1005.366	0.06
1005.725	0.06
1006.083	0.06
1006.441	0.06
1006.799	0.06
1007.158	0.06
1007.516	0.06
1007.874	0.06
1008.232	0.06
1008.59	0.06
1008.948	0.06
1009.305	0.06
1009.663	0.06
1010.021	0.06
1010.379	0.06
1010.736	0.06
1011.094	0.06
1011.451	0.06
1011.808	0.06
1012.166	0.06
1012.523	0.06
1012.88	0.06
1013.237	0.06
1013.594	0.05
1013.951	0.06
1014.308	0.06
1014.665	0.06
1015.022	0.06
1015.379	0.05
1015.735	0.06
1016.092	0.06
1016.449	0.06
1016.805	0.06
1017.162	0.06
1017.518	0.06
1017.874	0.06
1018.231	0.06
1018.587	0.06
1018.943	0.06
1019.299	0.06
1019.655	0.05
1020.011	0.06
1020.367	0.05
1020.723	0.06
1021.078	0.06
1021.434	0.06
1021.79	0.06
1022.145	0.06
1022.501	0.06
1022.856	0.05
1023.212	0.06
1023.567	0.06
1023.922	0.06
1024.278	0.06
1024.633	0.06
1024.988	0.06
1025.343	0.06
1025.698	0.06
1026.053	0.05
1026.408	0.06
1026.762	0.06
1027.117	0.05
1027.472	0.05
1027.826	0.05
1028.181	0.05
1028.535	0.06
1028.89	0.06
1029.244	0.06
1029.598	0.06
1029.952	0.06
1030.307	0.05
1030.661	0.05
1031.015	0.05
1031.369	0.05
1031.723	0.05
1032.076	0.05
