Data from Rubpy_BV_EDTA_TU(3000)_Blank_Blue_Flow_Absorbance__1158__13-06-00-843.txt Node

Date: Mon Aug 03 13:06:00 BST 2026
User: fpm-admin
Spectrometer: SR600986
Trigger mode: 0
Integration Time (sec): 8.000000E-3
Scans to average: 3
Nonlinearity correction enabled: true
Boxcar width: 0
Storing dark spectrum: false
XAxis mode: Wavelengths
Number of Pixels in Spectrum: 2048
>>>>>Begin Spectral Data<<<<<
188.613	0.21
189.078	0.22
189.542	0.22
190.007	0.22
190.472	0.21
190.936	0.21
191.401	0.21
191.865	0.23
192.33	0.24
192.794	0.22
193.258	0.23
193.723	0.21
194.187	0.22
194.651	0.23
195.115	0.23
195.579	0.25
196.043	0.23
196.507	0.22
196.971	0.22
197.435	0.21
197.899	0.23
198.363	0.22
198.827	0.21
199.29	0.23
199.754	0.22
200.218	0.24
200.681	0.23
201.145	0.22
201.608	0.23
202.072	0.23
202.535	0.21
202.998	0.21
203.462	0.22
203.925	0.22
204.388	0.22
204.851	0.2
205.314	0.23
205.777	0.2
206.24	0.24
206.703	0.24
207.166	0.21
207.629	0.23
208.092	0.23
208.555	0.23
209.018	0.24
209.48	0.22
209.943	0.23
210.406	0.21
210.868	0.21
211.331	0.22
211.793	0.22
212.256	0.24
212.718	0.23
213.18	0.23
213.643	0.25
214.105	0.21
214.567	0.22
215.029	0.24
215.491	0.22
215.953	0.23
216.415	0.21
216.877	0.21
217.339	0.24
217.801	0.22
218.263	0.22
218.725	0.24
219.186	0.23
219.648	0.22
220.11	0.2
220.571	0.22
221.033	0.23
221.494	0.23
221.956	0.21
222.417	0.25
222.878	0.24
223.34	0.25
223.801	0.22
224.262	0.23
224.723	0.22
225.185	0.21
225.646	0.2
226.107	0.23
226.568	0.21
227.029	0.24
227.489	0.23
227.95	0.23
228.411	0.21
228.872	0.23
229.332	0.21
229.793	0.21
230.254	0.22
230.714	0.22
231.175	0.23
231.635	0.22
232.096	0.21
232.556	0.2
233.016	0.22
233.477	0.2
233.937	0.22
234.397	0.22
234.857	0.21
235.317	0.22
235.777	0.21
236.237	0.24
236.697	0.23
237.157	0.24
237.617	0.22
238.077	0.23
238.537	0.23
238.996	0.22
239.456	0.22
239.916	0.23
240.375	0.22
240.835	0.22
241.294	0.23
241.754	0.2
242.213	0.23
242.672	0.2
243.132	0.21
243.591	0.24
244.05	0.2
244.509	0.22
244.968	0.23
245.427	0.21
245.886	0.22
246.345	0.22
246.804	0.22
247.263	0.21
247.722	0.22
248.181	0.22
248.639	0.22
249.098	0.22
249.557	0.24
250.015	0.22
250.474	0.23
250.932	0.24
251.391	0.22
251.849	0.23
252.308	0.23
252.766	0.23
253.224	0.25
253.682	0.22
254.14	0.22
254.599	0.23
255.057	0.22
255.515	0.23
255.973	0.23
256.431	0.22
256.888	0.22
257.346	0.22
257.804	0.22
258.262	0.22
258.719	0.24
259.177	0.24
259.635	0.22
260.092	0.21
260.55	0.23
261.007	0.23
261.465	0.24
261.922	0.22
262.379	0.21
262.836	0.24
263.294	0.23
263.751	0.24
264.208	0.23
264.665	0.2
265.122	0.22
265.579	0.22
266.036	0.24
266.493	0.2
266.95	0.23
267.406	0.22
267.863	0.24
268.32	0.23
268.777	0.23
269.233	0.22
269.69	0.24
270.146	0.26
270.603	0.24
271.059	0.22
271.515	0.23
271.972	0.23
272.428	0.2
272.884	0.23
273.34	0.21
273.796	0.22
274.253	0.22
274.709	0.21
275.165	0.22
275.62	0.23
276.076	0.19
276.532	0.21
276.988	0.22
277.444	0.22
277.899	0.23
278.355	0.22
278.811	0.23
279.266	0.24
279.722	0.23
280.177	0.21
280.633	0.22
281.088	0.22
281.543	0.23
281.998	0.22
282.454	0.22
282.909	0.22
283.364	0.21
283.819	0.26
284.274	0.22
284.729	0.22
285.184	0.23
285.639	0.21
286.094	0.23
286.548	0.23
287.003	0.24
287.458	0.22
287.913	0.22
288.367	0.23
288.822	0.21
289.276	0.22
289.731	0.22
290.185	0.23
290.639	0.23
291.094	0.24
291.548	0.24
292.002	0.24
292.456	0.22
292.91	0.22
293.365	0.21
293.819	0.25
294.273	0.21
294.726	0.22
295.18	0.22
295.634	0.26
296.088	0.25
296.542	0.23
296.995	0.22
297.449	0.23
297.903	0.23
298.356	0.23
298.81	0.22
299.263	0.24
299.716	0.23
300.17	0.23
300.623	0.21
301.076	0.24
301.53	0.23
301.983	0.24
302.436	0.22
302.889	0.23
303.342	0.24
303.795	0.24
304.248	0.22
304.701	0.23
305.153	0.24
305.606	0.23
306.059	0.26
306.512	0.22
306.964	0.23
307.417	0.21
307.869	0.23
308.322	0.24
308.774	0.23
309.227	0.24
309.679	0.25
310.131	0.24
310.584	0.24
311.036	0.22
311.488	0.22
311.94	0.24
312.392	0.23
312.844	0.24
313.296	0.25
313.748	0.25
314.2	0.23
314.652	0.24
315.103	0.25
315.555	0.26
316.007	0.26
316.458	0.27
316.91	0.26
317.361	0.25
317.813	0.27
318.264	0.26
318.716	0.27
319.167	0.26
319.618	0.26
320.07	0.29
320.521	0.26
320.972	0.3
321.423	0.29
321.874	0.3
322.325	0.3
322.776	0.3
323.227	0.3
323.678	0.31
324.128	0.31
324.579	0.33
325.03	0.35
325.48	0.36
325.931	0.36
326.382	0.36
326.832	0.37
327.283	0.4
327.733	0.42
328.183	0.42
328.634	0.44
329.084	0.45
329.534	0.45
329.984	0.48
330.434	0.5
330.884	0.5
331.334	0.52
331.784	0.53
332.234	0.55
332.684	0.55
333.134	0.57
333.584	0.58
334.034	0.6
334.483	0.61
334.933	0.63
335.382	0.65
335.832	0.65
336.281	0.66
336.731	0.67
337.18	0.7
337.63	0.7
338.079	0.73
338.528	0.74
338.977	0.76
339.426	0.77
339.876	0.81
340.325	0.81
340.774	0.82
341.223	0.83
341.671	0.85
342.12	0.87
342.569	0.86
343.018	0.9
343.467	0.89
343.915	0.92
344.364	0.92
344.812	0.94
345.261	0.96
345.709	0.97
346.158	0.98
346.606	0.99
347.054	1.01
347.503	1.02
347.951	1.03
348.399	1.04
348.847	1.07
349.295	1.07
349.743	1.06
350.191	1.08
350.639	1.1
351.087	1.1
351.535	1.12
351.983	1.11
352.43	1.13
352.878	1.14
353.326	1.16
353.773	1.16
354.221	1.19
354.668	1.18
355.116	1.2
355.563	1.23
356.01	1.21
356.458	1.23
356.905	1.25
357.352	1.27
357.799	1.28
358.246	1.29
358.693	1.29
359.14	1.3
359.587	1.33
360.034	1.34
360.481	1.34
360.928	1.37
361.375	1.38
361.821	1.4
362.268	1.4
362.714	1.43
363.161	1.43
363.608	1.45
364.054	1.45
364.5	1.46
364.947	1.45
365.393	1.46
365.839	1.47
366.285	1.48
366.732	1.48
367.178	1.51
367.624	1.5
368.07	1.52
368.516	1.5
368.962	1.5
369.408	1.52
369.853	1.51
370.299	1.53
370.745	1.49
371.19	1.51
371.636	1.52
372.082	1.5
372.527	1.48
372.973	1.5
373.418	1.5
373.863	1.49
374.309	1.48
374.754	1.46
375.199	1.48
375.644	1.46
376.09	1.45
376.535	1.43
376.98	1.42
377.425	1.41
377.87	1.4
378.314	1.39
378.759	1.36
379.204	1.36
379.649	1.33
380.093	1.31
380.538	1.28
380.983	1.27
381.427	1.24
381.872	1.21
382.316	1.19
382.76	1.16
383.205	1.15
383.649	1.13
384.093	1.1
384.537	1.07
384.982	1.05
385.426	1.04
385.87	1.01
386.314	0.99
386.758	0.96
387.201	0.94
387.645	0.92
388.089	0.91
388.533	0.88
388.976	0.86
389.42	0.84
389.864	0.82
390.307	0.81
390.751	0.79
391.194	0.77
391.638	0.75
392.081	0.74
392.524	0.73
392.967	0.71
393.411	0.7
393.854	0.69
394.297	0.68
394.74	0.66
395.183	0.67
395.626	0.66
396.069	0.65
396.512	0.65
396.954	0.65
397.397	0.65
397.84	0.66
398.282	0.65
398.725	0.65
399.168	0.65
399.61	0.65
400.052	0.65
400.495	0.63
400.937	0.63
401.38	0.61
401.822	0.6
402.264	0.6
402.706	0.57
403.148	0.56
403.59	0.54
404.032	0.54
404.474	0.51
404.916	0.49
405.358	0.47
405.8	0.46
406.241	0.44
406.683	0.43
407.125	0.4
407.566	0.39
408.008	0.37
408.449	0.37
408.891	0.35
409.332	0.33
409.774	0.32
410.215	0.3
410.656	0.3
411.097	0.29
411.539	0.28
411.98	0.27
412.421	0.25
412.862	0.26
413.303	0.24
413.744	0.25
414.184	0.22
414.625	0.23
415.066	0.22
415.507	0.22
415.947	0.22
416.388	0.21
416.828	0.2
417.269	0.2
417.709	0.2
418.15	0.19
418.59	0.2
419.03	0.2
419.471	0.2
419.911	0.17
420.351	0.19
420.791	0.19
421.231	0.18
421.671	0.17
422.111	0.18
422.551	0.18
422.991	0.19
423.431	0.17
423.87	0.18
424.31	0.18
424.75	0.18
425.189	0.17
425.629	0.16
426.068	0.18
426.508	0.17
426.947	0.18
427.386	0.18
427.826	0.18
428.265	0.17
428.704	0.17
429.143	0.18
429.582	0.17
430.021	0.18
430.46	0.17
430.899	0.18
431.338	0.18
431.777	0.17
432.216	0.19
432.655	0.19
433.093	0.17
433.532	0.2
433.971	0.17
434.409	0.17
434.848	0.18
435.286	0.17
435.724	0.19
436.163	0.18
436.601	0.2
437.039	0.19
437.477	0.19
437.916	0.19
438.354	0.2
438.792	0.18
439.23	0.2
439.668	0.21
440.105	0.2
440.543	0.2
440.981	0.2
441.419	0.2
441.856	0.21
442.294	0.19
442.732	0.19
443.169	0.2
443.607	0.2
444.044	0.2
444.481	0.22
444.919	0.21
445.356	0.21
445.793	0.22
446.23	0.22
446.668	0.22
447.105	0.22
447.542	0.22
447.979	0.2
448.416	0.19
448.852	0.23
449.289	0.22
449.726	0.24
450.163	0.22
450.599	0.21
451.036	0.21
451.473	0.23
451.909	0.23
452.346	0.22
452.782	0.24
453.218	0.23
453.655	0.22
454.091	0.22
454.527	0.23
454.963	0.24
455.399	0.21
455.835	0.22
456.271	0.24
456.707	0.23
457.143	0.22
457.579	0.23
458.015	0.23
458.451	0.25
458.886	0.26
459.322	0.25
459.758	0.25
460.193	0.28
460.629	0.25
461.064	0.24
461.5	0.29
461.935	0.26
462.37	0.26
462.805	0.27
463.241	0.26
463.676	0.26
464.111	0.26
464.546	0.27
464.981	0.27
465.416	0.27
465.851	0.28
466.286	0.28
466.72	0.29
467.155	0.29
467.59	0.28
468.024	0.3
468.459	0.28
468.893	0.3
469.328	0.33
469.762	0.32
470.197	0.32
470.631	0.32
471.065	0.33
471.5	0.33
471.934	0.33
472.368	0.33
472.802	0.36
473.236	0.36
473.67	0.36
474.104	0.37
474.538	0.37
474.972	0.37
475.405	0.39
475.839	0.39
476.273	0.39
476.706	0.4
477.14	0.41
477.573	0.41
478.007	0.42
478.44	0.43
478.874	0.43
479.307	0.44
479.74	0.44
480.173	0.45
480.606	0.45
481.04	0.46
481.473	0.46
481.906	0.47
482.339	0.48
482.771	0.48
483.204	0.49
483.637	0.49
484.07	0.5
484.502	0.51
484.935	0.51
485.368	0.52
485.8	0.52
486.233	0.53
486.665	0.53
487.098	0.53
487.53	0.54
487.962	0.55
488.394	0.55
488.827	0.55
489.259	0.56
489.691	0.56
490.123	0.57
490.555	0.57
490.987	0.58
491.418	0.58
491.85	0.59
492.282	0.6
492.714	0.6
493.145	0.61
493.577	0.61
494.009	0.62
494.44	0.63
494.872	0.63
495.303	0.63
495.734	0.64
496.166	0.64
496.597	0.65
497.028	0.65
497.459	0.66
497.89	0.66
498.321	0.67
498.752	0.67
499.183	0.68
499.614	0.68
500.045	0.68
500.476	0.69
500.906	0.7
501.337	0.7
501.768	0.71
502.198	0.71
502.629	0.72
503.059	0.72
503.49	0.72
503.92	0.73
504.35	0.73
504.781	0.74
505.211	0.75
505.641	0.75
506.071	0.75
506.501	0.75
506.931	0.76
507.361	0.76
507.791	0.76
508.221	0.78
508.651	0.77
509.081	0.78
509.51	0.78
509.94	0.79
510.37	0.8
510.799	0.8
511.229	0.8
511.658	0.8
512.087	0.8
512.517	0.81
512.946	0.81
513.375	0.81
513.804	0.82
514.234	0.82
514.663	0.83
515.092	0.83
515.521	0.83
515.95	0.84
516.378	0.84
516.807	0.84
517.236	0.84
517.665	0.85
518.093	0.85
518.522	0.85
518.951	0.86
519.379	0.86
519.807	0.86
520.236	0.86
520.664	0.86
521.093	0.87
521.521	0.87
521.949	0.87
522.377	0.88
522.805	0.87
523.233	0.88
523.661	0.88
524.089	0.88
524.517	0.89
524.945	0.88
525.373	0.89
525.8	0.9
526.228	0.89
526.656	0.9
527.083	0.9
527.511	0.91
527.938	0.9
528.366	0.9
528.793	0.91
529.22	0.9
529.648	0.91
530.075	0.9
530.502	0.91
530.929	0.92
531.356	0.91
531.783	0.92
532.21	0.91
532.637	0.91
533.064	0.92
533.49	0.92
533.917	0.92
534.344	0.93
534.771	0.92
535.197	0.93
535.624	0.92
536.05	0.92
536.477	0.92
536.903	0.92
537.329	0.91
537.755	0.93
538.182	0.92
538.608	0.92
539.034	0.93
539.46	0.92
539.886	0.92
540.312	0.92
540.738	0.92
541.164	0.92
541.589	0.92
542.015	0.92
542.441	0.92
542.867	0.93
543.292	0.92
543.718	0.92
544.143	0.92
544.569	0.93
544.994	0.92
545.419	0.92
545.845	0.92
546.27	0.92
546.695	0.92
547.12	0.91
547.545	0.91
547.97	0.92
548.395	0.91
548.82	0.91
549.245	0.91
549.67	0.9
550.094	0.91
550.519	0.91
550.944	0.91
551.368	0.9
551.793	0.9
552.217	0.9
552.642	0.9
553.066	0.9
553.49	0.89
553.915	0.89
554.339	0.89
554.763	0.89
555.187	0.89
555.611	0.88
556.035	0.89
556.459	0.88
556.883	0.88
557.307	0.88
557.731	0.88
558.154	0.87
558.578	0.87
559.002	0.87
559.425	0.87
559.849	0.86
560.272	0.86
560.696	0.86
561.119	0.86
561.543	0.85
561.966	0.85
562.389	0.85
562.812	0.85
563.235	0.84
563.658	0.84
564.081	0.84
564.504	0.84
564.927	0.84
565.35	0.83
565.773	0.83
566.196	0.83
566.618	0.82
567.041	0.82
567.463	0.82
567.886	0.82
568.309	0.81
568.731	0.81
569.153	0.81
569.576	0.8
569.998	0.8
570.42	0.8
570.842	0.8
571.264	0.8
571.686	0.79
572.108	0.79
572.53	0.78
572.952	0.78
573.374	0.78
573.796	0.77
574.218	0.77
574.639	0.77
575.061	0.76
575.483	0.76
575.904	0.76
576.326	0.76
576.747	0.75
577.168	0.75
577.59	0.75
578.011	0.74
578.432	0.74
578.853	0.74
579.274	0.73
579.695	0.73
580.116	0.73
580.537	0.73
580.958	0.73
581.379	0.72
581.8	0.72
582.221	0.72
582.641	0.71
583.062	0.71
583.482	0.71
583.903	0.71
584.323	0.7
584.744	0.7
585.164	0.69
585.584	0.7
586.005	0.69
586.425	0.69
586.845	0.69
587.265	0.68
587.685	0.68
588.105	0.68
588.525	0.68
588.945	0.67
589.365	0.67
589.785	0.67
590.204	0.67
590.624	0.67
591.044	0.66
591.463	0.66
591.883	0.66
592.302	0.66
592.721	0.65
593.141	0.65
593.56	0.65
593.979	0.65
594.399	0.64
594.818	0.64
595.237	0.64
595.656	0.64
596.075	0.63
596.494	0.63
596.913	0.63
597.331	0.62
597.75	0.62
598.169	0.63
598.587	0.62
599.006	0.62
599.425	0.61
599.843	0.61
600.262	0.61
600.68	0.61
601.098	0.6
601.517	0.6
601.935	0.6
602.353	0.6
602.771	0.59
603.189	0.59
603.607	0.59
604.025	0.59
604.443	0.59
604.861	0.58
605.279	0.58
605.696	0.58
606.114	0.57
606.532	0.57
606.949	0.57
607.367	0.56
607.784	0.56
608.202	0.56
608.619	0.56
609.036	0.56
609.454	0.55
609.871	0.55
610.288	0.55
610.705	0.54
611.122	0.54
611.539	0.54
611.956	0.54
612.373	0.54
612.79	0.53
613.207	0.53
613.623	0.53
614.04	0.52
614.457	0.52
614.873	0.52
615.29	0.51
615.706	0.51
616.122	0.51
616.539	0.51
616.955	0.51
617.371	0.5
617.788	0.5
618.204	0.49
618.62	0.49
619.036	0.49
619.452	0.49
619.868	0.49
620.284	0.48
620.699	0.48
621.115	0.48
621.531	0.47
621.946	0.47
622.362	0.47
622.778	0.47
623.193	0.46
623.608	0.46
624.024	0.46
624.439	0.45
624.854	0.45
625.27	0.45
625.685	0.45
626.1	0.44
626.515	0.44
626.93	0.44
627.345	0.44
627.76	0.43
628.175	0.43
628.589	0.43
629.004	0.42
629.419	0.42
629.833	0.42
630.248	0.42
630.663	0.41
631.077	0.41
631.491	0.41
631.906	0.4
632.32	0.4
632.734	0.4
633.148	0.4
633.563	0.39
633.977	0.39
634.391	0.39
634.805	0.38
635.219	0.38
635.632	0.38
636.046	0.38
636.46	0.37
636.874	0.37
637.287	0.37
637.701	0.36
638.115	0.36
638.528	0.36
638.941	0.35
639.355	0.35
639.768	0.35
640.181	0.35
640.595	0.34
641.008	0.35
641.421	0.34
641.834	0.34
642.247	0.33
642.66	0.33
643.073	0.33
643.486	0.33
643.898	0.32
644.311	0.32
644.724	0.32
645.136	0.32
645.549	0.31
645.961	0.31
646.374	0.31
646.786	0.31
647.199	0.31
647.611	0.3
648.023	0.3
648.435	0.3
648.847	0.3
649.26	0.29
649.672	0.29
650.084	0.29
650.495	0.29
650.907	0.29
651.319	0.29
651.731	0.28
652.143	0.28
652.554	0.28
652.966	0.28
653.377	0.28
653.789	0.27
654.2	0.27
654.612	0.27
655.023	0.28
655.434	0.25
655.845	0.25
656.256	0.26
656.668	0.26
657.079	0.26
657.49	0.26
657.901	0.26
658.311	0.25
658.722	0.25
659.133	0.25
659.544	0.25
659.954	0.25
660.365	0.25
660.775	0.25
661.186	0.24
661.596	0.24
662.007	0.24
662.417	0.24
662.827	0.24
663.238	0.23
663.648	0.23
664.058	0.23
664.468	0.23
664.878	0.23
665.288	0.23
665.698	0.22
666.108	0.22
666.517	0.22
666.927	0.22
667.337	0.22
667.746	0.21
668.156	0.21
668.565	0.21
668.975	0.21
669.384	0.21
669.794	0.21
670.203	0.2
670.612	0.2
671.021	0.2
671.43	0.2
671.84	0.2
672.249	0.2
672.658	0.2
673.066	0.19
673.475	0.19
673.884	0.19
674.293	0.19
674.702	0.19
675.11	0.18
675.519	0.19
675.927	0.18
676.336	0.18
676.744	0.18
677.152	0.17
677.561	0.17
677.969	0.17
678.377	0.17
678.785	0.17
679.193	0.17
679.601	0.17
680.009	0.17
680.417	0.16
680.825	0.16
681.233	0.16
681.641	0.16
682.048	0.15
682.456	0.15
682.864	0.15
683.271	0.15
683.679	0.15
684.086	0.15
684.493	0.15
684.901	0.14
685.308	0.14
685.715	0.14
686.122	0.14
686.529	0.14
686.936	0.13
687.343	0.13
687.75	0.13
688.157	0.13
688.564	0.13
688.971	0.13
689.378	0.13
689.784	0.13
690.191	0.13
690.597	0.12
691.004	0.12
691.41	0.12
691.817	0.12
692.223	0.12
692.629	0.12
693.035	0.12
693.442	0.12
693.848	0.12
694.254	0.11
694.66	0.11
695.066	0.11
695.471	0.11
695.877	0.11
696.283	0.11
696.689	0.11
697.094	0.1
697.5	0.11
697.906	0.1
698.311	0.1
698.716	0.1
699.122	0.1
699.527	0.1
699.932	0.1
700.338	0.1
700.743	0.1
701.148	0.1
701.553	0.1
701.958	0.1
702.363	0.1
702.768	0.1
703.173	0.09
703.577	0.09
703.982	0.09
704.387	0.09
704.791	0.09
705.196	0.09
705.6	0.09
706.005	0.09
706.409	0.09
706.814	0.09
707.218	0.09
707.622	0.09
708.026	0.09
708.43	0.09
708.834	0.09
709.238	0.09
709.642	0.09
710.046	0.09
710.45	0.09
710.854	0.09
711.257	0.09
711.661	0.09
712.065	0.09
712.468	0.09
712.872	0.09
713.275	0.09
713.679	0.09
714.082	0.09
714.485	0.08
714.888	0.09
715.291	0.09
715.695	0.09
716.098	0.09
716.501	0.09
716.904	0.09
717.306	0.09
717.709	0.08
718.112	0.08
718.515	0.08
718.917	0.08
719.32	0.09
719.723	0.09
720.125	0.08
720.527	0.08
720.93	0.08
721.332	0.09
721.734	0.09
722.137	0.08
722.539	0.08
722.941	0.08
723.343	0.09
723.745	0.09
724.147	0.08
724.549	0.09
724.95	0.09
725.352	0.08
725.754	0.08
726.156	0.08
726.557	0.08
726.959	0.08
727.36	0.08
727.762	0.08
728.163	0.08
728.564	0.09
728.966	0.08
729.367	0.08
729.768	0.08
730.169	0.08
730.57	0.08
730.971	0.08
731.372	0.08
731.773	0.08
732.174	0.08
732.574	0.08
732.975	0.08
733.376	0.08
733.776	0.08
734.177	0.08
734.577	0.08
734.978	0.08
735.378	0.08
735.778	0.08
736.179	0.08
736.579	0.08
736.979	0.08
737.379	0.08
737.779	0.08
738.179	0.08
738.579	0.08
738.979	0.07
739.379	0.08
739.778	0.07
740.178	0.07
740.578	0.07
740.977	0.08
741.377	0.07
741.776	0.07
742.176	0.07
742.575	0.07
742.974	0.07
743.374	0.07
743.773	0.07
744.172	0.07
744.571	0.07
744.97	0.07
745.369	0.07
745.768	0.07
746.167	0.07
746.565	0.07
746.964	0.07
747.363	0.07
747.761	0.07
748.16	0.07
748.559	0.07
748.957	0.07
749.355	0.07
749.754	0.07
750.152	0.07
750.55	0.07
750.948	0.07
751.347	0.07
751.745	0.07
752.143	0.07
752.541	0.07
752.938	0.07
753.336	0.07
753.734	0.07
754.132	0.07
754.529	0.06
754.927	0.06
755.325	0.06
755.722	0.06
756.119	0.06
756.517	0.06
756.914	0.06
757.311	0.06
757.709	0.06
758.106	0.06
758.503	0.06
758.9	0.06
759.297	0.06
759.694	0.06
760.091	0.06
760.488	0.06
760.884	0.06
761.281	0.06
761.678	0.06
762.074	0.06
762.471	0.06
762.867	0.07
763.264	0.06
763.66	0.06
764.056	0.06
764.453	0.06
764.849	0.06
765.245	0.06
765.641	0.06
766.037	0.06
766.433	0.06
766.829	0.06
767.225	0.06
767.621	0.07
768.016	0.06
768.412	0.06
768.808	0.07
769.203	0.06
769.599	0.07
769.994	0.06
770.389	0.06
770.785	0.07
771.18	0.07
771.575	0.07
771.971	0.07
772.366	0.07
772.761	0.07
773.156	0.07
773.551	0.07
773.945	0.07
774.34	0.07
774.735	0.07
775.13	0.07
775.524	0.07
775.919	0.07
776.314	0.07
776.708	0.07
777.103	0.07
777.497	0.07
777.891	0.07
778.285	0.07
778.68	0.07
779.074	0.07
779.468	0.07
779.862	0.07
780.256	0.07
780.65	0.07
781.044	0.07
781.438	0.07
781.831	0.07
782.225	0.08
782.619	0.07
783.012	0.08
783.406	0.08
783.799	0.07
784.193	0.08
784.586	0.08
784.979	0.08
785.372	0.08
785.766	0.08
786.159	0.08
786.552	0.08
786.945	0.08
787.338	0.08
787.731	0.08
788.123	0.08
788.516	0.08
788.909	0.08
789.302	0.08
789.694	0.08
790.087	0.08
790.479	0.08
790.872	0.08
791.264	0.08
791.656	0.08
792.049	0.08
792.441	0.08
792.833	0.09
793.225	0.09
793.617	0.09
794.009	0.09
794.401	0.09
794.793	0.09
795.185	0.09
795.576	0.09
795.968	0.09
796.36	0.09
796.751	0.09
797.143	0.09
797.534	0.09
797.926	0.09
798.317	0.09
798.708	0.09
799.1	0.1
799.491	0.09
799.882	0.09
800.273	0.1
800.664	0.09
801.055	0.09
801.446	0.1
801.837	0.1
802.227	0.1
802.618	0.1
803.009	0.1
803.399	0.1
803.79	0.1
804.18	0.1
804.571	0.1
804.961	0.1
805.351	0.1
805.742	0.1
806.132	0.1
806.522	0.1
806.912	0.11
807.302	0.11
807.692	0.11
808.082	0.11
808.472	0.11
808.862	0.11
809.251	0.11
809.641	0.11
810.031	0.11
810.42	0.11
810.81	0.11
811.199	0.11
811.589	0.11
811.978	0.11
812.367	0.11
812.756	0.11
813.146	0.12
813.535	0.12
813.924	0.12
814.313	0.12
814.702	0.12
815.091	0.12
815.479	0.12
815.868	0.12
816.257	0.12
816.645	0.12
817.034	0.12
817.423	0.12
817.811	0.12
818.199	0.12
818.588	0.13
818.976	0.12
819.364	0.13
819.753	0.13
820.141	0.13
820.529	0.13
820.917	0.13
821.305	0.13
821.693	0.13
822.08	0.13
822.468	0.13
822.856	0.13
823.244	0.13
823.631	0.13
824.019	0.13
824.406	0.13
824.794	0.13
825.181	0.14
825.568	0.14
825.956	0.14
826.343	0.14
826.73	0.14
827.117	0.14
827.504	0.14
827.891	0.14
828.278	0.14
828.665	0.14
829.052	0.14
829.438	0.15
829.825	0.15
830.212	0.15
830.598	0.15
830.985	0.15
831.371	0.15
831.757	0.15
832.144	0.15
832.53	0.15
832.916	0.15
833.302	0.15
833.688	0.15
834.075	0.15
834.461	0.15
834.846	0.15
835.232	0.15
835.618	0.15
836.004	0.16
836.39	0.16
836.775	0.16
837.161	0.16
837.546	0.16
837.932	0.16
838.317	0.16
838.702	0.16
839.088	0.16
839.473	0.16
839.858	0.16
840.243	0.17
840.628	0.17
841.013	0.17
841.398	0.17
841.783	0.17
842.168	0.17
842.553	0.17
842.937	0.17
843.322	0.17
843.707	0.17
844.091	0.17
844.476	0.17
844.86	0.17
845.244	0.17
845.629	0.17
846.013	0.18
846.397	0.17
846.781	0.18
847.165	0.18
847.549	0.18
847.933	0.18
848.317	0.18
848.701	0.18
849.085	0.18
849.468	0.18
849.852	0.18
850.236	0.18
850.619	0.18
851.003	0.18
851.386	0.19
851.769	0.19
852.153	0.19
852.536	0.18
852.919	0.19
853.302	0.19
853.685	0.19
854.068	0.19
854.451	0.19
854.834	0.19
855.217	0.19
855.6	0.19
855.982	0.19
856.365	0.19
856.748	0.2
857.13	0.2
857.513	0.19
857.895	0.2
858.277	0.2
858.66	0.2
859.042	0.2
859.424	0.2
859.806	0.2
860.188	0.2
860.57	0.2
860.952	0.2
861.334	0.2
861.716	0.21
862.098	0.2
862.48	0.21
862.861	0.21
863.243	0.21
863.624	0.21
864.006	0.21
864.387	0.21
864.769	0.21
865.15	0.21
865.531	0.21
865.912	0.21
866.294	0.21
866.675	0.21
867.056	0.21
867.437	0.22
867.818	0.22
868.198	0.21
868.579	0.22
868.96	0.22
869.341	0.22
869.721	0.22
870.102	0.22
870.482	0.22
870.863	0.22
871.243	0.22
871.623	0.22
872.003	0.22
872.384	0.22
872.764	0.22
873.144	0.23
873.524	0.22
873.904	0.23
874.284	0.23
874.664	0.23
875.043	0.23
875.423	0.23
875.803	0.23
876.182	0.23
876.562	0.23
876.941	0.23
877.321	0.23
877.7	0.23
878.079	0.23
878.459	0.23
878.838	0.23
879.217	0.24
879.596	0.24
879.975	0.24
880.354	0.24
880.733	0.24
881.112	0.24
881.491	0.24
881.869	0.24
882.248	0.24
882.627	0.24
883.005	0.24
883.384	0.24
883.762	0.24
884.14	0.24
884.519	0.24
884.897	0.24
885.275	0.24
885.653	0.24
886.031	0.25
886.409	0.25
886.787	0.25
887.165	0.25
887.543	0.25
887.921	0.25
888.298	0.25
888.676	0.25
889.054	0.25
889.431	0.25
889.809	0.25
890.186	0.25
890.563	0.25
890.941	0.25
891.318	0.25
891.695	0.26
892.072	0.25
892.449	0.25
892.826	0.26
893.203	0.26
893.58	0.26
893.957	0.26
894.334	0.25
894.71	0.25
895.087	0.25
895.464	0.26
895.84	0.26
896.217	0.26
896.593	0.26
896.969	0.26
897.346	0.26
897.722	0.26
898.098	0.26
898.474	0.26
898.85	0.26
899.226	0.26
899.602	0.26
899.978	0.26
900.354	0.26
900.73	0.26
901.105	0.26
901.481	0.27
901.857	0.26
902.232	0.27
902.608	0.26
902.983	0.26
903.358	0.26
903.734	0.27
904.109	0.26
904.484	0.27
904.859	0.27
905.234	0.27
905.609	0.27
905.984	0.27
906.359	0.27
906.734	0.27
907.108	0.27
907.483	0.27
907.858	0.27
908.232	0.27
908.607	0.27
908.981	0.27
909.356	0.27
909.73	0.27
910.104	0.27
910.478	0.27
910.853	0.27
911.227	0.27
911.601	0.27
911.975	0.27
912.349	0.27
912.722	0.27
913.096	0.27
913.47	0.27
913.844	0.27
914.217	0.28
914.591	0.27
914.964	0.27
915.338	0.27
915.711	0.27
916.084	0.27
916.458	0.28
916.831	0.28
917.204	0.27
917.577	0.28
917.95	0.28
918.323	0.27
918.696	0.27
919.069	0.27
919.441	0.28
919.814	0.27
920.187	0.28
920.559	0.28
920.932	0.28
921.304	0.28
921.677	0.27
922.049	0.28
922.421	0.28
922.794	0.28
923.166	0.28
923.538	0.28
923.91	0.28
924.282	0.28
924.654	0.28
925.026	0.28
925.398	0.28
925.769	0.28
926.141	0.28
926.513	0.28
926.884	0.28
927.256	0.28
927.627	0.28
927.999	0.28
928.37	0.28
928.741	0.28
929.113	0.28
929.484	0.28
929.855	0.28
930.226	0.28
930.597	0.28
930.968	0.28
931.339	0.28
931.709	0.28
932.08	0.28
932.451	0.28
932.821	0.28
933.192	0.28
933.562	0.28
933.933	0.28
934.303	0.28
934.673	0.28
935.044	0.28
935.414	0.28
935.784	0.28
936.154	0.28
936.524	0.28
936.894	0.28
937.264	0.28
937.634	0.28
938.004	0.28
938.373	0.28
938.743	0.28
939.113	0.28
939.482	0.28
939.852	0.28
940.221	0.28
940.59	0.28
940.96	0.28
941.329	0.28
941.698	0.28
942.067	0.28
942.436	0.28
942.805	0.28
943.174	0.29
943.543	0.28
943.912	0.28
944.28	0.28
944.649	0.28
945.018	0.28
945.386	0.28
945.755	0.28
946.123	0.28
946.492	0.28
946.86	0.28
947.228	0.28
947.596	0.28
947.965	0.28
948.333	0.28
948.701	0.28
949.069	0.28
949.437	0.28
949.804	0.28
950.172	0.28
950.54	0.28
950.908	0.28
951.275	0.28
951.643	0.28
952.01	0.28
952.378	0.28
952.745	0.28
953.112	0.28
953.479	0.28
953.847	0.28
954.214	0.28
954.581	0.28
954.948	0.28
955.315	0.28
955.682	0.28
956.048	0.28
956.415	0.28
956.782	0.28
957.148	0.28
957.515	0.28
957.881	0.27
958.248	0.28
958.614	0.28
958.981	0.28
959.347	0.27
959.713	0.28
960.079	0.28
960.445	0.28
960.811	0.28
961.177	0.28
961.543	0.28
961.909	0.27
962.275	0.28
962.641	0.27
963.006	0.28
963.372	0.27
963.737	0.28
964.103	0.28
964.468	0.28
964.834	0.27
965.199	0.27
965.564	0.27
965.929	0.27
966.294	0.28
966.659	0.27
967.024	0.27
967.389	0.27
967.754	0.27
968.119	0.27
968.484	0.27
968.848	0.27
969.213	0.27
969.578	0.27
969.942	0.27
970.307	0.27
970.671	0.27
971.035	0.27
971.399	0.27
971.764	0.27
972.128	0.27
972.492	0.27
972.856	0.27
973.22	0.27
973.584	0.27
973.948	0.27
974.311	0.26
974.675	0.27
975.039	0.27
975.402	0.27
975.766	0.27
976.129	0.26
976.493	0.27
976.856	0.27
977.219	0.27
977.582	0.27
977.946	0.27
978.309	0.26
978.672	0.26
979.035	0.27
979.398	0.27
979.761	0.26
980.123	0.26
980.486	0.27
980.849	0.26
981.211	0.27
981.574	0.26
981.936	0.26
982.299	0.26
982.661	0.26
983.023	0.26
983.386	0.27
983.748	0.26
984.11	0.26
984.472	0.26
984.834	0.26
985.196	0.26
985.558	0.26
985.92	0.26
986.281	0.26
986.643	0.26
987.005	0.26
987.366	0.26
987.728	0.25
988.089	0.26
988.451	0.26
988.812	0.25
989.173	0.25
989.534	0.26
989.895	0.26
990.257	0.26
990.618	0.26
990.979	0.26
991.339	0.25
991.7	0.26
992.061	0.26
992.422	0.25
992.782	0.26
993.143	0.26
993.503	0.26
993.864	0.25
994.224	0.25
994.585	0.25
994.945	0.25
995.305	0.25
995.665	0.25
996.025	0.25
996.385	0.25
996.745	0.25
997.105	0.25
997.465	0.25
997.825	0.25
998.185	0.25
998.544	0.25
998.904	0.25
999.263	0.25
999.623	0.25
999.982	0.25
1000.342	0.25
1000.701	0.25
1001.06	0.25
1001.419	0.25
1001.778	0.25
1002.138	0.25
1002.497	0.24
1002.855	0.24
1003.214	0.25
1003.573	0.24
1003.932	0.24
1004.29	0.25
1004.649	0.24
1005.008	0.24
1005.366	0.24
1005.725	0.24
1006.083	0.25
1006.441	0.24
1006.799	0.24
1007.158	0.25
1007.516	0.24
1007.874	0.24
1008.232	0.24
1008.59	0.24
1008.948	0.24
1009.305	0.24
1009.663	0.24
1010.021	0.24
1010.379	0.24
1010.736	0.24
1011.094	0.23
1011.451	0.24
1011.808	0.24
1012.166	0.24
1012.523	0.24
1012.88	0.23
1013.237	0.23
1013.594	0.23
1013.951	0.24
1014.308	0.23
1014.665	0.23
1015.022	0.24
1015.379	0.23
1015.735	0.24
1016.092	0.23
1016.449	0.24
1016.805	0.24
1017.162	0.23
1017.518	0.23
1017.874	0.23
1018.231	0.23
1018.587	0.23
1018.943	0.23
1019.299	0.23
1019.655	0.23
1020.011	0.23
1020.367	0.23
1020.723	0.23
1021.078	0.23
1021.434	0.23
1021.79	0.24
1022.145	0.23
1022.501	0.23
1022.856	0.23
1023.212	0.23
1023.567	0.23
1023.922	0.23
1024.278	0.23
1024.633	0.22
1024.988	0.23
1025.343	0.23
1025.698	0.23
1026.053	0.22
1026.408	0.23
1026.762	0.23
1027.117	0.22
1027.472	0.22
1027.826	0.22
1028.181	0.22
1028.535	0.23
1028.89	0.22
1029.244	0.22
1029.598	0.22
1029.952	0.22
1030.307	0.22
1030.661	0.22
1031.015	0.22
1031.369	0.22
1031.723	0.22
1032.076	0.21
