Data from Rubpy_BV_EDTA_TU(3000)_Blank_Blue_Flow_Absorbance__1697__13-14-59-860.txt Node

Date: Mon Aug 03 13:14:59 BST 2026
User: fpm-admin
Spectrometer: SR600986
Trigger mode: 0
Integration Time (sec): 8.000000E-3
Scans to average: 3
Nonlinearity correction enabled: true
Boxcar width: 0
Storing dark spectrum: false
XAxis mode: Wavelengths
Number of Pixels in Spectrum: 2048
>>>>>Begin Spectral Data<<<<<
188.613	0.25
189.078	0.25
189.542	0.26
190.007	0.26
190.472	0.26
190.936	0.25
191.401	0.25
191.865	0.26
192.33	0.26
192.794	0.24
193.258	0.25
193.723	0.27
194.187	0.26
194.651	0.25
195.115	0.25
195.579	0.26
196.043	0.25
196.507	0.28
196.971	0.27
197.435	0.26
197.899	0.26
198.363	0.25
198.827	0.26
199.29	0.25
199.754	0.26
200.218	0.28
200.681	0.24
201.145	0.25
201.608	0.24
202.072	0.26
202.535	0.25
202.998	0.26
203.462	0.28
203.925	0.26
204.388	0.24
204.851	0.25
205.314	0.28
205.777	0.24
206.24	0.25
206.703	0.27
207.166	0.24
207.629	0.23
208.092	0.27
208.555	0.25
209.018	0.26
209.48	0.23
209.943	0.26
210.406	0.25
210.868	0.24
211.331	0.23
211.793	0.24
212.256	0.25
212.718	0.26
213.18	0.27
213.643	0.26
214.105	0.25
214.567	0.22
215.029	0.28
215.491	0.26
215.953	0.25
216.415	0.23
216.877	0.23
217.339	0.26
217.801	0.24
218.263	0.25
218.725	0.29
219.186	0.28
219.648	0.25
220.11	0.23
220.571	0.25
221.033	0.25
221.494	0.26
221.956	0.26
222.417	0.25
222.878	0.25
223.34	0.25
223.801	0.26
224.262	0.27
224.723	0.25
225.185	0.25
225.646	0.22
226.107	0.26
226.568	0.24
227.029	0.25
227.489	0.26
227.95	0.26
228.411	0.27
228.872	0.25
229.332	0.24
229.793	0.24
230.254	0.26
230.714	0.25
231.175	0.24
231.635	0.26
232.096	0.23
232.556	0.25
233.016	0.25
233.477	0.23
233.937	0.25
234.397	0.23
234.857	0.25
235.317	0.26
235.777	0.25
236.237	0.24
236.697	0.27
237.157	0.25
237.617	0.26
238.077	0.25
238.537	0.27
238.996	0.26
239.456	0.25
239.916	0.26
240.375	0.23
240.835	0.24
241.294	0.27
241.754	0.24
242.213	0.27
242.672	0.26
243.132	0.24
243.591	0.26
244.05	0.25
244.509	0.26
244.968	0.27
245.427	0.25
245.886	0.23
246.345	0.25
246.804	0.24
247.263	0.24
247.722	0.26
248.181	0.27
248.639	0.24
249.098	0.25
249.557	0.26
250.015	0.26
250.474	0.26
250.932	0.26
251.391	0.23
251.849	0.27
252.308	0.26
252.766	0.24
253.224	0.26
253.682	0.24
254.14	0.24
254.599	0.26
255.057	0.24
255.515	0.25
255.973	0.24
256.431	0.26
256.888	0.24
257.346	0.24
257.804	0.27
258.262	0.24
258.719	0.27
259.177	0.26
259.635	0.26
260.092	0.26
260.55	0.27
261.007	0.25
261.465	0.27
261.922	0.26
262.379	0.24
262.836	0.26
263.294	0.25
263.751	0.26
264.208	0.27
264.665	0.23
265.122	0.26
265.579	0.28
266.036	0.27
266.493	0.25
266.95	0.26
267.406	0.26
267.863	0.26
268.32	0.26
268.777	0.24
269.233	0.25
269.69	0.28
270.146	0.25
270.603	0.26
271.059	0.24
271.515	0.26
271.972	0.26
272.428	0.22
272.884	0.25
273.34	0.24
273.796	0.26
274.253	0.24
274.709	0.23
275.165	0.23
275.62	0.24
276.076	0.22
276.532	0.25
276.988	0.24
277.444	0.25
277.899	0.24
278.355	0.27
278.811	0.25
279.266	0.25
279.722	0.25
280.177	0.26
280.633	0.26
281.088	0.26
281.543	0.25
281.998	0.26
282.454	0.27
282.909	0.25
283.364	0.26
283.819	0.26
284.274	0.25
284.729	0.28
285.184	0.25
285.639	0.24
286.094	0.26
286.548	0.27
287.003	0.27
287.458	0.25
287.913	0.25
288.367	0.26
288.822	0.26
289.276	0.26
289.731	0.24
290.185	0.25
290.639	0.28
291.094	0.25
291.548	0.27
292.002	0.26
292.456	0.28
292.91	0.25
293.365	0.22
293.819	0.28
294.273	0.24
294.726	0.27
295.18	0.24
295.634	0.27
296.088	0.25
296.542	0.28
296.995	0.25
297.449	0.26
297.903	0.26
298.356	0.26
298.81	0.25
299.263	0.26
299.716	0.27
300.17	0.27
300.623	0.22
301.076	0.27
301.53	0.27
301.983	0.26
302.436	0.27
302.889	0.25
303.342	0.25
303.795	0.26
304.248	0.27
304.701	0.25
305.153	0.27
305.606	0.25
306.059	0.27
306.512	0.27
306.964	0.26
307.417	0.23
307.869	0.25
308.322	0.26
308.774	0.25
309.227	0.28
309.679	0.27
310.131	0.28
310.584	0.28
311.036	0.23
311.488	0.27
311.94	0.28
312.392	0.28
312.844	0.27
313.296	0.28
313.748	0.28
314.2	0.26
314.652	0.27
315.103	0.27
315.555	0.28
316.007	0.29
316.458	0.27
316.91	0.29
317.361	0.28
317.813	0.28
318.264	0.27
318.716	0.29
319.167	0.31
319.618	0.32
320.07	0.32
320.521	0.33
320.972	0.33
321.423	0.33
321.874	0.32
322.325	0.34
322.776	0.35
323.227	0.35
323.678	0.35
324.128	0.38
324.579	0.37
325.03	0.39
325.48	0.39
325.931	0.42
326.382	0.41
326.832	0.42
327.283	0.45
327.733	0.45
328.183	0.47
328.634	0.48
329.084	0.51
329.534	0.52
329.984	0.54
330.434	0.54
330.884	0.56
331.334	0.58
331.784	0.6
332.234	0.62
332.684	0.63
333.134	0.63
333.584	0.66
334.034	0.67
334.483	0.69
334.933	0.7
335.382	0.72
335.832	0.74
336.281	0.75
336.731	0.76
337.18	0.8
337.63	0.8
338.079	0.82
338.528	0.84
338.977	0.85
339.426	0.87
339.876	0.9
340.325	0.92
340.774	0.9
341.223	0.93
341.671	0.95
342.12	0.97
342.569	0.98
343.018	1
343.467	1
343.915	1.05
344.364	1.05
344.812	1.07
345.261	1.07
345.709	1.08
346.158	1.11
346.606	1.1
347.054	1.11
347.503	1.14
347.951	1.17
348.399	1.14
348.847	1.17
349.295	1.18
349.743	1.17
350.191	1.21
350.639	1.19
351.087	1.2
351.535	1.22
351.983	1.23
352.43	1.24
352.878	1.26
353.326	1.25
353.773	1.27
354.221	1.29
354.668	1.3
355.116	1.3
355.563	1.33
356.01	1.33
356.458	1.32
356.905	1.35
357.352	1.35
357.799	1.38
358.246	1.39
358.693	1.39
359.14	1.41
359.587	1.44
360.034	1.44
360.481	1.43
360.928	1.46
361.375	1.47
361.821	1.49
362.268	1.49
362.714	1.52
363.161	1.5
363.608	1.52
364.054	1.54
364.5	1.57
364.947	1.53
365.393	1.54
365.839	1.57
366.285	1.57
366.732	1.57
367.178	1.57
367.624	1.57
368.07	1.6
368.516	1.57
368.962	1.59
369.408	1.58
369.853	1.59
370.299	1.58
370.745	1.58
371.19	1.57
371.636	1.58
372.082	1.6
372.527	1.57
372.973	1.58
373.418	1.6
373.863	1.58
374.309	1.58
374.754	1.56
375.199	1.55
375.644	1.57
376.09	1.53
376.535	1.55
376.98	1.54
377.425	1.51
377.87	1.53
378.314	1.49
378.759	1.48
379.204	1.49
379.649	1.44
380.093	1.44
380.538	1.41
380.983	1.4
381.427	1.37
381.872	1.34
382.316	1.31
382.76	1.31
383.205	1.27
383.649	1.26
384.093	1.24
384.537	1.19
384.982	1.17
385.426	1.16
385.87	1.14
386.314	1.12
386.758	1.09
387.201	1.06
387.645	1.04
388.089	1.02
388.533	0.99
388.976	0.97
389.42	0.96
389.864	0.93
390.307	0.91
390.751	0.89
391.194	0.87
391.638	0.85
392.081	0.84
392.524	0.83
392.967	0.8
393.411	0.79
393.854	0.78
394.297	0.77
394.74	0.76
395.183	0.75
395.626	0.75
396.069	0.74
396.512	0.73
396.954	0.74
397.397	0.74
397.84	0.74
398.282	0.74
398.725	0.74
399.168	0.72
399.61	0.72
400.052	0.72
400.495	0.71
400.937	0.7
401.38	0.69
401.822	0.67
402.264	0.66
402.706	0.66
403.148	0.62
403.59	0.61
404.032	0.6
404.474	0.57
404.916	0.55
405.358	0.53
405.8	0.52
406.241	0.5
406.683	0.48
407.125	0.46
407.566	0.44
408.008	0.42
408.449	0.41
408.891	0.4
409.332	0.38
409.774	0.37
410.215	0.36
410.656	0.35
411.097	0.32
411.539	0.32
411.98	0.31
412.421	0.3
412.862	0.29
413.303	0.28
413.744	0.28
414.184	0.27
414.625	0.27
415.066	0.24
415.507	0.25
415.947	0.25
416.388	0.25
416.828	0.24
417.269	0.23
417.709	0.23
418.15	0.23
418.59	0.22
419.03	0.23
419.471	0.21
419.911	0.21
420.351	0.2
420.791	0.21
421.231	0.21
421.671	0.21
422.111	0.19
422.551	0.21
422.991	0.21
423.431	0.2
423.87	0.21
424.31	0.2
424.75	0.2
425.189	0.21
425.629	0.2
426.068	0.2
426.508	0.19
426.947	0.21
427.386	0.2
427.826	0.21
428.265	0.22
428.704	0.19
429.143	0.19
429.582	0.2
430.021	0.22
430.46	0.21
430.899	0.18
431.338	0.2
431.777	0.2
432.216	0.2
432.655	0.2
433.093	0.2
433.532	0.21
433.971	0.2
434.409	0.2
434.848	0.2
435.286	0.22
435.724	0.22
436.163	0.22
436.601	0.23
437.039	0.22
437.477	0.22
437.916	0.23
438.354	0.22
438.792	0.23
439.23	0.2
439.668	0.23
440.105	0.24
440.543	0.22
440.981	0.24
441.419	0.22
441.856	0.23
442.294	0.23
442.732	0.21
443.169	0.23
443.607	0.23
444.044	0.23
444.481	0.23
444.919	0.23
445.356	0.22
445.793	0.23
446.23	0.25
446.668	0.25
447.105	0.25
447.542	0.25
447.979	0.24
448.416	0.23
448.852	0.25
449.289	0.26
449.726	0.27
450.163	0.26
450.599	0.25
451.036	0.24
451.473	0.26
451.909	0.25
452.346	0.26
452.782	0.28
453.218	0.24
453.655	0.26
454.091	0.25
454.527	0.27
454.963	0.29
455.399	0.25
455.835	0.27
456.271	0.26
456.707	0.26
457.143	0.26
457.579	0.28
458.015	0.26
458.451	0.29
458.886	0.28
459.322	0.28
459.758	0.28
460.193	0.3
460.629	0.29
461.064	0.29
461.5	0.31
461.935	0.3
462.37	0.3
462.805	0.3
463.241	0.31
463.676	0.3
464.111	0.32
464.546	0.32
464.981	0.31
465.416	0.31
465.851	0.32
466.286	0.31
466.72	0.31
467.155	0.34
467.59	0.33
468.024	0.35
468.459	0.34
468.893	0.34
469.328	0.36
469.762	0.37
470.197	0.37
470.631	0.38
471.065	0.38
471.5	0.39
471.934	0.4
472.368	0.41
472.802	0.4
473.236	0.41
473.67	0.42
474.104	0.43
474.538	0.44
474.972	0.44
475.405	0.45
475.839	0.46
476.273	0.46
476.706	0.47
477.14	0.48
477.573	0.48
478.007	0.48
478.44	0.48
478.874	0.49
479.307	0.5
479.74	0.51
480.173	0.52
480.606	0.53
481.04	0.54
481.473	0.54
481.906	0.55
482.339	0.55
482.771	0.56
483.204	0.56
483.637	0.57
484.07	0.59
484.502	0.59
484.935	0.6
485.368	0.6
485.8	0.61
486.233	0.62
486.665	0.62
487.098	0.62
487.53	0.63
487.962	0.63
488.394	0.64
488.827	0.64
489.259	0.65
489.691	0.65
490.123	0.67
490.555	0.67
490.987	0.67
491.418	0.68
491.85	0.69
492.282	0.69
492.714	0.7
493.145	0.7
493.577	0.71
494.009	0.71
494.44	0.72
494.872	0.73
495.303	0.74
495.734	0.74
496.166	0.75
496.597	0.75
497.028	0.76
497.459	0.76
497.89	0.77
498.321	0.78
498.752	0.78
499.183	0.78
499.614	0.78
500.045	0.78
500.476	0.8
500.906	0.8
501.337	0.81
501.768	0.82
502.198	0.82
502.629	0.84
503.059	0.83
503.49	0.84
503.92	0.84
504.35	0.84
504.781	0.86
505.211	0.86
505.641	0.86
506.071	0.87
506.501	0.88
506.931	0.88
507.361	0.88
507.791	0.88
508.221	0.89
508.651	0.89
509.081	0.9
509.51	0.9
509.94	0.9
510.37	0.92
510.799	0.93
511.229	0.92
511.658	0.93
512.087	0.94
512.517	0.94
512.946	0.94
513.375	0.95
513.804	0.95
514.234	0.95
514.663	0.95
515.092	0.95
515.521	0.96
515.95	0.97
516.378	0.97
516.807	0.97
517.236	0.98
517.665	0.98
518.093	0.98
518.522	0.99
518.951	1
519.379	1
519.807	0.99
520.236	0.99
520.664	1
521.093	1
521.521	1
521.949	1.01
522.377	1.01
522.805	1.01
523.233	1.02
523.661	1.01
524.089	1.01
524.517	1.02
524.945	1.02
525.373	1.02
525.8	1.02
526.228	1.04
526.656	1.03
527.083	1.04
527.511	1.04
527.938	1.04
528.366	1.04
528.793	1.04
529.22	1.04
529.648	1.05
530.075	1.04
530.502	1.05
530.929	1.05
531.356	1.05
531.783	1.05
532.21	1.05
532.637	1.05
533.064	1.06
533.49	1.05
533.917	1.06
534.344	1.07
534.771	1.06
535.197	1.06
535.624	1.06
536.05	1.06
536.477	1.06
536.903	1.06
537.329	1.06
537.755	1.06
538.182	1.07
538.608	1.07
539.034	1.06
539.46	1.06
539.886	1.07
540.312	1.07
540.738	1.06
541.164	1.06
541.589	1.05
542.015	1.06
542.441	1.05
542.867	1.07
543.292	1.06
543.718	1.06
544.143	1.05
544.569	1.06
544.994	1.06
545.419	1.06
545.845	1.05
546.27	1.06
546.695	1.06
547.12	1.05
547.545	1.06
547.97	1.05
548.395	1.06
548.82	1.05
549.245	1.04
549.67	1.04
550.094	1.04
550.519	1.04
550.944	1.04
551.368	1.04
551.793	1.03
552.217	1.04
552.642	1.04
553.066	1.03
553.49	1.03
553.915	1.03
554.339	1.02
554.763	1.02
555.187	1.02
555.611	1.02
556.035	1.01
556.459	1.01
556.883	1.02
557.307	1.01
557.731	1.01
558.154	1
558.578	1
559.002	1
559.425	0.99
559.849	0.99
560.272	0.99
560.696	0.99
561.119	0.98
561.543	0.98
561.966	0.98
562.389	0.98
562.812	0.97
563.235	0.97
563.658	0.97
564.081	0.96
564.504	0.96
564.927	0.96
565.35	0.96
565.773	0.95
566.196	0.95
566.618	0.95
567.041	0.94
567.463	0.94
567.886	0.94
568.309	0.94
568.731	0.93
569.153	0.93
569.576	0.93
569.998	0.92
570.42	0.92
570.842	0.92
571.264	0.92
571.686	0.91
572.108	0.91
572.53	0.9
572.952	0.9
573.374	0.9
573.796	0.89
574.218	0.89
574.639	0.89
575.061	0.88
575.483	0.88
575.904	0.88
576.326	0.87
576.747	0.87
577.168	0.87
577.59	0.86
578.011	0.86
578.432	0.85
578.853	0.85
579.274	0.85
579.695	0.85
580.116	0.85
580.537	0.84
580.958	0.84
581.379	0.83
581.8	0.83
582.221	0.82
582.641	0.83
583.062	0.82
583.482	0.81
583.903	0.81
584.323	0.81
584.744	0.81
585.164	0.8
585.584	0.8
586.005	0.8
586.425	0.8
586.845	0.79
587.265	0.79
587.685	0.79
588.105	0.78
588.525	0.78
588.945	0.78
589.365	0.77
589.785	0.77
590.204	0.77
590.624	0.76
591.044	0.76
591.463	0.76
591.883	0.76
592.302	0.75
592.721	0.75
593.141	0.75
593.56	0.75
593.979	0.74
594.399	0.74
594.818	0.74
595.237	0.74
595.656	0.73
596.075	0.73
596.494	0.73
596.913	0.72
597.331	0.72
597.75	0.72
598.169	0.71
598.587	0.71
599.006	0.71
599.425	0.71
599.843	0.7
600.262	0.7
600.68	0.7
601.098	0.69
601.517	0.69
601.935	0.69
602.353	0.68
602.771	0.69
603.189	0.68
603.607	0.68
604.025	0.67
604.443	0.67
604.861	0.67
605.279	0.67
605.696	0.66
606.114	0.66
606.532	0.66
606.949	0.65
607.367	0.65
607.784	0.65
608.202	0.64
608.619	0.64
609.036	0.63
609.454	0.63
609.871	0.63
610.288	0.63
610.705	0.62
611.122	0.62
611.539	0.62
611.956	0.62
612.373	0.61
612.79	0.61
613.207	0.6
613.623	0.6
614.04	0.6
614.457	0.6
614.873	0.59
615.29	0.59
615.706	0.59
616.122	0.58
616.539	0.58
616.955	0.58
617.371	0.57
617.788	0.57
618.204	0.57
618.62	0.57
619.036	0.56
619.452	0.56
619.868	0.55
620.284	0.55
620.699	0.55
621.115	0.55
621.531	0.54
621.946	0.54
622.362	0.54
622.778	0.53
623.193	0.53
623.608	0.52
624.024	0.53
624.439	0.52
624.854	0.52
625.27	0.51
625.685	0.51
626.1	0.51
626.515	0.5
626.93	0.5
627.345	0.5
627.76	0.49
628.175	0.49
628.589	0.49
629.004	0.48
629.419	0.48
629.833	0.48
630.248	0.48
630.663	0.47
631.077	0.46
631.491	0.47
631.906	0.46
632.32	0.46
632.734	0.45
633.148	0.45
633.563	0.45
633.977	0.44
634.391	0.44
634.805	0.44
635.219	0.43
635.632	0.43
636.046	0.43
636.46	0.43
636.874	0.42
637.287	0.42
637.701	0.42
638.115	0.41
638.528	0.41
638.941	0.4
639.355	0.4
639.768	0.4
640.181	0.4
640.595	0.39
641.008	0.39
641.421	0.39
641.834	0.39
642.247	0.38
642.66	0.38
643.073	0.38
643.486	0.37
643.898	0.37
644.311	0.36
644.724	0.36
645.136	0.36
645.549	0.36
645.961	0.36
646.374	0.35
646.786	0.35
647.199	0.35
647.611	0.34
648.023	0.34
648.435	0.34
648.847	0.34
649.26	0.33
649.672	0.33
650.084	0.33
650.495	0.33
650.907	0.33
651.319	0.33
651.731	0.32
652.143	0.32
652.554	0.32
652.966	0.32
653.377	0.32
653.789	0.31
654.2	0.31
654.612	0.31
655.023	0.32
655.434	0.29
655.845	0.28
656.256	0.3
656.668	0.3
657.079	0.3
657.49	0.3
657.901	0.29
658.311	0.29
658.722	0.29
659.133	0.29
659.544	0.28
659.954	0.28
660.365	0.28
660.775	0.28
661.186	0.28
661.596	0.27
662.007	0.27
662.417	0.27
662.827	0.27
663.238	0.27
663.648	0.26
664.058	0.26
664.468	0.26
664.878	0.26
665.288	0.26
665.698	0.26
666.108	0.26
666.517	0.25
666.927	0.25
667.337	0.25
667.746	0.24
668.156	0.24
668.565	0.24
668.975	0.24
669.384	0.24
669.794	0.24
670.203	0.23
670.612	0.23
671.021	0.23
671.43	0.23
671.84	0.22
672.249	0.22
672.658	0.22
673.066	0.22
673.475	0.22
673.884	0.22
674.293	0.21
674.702	0.21
675.11	0.21
675.519	0.21
675.927	0.21
676.336	0.2
676.744	0.2
677.152	0.2
677.561	0.2
677.969	0.19
678.377	0.19
678.785	0.19
679.193	0.19
679.601	0.19
680.009	0.19
680.417	0.19
680.825	0.18
681.233	0.18
681.641	0.18
682.048	0.18
682.456	0.17
682.864	0.17
683.271	0.17
683.679	0.17
684.086	0.17
684.493	0.16
684.901	0.16
685.308	0.16
685.715	0.16
686.122	0.16
686.529	0.16
686.936	0.16
687.343	0.15
687.75	0.15
688.157	0.15
688.564	0.15
688.971	0.14
689.378	0.15
689.784	0.14
690.191	0.14
690.597	0.14
691.004	0.14
691.41	0.14
691.817	0.14
692.223	0.14
692.629	0.13
693.035	0.13
693.442	0.13
693.848	0.13
694.254	0.13
694.66	0.13
695.066	0.13
695.471	0.13
695.877	0.12
696.283	0.12
696.689	0.12
697.094	0.12
697.5	0.12
697.906	0.12
698.311	0.12
698.716	0.12
699.122	0.12
699.527	0.11
699.932	0.11
700.338	0.11
700.743	0.11
701.148	0.11
701.553	0.11
701.958	0.11
702.363	0.11
702.768	0.11
703.173	0.11
703.577	0.11
703.982	0.11
704.387	0.1
704.791	0.1
705.196	0.11
705.6	0.1
706.005	0.1
706.409	0.1
706.814	0.1
707.218	0.1
707.622	0.1
708.026	0.1
708.43	0.1
708.834	0.1
709.238	0.1
709.642	0.1
710.046	0.1
710.45	0.1
710.854	0.1
711.257	0.1
711.661	0.1
712.065	0.1
712.468	0.1
712.872	0.1
713.275	0.1
713.679	0.1
714.082	0.1
714.485	0.1
714.888	0.1
715.291	0.1
715.695	0.1
716.098	0.1
716.501	0.1
716.904	0.1
717.306	0.1
717.709	0.1
718.112	0.09
718.515	0.1
718.917	0.1
719.32	0.1
719.723	0.1
720.125	0.1
720.527	0.1
720.93	0.09
721.332	0.09
721.734	0.1
722.137	0.09
722.539	0.1
722.941	0.1
723.343	0.1
723.745	0.09
724.147	0.1
724.549	0.1
724.95	0.1
725.352	0.1
725.754	0.1
726.156	0.09
726.557	0.09
726.959	0.1
727.36	0.1
727.762	0.09
728.163	0.1
728.564	0.1
728.966	0.09
729.367	0.09
729.768	0.09
730.169	0.09
730.57	0.09
730.971	0.09
731.372	0.09
731.773	0.09
732.174	0.09
732.574	0.09
732.975	0.09
733.376	0.09
733.776	0.09
734.177	0.09
734.577	0.09
734.978	0.09
735.378	0.09
735.778	0.09
736.179	0.09
736.579	0.09
736.979	0.09
737.379	0.09
737.779	0.09
738.179	0.09
738.579	0.09
738.979	0.09
739.379	0.09
739.778	0.08
740.178	0.08
740.578	0.08
740.977	0.08
741.377	0.08
741.776	0.08
742.176	0.08
742.575	0.08
742.974	0.08
743.374	0.08
743.773	0.08
744.172	0.08
744.571	0.08
744.97	0.08
745.369	0.08
745.768	0.08
746.167	0.08
746.565	0.08
746.964	0.08
747.363	0.08
747.761	0.08
748.16	0.08
748.559	0.08
748.957	0.08
749.355	0.08
749.754	0.08
750.152	0.08
750.55	0.08
750.948	0.08
751.347	0.08
751.745	0.08
752.143	0.08
752.541	0.08
752.938	0.07
753.336	0.08
753.734	0.08
754.132	0.07
754.529	0.07
754.927	0.08
755.325	0.07
755.722	0.07
756.119	0.07
756.517	0.07
756.914	0.07
757.311	0.07
757.709	0.07
758.106	0.07
758.503	0.07
758.9	0.07
759.297	0.07
759.694	0.07
760.091	0.07
760.488	0.07
760.884	0.07
761.281	0.07
761.678	0.07
762.074	0.07
762.471	0.07
762.867	0.07
763.264	0.07
763.66	0.07
764.056	0.07
764.453	0.07
764.849	0.08
765.245	0.07
765.641	0.07
766.037	0.07
766.433	0.07
766.829	0.07
767.225	0.08
767.621	0.07
768.016	0.07
768.412	0.07
768.808	0.08
769.203	0.08
769.599	0.08
769.994	0.07
770.389	0.07
770.785	0.08
771.18	0.08
771.575	0.08
771.971	0.08
772.366	0.08
772.761	0.08
773.156	0.08
773.551	0.08
773.945	0.08
774.34	0.08
774.735	0.08
775.13	0.08
775.524	0.08
775.919	0.08
776.314	0.08
776.708	0.08
777.103	0.08
777.497	0.08
777.891	0.08
778.285	0.08
778.68	0.08
779.074	0.08
779.468	0.08
779.862	0.08
780.256	0.08
780.65	0.08
781.044	0.09
781.438	0.08
781.831	0.09
782.225	0.09
782.619	0.09
783.012	0.09
783.406	0.09
783.799	0.09
784.193	0.09
784.586	0.09
784.979	0.09
785.372	0.09
785.766	0.09
786.159	0.09
786.552	0.09
786.945	0.09
787.338	0.09
787.731	0.09
788.123	0.1
788.516	0.09
788.909	0.1
789.302	0.09
789.694	0.09
790.087	0.1
790.479	0.1
790.872	0.1
791.264	0.1
791.656	0.1
792.049	0.1
792.441	0.1
792.833	0.1
793.225	0.1
793.617	0.1
794.009	0.1
794.401	0.1
794.793	0.1
795.185	0.1
795.576	0.1
795.968	0.1
796.36	0.1
796.751	0.1
797.143	0.11
797.534	0.1
797.926	0.11
798.317	0.11
798.708	0.11
799.1	0.11
799.491	0.11
799.882	0.11
800.273	0.11
800.664	0.11
801.055	0.11
801.446	0.11
801.837	0.11
802.227	0.11
802.618	0.11
803.009	0.12
803.399	0.12
803.79	0.12
804.18	0.12
804.571	0.12
804.961	0.12
805.351	0.12
805.742	0.12
806.132	0.12
806.522	0.12
806.912	0.12
807.302	0.12
807.692	0.12
808.082	0.12
808.472	0.13
808.862	0.13
809.251	0.13
809.641	0.12
810.031	0.13
810.42	0.13
810.81	0.13
811.199	0.13
811.589	0.13
811.978	0.13
812.367	0.13
812.756	0.13
813.146	0.13
813.535	0.14
813.924	0.14
814.313	0.13
814.702	0.14
815.091	0.14
815.479	0.14
815.868	0.14
816.257	0.14
816.645	0.14
817.034	0.14
817.423	0.14
817.811	0.14
818.199	0.14
818.588	0.15
818.976	0.15
819.364	0.15
819.753	0.15
820.141	0.15
820.529	0.15
820.917	0.15
821.305	0.15
821.693	0.15
822.08	0.15
822.468	0.15
822.856	0.15
823.244	0.15
823.631	0.15
824.019	0.15
824.406	0.15
824.794	0.15
825.181	0.16
825.568	0.16
825.956	0.16
826.343	0.16
826.73	0.16
827.117	0.16
827.504	0.16
827.891	0.16
828.278	0.16
828.665	0.16
829.052	0.17
829.438	0.17
829.825	0.17
830.212	0.17
830.598	0.17
830.985	0.17
831.371	0.17
831.757	0.17
832.144	0.17
832.53	0.17
832.916	0.17
833.302	0.17
833.688	0.18
834.075	0.18
834.461	0.18
834.846	0.18
835.232	0.18
835.618	0.18
836.004	0.18
836.39	0.18
836.775	0.18
837.161	0.18
837.546	0.18
837.932	0.19
838.317	0.19
838.702	0.19
839.088	0.19
839.473	0.19
839.858	0.19
840.243	0.19
840.628	0.19
841.013	0.19
841.398	0.19
841.783	0.19
842.168	0.19
842.553	0.19
842.937	0.2
843.322	0.19
843.707	0.2
844.091	0.2
844.476	0.2
844.86	0.2
845.244	0.2
845.629	0.2
846.013	0.2
846.397	0.2
846.781	0.2
847.165	0.21
847.549	0.2
847.933	0.21
848.317	0.21
848.701	0.21
849.085	0.21
849.468	0.21
849.852	0.21
850.236	0.21
850.619	0.21
851.003	0.21
851.386	0.22
851.769	0.21
852.153	0.22
852.536	0.21
852.919	0.22
853.302	0.22
853.685	0.22
854.068	0.22
854.451	0.22
854.834	0.22
855.217	0.22
855.6	0.22
855.982	0.22
856.365	0.23
856.748	0.22
857.13	0.22
857.513	0.23
857.895	0.23
858.277	0.23
858.66	0.23
859.042	0.23
859.424	0.23
859.806	0.23
860.188	0.23
860.57	0.23
860.952	0.23
861.334	0.24
861.716	0.24
862.098	0.24
862.48	0.24
862.861	0.24
863.243	0.24
863.624	0.24
864.006	0.24
864.387	0.24
864.769	0.24
865.15	0.24
865.531	0.24
865.912	0.25
866.294	0.25
866.675	0.25
867.056	0.25
867.437	0.25
867.818	0.25
868.198	0.25
868.579	0.25
868.96	0.25
869.341	0.25
869.721	0.25
870.102	0.25
870.482	0.26
870.863	0.26
871.243	0.26
871.623	0.26
872.003	0.26
872.384	0.26
872.764	0.26
873.144	0.26
873.524	0.26
873.904	0.26
874.284	0.26
874.664	0.26
875.043	0.26
875.423	0.26
875.803	0.26
876.182	0.27
876.562	0.26
876.941	0.27
877.321	0.27
877.7	0.27
878.079	0.27
878.459	0.27
878.838	0.27
879.217	0.27
879.596	0.27
879.975	0.27
880.354	0.28
880.733	0.27
881.112	0.27
881.491	0.28
881.869	0.27
882.248	0.28
882.627	0.28
883.005	0.28
883.384	0.28
883.762	0.28
884.14	0.28
884.519	0.28
884.897	0.28
885.275	0.28
885.653	0.28
886.031	0.28
886.409	0.28
886.787	0.29
887.165	0.29
887.543	0.29
887.921	0.29
888.298	0.29
888.676	0.29
889.054	0.29
889.431	0.29
889.809	0.29
890.186	0.29
890.563	0.29
890.941	0.29
891.318	0.29
891.695	0.29
892.072	0.29
892.449	0.29
892.826	0.3
893.203	0.29
893.58	0.3
893.957	0.3
894.334	0.29
894.71	0.3
895.087	0.29
895.464	0.3
895.84	0.3
896.217	0.3
896.593	0.3
896.969	0.3
897.346	0.3
897.722	0.3
898.098	0.3
898.474	0.3
898.85	0.3
899.226	0.3
899.602	0.3
899.978	0.3
900.354	0.3
900.73	0.3
901.105	0.3
901.481	0.31
901.857	0.3
902.232	0.3
902.608	0.3
902.983	0.3
903.358	0.3
903.734	0.31
904.109	0.31
904.484	0.31
904.859	0.31
905.234	0.31
905.609	0.31
905.984	0.31
906.359	0.31
906.734	0.31
907.108	0.31
907.483	0.31
907.858	0.31
908.232	0.31
908.607	0.31
908.981	0.31
909.356	0.31
909.73	0.31
910.104	0.31
910.478	0.31
910.853	0.31
911.227	0.31
911.601	0.31
911.975	0.31
912.349	0.32
912.722	0.31
913.096	0.31
913.47	0.32
913.844	0.32
914.217	0.32
914.591	0.32
914.964	0.32
915.338	0.31
915.711	0.32
916.084	0.32
916.458	0.32
916.831	0.32
917.204	0.32
917.577	0.32
917.95	0.32
918.323	0.31
918.696	0.32
919.069	0.32
919.441	0.32
919.814	0.32
920.187	0.32
920.559	0.32
920.932	0.32
921.304	0.32
921.677	0.32
922.049	0.32
922.421	0.32
922.794	0.32
923.166	0.32
923.538	0.32
923.91	0.32
924.282	0.32
924.654	0.32
925.026	0.32
925.398	0.32
925.769	0.32
926.141	0.32
926.513	0.32
926.884	0.32
927.256	0.32
927.627	0.32
927.999	0.32
928.37	0.32
928.741	0.32
929.113	0.32
929.484	0.32
929.855	0.32
930.226	0.32
930.597	0.32
930.968	0.33
931.339	0.32
931.709	0.32
932.08	0.32
932.451	0.32
932.821	0.32
933.192	0.32
933.562	0.32
933.933	0.32
934.303	0.32
934.673	0.33
935.044	0.32
935.414	0.33
935.784	0.32
936.154	0.32
936.524	0.32
936.894	0.33
937.264	0.33
937.634	0.32
938.004	0.32
938.373	0.33
938.743	0.32
939.113	0.33
939.482	0.33
939.852	0.33
940.221	0.32
940.59	0.33
940.96	0.32
941.329	0.33
941.698	0.32
942.067	0.32
942.436	0.33
942.805	0.32
943.174	0.33
943.543	0.33
943.912	0.32
944.28	0.32
944.649	0.32
945.018	0.33
945.386	0.32
945.755	0.33
946.123	0.33
946.492	0.33
946.86	0.33
947.228	0.32
947.596	0.32
947.965	0.32
948.333	0.33
948.701	0.33
949.069	0.32
949.437	0.33
949.804	0.33
950.172	0.32
950.54	0.33
950.908	0.32
951.275	0.33
951.643	0.32
952.01	0.32
952.378	0.32
952.745	0.33
953.112	0.32
953.479	0.33
953.847	0.33
954.214	0.32
954.581	0.32
954.948	0.32
955.315	0.33
955.682	0.32
956.048	0.32
956.415	0.32
956.782	0.32
957.148	0.32
957.515	0.32
957.881	0.32
958.248	0.32
958.614	0.32
958.981	0.32
959.347	0.32
959.713	0.32
960.079	0.32
960.445	0.32
960.811	0.32
961.177	0.32
961.543	0.32
961.909	0.32
962.275	0.32
962.641	0.32
963.006	0.32
963.372	0.32
963.737	0.32
964.103	0.32
964.468	0.32
964.834	0.32
965.199	0.32
965.564	0.31
965.929	0.32
966.294	0.32
966.659	0.32
967.024	0.31
967.389	0.32
967.754	0.32
968.119	0.32
968.484	0.31
968.848	0.32
969.213	0.31
969.578	0.31
969.942	0.31
970.307	0.31
970.671	0.32
971.035	0.31
971.399	0.31
971.764	0.31
972.128	0.31
972.492	0.31
972.856	0.31
973.22	0.31
973.584	0.31
973.948	0.31
974.311	0.31
974.675	0.32
975.039	0.31
975.402	0.31
975.766	0.31
976.129	0.31
976.493	0.31
976.856	0.31
977.219	0.31
977.582	0.31
977.946	0.31
978.309	0.31
978.672	0.31
979.035	0.31
979.398	0.31
979.761	0.31
980.123	0.31
980.486	0.31
980.849	0.31
981.211	0.31
981.574	0.31
981.936	0.31
982.299	0.31
982.661	0.31
983.023	0.31
983.386	0.31
983.748	0.31
984.11	0.3
984.472	0.31
984.834	0.31
985.196	0.3
985.558	0.3
985.92	0.3
986.281	0.3
986.643	0.3
987.005	0.31
987.366	0.3
987.728	0.29
988.089	0.3
988.451	0.3
988.812	0.3
989.173	0.29
989.534	0.3
989.895	0.3
990.257	0.3
990.618	0.3
990.979	0.3
991.339	0.3
991.7	0.3
992.061	0.3
992.422	0.3
992.782	0.3
993.143	0.3
993.503	0.3
993.864	0.3
994.224	0.29
994.585	0.29
994.945	0.29
995.305	0.29
995.665	0.29
996.025	0.3
996.385	0.29
996.745	0.29
997.105	0.29
997.465	0.29
997.825	0.29
998.185	0.29
998.544	0.29
998.904	0.29
999.263	0.29
999.623	0.29
999.982	0.3
1000.342	0.29
1000.701	0.29
1001.06	0.29
1001.419	0.29
1001.778	0.29
1002.138	0.29
1002.497	0.29
1002.855	0.29
1003.214	0.29
1003.573	0.29
1003.932	0.29
1004.29	0.28
1004.649	0.29
1005.008	0.28
1005.366	0.28
1005.725	0.28
1006.083	0.28
1006.441	0.28
1006.799	0.28
1007.158	0.29
1007.516	0.28
1007.874	0.28
1008.232	0.28
1008.59	0.28
1008.948	0.28
1009.305	0.29
1009.663	0.28
1010.021	0.28
1010.379	0.28
1010.736	0.28
1011.094	0.28
1011.451	0.28
1011.808	0.28
1012.166	0.28
1012.523	0.28
1012.88	0.27
1013.237	0.28
1013.594	0.28
1013.951	0.27
1014.308	0.27
1014.665	0.28
1015.022	0.28
1015.379	0.27
1015.735	0.27
1016.092	0.27
1016.449	0.27
1016.805	0.27
1017.162	0.27
1017.518	0.27
1017.874	0.27
1018.231	0.27
1018.587	0.26
1018.943	0.27
1019.299	0.27
1019.655	0.27
1020.011	0.27
1020.367	0.27
1020.723	0.27
1021.078	0.27
1021.434	0.27
1021.79	0.27
1022.145	0.27
1022.501	0.27
1022.856	0.27
1023.212	0.27
1023.567	0.26
1023.922	0.26
1024.278	0.26
1024.633	0.26
1024.988	0.27
1025.343	0.26
1025.698	0.26
1026.053	0.26
1026.408	0.26
1026.762	0.26
1027.117	0.26
1027.472	0.26
1027.826	0.25
1028.181	0.26
1028.535	0.26
1028.89	0.26
1029.244	0.26
1029.598	0.26
1029.952	0.27
1030.307	0.26
1030.661	0.26
1031.015	0.25
1031.369	0.25
1031.723	0.25
1032.076	0.25
