Data from Rubpy_BV_EDTA_TU(3000)_Blank_Blue_Flow_Absorbance__2600__13-30-02-834.txt Node

Date: Mon Aug 03 13:30:02 BST 2026
User: fpm-admin
Spectrometer: SR600986
Trigger mode: 0
Integration Time (sec): 8.000000E-3
Scans to average: 3
Nonlinearity correction enabled: true
Boxcar width: 0
Storing dark spectrum: false
XAxis mode: Wavelengths
Number of Pixels in Spectrum: 2048
>>>>>Begin Spectral Data<<<<<
188.613	0.28
189.078	0.3
189.542	0.29
190.007	0.31
190.472	0.31
190.936	0.3
191.401	0.29
191.865	0.29
192.33	0.29
192.794	0.29
193.258	0.3
193.723	0.3
194.187	0.28
194.651	0.3
195.115	0.28
195.579	0.32
196.043	0.28
196.507	0.31
196.971	0.3
197.435	0.29
197.899	0.3
198.363	0.29
198.827	0.28
199.29	0.33
199.754	0.29
200.218	0.3
200.681	0.28
201.145	0.3
201.608	0.28
202.072	0.32
202.535	0.29
202.998	0.29
203.462	0.3
203.925	0.31
204.388	0.28
204.851	0.29
205.314	0.3
205.777	0.28
206.24	0.28
206.703	0.31
207.166	0.28
207.629	0.3
208.092	0.28
208.555	0.28
209.018	0.3
209.48	0.3
209.943	0.3
210.406	0.29
210.868	0.3
211.331	0.29
211.793	0.29
212.256	0.31
212.718	0.27
213.18	0.3
213.643	0.32
214.105	0.29
214.567	0.28
215.029	0.3
215.491	0.28
215.953	0.3
216.415	0.28
216.877	0.3
217.339	0.3
217.801	0.28
218.263	0.31
218.725	0.3
219.186	0.3
219.648	0.28
220.11	0.28
220.571	0.32
221.033	0.3
221.494	0.3
221.956	0.29
222.417	0.3
222.878	0.29
223.34	0.28
223.801	0.28
224.262	0.3
224.723	0.3
225.185	0.3
225.646	0.29
226.107	0.27
226.568	0.28
227.029	0.3
227.489	0.3
227.95	0.29
228.411	0.28
228.872	0.29
229.332	0.3
229.793	0.29
230.254	0.29
230.714	0.28
231.175	0.3
231.635	0.29
232.096	0.29
232.556	0.28
233.016	0.28
233.477	0.27
233.937	0.28
234.397	0.3
234.857	0.28
235.317	0.3
235.777	0.29
236.237	0.31
236.697	0.3
237.157	0.31
237.617	0.3
238.077	0.29
238.537	0.3
238.996	0.31
239.456	0.3
239.916	0.3
240.375	0.29
240.835	0.28
241.294	0.31
241.754	0.29
242.213	0.31
242.672	0.28
243.132	0.29
243.591	0.3
244.05	0.28
244.509	0.29
244.968	0.29
245.427	0.3
245.886	0.29
246.345	0.29
246.804	0.28
247.263	0.28
247.722	0.3
248.181	0.31
248.639	0.28
249.098	0.29
249.557	0.3
250.015	0.3
250.474	0.29
250.932	0.3
251.391	0.29
251.849	0.29
252.308	0.3
252.766	0.29
253.224	0.34
253.682	0.31
254.14	0.28
254.599	0.31
255.057	0.29
255.515	0.32
255.973	0.3
256.431	0.32
256.888	0.31
257.346	0.26
257.804	0.3
258.262	0.27
258.719	0.3
259.177	0.3
259.635	0.26
260.092	0.29
260.55	0.32
261.007	0.28
261.465	0.31
261.922	0.3
262.379	0.29
262.836	0.3
263.294	0.29
263.751	0.3
264.208	0.31
264.665	0.27
265.122	0.29
265.579	0.27
266.036	0.3
266.493	0.29
266.95	0.29
267.406	0.3
267.863	0.29
268.32	0.29
268.777	0.28
269.233	0.29
269.69	0.29
270.146	0.31
270.603	0.3
271.059	0.27
271.515	0.29
271.972	0.33
272.428	0.26
272.884	0.28
273.34	0.3
273.796	0.31
274.253	0.29
274.709	0.29
275.165	0.29
275.62	0.29
276.076	0.27
276.532	0.31
276.988	0.26
277.444	0.29
277.899	0.29
278.355	0.3
278.811	0.29
279.266	0.3
279.722	0.29
280.177	0.3
280.633	0.28
281.088	0.3
281.543	0.29
281.998	0.3
282.454	0.31
282.909	0.31
283.364	0.29
283.819	0.3
284.274	0.31
284.729	0.29
285.184	0.3
285.639	0.27
286.094	0.3
286.548	0.29
287.003	0.3
287.458	0.3
287.913	0.29
288.367	0.29
288.822	0.29
289.276	0.29
289.731	0.3
290.185	0.29
290.639	0.3
291.094	0.3
291.548	0.3
292.002	0.29
292.456	0.29
292.91	0.3
293.365	0.29
293.819	0.31
294.273	0.3
294.726	0.3
295.18	0.3
295.634	0.33
296.088	0.28
296.542	0.31
296.995	0.28
297.449	0.29
297.903	0.31
298.356	0.28
298.81	0.3
299.263	0.3
299.716	0.32
300.17	0.28
300.623	0.3
301.076	0.32
301.53	0.3
301.983	0.33
302.436	0.3
302.889	0.31
303.342	0.31
303.795	0.3
304.248	0.3
304.701	0.3
305.153	0.3
305.606	0.3
306.059	0.31
306.512	0.31
306.964	0.3
307.417	0.28
307.869	0.3
308.322	0.31
308.774	0.31
309.227	0.31
309.679	0.3
310.131	0.3
310.584	0.3
311.036	0.28
311.488	0.3
311.94	0.33
312.392	0.27
312.844	0.29
313.296	0.31
313.748	0.32
314.2	0.31
314.652	0.32
315.103	0.33
315.555	0.33
316.007	0.32
316.458	0.35
316.91	0.34
317.361	0.33
317.813	0.34
318.264	0.33
318.716	0.34
319.167	0.34
319.618	0.35
320.07	0.36
320.521	0.35
320.972	0.38
321.423	0.38
321.874	0.39
322.325	0.38
322.776	0.4
323.227	0.4
323.678	0.41
324.128	0.42
324.579	0.43
325.03	0.44
325.48	0.46
325.931	0.47
326.382	0.49
326.832	0.49
327.283	0.5
327.733	0.52
328.183	0.55
328.634	0.56
329.084	0.58
329.534	0.58
329.984	0.63
330.434	0.62
330.884	0.65
331.334	0.67
331.784	0.68
332.234	0.7
332.684	0.72
333.134	0.73
333.584	0.76
334.034	0.78
334.483	0.79
334.933	0.81
335.382	0.81
335.832	0.85
336.281	0.86
336.731	0.87
337.18	0.89
337.63	0.91
338.079	0.93
338.528	0.95
338.977	0.98
339.426	0.99
339.876	1
340.325	1.03
340.774	1.04
341.223	1.06
341.671	1.07
342.12	1.09
342.569	1.11
343.018	1.15
343.467	1.13
343.915	1.17
344.364	1.16
344.812	1.18
345.261	1.21
345.709	1.21
346.158	1.23
346.606	1.23
347.054	1.24
347.503	1.26
347.951	1.28
348.399	1.27
348.847	1.3
349.295	1.29
349.743	1.29
350.191	1.3
350.639	1.33
351.087	1.34
351.535	1.35
351.983	1.34
352.43	1.35
352.878	1.35
353.326	1.38
353.773	1.37
354.221	1.39
354.668	1.41
355.116	1.43
355.563	1.41
356.01	1.43
356.458	1.45
356.905	1.47
357.352	1.46
357.799	1.48
358.246	1.47
358.693	1.47
359.14	1.51
359.587	1.49
360.034	1.53
360.481	1.52
360.928	1.56
361.375	1.55
361.821	1.57
362.268	1.56
362.714	1.6
363.161	1.59
363.608	1.59
364.054	1.63
364.5	1.62
364.947	1.62
365.393	1.61
365.839	1.63
366.285	1.62
366.732	1.66
367.178	1.65
367.624	1.65
368.07	1.64
368.516	1.66
368.962	1.65
369.408	1.64
369.853	1.67
370.299	1.65
370.745	1.66
371.19	1.64
371.636	1.67
372.082	1.66
372.527	1.62
372.973	1.65
373.418	1.65
373.863	1.67
374.309	1.65
374.754	1.66
375.199	1.66
375.644	1.65
376.09	1.64
376.535	1.63
376.98	1.65
377.425	1.62
377.87	1.64
378.314	1.61
378.759	1.61
379.204	1.61
379.649	1.59
380.093	1.58
380.538	1.55
380.983	1.55
381.427	1.51
381.872	1.5
382.316	1.47
382.76	1.46
383.205	1.43
383.649	1.43
384.093	1.38
384.537	1.36
384.982	1.32
385.426	1.31
385.87	1.29
386.314	1.25
386.758	1.25
387.201	1.22
387.645	1.18
388.089	1.17
388.533	1.13
388.976	1.11
389.42	1.1
389.864	1.06
390.307	1.05
390.751	1.02
391.194	1
391.638	0.99
392.081	0.96
392.524	0.94
392.967	0.93
393.411	0.92
393.854	0.9
394.297	0.89
394.74	0.87
395.183	0.86
395.626	0.85
396.069	0.85
396.512	0.84
396.954	0.83
397.397	0.84
397.84	0.84
398.282	0.84
398.725	0.84
399.168	0.83
399.61	0.83
400.052	0.82
400.495	0.82
400.937	0.8
401.38	0.78
401.822	0.77
402.264	0.77
402.706	0.74
403.148	0.72
403.59	0.71
404.032	0.68
404.474	0.66
404.916	0.63
405.358	0.62
405.8	0.6
406.241	0.58
406.683	0.56
407.125	0.53
407.566	0.51
408.008	0.49
408.449	0.48
408.891	0.46
409.332	0.45
409.774	0.43
410.215	0.42
410.656	0.4
411.097	0.38
411.539	0.37
411.98	0.36
412.421	0.34
412.862	0.32
413.303	0.33
413.744	0.32
414.184	0.3
414.625	0.31
415.066	0.29
415.507	0.29
415.947	0.28
416.388	0.29
416.828	0.27
417.269	0.28
417.709	0.27
418.15	0.25
418.59	0.25
419.03	0.25
419.471	0.26
419.911	0.25
420.351	0.25
420.791	0.25
421.231	0.24
421.671	0.24
422.111	0.24
422.551	0.23
422.991	0.25
423.431	0.23
423.87	0.25
424.31	0.24
424.75	0.25
425.189	0.23
425.629	0.23
426.068	0.24
426.508	0.22
426.947	0.24
427.386	0.25
427.826	0.24
428.265	0.24
428.704	0.24
429.143	0.24
429.582	0.24
430.021	0.24
430.46	0.24
430.899	0.23
431.338	0.24
431.777	0.24
432.216	0.24
432.655	0.24
433.093	0.23
433.532	0.26
433.971	0.22
434.409	0.23
434.848	0.25
435.286	0.25
435.724	0.26
436.163	0.24
436.601	0.26
437.039	0.25
437.477	0.26
437.916	0.25
438.354	0.27
438.792	0.25
439.23	0.25
439.668	0.26
440.105	0.28
440.543	0.25
440.981	0.27
441.419	0.25
441.856	0.27
442.294	0.28
442.732	0.28
443.169	0.27
443.607	0.27
444.044	0.25
444.481	0.29
444.919	0.27
445.356	0.28
445.793	0.28
446.23	0.27
446.668	0.29
447.105	0.28
447.542	0.29
447.979	0.27
448.416	0.28
448.852	0.31
449.289	0.29
449.726	0.33
450.163	0.29
450.599	0.29
451.036	0.29
451.473	0.3
451.909	0.3
452.346	0.32
452.782	0.32
453.218	0.29
453.655	0.3
454.091	0.31
454.527	0.31
454.963	0.32
455.399	0.31
455.835	0.3
456.271	0.31
456.707	0.31
457.143	0.3
457.579	0.3
458.015	0.3
458.451	0.33
458.886	0.34
459.322	0.32
459.758	0.32
460.193	0.34
460.629	0.32
461.064	0.34
461.5	0.36
461.935	0.33
462.37	0.35
462.805	0.35
463.241	0.36
463.676	0.36
464.111	0.36
464.546	0.37
464.981	0.38
465.416	0.38
465.851	0.38
466.286	0.39
466.72	0.38
467.155	0.39
467.59	0.38
468.024	0.4
468.459	0.4
468.893	0.42
469.328	0.43
469.762	0.42
470.197	0.43
470.631	0.44
471.065	0.45
471.5	0.44
471.934	0.47
472.368	0.46
472.802	0.49
473.236	0.49
473.67	0.5
474.104	0.51
474.538	0.53
474.972	0.52
475.405	0.54
475.839	0.54
476.273	0.54
476.706	0.54
477.14	0.57
477.573	0.57
478.007	0.57
478.44	0.58
478.874	0.58
479.307	0.61
479.74	0.6
480.173	0.62
480.606	0.62
481.04	0.63
481.473	0.64
481.906	0.65
482.339	0.66
482.771	0.67
483.204	0.67
483.637	0.67
484.07	0.69
484.502	0.7
484.935	0.71
485.368	0.72
485.8	0.73
486.233	0.73
486.665	0.74
487.098	0.74
487.53	0.75
487.962	0.75
488.394	0.75
488.827	0.77
489.259	0.77
489.691	0.78
490.123	0.78
490.555	0.79
490.987	0.8
491.418	0.81
491.85	0.81
492.282	0.82
492.714	0.83
493.145	0.83
493.577	0.84
494.009	0.85
494.44	0.86
494.872	0.85
495.303	0.87
495.734	0.88
496.166	0.88
496.597	0.9
497.028	0.9
497.459	0.9
497.89	0.91
498.321	0.91
498.752	0.92
499.183	0.94
499.614	0.93
500.045	0.94
500.476	0.95
500.906	0.95
501.337	0.96
501.768	0.98
502.198	0.98
502.629	0.98
503.059	0.98
503.49	1
503.92	1
504.35	1
504.781	1.02
505.211	1.02
505.641	1.02
506.071	1.03
506.501	1.03
506.931	1.04
507.361	1.05
507.791	1.05
508.221	1.06
508.651	1.06
509.081	1.06
509.51	1.07
509.94	1.08
510.37	1.08
510.799	1.08
511.229	1.09
511.658	1.09
512.087	1.1
512.517	1.1
512.946	1.11
513.375	1.11
513.804	1.12
514.234	1.12
514.663	1.12
515.092	1.13
515.521	1.13
515.95	1.14
516.378	1.14
516.807	1.15
517.236	1.14
517.665	1.16
518.093	1.16
518.522	1.16
518.951	1.16
519.379	1.17
519.807	1.17
520.236	1.17
520.664	1.17
521.093	1.18
521.521	1.18
521.949	1.18
522.377	1.18
522.805	1.19
523.233	1.19
523.661	1.2
524.089	1.2
524.517	1.2
524.945	1.21
525.373	1.2
525.8	1.2
526.228	1.21
526.656	1.21
527.083	1.22
527.511	1.21
527.938	1.22
528.366	1.21
528.793	1.21
529.22	1.23
529.648	1.23
530.075	1.23
530.502	1.23
530.929	1.23
531.356	1.23
531.783	1.24
532.21	1.23
532.637	1.23
533.064	1.24
533.49	1.24
533.917	1.24
534.344	1.25
534.771	1.24
535.197	1.24
535.624	1.24
536.05	1.24
536.477	1.25
536.903	1.24
537.329	1.25
537.755	1.25
538.182	1.24
538.608	1.24
539.034	1.24
539.46	1.25
539.886	1.25
540.312	1.25
540.738	1.25
541.164	1.24
541.589	1.25
542.015	1.24
542.441	1.25
542.867	1.25
543.292	1.25
543.718	1.24
544.143	1.24
544.569	1.24
544.994	1.24
545.419	1.25
545.845	1.24
546.27	1.24
546.695	1.23
547.12	1.23
547.545	1.24
547.97	1.23
548.395	1.23
548.82	1.22
549.245	1.23
549.67	1.22
550.094	1.23
550.519	1.22
550.944	1.22
551.368	1.22
551.793	1.21
552.217	1.21
552.642	1.21
553.066	1.21
553.49	1.21
553.915	1.2
554.339	1.21
554.763	1.19
555.187	1.2
555.611	1.19
556.035	1.2
556.459	1.18
556.883	1.18
557.307	1.19
557.731	1.18
558.154	1.17
558.578	1.17
559.002	1.17
559.425	1.18
559.849	1.16
560.272	1.16
560.696	1.16
561.119	1.16
561.543	1.16
561.966	1.15
562.389	1.14
562.812	1.14
563.235	1.14
563.658	1.14
564.081	1.12
564.504	1.14
564.927	1.13
565.35	1.13
565.773	1.13
566.196	1.12
566.618	1.11
567.041	1.11
567.463	1.11
567.886	1.11
568.309	1.1
568.731	1.09
569.153	1.1
569.576	1.09
569.998	1.09
570.42	1.08
570.842	1.09
571.264	1.08
571.686	1.08
572.108	1.07
572.53	1.07
572.952	1.07
573.374	1.07
573.796	1.06
574.218	1.05
574.639	1.05
575.061	1.04
575.483	1.04
575.904	1.03
576.326	1.04
576.747	1.03
577.168	1.02
577.59	1.02
578.011	1.01
578.432	1.01
578.853	1.01
579.274	1.01
579.695	1
580.116	1
580.537	0.99
580.958	0.99
581.379	0.98
581.8	0.98
582.221	0.98
582.641	0.97
583.062	0.97
583.482	0.97
583.903	0.97
584.323	0.96
584.744	0.95
585.164	0.95
585.584	0.95
586.005	0.95
586.425	0.94
586.845	0.94
587.265	0.93
587.685	0.93
588.105	0.92
588.525	0.92
588.945	0.92
589.365	0.91
589.785	0.91
590.204	0.9
590.624	0.9
591.044	0.9
591.463	0.9
591.883	0.89
592.302	0.88
592.721	0.89
593.141	0.88
593.56	0.88
593.979	0.88
594.399	0.87
594.818	0.87
595.237	0.87
595.656	0.87
596.075	0.86
596.494	0.86
596.913	0.85
597.331	0.85
597.75	0.85
598.169	0.84
598.587	0.84
599.006	0.84
599.425	0.83
599.843	0.83
600.262	0.82
600.68	0.83
601.098	0.82
601.517	0.82
601.935	0.81
602.353	0.81
602.771	0.81
603.189	0.8
603.607	0.79
604.025	0.8
604.443	0.8
604.861	0.78
605.279	0.78
605.696	0.78
606.114	0.78
606.532	0.77
606.949	0.77
607.367	0.76
607.784	0.76
608.202	0.76
608.619	0.76
609.036	0.75
609.454	0.74
609.871	0.74
610.288	0.74
610.705	0.73
611.122	0.73
611.539	0.73
611.956	0.72
612.373	0.72
612.79	0.72
613.207	0.71
613.623	0.71
614.04	0.7
614.457	0.7
614.873	0.7
615.29	0.7
615.706	0.69
616.122	0.68
616.539	0.68
616.955	0.68
617.371	0.67
617.788	0.67
618.204	0.67
618.62	0.67
619.036	0.66
619.452	0.66
619.868	0.65
620.284	0.65
620.699	0.65
621.115	0.64
621.531	0.64
621.946	0.63
622.362	0.63
622.778	0.63
623.193	0.62
623.608	0.62
624.024	0.62
624.439	0.61
624.854	0.61
625.27	0.6
625.685	0.6
626.1	0.6
626.515	0.59
626.93	0.59
627.345	0.58
627.76	0.58
628.175	0.58
628.589	0.57
629.004	0.57
629.419	0.56
629.833	0.56
630.248	0.56
630.663	0.55
631.077	0.55
631.491	0.55
631.906	0.54
632.32	0.54
632.734	0.53
633.148	0.53
633.563	0.53
633.977	0.52
634.391	0.52
634.805	0.51
635.219	0.51
635.632	0.51
636.046	0.51
636.46	0.5
636.874	0.49
637.287	0.49
637.701	0.49
638.115	0.48
638.528	0.48
638.941	0.47
639.355	0.47
639.768	0.47
640.181	0.46
640.595	0.46
641.008	0.46
641.421	0.46
641.834	0.45
642.247	0.45
642.66	0.44
643.073	0.44
643.486	0.44
643.898	0.43
644.311	0.43
644.724	0.42
645.136	0.42
645.549	0.42
645.961	0.42
646.374	0.41
646.786	0.41
647.199	0.41
647.611	0.4
648.023	0.4
648.435	0.4
648.847	0.4
649.26	0.39
649.672	0.39
650.084	0.39
650.495	0.39
650.907	0.38
651.319	0.38
651.731	0.38
652.143	0.38
652.554	0.37
652.966	0.37
653.377	0.37
653.789	0.37
654.2	0.36
654.612	0.36
655.023	0.37
655.434	0.35
655.845	0.34
656.256	0.35
656.668	0.35
657.079	0.35
657.49	0.35
657.901	0.34
658.311	0.34
658.722	0.34
659.133	0.34
659.544	0.33
659.954	0.33
660.365	0.33
660.775	0.33
661.186	0.32
661.596	0.32
662.007	0.32
662.417	0.32
662.827	0.31
663.238	0.31
663.648	0.31
664.058	0.31
664.468	0.31
664.878	0.31
665.288	0.3
665.698	0.3
666.108	0.3
666.517	0.29
666.927	0.29
667.337	0.29
667.746	0.28
668.156	0.28
668.565	0.28
668.975	0.28
669.384	0.28
669.794	0.28
670.203	0.27
670.612	0.27
671.021	0.27
671.43	0.26
671.84	0.26
672.249	0.26
672.658	0.26
673.066	0.26
673.475	0.25
673.884	0.25
674.293	0.25
674.702	0.25
675.11	0.24
675.519	0.24
675.927	0.24
676.336	0.24
676.744	0.24
677.152	0.23
677.561	0.23
677.969	0.23
678.377	0.23
678.785	0.23
679.193	0.22
679.601	0.22
680.009	0.22
680.417	0.22
680.825	0.21
681.233	0.21
681.641	0.21
682.048	0.21
682.456	0.2
682.864	0.2
683.271	0.2
683.679	0.2
684.086	0.19
684.493	0.19
684.901	0.19
685.308	0.19
685.715	0.19
686.122	0.18
686.529	0.18
686.936	0.18
687.343	0.18
687.75	0.18
688.157	0.18
688.564	0.17
688.971	0.17
689.378	0.17
689.784	0.17
690.191	0.17
690.597	0.16
691.004	0.16
691.41	0.16
691.817	0.16
692.223	0.16
692.629	0.16
693.035	0.16
693.442	0.15
693.848	0.15
694.254	0.15
694.66	0.15
695.066	0.15
695.471	0.15
695.877	0.15
696.283	0.14
696.689	0.14
697.094	0.14
697.5	0.14
697.906	0.14
698.311	0.14
698.716	0.14
699.122	0.14
699.527	0.13
699.932	0.13
700.338	0.13
700.743	0.13
701.148	0.13
701.553	0.13
701.958	0.13
702.363	0.13
702.768	0.13
703.173	0.13
703.577	0.13
703.982	0.12
704.387	0.12
704.791	0.12
705.196	0.12
705.6	0.12
706.005	0.12
706.409	0.12
706.814	0.12
707.218	0.12
707.622	0.12
708.026	0.12
708.43	0.12
708.834	0.12
709.238	0.12
709.642	0.12
710.046	0.12
710.45	0.12
710.854	0.12
711.257	0.12
711.661	0.12
712.065	0.12
712.468	0.12
712.872	0.11
713.275	0.12
713.679	0.11
714.082	0.11
714.485	0.11
714.888	0.11
715.291	0.12
715.695	0.11
716.098	0.11
716.501	0.11
716.904	0.11
717.306	0.11
717.709	0.12
718.112	0.11
718.515	0.11
718.917	0.11
719.32	0.11
719.723	0.11
720.125	0.11
720.527	0.11
720.93	0.11
721.332	0.11
721.734	0.11
722.137	0.11
722.539	0.11
722.941	0.11
723.343	0.11
723.745	0.11
724.147	0.11
724.549	0.11
724.95	0.11
725.352	0.11
725.754	0.11
726.156	0.11
726.557	0.11
726.959	0.11
727.36	0.11
727.762	0.11
728.163	0.11
728.564	0.11
728.966	0.11
729.367	0.11
729.768	0.11
730.169	0.11
730.57	0.11
730.971	0.11
731.372	0.11
731.773	0.11
732.174	0.11
732.574	0.11
732.975	0.11
733.376	0.11
733.776	0.11
734.177	0.11
734.577	0.11
734.978	0.11
735.378	0.11
735.778	0.11
736.179	0.1
736.579	0.1
736.979	0.1
737.379	0.1
737.779	0.1
738.179	0.1
738.579	0.1
738.979	0.1
739.379	0.1
739.778	0.1
740.178	0.1
740.578	0.1
740.977	0.1
741.377	0.1
741.776	0.1
742.176	0.1
742.575	0.1
742.974	0.1
743.374	0.1
743.773	0.1
744.172	0.09
744.571	0.1
744.97	0.1
745.369	0.1
745.768	0.1
746.167	0.09
746.565	0.09
746.964	0.1
747.363	0.09
747.761	0.09
748.16	0.09
748.559	0.09
748.957	0.09
749.355	0.09
749.754	0.09
750.152	0.09
750.55	0.09
750.948	0.09
751.347	0.09
751.745	0.09
752.143	0.09
752.541	0.09
752.938	0.09
753.336	0.09
753.734	0.09
754.132	0.09
754.529	0.09
754.927	0.09
755.325	0.09
755.722	0.09
756.119	0.09
756.517	0.09
756.914	0.08
757.311	0.09
757.709	0.08
758.106	0.09
758.503	0.09
758.9	0.08
759.297	0.09
759.694	0.09
760.091	0.09
760.488	0.09
760.884	0.09
761.281	0.09
761.678	0.09
762.074	0.09
762.471	0.09
762.867	0.09
763.264	0.09
763.66	0.09
764.056	0.09
764.453	0.09
764.849	0.09
765.245	0.09
765.641	0.09
766.037	0.09
766.433	0.09
766.829	0.09
767.225	0.09
767.621	0.09
768.016	0.09
768.412	0.09
768.808	0.09
769.203	0.09
769.599	0.09
769.994	0.09
770.389	0.09
770.785	0.09
771.18	0.09
771.575	0.09
771.971	0.09
772.366	0.09
772.761	0.09
773.156	0.09
773.551	0.09
773.945	0.1
774.34	0.1
774.735	0.09
775.13	0.09
775.524	0.1
775.919	0.09
776.314	0.1
776.708	0.09
777.103	0.1
777.497	0.1
777.891	0.1
778.285	0.1
778.68	0.1
779.074	0.1
779.468	0.1
779.862	0.1
780.256	0.1
780.65	0.1
781.044	0.1
781.438	0.1
781.831	0.1
782.225	0.1
782.619	0.1
783.012	0.1
783.406	0.1
783.799	0.1
784.193	0.1
784.586	0.11
784.979	0.11
785.372	0.11
785.766	0.11
786.159	0.11
786.552	0.11
786.945	0.11
787.338	0.11
787.731	0.11
788.123	0.11
788.516	0.11
788.909	0.11
789.302	0.11
789.694	0.11
790.087	0.12
790.479	0.12
790.872	0.11
791.264	0.12
791.656	0.12
792.049	0.12
792.441	0.12
792.833	0.12
793.225	0.12
793.617	0.12
794.009	0.12
794.401	0.12
794.793	0.12
795.185	0.12
795.576	0.12
795.968	0.12
796.36	0.13
796.751	0.12
797.143	0.13
797.534	0.13
797.926	0.13
798.317	0.13
798.708	0.13
799.1	0.13
799.491	0.13
799.882	0.13
800.273	0.13
800.664	0.13
801.055	0.13
801.446	0.14
801.837	0.14
802.227	0.14
802.618	0.14
803.009	0.14
803.399	0.14
803.79	0.14
804.18	0.14
804.571	0.14
804.961	0.14
805.351	0.14
805.742	0.14
806.132	0.14
806.522	0.14
806.912	0.15
807.302	0.15
807.692	0.15
808.082	0.15
808.472	0.15
808.862	0.15
809.251	0.15
809.641	0.15
810.031	0.15
810.42	0.15
810.81	0.15
811.199	0.15
811.589	0.16
811.978	0.16
812.367	0.16
812.756	0.16
813.146	0.16
813.535	0.16
813.924	0.16
814.313	0.16
814.702	0.16
815.091	0.16
815.479	0.16
815.868	0.16
816.257	0.17
816.645	0.17
817.034	0.17
817.423	0.17
817.811	0.17
818.199	0.17
818.588	0.17
818.976	0.17
819.364	0.17
819.753	0.17
820.141	0.17
820.529	0.18
820.917	0.18
821.305	0.18
821.693	0.18
822.08	0.18
822.468	0.18
822.856	0.18
823.244	0.18
823.631	0.18
824.019	0.18
824.406	0.18
824.794	0.18
825.181	0.19
825.568	0.19
825.956	0.19
826.343	0.19
826.73	0.19
827.117	0.19
827.504	0.19
827.891	0.19
828.278	0.19
828.665	0.19
829.052	0.2
829.438	0.2
829.825	0.2
830.212	0.2
830.598	0.2
830.985	0.2
831.371	0.2
831.757	0.2
832.144	0.2
832.53	0.21
832.916	0.21
833.302	0.21
833.688	0.21
834.075	0.21
834.461	0.21
834.846	0.21
835.232	0.21
835.618	0.21
836.004	0.21
836.39	0.22
836.775	0.22
837.161	0.22
837.546	0.22
837.932	0.22
838.317	0.22
838.702	0.22
839.088	0.22
839.473	0.22
839.858	0.22
840.243	0.23
840.628	0.23
841.013	0.23
841.398	0.23
841.783	0.23
842.168	0.23
842.553	0.23
842.937	0.23
843.322	0.23
843.707	0.23
844.091	0.23
844.476	0.24
844.86	0.24
845.244	0.24
845.629	0.24
846.013	0.24
846.397	0.24
846.781	0.24
847.165	0.24
847.549	0.25
847.933	0.24
848.317	0.25
848.701	0.24
849.085	0.25
849.468	0.25
849.852	0.25
850.236	0.25
850.619	0.25
851.003	0.25
851.386	0.25
851.769	0.25
852.153	0.26
852.536	0.26
852.919	0.26
853.302	0.26
853.685	0.26
854.068	0.26
854.451	0.26
854.834	0.26
855.217	0.26
855.6	0.26
855.982	0.27
856.365	0.27
856.748	0.27
857.13	0.27
857.513	0.27
857.895	0.27
858.277	0.27
858.66	0.27
859.042	0.27
859.424	0.28
859.806	0.28
860.188	0.28
860.57	0.28
860.952	0.28
861.334	0.28
861.716	0.28
862.098	0.28
862.48	0.28
862.861	0.28
863.243	0.28
863.624	0.29
864.006	0.28
864.387	0.29
864.769	0.29
865.15	0.29
865.531	0.29
865.912	0.29
866.294	0.29
866.675	0.29
867.056	0.29
867.437	0.29
867.818	0.3
868.198	0.3
868.579	0.3
868.96	0.3
869.341	0.3
869.721	0.3
870.102	0.3
870.482	0.3
870.863	0.3
871.243	0.31
871.623	0.31
872.003	0.3
872.384	0.3
872.764	0.31
873.144	0.31
873.524	0.31
873.904	0.31
874.284	0.31
874.664	0.31
875.043	0.31
875.423	0.31
875.803	0.31
876.182	0.32
876.562	0.32
876.941	0.32
877.321	0.32
877.7	0.32
878.079	0.32
878.459	0.32
878.838	0.32
879.217	0.32
879.596	0.32
879.975	0.33
880.354	0.33
880.733	0.33
881.112	0.33
881.491	0.33
881.869	0.33
882.248	0.33
882.627	0.33
883.005	0.33
883.384	0.33
883.762	0.33
884.14	0.33
884.519	0.34
884.897	0.33
885.275	0.34
885.653	0.34
886.031	0.34
886.409	0.33
886.787	0.34
887.165	0.34
887.543	0.34
887.921	0.34
888.298	0.34
888.676	0.34
889.054	0.34
889.431	0.35
889.809	0.34
890.186	0.34
890.563	0.34
890.941	0.34
891.318	0.34
891.695	0.35
892.072	0.35
892.449	0.35
892.826	0.35
893.203	0.35
893.58	0.35
893.957	0.35
894.334	0.35
894.71	0.35
895.087	0.35
895.464	0.35
895.84	0.36
896.217	0.35
896.593	0.36
896.969	0.35
897.346	0.36
897.722	0.35
898.098	0.35
898.474	0.36
898.85	0.36
899.226	0.36
899.602	0.36
899.978	0.36
900.354	0.36
900.73	0.36
901.105	0.36
901.481	0.36
901.857	0.36
902.232	0.36
902.608	0.36
902.983	0.36
903.358	0.36
903.734	0.37
904.109	0.36
904.484	0.37
904.859	0.37
905.234	0.37
905.609	0.37
905.984	0.37
906.359	0.37
906.734	0.37
907.108	0.37
907.483	0.37
907.858	0.37
908.232	0.37
908.607	0.37
908.981	0.37
909.356	0.37
909.73	0.37
910.104	0.37
910.478	0.37
910.853	0.38
911.227	0.37
911.601	0.37
911.975	0.38
912.349	0.38
912.722	0.37
913.096	0.38
913.47	0.37
913.844	0.37
914.217	0.38
914.591	0.38
914.964	0.38
915.338	0.38
915.711	0.38
916.084	0.38
916.458	0.38
916.831	0.38
917.204	0.38
917.577	0.38
917.95	0.38
918.323	0.38
918.696	0.38
919.069	0.38
919.441	0.38
919.814	0.38
920.187	0.38
920.559	0.38
920.932	0.38
921.304	0.38
921.677	0.38
922.049	0.38
922.421	0.38
922.794	0.38
923.166	0.38
923.538	0.38
923.91	0.39
924.282	0.38
924.654	0.38
925.026	0.38
925.398	0.38
925.769	0.38
926.141	0.38
926.513	0.38
926.884	0.38
927.256	0.38
927.627	0.39
927.999	0.38
928.37	0.39
928.741	0.38
929.113	0.38
929.484	0.39
929.855	0.39
930.226	0.39
930.597	0.38
930.968	0.39
931.339	0.39
931.709	0.39
932.08	0.39
932.451	0.38
932.821	0.39
933.192	0.39
933.562	0.39
933.933	0.39
934.303	0.39
934.673	0.38
935.044	0.39
935.414	0.39
935.784	0.39
936.154	0.39
936.524	0.39
936.894	0.39
937.264	0.39
937.634	0.39
938.004	0.39
938.373	0.39
938.743	0.39
939.113	0.39
939.482	0.39
939.852	0.39
940.221	0.39
940.59	0.39
940.96	0.39
941.329	0.39
941.698	0.39
942.067	0.39
942.436	0.39
942.805	0.39
943.174	0.39
943.543	0.39
943.912	0.38
944.28	0.39
944.649	0.39
945.018	0.39
945.386	0.39
945.755	0.39
946.123	0.39
946.492	0.39
946.86	0.39
947.228	0.39
947.596	0.39
947.965	0.39
948.333	0.39
948.701	0.39
949.069	0.39
949.437	0.39
949.804	0.39
950.172	0.39
950.54	0.39
950.908	0.38
951.275	0.39
951.643	0.39
952.01	0.39
952.378	0.39
952.745	0.39
953.112	0.39
953.479	0.39
953.847	0.39
954.214	0.39
954.581	0.39
954.948	0.39
955.315	0.39
955.682	0.39
956.048	0.39
956.415	0.39
956.782	0.39
957.148	0.38
957.515	0.38
957.881	0.38
958.248	0.38
958.614	0.39
958.981	0.38
959.347	0.38
959.713	0.39
960.079	0.38
960.445	0.38
960.811	0.38
961.177	0.39
961.543	0.38
961.909	0.38
962.275	0.38
962.641	0.38
963.006	0.38
963.372	0.38
963.737	0.38
964.103	0.38
964.468	0.38
964.834	0.38
965.199	0.38
965.564	0.38
965.929	0.38
966.294	0.38
966.659	0.38
967.024	0.38
967.389	0.38
967.754	0.38
968.119	0.38
968.484	0.38
968.848	0.38
969.213	0.38
969.578	0.38
969.942	0.38
970.307	0.38
970.671	0.38
971.035	0.38
971.399	0.38
971.764	0.38
972.128	0.37
972.492	0.38
972.856	0.37
973.22	0.37
973.584	0.37
973.948	0.38
974.311	0.37
974.675	0.38
975.039	0.37
975.402	0.37
975.766	0.37
976.129	0.37
976.493	0.38
976.856	0.38
977.219	0.37
977.582	0.37
977.946	0.37
978.309	0.37
978.672	0.38
979.035	0.37
979.398	0.37
979.761	0.37
980.123	0.37
980.486	0.37
980.849	0.37
981.211	0.37
981.574	0.37
981.936	0.37
982.299	0.37
982.661	0.37
983.023	0.37
983.386	0.37
983.748	0.37
984.11	0.36
984.472	0.37
984.834	0.36
985.196	0.36
985.558	0.36
985.92	0.36
986.281	0.36
986.643	0.37
987.005	0.37
987.366	0.36
987.728	0.36
988.089	0.36
988.451	0.37
988.812	0.36
989.173	0.36
989.534	0.36
989.895	0.36
990.257	0.36
990.618	0.36
990.979	0.36
991.339	0.36
991.7	0.36
992.061	0.36
992.422	0.35
992.782	0.36
993.143	0.35
993.503	0.36
993.864	0.36
994.224	0.36
994.585	0.35
994.945	0.35
995.305	0.35
995.665	0.35
996.025	0.36
996.385	0.35
996.745	0.35
997.105	0.35
997.465	0.35
997.825	0.35
998.185	0.35
998.544	0.35
998.904	0.35
999.263	0.35
999.623	0.35
999.982	0.35
1000.342	0.34
1000.701	0.35
1001.06	0.35
1001.419	0.34
1001.778	0.35
1002.138	0.35
1002.497	0.35
1002.855	0.34
1003.214	0.35
1003.573	0.34
1003.932	0.35
1004.29	0.34
1004.649	0.35
1005.008	0.35
1005.366	0.35
1005.725	0.34
1006.083	0.34
1006.441	0.34
1006.799	0.34
1007.158	0.34
1007.516	0.33
1007.874	0.33
1008.232	0.34
1008.59	0.34
1008.948	0.34
1009.305	0.34
1009.663	0.33
1010.021	0.34
1010.379	0.33
1010.736	0.34
1011.094	0.33
1011.451	0.34
1011.808	0.33
1012.166	0.33
1012.523	0.33
1012.88	0.33
1013.237	0.33
1013.594	0.33
1013.951	0.32
1014.308	0.33
1014.665	0.33
1015.022	0.34
1015.379	0.32
1015.735	0.33
1016.092	0.33
1016.449	0.33
1016.805	0.33
1017.162	0.32
1017.518	0.33
1017.874	0.33
1018.231	0.32
1018.587	0.33
1018.943	0.33
1019.299	0.33
1019.655	0.32
1020.011	0.32
1020.367	0.33
1020.723	0.33
1021.078	0.32
1021.434	0.32
1021.79	0.33
1022.145	0.33
1022.501	0.32
1022.856	0.32
1023.212	0.32
1023.567	0.32
1023.922	0.32
1024.278	0.32
1024.633	0.32
1024.988	0.31
1025.343	0.32
1025.698	0.31
1026.053	0.31
1026.408	0.31
1026.762	0.32
1027.117	0.31
1027.472	0.31
1027.826	0.31
1028.181	0.31
1028.535	0.31
1028.89	0.31
1029.244	0.31
1029.598	0.31
1029.952	0.32
1030.307	0.31
1030.661	0.31
1031.015	0.3
1031.369	0.31
1031.723	0.31
1032.076	0.3
