Data from Rubpy_BV_EDTA_TU(3000)_Blank_Blue_Flow_Absorbance__1069__13-04-31-889.txt Node

Date: Mon Aug 03 13:04:31 BST 2026
User: fpm-admin
Spectrometer: SR600986
Trigger mode: 0
Integration Time (sec): 8.000000E-3
Scans to average: 3
Nonlinearity correction enabled: true
Boxcar width: 0
Storing dark spectrum: false
XAxis mode: Wavelengths
Number of Pixels in Spectrum: 2048
>>>>>Begin Spectral Data<<<<<
188.613	0.18
189.078	0.21
189.542	0.22
190.007	0.22
190.472	0.21
190.936	0.21
191.401	0.2
191.865	0.22
192.33	0.21
192.794	0.2
193.258	0.2
193.723	0.19
194.187	0.23
194.651	0.2
195.115	0.2
195.579	0.23
196.043	0.2
196.507	0.2
196.971	0.21
197.435	0.2
197.899	0.19
198.363	0.2
198.827	0.22
199.29	0.2
199.754	0.2
200.218	0.21
200.681	0.2
201.145	0.2
201.608	0.2
202.072	0.21
202.535	0.2
202.998	0.22
203.462	0.21
203.925	0.21
204.388	0.19
204.851	0.21
205.314	0.22
205.777	0.19
206.24	0.2
206.703	0.22
207.166	0.2
207.629	0.2
208.092	0.21
208.555	0.21
209.018	0.2
209.48	0.19
209.943	0.21
210.406	0.21
210.868	0.18
211.331	0.2
211.793	0.21
212.256	0.22
212.718	0.2
213.18	0.22
213.643	0.2
214.105	0.21
214.567	0.21
215.029	0.22
215.491	0.2
215.953	0.21
216.415	0.18
216.877	0.21
217.339	0.2
217.801	0.2
218.263	0.21
218.725	0.22
219.186	0.22
219.648	0.2
220.11	0.18
220.571	0.21
221.033	0.19
221.494	0.23
221.956	0.21
222.417	0.21
222.878	0.21
223.34	0.2
223.801	0.21
224.262	0.21
224.723	0.19
225.185	0.19
225.646	0.18
226.107	0.21
226.568	0.2
227.029	0.21
227.489	0.21
227.95	0.21
228.411	0.2
228.872	0.2
229.332	0.19
229.793	0.19
230.254	0.2
230.714	0.2
231.175	0.21
231.635	0.2
232.096	0.21
232.556	0.2
233.016	0.18
233.477	0.21
233.937	0.2
234.397	0.19
234.857	0.22
235.317	0.21
235.777	0.21
236.237	0.2
236.697	0.19
237.157	0.2
237.617	0.19
238.077	0.21
238.537	0.2
238.996	0.23
239.456	0.2
239.916	0.2
240.375	0.2
240.835	0.2
241.294	0.21
241.754	0.2
242.213	0.21
242.672	0.22
243.132	0.18
243.591	0.21
244.05	0.18
244.509	0.2
244.968	0.22
245.427	0.2
245.886	0.19
246.345	0.2
246.804	0.2
247.263	0.21
247.722	0.21
248.181	0.19
248.639	0.2
249.098	0.19
249.557	0.22
250.015	0.18
250.474	0.21
250.932	0.22
251.391	0.17
251.849	0.21
252.308	0.21
252.766	0.2
253.224	0.23
253.682	0.21
254.14	0.19
254.599	0.21
255.057	0.19
255.515	0.2
255.973	0.22
256.431	0.21
256.888	0.19
257.346	0.19
257.804	0.21
258.262	0.2
258.719	0.23
259.177	0.21
259.635	0.22
260.092	0.2
260.55	0.21
261.007	0.21
261.465	0.22
261.922	0.23
262.379	0.21
262.836	0.24
263.294	0.21
263.751	0.24
264.208	0.22
264.665	0.19
265.122	0.21
265.579	0.2
266.036	0.22
266.493	0.2
266.95	0.2
267.406	0.21
267.863	0.19
268.32	0.2
268.777	0.22
269.233	0.21
269.69	0.22
270.146	0.22
270.603	0.22
271.059	0.22
271.515	0.2
271.972	0.22
272.428	0.18
272.884	0.2
273.34	0.2
273.796	0.21
274.253	0.21
274.709	0.19
275.165	0.2
275.62	0.21
276.076	0.19
276.532	0.22
276.988	0.2
277.444	0.19
277.899	0.19
278.355	0.21
278.811	0.2
279.266	0.22
279.722	0.2
280.177	0.22
280.633	0.2
281.088	0.2
281.543	0.21
281.998	0.2
282.454	0.21
282.909	0.23
283.364	0.21
283.819	0.22
284.274	0.21
284.729	0.21
285.184	0.2
285.639	0.19
286.094	0.24
286.548	0.2
287.003	0.22
287.458	0.21
287.913	0.21
288.367	0.23
288.822	0.19
289.276	0.21
289.731	0.2
290.185	0.2
290.639	0.2
291.094	0.2
291.548	0.22
292.002	0.22
292.456	0.22
292.91	0.23
293.365	0.23
293.819	0.22
294.273	0.2
294.726	0.2
295.18	0.2
295.634	0.21
296.088	0.21
296.542	0.22
296.995	0.21
297.449	0.19
297.903	0.22
298.356	0.2
298.81	0.2
299.263	0.22
299.716	0.22
300.17	0.21
300.623	0.2
301.076	0.22
301.53	0.22
301.983	0.22
302.436	0.2
302.889	0.22
303.342	0.23
303.795	0.21
304.248	0.22
304.701	0.2
305.153	0.23
305.606	0.22
306.059	0.22
306.512	0.22
306.964	0.22
307.417	0.22
307.869	0.21
308.322	0.23
308.774	0.21
309.227	0.23
309.679	0.21
310.131	0.22
310.584	0.22
311.036	0.21
311.488	0.23
311.94	0.23
312.392	0.21
312.844	0.2
313.296	0.21
313.748	0.22
314.2	0.23
314.652	0.22
315.103	0.23
315.555	0.24
316.007	0.25
316.458	0.23
316.91	0.24
317.361	0.23
317.813	0.24
318.264	0.23
318.716	0.25
319.167	0.25
319.618	0.25
320.07	0.26
320.521	0.25
320.972	0.27
321.423	0.27
321.874	0.26
322.325	0.27
322.776	0.28
323.227	0.29
323.678	0.29
324.128	0.3
324.579	0.3
325.03	0.31
325.48	0.34
325.931	0.32
326.382	0.33
326.832	0.36
327.283	0.36
327.733	0.37
328.183	0.39
328.634	0.42
329.084	0.43
329.534	0.42
329.984	0.45
330.434	0.45
330.884	0.46
331.334	0.49
331.784	0.49
332.234	0.51
332.684	0.52
333.134	0.52
333.584	0.54
334.034	0.55
334.483	0.57
334.933	0.59
335.382	0.59
335.832	0.61
336.281	0.61
336.731	0.63
337.18	0.65
337.63	0.65
338.079	0.68
338.528	0.68
338.977	0.72
339.426	0.72
339.876	0.73
340.325	0.76
340.774	0.75
341.223	0.78
341.671	0.79
342.12	0.81
342.569	0.82
343.018	0.84
343.467	0.84
343.915	0.87
344.364	0.88
344.812	0.89
345.261	0.9
345.709	0.91
346.158	0.93
346.606	0.93
347.054	0.95
347.503	0.95
347.951	0.97
348.399	0.99
348.847	0.99
349.295	0.99
349.743	1
350.191	1.01
350.639	1.03
351.087	1.03
351.535	1.06
351.983	1.07
352.43	1.06
352.878	1.07
353.326	1.09
353.773	1.11
354.221	1.12
354.668	1.11
355.116	1.14
355.563	1.14
356.01	1.15
356.458	1.18
356.905	1.2
357.352	1.2
357.799	1.22
358.246	1.23
358.693	1.24
359.14	1.24
359.587	1.25
360.034	1.28
360.481	1.28
360.928	1.29
361.375	1.31
361.821	1.33
362.268	1.36
362.714	1.35
363.161	1.38
363.608	1.39
364.054	1.39
364.5	1.39
364.947	1.39
365.393	1.41
365.839	1.42
366.285	1.42
366.732	1.44
367.178	1.44
367.624	1.44
368.07	1.45
368.516	1.45
368.962	1.44
369.408	1.46
369.853	1.44
370.299	1.45
370.745	1.44
371.19	1.45
371.636	1.45
372.082	1.44
372.527	1.43
372.973	1.44
373.418	1.42
373.863	1.44
374.309	1.41
374.754	1.42
375.199	1.41
375.644	1.39
376.09	1.38
376.535	1.35
376.98	1.36
377.425	1.34
377.87	1.32
378.314	1.31
378.759	1.29
379.204	1.27
379.649	1.25
380.093	1.23
380.538	1.21
380.983	1.18
381.427	1.16
381.872	1.13
382.316	1.12
382.76	1.1
383.205	1.07
383.649	1.04
384.093	1.03
384.537	1
384.982	0.99
385.426	0.95
385.87	0.94
386.314	0.91
386.758	0.9
387.201	0.87
387.645	0.85
388.089	0.84
388.533	0.82
388.976	0.8
389.42	0.79
389.864	0.76
390.307	0.75
390.751	0.73
391.194	0.72
391.638	0.7
392.081	0.69
392.524	0.68
392.967	0.66
393.411	0.65
393.854	0.64
394.297	0.64
394.74	0.62
395.183	0.62
395.626	0.62
396.069	0.61
396.512	0.61
396.954	0.62
397.397	0.61
397.84	0.61
398.282	0.61
398.725	0.61
399.168	0.61
399.61	0.61
400.052	0.6
400.495	0.59
400.937	0.59
401.38	0.57
401.822	0.57
402.264	0.56
402.706	0.54
403.148	0.53
403.59	0.51
404.032	0.49
404.474	0.48
404.916	0.45
405.358	0.44
405.8	0.42
406.241	0.42
406.683	0.4
407.125	0.37
407.566	0.36
408.008	0.34
408.449	0.33
408.891	0.33
409.332	0.32
409.774	0.3
410.215	0.28
410.656	0.28
411.097	0.27
411.539	0.25
411.98	0.25
412.421	0.24
412.862	0.24
413.303	0.22
413.744	0.23
414.184	0.21
414.625	0.21
415.066	0.2
415.507	0.2
415.947	0.21
416.388	0.2
416.828	0.19
417.269	0.19
417.709	0.18
418.15	0.18
418.59	0.18
419.03	0.17
419.471	0.18
419.911	0.17
420.351	0.18
420.791	0.17
421.231	0.18
421.671	0.16
422.111	0.17
422.551	0.17
422.991	0.16
423.431	0.16
423.87	0.16
424.31	0.16
424.75	0.18
425.189	0.18
425.629	0.16
426.068	0.17
426.508	0.16
426.947	0.17
427.386	0.17
427.826	0.17
428.265	0.16
428.704	0.16
429.143	0.16
429.582	0.16
430.021	0.18
430.46	0.16
430.899	0.16
431.338	0.18
431.777	0.16
432.216	0.17
432.655	0.16
433.093	0.16
433.532	0.17
433.971	0.15
434.409	0.16
434.848	0.17
435.286	0.18
435.724	0.18
436.163	0.17
436.601	0.18
437.039	0.18
437.477	0.17
437.916	0.18
438.354	0.2
438.792	0.17
439.23	0.16
439.668	0.19
440.105	0.17
440.543	0.18
440.981	0.19
441.419	0.18
441.856	0.19
442.294	0.18
442.732	0.18
443.169	0.2
443.607	0.19
444.044	0.18
444.481	0.2
444.919	0.18
445.356	0.19
445.793	0.2
446.23	0.2
446.668	0.19
447.105	0.22
447.542	0.21
447.979	0.21
448.416	0.2
448.852	0.19
449.289	0.2
449.726	0.21
450.163	0.21
450.599	0.2
451.036	0.2
451.473	0.21
451.909	0.22
452.346	0.2
452.782	0.21
453.218	0.19
453.655	0.23
454.091	0.22
454.527	0.22
454.963	0.22
455.399	0.2
455.835	0.23
456.271	0.21
456.707	0.2
457.143	0.2
457.579	0.22
458.015	0.21
458.451	0.24
458.886	0.23
459.322	0.24
459.758	0.23
460.193	0.23
460.629	0.23
461.064	0.22
461.5	0.25
461.935	0.24
462.37	0.24
462.805	0.23
463.241	0.24
463.676	0.24
464.111	0.25
464.546	0.24
464.981	0.24
465.416	0.26
465.851	0.26
466.286	0.25
466.72	0.26
467.155	0.27
467.59	0.27
468.024	0.27
468.459	0.28
468.893	0.28
469.328	0.28
469.762	0.3
470.197	0.28
470.631	0.3
471.065	0.3
471.5	0.31
471.934	0.31
472.368	0.32
472.802	0.34
473.236	0.33
473.67	0.34
474.104	0.34
474.538	0.34
474.972	0.35
475.405	0.36
475.839	0.36
476.273	0.36
476.706	0.36
477.14	0.38
477.573	0.38
478.007	0.38
478.44	0.39
478.874	0.39
479.307	0.41
479.74	0.4
480.173	0.41
480.606	0.42
481.04	0.42
481.473	0.43
481.906	0.43
482.339	0.43
482.771	0.44
483.204	0.44
483.637	0.46
484.07	0.46
484.502	0.47
484.935	0.47
485.368	0.48
485.8	0.48
486.233	0.49
486.665	0.48
487.098	0.49
487.53	0.5
487.962	0.5
488.394	0.5
488.827	0.51
489.259	0.52
489.691	0.52
490.123	0.52
490.555	0.53
490.987	0.53
491.418	0.53
491.85	0.54
492.282	0.55
492.714	0.55
493.145	0.55
493.577	0.56
494.009	0.56
494.44	0.57
494.872	0.58
495.303	0.58
495.734	0.58
496.166	0.59
496.597	0.59
497.028	0.59
497.459	0.6
497.89	0.61
498.321	0.61
498.752	0.61
499.183	0.62
499.614	0.63
500.045	0.63
500.476	0.63
500.906	0.64
501.337	0.65
501.768	0.65
502.198	0.65
502.629	0.66
503.059	0.66
503.49	0.66
503.92	0.66
504.35	0.67
504.781	0.68
505.211	0.68
505.641	0.68
506.071	0.69
506.501	0.7
506.931	0.7
507.361	0.7
507.791	0.71
508.221	0.71
508.651	0.71
509.081	0.71
509.51	0.72
509.94	0.72
510.37	0.73
510.799	0.73
511.229	0.73
511.658	0.73
512.087	0.74
512.517	0.74
512.946	0.75
513.375	0.75
513.804	0.76
514.234	0.76
514.663	0.76
515.092	0.76
515.521	0.76
515.95	0.77
516.378	0.77
516.807	0.78
517.236	0.78
517.665	0.78
518.093	0.78
518.522	0.78
518.951	0.79
519.379	0.79
519.807	0.79
520.236	0.79
520.664	0.8
521.093	0.8
521.521	0.81
521.949	0.8
522.377	0.81
522.805	0.8
523.233	0.81
523.661	0.81
524.089	0.81
524.517	0.82
524.945	0.82
525.373	0.81
525.8	0.83
526.228	0.83
526.656	0.83
527.083	0.83
527.511	0.83
527.938	0.83
528.366	0.83
528.793	0.83
529.22	0.84
529.648	0.84
530.075	0.83
530.502	0.84
530.929	0.85
531.356	0.84
531.783	0.84
532.21	0.84
532.637	0.85
533.064	0.85
533.49	0.84
533.917	0.86
534.344	0.85
534.771	0.85
535.197	0.85
535.624	0.84
536.05	0.85
536.477	0.85
536.903	0.85
537.329	0.84
537.755	0.86
538.182	0.85
538.608	0.85
539.034	0.85
539.46	0.84
539.886	0.85
540.312	0.85
540.738	0.85
541.164	0.85
541.589	0.86
542.015	0.85
542.441	0.85
542.867	0.85
543.292	0.85
543.718	0.84
544.143	0.85
544.569	0.85
544.994	0.85
545.419	0.85
545.845	0.84
546.27	0.85
546.695	0.84
547.12	0.83
547.545	0.84
547.97	0.84
548.395	0.84
548.82	0.83
549.245	0.83
549.67	0.83
550.094	0.83
550.519	0.83
550.944	0.83
551.368	0.83
551.793	0.83
552.217	0.83
552.642	0.83
553.066	0.82
553.49	0.82
553.915	0.82
554.339	0.82
554.763	0.81
555.187	0.82
555.611	0.82
556.035	0.81
556.459	0.81
556.883	0.8
557.307	0.81
557.731	0.8
558.154	0.8
558.578	0.8
559.002	0.8
559.425	0.8
559.849	0.79
560.272	0.79
560.696	0.79
561.119	0.79
561.543	0.78
561.966	0.78
562.389	0.78
562.812	0.78
563.235	0.77
563.658	0.77
564.081	0.77
564.504	0.77
564.927	0.76
565.35	0.76
565.773	0.76
566.196	0.75
566.618	0.76
567.041	0.76
567.463	0.75
567.886	0.75
568.309	0.75
568.731	0.74
569.153	0.74
569.576	0.74
569.998	0.74
570.42	0.73
570.842	0.73
571.264	0.73
571.686	0.72
572.108	0.72
572.53	0.72
572.952	0.72
573.374	0.72
573.796	0.71
574.218	0.71
574.639	0.71
575.061	0.71
575.483	0.7
575.904	0.7
576.326	0.7
576.747	0.69
577.168	0.69
577.59	0.69
578.011	0.68
578.432	0.68
578.853	0.68
579.274	0.68
579.695	0.67
580.116	0.67
580.537	0.67
580.958	0.67
581.379	0.66
581.8	0.66
582.221	0.66
582.641	0.66
583.062	0.65
583.482	0.65
583.903	0.65
584.323	0.65
584.744	0.64
585.164	0.64
585.584	0.64
586.005	0.64
586.425	0.63
586.845	0.63
587.265	0.63
587.685	0.63
588.105	0.62
588.525	0.62
588.945	0.62
589.365	0.62
589.785	0.62
590.204	0.61
590.624	0.61
591.044	0.61
591.463	0.61
591.883	0.6
592.302	0.6
592.721	0.6
593.141	0.6
593.56	0.6
593.979	0.59
594.399	0.59
594.818	0.59
595.237	0.59
595.656	0.59
596.075	0.59
596.494	0.58
596.913	0.58
597.331	0.58
597.75	0.58
598.169	0.57
598.587	0.57
599.006	0.57
599.425	0.57
599.843	0.56
600.262	0.56
600.68	0.56
601.098	0.56
601.517	0.55
601.935	0.55
602.353	0.55
602.771	0.55
603.189	0.55
603.607	0.54
604.025	0.54
604.443	0.54
604.861	0.54
605.279	0.53
605.696	0.53
606.114	0.53
606.532	0.53
606.949	0.53
607.367	0.52
607.784	0.52
608.202	0.52
608.619	0.52
609.036	0.51
609.454	0.51
609.871	0.51
610.288	0.5
610.705	0.5
611.122	0.5
611.539	0.5
611.956	0.5
612.373	0.5
612.79	0.49
613.207	0.49
613.623	0.48
614.04	0.48
614.457	0.48
614.873	0.48
615.29	0.47
615.706	0.47
616.122	0.47
616.539	0.47
616.955	0.47
617.371	0.46
617.788	0.46
618.204	0.46
618.62	0.46
619.036	0.45
619.452	0.45
619.868	0.45
620.284	0.45
620.699	0.44
621.115	0.44
621.531	0.44
621.946	0.43
622.362	0.43
622.778	0.43
623.193	0.43
623.608	0.43
624.024	0.42
624.439	0.42
624.854	0.42
625.27	0.41
625.685	0.41
626.1	0.41
626.515	0.41
626.93	0.41
627.345	0.4
627.76	0.4
628.175	0.39
628.589	0.39
629.004	0.39
629.419	0.39
629.833	0.39
630.248	0.38
630.663	0.38
631.077	0.38
631.491	0.38
631.906	0.37
632.32	0.37
632.734	0.37
633.148	0.37
633.563	0.36
633.977	0.36
634.391	0.35
634.805	0.35
635.219	0.35
635.632	0.35
636.046	0.35
636.46	0.34
636.874	0.34
637.287	0.33
637.701	0.34
638.115	0.33
638.528	0.33
638.941	0.33
639.355	0.33
639.768	0.32
640.181	0.32
640.595	0.31
641.008	0.32
641.421	0.31
641.834	0.31
642.247	0.31
642.66	0.3
643.073	0.3
643.486	0.3
643.898	0.3
644.311	0.3
644.724	0.29
645.136	0.29
645.549	0.29
645.961	0.29
646.374	0.29
646.786	0.28
647.199	0.28
647.611	0.28
648.023	0.28
648.435	0.28
648.847	0.28
649.26	0.27
649.672	0.27
650.084	0.27
650.495	0.27
650.907	0.27
651.319	0.26
651.731	0.26
652.143	0.26
652.554	0.25
652.966	0.25
653.377	0.26
653.789	0.25
654.2	0.25
654.612	0.25
655.023	0.26
655.434	0.24
655.845	0.22
656.256	0.24
656.668	0.25
657.079	0.24
657.49	0.24
657.901	0.24
658.311	0.23
658.722	0.23
659.133	0.23
659.544	0.23
659.954	0.23
660.365	0.23
660.775	0.22
661.186	0.23
661.596	0.22
662.007	0.22
662.417	0.22
662.827	0.22
663.238	0.22
663.648	0.22
664.058	0.21
664.468	0.21
664.878	0.21
665.288	0.21
665.698	0.21
666.108	0.21
666.517	0.2
666.927	0.2
667.337	0.2
667.746	0.2
668.156	0.2
668.565	0.19
668.975	0.2
669.384	0.19
669.794	0.19
670.203	0.19
670.612	0.19
671.021	0.19
671.43	0.18
671.84	0.18
672.249	0.18
672.658	0.18
673.066	0.18
673.475	0.18
673.884	0.17
674.293	0.18
674.702	0.17
675.11	0.17
675.519	0.17
675.927	0.17
676.336	0.16
676.744	0.16
677.152	0.16
677.561	0.16
677.969	0.16
678.377	0.16
678.785	0.16
679.193	0.15
679.601	0.15
680.009	0.15
680.417	0.15
680.825	0.15
681.233	0.15
681.641	0.15
682.048	0.14
682.456	0.14
682.864	0.14
683.271	0.14
683.679	0.14
684.086	0.13
684.493	0.13
684.901	0.13
685.308	0.13
685.715	0.13
686.122	0.13
686.529	0.13
686.936	0.13
687.343	0.13
687.75	0.12
688.157	0.12
688.564	0.12
688.971	0.12
689.378	0.12
689.784	0.12
690.191	0.12
690.597	0.11
691.004	0.11
691.41	0.11
691.817	0.11
692.223	0.11
692.629	0.11
693.035	0.11
693.442	0.11
693.848	0.11
694.254	0.1
694.66	0.1
695.066	0.1
695.471	0.1
695.877	0.1
696.283	0.1
696.689	0.1
697.094	0.1
697.5	0.1
697.906	0.09
698.311	0.1
698.716	0.09
699.122	0.09
699.527	0.09
699.932	0.09
700.338	0.09
700.743	0.09
701.148	0.09
701.553	0.09
701.958	0.09
702.363	0.09
702.768	0.09
703.173	0.09
703.577	0.09
703.982	0.08
704.387	0.09
704.791	0.08
705.196	0.09
705.6	0.08
706.005	0.08
706.409	0.08
706.814	0.08
707.218	0.08
707.622	0.08
708.026	0.08
708.43	0.08
708.834	0.08
709.238	0.08
709.642	0.08
710.046	0.08
710.45	0.08
710.854	0.08
711.257	0.08
711.661	0.08
712.065	0.08
712.468	0.08
712.872	0.08
713.275	0.08
713.679	0.08
714.082	0.08
714.485	0.08
714.888	0.08
715.291	0.08
715.695	0.08
716.098	0.08
716.501	0.08
716.904	0.08
717.306	0.08
717.709	0.08
718.112	0.08
718.515	0.08
718.917	0.08
719.32	0.08
719.723	0.08
720.125	0.08
720.527	0.08
720.93	0.08
721.332	0.08
721.734	0.08
722.137	0.08
722.539	0.08
722.941	0.08
723.343	0.08
723.745	0.08
724.147	0.08
724.549	0.08
724.95	0.08
725.352	0.08
725.754	0.08
726.156	0.08
726.557	0.07
726.959	0.08
727.36	0.08
727.762	0.08
728.163	0.08
728.564	0.08
728.966	0.08
729.367	0.08
729.768	0.08
730.169	0.07
730.57	0.07
730.971	0.07
731.372	0.07
731.773	0.08
732.174	0.07
732.574	0.07
732.975	0.07
733.376	0.07
733.776	0.08
734.177	0.07
734.577	0.07
734.978	0.07
735.378	0.07
735.778	0.07
736.179	0.07
736.579	0.07
736.979	0.07
737.379	0.07
737.779	0.07
738.179	0.07
738.579	0.07
738.979	0.07
739.379	0.07
739.778	0.07
740.178	0.07
740.578	0.07
740.977	0.07
741.377	0.07
741.776	0.07
742.176	0.07
742.575	0.07
742.974	0.07
743.374	0.07
743.773	0.07
744.172	0.06
744.571	0.07
744.97	0.06
745.369	0.06
745.768	0.07
746.167	0.07
746.565	0.07
746.964	0.06
747.363	0.06
747.761	0.06
748.16	0.06
748.559	0.06
748.957	0.06
749.355	0.06
749.754	0.06
750.152	0.06
750.55	0.06
750.948	0.06
751.347	0.06
751.745	0.06
752.143	0.06
752.541	0.06
752.938	0.06
753.336	0.06
753.734	0.06
754.132	0.06
754.529	0.06
754.927	0.06
755.325	0.06
755.722	0.06
756.119	0.06
756.517	0.06
756.914	0.06
757.311	0.06
757.709	0.06
758.106	0.06
758.503	0.06
758.9	0.06
759.297	0.06
759.694	0.06
760.091	0.06
760.488	0.06
760.884	0.06
761.281	0.06
761.678	0.06
762.074	0.06
762.471	0.06
762.867	0.06
763.264	0.06
763.66	0.06
764.056	0.06
764.453	0.06
764.849	0.06
765.245	0.06
765.641	0.06
766.037	0.06
766.433	0.06
766.829	0.06
767.225	0.06
767.621	0.06
768.016	0.06
768.412	0.06
768.808	0.06
769.203	0.06
769.599	0.06
769.994	0.06
770.389	0.06
770.785	0.06
771.18	0.06
771.575	0.06
771.971	0.06
772.366	0.06
772.761	0.06
773.156	0.06
773.551	0.06
773.945	0.06
774.34	0.06
774.735	0.06
775.13	0.06
775.524	0.06
775.919	0.06
776.314	0.06
776.708	0.06
777.103	0.06
777.497	0.06
777.891	0.07
778.285	0.07
778.68	0.06
779.074	0.07
779.468	0.07
779.862	0.07
780.256	0.07
780.65	0.06
781.044	0.07
781.438	0.07
781.831	0.07
782.225	0.07
782.619	0.07
783.012	0.07
783.406	0.07
783.799	0.07
784.193	0.07
784.586	0.07
784.979	0.07
785.372	0.07
785.766	0.07
786.159	0.07
786.552	0.07
786.945	0.07
787.338	0.07
787.731	0.07
788.123	0.07
788.516	0.07
788.909	0.07
789.302	0.07
789.694	0.07
790.087	0.08
790.479	0.08
790.872	0.08
791.264	0.08
791.656	0.08
792.049	0.08
792.441	0.08
792.833	0.08
793.225	0.08
793.617	0.08
794.009	0.08
794.401	0.08
794.793	0.08
795.185	0.08
795.576	0.08
795.968	0.08
796.36	0.08
796.751	0.08
797.143	0.08
797.534	0.08
797.926	0.08
798.317	0.09
798.708	0.08
799.1	0.09
799.491	0.08
799.882	0.09
800.273	0.09
800.664	0.09
801.055	0.09
801.446	0.09
801.837	0.09
802.227	0.09
802.618	0.09
803.009	0.09
803.399	0.09
803.79	0.09
804.18	0.09
804.571	0.09
804.961	0.09
805.351	0.09
805.742	0.09
806.132	0.09
806.522	0.1
806.912	0.1
807.302	0.1
807.692	0.1
808.082	0.1
808.472	0.1
808.862	0.1
809.251	0.1
809.641	0.1
810.031	0.1
810.42	0.1
810.81	0.1
811.199	0.1
811.589	0.1
811.978	0.11
812.367	0.1
812.756	0.1
813.146	0.1
813.535	0.11
813.924	0.11
814.313	0.11
814.702	0.11
815.091	0.11
815.479	0.11
815.868	0.11
816.257	0.11
816.645	0.11
817.034	0.11
817.423	0.11
817.811	0.11
818.199	0.11
818.588	0.11
818.976	0.11
819.364	0.12
819.753	0.12
820.141	0.12
820.529	0.12
820.917	0.12
821.305	0.12
821.693	0.12
822.08	0.12
822.468	0.12
822.856	0.12
823.244	0.12
823.631	0.12
824.019	0.12
824.406	0.12
824.794	0.12
825.181	0.13
825.568	0.13
825.956	0.13
826.343	0.13
826.73	0.13
827.117	0.13
827.504	0.13
827.891	0.13
828.278	0.13
828.665	0.13
829.052	0.13
829.438	0.13
829.825	0.13
830.212	0.13
830.598	0.13
830.985	0.14
831.371	0.14
831.757	0.13
832.144	0.14
832.53	0.14
832.916	0.14
833.302	0.14
833.688	0.14
834.075	0.14
834.461	0.14
834.846	0.14
835.232	0.14
835.618	0.14
836.004	0.14
836.39	0.15
836.775	0.14
837.161	0.15
837.546	0.14
837.932	0.15
838.317	0.15
838.702	0.15
839.088	0.15
839.473	0.15
839.858	0.15
840.243	0.15
840.628	0.15
841.013	0.15
841.398	0.15
841.783	0.15
842.168	0.15
842.553	0.15
842.937	0.16
843.322	0.15
843.707	0.15
844.091	0.16
844.476	0.16
844.86	0.16
845.244	0.16
845.629	0.16
846.013	0.16
846.397	0.16
846.781	0.16
847.165	0.16
847.549	0.16
847.933	0.16
848.317	0.16
848.701	0.16
849.085	0.16
849.468	0.17
849.852	0.17
850.236	0.17
850.619	0.17
851.003	0.17
851.386	0.17
851.769	0.17
852.153	0.17
852.536	0.17
852.919	0.17
853.302	0.17
853.685	0.17
854.068	0.17
854.451	0.17
854.834	0.18
855.217	0.17
855.6	0.17
855.982	0.18
856.365	0.18
856.748	0.18
857.13	0.18
857.513	0.18
857.895	0.18
858.277	0.18
858.66	0.18
859.042	0.18
859.424	0.19
859.806	0.18
860.188	0.19
860.57	0.18
860.952	0.19
861.334	0.19
861.716	0.19
862.098	0.19
862.48	0.19
862.861	0.19
863.243	0.19
863.624	0.19
864.006	0.19
864.387	0.19
864.769	0.19
865.15	0.19
865.531	0.19
865.912	0.19
866.294	0.2
866.675	0.19
867.056	0.19
867.437	0.2
867.818	0.2
868.198	0.19
868.579	0.2
868.96	0.2
869.341	0.2
869.721	0.2
870.102	0.2
870.482	0.2
870.863	0.2
871.243	0.2
871.623	0.2
872.003	0.2
872.384	0.2
872.764	0.2
873.144	0.21
873.524	0.21
873.904	0.21
874.284	0.21
874.664	0.21
875.043	0.21
875.423	0.21
875.803	0.21
876.182	0.21
876.562	0.21
876.941	0.21
877.321	0.21
877.7	0.21
878.079	0.21
878.459	0.21
878.838	0.22
879.217	0.21
879.596	0.22
879.975	0.22
880.354	0.22
880.733	0.22
881.112	0.22
881.491	0.22
881.869	0.22
882.248	0.22
882.627	0.22
883.005	0.22
883.384	0.22
883.762	0.22
884.14	0.22
884.519	0.22
884.897	0.22
885.275	0.22
885.653	0.22
886.031	0.22
886.409	0.22
886.787	0.22
887.165	0.23
887.543	0.22
887.921	0.23
888.298	0.23
888.676	0.23
889.054	0.23
889.431	0.23
889.809	0.23
890.186	0.23
890.563	0.23
890.941	0.23
891.318	0.23
891.695	0.23
892.072	0.23
892.449	0.23
892.826	0.23
893.203	0.23
893.58	0.23
893.957	0.24
894.334	0.23
894.71	0.23
895.087	0.23
895.464	0.23
895.84	0.23
896.217	0.24
896.593	0.24
896.969	0.24
897.346	0.24
897.722	0.23
898.098	0.24
898.474	0.24
898.85	0.24
899.226	0.24
899.602	0.24
899.978	0.24
900.354	0.23
900.73	0.24
901.105	0.24
901.481	0.24
901.857	0.24
902.232	0.24
902.608	0.24
902.983	0.24
903.358	0.24
903.734	0.24
904.109	0.24
904.484	0.24
904.859	0.24
905.234	0.24
905.609	0.24
905.984	0.24
906.359	0.24
906.734	0.25
907.108	0.25
907.483	0.24
907.858	0.24
908.232	0.25
908.607	0.25
908.981	0.24
909.356	0.25
909.73	0.24
910.104	0.25
910.478	0.25
910.853	0.25
911.227	0.25
911.601	0.25
911.975	0.25
912.349	0.25
912.722	0.25
913.096	0.25
913.47	0.25
913.844	0.25
914.217	0.25
914.591	0.25
914.964	0.25
915.338	0.25
915.711	0.25
916.084	0.25
916.458	0.25
916.831	0.25
917.204	0.25
917.577	0.25
917.95	0.25
918.323	0.25
918.696	0.25
919.069	0.25
919.441	0.25
919.814	0.25
920.187	0.25
920.559	0.25
920.932	0.25
921.304	0.25
921.677	0.25
922.049	0.25
922.421	0.25
922.794	0.25
923.166	0.25
923.538	0.25
923.91	0.26
924.282	0.25
924.654	0.25
925.026	0.25
925.398	0.25
925.769	0.26
926.141	0.26
926.513	0.25
926.884	0.26
927.256	0.25
927.627	0.25
927.999	0.25
928.37	0.25
928.741	0.25
929.113	0.25
929.484	0.25
929.855	0.26
930.226	0.25
930.597	0.25
930.968	0.25
931.339	0.26
931.709	0.25
932.08	0.25
932.451	0.26
932.821	0.25
933.192	0.26
933.562	0.26
933.933	0.26
934.303	0.26
934.673	0.25
935.044	0.25
935.414	0.26
935.784	0.26
936.154	0.26
936.524	0.25
936.894	0.26
937.264	0.25
937.634	0.26
938.004	0.26
938.373	0.26
938.743	0.26
939.113	0.26
939.482	0.26
939.852	0.25
940.221	0.26
940.59	0.25
940.96	0.25
941.329	0.25
941.698	0.25
942.067	0.26
942.436	0.25
942.805	0.26
943.174	0.26
943.543	0.26
943.912	0.26
944.28	0.25
944.649	0.25
945.018	0.25
945.386	0.25
945.755	0.26
946.123	0.26
946.492	0.26
946.86	0.26
947.228	0.26
947.596	0.26
947.965	0.26
948.333	0.26
948.701	0.25
949.069	0.26
949.437	0.25
949.804	0.26
950.172	0.26
950.54	0.25
950.908	0.25
951.275	0.25
951.643	0.25
952.01	0.26
952.378	0.26
952.745	0.26
953.112	0.25
953.479	0.26
953.847	0.25
954.214	0.26
954.581	0.25
954.948	0.26
955.315	0.25
955.682	0.25
956.048	0.25
956.415	0.25
956.782	0.25
957.148	0.25
957.515	0.25
957.881	0.25
958.248	0.25
958.614	0.25
958.981	0.25
959.347	0.25
959.713	0.25
960.079	0.25
960.445	0.25
960.811	0.25
961.177	0.25
961.543	0.25
961.909	0.25
962.275	0.25
962.641	0.25
963.006	0.25
963.372	0.25
963.737	0.25
964.103	0.25
964.468	0.25
964.834	0.25
965.199	0.25
965.564	0.25
965.929	0.24
966.294	0.25
966.659	0.25
967.024	0.25
967.389	0.24
967.754	0.24
968.119	0.25
968.484	0.25
968.848	0.25
969.213	0.25
969.578	0.25
969.942	0.25
970.307	0.24
970.671	0.25
971.035	0.25
971.399	0.25
971.764	0.24
972.128	0.24
972.492	0.25
972.856	0.24
973.22	0.24
973.584	0.24
973.948	0.25
974.311	0.24
974.675	0.25
975.039	0.24
975.402	0.25
975.766	0.24
976.129	0.24
976.493	0.25
976.856	0.24
977.219	0.24
977.582	0.24
977.946	0.24
978.309	0.24
978.672	0.24
979.035	0.24
979.398	0.24
979.761	0.24
980.123	0.24
980.486	0.24
980.849	0.24
981.211	0.25
981.574	0.24
981.936	0.24
982.299	0.24
982.661	0.24
983.023	0.24
983.386	0.24
983.748	0.24
984.11	0.23
984.472	0.24
984.834	0.24
985.196	0.24
985.558	0.24
985.92	0.24
986.281	0.24
986.643	0.23
987.005	0.24
987.366	0.24
987.728	0.23
988.089	0.24
988.451	0.23
988.812	0.23
989.173	0.23
989.534	0.23
989.895	0.23
990.257	0.24
990.618	0.24
990.979	0.23
991.339	0.23
991.7	0.23
992.061	0.23
992.422	0.23
992.782	0.23
993.143	0.23
993.503	0.24
993.864	0.23
994.224	0.23
994.585	0.23
994.945	0.23
995.305	0.24
995.665	0.23
996.025	0.23
996.385	0.23
996.745	0.23
997.105	0.23
997.465	0.23
997.825	0.23
998.185	0.22
998.544	0.23
998.904	0.23
999.263	0.23
999.623	0.23
999.982	0.23
1000.342	0.22
1000.701	0.22
1001.06	0.23
1001.419	0.23
1001.778	0.22
1002.138	0.23
1002.497	0.23
1002.855	0.22
1003.214	0.23
1003.573	0.22
1003.932	0.22
1004.29	0.22
1004.649	0.23
1005.008	0.23
1005.366	0.23
1005.725	0.22
1006.083	0.22
1006.441	0.22
1006.799	0.22
1007.158	0.23
1007.516	0.22
1007.874	0.22
1008.232	0.21
1008.59	0.22
1008.948	0.21
1009.305	0.22
1009.663	0.22
1010.021	0.22
1010.379	0.22
1010.736	0.22
1011.094	0.22
1011.451	0.21
1011.808	0.22
1012.166	0.22
1012.523	0.22
1012.88	0.21
1013.237	0.22
1013.594	0.21
1013.951	0.21
1014.308	0.22
1014.665	0.21
1015.022	0.22
1015.379	0.21
1015.735	0.22
1016.092	0.21
1016.449	0.21
1016.805	0.22
1017.162	0.21
1017.518	0.21
1017.874	0.21
1018.231	0.21
1018.587	0.21
1018.943	0.21
1019.299	0.21
1019.655	0.21
1020.011	0.21
1020.367	0.21
1020.723	0.21
1021.078	0.21
1021.434	0.21
1021.79	0.21
1022.145	0.22
1022.501	0.21
1022.856	0.21
1023.212	0.21
1023.567	0.2
1023.922	0.21
1024.278	0.2
1024.633	0.2
1024.988	0.2
1025.343	0.21
1025.698	0.21
1026.053	0.21
1026.408	0.2
1026.762	0.2
1027.117	0.2
1027.472	0.2
1027.826	0.2
1028.181	0.2
1028.535	0.2
1028.89	0.21
1029.244	0.21
1029.598	0.21
1029.952	0.2
1030.307	0.2
1030.661	0.2
1031.015	0.19
1031.369	0.2
1031.723	0.2
1032.076	0.2
