Data from Rubpy_BV_EDTA_TU(3000)_Blank_Blue_Flow_Absorbance__680__12-58-02-854.txt Node

Date: Mon Aug 03 12:58:02 BST 2026
User: fpm-admin
Spectrometer: SR600986
Trigger mode: 0
Integration Time (sec): 8.000000E-3
Scans to average: 3
Nonlinearity correction enabled: true
Boxcar width: 0
Storing dark spectrum: false
XAxis mode: Wavelengths
Number of Pixels in Spectrum: 2048
>>>>>Begin Spectral Data<<<<<
188.613	0.17
189.078	0.19
189.542	0.19
190.007	0.18
190.472	0.17
190.936	0.19
191.401	0.16
191.865	0.18
192.33	0.18
192.794	0.17
193.258	0.18
193.723	0.18
194.187	0.19
194.651	0.18
195.115	0.18
195.579	0.19
196.043	0.18
196.507	0.16
196.971	0.18
197.435	0.18
197.899	0.19
198.363	0.18
198.827	0.18
199.29	0.17
199.754	0.18
200.218	0.18
200.681	0.17
201.145	0.18
201.608	0.16
202.072	0.19
202.535	0.18
202.998	0.19
203.462	0.19
203.925	0.19
204.388	0.17
204.851	0.2
205.314	0.19
205.777	0.19
206.24	0.18
206.703	0.18
207.166	0.16
207.629	0.19
208.092	0.21
208.555	0.17
209.018	0.18
209.48	0.17
209.943	0.19
210.406	0.18
210.868	0.19
211.331	0.17
211.793	0.18
212.256	0.19
212.718	0.17
213.18	0.2
213.643	0.19
214.105	0.16
214.567	0.19
215.029	0.18
215.491	0.18
215.953	0.16
216.415	0.16
216.877	0.16
217.339	0.18
217.801	0.18
218.263	0.19
218.725	0.2
219.186	0.2
219.648	0.18
220.11	0.16
220.571	0.18
221.033	0.19
221.494	0.2
221.956	0.19
222.417	0.19
222.878	0.17
223.34	0.19
223.801	0.16
224.262	0.18
224.723	0.19
225.185	0.17
225.646	0.16
226.107	0.19
226.568	0.17
227.029	0.2
227.489	0.19
227.95	0.19
228.411	0.2
228.872	0.17
229.332	0.16
229.793	0.17
230.254	0.17
230.714	0.18
231.175	0.18
231.635	0.18
232.096	0.18
232.556	0.19
233.016	0.17
233.477	0.18
233.937	0.17
234.397	0.16
234.857	0.17
235.317	0.19
235.777	0.17
236.237	0.18
236.697	0.19
237.157	0.2
237.617	0.17
238.077	0.17
238.537	0.18
238.996	0.2
239.456	0.19
239.916	0.2
240.375	0.17
240.835	0.18
241.294	0.18
241.754	0.17
242.213	0.17
242.672	0.17
243.132	0.17
243.591	0.19
244.05	0.16
244.509	0.17
244.968	0.19
245.427	0.2
245.886	0.19
246.345	0.17
246.804	0.17
247.263	0.19
247.722	0.18
248.181	0.18
248.639	0.18
249.098	0.18
249.557	0.2
250.015	0.19
250.474	0.18
250.932	0.19
251.391	0.17
251.849	0.17
252.308	0.19
252.766	0.19
253.224	0.2
253.682	0.18
254.14	0.19
254.599	0.17
255.057	0.18
255.515	0.18
255.973	0.19
256.431	0.18
256.888	0.17
257.346	0.18
257.804	0.18
258.262	0.18
258.719	0.18
259.177	0.19
259.635	0.16
260.092	0.17
260.55	0.18
261.007	0.17
261.465	0.18
261.922	0.19
262.379	0.17
262.836	0.17
263.294	0.17
263.751	0.2
264.208	0.2
264.665	0.16
265.122	0.2
265.579	0.17
266.036	0.19
266.493	0.16
266.95	0.18
267.406	0.2
267.863	0.17
268.32	0.19
268.777	0.17
269.233	0.18
269.69	0.18
270.146	0.18
270.603	0.21
271.059	0.18
271.515	0.18
271.972	0.19
272.428	0.16
272.884	0.17
273.34	0.19
273.796	0.17
274.253	0.19
274.709	0.18
275.165	0.17
275.62	0.2
276.076	0.17
276.532	0.21
276.988	0.15
277.444	0.17
277.899	0.16
278.355	0.18
278.811	0.17
279.266	0.18
279.722	0.18
280.177	0.2
280.633	0.19
281.088	0.18
281.543	0.2
281.998	0.18
282.454	0.19
282.909	0.21
283.364	0.18
283.819	0.19
284.274	0.18
284.729	0.18
285.184	0.17
285.639	0.16
286.094	0.18
286.548	0.17
287.003	0.19
287.458	0.2
287.913	0.18
288.367	0.2
288.822	0.18
289.276	0.19
289.731	0.18
290.185	0.16
290.639	0.19
291.094	0.18
291.548	0.21
292.002	0.18
292.456	0.19
292.91	0.2
293.365	0.17
293.819	0.19
294.273	0.16
294.726	0.19
295.18	0.16
295.634	0.21
296.088	0.19
296.542	0.22
296.995	0.2
297.449	0.17
297.903	0.19
298.356	0.17
298.81	0.18
299.263	0.2
299.716	0.2
300.17	0.18
300.623	0.16
301.076	0.2
301.53	0.21
301.983	0.2
302.436	0.19
302.889	0.17
303.342	0.2
303.795	0.17
304.248	0.18
304.701	0.17
305.153	0.17
305.606	0.2
306.059	0.21
306.512	0.19
306.964	0.2
307.417	0.18
307.869	0.2
308.322	0.19
308.774	0.2
309.227	0.18
309.679	0.19
310.131	0.19
310.584	0.2
311.036	0.18
311.488	0.17
311.94	0.2
312.392	0.19
312.844	0.19
313.296	0.17
313.748	0.21
314.2	0.19
314.652	0.21
315.103	0.2
315.555	0.19
316.007	0.21
316.458	0.2
316.91	0.21
317.361	0.22
317.813	0.22
318.264	0.22
318.716	0.2
319.167	0.23
319.618	0.23
320.07	0.23
320.521	0.22
320.972	0.25
321.423	0.24
321.874	0.23
322.325	0.23
322.776	0.25
323.227	0.24
323.678	0.25
324.128	0.26
324.579	0.27
325.03	0.29
325.48	0.28
325.931	0.29
326.382	0.29
326.832	0.3
327.283	0.3
327.733	0.32
328.183	0.33
328.634	0.36
329.084	0.37
329.534	0.36
329.984	0.39
330.434	0.39
330.884	0.4
331.334	0.42
331.784	0.43
332.234	0.44
332.684	0.45
333.134	0.46
333.584	0.46
334.034	0.47
334.483	0.49
334.933	0.51
335.382	0.51
335.832	0.53
336.281	0.54
336.731	0.55
337.18	0.56
337.63	0.58
338.079	0.59
338.528	0.6
338.977	0.61
339.426	0.63
339.876	0.64
340.325	0.66
340.774	0.66
341.223	0.67
341.671	0.69
342.12	0.71
342.569	0.72
343.018	0.73
343.467	0.73
343.915	0.76
344.364	0.77
344.812	0.78
345.261	0.79
345.709	0.8
346.158	0.82
346.606	0.82
347.054	0.85
347.503	0.84
347.951	0.86
348.399	0.86
348.847	0.88
349.295	0.89
349.743	0.87
350.191	0.9
350.639	0.91
351.087	0.91
351.535	0.94
351.983	0.94
352.43	0.95
352.878	0.96
353.326	0.97
353.773	0.97
354.221	0.99
354.668	0.99
355.116	1.02
355.563	1.03
356.01	1.04
356.458	1.06
356.905	1.07
357.352	1.08
357.799	1.09
358.246	1.1
358.693	1.14
359.14	1.14
359.587	1.14
360.034	1.16
360.481	1.18
360.928	1.19
361.375	1.2
361.821	1.21
362.268	1.23
362.714	1.23
363.161	1.25
363.608	1.26
364.054	1.27
364.5	1.29
364.947	1.29
365.393	1.3
365.839	1.32
366.285	1.3
366.732	1.33
367.178	1.32
367.624	1.34
368.07	1.33
368.516	1.34
368.962	1.33
369.408	1.34
369.853	1.33
370.299	1.34
370.745	1.34
371.19	1.34
371.636	1.33
372.082	1.32
372.527	1.32
372.973	1.32
373.418	1.31
373.863	1.31
374.309	1.3
374.754	1.28
375.199	1.28
375.644	1.25
376.09	1.24
376.535	1.24
376.98	1.21
377.425	1.2
377.87	1.18
378.314	1.17
378.759	1.15
379.204	1.13
379.649	1.11
380.093	1.09
380.538	1.07
380.983	1.05
381.427	1.02
381.872	1
382.316	0.98
382.76	0.96
383.205	0.94
383.649	0.92
384.093	0.9
384.537	0.88
384.982	0.87
385.426	0.84
385.87	0.83
386.314	0.8
386.758	0.79
387.201	0.77
387.645	0.75
388.089	0.73
388.533	0.72
388.976	0.69
389.42	0.69
389.864	0.67
390.307	0.65
390.751	0.64
391.194	0.62
391.638	0.61
392.081	0.6
392.524	0.59
392.967	0.58
393.411	0.57
393.854	0.56
394.297	0.56
394.74	0.55
395.183	0.55
395.626	0.54
396.069	0.54
396.512	0.54
396.954	0.54
397.397	0.54
397.84	0.54
398.282	0.54
398.725	0.55
399.168	0.54
399.61	0.54
400.052	0.54
400.495	0.53
400.937	0.52
401.38	0.52
401.822	0.49
402.264	0.49
402.706	0.48
403.148	0.47
403.59	0.45
404.032	0.43
404.474	0.42
404.916	0.4
405.358	0.39
405.8	0.38
406.241	0.36
406.683	0.34
407.125	0.32
407.566	0.31
408.008	0.3
408.449	0.3
408.891	0.29
409.332	0.27
409.774	0.26
410.215	0.25
410.656	0.24
411.097	0.23
411.539	0.22
411.98	0.22
412.421	0.21
412.862	0.2
413.303	0.19
413.744	0.19
414.184	0.18
414.625	0.18
415.066	0.18
415.507	0.18
415.947	0.17
416.388	0.18
416.828	0.15
417.269	0.17
417.709	0.16
418.15	0.16
418.59	0.16
419.03	0.16
419.471	0.16
419.911	0.15
420.351	0.16
420.791	0.15
421.231	0.14
421.671	0.15
422.111	0.14
422.551	0.15
422.991	0.15
423.431	0.14
423.87	0.14
424.31	0.15
424.75	0.15
425.189	0.14
425.629	0.14
426.068	0.15
426.508	0.13
426.947	0.14
427.386	0.15
427.826	0.14
428.265	0.15
428.704	0.14
429.143	0.14
429.582	0.13
430.021	0.16
430.46	0.15
430.899	0.14
431.338	0.14
431.777	0.15
432.216	0.15
432.655	0.16
433.093	0.15
433.532	0.16
433.971	0.13
434.409	0.14
434.848	0.15
435.286	0.16
435.724	0.15
436.163	0.15
436.601	0.15
437.039	0.16
437.477	0.16
437.916	0.14
438.354	0.15
438.792	0.13
439.23	0.16
439.668	0.16
440.105	0.16
440.543	0.15
440.981	0.17
441.419	0.16
441.856	0.16
442.294	0.14
442.732	0.15
443.169	0.17
443.607	0.16
444.044	0.16
444.481	0.18
444.919	0.17
445.356	0.16
445.793	0.16
446.23	0.17
446.668	0.18
447.105	0.17
447.542	0.18
447.979	0.17
448.416	0.17
448.852	0.2
449.289	0.18
449.726	0.19
450.163	0.17
450.599	0.18
451.036	0.17
451.473	0.2
451.909	0.18
452.346	0.17
452.782	0.19
453.218	0.18
453.655	0.17
454.091	0.19
454.527	0.19
454.963	0.19
455.399	0.18
455.835	0.2
456.271	0.21
456.707	0.19
457.143	0.19
457.579	0.18
458.015	0.17
458.451	0.19
458.886	0.21
459.322	0.18
459.758	0.2
460.193	0.2
460.629	0.2
461.064	0.21
461.5	0.21
461.935	0.21
462.37	0.2
462.805	0.22
463.241	0.22
463.676	0.21
464.111	0.22
464.546	0.21
464.981	0.21
465.416	0.22
465.851	0.22
466.286	0.22
466.72	0.22
467.155	0.24
467.59	0.22
468.024	0.24
468.459	0.24
468.893	0.23
469.328	0.24
469.762	0.24
470.197	0.26
470.631	0.25
471.065	0.25
471.5	0.26
471.934	0.28
472.368	0.28
472.802	0.28
473.236	0.28
473.67	0.29
474.104	0.29
474.538	0.29
474.972	0.29
475.405	0.29
475.839	0.31
476.273	0.31
476.706	0.31
477.14	0.32
477.573	0.32
478.007	0.33
478.44	0.33
478.874	0.33
479.307	0.35
479.74	0.34
480.173	0.36
480.606	0.36
481.04	0.36
481.473	0.36
481.906	0.38
482.339	0.37
482.771	0.37
483.204	0.38
483.637	0.38
484.07	0.39
484.502	0.4
484.935	0.4
485.368	0.41
485.8	0.41
486.233	0.41
486.665	0.41
487.098	0.42
487.53	0.42
487.962	0.43
488.394	0.43
488.827	0.43
489.259	0.44
489.691	0.44
490.123	0.45
490.555	0.45
490.987	0.45
491.418	0.46
491.85	0.46
492.282	0.46
492.714	0.47
493.145	0.48
493.577	0.48
494.009	0.48
494.44	0.48
494.872	0.49
495.303	0.49
495.734	0.5
496.166	0.5
496.597	0.5
497.028	0.51
497.459	0.51
497.89	0.52
498.321	0.52
498.752	0.52
499.183	0.53
499.614	0.53
500.045	0.53
500.476	0.53
500.906	0.55
501.337	0.55
501.768	0.55
502.198	0.56
502.629	0.56
503.059	0.56
503.49	0.57
503.92	0.57
504.35	0.57
504.781	0.58
505.211	0.58
505.641	0.58
506.071	0.59
506.501	0.59
506.931	0.59
507.361	0.59
507.791	0.6
508.221	0.61
508.651	0.6
509.081	0.61
509.51	0.61
509.94	0.62
510.37	0.62
510.799	0.62
511.229	0.63
511.658	0.63
512.087	0.63
512.517	0.63
512.946	0.64
513.375	0.64
513.804	0.64
514.234	0.64
514.663	0.65
515.092	0.65
515.521	0.65
515.95	0.65
516.378	0.66
516.807	0.66
517.236	0.67
517.665	0.67
518.093	0.66
518.522	0.67
518.951	0.67
519.379	0.68
519.807	0.68
520.236	0.68
520.664	0.69
521.093	0.68
521.521	0.68
521.949	0.69
522.377	0.69
522.805	0.69
523.233	0.69
523.661	0.69
524.089	0.69
524.517	0.7
524.945	0.7
525.373	0.71
525.8	0.7
526.228	0.7
526.656	0.71
527.083	0.71
527.511	0.71
527.938	0.71
528.366	0.7
528.793	0.71
529.22	0.71
529.648	0.72
530.075	0.72
530.502	0.72
530.929	0.72
531.356	0.72
531.783	0.72
532.21	0.72
532.637	0.73
533.064	0.72
533.49	0.72
533.917	0.73
534.344	0.73
534.771	0.73
535.197	0.73
535.624	0.73
536.05	0.73
536.477	0.73
536.903	0.73
537.329	0.73
537.755	0.73
538.182	0.73
538.608	0.73
539.034	0.73
539.46	0.73
539.886	0.73
540.312	0.73
540.738	0.73
541.164	0.73
541.589	0.73
542.015	0.73
542.441	0.73
542.867	0.73
543.292	0.73
543.718	0.73
544.143	0.73
544.569	0.72
544.994	0.72
545.419	0.73
545.845	0.73
546.27	0.72
546.695	0.72
547.12	0.72
547.545	0.72
547.97	0.72
548.395	0.72
548.82	0.72
549.245	0.71
549.67	0.72
550.094	0.72
550.519	0.71
550.944	0.72
551.368	0.71
551.793	0.71
552.217	0.71
552.642	0.71
553.066	0.71
553.49	0.7
553.915	0.7
554.339	0.7
554.763	0.7
555.187	0.7
555.611	0.7
556.035	0.7
556.459	0.69
556.883	0.69
557.307	0.69
557.731	0.69
558.154	0.69
558.578	0.69
559.002	0.68
559.425	0.68
559.849	0.68
560.272	0.68
560.696	0.68
561.119	0.68
561.543	0.67
561.966	0.67
562.389	0.67
562.812	0.67
563.235	0.67
563.658	0.66
564.081	0.66
564.504	0.66
564.927	0.66
565.35	0.65
565.773	0.65
566.196	0.65
566.618	0.65
567.041	0.65
567.463	0.65
567.886	0.64
568.309	0.64
568.731	0.64
569.153	0.63
569.576	0.63
569.998	0.64
570.42	0.63
570.842	0.63
571.264	0.62
571.686	0.63
572.108	0.62
572.53	0.62
572.952	0.62
573.374	0.61
573.796	0.61
574.218	0.61
574.639	0.61
575.061	0.6
575.483	0.6
575.904	0.6
576.326	0.6
576.747	0.59
577.168	0.59
577.59	0.59
578.011	0.59
578.432	0.58
578.853	0.58
579.274	0.58
579.695	0.58
580.116	0.57
580.537	0.57
580.958	0.57
581.379	0.57
581.8	0.57
582.221	0.57
582.641	0.57
583.062	0.56
583.482	0.56
583.903	0.56
584.323	0.56
584.744	0.55
585.164	0.55
585.584	0.55
586.005	0.55
586.425	0.54
586.845	0.54
587.265	0.54
587.685	0.54
588.105	0.54
588.525	0.54
588.945	0.53
589.365	0.53
589.785	0.53
590.204	0.53
590.624	0.53
591.044	0.53
591.463	0.52
591.883	0.52
592.302	0.52
592.721	0.52
593.141	0.52
593.56	0.52
593.979	0.51
594.399	0.51
594.818	0.51
595.237	0.51
595.656	0.51
596.075	0.5
596.494	0.5
596.913	0.5
597.331	0.5
597.75	0.5
598.169	0.5
598.587	0.5
599.006	0.49
599.425	0.49
599.843	0.49
600.262	0.49
600.68	0.48
601.098	0.48
601.517	0.48
601.935	0.48
602.353	0.48
602.771	0.47
603.189	0.48
603.607	0.47
604.025	0.47
604.443	0.47
604.861	0.47
605.279	0.46
605.696	0.46
606.114	0.46
606.532	0.46
606.949	0.46
607.367	0.45
607.784	0.45
608.202	0.45
608.619	0.45
609.036	0.44
609.454	0.44
609.871	0.44
610.288	0.44
610.705	0.43
611.122	0.43
611.539	0.43
611.956	0.43
612.373	0.43
612.79	0.42
613.207	0.42
613.623	0.42
614.04	0.42
614.457	0.42
614.873	0.41
615.29	0.41
615.706	0.41
616.122	0.41
616.539	0.41
616.955	0.4
617.371	0.4
617.788	0.4
618.204	0.4
618.62	0.39
619.036	0.39
619.452	0.39
619.868	0.39
620.284	0.39
620.699	0.38
621.115	0.38
621.531	0.38
621.946	0.38
622.362	0.38
622.778	0.37
623.193	0.37
623.608	0.37
624.024	0.37
624.439	0.36
624.854	0.36
625.27	0.36
625.685	0.36
626.1	0.36
626.515	0.35
626.93	0.35
627.345	0.35
627.76	0.35
628.175	0.34
628.589	0.34
629.004	0.34
629.419	0.34
629.833	0.33
630.248	0.34
630.663	0.33
631.077	0.32
631.491	0.33
631.906	0.32
632.32	0.32
632.734	0.32
633.148	0.32
633.563	0.32
633.977	0.31
634.391	0.31
634.805	0.31
635.219	0.3
635.632	0.3
636.046	0.3
636.46	0.3
636.874	0.3
637.287	0.29
637.701	0.29
638.115	0.29
638.528	0.28
638.941	0.28
639.355	0.28
639.768	0.28
640.181	0.28
640.595	0.28
641.008	0.28
641.421	0.27
641.834	0.27
642.247	0.27
642.66	0.27
643.073	0.26
643.486	0.26
643.898	0.26
644.311	0.26
644.724	0.26
645.136	0.26
645.549	0.25
645.961	0.25
646.374	0.25
646.786	0.25
647.199	0.25
647.611	0.25
648.023	0.24
648.435	0.24
648.847	0.24
649.26	0.24
649.672	0.23
650.084	0.23
650.495	0.23
650.907	0.23
651.319	0.23
651.731	0.23
652.143	0.23
652.554	0.22
652.966	0.22
653.377	0.22
653.789	0.22
654.2	0.22
654.612	0.22
655.023	0.22
655.434	0.2
655.845	0.19
656.256	0.21
656.668	0.21
657.079	0.21
657.49	0.21
657.901	0.21
658.311	0.2
658.722	0.2
659.133	0.2
659.544	0.2
659.954	0.2
660.365	0.2
660.775	0.2
661.186	0.2
661.596	0.2
662.007	0.2
662.417	0.19
662.827	0.19
663.238	0.19
663.648	0.19
664.058	0.19
664.468	0.19
664.878	0.19
665.288	0.18
665.698	0.18
666.108	0.18
666.517	0.18
666.927	0.18
667.337	0.18
667.746	0.17
668.156	0.17
668.565	0.17
668.975	0.17
669.384	0.17
669.794	0.17
670.203	0.17
670.612	0.17
671.021	0.16
671.43	0.16
671.84	0.16
672.249	0.16
672.658	0.16
673.066	0.15
673.475	0.15
673.884	0.15
674.293	0.15
674.702	0.15
675.11	0.15
675.519	0.15
675.927	0.15
676.336	0.14
676.744	0.15
677.152	0.14
677.561	0.14
677.969	0.14
678.377	0.14
678.785	0.14
679.193	0.13
679.601	0.13
680.009	0.13
680.417	0.13
680.825	0.13
681.233	0.13
681.641	0.13
682.048	0.13
682.456	0.12
682.864	0.12
683.271	0.12
683.679	0.12
684.086	0.12
684.493	0.12
684.901	0.12
685.308	0.11
685.715	0.11
686.122	0.11
686.529	0.11
686.936	0.11
687.343	0.11
687.75	0.11
688.157	0.1
688.564	0.1
688.971	0.1
689.378	0.1
689.784	0.1
690.191	0.1
690.597	0.1
691.004	0.1
691.41	0.1
691.817	0.1
692.223	0.1
692.629	0.09
693.035	0.09
693.442	0.1
693.848	0.09
694.254	0.09
694.66	0.09
695.066	0.09
695.471	0.09
695.877	0.09
696.283	0.09
696.689	0.09
697.094	0.08
697.5	0.08
697.906	0.08
698.311	0.08
698.716	0.08
699.122	0.08
699.527	0.08
699.932	0.08
700.338	0.08
700.743	0.08
701.148	0.08
701.553	0.08
701.958	0.08
702.363	0.08
702.768	0.08
703.173	0.08
703.577	0.08
703.982	0.08
704.387	0.07
704.791	0.07
705.196	0.08
705.6	0.07
706.005	0.07
706.409	0.07
706.814	0.07
707.218	0.07
707.622	0.07
708.026	0.07
708.43	0.07
708.834	0.07
709.238	0.07
709.642	0.07
710.046	0.07
710.45	0.07
710.854	0.07
711.257	0.07
711.661	0.07
712.065	0.07
712.468	0.07
712.872	0.07
713.275	0.07
713.679	0.07
714.082	0.07
714.485	0.07
714.888	0.07
715.291	0.07
715.695	0.07
716.098	0.07
716.501	0.07
716.904	0.07
717.306	0.07
717.709	0.07
718.112	0.07
718.515	0.07
718.917	0.07
719.32	0.07
719.723	0.07
720.125	0.07
720.527	0.07
720.93	0.07
721.332	0.07
721.734	0.07
722.137	0.07
722.539	0.07
722.941	0.07
723.343	0.07
723.745	0.07
724.147	0.07
724.549	0.07
724.95	0.07
725.352	0.07
725.754	0.07
726.156	0.07
726.557	0.07
726.959	0.07
727.36	0.07
727.762	0.07
728.163	0.07
728.564	0.07
728.966	0.07
729.367	0.07
729.768	0.07
730.169	0.06
730.57	0.07
730.971	0.07
731.372	0.07
731.773	0.07
732.174	0.06
732.574	0.06
732.975	0.07
733.376	0.07
733.776	0.06
734.177	0.06
734.577	0.06
734.978	0.06
735.378	0.07
735.778	0.06
736.179	0.06
736.579	0.06
736.979	0.06
737.379	0.06
737.779	0.06
738.179	0.06
738.579	0.06
738.979	0.06
739.379	0.06
739.778	0.06
740.178	0.06
740.578	0.06
740.977	0.06
741.377	0.06
741.776	0.06
742.176	0.06
742.575	0.06
742.974	0.06
743.374	0.06
743.773	0.06
744.172	0.06
744.571	0.06
744.97	0.05
745.369	0.06
745.768	0.06
746.167	0.06
746.565	0.06
746.964	0.06
747.363	0.06
747.761	0.05
748.16	0.05
748.559	0.05
748.957	0.06
749.355	0.05
749.754	0.06
750.152	0.06
750.55	0.06
750.948	0.05
751.347	0.05
751.745	0.05
752.143	0.05
752.541	0.05
752.938	0.05
753.336	0.05
753.734	0.05
754.132	0.05
754.529	0.05
754.927	0.05
755.325	0.05
755.722	0.05
756.119	0.05
756.517	0.05
756.914	0.05
757.311	0.05
757.709	0.05
758.106	0.05
758.503	0.05
758.9	0.05
759.297	0.05
759.694	0.05
760.091	0.05
760.488	0.05
760.884	0.05
761.281	0.05
761.678	0.05
762.074	0.05
762.471	0.05
762.867	0.05
763.264	0.05
763.66	0.05
764.056	0.05
764.453	0.05
764.849	0.05
765.245	0.05
765.641	0.05
766.037	0.05
766.433	0.05
766.829	0.05
767.225	0.05
767.621	0.05
768.016	0.05
768.412	0.05
768.808	0.05
769.203	0.05
769.599	0.05
769.994	0.05
770.389	0.05
770.785	0.05
771.18	0.05
771.575	0.05
771.971	0.05
772.366	0.05
772.761	0.05
773.156	0.05
773.551	0.05
773.945	0.05
774.34	0.06
774.735	0.05
775.13	0.06
775.524	0.05
775.919	0.05
776.314	0.05
776.708	0.05
777.103	0.06
777.497	0.06
777.891	0.05
778.285	0.06
778.68	0.06
779.074	0.06
779.468	0.06
779.862	0.06
780.256	0.06
780.65	0.06
781.044	0.06
781.438	0.06
781.831	0.06
782.225	0.06
782.619	0.06
783.012	0.06
783.406	0.06
783.799	0.06
784.193	0.06
784.586	0.06
784.979	0.06
785.372	0.06
785.766	0.06
786.159	0.06
786.552	0.06
786.945	0.06
787.338	0.06
787.731	0.06
788.123	0.06
788.516	0.06
788.909	0.07
789.302	0.06
789.694	0.06
790.087	0.06
790.479	0.07
790.872	0.06
791.264	0.07
791.656	0.06
792.049	0.07
792.441	0.07
792.833	0.07
793.225	0.07
793.617	0.07
794.009	0.07
794.401	0.07
794.793	0.07
795.185	0.07
795.576	0.07
795.968	0.07
796.36	0.07
796.751	0.07
797.143	0.07
797.534	0.07
797.926	0.07
798.317	0.07
798.708	0.07
799.1	0.08
799.491	0.07
799.882	0.07
800.273	0.07
800.664	0.07
801.055	0.07
801.446	0.08
801.837	0.08
802.227	0.08
802.618	0.08
803.009	0.08
803.399	0.08
803.79	0.08
804.18	0.08
804.571	0.08
804.961	0.08
805.351	0.08
805.742	0.08
806.132	0.08
806.522	0.08
806.912	0.08
807.302	0.08
807.692	0.08
808.082	0.09
808.472	0.08
808.862	0.09
809.251	0.08
809.641	0.09
810.031	0.09
810.42	0.09
810.81	0.09
811.199	0.09
811.589	0.09
811.978	0.09
812.367	0.09
812.756	0.09
813.146	0.09
813.535	0.09
813.924	0.09
814.313	0.09
814.702	0.09
815.091	0.09
815.479	0.09
815.868	0.09
816.257	0.1
816.645	0.09
817.034	0.1
817.423	0.09
817.811	0.1
818.199	0.1
818.588	0.1
818.976	0.1
819.364	0.1
819.753	0.1
820.141	0.1
820.529	0.1
820.917	0.1
821.305	0.1
821.693	0.1
822.08	0.1
822.468	0.1
822.856	0.1
823.244	0.1
823.631	0.1
824.019	0.11
824.406	0.11
824.794	0.1
825.181	0.11
825.568	0.11
825.956	0.11
826.343	0.11
826.73	0.11
827.117	0.11
827.504	0.11
827.891	0.11
828.278	0.11
828.665	0.11
829.052	0.11
829.438	0.11
829.825	0.11
830.212	0.12
830.598	0.12
830.985	0.12
831.371	0.12
831.757	0.11
832.144	0.12
832.53	0.12
832.916	0.12
833.302	0.12
833.688	0.12
834.075	0.12
834.461	0.12
834.846	0.12
835.232	0.12
835.618	0.12
836.004	0.12
836.39	0.12
836.775	0.12
837.161	0.12
837.546	0.12
837.932	0.13
838.317	0.13
838.702	0.13
839.088	0.13
839.473	0.13
839.858	0.13
840.243	0.13
840.628	0.13
841.013	0.13
841.398	0.13
841.783	0.13
842.168	0.13
842.553	0.13
842.937	0.14
843.322	0.13
843.707	0.13
844.091	0.13
844.476	0.14
844.86	0.13
845.244	0.13
845.629	0.14
846.013	0.14
846.397	0.14
846.781	0.14
847.165	0.14
847.549	0.14
847.933	0.14
848.317	0.14
848.701	0.14
849.085	0.14
849.468	0.14
849.852	0.14
850.236	0.14
850.619	0.14
851.003	0.14
851.386	0.15
851.769	0.15
852.153	0.15
852.536	0.15
852.919	0.15
853.302	0.15
853.685	0.15
854.068	0.15
854.451	0.15
854.834	0.15
855.217	0.15
855.6	0.15
855.982	0.15
856.365	0.15
856.748	0.15
857.13	0.15
857.513	0.15
857.895	0.16
858.277	0.16
858.66	0.16
859.042	0.16
859.424	0.16
859.806	0.16
860.188	0.16
860.57	0.16
860.952	0.16
861.334	0.16
861.716	0.16
862.098	0.16
862.48	0.16
862.861	0.16
863.243	0.16
863.624	0.16
864.006	0.16
864.387	0.16
864.769	0.17
865.15	0.17
865.531	0.16
865.912	0.17
866.294	0.17
866.675	0.17
867.056	0.17
867.437	0.17
867.818	0.17
868.198	0.17
868.579	0.17
868.96	0.17
869.341	0.17
869.721	0.17
870.102	0.17
870.482	0.18
870.863	0.17
871.243	0.17
871.623	0.17
872.003	0.17
872.384	0.18
872.764	0.18
873.144	0.18
873.524	0.18
873.904	0.18
874.284	0.18
874.664	0.18
875.043	0.18
875.423	0.18
875.803	0.18
876.182	0.18
876.562	0.18
876.941	0.18
877.321	0.18
877.7	0.18
878.079	0.19
878.459	0.18
878.838	0.19
879.217	0.19
879.596	0.19
879.975	0.19
880.354	0.19
880.733	0.19
881.112	0.19
881.491	0.19
881.869	0.19
882.248	0.18
882.627	0.19
883.005	0.19
883.384	0.19
883.762	0.19
884.14	0.19
884.519	0.19
884.897	0.19
885.275	0.19
885.653	0.19
886.031	0.19
886.409	0.19
886.787	0.19
887.165	0.19
887.543	0.19
887.921	0.19
888.298	0.2
888.676	0.2
889.054	0.19
889.431	0.2
889.809	0.2
890.186	0.2
890.563	0.2
890.941	0.2
891.318	0.19
891.695	0.2
892.072	0.2
892.449	0.2
892.826	0.2
893.203	0.2
893.58	0.2
893.957	0.2
894.334	0.2
894.71	0.2
895.087	0.2
895.464	0.2
895.84	0.2
896.217	0.2
896.593	0.2
896.969	0.2
897.346	0.2
897.722	0.2
898.098	0.2
898.474	0.21
898.85	0.2
899.226	0.21
899.602	0.21
899.978	0.21
900.354	0.21
900.73	0.21
901.105	0.21
901.481	0.21
901.857	0.21
902.232	0.21
902.608	0.21
902.983	0.21
903.358	0.21
903.734	0.21
904.109	0.21
904.484	0.21
904.859	0.21
905.234	0.21
905.609	0.21
905.984	0.21
906.359	0.21
906.734	0.21
907.108	0.21
907.483	0.21
907.858	0.21
908.232	0.21
908.607	0.21
908.981	0.21
909.356	0.21
909.73	0.21
910.104	0.21
910.478	0.21
910.853	0.21
911.227	0.21
911.601	0.21
911.975	0.21
912.349	0.21
912.722	0.21
913.096	0.21
913.47	0.21
913.844	0.21
914.217	0.21
914.591	0.21
914.964	0.21
915.338	0.21
915.711	0.21
916.084	0.21
916.458	0.22
916.831	0.22
917.204	0.22
917.577	0.22
917.95	0.22
918.323	0.22
918.696	0.22
919.069	0.22
919.441	0.22
919.814	0.22
920.187	0.22
920.559	0.22
920.932	0.22
921.304	0.22
921.677	0.22
922.049	0.22
922.421	0.22
922.794	0.22
923.166	0.22
923.538	0.22
923.91	0.22
924.282	0.22
924.654	0.22
925.026	0.22
925.398	0.22
925.769	0.22
926.141	0.22
926.513	0.22
926.884	0.22
927.256	0.22
927.627	0.22
927.999	0.22
928.37	0.22
928.741	0.22
929.113	0.22
929.484	0.22
929.855	0.22
930.226	0.22
930.597	0.22
930.968	0.22
931.339	0.22
931.709	0.22
932.08	0.22
932.451	0.22
932.821	0.22
933.192	0.22
933.562	0.22
933.933	0.22
934.303	0.22
934.673	0.22
935.044	0.22
935.414	0.22
935.784	0.22
936.154	0.22
936.524	0.22
936.894	0.22
937.264	0.22
937.634	0.22
938.004	0.22
938.373	0.22
938.743	0.22
939.113	0.22
939.482	0.22
939.852	0.22
940.221	0.22
940.59	0.22
940.96	0.22
941.329	0.22
941.698	0.22
942.067	0.22
942.436	0.22
942.805	0.22
943.174	0.22
943.543	0.22
943.912	0.22
944.28	0.22
944.649	0.22
945.018	0.22
945.386	0.22
945.755	0.22
946.123	0.22
946.492	0.22
946.86	0.22
947.228	0.22
947.596	0.22
947.965	0.22
948.333	0.23
948.701	0.22
949.069	0.22
949.437	0.22
949.804	0.22
950.172	0.22
950.54	0.22
950.908	0.22
951.275	0.22
951.643	0.22
952.01	0.22
952.378	0.22
952.745	0.22
953.112	0.22
953.479	0.22
953.847	0.22
954.214	0.22
954.581	0.22
954.948	0.22
955.315	0.22
955.682	0.22
956.048	0.22
956.415	0.22
956.782	0.22
957.148	0.22
957.515	0.22
957.881	0.22
958.248	0.21
958.614	0.22
958.981	0.22
959.347	0.21
959.713	0.22
960.079	0.22
960.445	0.21
960.811	0.22
961.177	0.21
961.543	0.21
961.909	0.21
962.275	0.21
962.641	0.22
963.006	0.22
963.372	0.21
963.737	0.22
964.103	0.21
964.468	0.22
964.834	0.21
965.199	0.22
965.564	0.21
965.929	0.21
966.294	0.21
966.659	0.21
967.024	0.21
967.389	0.21
967.754	0.22
968.119	0.21
968.484	0.21
968.848	0.21
969.213	0.21
969.578	0.21
969.942	0.21
970.307	0.21
970.671	0.21
971.035	0.21
971.399	0.21
971.764	0.21
972.128	0.21
972.492	0.21
972.856	0.21
973.22	0.2
973.584	0.21
973.948	0.21
974.311	0.21
974.675	0.21
975.039	0.21
975.402	0.21
975.766	0.21
976.129	0.2
976.493	0.21
976.856	0.21
977.219	0.21
977.582	0.21
977.946	0.21
978.309	0.21
978.672	0.21
979.035	0.21
979.398	0.2
979.761	0.21
980.123	0.21
980.486	0.21
980.849	0.21
981.211	0.21
981.574	0.21
981.936	0.2
982.299	0.21
982.661	0.21
983.023	0.21
983.386	0.21
983.748	0.2
984.11	0.2
984.472	0.21
984.834	0.21
985.196	0.2
985.558	0.2
985.92	0.21
986.281	0.2
986.643	0.2
987.005	0.2
987.366	0.2
987.728	0.2
988.089	0.2
988.451	0.2
988.812	0.2
989.173	0.2
989.534	0.2
989.895	0.2
990.257	0.2
990.618	0.2
990.979	0.2
991.339	0.2
991.7	0.2
992.061	0.2
992.422	0.2
992.782	0.2
993.143	0.2
993.503	0.2
993.864	0.2
994.224	0.2
994.585	0.2
994.945	0.19
995.305	0.2
995.665	0.2
996.025	0.2
996.385	0.2
996.745	0.19
997.105	0.2
997.465	0.2
997.825	0.19
998.185	0.19
998.544	0.19
998.904	0.19
999.263	0.19
999.623	0.2
999.982	0.19
1000.342	0.19
1000.701	0.19
1001.06	0.19
1001.419	0.19
1001.778	0.19
1002.138	0.19
1002.497	0.19
1002.855	0.19
1003.214	0.19
1003.573	0.19
1003.932	0.19
1004.29	0.19
1004.649	0.19
1005.008	0.19
1005.366	0.19
1005.725	0.19
1006.083	0.19
1006.441	0.18
1006.799	0.19
1007.158	0.19
1007.516	0.19
1007.874	0.19
1008.232	0.19
1008.59	0.19
1008.948	0.18
1009.305	0.19
1009.663	0.19
1010.021	0.18
1010.379	0.18
1010.736	0.19
1011.094	0.19
1011.451	0.19
1011.808	0.19
1012.166	0.19
1012.523	0.18
1012.88	0.18
1013.237	0.18
1013.594	0.18
1013.951	0.18
1014.308	0.18
1014.665	0.18
1015.022	0.19
1015.379	0.18
1015.735	0.18
1016.092	0.18
1016.449	0.18
1016.805	0.18
1017.162	0.18
1017.518	0.18
1017.874	0.18
1018.231	0.18
1018.587	0.18
1018.943	0.18
1019.299	0.18
1019.655	0.18
1020.011	0.18
1020.367	0.18
1020.723	0.18
1021.078	0.18
1021.434	0.18
1021.79	0.18
1022.145	0.18
1022.501	0.18
1022.856	0.18
1023.212	0.18
1023.567	0.18
1023.922	0.17
1024.278	0.18
1024.633	0.18
1024.988	0.18
1025.343	0.17
1025.698	0.18
1026.053	0.17
1026.408	0.18
1026.762	0.17
1027.117	0.17
1027.472	0.17
1027.826	0.17
1028.181	0.17
1028.535	0.17
1028.89	0.18
1029.244	0.17
1029.598	0.17
1029.952	0.17
1030.307	0.17
1030.661	0.18
1031.015	0.17
1031.369	0.17
1031.723	0.17
1032.076	0.17
