Data from Rubpy_BV_EDTA_TU(3000)_Blank_Blue_Flow_Absorbance__412__12-53-34-864.txt Node

Date: Mon Aug 03 12:53:34 BST 2026
User: fpm-admin
Spectrometer: SR600986
Trigger mode: 0
Integration Time (sec): 8.000000E-3
Scans to average: 3
Nonlinearity correction enabled: true
Boxcar width: 0
Storing dark spectrum: false
XAxis mode: Wavelengths
Number of Pixels in Spectrum: 2048
>>>>>Begin Spectral Data<<<<<
188.613	0.13
189.078	0.13
189.542	0.12
190.007	0.13
190.472	0.14
190.936	0.13
191.401	0.14
191.865	0.13
192.33	0.14
192.794	0.14
193.258	0.14
193.723	0.13
194.187	0.12
194.651	0.13
195.115	0.13
195.579	0.14
196.043	0.12
196.507	0.14
196.971	0.14
197.435	0.12
197.899	0.13
198.363	0.13
198.827	0.14
199.29	0.12
199.754	0.13
200.218	0.14
200.681	0.11
201.145	0.13
201.608	0.12
202.072	0.12
202.535	0.12
202.998	0.15
203.462	0.16
203.925	0.13
204.388	0.13
204.851	0.12
205.314	0.13
205.777	0.12
206.24	0.12
206.703	0.14
207.166	0.12
207.629	0.13
208.092	0.14
208.555	0.13
209.018	0.15
209.48	0.11
209.943	0.13
210.406	0.12
210.868	0.11
211.331	0.11
211.793	0.13
212.256	0.14
212.718	0.14
213.18	0.13
213.643	0.14
214.105	0.1
214.567	0.13
215.029	0.15
215.491	0.13
215.953	0.13
216.415	0.12
216.877	0.12
217.339	0.14
217.801	0.13
218.263	0.12
218.725	0.15
219.186	0.14
219.648	0.13
220.11	0.1
220.571	0.12
221.033	0.12
221.494	0.14
221.956	0.13
222.417	0.14
222.878	0.12
223.34	0.13
223.801	0.12
224.262	0.15
224.723	0.13
225.185	0.13
225.646	0.11
226.107	0.14
226.568	0.12
227.029	0.12
227.489	0.13
227.95	0.13
228.411	0.12
228.872	0.13
229.332	0.13
229.793	0.11
230.254	0.14
230.714	0.13
231.175	0.13
231.635	0.11
232.096	0.13
232.556	0.12
233.016	0.11
233.477	0.11
233.937	0.11
234.397	0.11
234.857	0.12
235.317	0.13
235.777	0.13
236.237	0.13
236.697	0.14
237.157	0.12
237.617	0.12
238.077	0.13
238.537	0.15
238.996	0.13
239.456	0.13
239.916	0.14
240.375	0.12
240.835	0.13
241.294	0.13
241.754	0.11
242.213	0.12
242.672	0.13
243.132	0.11
243.591	0.14
244.05	0.13
244.509	0.12
244.968	0.12
245.427	0.12
245.886	0.13
246.345	0.13
246.804	0.13
247.263	0.14
247.722	0.14
248.181	0.13
248.639	0.12
249.098	0.12
249.557	0.14
250.015	0.12
250.474	0.13
250.932	0.15
251.391	0.12
251.849	0.14
252.308	0.15
252.766	0.11
253.224	0.15
253.682	0.14
254.14	0.11
254.599	0.12
255.057	0.13
255.515	0.13
255.973	0.14
256.431	0.13
256.888	0.11
257.346	0.13
257.804	0.13
258.262	0.14
258.719	0.15
259.177	0.13
259.635	0.13
260.092	0.12
260.55	0.13
261.007	0.12
261.465	0.14
261.922	0.14
262.379	0.12
262.836	0.13
263.294	0.13
263.751	0.13
264.208	0.13
264.665	0.12
265.122	0.13
265.579	0.13
266.036	0.14
266.493	0.15
266.95	0.14
267.406	0.14
267.863	0.13
268.32	0.13
268.777	0.13
269.233	0.13
269.69	0.12
270.146	0.15
270.603	0.16
271.059	0.14
271.515	0.15
271.972	0.12
272.428	0.13
272.884	0.12
273.34	0.12
273.796	0.12
274.253	0.14
274.709	0.12
275.165	0.11
275.62	0.12
276.076	0.09
276.532	0.13
276.988	0.11
277.444	0.13
277.899	0.12
278.355	0.13
278.811	0.12
279.266	0.13
279.722	0.13
280.177	0.13
280.633	0.12
281.088	0.13
281.543	0.13
281.998	0.14
282.454	0.15
282.909	0.13
283.364	0.11
283.819	0.13
284.274	0.14
284.729	0.15
285.184	0.13
285.639	0.13
286.094	0.13
286.548	0.15
287.003	0.13
287.458	0.13
287.913	0.14
288.367	0.12
288.822	0.12
289.276	0.12
289.731	0.12
290.185	0.13
290.639	0.13
291.094	0.13
291.548	0.14
292.002	0.14
292.456	0.13
292.91	0.13
293.365	0.12
293.819	0.14
294.273	0.12
294.726	0.14
295.18	0.12
295.634	0.15
296.088	0.14
296.542	0.15
296.995	0.13
297.449	0.13
297.903	0.14
298.356	0.13
298.81	0.11
299.263	0.13
299.716	0.13
300.17	0.11
300.623	0.13
301.076	0.14
301.53	0.15
301.983	0.14
302.436	0.13
302.889	0.13
303.342	0.14
303.795	0.12
304.248	0.13
304.701	0.13
305.153	0.14
305.606	0.13
306.059	0.12
306.512	0.13
306.964	0.14
307.417	0.12
307.869	0.13
308.322	0.15
308.774	0.13
309.227	0.13
309.679	0.14
310.131	0.13
310.584	0.15
311.036	0.12
311.488	0.12
311.94	0.13
312.392	0.13
312.844	0.14
313.296	0.13
313.748	0.15
314.2	0.14
314.652	0.15
315.103	0.14
315.555	0.14
316.007	0.15
316.458	0.15
316.91	0.16
317.361	0.15
317.813	0.17
318.264	0.14
318.716	0.15
319.167	0.16
319.618	0.15
320.07	0.16
320.521	0.17
320.972	0.18
321.423	0.17
321.874	0.17
322.325	0.17
322.776	0.19
323.227	0.16
323.678	0.19
324.128	0.18
324.579	0.2
325.03	0.21
325.48	0.21
325.931	0.22
326.382	0.21
326.832	0.21
327.283	0.21
327.733	0.24
328.183	0.24
328.634	0.26
329.084	0.27
329.534	0.26
329.984	0.29
330.434	0.28
330.884	0.29
331.334	0.3
331.784	0.3
332.234	0.31
332.684	0.31
333.134	0.32
333.584	0.33
334.034	0.35
334.483	0.34
334.933	0.36
335.382	0.37
335.832	0.37
336.281	0.38
336.731	0.39
337.18	0.4
337.63	0.4
338.079	0.42
338.528	0.43
338.977	0.43
339.426	0.44
339.876	0.45
340.325	0.47
340.774	0.47
341.223	0.48
341.671	0.5
342.12	0.49
342.569	0.51
343.018	0.52
343.467	0.52
343.915	0.54
344.364	0.54
344.812	0.55
345.261	0.56
345.709	0.58
346.158	0.59
346.606	0.59
347.054	0.59
347.503	0.61
347.951	0.61
348.399	0.62
348.847	0.63
349.295	0.63
349.743	0.63
350.191	0.64
350.639	0.66
351.087	0.66
351.535	0.67
351.983	0.68
352.43	0.69
352.878	0.7
353.326	0.71
353.773	0.72
354.221	0.72
354.668	0.73
355.116	0.75
355.563	0.76
356.01	0.76
356.458	0.78
356.905	0.78
357.352	0.8
357.799	0.81
358.246	0.83
358.693	0.83
359.14	0.84
359.587	0.85
360.034	0.87
360.481	0.88
360.928	0.89
361.375	0.9
361.821	0.92
362.268	0.92
362.714	0.93
363.161	0.95
363.608	0.96
364.054	0.95
364.5	0.98
364.947	0.98
365.393	0.97
365.839	1
366.285	1
366.732	1
367.178	1
367.624	1.03
368.07	1.03
368.516	1.03
368.962	1.02
369.408	1.03
369.853	1.03
370.299	1.03
370.745	1.02
371.19	1.02
371.636	1.01
372.082	1.01
372.527	1
372.973	1
373.418	0.98
373.863	0.99
374.309	0.97
374.754	0.96
375.199	0.95
375.644	0.94
376.09	0.93
376.535	0.92
376.98	0.9
377.425	0.89
377.87	0.87
378.314	0.85
378.759	0.84
379.204	0.82
379.649	0.8
380.093	0.79
380.538	0.78
380.983	0.75
381.427	0.74
381.872	0.71
382.316	0.7
382.76	0.69
383.205	0.67
383.649	0.66
384.093	0.65
384.537	0.63
384.982	0.62
385.426	0.6
385.87	0.59
386.314	0.57
386.758	0.56
387.201	0.55
387.645	0.54
388.089	0.53
388.533	0.52
388.976	0.5
389.42	0.49
389.864	0.47
390.307	0.46
390.751	0.45
391.194	0.45
391.638	0.44
392.081	0.43
392.524	0.42
392.967	0.42
393.411	0.41
393.854	0.41
394.297	0.4
394.74	0.4
395.183	0.4
395.626	0.4
396.069	0.39
396.512	0.39
396.954	0.39
397.397	0.4
397.84	0.39
398.282	0.4
398.725	0.4
399.168	0.4
399.61	0.4
400.052	0.4
400.495	0.39
400.937	0.39
401.38	0.38
401.822	0.37
402.264	0.36
402.706	0.35
403.148	0.34
403.59	0.33
404.032	0.32
404.474	0.31
404.916	0.29
405.358	0.29
405.8	0.28
406.241	0.26
406.683	0.25
407.125	0.24
407.566	0.23
408.008	0.21
408.449	0.21
408.891	0.21
409.332	0.2
409.774	0.19
410.215	0.18
410.656	0.17
411.097	0.17
411.539	0.16
411.98	0.15
412.421	0.15
412.862	0.13
413.303	0.13
413.744	0.14
414.184	0.13
414.625	0.12
415.066	0.13
415.507	0.13
415.947	0.13
416.388	0.12
416.828	0.1
417.269	0.12
417.709	0.12
418.15	0.11
418.59	0.11
419.03	0.1
419.471	0.11
419.911	0.1
420.351	0.1
420.791	0.1
421.231	0.1
421.671	0.1
422.111	0.1
422.551	0.1
422.991	0.1
423.431	0.1
423.87	0.11
424.31	0.1
424.75	0.11
425.189	0.09
425.629	0.09
426.068	0.11
426.508	0.09
426.947	0.12
427.386	0.1
427.826	0.11
428.265	0.12
428.704	0.1
429.143	0.1
429.582	0.09
430.021	0.1
430.46	0.12
430.899	0.11
431.338	0.1
431.777	0.09
432.216	0.1
432.655	0.11
433.093	0.11
433.532	0.1
433.971	0.1
434.409	0.1
434.848	0.11
435.286	0.1
435.724	0.1
436.163	0.1
436.601	0.12
437.039	0.11
437.477	0.1
437.916	0.11
438.354	0.12
438.792	0.1
439.23	0.11
439.668	0.1
440.105	0.11
440.543	0.11
440.981	0.11
441.419	0.11
441.856	0.12
442.294	0.13
442.732	0.11
443.169	0.12
443.607	0.11
444.044	0.12
444.481	0.13
444.919	0.12
445.356	0.13
445.793	0.11
446.23	0.12
446.668	0.13
447.105	0.13
447.542	0.13
447.979	0.12
448.416	0.12
448.852	0.14
449.289	0.12
449.726	0.13
450.163	0.12
450.599	0.12
451.036	0.11
451.473	0.14
451.909	0.13
452.346	0.12
452.782	0.14
453.218	0.12
453.655	0.13
454.091	0.12
454.527	0.14
454.963	0.13
455.399	0.14
455.835	0.14
456.271	0.13
456.707	0.13
457.143	0.12
457.579	0.13
458.015	0.13
458.451	0.15
458.886	0.15
459.322	0.14
459.758	0.14
460.193	0.15
460.629	0.14
461.064	0.13
461.5	0.15
461.935	0.15
462.37	0.15
462.805	0.14
463.241	0.15
463.676	0.13
464.111	0.16
464.546	0.15
464.981	0.16
465.416	0.15
465.851	0.15
466.286	0.15
466.72	0.15
467.155	0.16
467.59	0.16
468.024	0.16
468.459	0.16
468.893	0.18
469.328	0.17
469.762	0.17
470.197	0.17
470.631	0.18
471.065	0.17
471.5	0.18
471.934	0.19
472.368	0.18
472.802	0.2
473.236	0.2
473.67	0.21
474.104	0.2
474.538	0.2
474.972	0.21
475.405	0.21
475.839	0.21
476.273	0.22
476.706	0.21
477.14	0.22
477.573	0.22
478.007	0.22
478.44	0.22
478.874	0.23
479.307	0.24
479.74	0.23
480.173	0.25
480.606	0.25
481.04	0.25
481.473	0.25
481.906	0.25
482.339	0.25
482.771	0.26
483.204	0.26
483.637	0.26
484.07	0.27
484.502	0.26
484.935	0.27
485.368	0.27
485.8	0.28
486.233	0.28
486.665	0.27
487.098	0.28
487.53	0.29
487.962	0.29
488.394	0.29
488.827	0.3
489.259	0.3
489.691	0.3
490.123	0.31
490.555	0.3
490.987	0.31
491.418	0.31
491.85	0.32
492.282	0.32
492.714	0.32
493.145	0.33
493.577	0.32
494.009	0.33
494.44	0.33
494.872	0.34
495.303	0.33
495.734	0.33
496.166	0.34
496.597	0.34
497.028	0.34
497.459	0.34
497.89	0.35
498.321	0.36
498.752	0.36
499.183	0.36
499.614	0.36
500.045	0.36
500.476	0.37
500.906	0.36
501.337	0.37
501.768	0.37
502.198	0.37
502.629	0.38
503.059	0.38
503.49	0.38
503.92	0.39
504.35	0.39
504.781	0.39
505.211	0.39
505.641	0.39
506.071	0.4
506.501	0.4
506.931	0.41
507.361	0.41
507.791	0.41
508.221	0.41
508.651	0.41
509.081	0.41
509.51	0.41
509.94	0.42
510.37	0.42
510.799	0.43
511.229	0.43
511.658	0.43
512.087	0.43
512.517	0.44
512.946	0.44
513.375	0.44
513.804	0.44
514.234	0.44
514.663	0.44
515.092	0.45
515.521	0.45
515.95	0.45
516.378	0.45
516.807	0.45
517.236	0.45
517.665	0.46
518.093	0.46
518.522	0.46
518.951	0.46
519.379	0.46
519.807	0.47
520.236	0.46
520.664	0.46
521.093	0.47
521.521	0.47
521.949	0.47
522.377	0.47
522.805	0.47
523.233	0.48
523.661	0.48
524.089	0.47
524.517	0.48
524.945	0.48
525.373	0.48
525.8	0.49
526.228	0.48
526.656	0.48
527.083	0.48
527.511	0.49
527.938	0.49
528.366	0.48
528.793	0.49
529.22	0.49
529.648	0.49
530.075	0.49
530.502	0.49
530.929	0.49
531.356	0.49
531.783	0.5
532.21	0.5
532.637	0.49
533.064	0.5
533.49	0.5
533.917	0.5
534.344	0.5
534.771	0.5
535.197	0.49
535.624	0.5
536.05	0.49
536.477	0.5
536.903	0.5
537.329	0.5
537.755	0.5
538.182	0.5
538.608	0.5
539.034	0.5
539.46	0.5
539.886	0.5
540.312	0.5
540.738	0.5
541.164	0.5
541.589	0.5
542.015	0.5
542.441	0.5
542.867	0.5
543.292	0.5
543.718	0.5
544.143	0.5
544.569	0.5
544.994	0.5
545.419	0.5
545.845	0.5
546.27	0.5
546.695	0.49
547.12	0.49
547.545	0.49
547.97	0.49
548.395	0.49
548.82	0.49
549.245	0.49
549.67	0.49
550.094	0.49
550.519	0.49
550.944	0.49
551.368	0.49
551.793	0.49
552.217	0.49
552.642	0.49
553.066	0.49
553.49	0.49
553.915	0.48
554.339	0.49
554.763	0.48
555.187	0.48
555.611	0.48
556.035	0.48
556.459	0.47
556.883	0.48
557.307	0.48
557.731	0.48
558.154	0.48
558.578	0.47
559.002	0.47
559.425	0.47
559.849	0.46
560.272	0.47
560.696	0.46
561.119	0.46
561.543	0.46
561.966	0.46
562.389	0.46
562.812	0.46
563.235	0.46
563.658	0.46
564.081	0.45
564.504	0.45
564.927	0.45
565.35	0.45
565.773	0.45
566.196	0.45
566.618	0.45
567.041	0.45
567.463	0.45
567.886	0.44
568.309	0.44
568.731	0.44
569.153	0.44
569.576	0.44
569.998	0.43
570.42	0.43
570.842	0.43
571.264	0.43
571.686	0.43
572.108	0.43
572.53	0.43
572.952	0.42
573.374	0.42
573.796	0.42
574.218	0.42
574.639	0.42
575.061	0.42
575.483	0.42
575.904	0.41
576.326	0.41
576.747	0.41
577.168	0.41
577.59	0.41
578.011	0.41
578.432	0.4
578.853	0.4
579.274	0.4
579.695	0.4
580.116	0.4
580.537	0.4
580.958	0.4
581.379	0.39
581.8	0.39
582.221	0.39
582.641	0.39
583.062	0.39
583.482	0.39
583.903	0.39
584.323	0.39
584.744	0.38
585.164	0.38
585.584	0.38
586.005	0.38
586.425	0.38
586.845	0.38
587.265	0.37
587.685	0.38
588.105	0.37
588.525	0.37
588.945	0.37
589.365	0.37
589.785	0.37
590.204	0.37
590.624	0.37
591.044	0.36
591.463	0.37
591.883	0.36
592.302	0.36
592.721	0.36
593.141	0.36
593.56	0.36
593.979	0.36
594.399	0.36
594.818	0.35
595.237	0.36
595.656	0.35
596.075	0.35
596.494	0.35
596.913	0.35
597.331	0.35
597.75	0.35
598.169	0.35
598.587	0.35
599.006	0.35
599.425	0.34
599.843	0.34
600.262	0.34
600.68	0.34
601.098	0.34
601.517	0.33
601.935	0.34
602.353	0.34
602.771	0.33
603.189	0.33
603.607	0.33
604.025	0.33
604.443	0.33
604.861	0.32
605.279	0.32
605.696	0.32
606.114	0.32
606.532	0.32
606.949	0.32
607.367	0.32
607.784	0.32
608.202	0.31
608.619	0.31
609.036	0.31
609.454	0.31
609.871	0.31
610.288	0.31
610.705	0.31
611.122	0.31
611.539	0.3
611.956	0.3
612.373	0.3
612.79	0.3
613.207	0.3
613.623	0.29
614.04	0.3
614.457	0.29
614.873	0.29
615.29	0.29
615.706	0.29
616.122	0.29
616.539	0.29
616.955	0.29
617.371	0.28
617.788	0.28
618.204	0.28
618.62	0.28
619.036	0.28
619.452	0.28
619.868	0.27
620.284	0.27
620.699	0.27
621.115	0.27
621.531	0.27
621.946	0.27
622.362	0.27
622.778	0.26
623.193	0.26
623.608	0.26
624.024	0.26
624.439	0.26
624.854	0.26
625.27	0.25
625.685	0.25
626.1	0.25
626.515	0.25
626.93	0.25
627.345	0.25
627.76	0.25
628.175	0.24
628.589	0.24
629.004	0.24
629.419	0.24
629.833	0.24
630.248	0.24
630.663	0.23
631.077	0.23
631.491	0.23
631.906	0.23
632.32	0.23
632.734	0.23
633.148	0.23
633.563	0.22
633.977	0.22
634.391	0.22
634.805	0.22
635.219	0.22
635.632	0.22
636.046	0.22
636.46	0.21
636.874	0.21
637.287	0.21
637.701	0.21
638.115	0.2
638.528	0.21
638.941	0.2
639.355	0.2
639.768	0.2
640.181	0.2
640.595	0.2
641.008	0.2
641.421	0.2
641.834	0.19
642.247	0.19
642.66	0.19
643.073	0.19
643.486	0.19
643.898	0.19
644.311	0.18
644.724	0.18
645.136	0.18
645.549	0.18
645.961	0.18
646.374	0.18
646.786	0.18
647.199	0.18
647.611	0.17
648.023	0.17
648.435	0.17
648.847	0.17
649.26	0.17
649.672	0.17
650.084	0.17
650.495	0.17
650.907	0.17
651.319	0.17
651.731	0.16
652.143	0.16
652.554	0.16
652.966	0.16
653.377	0.16
653.789	0.16
654.2	0.15
654.612	0.15
655.023	0.16
655.434	0.14
655.845	0.13
656.256	0.15
656.668	0.15
657.079	0.15
657.49	0.15
657.901	0.15
658.311	0.14
658.722	0.14
659.133	0.14
659.544	0.14
659.954	0.14
660.365	0.14
660.775	0.14
661.186	0.14
661.596	0.14
662.007	0.14
662.417	0.14
662.827	0.14
663.238	0.14
663.648	0.14
664.058	0.14
664.468	0.13
664.878	0.13
665.288	0.13
665.698	0.13
666.108	0.13
666.517	0.13
666.927	0.13
667.337	0.13
667.746	0.12
668.156	0.12
668.565	0.12
668.975	0.12
669.384	0.12
669.794	0.12
670.203	0.12
670.612	0.12
671.021	0.12
671.43	0.12
671.84	0.12
672.249	0.11
672.658	0.11
673.066	0.11
673.475	0.11
673.884	0.11
674.293	0.11
674.702	0.11
675.11	0.11
675.519	0.11
675.927	0.1
676.336	0.1
676.744	0.1
677.152	0.1
677.561	0.1
677.969	0.1
678.377	0.1
678.785	0.1
679.193	0.1
679.601	0.09
680.009	0.1
680.417	0.1
680.825	0.09
681.233	0.09
681.641	0.09
682.048	0.09
682.456	0.09
682.864	0.09
683.271	0.09
683.679	0.08
684.086	0.08
684.493	0.08
684.901	0.08
685.308	0.08
685.715	0.08
686.122	0.08
686.529	0.08
686.936	0.08
687.343	0.08
687.75	0.08
688.157	0.08
688.564	0.07
688.971	0.07
689.378	0.07
689.784	0.07
690.191	0.07
690.597	0.07
691.004	0.07
691.41	0.07
691.817	0.07
692.223	0.07
692.629	0.07
693.035	0.07
693.442	0.07
693.848	0.07
694.254	0.07
694.66	0.07
695.066	0.06
695.471	0.07
695.877	0.06
696.283	0.06
696.689	0.06
697.094	0.06
697.5	0.06
697.906	0.06
698.311	0.06
698.716	0.06
699.122	0.06
699.527	0.06
699.932	0.06
700.338	0.06
700.743	0.06
701.148	0.06
701.553	0.06
701.958	0.06
702.363	0.05
702.768	0.06
703.173	0.06
703.577	0.06
703.982	0.05
704.387	0.05
704.791	0.05
705.196	0.05
705.6	0.05
706.005	0.05
706.409	0.05
706.814	0.05
707.218	0.05
707.622	0.05
708.026	0.05
708.43	0.05
708.834	0.05
709.238	0.05
709.642	0.05
710.046	0.05
710.45	0.05
710.854	0.05
711.257	0.05
711.661	0.05
712.065	0.05
712.468	0.05
712.872	0.05
713.275	0.05
713.679	0.05
714.082	0.05
714.485	0.05
714.888	0.05
715.291	0.05
715.695	0.05
716.098	0.05
716.501	0.05
716.904	0.05
717.306	0.05
717.709	0.05
718.112	0.05
718.515	0.05
718.917	0.05
719.32	0.05
719.723	0.05
720.125	0.05
720.527	0.05
720.93	0.05
721.332	0.05
721.734	0.05
722.137	0.05
722.539	0.05
722.941	0.05
723.343	0.05
723.745	0.05
724.147	0.05
724.549	0.05
724.95	0.05
725.352	0.05
725.754	0.05
726.156	0.05
726.557	0.05
726.959	0.05
727.36	0.05
727.762	0.05
728.163	0.05
728.564	0.05
728.966	0.05
729.367	0.05
729.768	0.05
730.169	0.05
730.57	0.05
730.971	0.05
731.372	0.05
731.773	0.05
732.174	0.05
732.574	0.05
732.975	0.05
733.376	0.05
733.776	0.05
734.177	0.05
734.577	0.05
734.978	0.05
735.378	0.05
735.778	0.05
736.179	0.05
736.579	0.05
736.979	0.05
737.379	0.05
737.779	0.05
738.179	0.05
738.579	0.04
738.979	0.04
739.379	0.04
739.778	0.04
740.178	0.04
740.578	0.04
740.977	0.04
741.377	0.04
741.776	0.04
742.176	0.04
742.575	0.04
742.974	0.04
743.374	0.04
743.773	0.04
744.172	0.04
744.571	0.04
744.97	0.04
745.369	0.04
745.768	0.04
746.167	0.04
746.565	0.04
746.964	0.04
747.363	0.04
747.761	0.04
748.16	0.04
748.559	0.04
748.957	0.04
749.355	0.04
749.754	0.04
750.152	0.04
750.55	0.04
750.948	0.04
751.347	0.04
751.745	0.04
752.143	0.04
752.541	0.04
752.938	0.04
753.336	0.04
753.734	0.04
754.132	0.04
754.529	0.04
754.927	0.04
755.325	0.04
755.722	0.04
756.119	0.03
756.517	0.04
756.914	0.03
757.311	0.04
757.709	0.03
758.106	0.04
758.503	0.04
758.9	0.03
759.297	0.04
759.694	0.04
760.091	0.03
760.488	0.03
760.884	0.04
761.281	0.03
761.678	0.04
762.074	0.04
762.471	0.04
762.867	0.04
763.264	0.04
763.66	0.03
764.056	0.04
764.453	0.03
764.849	0.04
765.245	0.03
765.641	0.03
766.037	0.03
766.433	0.03
766.829	0.03
767.225	0.03
767.621	0.03
768.016	0.03
768.412	0.04
768.808	0.04
769.203	0.03
769.599	0.04
769.994	0.03
770.389	0.04
770.785	0.04
771.18	0.04
771.575	0.04
771.971	0.04
772.366	0.04
772.761	0.04
773.156	0.04
773.551	0.04
773.945	0.04
774.34	0.04
774.735	0.04
775.13	0.04
775.524	0.04
775.919	0.03
776.314	0.04
776.708	0.04
777.103	0.04
777.497	0.04
777.891	0.04
778.285	0.04
778.68	0.04
779.074	0.04
779.468	0.04
779.862	0.04
780.256	0.04
780.65	0.04
781.044	0.04
781.438	0.04
781.831	0.04
782.225	0.04
782.619	0.04
783.012	0.04
783.406	0.04
783.799	0.04
784.193	0.04
784.586	0.04
784.979	0.04
785.372	0.04
785.766	0.04
786.159	0.04
786.552	0.04
786.945	0.04
787.338	0.04
787.731	0.04
788.123	0.04
788.516	0.04
788.909	0.04
789.302	0.04
789.694	0.04
790.087	0.04
790.479	0.04
790.872	0.04
791.264	0.05
791.656	0.04
792.049	0.04
792.441	0.05
792.833	0.04
793.225	0.05
793.617	0.05
794.009	0.05
794.401	0.05
794.793	0.05
795.185	0.05
795.576	0.05
795.968	0.05
796.36	0.05
796.751	0.05
797.143	0.05
797.534	0.05
797.926	0.05
798.317	0.05
798.708	0.05
799.1	0.05
799.491	0.05
799.882	0.05
800.273	0.05
800.664	0.05
801.055	0.05
801.446	0.05
801.837	0.05
802.227	0.05
802.618	0.05
803.009	0.05
803.399	0.06
803.79	0.05
804.18	0.05
804.571	0.05
804.961	0.05
805.351	0.05
805.742	0.06
806.132	0.06
806.522	0.06
806.912	0.06
807.302	0.06
807.692	0.06
808.082	0.06
808.472	0.06
808.862	0.06
809.251	0.06
809.641	0.06
810.031	0.06
810.42	0.06
810.81	0.06
811.199	0.06
811.589	0.06
811.978	0.06
812.367	0.06
812.756	0.06
813.146	0.06
813.535	0.06
813.924	0.06
814.313	0.06
814.702	0.06
815.091	0.06
815.479	0.06
815.868	0.06
816.257	0.07
816.645	0.06
817.034	0.07
817.423	0.06
817.811	0.07
818.199	0.06
818.588	0.07
818.976	0.07
819.364	0.07
819.753	0.07
820.141	0.07
820.529	0.07
820.917	0.07
821.305	0.07
821.693	0.07
822.08	0.07
822.468	0.07
822.856	0.07
823.244	0.07
823.631	0.07
824.019	0.07
824.406	0.07
824.794	0.07
825.181	0.07
825.568	0.07
825.956	0.07
826.343	0.07
826.73	0.07
827.117	0.07
827.504	0.08
827.891	0.07
828.278	0.07
828.665	0.08
829.052	0.08
829.438	0.08
829.825	0.08
830.212	0.08
830.598	0.08
830.985	0.08
831.371	0.08
831.757	0.08
832.144	0.08
832.53	0.08
832.916	0.08
833.302	0.08
833.688	0.08
834.075	0.08
834.461	0.08
834.846	0.08
835.232	0.08
835.618	0.08
836.004	0.08
836.39	0.09
836.775	0.08
837.161	0.09
837.546	0.08
837.932	0.09
838.317	0.09
838.702	0.09
839.088	0.09
839.473	0.09
839.858	0.09
840.243	0.09
840.628	0.09
841.013	0.09
841.398	0.09
841.783	0.09
842.168	0.09
842.553	0.09
842.937	0.09
843.322	0.09
843.707	0.09
844.091	0.09
844.476	0.09
844.86	0.09
845.244	0.09
845.629	0.09
846.013	0.09
846.397	0.09
846.781	0.09
847.165	0.1
847.549	0.1
847.933	0.1
848.317	0.1
848.701	0.09
849.085	0.1
849.468	0.1
849.852	0.1
850.236	0.1
850.619	0.1
851.003	0.1
851.386	0.1
851.769	0.1
852.153	0.1
852.536	0.1
852.919	0.1
853.302	0.1
853.685	0.1
854.068	0.1
854.451	0.1
854.834	0.1
855.217	0.1
855.6	0.1
855.982	0.1
856.365	0.1
856.748	0.1
857.13	0.1
857.513	0.1
857.895	0.11
858.277	0.1
858.66	0.11
859.042	0.11
859.424	0.11
859.806	0.11
860.188	0.11
860.57	0.11
860.952	0.11
861.334	0.11
861.716	0.11
862.098	0.11
862.48	0.11
862.861	0.11
863.243	0.11
863.624	0.11
864.006	0.11
864.387	0.11
864.769	0.11
865.15	0.11
865.531	0.11
865.912	0.11
866.294	0.11
866.675	0.11
867.056	0.11
867.437	0.12
867.818	0.12
868.198	0.12
868.579	0.12
868.96	0.12
869.341	0.12
869.721	0.12
870.102	0.12
870.482	0.12
870.863	0.12
871.243	0.12
871.623	0.12
872.003	0.12
872.384	0.12
872.764	0.12
873.144	0.12
873.524	0.12
873.904	0.12
874.284	0.12
874.664	0.12
875.043	0.12
875.423	0.12
875.803	0.12
876.182	0.12
876.562	0.12
876.941	0.12
877.321	0.12
877.7	0.12
878.079	0.13
878.459	0.12
878.838	0.13
879.217	0.13
879.596	0.13
879.975	0.13
880.354	0.13
880.733	0.13
881.112	0.13
881.491	0.13
881.869	0.13
882.248	0.13
882.627	0.13
883.005	0.13
883.384	0.13
883.762	0.13
884.14	0.13
884.519	0.13
884.897	0.13
885.275	0.13
885.653	0.13
886.031	0.13
886.409	0.13
886.787	0.13
887.165	0.13
887.543	0.13
887.921	0.13
888.298	0.13
888.676	0.13
889.054	0.13
889.431	0.13
889.809	0.13
890.186	0.13
890.563	0.13
890.941	0.13
891.318	0.13
891.695	0.14
892.072	0.13
892.449	0.14
892.826	0.14
893.203	0.14
893.58	0.14
893.957	0.14
894.334	0.14
894.71	0.13
895.087	0.14
895.464	0.14
895.84	0.14
896.217	0.14
896.593	0.14
896.969	0.14
897.346	0.14
897.722	0.14
898.098	0.14
898.474	0.14
898.85	0.14
899.226	0.14
899.602	0.14
899.978	0.14
900.354	0.14
900.73	0.14
901.105	0.14
901.481	0.14
901.857	0.14
902.232	0.14
902.608	0.14
902.983	0.14
903.358	0.14
903.734	0.14
904.109	0.14
904.484	0.14
904.859	0.14
905.234	0.14
905.609	0.14
905.984	0.14
906.359	0.14
906.734	0.14
907.108	0.14
907.483	0.14
907.858	0.14
908.232	0.14
908.607	0.14
908.981	0.14
909.356	0.14
909.73	0.14
910.104	0.15
910.478	0.14
910.853	0.15
911.227	0.14
911.601	0.14
911.975	0.15
912.349	0.15
912.722	0.15
913.096	0.15
913.47	0.14
913.844	0.15
914.217	0.15
914.591	0.15
914.964	0.15
915.338	0.15
915.711	0.14
916.084	0.15
916.458	0.15
916.831	0.15
917.204	0.15
917.577	0.15
917.95	0.15
918.323	0.15
918.696	0.15
919.069	0.15
919.441	0.15
919.814	0.15
920.187	0.15
920.559	0.15
920.932	0.15
921.304	0.15
921.677	0.14
922.049	0.15
922.421	0.15
922.794	0.15
923.166	0.15
923.538	0.15
923.91	0.15
924.282	0.15
924.654	0.15
925.026	0.15
925.398	0.15
925.769	0.15
926.141	0.15
926.513	0.15
926.884	0.15
927.256	0.15
927.627	0.15
927.999	0.15
928.37	0.15
928.741	0.15
929.113	0.15
929.484	0.15
929.855	0.15
930.226	0.15
930.597	0.15
930.968	0.15
931.339	0.15
931.709	0.15
932.08	0.15
932.451	0.15
932.821	0.15
933.192	0.15
933.562	0.15
933.933	0.15
934.303	0.15
934.673	0.15
935.044	0.15
935.414	0.15
935.784	0.15
936.154	0.15
936.524	0.15
936.894	0.15
937.264	0.15
937.634	0.15
938.004	0.15
938.373	0.15
938.743	0.15
939.113	0.15
939.482	0.15
939.852	0.15
940.221	0.15
940.59	0.15
940.96	0.15
941.329	0.15
941.698	0.15
942.067	0.15
942.436	0.15
942.805	0.15
943.174	0.15
943.543	0.15
943.912	0.15
944.28	0.15
944.649	0.15
945.018	0.15
945.386	0.15
945.755	0.15
946.123	0.15
946.492	0.15
946.86	0.15
947.228	0.15
947.596	0.15
947.965	0.15
948.333	0.15
948.701	0.15
949.069	0.15
949.437	0.15
949.804	0.15
950.172	0.15
950.54	0.15
950.908	0.15
951.275	0.15
951.643	0.15
952.01	0.15
952.378	0.15
952.745	0.15
953.112	0.15
953.479	0.15
953.847	0.15
954.214	0.15
954.581	0.15
954.948	0.15
955.315	0.15
955.682	0.14
956.048	0.15
956.415	0.14
956.782	0.15
957.148	0.14
957.515	0.15
957.881	0.14
958.248	0.15
958.614	0.15
958.981	0.15
959.347	0.15
959.713	0.15
960.079	0.15
960.445	0.14
960.811	0.15
961.177	0.15
961.543	0.14
961.909	0.15
962.275	0.14
962.641	0.15
963.006	0.15
963.372	0.14
963.737	0.14
964.103	0.14
964.468	0.14
964.834	0.14
965.199	0.15
965.564	0.14
965.929	0.14
966.294	0.14
966.659	0.14
967.024	0.14
967.389	0.14
967.754	0.14
968.119	0.14
968.484	0.14
968.848	0.14
969.213	0.14
969.578	0.14
969.942	0.14
970.307	0.14
970.671	0.14
971.035	0.14
971.399	0.14
971.764	0.14
972.128	0.14
972.492	0.14
972.856	0.14
973.22	0.14
973.584	0.14
973.948	0.14
974.311	0.14
974.675	0.14
975.039	0.14
975.402	0.14
975.766	0.14
976.129	0.14
976.493	0.15
976.856	0.14
977.219	0.14
977.582	0.14
977.946	0.14
978.309	0.14
978.672	0.14
979.035	0.14
979.398	0.14
979.761	0.14
980.123	0.13
980.486	0.14
980.849	0.14
981.211	0.14
981.574	0.14
981.936	0.14
982.299	0.14
982.661	0.14
983.023	0.14
983.386	0.14
983.748	0.14
984.11	0.13
984.472	0.14
984.834	0.14
985.196	0.14
985.558	0.14
985.92	0.14
986.281	0.14
986.643	0.14
987.005	0.14
987.366	0.13
987.728	0.13
988.089	0.14
988.451	0.14
988.812	0.13
989.173	0.13
989.534	0.13
989.895	0.14
990.257	0.14
990.618	0.13
990.979	0.13
991.339	0.13
991.7	0.13
992.061	0.13
992.422	0.13
992.782	0.14
993.143	0.13
993.503	0.14
993.864	0.13
994.224	0.13
994.585	0.13
994.945	0.13
995.305	0.13
995.665	0.13
996.025	0.14
996.385	0.13
996.745	0.13
997.105	0.13
997.465	0.13
997.825	0.13
998.185	0.13
998.544	0.13
998.904	0.13
999.263	0.13
999.623	0.13
999.982	0.13
1000.342	0.13
1000.701	0.13
1001.06	0.13
1001.419	0.12
1001.778	0.13
1002.138	0.13
1002.497	0.13
1002.855	0.13
1003.214	0.13
1003.573	0.13
1003.932	0.13
1004.29	0.13
1004.649	0.13
1005.008	0.13
1005.366	0.12
1005.725	0.13
1006.083	0.13
1006.441	0.12
1006.799	0.13
1007.158	0.13
1007.516	0.12
1007.874	0.13
1008.232	0.13
1008.59	0.13
1008.948	0.12
1009.305	0.13
1009.663	0.12
1010.021	0.12
1010.379	0.13
1010.736	0.13
1011.094	0.13
1011.451	0.12
1011.808	0.12
1012.166	0.13
1012.523	0.12
1012.88	0.12
1013.237	0.13
1013.594	0.12
1013.951	0.12
1014.308	0.13
1014.665	0.12
1015.022	0.13
1015.379	0.12
1015.735	0.12
1016.092	0.12
1016.449	0.13
1016.805	0.12
1017.162	0.12
1017.518	0.12
1017.874	0.12
1018.231	0.12
1018.587	0.12
1018.943	0.13
1019.299	0.12
1019.655	0.12
1020.011	0.12
1020.367	0.12
1020.723	0.13
1021.078	0.12
1021.434	0.12
1021.79	0.12
1022.145	0.13
1022.501	0.12
1022.856	0.12
1023.212	0.12
1023.567	0.12
1023.922	0.12
1024.278	0.12
1024.633	0.12
1024.988	0.12
1025.343	0.12
1025.698	0.12
1026.053	0.12
1026.408	0.12
1026.762	0.11
1027.117	0.11
1027.472	0.11
1027.826	0.11
1028.181	0.11
1028.535	0.12
1028.89	0.11
1029.244	0.12
1029.598	0.11
1029.952	0.12
1030.307	0.11
1030.661	0.11
1031.015	0.11
1031.369	0.11
1031.723	0.11
1032.076	0.12
