Data from Rubpy_BV_EDTA_TU(3000)_Blank_Blue_Flow_Absorbance__702__12-58-24-846.txt Node

Date: Mon Aug 03 12:58:24 BST 2026
User: fpm-admin
Spectrometer: SR600986
Trigger mode: 0
Integration Time (sec): 8.000000E-3
Scans to average: 3
Nonlinearity correction enabled: true
Boxcar width: 0
Storing dark spectrum: false
XAxis mode: Wavelengths
Number of Pixels in Spectrum: 2048
>>>>>Begin Spectral Data<<<<<
188.613	0.19
189.078	0.2
189.542	0.16
190.007	0.21
190.472	0.17
190.936	0.17
191.401	0.21
191.865	0.16
192.33	0.19
192.794	0.21
193.258	0.17
193.723	0.21
194.187	0.19
194.651	0.17
195.115	0.19
195.579	0.2
196.043	0.19
196.507	0.16
196.971	0.2
197.435	0.22
197.899	0.17
198.363	0.2
198.827	0.19
199.29	0.19
199.754	0.2
200.218	0.19
200.681	0.2
201.145	0.2
201.608	0.16
202.072	0.2
202.535	0.17
202.998	0.21
203.462	0.23
203.925	0.18
204.388	0.17
204.851	0.19
205.314	0.19
205.777	0.19
206.24	0.18
206.703	0.19
207.166	0.17
207.629	0.2
208.092	0.19
208.555	0.21
209.018	0.17
209.48	0.18
209.943	0.2
210.406	0.21
210.868	0.18
211.331	0.17
211.793	0.2
212.256	0.2
212.718	0.21
213.18	0.18
213.643	0.2
214.105	0.16
214.567	0.17
215.029	0.21
215.491	0.17
215.953	0.17
216.415	0.19
216.877	0.17
217.339	0.2
217.801	0.19
218.263	0.17
218.725	0.21
219.186	0.2
219.648	0.17
220.11	0.17
220.571	0.17
221.033	0.19
221.494	0.19
221.956	0.21
222.417	0.17
222.878	0.18
223.34	0.17
223.801	0.21
224.262	0.19
224.723	0.16
225.185	0.18
225.646	0.18
226.107	0.21
226.568	0.16
227.029	0.21
227.489	0.18
227.95	0.2
228.411	0.18
228.872	0.2
229.332	0.16
229.793	0.16
230.254	0.19
230.714	0.18
231.175	0.18
231.635	0.19
232.096	0.17
232.556	0.18
233.016	0.19
233.477	0.2
233.937	0.16
234.397	0.18
234.857	0.19
235.317	0.2
235.777	0.18
236.237	0.19
236.697	0.23
237.157	0.18
237.617	0.16
238.077	0.17
238.537	0.19
238.996	0.16
239.456	0.17
239.916	0.2
240.375	0.16
240.835	0.18
241.294	0.2
241.754	0.17
242.213	0.17
242.672	0.18
243.132	0.17
243.591	0.22
244.05	0.18
244.509	0.17
244.968	0.19
245.427	0.18
245.886	0.2
246.345	0.16
246.804	0.21
247.263	0.19
247.722	0.19
248.181	0.18
248.639	0.18
249.098	0.19
249.557	0.2
250.015	0.2
250.474	0.16
250.932	0.23
251.391	0.17
251.849	0.22
252.308	0.2
252.766	0.17
253.224	0.19
253.682	0.2
254.14	0.18
254.599	0.2
255.057	0.2
255.515	0.16
255.973	0.21
256.431	0.19
256.888	0.15
257.346	0.21
257.804	0.18
258.262	0.2
258.719	0.2
259.177	0.18
259.635	0.18
260.092	0.2
260.55	0.21
261.007	0.17
261.465	0.19
261.922	0.21
262.379	0.15
262.836	0.21
263.294	0.18
263.751	0.19
264.208	0.19
264.665	0.15
265.122	0.21
265.579	0.19
266.036	0.18
266.493	0.18
266.95	0.2
267.406	0.19
267.863	0.19
268.32	0.19
268.777	0.17
269.233	0.19
269.69	0.19
270.146	0.19
270.603	0.2
271.059	0.18
271.515	0.19
271.972	0.2
272.428	0.14
272.884	0.21
273.34	0.2
273.796	0.16
274.253	0.19
274.709	0.17
275.165	0.19
275.62	0.19
276.076	0.15
276.532	0.21
276.988	0.17
277.444	0.17
277.899	0.18
278.355	0.21
278.811	0.18
279.266	0.19
279.722	0.19
280.177	0.19
280.633	0.16
281.088	0.2
281.543	0.21
281.998	0.2
282.454	0.18
282.909	0.19
283.364	0.18
283.819	0.19
284.274	0.18
284.729	0.19
285.184	0.2
285.639	0.17
286.094	0.21
286.548	0.18
287.003	0.21
287.458	0.18
287.913	0.15
288.367	0.19
288.822	0.19
289.276	0.19
289.731	0.18
290.185	0.17
290.639	0.21
291.094	0.16
291.548	0.19
292.002	0.22
292.456	0.2
292.91	0.2
293.365	0.17
293.819	0.22
294.273	0.18
294.726	0.2
295.18	0.18
295.634	0.2
296.088	0.19
296.542	0.18
296.995	0.19
297.449	0.21
297.903	0.19
298.356	0.19
298.81	0.16
299.263	0.22
299.716	0.18
300.17	0.2
300.623	0.17
301.076	0.2
301.53	0.18
301.983	0.21
302.436	0.21
302.889	0.19
303.342	0.19
303.795	0.18
304.248	0.23
304.701	0.19
305.153	0.16
305.606	0.21
306.059	0.19
306.512	0.18
306.964	0.21
307.417	0.18
307.869	0.19
308.322	0.22
308.774	0.22
309.227	0.18
309.679	0.22
310.131	0.2
310.584	0.22
311.036	0.19
311.488	0.19
311.94	0.2
312.392	0.18
312.844	0.2
313.296	0.19
313.748	0.19
314.2	0.23
314.652	0.21
315.103	0.2
315.555	0.2
316.007	0.23
316.458	0.22
316.91	0.2
317.361	0.2
317.813	0.26
318.264	0.21
318.716	0.2
319.167	0.25
319.618	0.23
320.07	0.24
320.521	0.23
320.972	0.25
321.423	0.23
321.874	0.23
322.325	0.27
322.776	0.27
323.227	0.25
323.678	0.26
324.128	0.28
324.579	0.29
325.03	0.27
325.48	0.32
325.931	0.31
326.382	0.31
326.832	0.31
327.283	0.33
327.733	0.33
328.183	0.33
328.634	0.38
329.084	0.36
329.534	0.39
329.984	0.41
330.434	0.37
330.884	0.44
331.334	0.44
331.784	0.45
332.234	0.46
332.684	0.47
333.134	0.47
333.584	0.49
334.034	0.5
334.483	0.52
334.933	0.52
335.382	0.55
335.832	0.55
336.281	0.55
336.731	0.58
337.18	0.57
337.63	0.61
338.079	0.6
338.528	0.62
338.977	0.64
339.426	0.66
339.876	0.67
340.325	0.67
340.774	0.69
341.223	0.71
341.671	0.72
342.12	0.73
342.569	0.73
343.018	0.77
343.467	0.75
343.915	0.79
344.364	0.79
344.812	0.81
345.261	0.82
345.709	0.83
346.158	0.86
346.606	0.86
347.054	0.86
347.503	0.88
347.951	0.89
348.399	0.88
348.847	0.92
349.295	0.9
349.743	0.91
350.191	0.94
350.639	0.94
351.087	0.96
351.535	0.97
351.983	0.97
352.43	0.98
352.878	0.98
353.326	1.01
353.773	1.01
354.221	1.04
354.668	1.02
355.116	1.07
355.563	1.06
356.01	1.09
356.458	1.08
356.905	1.12
357.352	1.11
357.799	1.12
358.246	1.15
358.693	1.16
359.14	1.17
359.587	1.18
360.034	1.19
360.481	1.22
360.928	1.19
361.375	1.25
361.821	1.24
362.268	1.27
362.714	1.28
363.161	1.3
363.608	1.29
364.054	1.3
364.5	1.33
364.947	1.3
365.393	1.32
365.839	1.36
366.285	1.34
366.732	1.35
367.178	1.36
367.624	1.36
368.07	1.38
368.516	1.36
368.962	1.37
369.408	1.37
369.853	1.38
370.299	1.37
370.745	1.35
371.19	1.37
371.636	1.36
372.082	1.37
372.527	1.34
372.973	1.36
373.418	1.35
373.863	1.33
374.309	1.29
374.754	1.33
375.199	1.32
375.644	1.28
376.09	1.3
376.535	1.27
376.98	1.25
377.425	1.24
377.87	1.23
378.314	1.21
378.759	1.19
379.204	1.17
379.649	1.15
380.093	1.12
380.538	1.11
380.983	1.09
381.427	1.06
381.872	1.03
382.316	1.03
382.76	0.99
383.205	0.97
383.649	0.96
384.093	0.94
384.537	0.91
384.982	0.89
385.426	0.87
385.87	0.86
386.314	0.84
386.758	0.82
387.201	0.8
387.645	0.78
388.089	0.76
388.533	0.74
388.976	0.73
389.42	0.71
389.864	0.7
390.307	0.68
390.751	0.67
391.194	0.64
391.638	0.63
392.081	0.63
392.524	0.62
392.967	0.6
393.411	0.59
393.854	0.58
394.297	0.58
394.74	0.57
395.183	0.57
395.626	0.56
396.069	0.56
396.512	0.55
396.954	0.55
397.397	0.57
397.84	0.55
398.282	0.56
398.725	0.57
399.168	0.55
399.61	0.56
400.052	0.56
400.495	0.55
400.937	0.53
401.38	0.52
401.822	0.53
402.264	0.51
402.706	0.49
403.148	0.48
403.59	0.46
404.032	0.45
404.474	0.44
404.916	0.41
405.358	0.4
405.8	0.39
406.241	0.37
406.683	0.35
407.125	0.35
407.566	0.32
408.008	0.32
408.449	0.31
408.891	0.29
409.332	0.28
409.774	0.27
410.215	0.25
410.656	0.25
411.097	0.24
411.539	0.23
411.98	0.22
412.421	0.22
412.862	0.21
413.303	0.2
413.744	0.2
414.184	0.19
414.625	0.19
415.066	0.19
415.507	0.18
415.947	0.19
416.388	0.18
416.828	0.17
417.269	0.16
417.709	0.17
418.15	0.16
418.59	0.16
419.03	0.18
419.471	0.15
419.911	0.16
420.351	0.15
420.791	0.16
421.231	0.15
421.671	0.14
422.111	0.15
422.551	0.15
422.991	0.14
423.431	0.15
423.87	0.15
424.31	0.15
424.75	0.15
425.189	0.16
425.629	0.15
426.068	0.15
426.508	0.13
426.947	0.15
427.386	0.15
427.826	0.15
428.265	0.16
428.704	0.14
429.143	0.14
429.582	0.14
430.021	0.16
430.46	0.15
430.899	0.15
431.338	0.15
431.777	0.15
432.216	0.14
432.655	0.15
433.093	0.15
433.532	0.15
433.971	0.14
434.409	0.15
434.848	0.15
435.286	0.14
435.724	0.15
436.163	0.15
436.601	0.15
437.039	0.17
437.477	0.14
437.916	0.18
438.354	0.16
438.792	0.14
439.23	0.16
439.668	0.17
440.105	0.16
440.543	0.18
440.981	0.17
441.419	0.17
441.856	0.17
442.294	0.17
442.732	0.16
443.169	0.18
443.607	0.16
444.044	0.18
444.481	0.18
444.919	0.14
445.356	0.18
445.793	0.17
446.23	0.19
446.668	0.17
447.105	0.16
447.542	0.2
447.979	0.17
448.416	0.19
448.852	0.19
449.289	0.19
449.726	0.18
450.163	0.18
450.599	0.17
451.036	0.19
451.473	0.2
451.909	0.18
452.346	0.17
452.782	0.19
453.218	0.18
453.655	0.19
454.091	0.19
454.527	0.2
454.963	0.2
455.399	0.21
455.835	0.22
456.271	0.16
456.707	0.2
457.143	0.19
457.579	0.2
458.015	0.2
458.451	0.19
458.886	0.19
459.322	0.2
459.758	0.19
460.193	0.22
460.629	0.2
461.064	0.23
461.5	0.22
461.935	0.19
462.37	0.22
462.805	0.21
463.241	0.23
463.676	0.22
464.111	0.21
464.546	0.24
464.981	0.22
465.416	0.23
465.851	0.23
466.286	0.22
466.72	0.23
467.155	0.23
467.59	0.25
468.024	0.24
468.459	0.25
468.893	0.26
469.328	0.26
469.762	0.26
470.197	0.26
470.631	0.27
471.065	0.28
471.5	0.26
471.934	0.29
472.368	0.28
472.802	0.29
473.236	0.3
473.67	0.3
474.104	0.3
474.538	0.31
474.972	0.31
475.405	0.32
475.839	0.32
476.273	0.33
476.706	0.33
477.14	0.35
477.573	0.34
478.007	0.35
478.44	0.35
478.874	0.35
479.307	0.36
479.74	0.36
480.173	0.37
480.606	0.37
481.04	0.38
481.473	0.39
481.906	0.38
482.339	0.39
482.771	0.4
483.204	0.4
483.637	0.4
484.07	0.4
484.502	0.41
484.935	0.42
485.368	0.42
485.8	0.43
486.233	0.43
486.665	0.43
487.098	0.44
487.53	0.44
487.962	0.45
488.394	0.45
488.827	0.46
489.259	0.46
489.691	0.46
490.123	0.46
490.555	0.46
490.987	0.48
491.418	0.48
491.85	0.49
492.282	0.49
492.714	0.49
493.145	0.5
493.577	0.5
494.009	0.5
494.44	0.51
494.872	0.51
495.303	0.52
495.734	0.52
496.166	0.52
496.597	0.53
497.028	0.53
497.459	0.53
497.89	0.54
498.321	0.54
498.752	0.55
499.183	0.55
499.614	0.55
500.045	0.55
500.476	0.56
500.906	0.57
501.337	0.57
501.768	0.58
502.198	0.57
502.629	0.59
503.059	0.59
503.49	0.59
503.92	0.59
504.35	0.59
504.781	0.61
505.211	0.6
505.641	0.6
506.071	0.61
506.501	0.62
506.931	0.61
507.361	0.62
507.791	0.63
508.221	0.64
508.651	0.63
509.081	0.63
509.51	0.64
509.94	0.64
510.37	0.65
510.799	0.65
511.229	0.66
511.658	0.65
512.087	0.66
512.517	0.66
512.946	0.67
513.375	0.68
513.804	0.67
514.234	0.67
514.663	0.68
515.092	0.68
515.521	0.68
515.95	0.68
516.378	0.69
516.807	0.69
517.236	0.7
517.665	0.69
518.093	0.7
518.522	0.7
518.951	0.71
519.379	0.71
519.807	0.71
520.236	0.7
520.664	0.72
521.093	0.72
521.521	0.71
521.949	0.72
522.377	0.72
522.805	0.71
523.233	0.72
523.661	0.73
524.089	0.72
524.517	0.72
524.945	0.73
525.373	0.73
525.8	0.74
526.228	0.74
526.656	0.73
527.083	0.74
527.511	0.74
527.938	0.74
528.366	0.74
528.793	0.75
529.22	0.75
529.648	0.75
530.075	0.75
530.502	0.75
530.929	0.75
531.356	0.74
531.783	0.76
532.21	0.76
532.637	0.75
533.064	0.76
533.49	0.75
533.917	0.76
534.344	0.76
534.771	0.75
535.197	0.76
535.624	0.76
536.05	0.76
536.477	0.76
536.903	0.76
537.329	0.76
537.755	0.77
538.182	0.76
538.608	0.76
539.034	0.76
539.46	0.76
539.886	0.77
540.312	0.76
540.738	0.76
541.164	0.76
541.589	0.76
542.015	0.76
542.441	0.76
542.867	0.76
543.292	0.76
543.718	0.76
544.143	0.75
544.569	0.76
544.994	0.75
545.419	0.76
545.845	0.76
546.27	0.75
546.695	0.76
547.12	0.75
547.545	0.75
547.97	0.75
548.395	0.75
548.82	0.75
549.245	0.75
549.67	0.75
550.094	0.75
550.519	0.74
550.944	0.74
551.368	0.74
551.793	0.74
552.217	0.74
552.642	0.74
553.066	0.74
553.49	0.74
553.915	0.74
554.339	0.73
554.763	0.73
555.187	0.73
555.611	0.73
556.035	0.73
556.459	0.72
556.883	0.72
557.307	0.72
557.731	0.72
558.154	0.72
558.578	0.72
559.002	0.71
559.425	0.71
559.849	0.71
560.272	0.71
560.696	0.7
561.119	0.71
561.543	0.7
561.966	0.7
562.389	0.7
562.812	0.69
563.235	0.69
563.658	0.69
564.081	0.69
564.504	0.68
564.927	0.68
565.35	0.68
565.773	0.68
566.196	0.68
566.618	0.67
567.041	0.68
567.463	0.67
567.886	0.67
568.309	0.67
568.731	0.67
569.153	0.66
569.576	0.66
569.998	0.66
570.42	0.66
570.842	0.66
571.264	0.65
571.686	0.65
572.108	0.65
572.53	0.64
572.952	0.64
573.374	0.64
573.796	0.64
574.218	0.64
574.639	0.63
575.061	0.63
575.483	0.63
575.904	0.63
576.326	0.62
576.747	0.62
577.168	0.62
577.59	0.61
578.011	0.61
578.432	0.61
578.853	0.61
579.274	0.61
579.695	0.6
580.116	0.6
580.537	0.6
580.958	0.6
581.379	0.59
581.8	0.59
582.221	0.59
582.641	0.59
583.062	0.58
583.482	0.58
583.903	0.58
584.323	0.58
584.744	0.57
585.164	0.57
585.584	0.57
586.005	0.57
586.425	0.57
586.845	0.56
587.265	0.56
587.685	0.56
588.105	0.56
588.525	0.56
588.945	0.56
589.365	0.55
589.785	0.55
590.204	0.55
590.624	0.55
591.044	0.55
591.463	0.55
591.883	0.54
592.302	0.54
592.721	0.54
593.141	0.54
593.56	0.54
593.979	0.53
594.399	0.53
594.818	0.53
595.237	0.53
595.656	0.53
596.075	0.53
596.494	0.52
596.913	0.52
597.331	0.52
597.75	0.52
598.169	0.52
598.587	0.51
599.006	0.51
599.425	0.51
599.843	0.51
600.262	0.51
600.68	0.51
601.098	0.5
601.517	0.5
601.935	0.5
602.353	0.5
602.771	0.49
603.189	0.49
603.607	0.49
604.025	0.48
604.443	0.49
604.861	0.48
605.279	0.48
605.696	0.48
606.114	0.48
606.532	0.48
606.949	0.48
607.367	0.47
607.784	0.47
608.202	0.46
608.619	0.47
609.036	0.46
609.454	0.46
609.871	0.46
610.288	0.45
610.705	0.45
611.122	0.45
611.539	0.45
611.956	0.45
612.373	0.45
612.79	0.44
613.207	0.44
613.623	0.44
614.04	0.43
614.457	0.43
614.873	0.43
615.29	0.43
615.706	0.43
616.122	0.42
616.539	0.42
616.955	0.42
617.371	0.42
617.788	0.42
618.204	0.41
618.62	0.41
619.036	0.41
619.452	0.41
619.868	0.4
620.284	0.4
620.699	0.4
621.115	0.4
621.531	0.4
621.946	0.39
622.362	0.39
622.778	0.39
623.193	0.39
623.608	0.38
624.024	0.38
624.439	0.38
624.854	0.38
625.27	0.37
625.685	0.37
626.1	0.37
626.515	0.37
626.93	0.37
627.345	0.37
627.76	0.36
628.175	0.36
628.589	0.35
629.004	0.35
629.419	0.35
629.833	0.35
630.248	0.35
630.663	0.34
631.077	0.34
631.491	0.34
631.906	0.34
632.32	0.33
632.734	0.33
633.148	0.33
633.563	0.33
633.977	0.32
634.391	0.33
634.805	0.32
635.219	0.32
635.632	0.32
636.046	0.31
636.46	0.31
636.874	0.31
637.287	0.3
637.701	0.3
638.115	0.3
638.528	0.3
638.941	0.3
639.355	0.29
639.768	0.29
640.181	0.29
640.595	0.29
641.008	0.29
641.421	0.29
641.834	0.28
642.247	0.28
642.66	0.28
643.073	0.27
643.486	0.27
643.898	0.27
644.311	0.27
644.724	0.27
645.136	0.27
645.549	0.26
645.961	0.26
646.374	0.26
646.786	0.26
647.199	0.26
647.611	0.25
648.023	0.25
648.435	0.25
648.847	0.25
649.26	0.25
649.672	0.25
650.084	0.24
650.495	0.24
650.907	0.24
651.319	0.24
651.731	0.23
652.143	0.24
652.554	0.23
652.966	0.23
653.377	0.23
653.789	0.23
654.2	0.22
654.612	0.22
655.023	0.23
655.434	0.21
655.845	0.2
656.256	0.22
656.668	0.22
657.079	0.22
657.49	0.21
657.901	0.21
658.311	0.21
658.722	0.21
659.133	0.21
659.544	0.21
659.954	0.21
660.365	0.21
660.775	0.2
661.186	0.2
661.596	0.2
662.007	0.2
662.417	0.2
662.827	0.2
663.238	0.2
663.648	0.2
664.058	0.2
664.468	0.19
664.878	0.19
665.288	0.19
665.698	0.19
666.108	0.19
666.517	0.18
666.927	0.18
667.337	0.18
667.746	0.18
668.156	0.18
668.565	0.18
668.975	0.18
669.384	0.18
669.794	0.18
670.203	0.17
670.612	0.17
671.021	0.17
671.43	0.17
671.84	0.17
672.249	0.17
672.658	0.16
673.066	0.16
673.475	0.16
673.884	0.16
674.293	0.16
674.702	0.16
675.11	0.15
675.519	0.16
675.927	0.15
676.336	0.15
676.744	0.15
677.152	0.15
677.561	0.15
677.969	0.14
678.377	0.14
678.785	0.14
679.193	0.14
679.601	0.14
680.009	0.14
680.417	0.14
680.825	0.14
681.233	0.13
681.641	0.13
682.048	0.13
682.456	0.13
682.864	0.13
683.271	0.13
683.679	0.12
684.086	0.12
684.493	0.12
684.901	0.12
685.308	0.12
685.715	0.12
686.122	0.12
686.529	0.12
686.936	0.11
687.343	0.11
687.75	0.11
688.157	0.11
688.564	0.11
688.971	0.11
689.378	0.11
689.784	0.11
690.191	0.11
690.597	0.1
691.004	0.1
691.41	0.1
691.817	0.1
692.223	0.1
692.629	0.1
693.035	0.1
693.442	0.1
693.848	0.1
694.254	0.09
694.66	0.09
695.066	0.1
695.471	0.09
695.877	0.09
696.283	0.09
696.689	0.09
697.094	0.09
697.5	0.09
697.906	0.09
698.311	0.09
698.716	0.09
699.122	0.08
699.527	0.08
699.932	0.08
700.338	0.08
700.743	0.08
701.148	0.08
701.553	0.08
701.958	0.08
702.363	0.08
702.768	0.08
703.173	0.08
703.577	0.08
703.982	0.08
704.387	0.08
704.791	0.08
705.196	0.08
705.6	0.07
706.005	0.08
706.409	0.07
706.814	0.08
707.218	0.07
707.622	0.07
708.026	0.07
708.43	0.07
708.834	0.08
709.238	0.07
709.642	0.07
710.046	0.07
710.45	0.07
710.854	0.07
711.257	0.07
711.661	0.07
712.065	0.07
712.468	0.07
712.872	0.07
713.275	0.07
713.679	0.07
714.082	0.07
714.485	0.07
714.888	0.07
715.291	0.07
715.695	0.07
716.098	0.07
716.501	0.07
716.904	0.07
717.306	0.07
717.709	0.07
718.112	0.07
718.515	0.07
718.917	0.07
719.32	0.07
719.723	0.07
720.125	0.07
720.527	0.07
720.93	0.07
721.332	0.07
721.734	0.07
722.137	0.07
722.539	0.07
722.941	0.07
723.343	0.07
723.745	0.07
724.147	0.07
724.549	0.07
724.95	0.07
725.352	0.07
725.754	0.07
726.156	0.07
726.557	0.07
726.959	0.07
727.36	0.07
727.762	0.07
728.163	0.07
728.564	0.07
728.966	0.07
729.367	0.07
729.768	0.07
730.169	0.07
730.57	0.07
730.971	0.07
731.372	0.07
731.773	0.07
732.174	0.07
732.574	0.07
732.975	0.07
733.376	0.07
733.776	0.07
734.177	0.07
734.577	0.07
734.978	0.07
735.378	0.07
735.778	0.07
736.179	0.06
736.579	0.06
736.979	0.07
737.379	0.06
737.779	0.06
738.179	0.06
738.579	0.06
738.979	0.06
739.379	0.06
739.778	0.06
740.178	0.06
740.578	0.06
740.977	0.06
741.377	0.06
741.776	0.06
742.176	0.06
742.575	0.06
742.974	0.06
743.374	0.06
743.773	0.06
744.172	0.06
744.571	0.06
744.97	0.06
745.369	0.06
745.768	0.06
746.167	0.06
746.565	0.06
746.964	0.06
747.363	0.06
747.761	0.06
748.16	0.06
748.559	0.06
748.957	0.06
749.355	0.06
749.754	0.06
750.152	0.06
750.55	0.06
750.948	0.05
751.347	0.05
751.745	0.06
752.143	0.06
752.541	0.05
752.938	0.05
753.336	0.05
753.734	0.06
754.132	0.05
754.529	0.05
754.927	0.05
755.325	0.05
755.722	0.05
756.119	0.05
756.517	0.05
756.914	0.05
757.311	0.05
757.709	0.05
758.106	0.05
758.503	0.05
758.9	0.05
759.297	0.05
759.694	0.05
760.091	0.05
760.488	0.05
760.884	0.05
761.281	0.05
761.678	0.05
762.074	0.05
762.471	0.05
762.867	0.05
763.264	0.05
763.66	0.05
764.056	0.05
764.453	0.05
764.849	0.05
765.245	0.05
765.641	0.05
766.037	0.05
766.433	0.05
766.829	0.05
767.225	0.05
767.621	0.05
768.016	0.05
768.412	0.05
768.808	0.05
769.203	0.05
769.599	0.05
769.994	0.05
770.389	0.05
770.785	0.05
771.18	0.05
771.575	0.05
771.971	0.06
772.366	0.05
772.761	0.06
773.156	0.06
773.551	0.06
773.945	0.06
774.34	0.06
774.735	0.06
775.13	0.06
775.524	0.06
775.919	0.06
776.314	0.06
776.708	0.06
777.103	0.06
777.497	0.06
777.891	0.06
778.285	0.06
778.68	0.06
779.074	0.06
779.468	0.06
779.862	0.06
780.256	0.06
780.65	0.06
781.044	0.06
781.438	0.06
781.831	0.06
782.225	0.06
782.619	0.06
783.012	0.06
783.406	0.06
783.799	0.06
784.193	0.06
784.586	0.06
784.979	0.07
785.372	0.06
785.766	0.06
786.159	0.07
786.552	0.06
786.945	0.06
787.338	0.07
787.731	0.06
788.123	0.07
788.516	0.06
788.909	0.07
789.302	0.07
789.694	0.07
790.087	0.07
790.479	0.07
790.872	0.07
791.264	0.07
791.656	0.07
792.049	0.07
792.441	0.07
792.833	0.07
793.225	0.07
793.617	0.07
794.009	0.07
794.401	0.07
794.793	0.07
795.185	0.07
795.576	0.07
795.968	0.07
796.36	0.07
796.751	0.07
797.143	0.08
797.534	0.08
797.926	0.08
798.317	0.08
798.708	0.07
799.1	0.08
799.491	0.08
799.882	0.08
800.273	0.08
800.664	0.08
801.055	0.08
801.446	0.08
801.837	0.08
802.227	0.08
802.618	0.08
803.009	0.08
803.399	0.08
803.79	0.08
804.18	0.08
804.571	0.08
804.961	0.08
805.351	0.08
805.742	0.09
806.132	0.08
806.522	0.08
806.912	0.09
807.302	0.09
807.692	0.09
808.082	0.09
808.472	0.09
808.862	0.09
809.251	0.09
809.641	0.09
810.031	0.09
810.42	0.09
810.81	0.09
811.199	0.09
811.589	0.09
811.978	0.09
812.367	0.09
812.756	0.09
813.146	0.09
813.535	0.09
813.924	0.1
814.313	0.1
814.702	0.1
815.091	0.1
815.479	0.1
815.868	0.1
816.257	0.1
816.645	0.1
817.034	0.1
817.423	0.1
817.811	0.1
818.199	0.1
818.588	0.1
818.976	0.1
819.364	0.1
819.753	0.1
820.141	0.1
820.529	0.1
820.917	0.1
821.305	0.11
821.693	0.11
822.08	0.1
822.468	0.11
822.856	0.11
823.244	0.11
823.631	0.11
824.019	0.11
824.406	0.11
824.794	0.11
825.181	0.11
825.568	0.11
825.956	0.11
826.343	0.11
826.73	0.11
827.117	0.11
827.504	0.11
827.891	0.12
828.278	0.12
828.665	0.12
829.052	0.12
829.438	0.12
829.825	0.12
830.212	0.12
830.598	0.12
830.985	0.12
831.371	0.12
831.757	0.12
832.144	0.12
832.53	0.12
832.916	0.12
833.302	0.12
833.688	0.12
834.075	0.13
834.461	0.13
834.846	0.13
835.232	0.13
835.618	0.13
836.004	0.13
836.39	0.13
836.775	0.13
837.161	0.13
837.546	0.13
837.932	0.13
838.317	0.13
838.702	0.13
839.088	0.13
839.473	0.13
839.858	0.13
840.243	0.13
840.628	0.14
841.013	0.14
841.398	0.14
841.783	0.14
842.168	0.14
842.553	0.14
842.937	0.14
843.322	0.14
843.707	0.14
844.091	0.14
844.476	0.14
844.86	0.14
845.244	0.14
845.629	0.15
846.013	0.14
846.397	0.14
846.781	0.15
847.165	0.15
847.549	0.14
847.933	0.15
848.317	0.15
848.701	0.15
849.085	0.15
849.468	0.15
849.852	0.15
850.236	0.15
850.619	0.15
851.003	0.15
851.386	0.15
851.769	0.15
852.153	0.15
852.536	0.15
852.919	0.15
853.302	0.16
853.685	0.15
854.068	0.15
854.451	0.16
854.834	0.16
855.217	0.16
855.6	0.16
855.982	0.16
856.365	0.16
856.748	0.16
857.13	0.16
857.513	0.16
857.895	0.16
858.277	0.16
858.66	0.16
859.042	0.16
859.424	0.17
859.806	0.17
860.188	0.17
860.57	0.17
860.952	0.17
861.334	0.17
861.716	0.17
862.098	0.17
862.48	0.17
862.861	0.17
863.243	0.17
863.624	0.17
864.006	0.17
864.387	0.17
864.769	0.17
865.15	0.17
865.531	0.17
865.912	0.17
866.294	0.18
866.675	0.17
867.056	0.17
867.437	0.18
867.818	0.18
868.198	0.18
868.579	0.18
868.96	0.18
869.341	0.18
869.721	0.18
870.102	0.18
870.482	0.18
870.863	0.18
871.243	0.18
871.623	0.18
872.003	0.18
872.384	0.18
872.764	0.18
873.144	0.18
873.524	0.19
873.904	0.19
874.284	0.19
874.664	0.18
875.043	0.19
875.423	0.19
875.803	0.19
876.182	0.19
876.562	0.19
876.941	0.19
877.321	0.19
877.7	0.19
878.079	0.19
878.459	0.19
878.838	0.19
879.217	0.19
879.596	0.19
879.975	0.19
880.354	0.2
880.733	0.2
881.112	0.2
881.491	0.2
881.869	0.19
882.248	0.2
882.627	0.2
883.005	0.2
883.384	0.2
883.762	0.2
884.14	0.2
884.519	0.2
884.897	0.2
885.275	0.2
885.653	0.2
886.031	0.2
886.409	0.2
886.787	0.2
887.165	0.2
887.543	0.2
887.921	0.2
888.298	0.21
888.676	0.2
889.054	0.2
889.431	0.2
889.809	0.2
890.186	0.21
890.563	0.21
890.941	0.21
891.318	0.2
891.695	0.21
892.072	0.21
892.449	0.21
892.826	0.21
893.203	0.21
893.58	0.21
893.957	0.21
894.334	0.21
894.71	0.21
895.087	0.21
895.464	0.21
895.84	0.21
896.217	0.21
896.593	0.21
896.969	0.21
897.346	0.21
897.722	0.21
898.098	0.21
898.474	0.22
898.85	0.21
899.226	0.21
899.602	0.21
899.978	0.22
900.354	0.21
900.73	0.21
901.105	0.21
901.481	0.22
901.857	0.22
902.232	0.22
902.608	0.21
902.983	0.22
903.358	0.21
903.734	0.22
904.109	0.22
904.484	0.22
904.859	0.22
905.234	0.22
905.609	0.22
905.984	0.22
906.359	0.22
906.734	0.22
907.108	0.22
907.483	0.22
907.858	0.22
908.232	0.22
908.607	0.22
908.981	0.22
909.356	0.22
909.73	0.22
910.104	0.22
910.478	0.22
910.853	0.22
911.227	0.22
911.601	0.22
911.975	0.22
912.349	0.22
912.722	0.22
913.096	0.22
913.47	0.22
913.844	0.22
914.217	0.22
914.591	0.22
914.964	0.22
915.338	0.22
915.711	0.22
916.084	0.22
916.458	0.23
916.831	0.23
917.204	0.23
917.577	0.22
917.95	0.22
918.323	0.22
918.696	0.23
919.069	0.22
919.441	0.23
919.814	0.22
920.187	0.22
920.559	0.23
920.932	0.23
921.304	0.23
921.677	0.23
922.049	0.23
922.421	0.23
922.794	0.23
923.166	0.23
923.538	0.23
923.91	0.23
924.282	0.23
924.654	0.23
925.026	0.23
925.398	0.23
925.769	0.22
926.141	0.23
926.513	0.23
926.884	0.23
927.256	0.23
927.627	0.23
927.999	0.23
928.37	0.22
928.741	0.23
929.113	0.23
929.484	0.23
929.855	0.23
930.226	0.23
930.597	0.23
930.968	0.23
931.339	0.23
931.709	0.23
932.08	0.23
932.451	0.23
932.821	0.23
933.192	0.23
933.562	0.23
933.933	0.23
934.303	0.23
934.673	0.23
935.044	0.23
935.414	0.23
935.784	0.23
936.154	0.23
936.524	0.23
936.894	0.23
937.264	0.23
937.634	0.23
938.004	0.23
938.373	0.23
938.743	0.23
939.113	0.23
939.482	0.23
939.852	0.23
940.221	0.23
940.59	0.23
940.96	0.23
941.329	0.23
941.698	0.23
942.067	0.23
942.436	0.23
942.805	0.23
943.174	0.23
943.543	0.23
943.912	0.23
944.28	0.23
944.649	0.23
945.018	0.23
945.386	0.23
945.755	0.23
946.123	0.23
946.492	0.23
946.86	0.23
947.228	0.23
947.596	0.24
947.965	0.23
948.333	0.23
948.701	0.23
949.069	0.23
949.437	0.23
949.804	0.23
950.172	0.23
950.54	0.23
950.908	0.23
951.275	0.23
951.643	0.23
952.01	0.23
952.378	0.23
952.745	0.23
953.112	0.23
953.479	0.23
953.847	0.23
954.214	0.23
954.581	0.23
954.948	0.23
955.315	0.23
955.682	0.23
956.048	0.23
956.415	0.23
956.782	0.23
957.148	0.23
957.515	0.23
957.881	0.23
958.248	0.22
958.614	0.23
958.981	0.23
959.347	0.23
959.713	0.23
960.079	0.23
960.445	0.22
960.811	0.22
961.177	0.22
961.543	0.22
961.909	0.22
962.275	0.23
962.641	0.23
963.006	0.23
963.372	0.22
963.737	0.23
964.103	0.23
964.468	0.22
964.834	0.22
965.199	0.23
965.564	0.23
965.929	0.22
966.294	0.22
966.659	0.22
967.024	0.22
967.389	0.22
967.754	0.22
968.119	0.22
968.484	0.22
968.848	0.22
969.213	0.22
969.578	0.22
969.942	0.22
970.307	0.22
970.671	0.22
971.035	0.23
971.399	0.22
971.764	0.22
972.128	0.22
972.492	0.22
972.856	0.22
973.22	0.22
973.584	0.22
973.948	0.22
974.311	0.22
974.675	0.22
975.039	0.22
975.402	0.22
975.766	0.22
976.129	0.22
976.493	0.22
976.856	0.22
977.219	0.22
977.582	0.22
977.946	0.22
978.309	0.22
978.672	0.22
979.035	0.22
979.398	0.22
979.761	0.22
980.123	0.21
980.486	0.22
980.849	0.22
981.211	0.22
981.574	0.22
981.936	0.22
982.299	0.21
982.661	0.21
983.023	0.22
983.386	0.22
983.748	0.21
984.11	0.21
984.472	0.22
984.834	0.21
985.196	0.21
985.558	0.21
985.92	0.21
986.281	0.21
986.643	0.21
987.005	0.21
987.366	0.21
987.728	0.21
988.089	0.21
988.451	0.21
988.812	0.21
989.173	0.21
989.534	0.21
989.895	0.21
990.257	0.21
990.618	0.21
990.979	0.21
991.339	0.21
991.7	0.21
992.061	0.21
992.422	0.21
992.782	0.21
993.143	0.21
993.503	0.21
993.864	0.21
994.224	0.2
994.585	0.2
994.945	0.21
995.305	0.21
995.665	0.21
996.025	0.21
996.385	0.2
996.745	0.2
997.105	0.2
997.465	0.2
997.825	0.2
998.185	0.2
998.544	0.2
998.904	0.2
999.263	0.2
999.623	0.2
999.982	0.2
1000.342	0.2
1000.701	0.2
1001.06	0.2
1001.419	0.2
1001.778	0.21
1002.138	0.2
1002.497	0.2
1002.855	0.2
1003.214	0.21
1003.573	0.2
1003.932	0.2
1004.29	0.2
1004.649	0.2
1005.008	0.2
1005.366	0.2
1005.725	0.2
1006.083	0.2
1006.441	0.2
1006.799	0.2
1007.158	0.2
1007.516	0.19
1007.874	0.2
1008.232	0.2
1008.59	0.2
1008.948	0.19
1009.305	0.2
1009.663	0.2
1010.021	0.19
1010.379	0.2
1010.736	0.19
1011.094	0.2
1011.451	0.19
1011.808	0.19
1012.166	0.19
1012.523	0.2
1012.88	0.19
1013.237	0.19
1013.594	0.19
1013.951	0.19
1014.308	0.19
1014.665	0.19
1015.022	0.2
1015.379	0.18
1015.735	0.19
1016.092	0.19
1016.449	0.19
1016.805	0.19
1017.162	0.18
1017.518	0.19
1017.874	0.18
1018.231	0.19
1018.587	0.19
1018.943	0.19
1019.299	0.19
1019.655	0.19
1020.011	0.18
1020.367	0.18
1020.723	0.18
1021.078	0.19
1021.434	0.19
1021.79	0.19
1022.145	0.19
1022.501	0.18
1022.856	0.19
1023.212	0.18
1023.567	0.19
1023.922	0.18
1024.278	0.19
1024.633	0.18
1024.988	0.18
1025.343	0.18
1025.698	0.18
1026.053	0.18
1026.408	0.18
1026.762	0.19
1027.117	0.18
1027.472	0.18
1027.826	0.18
1028.181	0.18
1028.535	0.18
1028.89	0.18
1029.244	0.18
1029.598	0.18
1029.952	0.18
1030.307	0.18
1030.661	0.18
1031.015	0.17
1031.369	0.18
1031.723	0.17
1032.076	0.18
