Data from Rubpy_BV_EDTA_TU(3000)_Blank_Blue_Flow_Absorbance__289__12-51-31-873.txt Node

Date: Mon Aug 03 12:51:31 BST 2026
User: fpm-admin
Spectrometer: SR600986
Trigger mode: 0
Integration Time (sec): 8.000000E-3
Scans to average: 3
Nonlinearity correction enabled: true
Boxcar width: 0
Storing dark spectrum: false
XAxis mode: Wavelengths
Number of Pixels in Spectrum: 2048
>>>>>Begin Spectral Data<<<<<
188.613	0.01
189.078	0.03
189.542	0.03
190.007	0.04
190.472	0.04
190.936	0.03
191.401	0.03
191.865	0.05
192.33	0.03
192.794	0.03
193.258	0.03
193.723	0.03
194.187	0.04
194.651	0.03
195.115	0.04
195.579	0.04
196.043	0.02
196.507	0.04
196.971	0.05
197.435	0.04
197.899	0.03
198.363	0.05
198.827	0.04
199.29	0.04
199.754	0.03
200.218	0.03
200.681	0.02
201.145	0.03
201.608	0.04
202.072	0.02
202.535	0.04
202.998	0.02
203.462	0.04
203.925	0.03
204.388	0.03
204.851	0.03
205.314	0.05
205.777	0.02
206.24	0.03
206.703	0.05
207.166	0.02
207.629	0.03
208.092	0.03
208.555	0.04
209.018	0.05
209.48	0.02
209.943	0.05
210.406	0.03
210.868	0.02
211.331	0.03
211.793	0.05
212.256	0.05
212.718	0.03
213.18	0.04
213.643	0.04
214.105	0.01
214.567	0.03
215.029	0.05
215.491	0.01
215.953	0.03
216.415	0.04
216.877	0.04
217.339	0.04
217.801	0.02
218.263	0.03
218.725	0.05
219.186	0.06
219.648	0.04
220.11	0.02
220.571	0.05
221.033	0.02
221.494	0.05
221.956	0.04
222.417	0.03
222.878	0.03
223.34	0.04
223.801	0.02
224.262	0.04
224.723	0.03
225.185	0.03
225.646	0.01
226.107	0.06
226.568	0.02
227.029	0.03
227.489	0.04
227.95	0.02
228.411	0.04
228.872	0.04
229.332	0.02
229.793	0.03
230.254	0.05
230.714	0.02
231.175	0.03
231.635	0.03
232.096	0.03
232.556	0.03
233.016	0.02
233.477	0.03
233.937	0.02
234.397	0.02
234.857	0.02
235.317	0.04
235.777	0.03
236.237	0.02
236.697	0.05
237.157	0.03
237.617	0.03
238.077	0.03
238.537	0.03
238.996	0.04
239.456	0.04
239.916	0.04
240.375	0.04
240.835	0.03
241.294	0.04
241.754	0.03
242.213	0.03
242.672	0.04
243.132	0.03
243.591	0.05
244.05	0.01
244.509	0.04
244.968	0.03
245.427	0.04
245.886	0.03
246.345	0.03
246.804	0.03
247.263	0.04
247.722	0.04
248.181	0.03
248.639	0.04
249.098	0.03
249.557	0.04
250.015	0.02
250.474	0.02
250.932	0.05
251.391	0.03
251.849	0.04
252.308	0.05
252.766	0.03
253.224	0.05
253.682	0.04
254.14	0.02
254.599	0.03
255.057	0.03
255.515	0.04
255.973	0.04
256.431	0.03
256.888	0.02
257.346	0.04
257.804	0.03
258.262	0.03
258.719	0.04
259.177	0.03
259.635	0.02
260.092	0.02
260.55	0.03
261.007	0.03
261.465	0.03
261.922	0.04
262.379	0.04
262.836	0.05
263.294	0.02
263.751	0.05
264.208	0.04
264.665	0.02
265.122	0.02
265.579	0.03
266.036	0.05
266.493	0.03
266.95	0.02
267.406	0.04
267.863	0.03
268.32	0.04
268.777	0.03
269.233	0.05
269.69	0.03
270.146	0.04
270.603	0.05
271.059	0.04
271.515	0.02
271.972	0.02
272.428	0.01
272.884	0.02
273.34	0.04
273.796	0.03
274.253	0.04
274.709	0.02
275.165	0.03
275.62	0.03
276.076	0.01
276.532	0.04
276.988	0.03
277.444	0.01
277.899	0.03
278.355	0.04
278.811	0.02
279.266	0.03
279.722	0.03
280.177	0.03
280.633	0.04
281.088	0.03
281.543	0.04
281.998	0.04
282.454	0.03
282.909	0.03
283.364	0.03
283.819	0.04
284.274	0.04
284.729	0.02
285.184	0.03
285.639	0.03
286.094	0.04
286.548	0.04
287.003	0.03
287.458	0.04
287.913	0.04
288.367	0.05
288.822	0.03
289.276	0.03
289.731	0.03
290.185	0.04
290.639	0.05
291.094	0.04
291.548	0.03
292.002	0.03
292.456	0.03
292.91	0.01
293.365	0.03
293.819	0.05
294.273	0.02
294.726	0.02
295.18	0.02
295.634	0.06
296.088	0.03
296.542	0.05
296.995	0.02
297.449	0.02
297.903	0.04
298.356	0.02
298.81	0.03
299.263	0.05
299.716	0.04
300.17	0.03
300.623	0.03
301.076	0.05
301.53	0.04
301.983	0.04
302.436	0.03
302.889	0.03
303.342	0.02
303.795	0.02
304.248	0.02
304.701	0.03
305.153	0.02
305.606	0.03
306.059	0.06
306.512	0.04
306.964	0.03
307.417	0.03
307.869	0.02
308.322	0.03
308.774	0.04
309.227	0.04
309.679	0.03
310.131	0.04
310.584	0.03
311.036	0.02
311.488	0.02
311.94	0.04
312.392	0.02
312.844	0.03
313.296	0.04
313.748	0.04
314.2	0.03
314.652	0.03
315.103	0.05
315.555	0.05
316.007	0.04
316.458	0.05
316.91	0.04
317.361	0.04
317.813	0.05
318.264	0.02
318.716	0.03
319.167	0.04
319.618	0.04
320.07	0.05
320.521	0.03
320.972	0.06
321.423	0.04
321.874	0.03
322.325	0.04
322.776	0.04
323.227	0.03
323.678	0.06
324.128	0.04
324.579	0.04
325.03	0.05
325.48	0.06
325.931	0.05
326.382	0.05
326.832	0.04
327.283	0.05
327.733	0.06
328.183	0.05
328.634	0.07
329.084	0.07
329.534	0.08
329.984	0.07
330.434	0.07
330.884	0.07
331.334	0.08
331.784	0.07
332.234	0.08
332.684	0.07
333.134	0.07
333.584	0.07
334.034	0.08
334.483	0.08
334.933	0.09
335.382	0.08
335.832	0.09
336.281	0.08
336.731	0.09
337.18	0.09
337.63	0.09
338.079	0.09
338.528	0.09
338.977	0.1
339.426	0.1
339.876	0.1
340.325	0.1
340.774	0.1
341.223	0.11
341.671	0.11
342.12	0.11
342.569	0.11
343.018	0.12
343.467	0.11
343.915	0.12
344.364	0.12
344.812	0.12
345.261	0.12
345.709	0.13
346.158	0.13
346.606	0.13
347.054	0.13
347.503	0.13
347.951	0.14
348.399	0.13
348.847	0.14
349.295	0.14
349.743	0.13
350.191	0.15
350.639	0.15
351.087	0.15
351.535	0.15
351.983	0.15
352.43	0.15
352.878	0.16
353.326	0.15
353.773	0.16
354.221	0.16
354.668	0.16
355.116	0.17
355.563	0.17
356.01	0.17
356.458	0.18
356.905	0.18
357.352	0.18
357.799	0.18
358.246	0.19
358.693	0.19
359.14	0.19
359.587	0.19
360.034	0.2
360.481	0.19
360.928	0.2
361.375	0.21
361.821	0.21
362.268	0.21
362.714	0.21
363.161	0.21
363.608	0.22
364.054	0.22
364.5	0.23
364.947	0.22
365.393	0.23
365.839	0.23
366.285	0.23
366.732	0.23
367.178	0.23
367.624	0.23
368.07	0.24
368.516	0.23
368.962	0.23
369.408	0.24
369.853	0.23
370.299	0.24
370.745	0.24
371.19	0.24
371.636	0.24
372.082	0.24
372.527	0.23
372.973	0.23
373.418	0.23
373.863	0.23
374.309	0.22
374.754	0.22
375.199	0.22
375.644	0.21
376.09	0.21
376.535	0.21
376.98	0.2
377.425	0.2
377.87	0.19
378.314	0.19
378.759	0.19
379.204	0.18
379.649	0.18
380.093	0.18
380.538	0.17
380.983	0.17
381.427	0.17
381.872	0.16
382.316	0.16
382.76	0.15
383.205	0.15
383.649	0.15
384.093	0.15
384.537	0.14
384.982	0.14
385.426	0.14
385.87	0.14
386.314	0.13
386.758	0.14
387.201	0.13
387.645	0.13
388.089	0.13
388.533	0.13
388.976	0.12
389.42	0.12
389.864	0.11
390.307	0.12
390.751	0.11
391.194	0.11
391.638	0.11
392.081	0.11
392.524	0.1
392.967	0.11
393.411	0.1
393.854	0.1
394.297	0.11
394.74	0.1
395.183	0.11
395.626	0.1
396.069	0.1
396.512	0.11
396.954	0.1
397.397	0.11
397.84	0.11
398.282	0.11
398.725	0.12
399.168	0.11
399.61	0.11
400.052	0.12
400.495	0.11
400.937	0.11
401.38	0.11
401.822	0.1
402.264	0.1
402.706	0.1
403.148	0.1
403.59	0.09
404.032	0.09
404.474	0.09
404.916	0.08
405.358	0.08
405.8	0.08
406.241	0.07
406.683	0.07
407.125	0.06
407.566	0.05
408.008	0.05
408.449	0.06
408.891	0.05
409.332	0.05
409.774	0.05
410.215	0.05
410.656	0.05
411.097	0.04
411.539	0.05
411.98	0.03
412.421	0.04
412.862	0.04
413.303	0.04
413.744	0.03
414.184	0.02
414.625	0.03
415.066	0.03
415.507	0.03
415.947	0.04
416.388	0.03
416.828	0.02
417.269	0.03
417.709	0.03
418.15	0.03
418.59	0.03
419.03	0.03
419.471	0.03
419.911	0.02
420.351	0.03
420.791	0.03
421.231	0.02
421.671	0.02
422.111	0.02
422.551	0.02
422.991	0.03
423.431	0.02
423.87	0.04
424.31	0.02
424.75	0.03
425.189	0.03
425.629	0.02
426.068	0.03
426.508	0.03
426.947	0.03
427.386	0.03
427.826	0.03
428.265	0.04
428.704	0.02
429.143	0.02
429.582	0.02
430.021	0.04
430.46	0.03
430.899	0.03
431.338	0.02
431.777	0.03
432.216	0.03
432.655	0.01
433.093	0.01
433.532	0.03
433.971	0.02
434.409	0.01
434.848	0.03
435.286	0.03
435.724	0.03
436.163	0.02
436.601	0.02
437.039	0.03
437.477	0.02
437.916	0.03
438.354	0.03
438.792	0.03
439.23	0.02
439.668	0.02
440.105	0.02
440.543	0.03
440.981	0.04
441.419	0.01
441.856	0.02
442.294	0.03
442.732	0.03
443.169	0.03
443.607	0.03
444.044	0.02
444.481	0.04
444.919	0.03
445.356	0.02
445.793	0.03
446.23	0.03
446.668	0.03
447.105	0.04
447.542	0.03
447.979	0.03
448.416	0.02
448.852	0.04
449.289	0.04
449.726	0.04
450.163	0.01
450.599	0.02
451.036	0.03
451.473	0.05
451.909	0.04
452.346	0.03
452.782	0.04
453.218	0.03
453.655	0.03
454.091	0.02
454.527	0.04
454.963	0.05
455.399	0.04
455.835	0.04
456.271	0.03
456.707	0.04
457.143	0.03
457.579	0.03
458.015	0.02
458.451	0.04
458.886	0.04
459.322	0.04
459.758	0.04
460.193	0.04
460.629	0.04
461.064	0.03
461.5	0.04
461.935	0.03
462.37	0.03
462.805	0.03
463.241	0.03
463.676	0.03
464.111	0.04
464.546	0.04
464.981	0.03
465.416	0.03
465.851	0.04
466.286	0.03
466.72	0.03
467.155	0.04
467.59	0.03
468.024	0.04
468.459	0.03
468.893	0.03
469.328	0.05
469.762	0.03
470.197	0.03
470.631	0.04
471.065	0.03
471.5	0.04
471.934	0.03
472.368	0.03
472.802	0.04
473.236	0.04
473.67	0.04
474.104	0.04
474.538	0.05
474.972	0.04
475.405	0.04
475.839	0.04
476.273	0.04
476.706	0.04
477.14	0.05
477.573	0.05
478.007	0.05
478.44	0.05
478.874	0.04
479.307	0.05
479.74	0.04
480.173	0.05
480.606	0.05
481.04	0.05
481.473	0.05
481.906	0.05
482.339	0.06
482.771	0.05
483.204	0.05
483.637	0.06
484.07	0.06
484.502	0.05
484.935	0.06
485.368	0.06
485.8	0.06
486.233	0.06
486.665	0.06
487.098	0.06
487.53	0.06
487.962	0.06
488.394	0.06
488.827	0.06
489.259	0.07
489.691	0.06
490.123	0.06
490.555	0.06
490.987	0.06
491.418	0.07
491.85	0.06
492.282	0.07
492.714	0.06
493.145	0.07
493.577	0.06
494.009	0.07
494.44	0.07
494.872	0.07
495.303	0.06
495.734	0.07
496.166	0.07
496.597	0.07
497.028	0.07
497.459	0.07
497.89	0.07
498.321	0.07
498.752	0.07
499.183	0.07
499.614	0.07
500.045	0.07
500.476	0.07
500.906	0.08
501.337	0.08
501.768	0.07
502.198	0.08
502.629	0.08
503.059	0.08
503.49	0.08
503.92	0.08
504.35	0.08
504.781	0.08
505.211	0.08
505.641	0.08
506.071	0.08
506.501	0.08
506.931	0.08
507.361	0.08
507.791	0.08
508.221	0.09
508.651	0.08
509.081	0.08
509.51	0.09
509.94	0.09
510.37	0.09
510.799	0.09
511.229	0.09
511.658	0.09
512.087	0.09
512.517	0.09
512.946	0.09
513.375	0.09
513.804	0.09
514.234	0.09
514.663	0.09
515.092	0.09
515.521	0.09
515.95	0.09
516.378	0.09
516.807	0.1
517.236	0.09
517.665	0.1
518.093	0.09
518.522	0.1
518.951	0.1
519.379	0.09
519.807	0.1
520.236	0.09
520.664	0.1
521.093	0.1
521.521	0.1
521.949	0.1
522.377	0.1
522.805	0.1
523.233	0.1
523.661	0.1
524.089	0.1
524.517	0.1
524.945	0.1
525.373	0.1
525.8	0.11
526.228	0.1
526.656	0.1
527.083	0.1
527.511	0.11
527.938	0.1
528.366	0.1
528.793	0.1
529.22	0.11
529.648	0.1
530.075	0.1
530.502	0.1
530.929	0.1
531.356	0.1
531.783	0.11
532.21	0.1
532.637	0.1
533.064	0.11
533.49	0.11
533.917	0.11
534.344	0.11
534.771	0.1
535.197	0.1
535.624	0.1
536.05	0.11
536.477	0.11
536.903	0.1
537.329	0.11
537.755	0.11
538.182	0.11
538.608	0.1
539.034	0.11
539.46	0.11
539.886	0.11
540.312	0.11
540.738	0.11
541.164	0.11
541.589	0.11
542.015	0.11
542.441	0.11
542.867	0.11
543.292	0.11
543.718	0.11
544.143	0.11
544.569	0.11
544.994	0.11
545.419	0.11
545.845	0.11
546.27	0.11
546.695	0.11
547.12	0.11
547.545	0.1
547.97	0.11
548.395	0.11
548.82	0.11
549.245	0.11
549.67	0.11
550.094	0.11
550.519	0.11
550.944	0.11
551.368	0.11
551.793	0.11
552.217	0.11
552.642	0.11
553.066	0.11
553.49	0.11
553.915	0.11
554.339	0.11
554.763	0.1
555.187	0.11
555.611	0.11
556.035	0.11
556.459	0.1
556.883	0.11
557.307	0.11
557.731	0.11
558.154	0.11
558.578	0.1
559.002	0.11
559.425	0.1
559.849	0.1
560.272	0.11
560.696	0.1
561.119	0.1
561.543	0.1
561.966	0.1
562.389	0.1
562.812	0.1
563.235	0.1
563.658	0.1
564.081	0.1
564.504	0.1
564.927	0.1
565.35	0.1
565.773	0.1
566.196	0.1
566.618	0.1
567.041	0.1
567.463	0.1
567.886	0.1
568.309	0.1
568.731	0.1
569.153	0.1
569.576	0.1
569.998	0.1
570.42	0.1
570.842	0.1
571.264	0.1
571.686	0.1
572.108	0.1
572.53	0.09
572.952	0.09
573.374	0.1
573.796	0.1
574.218	0.1
574.639	0.09
575.061	0.09
575.483	0.09
575.904	0.09
576.326	0.09
576.747	0.09
577.168	0.09
577.59	0.09
578.011	0.09
578.432	0.09
578.853	0.09
579.274	0.09
579.695	0.09
580.116	0.09
580.537	0.09
580.958	0.09
581.379	0.09
581.8	0.09
582.221	0.09
582.641	0.09
583.062	0.09
583.482	0.09
583.903	0.09
584.323	0.09
584.744	0.09
585.164	0.09
585.584	0.09
586.005	0.09
586.425	0.09
586.845	0.09
587.265	0.09
587.685	0.09
588.105	0.08
588.525	0.09
588.945	0.09
589.365	0.09
589.785	0.09
590.204	0.09
590.624	0.09
591.044	0.09
591.463	0.09
591.883	0.08
592.302	0.09
592.721	0.09
593.141	0.08
593.56	0.09
593.979	0.08
594.399	0.08
594.818	0.08
595.237	0.08
595.656	0.08
596.075	0.08
596.494	0.08
596.913	0.08
597.331	0.08
597.75	0.08
598.169	0.08
598.587	0.08
599.006	0.08
599.425	0.08
599.843	0.08
600.262	0.08
600.68	0.08
601.098	0.08
601.517	0.08
601.935	0.08
602.353	0.08
602.771	0.08
603.189	0.08
603.607	0.08
604.025	0.08
604.443	0.08
604.861	0.08
605.279	0.08
605.696	0.08
606.114	0.08
606.532	0.08
606.949	0.08
607.367	0.08
607.784	0.08
608.202	0.08
608.619	0.08
609.036	0.08
609.454	0.08
609.871	0.08
610.288	0.08
610.705	0.08
611.122	0.08
611.539	0.07
611.956	0.08
612.373	0.08
612.79	0.07
613.207	0.07
613.623	0.07
614.04	0.07
614.457	0.07
614.873	0.07
615.29	0.07
615.706	0.07
616.122	0.07
616.539	0.07
616.955	0.07
617.371	0.07
617.788	0.07
618.204	0.07
618.62	0.07
619.036	0.07
619.452	0.07
619.868	0.07
620.284	0.07
620.699	0.07
621.115	0.07
621.531	0.07
621.946	0.07
622.362	0.07
622.778	0.07
623.193	0.07
623.608	0.07
624.024	0.07
624.439	0.07
624.854	0.07
625.27	0.07
625.685	0.07
626.1	0.06
626.515	0.06
626.93	0.06
627.345	0.07
627.76	0.06
628.175	0.06
628.589	0.06
629.004	0.06
629.419	0.06
629.833	0.06
630.248	0.06
630.663	0.06
631.077	0.06
631.491	0.06
631.906	0.06
632.32	0.06
632.734	0.06
633.148	0.06
633.563	0.06
633.977	0.06
634.391	0.06
634.805	0.06
635.219	0.06
635.632	0.05
636.046	0.06
636.46	0.06
636.874	0.05
637.287	0.06
637.701	0.05
638.115	0.05
638.528	0.05
638.941	0.05
639.355	0.05
639.768	0.05
640.181	0.05
640.595	0.05
641.008	0.05
641.421	0.05
641.834	0.05
642.247	0.05
642.66	0.05
643.073	0.05
643.486	0.05
643.898	0.05
644.311	0.05
644.724	0.05
645.136	0.05
645.549	0.05
645.961	0.05
646.374	0.04
646.786	0.05
647.199	0.05
647.611	0.05
648.023	0.04
648.435	0.05
648.847	0.05
649.26	0.04
649.672	0.04
650.084	0.04
650.495	0.04
650.907	0.04
651.319	0.04
651.731	0.04
652.143	0.04
652.554	0.04
652.966	0.04
653.377	0.04
653.789	0.04
654.2	0.04
654.612	0.04
655.023	0.05
655.434	0.02
655.845	0.01
656.256	0.04
656.668	0.04
657.079	0.04
657.49	0.04
657.901	0.04
658.311	0.04
658.722	0.04
659.133	0.04
659.544	0.04
659.954	0.04
660.365	0.04
660.775	0.04
661.186	0.04
661.596	0.04
662.007	0.04
662.417	0.04
662.827	0.04
663.238	0.04
663.648	0.04
664.058	0.04
664.468	0.04
664.878	0.04
665.288	0.04
665.698	0.04
666.108	0.04
666.517	0.04
666.927	0.04
667.337	0.04
667.746	0.03
668.156	0.04
668.565	0.03
668.975	0.03
669.384	0.03
669.794	0.03
670.203	0.03
670.612	0.03
671.021	0.03
671.43	0.03
671.84	0.03
672.249	0.03
672.658	0.03
673.066	0.03
673.475	0.03
673.884	0.03
674.293	0.03
674.702	0.03
675.11	0.03
675.519	0.03
675.927	0.03
676.336	0.03
676.744	0.03
677.152	0.03
677.561	0.03
677.969	0.03
678.377	0.03
678.785	0.03
679.193	0.03
679.601	0.03
680.009	0.03
680.417	0.03
680.825	0.03
681.233	0.03
681.641	0.03
682.048	0.03
682.456	0.02
682.864	0.03
683.271	0.02
683.679	0.02
684.086	0.02
684.493	0.02
684.901	0.02
685.308	0.02
685.715	0.02
686.122	0.02
686.529	0.02
686.936	0.02
687.343	0.02
687.75	0.02
688.157	0.02
688.564	0.02
688.971	0.02
689.378	0.02
689.784	0.02
690.191	0.02
690.597	0.02
691.004	0.02
691.41	0.02
691.817	0.02
692.223	0.02
692.629	0.02
693.035	0.02
693.442	0.02
693.848	0.02
694.254	0.02
694.66	0.02
695.066	0.02
695.471	0.02
695.877	0.02
696.283	0.02
696.689	0.02
697.094	0.02
697.5	0.02
697.906	0.02
698.311	0.02
698.716	0.02
699.122	0.02
699.527	0.02
699.932	0.02
700.338	0.02
700.743	0.02
701.148	0.02
701.553	0.02
701.958	0.02
702.363	0.02
702.768	0.02
703.173	0.02
703.577	0.02
703.982	0.01
704.387	0.01
704.791	0.02
705.196	0.02
705.6	0.01
706.005	0.02
706.409	0.01
706.814	0.01
707.218	0.01
707.622	0.01
708.026	0.01
708.43	0.02
708.834	0.02
709.238	0.01
709.642	0.01
710.046	0.02
710.45	0.01
710.854	0.02
711.257	0.01
711.661	0.02
712.065	0.02
712.468	0.01
712.872	0.01
713.275	0.02
713.679	0.01
714.082	0.02
714.485	0.01
714.888	0.02
715.291	0.02
715.695	0.01
716.098	0.01
716.501	0.02
716.904	0.02
717.306	0.01
717.709	0.01
718.112	0.01
718.515	0.01
718.917	0.01
719.32	0.01
719.723	0.01
720.125	0.01
720.527	0.01
720.93	0.01
721.332	0.01
721.734	0.02
722.137	0.01
722.539	0.01
722.941	0.02
723.343	0.02
723.745	0.01
724.147	0.01
724.549	0.01
724.95	0.02
725.352	0.01
725.754	0.01
726.156	0.01
726.557	0.01
726.959	0.02
727.36	0.01
727.762	0.01
728.163	0.02
728.564	0.01
728.966	0.01
729.367	0.01
729.768	0.02
730.169	0.01
730.57	0.01
730.971	0.01
731.372	0.01
731.773	0.01
732.174	0.01
732.574	0.01
732.975	0.01
733.376	0.01
733.776	0.01
734.177	0.01
734.577	0.02
734.978	0.01
735.378	0.02
735.778	0.01
736.179	0.01
736.579	0.01
736.979	0.01
737.379	0.01
737.779	0.01
738.179	0.01
738.579	0.01
738.979	0.01
739.379	0.01
739.778	0.01
740.178	0.01
740.578	0.01
740.977	0.01
741.377	0.01
741.776	0.01
742.176	0.01
742.575	0.01
742.974	0.01
743.374	0.01
743.773	0.01
744.172	0.01
744.571	0.01
744.97	0.01
745.369	0.01
745.768	0.01
746.167	0.01
746.565	0.01
746.964	0.01
747.363	0.01
747.761	0.01
748.16	0.01
748.559	0.01
748.957	0.01
749.355	0.01
749.754	0.01
750.152	0.01
750.55	0.01
750.948	0.01
751.347	0.01
751.745	0.01
752.143	0.01
752.541	0.01
752.938	0.01
753.336	0.01
753.734	0.01
754.132	0.01
754.529	0.01
754.927	0.01
755.325	0.01
755.722	0.01
756.119	0.01
756.517	0.01
756.914	0.01
757.311	0.01
757.709	0.01
758.106	0.01
758.503	0.01
758.9	0.01
759.297	0.01
759.694	0.01
760.091	0.01
760.488	0.01
760.884	0.01
761.281	0.01
761.678	0.01
762.074	0.01
762.471	0.01
762.867	0.01
763.264	0.01
763.66	0.01
764.056	0.01
764.453	0.01
764.849	0.01
765.245	0.01
765.641	0.01
766.037	0.01
766.433	0.01
766.829	0.01
767.225	0.01
767.621	0.01
768.016	0.01
768.412	0.01
768.808	0.01
769.203	0.01
769.599	0.01
769.994	0.01
770.389	0.01
770.785	0.01
771.18	0.01
771.575	0.01
771.971	0.01
772.366	0.01
772.761	0.01
773.156	0.01
773.551	0.01
773.945	0.01
774.34	0.01
774.735	0.01
775.13	0.01
775.524	0.01
775.919	0.01
776.314	0.01
776.708	0.01
777.103	0.01
777.497	0.01
777.891	0.01
778.285	0.01
778.68	0.01
779.074	0.01
779.468	0.01
779.862	0.01
780.256	0.01
780.65	0.01
781.044	0.01
781.438	0.01
781.831	0.01
782.225	0.01
782.619	0.01
783.012	0.01
783.406	0.01
783.799	0.01
784.193	0.01
784.586	0.01
784.979	0.01
785.372	0.01
785.766	0.01
786.159	0.01
786.552	0.01
786.945	0.01
787.338	0.01
787.731	0.01
788.123	0.01
788.516	0.01
788.909	0.01
789.302	0.01
789.694	0.01
790.087	0.01
790.479	0.01
790.872	0.01
791.264	0.01
791.656	0.01
792.049	0.01
792.441	0.01
792.833	0.01
793.225	0.01
793.617	0.01
794.009	0.01
794.401	0.01
794.793	0.01
795.185	0.01
795.576	0.01
795.968	0.01
796.36	0.01
796.751	0.01
797.143	0.01
797.534	0.01
797.926	0.01
798.317	0.01
798.708	0.01
799.1	0.01
799.491	0.01
799.882	0.01
800.273	0.01
800.664	0.01
801.055	0.01
801.446	0.01
801.837	0.01
802.227	0.01
802.618	0.01
803.009	0.01
803.399	0.01
803.79	0.01
804.18	0.01
804.571	0.01
804.961	0.01
805.351	0.01
805.742	0.01
806.132	0.01
806.522	0.01
806.912	0.02
807.302	0.01
807.692	0.02
808.082	0.01
808.472	0.01
808.862	0.01
809.251	0.01
809.641	0.01
810.031	0.01
810.42	0.01
810.81	0.01
811.199	0.01
811.589	0.01
811.978	0.01
812.367	0.01
812.756	0.01
813.146	0.01
813.535	0.02
813.924	0.02
814.313	0.01
814.702	0.01
815.091	0.01
815.479	0.01
815.868	0.01
816.257	0.02
816.645	0.02
817.034	0.02
817.423	0.01
817.811	0.02
818.199	0.01
818.588	0.02
818.976	0.01
819.364	0.02
819.753	0.02
820.141	0.02
820.529	0.02
820.917	0.01
821.305	0.02
821.693	0.01
822.08	0.01
822.468	0.02
822.856	0.01
823.244	0.02
823.631	0.02
824.019	0.02
824.406	0.02
824.794	0.01
825.181	0.02
825.568	0.02
825.956	0.02
826.343	0.01
826.73	0.02
827.117	0.02
827.504	0.02
827.891	0.02
828.278	0.02
828.665	0.02
829.052	0.02
829.438	0.02
829.825	0.02
830.212	0.02
830.598	0.02
830.985	0.02
831.371	0.02
831.757	0.02
832.144	0.02
832.53	0.02
832.916	0.02
833.302	0.02
833.688	0.02
834.075	0.02
834.461	0.02
834.846	0.02
835.232	0.02
835.618	0.02
836.004	0.02
836.39	0.02
836.775	0.02
837.161	0.02
837.546	0.02
837.932	0.02
838.317	0.02
838.702	0.02
839.088	0.02
839.473	0.02
839.858	0.02
840.243	0.02
840.628	0.02
841.013	0.02
841.398	0.02
841.783	0.02
842.168	0.02
842.553	0.02
842.937	0.02
843.322	0.02
843.707	0.02
844.091	0.02
844.476	0.02
844.86	0.02
845.244	0.02
845.629	0.02
846.013	0.02
846.397	0.02
846.781	0.02
847.165	0.02
847.549	0.02
847.933	0.02
848.317	0.02
848.701	0.02
849.085	0.02
849.468	0.02
849.852	0.02
850.236	0.02
850.619	0.02
851.003	0.02
851.386	0.02
851.769	0.02
852.153	0.02
852.536	0.02
852.919	0.02
853.302	0.02
853.685	0.02
854.068	0.02
854.451	0.02
854.834	0.03
855.217	0.02
855.6	0.02
855.982	0.02
856.365	0.02
856.748	0.02
857.13	0.02
857.513	0.02
857.895	0.03
858.277	0.02
858.66	0.02
859.042	0.02
859.424	0.03
859.806	0.02
860.188	0.02
860.57	0.02
860.952	0.02
861.334	0.03
861.716	0.03
862.098	0.02
862.48	0.02
862.861	0.03
863.243	0.02
863.624	0.02
864.006	0.03
864.387	0.02
864.769	0.03
865.15	0.03
865.531	0.03
865.912	0.02
866.294	0.03
866.675	0.02
867.056	0.02
867.437	0.03
867.818	0.02
868.198	0.03
868.579	0.03
868.96	0.03
869.341	0.03
869.721	0.03
870.102	0.03
870.482	0.03
870.863	0.03
871.243	0.03
871.623	0.02
872.003	0.02
872.384	0.02
872.764	0.03
873.144	0.03
873.524	0.03
873.904	0.03
874.284	0.03
874.664	0.03
875.043	0.03
875.423	0.03
875.803	0.03
876.182	0.03
876.562	0.02
876.941	0.03
877.321	0.03
877.7	0.03
878.079	0.03
878.459	0.03
878.838	0.03
879.217	0.03
879.596	0.03
879.975	0.03
880.354	0.03
880.733	0.03
881.112	0.03
881.491	0.03
881.869	0.03
882.248	0.03
882.627	0.03
883.005	0.03
883.384	0.03
883.762	0.03
884.14	0.03
884.519	0.03
884.897	0.03
885.275	0.03
885.653	0.03
886.031	0.03
886.409	0.03
886.787	0.03
887.165	0.03
887.543	0.03
887.921	0.03
888.298	0.03
888.676	0.03
889.054	0.03
889.431	0.03
889.809	0.03
890.186	0.03
890.563	0.03
890.941	0.03
891.318	0.03
891.695	0.03
892.072	0.03
892.449	0.03
892.826	0.03
893.203	0.03
893.58	0.03
893.957	0.03
894.334	0.03
894.71	0.03
895.087	0.03
895.464	0.03
895.84	0.03
896.217	0.03
896.593	0.03
896.969	0.03
897.346	0.03
897.722	0.03
898.098	0.03
898.474	0.03
898.85	0.03
899.226	0.03
899.602	0.03
899.978	0.03
900.354	0.03
900.73	0.03
901.105	0.03
901.481	0.03
901.857	0.03
902.232	0.03
902.608	0.03
902.983	0.03
903.358	0.03
903.734	0.03
904.109	0.03
904.484	0.03
904.859	0.03
905.234	0.03
905.609	0.03
905.984	0.03
906.359	0.03
906.734	0.03
907.108	0.03
907.483	0.03
907.858	0.03
908.232	0.03
908.607	0.03
908.981	0.03
909.356	0.03
909.73	0.03
910.104	0.03
910.478	0.03
910.853	0.03
911.227	0.03
911.601	0.03
911.975	0.03
912.349	0.03
912.722	0.03
913.096	0.03
913.47	0.03
913.844	0.03
914.217	0.03
914.591	0.03
914.964	0.03
915.338	0.03
915.711	0.03
916.084	0.03
916.458	0.03
916.831	0.03
917.204	0.03
917.577	0.03
917.95	0.03
918.323	0.03
918.696	0.03
919.069	0.03
919.441	0.03
919.814	0.03
920.187	0.03
920.559	0.03
920.932	0.03
921.304	0.03
921.677	0.03
922.049	0.03
922.421	0.03
922.794	0.03
923.166	0.03
923.538	0.03
923.91	0.03
924.282	0.03
924.654	0.03
925.026	0.03
925.398	0.03
925.769	0.03
926.141	0.03
926.513	0.03
926.884	0.03
927.256	0.03
927.627	0.03
927.999	0.03
928.37	0.03
928.741	0.03
929.113	0.03
929.484	0.03
929.855	0.03
930.226	0.03
930.597	0.03
930.968	0.03
931.339	0.03
931.709	0.03
932.08	0.03
932.451	0.03
932.821	0.04
933.192	0.03
933.562	0.03
933.933	0.03
934.303	0.04
934.673	0.03
935.044	0.03
935.414	0.03
935.784	0.03
936.154	0.04
936.524	0.03
936.894	0.03
937.264	0.03
937.634	0.03
938.004	0.03
938.373	0.03
938.743	0.03
939.113	0.03
939.482	0.03
939.852	0.03
940.221	0.03
940.59	0.03
940.96	0.03
941.329	0.03
941.698	0.03
942.067	0.03
942.436	0.04
942.805	0.03
943.174	0.04
943.543	0.03
943.912	0.03
944.28	0.03
944.649	0.03
945.018	0.03
945.386	0.03
945.755	0.04
946.123	0.03
946.492	0.03
946.86	0.03
947.228	0.03
947.596	0.03
947.965	0.03
948.333	0.04
948.701	0.03
949.069	0.03
949.437	0.03
949.804	0.03
950.172	0.03
950.54	0.03
950.908	0.03
951.275	0.03
951.643	0.03
952.01	0.03
952.378	0.03
952.745	0.03
953.112	0.03
953.479	0.03
953.847	0.03
954.214	0.03
954.581	0.03
954.948	0.03
955.315	0.03
955.682	0.03
956.048	0.03
956.415	0.03
956.782	0.03
957.148	0.03
957.515	0.03
957.881	0.03
958.248	0.03
958.614	0.03
958.981	0.03
959.347	0.03
959.713	0.03
960.079	0.03
960.445	0.03
960.811	0.03
961.177	0.03
961.543	0.03
961.909	0.03
962.275	0.03
962.641	0.03
963.006	0.03
963.372	0.03
963.737	0.03
964.103	0.03
964.468	0.03
964.834	0.03
965.199	0.03
965.564	0.03
965.929	0.03
966.294	0.03
966.659	0.03
967.024	0.03
967.389	0.03
967.754	0.03
968.119	0.03
968.484	0.03
968.848	0.03
969.213	0.03
969.578	0.03
969.942	0.03
970.307	0.03
970.671	0.03
971.035	0.03
971.399	0.03
971.764	0.03
972.128	0.03
972.492	0.03
972.856	0.03
973.22	0.03
973.584	0.03
973.948	0.03
974.311	0.03
974.675	0.03
975.039	0.03
975.402	0.03
975.766	0.03
976.129	0.03
976.493	0.03
976.856	0.03
977.219	0.03
977.582	0.03
977.946	0.03
978.309	0.03
978.672	0.03
979.035	0.03
979.398	0.03
979.761	0.03
980.123	0.03
980.486	0.03
980.849	0.03
981.211	0.03
981.574	0.03
981.936	0.03
982.299	0.03
982.661	0.03
983.023	0.03
983.386	0.03
983.748	0.03
984.11	0.03
984.472	0.03
984.834	0.03
985.196	0.03
985.558	0.03
985.92	0.03
986.281	0.03
986.643	0.03
987.005	0.03
987.366	0.03
987.728	0.02
988.089	0.03
988.451	0.03
988.812	0.03
989.173	0.02
989.534	0.03
989.895	0.03
990.257	0.03
990.618	0.03
990.979	0.03
991.339	0.03
991.7	0.03
992.061	0.03
992.422	0.02
992.782	0.03
993.143	0.03
993.503	0.03
993.864	0.03
994.224	0.03
994.585	0.03
994.945	0.03
995.305	0.03
995.665	0.03
996.025	0.03
996.385	0.03
996.745	0.03
997.105	0.02
997.465	0.03
997.825	0.03
998.185	0.03
998.544	0.03
998.904	0.03
999.263	0.03
999.623	0.03
999.982	0.03
1000.342	0.03
1000.701	0.03
1001.06	0.03
1001.419	0.02
1001.778	0.03
1002.138	0.03
1002.497	0.03
1002.855	0.02
1003.214	0.03
1003.573	0.03
1003.932	0.03
1004.29	0.03
1004.649	0.03
1005.008	0.03
1005.366	0.03
1005.725	0.03
1006.083	0.02
1006.441	0.03
1006.799	0.03
1007.158	0.03
1007.516	0.02
1007.874	0.03
1008.232	0.03
1008.59	0.03
1008.948	0.02
1009.305	0.03
1009.663	0.03
1010.021	0.03
1010.379	0.02
1010.736	0.03
1011.094	0.03
1011.451	0.03
1011.808	0.02
1012.166	0.03
1012.523	0.03
1012.88	0.02
1013.237	0.03
1013.594	0.02
1013.951	0.02
1014.308	0.02
1014.665	0.03
1015.022	0.03
1015.379	0.02
1015.735	0.03
1016.092	0.03
1016.449	0.03
1016.805	0.03
1017.162	0.03
1017.518	0.02
1017.874	0.03
1018.231	0.03
1018.587	0.03
1018.943	0.03
1019.299	0.03
1019.655	0.02
1020.011	0.03
1020.367	0.03
1020.723	0.03
1021.078	0.03
1021.434	0.03
1021.79	0.03
1022.145	0.03
1022.501	0.03
1022.856	0.03
1023.212	0.03
1023.567	0.03
1023.922	0.02
1024.278	0.03
1024.633	0.02
1024.988	0.03
1025.343	0.03
1025.698	0.03
1026.053	0.02
1026.408	0.03
1026.762	0.03
1027.117	0.02
1027.472	0.02
1027.826	0.02
1028.181	0.02
1028.535	0.03
1028.89	0.03
1029.244	0.03
1029.598	0.03
1029.952	0.03
1030.307	0.02
1030.661	0.03
1031.015	0.02
1031.369	0.03
1031.723	0.02
1032.076	0.02
