Data from Rubpy_BV_EDTA_TU(3000)_Blank_Blue_Flow_Absorbance__528__12-55-30-867.txt Node

Date: Mon Aug 03 12:55:30 BST 2026
User: fpm-admin
Spectrometer: SR600986
Trigger mode: 0
Integration Time (sec): 8.000000E-3
Scans to average: 3
Nonlinearity correction enabled: true
Boxcar width: 0
Storing dark spectrum: false
XAxis mode: Wavelengths
Number of Pixels in Spectrum: 2048
>>>>>Begin Spectral Data<<<<<
188.613	0.14
189.078	0.13
189.542	0.15
190.007	0.16
190.472	0.13
190.936	0.12
191.401	0.14
191.865	0.13
192.33	0.14
192.794	0.13
193.258	0.13
193.723	0.15
194.187	0.15
194.651	0.14
195.115	0.15
195.579	0.15
196.043	0.12
196.507	0.14
196.971	0.16
197.435	0.13
197.899	0.14
198.363	0.14
198.827	0.14
199.29	0.15
199.754	0.14
200.218	0.15
200.681	0.13
201.145	0.13
201.608	0.13
202.072	0.16
202.535	0.14
202.998	0.15
203.462	0.15
203.925	0.13
204.388	0.13
204.851	0.13
205.314	0.14
205.777	0.13
206.24	0.13
206.703	0.16
207.166	0.13
207.629	0.15
208.092	0.16
208.555	0.13
209.018	0.16
209.48	0.11
209.943	0.14
210.406	0.13
210.868	0.14
211.331	0.13
211.793	0.13
212.256	0.15
212.718	0.14
213.18	0.13
213.643	0.15
214.105	0.13
214.567	0.11
215.029	0.15
215.491	0.13
215.953	0.13
216.415	0.12
216.877	0.13
217.339	0.16
217.801	0.14
218.263	0.13
218.725	0.16
219.186	0.15
219.648	0.15
220.11	0.11
220.571	0.14
221.033	0.14
221.494	0.15
221.956	0.15
222.417	0.14
222.878	0.14
223.34	0.13
223.801	0.14
224.262	0.15
224.723	0.13
225.185	0.14
225.646	0.1
226.107	0.14
226.568	0.14
227.029	0.15
227.489	0.14
227.95	0.14
228.411	0.13
228.872	0.14
229.332	0.13
229.793	0.13
230.254	0.14
230.714	0.13
231.175	0.13
231.635	0.13
232.096	0.14
232.556	0.15
233.016	0.13
233.477	0.13
233.937	0.11
234.397	0.14
234.857	0.13
235.317	0.16
235.777	0.13
236.237	0.13
236.697	0.13
237.157	0.13
237.617	0.12
238.077	0.13
238.537	0.16
238.996	0.13
239.456	0.14
239.916	0.15
240.375	0.12
240.835	0.13
241.294	0.14
241.754	0.11
242.213	0.14
242.672	0.14
243.132	0.13
243.591	0.14
244.05	0.12
244.509	0.14
244.968	0.13
245.427	0.12
245.886	0.13
246.345	0.12
246.804	0.14
247.263	0.13
247.722	0.14
248.181	0.13
248.639	0.14
249.098	0.14
249.557	0.15
250.015	0.14
250.474	0.13
250.932	0.16
251.391	0.13
251.849	0.14
252.308	0.15
252.766	0.13
253.224	0.15
253.682	0.13
254.14	0.14
254.599	0.16
255.057	0.14
255.515	0.14
255.973	0.13
256.431	0.14
256.888	0.13
257.346	0.13
257.804	0.15
258.262	0.14
258.719	0.15
259.177	0.14
259.635	0.14
260.092	0.14
260.55	0.13
261.007	0.14
261.465	0.14
261.922	0.15
262.379	0.13
262.836	0.15
263.294	0.15
263.751	0.14
264.208	0.15
264.665	0.12
265.122	0.14
265.579	0.15
266.036	0.15
266.493	0.14
266.95	0.15
267.406	0.15
267.863	0.14
268.32	0.15
268.777	0.13
269.233	0.15
269.69	0.14
270.146	0.14
270.603	0.16
271.059	0.14
271.515	0.12
271.972	0.15
272.428	0.12
272.884	0.15
273.34	0.14
273.796	0.12
274.253	0.13
274.709	0.12
275.165	0.13
275.62	0.14
276.076	0.12
276.532	0.14
276.988	0.12
277.444	0.12
277.899	0.11
278.355	0.14
278.811	0.14
279.266	0.13
279.722	0.13
280.177	0.13
280.633	0.15
281.088	0.14
281.543	0.14
281.998	0.13
282.454	0.14
282.909	0.15
283.364	0.15
283.819	0.15
284.274	0.14
284.729	0.13
285.184	0.14
285.639	0.12
286.094	0.15
286.548	0.15
287.003	0.14
287.458	0.15
287.913	0.14
288.367	0.14
288.822	0.14
289.276	0.15
289.731	0.13
290.185	0.14
290.639	0.14
291.094	0.14
291.548	0.16
292.002	0.13
292.456	0.15
292.91	0.13
293.365	0.13
293.819	0.16
294.273	0.13
294.726	0.14
295.18	0.15
295.634	0.15
296.088	0.13
296.542	0.16
296.995	0.15
297.449	0.14
297.903	0.15
298.356	0.15
298.81	0.12
299.263	0.15
299.716	0.15
300.17	0.15
300.623	0.13
301.076	0.16
301.53	0.14
301.983	0.15
302.436	0.15
302.889	0.15
303.342	0.13
303.795	0.16
304.248	0.15
304.701	0.15
305.153	0.14
305.606	0.15
306.059	0.13
306.512	0.13
306.964	0.13
307.417	0.14
307.869	0.14
308.322	0.15
308.774	0.15
309.227	0.15
309.679	0.15
310.131	0.14
310.584	0.15
311.036	0.15
311.488	0.15
311.94	0.15
312.392	0.13
312.844	0.15
313.296	0.16
313.748	0.16
314.2	0.15
314.652	0.16
315.103	0.14
315.555	0.15
316.007	0.15
316.458	0.16
316.91	0.18
317.361	0.16
317.813	0.16
318.264	0.17
318.716	0.16
319.167	0.17
319.618	0.16
320.07	0.16
320.521	0.18
320.972	0.19
321.423	0.18
321.874	0.19
322.325	0.19
322.776	0.19
323.227	0.19
323.678	0.2
324.128	0.2
324.579	0.2
325.03	0.2
325.48	0.22
325.931	0.23
326.382	0.22
326.832	0.23
327.283	0.22
327.733	0.24
328.183	0.25
328.634	0.27
329.084	0.28
329.534	0.29
329.984	0.29
330.434	0.3
330.884	0.3
331.334	0.31
331.784	0.3
332.234	0.34
332.684	0.34
333.134	0.34
333.584	0.36
334.034	0.35
334.483	0.37
334.933	0.38
335.382	0.39
335.832	0.39
336.281	0.4
336.731	0.41
337.18	0.42
337.63	0.44
338.079	0.45
338.528	0.44
338.977	0.46
339.426	0.47
339.876	0.48
340.325	0.5
340.774	0.5
341.223	0.51
341.671	0.53
342.12	0.53
342.569	0.54
343.018	0.55
343.467	0.55
343.915	0.57
344.364	0.57
344.812	0.59
345.261	0.6
345.709	0.6
346.158	0.61
346.606	0.62
347.054	0.64
347.503	0.64
347.951	0.66
348.399	0.65
348.847	0.66
349.295	0.67
349.743	0.67
350.191	0.69
350.639	0.69
351.087	0.71
351.535	0.71
351.983	0.72
352.43	0.73
352.878	0.74
353.326	0.76
353.773	0.76
354.221	0.78
354.668	0.78
355.116	0.79
355.563	0.8
356.01	0.81
356.458	0.82
356.905	0.84
357.352	0.84
357.799	0.86
358.246	0.87
358.693	0.87
359.14	0.89
359.587	0.9
360.034	0.91
360.481	0.92
360.928	0.94
361.375	0.96
361.821	0.97
362.268	0.98
362.714	0.99
363.161	0.99
363.608	1.01
364.054	1.01
364.5	1.03
364.947	1.03
365.393	1.04
365.839	1.05
366.285	1.06
366.732	1.07
367.178	1.07
367.624	1.07
368.07	1.07
368.516	1.08
368.962	1.08
369.408	1.08
369.853	1.07
370.299	1.08
370.745	1.08
371.19	1.08
371.636	1.07
372.082	1.07
372.527	1.05
372.973	1.04
373.418	1.05
373.863	1.04
374.309	1.02
374.754	1.01
375.199	1
375.644	0.99
376.09	0.99
376.535	0.97
376.98	0.95
377.425	0.94
377.87	0.92
378.314	0.91
378.759	0.89
379.204	0.86
379.649	0.86
380.093	0.83
380.538	0.81
380.983	0.8
381.427	0.78
381.872	0.76
382.316	0.74
382.76	0.72
383.205	0.72
383.649	0.71
384.093	0.68
384.537	0.67
384.982	0.65
385.426	0.64
385.87	0.62
386.314	0.61
386.758	0.6
387.201	0.58
387.645	0.57
388.089	0.56
388.533	0.55
388.976	0.54
389.42	0.53
389.864	0.51
390.307	0.5
390.751	0.49
391.194	0.47
391.638	0.46
392.081	0.45
392.524	0.45
392.967	0.44
393.411	0.43
393.854	0.43
394.297	0.43
394.74	0.42
395.183	0.42
395.626	0.42
396.069	0.42
396.512	0.42
396.954	0.42
397.397	0.42
397.84	0.42
398.282	0.42
398.725	0.43
399.168	0.43
399.61	0.42
400.052	0.42
400.495	0.41
400.937	0.41
401.38	0.4
401.822	0.39
402.264	0.38
402.706	0.37
403.148	0.37
403.59	0.35
404.032	0.34
404.474	0.33
404.916	0.31
405.358	0.3
405.8	0.3
406.241	0.27
406.683	0.27
407.125	0.25
407.566	0.24
408.008	0.23
408.449	0.23
408.891	0.22
409.332	0.21
409.774	0.19
410.215	0.19
410.656	0.19
411.097	0.18
411.539	0.17
411.98	0.16
412.421	0.15
412.862	0.16
413.303	0.15
413.744	0.14
414.184	0.14
414.625	0.14
415.066	0.14
415.507	0.13
415.947	0.13
416.388	0.13
416.828	0.12
417.269	0.12
417.709	0.12
418.15	0.12
418.59	0.13
419.03	0.12
419.471	0.11
419.911	0.11
420.351	0.12
420.791	0.12
421.231	0.11
421.671	0.12
422.111	0.12
422.551	0.1
422.991	0.11
423.431	0.1
423.87	0.11
424.31	0.1
424.75	0.11
425.189	0.11
425.629	0.11
426.068	0.11
426.508	0.11
426.947	0.12
427.386	0.11
427.826	0.11
428.265	0.12
428.704	0.11
429.143	0.11
429.582	0.1
430.021	0.11
430.46	0.12
430.899	0.1
431.338	0.1
431.777	0.1
432.216	0.11
432.655	0.11
433.093	0.1
433.532	0.12
433.971	0.1
434.409	0.1
434.848	0.11
435.286	0.12
435.724	0.12
436.163	0.12
436.601	0.12
437.039	0.12
437.477	0.11
437.916	0.13
438.354	0.12
438.792	0.11
439.23	0.11
439.668	0.11
440.105	0.13
440.543	0.12
440.981	0.13
441.419	0.12
441.856	0.11
442.294	0.12
442.732	0.11
443.169	0.12
443.607	0.12
444.044	0.12
444.481	0.14
444.919	0.11
445.356	0.12
445.793	0.14
446.23	0.14
446.668	0.13
447.105	0.13
447.542	0.12
447.979	0.13
448.416	0.14
448.852	0.14
449.289	0.13
449.726	0.14
450.163	0.14
450.599	0.14
451.036	0.13
451.473	0.13
451.909	0.14
452.346	0.13
452.782	0.13
453.218	0.12
453.655	0.15
454.091	0.13
454.527	0.15
454.963	0.14
455.399	0.13
455.835	0.14
456.271	0.14
456.707	0.15
457.143	0.14
457.579	0.14
458.015	0.13
458.451	0.16
458.886	0.17
459.322	0.15
459.758	0.14
460.193	0.17
460.629	0.14
461.064	0.15
461.5	0.16
461.935	0.14
462.37	0.16
462.805	0.16
463.241	0.17
463.676	0.16
464.111	0.17
464.546	0.15
464.981	0.15
465.416	0.18
465.851	0.17
466.286	0.17
466.72	0.16
467.155	0.17
467.59	0.17
468.024	0.18
468.459	0.17
468.893	0.17
469.328	0.19
469.762	0.19
470.197	0.18
470.631	0.19
471.065	0.2
471.5	0.19
471.934	0.2
472.368	0.2
472.802	0.21
473.236	0.21
473.67	0.21
474.104	0.22
474.538	0.22
474.972	0.22
475.405	0.23
475.839	0.23
476.273	0.23
476.706	0.23
477.14	0.24
477.573	0.23
478.007	0.24
478.44	0.24
478.874	0.24
479.307	0.25
479.74	0.25
480.173	0.26
480.606	0.26
481.04	0.27
481.473	0.27
481.906	0.27
482.339	0.27
482.771	0.27
483.204	0.28
483.637	0.28
484.07	0.28
484.502	0.29
484.935	0.29
485.368	0.29
485.8	0.3
486.233	0.3
486.665	0.3
487.098	0.3
487.53	0.31
487.962	0.31
488.394	0.31
488.827	0.31
489.259	0.32
489.691	0.32
490.123	0.32
490.555	0.32
490.987	0.33
491.418	0.33
491.85	0.34
492.282	0.34
492.714	0.34
493.145	0.34
493.577	0.35
494.009	0.35
494.44	0.35
494.872	0.36
495.303	0.35
495.734	0.36
496.166	0.36
496.597	0.37
497.028	0.37
497.459	0.37
497.89	0.37
498.321	0.38
498.752	0.38
499.183	0.38
499.614	0.38
500.045	0.39
500.476	0.39
500.906	0.4
501.337	0.4
501.768	0.4
502.198	0.4
502.629	0.41
503.059	0.41
503.49	0.41
503.92	0.41
504.35	0.41
504.781	0.42
505.211	0.42
505.641	0.42
506.071	0.42
506.501	0.43
506.931	0.43
507.361	0.43
507.791	0.43
508.221	0.44
508.651	0.44
509.081	0.44
509.51	0.44
509.94	0.45
510.37	0.45
510.799	0.46
511.229	0.45
511.658	0.46
512.087	0.46
512.517	0.46
512.946	0.46
513.375	0.47
513.804	0.47
514.234	0.47
514.663	0.47
515.092	0.48
515.521	0.48
515.95	0.48
516.378	0.48
516.807	0.48
517.236	0.48
517.665	0.49
518.093	0.48
518.522	0.49
518.951	0.49
519.379	0.49
519.807	0.5
520.236	0.49
520.664	0.5
521.093	0.5
521.521	0.5
521.949	0.5
522.377	0.5
522.805	0.51
523.233	0.5
523.661	0.51
524.089	0.51
524.517	0.51
524.945	0.51
525.373	0.51
525.8	0.52
526.228	0.51
526.656	0.52
527.083	0.52
527.511	0.52
527.938	0.52
528.366	0.52
528.793	0.52
529.22	0.53
529.648	0.52
530.075	0.53
530.502	0.52
530.929	0.53
531.356	0.53
531.783	0.53
532.21	0.53
532.637	0.52
533.064	0.53
533.49	0.53
533.917	0.53
534.344	0.53
534.771	0.53
535.197	0.53
535.624	0.53
536.05	0.53
536.477	0.53
536.903	0.53
537.329	0.53
537.755	0.53
538.182	0.53
538.608	0.53
539.034	0.54
539.46	0.53
539.886	0.53
540.312	0.54
540.738	0.53
541.164	0.53
541.589	0.53
542.015	0.54
542.441	0.53
542.867	0.53
543.292	0.54
543.718	0.53
544.143	0.53
544.569	0.53
544.994	0.53
545.419	0.53
545.845	0.53
546.27	0.53
546.695	0.53
547.12	0.53
547.545	0.53
547.97	0.52
548.395	0.53
548.82	0.52
549.245	0.52
549.67	0.53
550.094	0.52
550.519	0.52
550.944	0.52
551.368	0.52
551.793	0.52
552.217	0.52
552.642	0.52
553.066	0.52
553.49	0.52
553.915	0.51
554.339	0.51
554.763	0.51
555.187	0.52
555.611	0.51
556.035	0.51
556.459	0.51
556.883	0.51
557.307	0.51
557.731	0.5
558.154	0.51
558.578	0.5
559.002	0.5
559.425	0.51
559.849	0.5
560.272	0.5
560.696	0.5
561.119	0.49
561.543	0.49
561.966	0.49
562.389	0.49
562.812	0.49
563.235	0.48
563.658	0.49
564.081	0.48
564.504	0.48
564.927	0.48
565.35	0.48
565.773	0.48
566.196	0.48
566.618	0.48
567.041	0.47
567.463	0.47
567.886	0.47
568.309	0.47
568.731	0.47
569.153	0.47
569.576	0.47
569.998	0.46
570.42	0.46
570.842	0.46
571.264	0.46
571.686	0.46
572.108	0.46
572.53	0.45
572.952	0.45
573.374	0.45
573.796	0.45
574.218	0.45
574.639	0.45
575.061	0.45
575.483	0.44
575.904	0.44
576.326	0.44
576.747	0.44
577.168	0.44
577.59	0.44
578.011	0.43
578.432	0.43
578.853	0.43
579.274	0.43
579.695	0.43
580.116	0.42
580.537	0.42
580.958	0.42
581.379	0.42
581.8	0.42
582.221	0.42
582.641	0.41
583.062	0.41
583.482	0.41
583.903	0.41
584.323	0.41
584.744	0.41
585.164	0.41
585.584	0.41
586.005	0.41
586.425	0.4
586.845	0.4
587.265	0.4
587.685	0.4
588.105	0.4
588.525	0.4
588.945	0.4
589.365	0.39
589.785	0.39
590.204	0.39
590.624	0.39
591.044	0.38
591.463	0.39
591.883	0.39
592.302	0.39
592.721	0.39
593.141	0.38
593.56	0.38
593.979	0.38
594.399	0.38
594.818	0.38
595.237	0.38
595.656	0.37
596.075	0.38
596.494	0.37
596.913	0.37
597.331	0.37
597.75	0.37
598.169	0.37
598.587	0.37
599.006	0.37
599.425	0.37
599.843	0.36
600.262	0.36
600.68	0.36
601.098	0.36
601.517	0.36
601.935	0.36
602.353	0.36
602.771	0.35
603.189	0.35
603.607	0.35
604.025	0.35
604.443	0.35
604.861	0.34
605.279	0.35
605.696	0.34
606.114	0.34
606.532	0.34
606.949	0.34
607.367	0.34
607.784	0.34
608.202	0.34
608.619	0.34
609.036	0.33
609.454	0.33
609.871	0.33
610.288	0.33
610.705	0.33
611.122	0.32
611.539	0.32
611.956	0.32
612.373	0.32
612.79	0.32
613.207	0.31
613.623	0.31
614.04	0.31
614.457	0.31
614.873	0.31
615.29	0.31
615.706	0.31
616.122	0.3
616.539	0.31
616.955	0.3
617.371	0.3
617.788	0.3
618.204	0.3
618.62	0.3
619.036	0.29
619.452	0.29
619.868	0.29
620.284	0.29
620.699	0.29
621.115	0.29
621.531	0.28
621.946	0.28
622.362	0.28
622.778	0.28
623.193	0.28
623.608	0.28
624.024	0.28
624.439	0.27
624.854	0.27
625.27	0.27
625.685	0.27
626.1	0.27
626.515	0.27
626.93	0.27
627.345	0.26
627.76	0.26
628.175	0.26
628.589	0.26
629.004	0.25
629.419	0.25
629.833	0.25
630.248	0.25
630.663	0.25
631.077	0.24
631.491	0.25
631.906	0.24
632.32	0.24
632.734	0.24
633.148	0.24
633.563	0.23
633.977	0.23
634.391	0.23
634.805	0.23
635.219	0.23
635.632	0.23
636.046	0.23
636.46	0.22
636.874	0.22
637.287	0.22
637.701	0.22
638.115	0.22
638.528	0.21
638.941	0.21
639.355	0.21
639.768	0.21
640.181	0.21
640.595	0.21
641.008	0.21
641.421	0.21
641.834	0.2
642.247	0.2
642.66	0.2
643.073	0.2
643.486	0.2
643.898	0.19
644.311	0.19
644.724	0.19
645.136	0.19
645.549	0.19
645.961	0.19
646.374	0.18
646.786	0.19
647.199	0.19
647.611	0.18
648.023	0.18
648.435	0.18
648.847	0.18
649.26	0.18
649.672	0.18
650.084	0.17
650.495	0.18
650.907	0.17
651.319	0.17
651.731	0.17
652.143	0.17
652.554	0.17
652.966	0.17
653.377	0.17
653.789	0.17
654.2	0.16
654.612	0.16
655.023	0.17
655.434	0.15
655.845	0.14
656.256	0.16
656.668	0.16
657.079	0.16
657.49	0.16
657.901	0.16
658.311	0.15
658.722	0.15
659.133	0.15
659.544	0.15
659.954	0.15
660.365	0.15
660.775	0.15
661.186	0.15
661.596	0.15
662.007	0.15
662.417	0.14
662.827	0.14
663.238	0.14
663.648	0.14
664.058	0.14
664.468	0.14
664.878	0.14
665.288	0.14
665.698	0.14
666.108	0.14
666.517	0.14
666.927	0.14
667.337	0.14
667.746	0.13
668.156	0.13
668.565	0.13
668.975	0.13
669.384	0.13
669.794	0.13
670.203	0.13
670.612	0.13
671.021	0.12
671.43	0.12
671.84	0.12
672.249	0.12
672.658	0.12
673.066	0.12
673.475	0.12
673.884	0.12
674.293	0.11
674.702	0.11
675.11	0.11
675.519	0.11
675.927	0.11
676.336	0.11
676.744	0.11
677.152	0.11
677.561	0.11
677.969	0.11
678.377	0.11
678.785	0.1
679.193	0.1
679.601	0.1
680.009	0.1
680.417	0.1
680.825	0.1
681.233	0.1
681.641	0.1
682.048	0.09
682.456	0.09
682.864	0.09
683.271	0.09
683.679	0.09
684.086	0.09
684.493	0.09
684.901	0.09
685.308	0.09
685.715	0.09
686.122	0.08
686.529	0.08
686.936	0.08
687.343	0.08
687.75	0.08
688.157	0.08
688.564	0.08
688.971	0.08
689.378	0.08
689.784	0.08
690.191	0.08
690.597	0.07
691.004	0.08
691.41	0.07
691.817	0.07
692.223	0.07
692.629	0.07
693.035	0.07
693.442	0.07
693.848	0.07
694.254	0.07
694.66	0.07
695.066	0.07
695.471	0.07
695.877	0.07
696.283	0.07
696.689	0.07
697.094	0.06
697.5	0.06
697.906	0.06
698.311	0.06
698.716	0.06
699.122	0.06
699.527	0.06
699.932	0.06
700.338	0.06
700.743	0.06
701.148	0.06
701.553	0.06
701.958	0.06
702.363	0.06
702.768	0.06
703.173	0.06
703.577	0.06
703.982	0.06
704.387	0.06
704.791	0.06
705.196	0.06
705.6	0.05
706.005	0.06
706.409	0.05
706.814	0.05
707.218	0.05
707.622	0.05
708.026	0.05
708.43	0.05
708.834	0.05
709.238	0.05
709.642	0.05
710.046	0.06
710.45	0.05
710.854	0.05
711.257	0.05
711.661	0.05
712.065	0.05
712.468	0.05
712.872	0.05
713.275	0.05
713.679	0.05
714.082	0.05
714.485	0.05
714.888	0.06
715.291	0.05
715.695	0.05
716.098	0.05
716.501	0.05
716.904	0.05
717.306	0.05
717.709	0.05
718.112	0.05
718.515	0.05
718.917	0.05
719.32	0.05
719.723	0.05
720.125	0.05
720.527	0.05
720.93	0.05
721.332	0.05
721.734	0.05
722.137	0.05
722.539	0.05
722.941	0.05
723.343	0.05
723.745	0.05
724.147	0.05
724.549	0.05
724.95	0.05
725.352	0.05
725.754	0.05
726.156	0.05
726.557	0.05
726.959	0.05
727.36	0.05
727.762	0.05
728.163	0.05
728.564	0.05
728.966	0.05
729.367	0.05
729.768	0.05
730.169	0.05
730.57	0.05
730.971	0.05
731.372	0.05
731.773	0.05
732.174	0.05
732.574	0.05
732.975	0.05
733.376	0.05
733.776	0.05
734.177	0.05
734.577	0.05
734.978	0.05
735.378	0.05
735.778	0.05
736.179	0.05
736.579	0.05
736.979	0.05
737.379	0.05
737.779	0.05
738.179	0.05
738.579	0.05
738.979	0.05
739.379	0.05
739.778	0.05
740.178	0.04
740.578	0.05
740.977	0.05
741.377	0.04
741.776	0.05
742.176	0.04
742.575	0.04
742.974	0.04
743.374	0.04
743.773	0.04
744.172	0.04
744.571	0.04
744.97	0.04
745.369	0.04
745.768	0.04
746.167	0.04
746.565	0.04
746.964	0.04
747.363	0.04
747.761	0.04
748.16	0.04
748.559	0.04
748.957	0.04
749.355	0.04
749.754	0.04
750.152	0.04
750.55	0.04
750.948	0.04
751.347	0.04
751.745	0.04
752.143	0.04
752.541	0.04
752.938	0.04
753.336	0.04
753.734	0.04
754.132	0.04
754.529	0.04
754.927	0.04
755.325	0.04
755.722	0.04
756.119	0.04
756.517	0.04
756.914	0.04
757.311	0.04
757.709	0.04
758.106	0.04
758.503	0.04
758.9	0.04
759.297	0.04
759.694	0.04
760.091	0.04
760.488	0.04
760.884	0.04
761.281	0.04
761.678	0.04
762.074	0.04
762.471	0.04
762.867	0.04
763.264	0.04
763.66	0.04
764.056	0.04
764.453	0.04
764.849	0.04
765.245	0.04
765.641	0.04
766.037	0.04
766.433	0.04
766.829	0.04
767.225	0.04
767.621	0.04
768.016	0.04
768.412	0.04
768.808	0.04
769.203	0.04
769.599	0.04
769.994	0.04
770.389	0.04
770.785	0.04
771.18	0.04
771.575	0.04
771.971	0.04
772.366	0.04
772.761	0.04
773.156	0.04
773.551	0.04
773.945	0.04
774.34	0.04
774.735	0.04
775.13	0.04
775.524	0.04
775.919	0.04
776.314	0.04
776.708	0.04
777.103	0.04
777.497	0.04
777.891	0.04
778.285	0.04
778.68	0.04
779.074	0.04
779.468	0.04
779.862	0.04
780.256	0.04
780.65	0.04
781.044	0.04
781.438	0.04
781.831	0.04
782.225	0.04
782.619	0.04
783.012	0.04
783.406	0.04
783.799	0.04
784.193	0.04
784.586	0.04
784.979	0.05
785.372	0.04
785.766	0.05
786.159	0.04
786.552	0.05
786.945	0.04
787.338	0.05
787.731	0.04
788.123	0.05
788.516	0.05
788.909	0.05
789.302	0.05
789.694	0.05
790.087	0.05
790.479	0.05
790.872	0.05
791.264	0.05
791.656	0.05
792.049	0.05
792.441	0.05
792.833	0.05
793.225	0.05
793.617	0.05
794.009	0.05
794.401	0.05
794.793	0.05
795.185	0.05
795.576	0.05
795.968	0.05
796.36	0.05
796.751	0.05
797.143	0.05
797.534	0.05
797.926	0.05
798.317	0.05
798.708	0.05
799.1	0.05
799.491	0.06
799.882	0.06
800.273	0.05
800.664	0.05
801.055	0.05
801.446	0.06
801.837	0.06
802.227	0.06
802.618	0.06
803.009	0.06
803.399	0.06
803.79	0.06
804.18	0.06
804.571	0.06
804.961	0.06
805.351	0.06
805.742	0.06
806.132	0.06
806.522	0.06
806.912	0.06
807.302	0.06
807.692	0.06
808.082	0.06
808.472	0.06
808.862	0.06
809.251	0.06
809.641	0.06
810.031	0.06
810.42	0.06
810.81	0.06
811.199	0.06
811.589	0.06
811.978	0.06
812.367	0.06
812.756	0.07
813.146	0.07
813.535	0.07
813.924	0.07
814.313	0.07
814.702	0.07
815.091	0.07
815.479	0.07
815.868	0.07
816.257	0.07
816.645	0.07
817.034	0.07
817.423	0.07
817.811	0.07
818.199	0.07
818.588	0.07
818.976	0.07
819.364	0.07
819.753	0.07
820.141	0.07
820.529	0.07
820.917	0.07
821.305	0.07
821.693	0.07
822.08	0.07
822.468	0.08
822.856	0.07
823.244	0.08
823.631	0.08
824.019	0.08
824.406	0.08
824.794	0.08
825.181	0.08
825.568	0.08
825.956	0.08
826.343	0.08
826.73	0.08
827.117	0.08
827.504	0.08
827.891	0.08
828.278	0.08
828.665	0.08
829.052	0.08
829.438	0.08
829.825	0.08
830.212	0.08
830.598	0.08
830.985	0.09
831.371	0.08
831.757	0.08
832.144	0.08
832.53	0.09
832.916	0.09
833.302	0.09
833.688	0.09
834.075	0.09
834.461	0.09
834.846	0.09
835.232	0.09
835.618	0.09
836.004	0.09
836.39	0.09
836.775	0.09
837.161	0.09
837.546	0.09
837.932	0.09
838.317	0.09
838.702	0.09
839.088	0.09
839.473	0.09
839.858	0.09
840.243	0.09
840.628	0.1
841.013	0.09
841.398	0.1
841.783	0.1
842.168	0.1
842.553	0.1
842.937	0.1
843.322	0.1
843.707	0.09
844.091	0.1
844.476	0.1
844.86	0.1
845.244	0.1
845.629	0.1
846.013	0.1
846.397	0.1
846.781	0.1
847.165	0.1
847.549	0.1
847.933	0.1
848.317	0.1
848.701	0.1
849.085	0.1
849.468	0.11
849.852	0.1
850.236	0.11
850.619	0.11
851.003	0.1
851.386	0.11
851.769	0.11
852.153	0.11
852.536	0.11
852.919	0.11
853.302	0.11
853.685	0.11
854.068	0.11
854.451	0.11
854.834	0.11
855.217	0.11
855.6	0.11
855.982	0.11
856.365	0.11
856.748	0.11
857.13	0.11
857.513	0.11
857.895	0.11
858.277	0.11
858.66	0.11
859.042	0.12
859.424	0.12
859.806	0.11
860.188	0.12
860.57	0.12
860.952	0.11
861.334	0.12
861.716	0.12
862.098	0.12
862.48	0.12
862.861	0.12
863.243	0.12
863.624	0.12
864.006	0.12
864.387	0.12
864.769	0.12
865.15	0.12
865.531	0.12
865.912	0.12
866.294	0.12
866.675	0.12
867.056	0.12
867.437	0.12
867.818	0.12
868.198	0.12
868.579	0.12
868.96	0.12
869.341	0.13
869.721	0.13
870.102	0.12
870.482	0.13
870.863	0.13
871.243	0.13
871.623	0.13
872.003	0.13
872.384	0.13
872.764	0.13
873.144	0.13
873.524	0.13
873.904	0.13
874.284	0.13
874.664	0.13
875.043	0.13
875.423	0.13
875.803	0.13
876.182	0.13
876.562	0.13
876.941	0.13
877.321	0.13
877.7	0.13
878.079	0.13
878.459	0.13
878.838	0.13
879.217	0.13
879.596	0.13
879.975	0.14
880.354	0.13
880.733	0.14
881.112	0.13
881.491	0.14
881.869	0.13
882.248	0.13
882.627	0.14
883.005	0.14
883.384	0.14
883.762	0.14
884.14	0.14
884.519	0.14
884.897	0.14
885.275	0.14
885.653	0.14
886.031	0.14
886.409	0.14
886.787	0.14
887.165	0.14
887.543	0.14
887.921	0.14
888.298	0.14
888.676	0.14
889.054	0.14
889.431	0.14
889.809	0.14
890.186	0.14
890.563	0.14
890.941	0.14
891.318	0.14
891.695	0.15
892.072	0.14
892.449	0.14
892.826	0.15
893.203	0.14
893.58	0.14
893.957	0.15
894.334	0.15
894.71	0.15
895.087	0.15
895.464	0.15
895.84	0.15
896.217	0.15
896.593	0.15
896.969	0.15
897.346	0.15
897.722	0.15
898.098	0.15
898.474	0.15
898.85	0.15
899.226	0.15
899.602	0.15
899.978	0.15
900.354	0.15
900.73	0.15
901.105	0.15
901.481	0.15
901.857	0.15
902.232	0.15
902.608	0.15
902.983	0.15
903.358	0.15
903.734	0.15
904.109	0.15
904.484	0.15
904.859	0.15
905.234	0.15
905.609	0.15
905.984	0.15
906.359	0.15
906.734	0.15
907.108	0.15
907.483	0.15
907.858	0.15
908.232	0.15
908.607	0.15
908.981	0.15
909.356	0.15
909.73	0.15
910.104	0.16
910.478	0.15
910.853	0.15
911.227	0.15
911.601	0.15
911.975	0.15
912.349	0.15
912.722	0.15
913.096	0.15
913.47	0.16
913.844	0.16
914.217	0.16
914.591	0.16
914.964	0.16
915.338	0.15
915.711	0.15
916.084	0.16
916.458	0.16
916.831	0.16
917.204	0.16
917.577	0.16
917.95	0.16
918.323	0.16
918.696	0.16
919.069	0.15
919.441	0.16
919.814	0.15
920.187	0.16
920.559	0.16
920.932	0.15
921.304	0.16
921.677	0.16
922.049	0.16
922.421	0.16
922.794	0.15
923.166	0.16
923.538	0.16
923.91	0.16
924.282	0.16
924.654	0.16
925.026	0.16
925.398	0.16
925.769	0.16
926.141	0.16
926.513	0.16
926.884	0.16
927.256	0.16
927.627	0.16
927.999	0.16
928.37	0.16
928.741	0.16
929.113	0.16
929.484	0.16
929.855	0.16
930.226	0.16
930.597	0.16
930.968	0.16
931.339	0.16
931.709	0.16
932.08	0.16
932.451	0.16
932.821	0.16
933.192	0.16
933.562	0.16
933.933	0.16
934.303	0.16
934.673	0.15
935.044	0.16
935.414	0.16
935.784	0.16
936.154	0.16
936.524	0.16
936.894	0.16
937.264	0.16
937.634	0.16
938.004	0.16
938.373	0.16
938.743	0.16
939.113	0.16
939.482	0.16
939.852	0.16
940.221	0.16
940.59	0.16
940.96	0.16
941.329	0.16
941.698	0.16
942.067	0.16
942.436	0.16
942.805	0.16
943.174	0.16
943.543	0.16
943.912	0.16
944.28	0.16
944.649	0.16
945.018	0.16
945.386	0.16
945.755	0.16
946.123	0.16
946.492	0.16
946.86	0.16
947.228	0.16
947.596	0.16
947.965	0.16
948.333	0.16
948.701	0.16
949.069	0.16
949.437	0.16
949.804	0.16
950.172	0.16
950.54	0.16
950.908	0.16
951.275	0.16
951.643	0.16
952.01	0.16
952.378	0.16
952.745	0.16
953.112	0.16
953.479	0.16
953.847	0.15
954.214	0.16
954.581	0.15
954.948	0.16
955.315	0.16
955.682	0.16
956.048	0.16
956.415	0.16
956.782	0.15
957.148	0.15
957.515	0.16
957.881	0.16
958.248	0.16
958.614	0.16
958.981	0.16
959.347	0.16
959.713	0.16
960.079	0.16
960.445	0.15
960.811	0.16
961.177	0.15
961.543	0.15
961.909	0.15
962.275	0.15
962.641	0.15
963.006	0.16
963.372	0.15
963.737	0.15
964.103	0.15
964.468	0.15
964.834	0.15
965.199	0.16
965.564	0.15
965.929	0.15
966.294	0.16
966.659	0.15
967.024	0.15
967.389	0.15
967.754	0.15
968.119	0.15
968.484	0.15
968.848	0.15
969.213	0.15
969.578	0.15
969.942	0.15
970.307	0.15
970.671	0.15
971.035	0.15
971.399	0.15
971.764	0.15
972.128	0.15
972.492	0.15
972.856	0.15
973.22	0.15
973.584	0.15
973.948	0.15
974.311	0.15
974.675	0.16
975.039	0.15
975.402	0.15
975.766	0.15
976.129	0.15
976.493	0.15
976.856	0.15
977.219	0.15
977.582	0.15
977.946	0.15
978.309	0.15
978.672	0.15
979.035	0.15
979.398	0.15
979.761	0.15
980.123	0.15
980.486	0.15
980.849	0.15
981.211	0.15
981.574	0.15
981.936	0.15
982.299	0.15
982.661	0.14
983.023	0.15
983.386	0.15
983.748	0.15
984.11	0.15
984.472	0.15
984.834	0.15
985.196	0.14
985.558	0.15
985.92	0.15
986.281	0.15
986.643	0.14
987.005	0.15
987.366	0.14
987.728	0.14
988.089	0.15
988.451	0.14
988.812	0.14
989.173	0.14
989.534	0.15
989.895	0.15
990.257	0.15
990.618	0.14
990.979	0.14
991.339	0.14
991.7	0.14
992.061	0.14
992.422	0.14
992.782	0.14
993.143	0.14
993.503	0.14
993.864	0.14
994.224	0.14
994.585	0.14
994.945	0.14
995.305	0.14
995.665	0.14
996.025	0.14
996.385	0.14
996.745	0.14
997.105	0.14
997.465	0.14
997.825	0.14
998.185	0.14
998.544	0.14
998.904	0.14
999.263	0.14
999.623	0.14
999.982	0.14
1000.342	0.14
1000.701	0.14
1001.06	0.13
1001.419	0.14
1001.778	0.14
1002.138	0.14
1002.497	0.14
1002.855	0.14
1003.214	0.14
1003.573	0.13
1003.932	0.14
1004.29	0.13
1004.649	0.13
1005.008	0.14
1005.366	0.14
1005.725	0.13
1006.083	0.13
1006.441	0.13
1006.799	0.14
1007.158	0.14
1007.516	0.13
1007.874	0.14
1008.232	0.13
1008.59	0.14
1008.948	0.13
1009.305	0.13
1009.663	0.13
1010.021	0.13
1010.379	0.13
1010.736	0.14
1011.094	0.13
1011.451	0.13
1011.808	0.13
1012.166	0.13
1012.523	0.13
1012.88	0.13
1013.237	0.13
1013.594	0.13
1013.951	0.13
1014.308	0.13
1014.665	0.13
1015.022	0.14
1015.379	0.12
1015.735	0.13
1016.092	0.13
1016.449	0.13
1016.805	0.13
1017.162	0.13
1017.518	0.13
1017.874	0.13
1018.231	0.13
1018.587	0.13
1018.943	0.13
1019.299	0.13
1019.655	0.12
1020.011	0.13
1020.367	0.12
1020.723	0.13
1021.078	0.13
1021.434	0.13
1021.79	0.13
1022.145	0.13
1022.501	0.13
1022.856	0.12
1023.212	0.13
1023.567	0.13
1023.922	0.12
1024.278	0.13
1024.633	0.13
1024.988	0.12
1025.343	0.12
1025.698	0.13
1026.053	0.12
1026.408	0.13
1026.762	0.13
1027.117	0.12
1027.472	0.12
1027.826	0.12
1028.181	0.12
1028.535	0.13
1028.89	0.13
1029.244	0.13
1029.598	0.12
1029.952	0.13
1030.307	0.12
1030.661	0.12
1031.015	0.12
1031.369	0.12
1031.723	0.12
1032.076	0.12
