Data from Rubpy_EV_EDTA_LV_Blue_StopFlow_Absorbance__10__11-21-01-517.txt Node

Date: Fri Jul 17 11:21:01 BST 2026
User: fpm-admin
Spectrometer: SR600986
Trigger mode: 0
Integration Time (sec): 1.800000E-2
Scans to average: 3
Nonlinearity correction enabled: true
Boxcar width: 0
Storing dark spectrum: false
XAxis mode: Wavelengths
Number of Pixels in Spectrum: 2048
>>>>>Begin Spectral Data<<<<<
188.613	0.13
189.078	0.13
189.542	0.12
190.007	0.12
190.472	0.11
190.936	0.11
191.401	0.14
191.865	0.12
192.33	0.14
192.794	0.13
193.258	0.13
193.723	0.12
194.187	0.12
194.651	0.13
195.115	0.12
195.579	0.11
196.043	0.11
196.507	0.1
196.971	0.13
197.435	0.13
197.899	0.1
198.363	0.1
198.827	0.11
199.29	0.11
199.754	0.14
200.218	0.1
200.681	0.14
201.145	0.14
201.608	0.1
202.072	0.15
202.535	0.11
202.998	0.13
203.462	0.1
203.925	0.12
204.388	0.1
204.851	0.13
205.314	0.11
205.777	0.13
206.24	0.12
206.703	0.1
207.166	0.12
207.629	0.13
208.092	0.12
208.555	0.12
209.018	0.15
209.48	0.13
209.943	0.12
210.406	0.13
210.868	0.11
211.331	0.12
211.793	0.11
212.256	0.13
212.718	0.11
213.18	0.12
213.643	0.12
214.105	0.13
214.567	0.13
215.029	0.12
215.491	0.13
215.953	0.13
216.415	0.11
216.877	0.13
217.339	0.11
217.801	0.12
218.263	0.13
218.725	0.12
219.186	0.12
219.648	0.1
220.11	0.12
220.571	0.12
221.033	0.12
221.494	0.12
221.956	0.13
222.417	0.11
222.878	0.13
223.34	0.12
223.801	0.13
224.262	0.11
224.723	0.12
225.185	0.12
225.646	0.12
226.107	0.12
226.568	0.15
227.029	0.12
227.489	0.13
227.95	0.11
228.411	0.12
228.872	0.12
229.332	0.11
229.793	0.11
230.254	0.1
230.714	0.13
231.175	0.12
231.635	0.11
232.096	0.14
232.556	0.13
233.016	0.14
233.477	0.14
233.937	0.13
234.397	0.11
234.857	0.1
235.317	0.14
235.777	0.11
236.237	0.14
236.697	0.1
237.157	0.12
237.617	0.11
238.077	0.12
238.537	0.12
238.996	0.12
239.456	0.1
239.916	0.12
240.375	0.11
240.835	0.13
241.294	0.11
241.754	0.14
242.213	0.13
242.672	0.12
243.132	0.1
243.591	0.13
244.05	0.13
244.509	0.12
244.968	0.11
245.427	0.13
245.886	0.15
246.345	0.13
246.804	0.12
247.263	0.11
247.722	0.09
248.181	0.11
248.639	0.13
249.098	0.11
249.557	0.09
250.015	0.11
250.474	0.12
250.932	0.12
251.391	0.13
251.849	0.1
252.308	0.1
252.766	0.12
253.224	0.13
253.682	0.13
254.14	0.14
254.599	0.1
255.057	0.12
255.515	0.14
255.973	0.1
256.431	0.15
256.888	0.11
257.346	0.14
257.804	0.13
258.262	0.12
258.719	0.13
259.177	0.11
259.635	0.12
260.092	0.14
260.55	0.12
261.007	0.1
261.465	0.12
261.922	0.13
262.379	0.12
262.836	0.11
263.294	0.12
263.751	0.12
264.208	0.14
264.665	0.1
265.122	0.12
265.579	0.14
266.036	0.11
266.493	0.12
266.95	0.13
267.406	0.14
267.863	0.13
268.32	0.11
268.777	0.13
269.233	0.12
269.69	0.12
270.146	0.11
270.603	0.13
271.059	0.14
271.515	0.15
271.972	0.14
272.428	0.12
272.884	0.13
273.34	0.11
273.796	0.12
274.253	0.13
274.709	0.11
275.165	0.12
275.62	0.13
276.076	0.12
276.532	0.13
276.988	0.11
277.444	0.14
277.899	0.14
278.355	0.11
278.811	0.13
279.266	0.14
279.722	0.11
280.177	0.12
280.633	0.15
281.088	0.15
281.543	0.13
281.998	0.1
282.454	0.15
282.909	0.14
283.364	0.13
283.819	0.13
284.274	0.13
284.729	0.15
285.184	0.11
285.639	0.11
286.094	0.12
286.548	0.12
287.003	0.11
287.458	0.14
287.913	0.14
288.367	0.12
288.822	0.13
289.276	0.16
289.731	0.11
290.185	0.14
290.639	0.11
291.094	0.1
291.548	0.13
292.002	0.13
292.456	0.14
292.91	0.1
293.365	0.13
293.819	0.15
294.273	0.14
294.726	0.15
295.18	0.13
295.634	0.12
296.088	0.13
296.542	0.14
296.995	0.14
297.449	0.12
297.903	0.13
298.356	0.12
298.81	0.11
299.263	0.15
299.716	0.17
300.17	0.12
300.623	0.15
301.076	0.13
301.53	0.13
301.983	0.14
302.436	0.16
302.889	0.17
303.342	0.14
303.795	0.14
304.248	0.15
304.701	0.15
305.153	0.13
305.606	0.14
306.059	0.14
306.512	0.14
306.964	0.15
307.417	0.15
307.869	0.15
308.322	0.17
308.774	0.16
309.227	0.17
309.679	0.17
310.131	0.17
310.584	0.18
311.036	0.17
311.488	0.17
311.94	0.17
312.392	0.18
312.844	0.18
313.296	0.19
313.748	0.18
314.2	0.18
314.652	0.17
315.103	0.19
315.555	0.2
316.007	0.19
316.458	0.2
316.91	0.19
317.361	0.2
317.813	0.19
318.264	0.19
318.716	0.2
319.167	0.19
319.618	0.19
320.07	0.19
320.521	0.19
320.972	0.2
321.423	0.2
321.874	0.2
322.325	0.2
322.776	0.2
323.227	0.21
323.678	0.21
324.128	0.2
324.579	0.21
325.03	0.21
325.48	0.22
325.931	0.22
326.382	0.22
326.832	0.22
327.283	0.24
327.733	0.24
328.183	0.24
328.634	0.24
329.084	0.25
329.534	0.25
329.984	0.26
330.434	0.26
330.884	0.26
331.334	0.27
331.784	0.28
332.234	0.28
332.684	0.28
333.134	0.28
333.584	0.29
334.034	0.3
334.483	0.3
334.933	0.3
335.382	0.31
335.832	0.31
336.281	0.32
336.731	0.33
337.18	0.33
337.63	0.34
338.079	0.34
338.528	0.35
338.977	0.36
339.426	0.36
339.876	0.37
340.325	0.38
340.774	0.38
341.223	0.39
341.671	0.4
342.12	0.4
342.569	0.41
343.018	0.41
343.467	0.42
343.915	0.43
344.364	0.44
344.812	0.44
345.261	0.45
345.709	0.46
346.158	0.46
346.606	0.47
347.054	0.48
347.503	0.49
347.951	0.49
348.399	0.51
348.847	0.52
349.295	0.53
349.743	0.53
350.191	0.54
350.639	0.55
351.087	0.56
351.535	0.58
351.983	0.58
352.43	0.6
352.878	0.61
353.326	0.62
353.773	0.62
354.221	0.64
354.668	0.65
355.116	0.66
355.563	0.67
356.01	0.68
356.458	0.69
356.905	0.7
357.352	0.71
357.799	0.73
358.246	0.74
358.693	0.74
359.14	0.75
359.587	0.76
360.034	0.76
360.481	0.77
360.928	0.78
361.375	0.78
361.821	0.79
362.268	0.8
362.714	0.8
363.161	0.81
363.608	0.82
364.054	0.83
364.5	0.83
364.947	0.84
365.393	0.84
365.839	0.85
366.285	0.84
366.732	0.85
367.178	0.85
367.624	0.84
368.07	0.84
368.516	0.84
368.962	0.83
369.408	0.82
369.853	0.81
370.299	0.8
370.745	0.79
371.19	0.78
371.636	0.78
372.082	0.77
372.527	0.77
372.973	0.76
373.418	0.75
373.863	0.74
374.309	0.73
374.754	0.73
375.199	0.73
375.644	0.73
376.09	0.71
376.535	0.72
376.98	0.72
377.425	0.71
377.87	0.72
378.314	0.72
378.759	0.73
379.204	0.73
379.649	0.74
380.093	0.75
380.538	0.76
380.983	0.77
381.427	0.77
381.872	0.79
382.316	0.8
382.76	0.81
383.205	0.82
383.649	0.82
384.093	0.82
384.537	0.82
384.982	0.82
385.426	0.82
385.87	0.81
386.314	0.8
386.758	0.8
387.201	0.79
387.645	0.79
388.089	0.78
388.533	0.78
388.976	0.78
389.42	0.79
389.864	0.8
390.307	0.82
390.751	0.84
391.194	0.87
391.638	0.89
392.081	0.92
392.524	0.95
392.967	0.98
393.411	1.01
393.854	1.02
394.297	1.04
394.74	1.06
395.183	1.06
395.626	1.06
396.069	1.05
396.512	1.04
396.954	1.02
397.397	0.98
397.84	0.93
398.282	0.9
398.725	0.85
399.168	0.8
399.61	0.75
400.052	0.7
400.495	0.65
400.937	0.6
401.38	0.56
401.822	0.52
402.264	0.47
402.706	0.44
403.148	0.41
403.59	0.38
404.032	0.35
404.474	0.32
404.916	0.3
405.358	0.28
405.8	0.27
406.241	0.25
406.683	0.23
407.125	0.22
407.566	0.21
408.008	0.2
408.449	0.19
408.891	0.18
409.332	0.17
409.774	0.16
410.215	0.16
410.656	0.15
411.097	0.14
411.539	0.14
411.98	0.13
412.421	0.14
412.862	0.12
413.303	0.12
413.744	0.12
414.184	0.12
414.625	0.11
415.066	0.11
415.507	0.11
415.947	0.11
416.388	0.1
416.828	0.1
417.269	0.1
417.709	0.1
418.15	0.1
418.59	0.1
419.03	0.1
419.471	0.08
419.911	0.1
420.351	0.09
420.791	0.1
421.231	0.09
421.671	0.09
422.111	0.09
422.551	0.09
422.991	0.08
423.431	0.09
423.87	0.08
424.31	0.09
424.75	0.09
425.189	0.1
425.629	0.08
426.068	0.08
426.508	0.08
426.947	0.09
427.386	0.09
427.826	0.08
428.265	0.08
428.704	0.08
429.143	0.09
429.582	0.09
430.021	0.09
430.46	0.09
430.899	0.08
431.338	0.09
431.777	0.08
432.216	0.07
432.655	0.08
433.093	0.09
433.532	0.07
433.971	0.09
434.409	0.09
434.848	0.08
435.286	0.08
435.724	0.1
436.163	0.08
436.601	0.08
437.039	0.09
437.477	0.09
437.916	0.09
438.354	0.08
438.792	0.09
439.23	0.08
439.668	0.08
440.105	0.08
440.543	0.09
440.981	0.08
441.419	0.09
441.856	0.09
442.294	0.07
442.732	0.08
443.169	0.07
443.607	0.08
444.044	0.1
444.481	0.09
444.919	0.09
445.356	0.1
445.793	0.1
446.23	0.09
446.668	0.08
447.105	0.09
447.542	0.09
447.979	0.09
448.416	0.11
448.852	0.09
449.289	0.11
449.726	0.1
450.163	0.08
450.599	0.1
451.036	0.1
451.473	0.12
451.909	0.11
452.346	0.11
452.782	0.11
453.218	0.1
453.655	0.09
454.091	0.09
454.527	0.1
454.963	0.1
455.399	0.1
455.835	0.11
456.271	0.1
456.707	0.1
457.143	0.11
457.579	0.09
458.015	0.1
458.451	0.11
458.886	0.12
459.322	0.13
459.758	0.12
460.193	0.12
460.629	0.11
461.064	0.11
461.5	0.12
461.935	0.1
462.37	0.11
462.805	0.11
463.241	0.1
463.676	0.12
464.111	0.1
464.546	0.11
464.981	0.12
465.416	0.12
465.851	0.12
466.286	0.13
466.72	0.13
467.155	0.13
467.59	0.12
468.024	0.13
468.459	0.12
468.893	0.13
469.328	0.12
469.762	0.14
470.197	0.14
470.631	0.14
471.065	0.14
471.5	0.14
471.934	0.14
472.368	0.14
472.802	0.14
473.236	0.15
473.67	0.14
474.104	0.14
474.538	0.15
474.972	0.14
475.405	0.15
475.839	0.15
476.273	0.15
476.706	0.15
477.14	0.16
477.573	0.16
478.007	0.16
478.44	0.16
478.874	0.16
479.307	0.16
479.74	0.16
480.173	0.16
480.606	0.17
481.04	0.17
481.473	0.17
481.906	0.17
482.339	0.17
482.771	0.17
483.204	0.17
483.637	0.18
484.07	0.18
484.502	0.18
484.935	0.18
485.368	0.18
485.8	0.18
486.233	0.18
486.665	0.18
487.098	0.19
487.53	0.19
487.962	0.19
488.394	0.19
488.827	0.19
489.259	0.19
489.691	0.19
490.123	0.2
490.555	0.2
490.987	0.2
491.418	0.2
491.85	0.2
492.282	0.21
492.714	0.21
493.145	0.21
493.577	0.21
494.009	0.21
494.44	0.21
494.872	0.21
495.303	0.22
495.734	0.22
496.166	0.22
496.597	0.22
497.028	0.22
497.459	0.23
497.89	0.23
498.321	0.23
498.752	0.23
499.183	0.23
499.614	0.24
500.045	0.24
500.476	0.24
500.906	0.24
501.337	0.24
501.768	0.24
502.198	0.24
502.629	0.25
503.059	0.25
503.49	0.25
503.92	0.25
504.35	0.25
504.781	0.26
505.211	0.26
505.641	0.26
506.071	0.26
506.501	0.26
506.931	0.26
507.361	0.27
507.791	0.27
508.221	0.27
508.651	0.27
509.081	0.27
509.51	0.27
509.94	0.28
510.37	0.28
510.799	0.28
511.229	0.28
511.658	0.29
512.087	0.28
512.517	0.29
512.946	0.29
513.375	0.29
513.804	0.29
514.234	0.3
514.663	0.3
515.092	0.3
515.521	0.3
515.95	0.3
516.378	0.3
516.807	0.3
517.236	0.31
517.665	0.3
518.093	0.31
518.522	0.3
518.951	0.31
519.379	0.31
519.807	0.31
520.236	0.31
520.664	0.31
521.093	0.32
521.521	0.32
521.949	0.32
522.377	0.32
522.805	0.32
523.233	0.32
523.661	0.32
524.089	0.33
524.517	0.33
524.945	0.33
525.373	0.33
525.8	0.34
526.228	0.33
526.656	0.34
527.083	0.34
527.511	0.34
527.938	0.34
528.366	0.34
528.793	0.34
529.22	0.34
529.648	0.34
530.075	0.35
530.502	0.34
530.929	0.35
531.356	0.35
531.783	0.35
532.21	0.35
532.637	0.35
533.064	0.36
533.49	0.36
533.917	0.36
534.344	0.36
534.771	0.36
535.197	0.36
535.624	0.36
536.05	0.36
536.477	0.36
536.903	0.36
537.329	0.37
537.755	0.37
538.182	0.37
538.608	0.37
539.034	0.37
539.46	0.38
539.886	0.38
540.312	0.38
540.738	0.38
541.164	0.38
541.589	0.39
542.015	0.38
542.441	0.38
542.867	0.39
543.292	0.39
543.718	0.39
544.143	0.39
544.569	0.39
544.994	0.39
545.419	0.39
545.845	0.39
546.27	0.4
546.695	0.4
547.12	0.4
547.545	0.4
547.97	0.4
548.395	0.4
548.82	0.4
549.245	0.4
549.67	0.4
550.094	0.4
550.519	0.41
550.944	0.4
551.368	0.4
551.793	0.41
552.217	0.41
552.642	0.41
553.066	0.41
553.49	0.41
553.915	0.41
554.339	0.41
554.763	0.41
555.187	0.41
555.611	0.41
556.035	0.41
556.459	0.41
556.883	0.41
557.307	0.41
557.731	0.41
558.154	0.41
558.578	0.41
559.002	0.41
559.425	0.41
559.849	0.41
560.272	0.41
560.696	0.41
561.119	0.41
561.543	0.41
561.966	0.41
562.389	0.41
562.812	0.41
563.235	0.41
563.658	0.41
564.081	0.41
564.504	0.41
564.927	0.41
565.35	0.41
565.773	0.41
566.196	0.41
566.618	0.41
567.041	0.41
567.463	0.41
567.886	0.41
568.309	0.41
568.731	0.41
569.153	0.41
569.576	0.41
569.998	0.41
570.42	0.41
570.842	0.41
571.264	0.41
571.686	0.41
572.108	0.4
572.53	0.41
572.952	0.41
573.374	0.41
573.796	0.4
574.218	0.41
574.639	0.4
575.061	0.4
575.483	0.4
575.904	0.4
576.326	0.4
576.747	0.4
577.168	0.4
577.59	0.4
578.011	0.4
578.432	0.4
578.853	0.41
579.274	0.4
579.695	0.4
580.116	0.4
580.537	0.41
580.958	0.4
581.379	0.4
581.8	0.4
582.221	0.4
582.641	0.4
583.062	0.4
583.482	0.4
583.903	0.41
584.323	0.41
584.744	0.41
585.164	0.41
585.584	0.41
586.005	0.41
586.425	0.41
586.845	0.41
587.265	0.41
587.685	0.41
588.105	0.41
588.525	0.41
588.945	0.41
589.365	0.41
589.785	0.42
590.204	0.42
590.624	0.42
591.044	0.42
591.463	0.42
591.883	0.42
592.302	0.42
592.721	0.42
593.141	0.42
593.56	0.42
593.979	0.43
594.399	0.43
594.818	0.42
595.237	0.43
595.656	0.43
596.075	0.43
596.494	0.43
596.913	0.43
597.331	0.43
597.75	0.43
598.169	0.43
598.587	0.43
599.006	0.43
599.425	0.43
599.843	0.43
600.262	0.43
600.68	0.43
601.098	0.43
601.517	0.43
601.935	0.43
602.353	0.43
602.771	0.43
603.189	0.43
603.607	0.43
604.025	0.42
604.443	0.43
604.861	0.42
605.279	0.42
605.696	0.42
606.114	0.42
606.532	0.42
606.949	0.42
607.367	0.42
607.784	0.41
608.202	0.41
608.619	0.41
609.036	0.41
609.454	0.41
609.871	0.41
610.288	0.41
610.705	0.4
611.122	0.4
611.539	0.4
611.956	0.4
612.373	0.4
612.79	0.39
613.207	0.4
613.623	0.39
614.04	0.39
614.457	0.39
614.873	0.39
615.29	0.39
615.706	0.39
616.122	0.38
616.539	0.38
616.955	0.38
617.371	0.38
617.788	0.38
618.204	0.37
618.62	0.37
619.036	0.37
619.452	0.37
619.868	0.37
620.284	0.37
620.699	0.36
621.115	0.36
621.531	0.36
621.946	0.36
622.362	0.36
622.778	0.35
623.193	0.35
623.608	0.35
624.024	0.35
624.439	0.35
624.854	0.35
625.27	0.34
625.685	0.34
626.1	0.34
626.515	0.34
626.93	0.33
627.345	0.33
627.76	0.33
628.175	0.33
628.589	0.32
629.004	0.32
629.419	0.32
629.833	0.32
630.248	0.32
630.663	0.31
631.077	0.31
631.491	0.31
631.906	0.31
632.32	0.3
632.734	0.3
633.148	0.3
633.563	0.29
633.977	0.29
634.391	0.29
634.805	0.28
635.219	0.28
635.632	0.28
636.046	0.27
636.46	0.27
636.874	0.27
637.287	0.27
637.701	0.27
638.115	0.27
638.528	0.26
638.941	0.26
639.355	0.26
639.768	0.25
640.181	0.25
640.595	0.25
641.008	0.25
641.421	0.24
641.834	0.24
642.247	0.24
642.66	0.24
643.073	0.24
643.486	0.24
643.898	0.24
644.311	0.24
644.724	0.23
645.136	0.23
645.549	0.23
645.961	0.23
646.374	0.23
646.786	0.23
647.199	0.22
647.611	0.22
648.023	0.22
648.435	0.22
648.847	0.22
649.26	0.22
649.672	0.22
650.084	0.22
650.495	0.22
650.907	0.22
651.319	0.22
651.731	0.22
652.143	0.22
652.554	0.21
652.966	0.22
653.377	0.21
653.789	0.21
654.2	0.21
654.612	0.22
655.023	0.2
655.434	0.19
655.845	0.21
656.256	0.22
656.668	0.21
657.079	0.21
657.49	0.21
657.901	0.21
658.311	0.21
658.722	0.21
659.133	0.21
659.544	0.2
659.954	0.2
660.365	0.2
660.775	0.21
661.186	0.21
661.596	0.21
662.007	0.2
662.417	0.2
662.827	0.2
663.238	0.2
663.648	0.2
664.058	0.2
664.468	0.2
664.878	0.2
665.288	0.2
665.698	0.2
666.108	0.2
666.517	0.19
666.927	0.19
667.337	0.19
667.746	0.19
668.156	0.19
668.565	0.19
668.975	0.19
669.384	0.19
669.794	0.19
670.203	0.19
670.612	0.18
671.021	0.18
671.43	0.18
671.84	0.18
672.249	0.18
672.658	0.18
673.066	0.18
673.475	0.18
673.884	0.18
674.293	0.17
674.702	0.17
675.11	0.17
675.519	0.17
675.927	0.17
676.336	0.16
676.744	0.16
677.152	0.16
677.561	0.16
677.969	0.15
678.377	0.15
678.785	0.15
679.193	0.15
679.601	0.15
680.009	0.15
680.417	0.15
680.825	0.15
681.233	0.14
681.641	0.14
682.048	0.14
682.456	0.14
682.864	0.14
683.271	0.14
683.679	0.14
684.086	0.13
684.493	0.13
684.901	0.13
685.308	0.13
685.715	0.13
686.122	0.13
686.529	0.12
686.936	0.12
687.343	0.12
687.75	0.12
688.157	0.12
688.564	0.11
688.971	0.11
689.378	0.11
689.784	0.11
690.191	0.11
690.597	0.11
691.004	0.11
691.41	0.11
691.817	0.11
692.223	0.11
692.629	0.11
693.035	0.1
693.442	0.1
693.848	0.1
694.254	0.1
694.66	0.1
695.066	0.1
695.471	0.09
695.877	0.09
696.283	0.09
696.689	0.1
697.094	0.09
697.5	0.09
697.906	0.09
698.311	0.09
698.716	0.09
699.122	0.09
699.527	0.09
699.932	0.09
700.338	0.09
700.743	0.09
701.148	0.09
701.553	0.08
701.958	0.09
702.363	0.09
702.768	0.08
703.173	0.08
703.577	0.08
703.982	0.08
704.387	0.08
704.791	0.08
705.196	0.08
705.6	0.08
706.005	0.08
706.409	0.08
706.814	0.08
707.218	0.08
707.622	0.08
708.026	0.08
708.43	0.08
708.834	0.08
709.238	0.08
709.642	0.08
710.046	0.08
710.45	0.08
710.854	0.08
711.257	0.08
711.661	0.08
712.065	0.08
712.468	0.08
712.872	0.08
713.275	0.08
713.679	0.08
714.082	0.08
714.485	0.08
714.888	0.08
715.291	0.08
715.695	0.08
716.098	0.08
716.501	0.08
716.904	0.08
717.306	0.08
717.709	0.08
718.112	0.08
718.515	0.08
718.917	0.08
719.32	0.08
719.723	0.08
720.125	0.09
720.527	0.08
720.93	0.08
721.332	0.08
721.734	0.08
722.137	0.08
722.539	0.08
722.941	0.08
723.343	0.09
723.745	0.08
724.147	0.08
724.549	0.08
724.95	0.09
725.352	0.08
725.754	0.09
726.156	0.09
726.557	0.08
726.959	0.09
727.36	0.09
727.762	0.09
728.163	0.09
728.564	0.09
728.966	0.09
729.367	0.09
729.768	0.09
730.169	0.09
730.57	0.09
730.971	0.09
731.372	0.09
731.773	0.09
732.174	0.09
732.574	0.09
732.975	0.09
733.376	0.09
733.776	0.09
734.177	0.09
734.577	0.09
734.978	0.09
735.378	0.09
735.778	0.08
736.179	0.09
736.579	0.09
736.979	0.08
737.379	0.08
737.779	0.08
738.179	0.08
738.579	0.08
738.979	0.08
739.379	0.08
739.778	0.08
740.178	0.08
740.578	0.08
740.977	0.08
741.377	0.08
741.776	0.08
742.176	0.08
742.575	0.08
742.974	0.08
743.374	0.08
743.773	0.08
744.172	0.08
744.571	0.08
744.97	0.07
745.369	0.08
745.768	0.07
746.167	0.07
746.565	0.07
746.964	0.07
747.363	0.07
747.761	0.07
748.16	0.07
748.559	0.07
748.957	0.07
749.355	0.07
749.754	0.07
750.152	0.07
750.55	0.07
750.948	0.07
751.347	0.07
751.745	0.07
752.143	0.07
752.541	0.07
752.938	0.07
753.336	0.06
753.734	0.06
754.132	0.06
754.529	0.06
754.927	0.06
755.325	0.06
755.722	0.06
756.119	0.06
756.517	0.06
756.914	0.06
757.311	0.06
757.709	0.06
758.106	0.06
758.503	0.06
758.9	0.06
759.297	0.06
759.694	0.06
760.091	0.06
760.488	0.06
760.884	0.06
761.281	0.06
761.678	0.06
762.074	0.06
762.471	0.06
762.867	0.06
763.264	0.06
763.66	0.06
764.056	0.05
764.453	0.06
764.849	0.05
765.245	0.05
765.641	0.06
766.037	0.06
766.433	0.05
766.829	0.06
767.225	0.05
767.621	0.05
768.016	0.05
768.412	0.05
768.808	0.05
769.203	0.05
769.599	0.06
769.994	0.05
770.389	0.05
770.785	0.05
771.18	0.05
771.575	0.05
771.971	0.05
772.366	0.05
772.761	0.05
773.156	0.05
773.551	0.05
773.945	0.05
774.34	0.05
774.735	0.05
775.13	0.05
775.524	0.05
775.919	0.05
776.314	0.05
776.708	0.05
777.103	0.05
777.497	0.05
777.891	0.06
778.285	0.05
778.68	0.05
779.074	0.05
779.468	0.06
779.862	0.06
780.256	0.05
780.65	0.06
781.044	0.06
781.438	0.06
781.831	0.06
782.225	0.06
782.619	0.06
783.012	0.06
783.406	0.06
783.799	0.06
784.193	0.06
784.586	0.06
784.979	0.06
785.372	0.06
785.766	0.06
786.159	0.06
786.552	0.06
786.945	0.06
787.338	0.06
787.731	0.06
788.123	0.06
788.516	0.06
788.909	0.06
789.302	0.06
789.694	0.06
790.087	0.06
790.479	0.06
790.872	0.06
791.264	0.06
791.656	0.06
792.049	0.06
792.441	0.06
792.833	0.06
793.225	0.06
793.617	0.06
794.009	0.06
794.401	0.06
794.793	0.06
795.185	0.06
795.576	0.06
795.968	0.06
796.36	0.06
796.751	0.06
797.143	0.06
797.534	0.06
797.926	0.06
798.317	0.06
798.708	0.07
799.1	0.07
799.491	0.06
799.882	0.07
800.273	0.07
800.664	0.07
801.055	0.07
801.446	0.06
801.837	0.07
802.227	0.06
802.618	0.07
803.009	0.07
803.399	0.07
803.79	0.07
804.18	0.07
804.571	0.07
804.961	0.07
805.351	0.07
805.742	0.07
806.132	0.07
806.522	0.07
806.912	0.07
807.302	0.07
807.692	0.07
808.082	0.07
808.472	0.07
808.862	0.07
809.251	0.07
809.641	0.07
810.031	0.07
810.42	0.07
810.81	0.07
811.199	0.07
811.589	0.07
811.978	0.07
812.367	0.07
812.756	0.07
813.146	0.07
813.535	0.07
813.924	0.07
814.313	0.07
814.702	0.08
815.091	0.07
815.479	0.07
815.868	0.07
816.257	0.07
816.645	0.07
817.034	0.07
817.423	0.07
817.811	0.08
818.199	0.08
818.588	0.07
818.976	0.07
819.364	0.07
819.753	0.07
820.141	0.08
820.529	0.07
820.917	0.08
821.305	0.08
821.693	0.07
822.08	0.08
822.468	0.08
822.856	0.08
823.244	0.07
823.631	0.08
824.019	0.08
824.406	0.08
824.794	0.08
825.181	0.08
825.568	0.08
825.956	0.08
826.343	0.08
826.73	0.08
827.117	0.08
827.504	0.08
827.891	0.08
828.278	0.08
828.665	0.08
829.052	0.08
829.438	0.08
829.825	0.08
830.212	0.08
830.598	0.08
830.985	0.08
831.371	0.08
831.757	0.08
832.144	0.08
832.53	0.08
832.916	0.08
833.302	0.08
833.688	0.08
834.075	0.08
834.461	0.08
834.846	0.08
835.232	0.08
835.618	0.08
836.004	0.08
836.39	0.08
836.775	0.08
837.161	0.08
837.546	0.08
837.932	0.08
838.317	0.08
838.702	0.08
839.088	0.09
839.473	0.09
839.858	0.09
840.243	0.08
840.628	0.09
841.013	0.09
841.398	0.09
841.783	0.09
842.168	0.09
842.553	0.09
842.937	0.09
843.322	0.09
843.707	0.09
844.091	0.09
844.476	0.09
844.86	0.09
845.244	0.09
845.629	0.09
846.013	0.09
846.397	0.09
846.781	0.08
847.165	0.09
847.549	0.09
847.933	0.09
848.317	0.09
848.701	0.09
849.085	0.09
849.468	0.09
849.852	0.09
850.236	0.09
850.619	0.09
851.003	0.09
851.386	0.09
851.769	0.09
852.153	0.09
852.536	0.09
852.919	0.09
853.302	0.09
853.685	0.09
854.068	0.09
854.451	0.09
854.834	0.09
855.217	0.09
855.6	0.09
855.982	0.09
856.365	0.09
856.748	0.09
857.13	0.09
857.513	0.09
857.895	0.09
858.277	0.09
858.66	0.09
859.042	0.09
859.424	0.09
859.806	0.09
860.188	0.09
860.57	0.09
860.952	0.09
861.334	0.09
861.716	0.09
862.098	0.09
862.48	0.09
862.861	0.09
863.243	0.09
863.624	0.09
864.006	0.09
864.387	0.09
864.769	0.09
865.15	0.09
865.531	0.09
865.912	0.09
866.294	0.09
866.675	0.09
867.056	0.09
867.437	0.09
867.818	0.09
868.198	0.09
868.579	0.09
868.96	0.08
869.341	0.09
869.721	0.09
870.102	0.09
870.482	0.09
870.863	0.09
871.243	0.09
871.623	0.09
872.003	0.09
872.384	0.09
872.764	0.09
873.144	0.09
873.524	0.09
873.904	0.08
874.284	0.09
874.664	0.08
875.043	0.09
875.423	0.09
875.803	0.09
876.182	0.09
876.562	0.09
876.941	0.09
877.321	0.09
877.7	0.09
878.079	0.09
878.459	0.09
878.838	0.09
879.217	0.09
879.596	0.09
879.975	0.09
880.354	0.09
880.733	0.09
881.112	0.09
881.491	0.09
881.869	0.09
882.248	0.09
882.627	0.09
883.005	0.09
883.384	0.09
883.762	0.09
884.14	0.09
884.519	0.09
884.897	0.09
885.275	0.08
885.653	0.08
886.031	0.09
886.409	0.09
886.787	0.08
887.165	0.09
887.543	0.09
887.921	0.09
888.298	0.08
888.676	0.09
889.054	0.09
889.431	0.09
889.809	0.09
890.186	0.09
890.563	0.09
890.941	0.09
891.318	0.08
891.695	0.09
892.072	0.09
892.449	0.09
892.826	0.08
893.203	0.09
893.58	0.08
893.957	0.08
894.334	0.08
894.71	0.09
895.087	0.08
895.464	0.08
895.84	0.09
896.217	0.08
896.593	0.08
896.969	0.08
897.346	0.08
897.722	0.09
898.098	0.09
898.474	0.08
898.85	0.08
899.226	0.09
899.602	0.09
899.978	0.08
900.354	0.08
900.73	0.08
901.105	0.08
901.481	0.08
901.857	0.08
902.232	0.08
902.608	0.08
902.983	0.08
903.358	0.08
903.734	0.08
904.109	0.08
904.484	0.08
904.859	0.08
905.234	0.08
905.609	0.08
905.984	0.08
906.359	0.08
906.734	0.08
907.108	0.08
907.483	0.08
907.858	0.08
908.232	0.08
908.607	0.08
908.981	0.08
909.356	0.08
909.73	0.08
910.104	0.08
910.478	0.08
910.853	0.08
911.227	0.08
911.601	0.08
911.975	0.08
912.349	0.08
912.722	0.08
913.096	0.08
913.47	0.08
913.844	0.08
914.217	0.08
914.591	0.08
914.964	0.08
915.338	0.07
915.711	0.08
916.084	0.08
916.458	0.08
916.831	0.08
917.204	0.08
917.577	0.08
917.95	0.08
918.323	0.08
918.696	0.08
919.069	0.08
919.441	0.08
919.814	0.08
920.187	0.08
920.559	0.08
920.932	0.08
921.304	0.08
921.677	0.08
922.049	0.08
922.421	0.08
922.794	0.08
923.166	0.08
923.538	0.08
923.91	0.08
924.282	0.08
924.654	0.08
925.026	0.08
925.398	0.08
925.769	0.07
926.141	0.08
926.513	0.08
926.884	0.08
927.256	0.08
927.627	0.07
927.999	0.08
928.37	0.07
928.741	0.07
929.113	0.07
929.484	0.07
929.855	0.07
930.226	0.08
930.597	0.08
930.968	0.07
931.339	0.08
931.709	0.08
932.08	0.08
932.451	0.08
932.821	0.07
933.192	0.07
933.562	0.08
933.933	0.07
934.303	0.07
934.673	0.07
935.044	0.07
935.414	0.07
935.784	0.07
936.154	0.07
936.524	0.07
936.894	0.07
937.264	0.07
937.634	0.07
938.004	0.07
938.373	0.07
938.743	0.07
939.113	0.07
939.482	0.07
939.852	0.07
940.221	0.07
940.59	0.07
940.96	0.07
941.329	0.07
941.698	0.07
942.067	0.07
942.436	0.07
942.805	0.07
943.174	0.07
943.543	0.07
943.912	0.07
944.28	0.07
944.649	0.07
945.018	0.07
945.386	0.07
945.755	0.07
946.123	0.07
946.492	0.07
946.86	0.07
947.228	0.07
947.596	0.06
947.965	0.07
948.333	0.07
948.701	0.07
949.069	0.07
949.437	0.07
949.804	0.07
950.172	0.07
950.54	0.07
950.908	0.07
951.275	0.07
951.643	0.07
952.01	0.07
952.378	0.07
952.745	0.06
953.112	0.07
953.479	0.06
953.847	0.07
954.214	0.06
954.581	0.06
954.948	0.06
955.315	0.06
955.682	0.06
956.048	0.06
956.415	0.06
956.782	0.06
957.148	0.06
957.515	0.06
957.881	0.06
958.248	0.06
958.614	0.06
958.981	0.06
959.347	0.06
959.713	0.06
960.079	0.06
960.445	0.06
960.811	0.06
961.177	0.06
961.543	0.06
961.909	0.06
962.275	0.06
962.641	0.06
963.006	0.06
963.372	0.06
963.737	0.06
964.103	0.06
964.468	0.06
964.834	0.06
965.199	0.06
965.564	0.06
965.929	0.06
966.294	0.06
966.659	0.06
967.024	0.05
967.389	0.05
967.754	0.06
968.119	0.05
968.484	0.06
968.848	0.05
969.213	0.06
969.578	0.06
969.942	0.06
970.307	0.05
970.671	0.05
971.035	0.05
971.399	0.06
971.764	0.05
972.128	0.05
972.492	0.05
972.856	0.05
973.22	0.05
973.584	0.05
973.948	0.05
974.311	0.05
974.675	0.06
975.039	0.05
975.402	0.05
975.766	0.06
976.129	0.05
976.493	0.06
976.856	0.06
977.219	0.05
977.582	0.05
977.946	0.05
978.309	0.05
978.672	0.05
979.035	0.06
979.398	0.06
979.761	0.05
980.123	0.05
980.486	0.06
980.849	0.05
981.211	0.05
981.574	0.05
981.936	0.05
982.299	0.05
982.661	0.05
983.023	0.05
983.386	0.05
983.748	0.05
984.11	0.05
984.472	0.05
984.834	0.05
985.196	0.05
985.558	0.05
985.92	0.05
986.281	0.05
986.643	0.05
987.005	0.05
987.366	0.05
987.728	0.04
988.089	0.05
988.451	0.05
988.812	0.05
989.173	0.04
989.534	0.04
989.895	0.04
990.257	0.05
990.618	0.04
990.979	0.05
991.339	0.05
991.7	0.05
992.061	0.05
992.422	0.05
992.782	0.05
993.143	0.05
993.503	0.05
993.864	0.05
994.224	0.05
994.585	0.05
994.945	0.05
995.305	0.05
995.665	0.05
996.025	0.05
996.385	0.05
996.745	0.05
997.105	0.05
997.465	0.04
997.825	0.05
998.185	0.05
998.544	0.04
998.904	0.05
999.263	0.04
999.623	0.05
999.982	0.05
1000.342	0.05
1000.701	0.05
1001.06	0.05
1001.419	0.05
1001.778	0.05
1002.138	0.05
1002.497	0.05
1002.855	0.05
1003.214	0.05
1003.573	0.05
1003.932	0.04
1004.29	0.04
1004.649	0.04
1005.008	0.04
1005.366	0.05
1005.725	0.05
1006.083	0.05
1006.441	0.05
1006.799	0.04
1007.158	0.05
1007.516	0.05
1007.874	0.04
1008.232	0.04
1008.59	0.04
1008.948	0.04
1009.305	0.04
1009.663	0.04
1010.021	0.04
1010.379	0.04
1010.736	0.04
1011.094	0.04
1011.451	0.03
1011.808	0.05
1012.166	0.04
1012.523	0.04
1012.88	0.04
1013.237	0.05
1013.594	0.04
1013.951	0.04
1014.308	0.05
1014.665	0.04
1015.022	0.04
1015.379	0.04
1015.735	0.04
1016.092	0.04
1016.449	0.04
1016.805	0.04
1017.162	0.05
1017.518	0.04
1017.874	0.04
1018.231	0.04
1018.587	0.03
1018.943	0.04
1019.299	0.03
1019.655	0.04
1020.011	0.04
1020.367	0.04
1020.723	0.04
1021.078	0.04
1021.434	0.04
1021.79	0.03
1022.145	0.04
1022.501	0.04
1022.856	0.04
1023.212	0.04
1023.567	0.04
1023.922	0.04
1024.278	0.04
1024.633	0.04
1024.988	0.04
1025.343	0.05
1025.698	0.04
1026.053	0.04
1026.408	0.04
1026.762	0.04
1027.117	0.03
1027.472	0.04
1027.826	0.04
1028.181	0.04
1028.535	0.04
1028.89	0.04
1029.244	0.04
1029.598	0.04
1029.952	0.03
1030.307	0.04
1030.661	0.04
1031.015	0.04
1031.369	0.04
1031.723	0.03
1032.076	0.04
