Data from Rubpy_EV_EDTA_Test_Absorbance_16-42-41-051.txt Node
Date: Thu Jun 25 16:42:41 BST 2026
User: fpm-admin
Spectrometer: OFX00224
Trigger mode: 0
Integration Time (sec): 6.000000E-2
Scans to average: 1
Nonlinearity correction enabled: false
Boxcar width: 0
Storing dark spectrum: false
XAxis mode: Wavelengths
Number of Pixels in Spectrum: 2136
>>>>>Begin Spectral Data<<<<<
154.91	-0.02
155.289	-0
155.669	-0
156.048	-0.21
156.428	0.12
156.807	0.33
157.186	-0.93
157.566	0.36
157.945	-0
158.325	0.18
158.704	-0.41
159.083	-0
159.462	0.09
159.842	0.12
160.221	-0.64
160.6	-0
160.979	1.43
161.359	-0
161.738	-0
162.117	-0
162.496	0.18
162.875	-0
163.254	0.9
163.633	-0.12
164.012	-0.23
164.391	-0.4
164.77	0.22
165.149	-0
165.528	-0
165.907	0.12
166.286	-0.2
166.665	0.75
167.044	-0
167.423	-0
167.802	-0.95
168.181	-0
168.559	-0
168.938	-0.48
169.317	-0
169.696	-0.12
170.074	-0.07
170.453	-0.09
170.832	0.38
171.21	0.18
171.589	-0
171.968	0.3
172.346	-0
172.725	-0.78
173.103	-0
173.482	-0.9
173.861	-0
174.239	-0.6
174.617	-0
174.996	0.98
175.374	0.02
175.753	-0.41
176.131	0.32
176.51	0.23
176.888	-1.22
177.266	-0
177.645	-0.01
178.023	0.94
178.401	-0.19
178.779	-0
179.158	-0.05
179.536	-0
179.914	-0
180.292	-0.18
180.67	-0
181.048	-0
181.427	-0
181.805	1
182.183	-0
182.561	-0
182.939	0.1
183.317	-0
183.695	-1.26
184.073	-0.18
184.451	-0.3
184.829	-0.3
185.206	-0
185.584	-0.37
185.962	0.41
186.34	-0
186.718	-0.07
187.096	0.4
187.473	-0
187.851	0.6
188.229	-0.04
188.607	0.45
188.984	0.53
189.362	0.46
189.74	0.26
190.117	0.26
190.495	0.24
190.872	0.77
191.25	0.22
191.627	0.08
192.005	0.65
192.382	0.47
192.76	0.43
193.137	0.34
193.515	0.9
193.892	0.47
194.269	0.14
194.647	0.41
195.024	0.25
195.401	0.34
195.779	0.2
196.156	0.41
196.533	0.61
196.91	0.5
197.288	0.39
197.665	0.44
198.042	0.48
198.419	0.23
198.796	0.39
199.173	0.43
199.55	0.27
199.927	0.64
200.304	0.58
200.681	0.35
201.058	0.36
201.435	0.26
201.812	0.36
202.189	0.91
202.566	0.26
202.943	0.5
203.32	0.5
203.697	0.32
204.073	0.29
204.45	0.36
204.827	0.56
205.204	0.41
205.58	0.45
205.957	0.62
206.334	0.39
206.71	0.35
207.087	0.46
207.464	0.35
207.84	0.34
208.217	0.68
208.593	0.48
208.97	0.4
209.346	0.31
209.723	0.44
210.099	0.52
210.476	0.39
210.852	0.72
211.228	0.38
211.605	0.53
211.981	0.49
212.357	0.22
212.733	0.3
213.11	0.46
213.486	0.32
213.862	0.32
214.238	0.47
214.614	0.28
214.991	0.68
215.367	0.25
215.743	0.5
216.119	0.48
216.495	0.66
216.871	0.41
217.247	0.47
217.623	0.36
217.999	0.31
218.375	0.38
218.751	0.48
219.127	0.2
219.502	0.47
219.878	0.42
220.254	0.31
220.63	0.55
221.006	0.55
221.381	0.43
221.757	0.44
222.133	0.61
222.508	0.36
222.884	0.32
223.26	0.31
223.635	0.47
224.011	0.47
224.386	0.46
224.762	0.42
225.137	0.49
225.513	0.38
225.888	0.3
226.264	0.51
226.639	0.37
227.014	0.45
227.39	0.46
227.765	0.45
228.14	0.43
228.516	0.37
228.891	0.44
229.266	0.41
229.641	0.88
230.017	0.43
230.392	0.61
230.767	0.45
231.142	0.46
231.517	0.49
231.892	0.49
232.267	0.41
232.642	0.78
233.017	0.36
233.392	0.44
233.767	0.58
234.142	0.69
234.517	0.46
234.892	0.58
235.267	0.52
235.641	0.55
236.016	0.49
236.391	0.54
236.766	0.81
237.14	0.48
237.515	0.82
237.89	0.59
238.264	0.8
238.639	0.65
239.014	0.41
239.388	0.55
239.763	0.54
240.137	0.58
240.512	0.77
240.886	0.67
241.261	0.56
241.635	0.47
242.009	0.74
242.384	0.53
242.758	0.72
243.132	0.58
243.507	0.56
243.881	0.58
244.255	0.5
244.629	0.58
245.004	0.8
245.378	0.69
245.752	0.39
246.126	0.58
246.5	0.63
246.874	0.65
247.248	0.59
247.622	0.55
247.996	0.58
248.37	0.57
248.744	0.62
249.118	0.65
249.492	0.53
249.866	0.99
250.24	0.81
250.613	0.61
250.987	0.68
251.361	0.71
251.735	0.7
252.108	0.69
252.482	1.19
252.856	0.75
253.229	0.91
253.603	1.09
253.977	1
254.35	1.14
254.724	1.24
255.097	1.43
255.471	1.2
255.844	1.68
256.218	1.44
256.591	1.47
256.964	1.5
257.338	1.45
257.711	1.68
258.084	1.75
258.458	1.72
258.831	1.78
259.204	1.63
259.577	2.06
259.95	1.8
260.323	1.86
260.697	1.78
261.07	1.94
261.443	1.7
261.816	1.78
262.189	1.99
262.562	1.82
262.935	1.81
263.308	1.71
263.68	1.79
264.053	1.78
264.426	1.85
264.799	1.86
265.172	1.93
265.545	1.93
265.917	1.99
266.29	1.87
266.663	1.93
267.035	2
267.408	1.86
267.781	2.03
268.153	2.05
268.526	2.05
268.898	1.98
269.271	2.16
269.643	2.06
270.016	2.03
270.388	2.08
270.76	2.03
271.133	2.06
271.505	2.14
271.877	2.05
272.25	2.21
272.622	2.09
272.994	2.27
273.366	2.36
273.739	2.1
274.111	2.3
274.483	2.11
274.855	2.16
275.227	2.14
275.599	2.18
275.971	2.33
276.343	2.21
276.715	2.2
277.087	2.29
277.459	2.37
277.831	2.35
278.203	2.22
278.574	2.28
278.946	2.21
279.318	2.11
279.69	2.29
280.061	2.23
280.433	2.37
280.805	2.38
281.176	2.17
281.548	2.36
281.92	2.28
282.291	2.27
282.663	2.35
283.034	2.35
283.406	2.34
283.777	2.14
284.148	2.28
284.52	2.14
284.891	2.2
285.262	2.4
285.634	2.16
286.005	2.14
286.376	2.22
286.747	2.2
287.119	2.26
287.49	2.41
287.861	2.26
288.232	2.16
288.603	2.14
288.974	2.33
289.345	2.11
289.716	2.25
290.087	2.32
290.458	2.34
290.829	2.15
291.2	2.2
291.571	2.17
291.941	2.1
292.312	2.17
292.683	2.18
293.054	2.13
293.424	2.11
293.795	2.2
294.166	2.13
294.536	2.13
294.907	2.23
295.277	2.2
295.648	2.28
296.018	2.23
296.389	2.2
296.759	2.21
297.13	2.15
297.5	2.09
297.871	2.06
298.241	2.06
298.611	2.03
298.981	1.92
299.352	1.92
299.722	1.85
300.092	1.82
300.462	1.74
300.832	1.74
301.202	1.66
301.573	1.6
301.943	1.56
302.313	1.53
302.683	1.46
303.053	1.43
303.422	1.39
303.792	1.35
304.162	1.32
304.532	1.27
304.902	1.21
305.272	1.2
305.641	1.18
306.011	1.15
306.381	1.12
306.75	1.09
307.12	1.08
307.49	1.04
307.859	1.02
308.229	0.99
308.598	0.98
308.968	0.95
309.337	0.94
309.707	0.93
310.076	0.91
310.445	0.91
310.815	0.89
311.184	0.87
311.553	0.87
311.923	0.85
312.292	0.84
312.661	0.84
313.03	0.83
313.399	0.81
313.768	0.81
314.137	0.8
314.506	0.79
314.875	0.81
315.244	0.79
315.613	0.77
315.982	0.78
316.351	0.77
316.72	0.77
317.089	0.75
317.458	0.75
317.826	0.75
318.195	0.74
318.564	0.74
318.933	0.74
319.301	0.73
319.67	0.73
320.038	0.73
320.407	0.72
320.775	0.71
321.144	0.72
321.512	0.72
321.881	0.71
322.249	0.7
322.618	0.7
322.986	0.7
323.354	0.69
323.723	0.69
324.091	0.69
324.459	0.68
324.827	0.68
325.195	0.66
325.564	0.67
325.932	0.66
326.3	0.66
326.668	0.65
327.036	0.64
327.404	0.64
327.772	0.63
328.14	0.64
328.508	0.62
328.875	0.62
329.243	0.62
329.611	0.6
329.979	0.6
330.346	0.58
330.714	0.58
331.082	0.57
331.449	0.57
331.817	0.57
332.185	0.57
332.552	0.56
332.92	0.56
333.287	0.56
333.655	0.55
334.022	0.55
334.389	0.54
334.757	0.53
335.124	0.52
335.491	0.51
335.859	0.51
336.226	0.51
336.593	0.51
336.96	0.51
337.327	0.5
337.695	0.49
338.062	0.49
338.429	0.5
338.796	0.48
339.163	0.49
339.53	0.49
339.897	0.48
340.263	0.47
340.63	0.48
340.997	0.47
341.364	0.47
341.731	0.46
342.097	0.46
342.464	0.46
342.831	0.45
343.197	0.46
343.564	0.45
343.931	0.45
344.297	0.45
344.664	0.44
345.03	0.45
345.396	0.45
345.763	0.44
346.129	0.45
346.496	0.45
346.862	0.45
347.228	0.45
347.594	0.44
347.961	0.45
348.327	0.45
348.693	0.45
349.059	0.44
349.425	0.44
349.791	0.44
350.157	0.44
350.523	0.44
350.889	0.44
351.255	0.43
351.621	0.44
351.987	0.44
352.353	0.44
352.719	0.44
353.084	0.44
353.45	0.44
353.816	0.43
354.181	0.43
354.547	0.43
354.913	0.43
355.278	0.43
355.644	0.43
356.009	0.43
356.375	0.43
356.74	0.42
357.106	0.42
357.471	0.42
357.836	0.42
358.202	0.41
358.567	0.41
358.932	0.4
359.297	0.4
359.663	0.4
360.028	0.4
360.393	0.4
360.758	0.39
361.123	0.39
361.488	0.38
361.853	0.39
362.218	0.38
362.583	0.38
362.948	0.38
363.312	0.37
363.677	0.36
364.042	0.36
364.407	0.36
364.772	0.37
365.136	0.36
365.501	0.36
365.865	0.36
366.23	0.35
366.595	0.36
366.959	0.36
367.324	0.35
367.688	0.35
368.052	0.35
368.417	0.35
368.781	0.35
369.145	0.35
369.51	0.35
369.874	0.35
370.238	0.34
370.602	0.35
370.967	0.34
371.331	0.35
371.695	0.33
372.059	0.34
372.423	0.34
372.787	0.35
373.151	0.34
373.515	0.34
373.878	0.34
374.242	0.35
374.606	0.34
374.97	0.34
375.334	0.35
375.697	0.35
376.061	0.34
376.425	0.35
376.788	0.35
377.152	0.36
377.515	0.35
377.879	0.35
378.242	0.35
378.606	0.35
378.969	0.35
379.333	0.36
379.696	0.35
380.059	0.36
380.422	0.36
380.786	0.36
381.149	0.37
381.512	0.37
381.875	0.37
382.238	0.37
382.601	0.38
382.964	0.39
383.327	0.38
383.69	0.39
384.053	0.4
384.416	0.4
384.779	0.4
385.142	0.4
385.504	0.41
385.867	0.41
386.23	0.41
386.593	0.41
386.955	0.41
387.318	0.41
387.68	0.42
388.043	0.42
388.405	0.43
388.768	0.42
389.13	0.42
389.493	0.43
389.855	0.43
390.217	0.43
390.58	0.43
390.942	0.44
391.304	0.44
391.666	0.45
392.028	0.44
392.391	0.45
392.753	0.46
393.115	0.46
393.477	0.47
393.839	0.48
394.201	0.48
394.563	0.48
394.924	0.48
395.286	0.48
395.648	0.49
396.01	0.49
396.371	0.49
396.733	0.49
397.095	0.5
397.456	0.5
397.818	0.5
398.18	0.5
398.541	0.5
398.903	0.49
399.264	0.49
399.625	0.5
399.987	0.49
400.348	0.49
400.709	0.49
401.071	0.5
401.432	0.49
401.793	0.49
402.154	0.5
402.515	0.49
402.876	0.5
403.238	0.5
403.599	0.5
403.96	0.5
404.32	0.51
404.681	0.51
405.042	0.51
405.403	0.52
405.764	0.52
406.125	0.53
406.485	0.53
406.846	0.54
407.207	0.54
407.567	0.55
407.928	0.56
408.288	0.55
408.649	0.56
409.009	0.57
409.37	0.57
409.73	0.58
410.091	0.58
410.451	0.59
410.811	0.6
411.171	0.61
411.532	0.61
411.892	0.63
412.252	0.63
412.612	0.64
412.972	0.64
413.332	0.66
413.692	0.66
414.052	0.67
414.412	0.67
414.772	0.68
415.132	0.68
415.492	0.68
415.851	0.7
416.211	0.71
416.571	0.71
416.931	0.72
417.29	0.72
417.65	0.73
418.009	0.73
418.369	0.73
418.728	0.75
419.088	0.74
419.447	0.75
419.807	0.75
420.166	0.76
420.525	0.77
420.884	0.76
421.244	0.77
421.603	0.78
421.962	0.78
422.321	0.78
422.68	0.79
423.039	0.79
423.398	0.8
423.757	0.8
424.116	0.8
424.475	0.8
424.834	0.81
425.193	0.81
425.551	0.81
425.91	0.82
426.269	0.82
426.628	0.82
426.986	0.83
427.345	0.82
427.703	0.82
428.062	0.82
428.42	0.83
428.779	0.83
429.137	0.84
429.496	0.83
429.854	0.84
430.212	0.83
430.57	0.83
430.929	0.84
431.287	0.85
431.645	0.84
432.003	0.84
432.361	0.85
432.719	0.85
433.077	0.85
433.435	0.86
433.793	0.86
434.151	0.85
434.509	0.86
434.866	0.86
435.224	0.85
435.582	0.85
435.94	0.86
436.297	0.86
436.655	0.87
437.012	0.86
437.37	0.86
437.727	0.88
438.085	0.88
438.442	0.88
438.8	0.88
439.157	0.87
439.514	0.88
439.872	0.87
440.229	0.88
440.586	0.88
440.943	0.88
441.3	0.89
441.657	0.89
442.014	0.89
442.371	0.9
442.728	0.89
443.085	0.9
443.442	0.91
443.799	0.91
444.156	0.91
444.513	0.92
444.869	0.92
445.226	0.92
445.583	0.92
445.939	0.92
446.296	0.93
446.652	0.92
447.009	0.93
447.365	0.92
447.722	0.93
448.078	0.94
448.434	0.94
448.791	0.95
449.147	0.95
449.503	0.95
449.859	0.94
450.215	0.95
450.571	0.94
450.928	0.94
451.284	0.96
451.64	0.96
451.995	0.95
452.351	0.94
452.707	0.95
453.063	0.94
453.419	0.95
453.775	0.95
454.13	0.96
454.486	0.94
454.842	0.94
455.197	0.94
455.553	0.95
455.908	0.93
456.264	0.94
456.619	0.92
456.975	0.92
457.33	0.91
457.685	0.91
458.04	0.92
458.396	0.91
458.751	0.9
459.106	0.89
459.461	0.88
459.816	0.88
460.171	0.87
460.526	0.87
460.881	0.85
461.236	0.86
461.591	0.85
461.946	0.83
462.301	0.83
462.655	0.82
463.01	0.81
463.365	0.8
463.719	0.8
464.074	0.78
464.428	0.77
464.783	0.77
465.137	0.76
465.492	0.75
465.846	0.76
466.201	0.74
466.555	0.73
466.909	0.71
467.263	0.71
467.618	0.69
467.972	0.68
468.326	0.68
468.68	0.67
469.034	0.66
469.388	0.65
469.742	0.63
470.096	0.62
470.45	0.62
470.804	0.62
471.157	0.6
471.511	0.59
471.865	0.59
472.218	0.58
472.572	0.57
472.926	0.56
473.279	0.55
473.633	0.55
473.986	0.54
474.34	0.54
474.693	0.53
475.046	0.53
475.4	0.51
475.753	0.52
476.106	0.51
476.459	0.5
476.812	0.49
477.165	0.48
477.519	0.48
477.872	0.46
478.224	0.46
478.577	0.45
478.93	0.44
479.283	0.44
479.636	0.43
479.989	0.43
480.341	0.42
480.694	0.42
481.047	0.41
481.399	0.4
481.752	0.39
482.104	0.39
482.457	0.39
482.809	0.37
483.162	0.37
483.514	0.36
483.866	0.36
484.219	0.36
484.571	0.36
484.923	0.34
485.275	0.33
485.627	0.33
485.979	0.33
486.331	0.32
486.683	0.32
487.035	0.31
487.387	0.31
487.739	0.31
488.091	0.31
488.443	0.3
488.794	0.29
489.146	0.29
489.498	0.29
489.849	0.28
490.201	0.29
490.552	0.27
490.904	0.27
491.255	0.27
491.607	0.26
491.958	0.27
492.309	0.27
492.661	0.26
493.012	0.26
493.363	0.25
493.714	0.25
494.065	0.24
494.416	0.25
494.767	0.24
495.118	0.24
495.469	0.23
495.82	0.23
496.171	0.23
496.522	0.23
496.872	0.24
497.223	0.22
497.574	0.22
497.924	0.22
498.275	0.21
498.626	0.21
498.976	0.22
499.327	0.22
499.677	0.21
500.027	0.21
500.378	0.2
500.728	0.21
501.078	0.21
501.428	0.21
501.779	0.21
502.129	0.21
502.479	0.21
502.829	0.2
503.179	0.2
503.529	0.2
503.879	0.2
504.229	0.2
504.578	0.2
504.928	0.19
505.278	0.2
505.628	0.19
505.977	0.2
506.327	0.19
506.676	0.19
507.026	0.19
507.375	0.18
507.725	0.18
508.074	0.19
508.424	0.19
508.773	0.19
509.122	0.18
509.471	0.18
509.82	0.18
510.17	0.18
510.519	0.18
510.868	0.18
511.217	0.18
511.566	0.18
511.915	0.18
512.263	0.18
512.612	0.17
512.961	0.18
513.31	0.18
513.659	0.17
514.007	0.17
514.356	0.18
514.704	0.17
515.053	0.17
515.401	0.17
515.75	0.17
516.098	0.17
516.447	0.17
516.795	0.18
517.143	0.17
517.491	0.16
517.839	0.17
518.188	0.17
518.536	0.17
518.884	0.16
519.232	0.17
519.58	0.16
519.928	0.16
520.275	0.17
520.623	0.17
520.971	0.16
521.319	0.16
521.666	0.16
522.014	0.16
522.362	0.16
522.709	0.16
523.057	0.15
523.404	0.16
523.752	0.16
524.099	0.16
524.446	0.15
524.794	0.16
525.141	0.16
525.488	0.16
525.835	0.16
526.182	0.16
526.529	0.16
526.876	0.16
527.223	0.15
527.57	0.14
527.917	0.16
528.264	0.15
528.611	0.15
528.958	0.16
529.304	0.15
529.651	0.15
529.998	0.15
530.344	0.15
530.691	0.16
531.037	0.15
531.384	0.15
531.73	0.15
532.076	0.15
532.423	0.15
532.769	0.14
533.115	0.14
533.461	0.15
533.807	0.15
534.154	0.14
534.5	0.14
534.846	0.14
535.192	0.14
535.537	0.15
535.883	0.15
536.229	0.14
536.575	0.15
536.921	0.15
537.266	0.14
537.612	0.14
537.957	0.14
538.303	0.15
538.649	0.14
538.994	0.14
539.339	0.14
539.685	0.14
540.03	0.14
540.375	0.14
540.721	0.13
541.066	0.13
541.411	0.14
541.756	0.14
542.101	0.13
542.446	0.14
542.791	0.13
543.136	0.13
543.481	0.14
543.825	0.14
544.17	0.14
544.515	0.14
544.86	0.14
545.204	0.14
545.549	0.14
545.893	0.14
546.238	0.13
546.582	0.14
546.927	0.14
547.271	0.14
547.615	0.14
547.96	0.14
548.304	0.13
548.648	0.13
548.992	0.13
549.336	0.13
549.68	0.12
550.024	0.13
550.368	0.13
550.712	0.12
551.056	0.13
551.4	0.13
551.743	0.13
552.087	0.13
552.431	0.14
552.774	0.14
553.118	0.13
553.462	0.13
553.805	0.13
554.148	0.13
554.492	0.13
554.835	0.13
555.178	0.13
555.522	0.13
555.865	0.14
556.208	0.13
556.551	0.12
556.894	0.13
557.237	0.13
557.58	0.12
557.923	0.12
558.266	0.13
558.609	0.12
558.952	0.12
559.294	0.13
559.637	0.13
559.98	0.13
560.322	0.13
560.665	0.12
561.007	0.12
561.35	0.12
561.692	0.12
562.034	0.12
562.377	0.12
562.719	0.12
563.061	0.12
563.403	0.12
563.745	0.12
564.088	0.12
564.43	0.13
564.772	0.12
565.113	0.12
565.455	0.12
565.797	0.12
566.139	0.12
566.481	0.12
566.822	0.12
567.164	0.12
567.506	0.12
567.847	0.11
568.189	0.12
568.53	0.12
568.872	0.12
569.213	0.12
569.554	0.12
569.895	0.12
570.237	0.12
570.578	0.11
570.919	0.11
571.26	0.11
571.601	0.11
571.942	0.12
572.283	0.11
572.624	0.1
572.965	0.11
573.306	0.11
573.646	0.11
573.987	0.11
574.328	0.11
574.668	0.11
575.009	0.11
575.349	0.11
575.69	0.11
576.03	0.11
576.37	0.1
576.711	0.11
577.051	0.11
577.391	0.11
577.731	0.11
578.072	0.11
578.412	0.11
578.752	0.11
579.092	0.09
579.431	0.1
579.771	0.1
580.111	0.1
580.451	0.11
580.791	0.1
581.13	0.1
581.47	0.11
581.81	0.1
582.149	0.1
582.489	0.1
582.828	0.09
583.167	0.1
583.507	0.1
583.846	0.1
584.185	0.1
584.525	0.1
584.864	0.11
585.203	0.11
585.542	0.1
585.881	0.11
586.22	0.1
586.559	0.1
586.898	0.1
587.236	0.1
587.575	0.11
587.914	0.11
588.252	0.1
588.591	0.11
588.93	0.1
589.268	0.11
589.607	0.1
589.945	0.11
590.283	0.1
590.622	0.11
590.96	0.11
591.298	0.11
591.636	0.11
591.974	0.12
592.313	0.11
592.651	0.11
592.989	0.12
593.326	0.11
593.664	0.11
594.002	0.11
594.34	0.1
594.678	0.1
595.015	0.1
595.353	0.11
595.691	0.11
596.028	0.11
596.366	0.11
596.703	0.11
597.04	0.11
597.378	0.11
597.715	0.12
598.052	0.12
598.389	0.11
598.726	0.11
599.064	0.12
599.401	0.11
599.738	0.11
600.074	0.11
600.411	0.11
600.748	0.11
601.085	0.1
601.422	0.11
601.758	0.11
602.095	0.1
602.432	0.11
602.768	0.11
603.105	0.11
603.441	0.11
603.777	0.11
604.114	0.11
604.45	0.11
604.786	0.1
605.122	0.11
605.459	0.11
605.795	0.11
606.131	0.12
606.467	0.11
606.803	0.11
607.139	0.11
607.474	0.12
607.81	0.12
608.146	0.11
608.482	0.12
608.817	0.11
609.153	0.11
609.488	0.11
609.824	0.12
610.159	0.11
610.495	0.12
610.83	0.11
611.165	0.11
611.5	0.12
611.836	0.12
612.171	0.11
612.506	0.12
612.841	0.11
613.176	0.12
613.511	0.12
613.845	0.12
614.18	0.12
614.515	0.12
614.85	0.12
615.184	0.12
615.519	0.12
615.854	0.12
616.188	0.11
616.523	0.11
616.857	0.11
617.191	0.12
617.526	0.11
617.86	0.11
618.194	0.11
618.528	0.12
618.862	0.12
619.196	0.12
619.53	0.11
619.864	0.12
620.198	0.12
620.532	0.12
620.866	0.12
621.2	0.12
621.533	0.12
621.867	0.12
622.201	0.12
622.534	0.12
622.868	0.12
623.201	0.13
623.534	0.12
623.868	0.12
624.201	0.12
624.534	0.13
624.868	0.12
625.201	0.12
625.534	0.12
625.867	0.12
626.2	0.12
626.533	0.12
626.865	0.12
627.198	0.13
627.531	0.12
627.864	0.12
628.196	0.12
628.529	0.13
628.862	0.12
629.194	0.12
629.527	0.12
629.859	0.12
630.191	0.12
630.524	0.12
630.856	0.12
631.188	0.12
631.52	0.13
631.852	0.12
632.184	0.12
632.516	0.12
632.848	0.12
633.18	0.12
633.512	0.12
633.844	0.12
634.175	0.13
634.507	0.12
634.839	0.12
635.17	0.12
635.502	0.12
635.833	0.12
636.165	0.12
636.496	0.12
636.827	0.13
637.159	0.12
637.49	0.12
637.821	0.12
638.152	0.12
638.483	0.12
638.814	0.12
639.145	0.12
639.476	0.11
639.807	0.12
640.137	0.12
640.468	0.11
640.799	0.12
641.129	0.11
641.46	0.12
641.791	0.11
642.121	0.12
642.451	0.12
642.782	0.12
643.112	0.12
643.442	0.12
643.773	0.13
644.103	0.12
644.433	0.12
644.763	0.12
645.093	0.12
645.423	0.12
645.753	0.12
646.082	0.12
646.412	0.12
646.742	0.13
647.072	0.12
647.401	0.12
647.731	0.12
648.06	0.12
648.39	0.12
648.719	0.12
649.048	0.12
649.378	0.12
649.707	0.12
650.036	0.12
650.365	0.12
650.694	0.11
651.023	0.12
651.352	0.12
651.681	0.12
652.01	0.12
652.339	0.12
652.668	0.12
652.996	0.12
653.325	0.13
653.654	0.13
653.982	0.12
654.311	0.11
654.639	0.12
654.967	0.12
655.296	0.12
655.624	0.11
655.952	0.12
656.28	0.06
656.609	0.02
656.937	0.04
657.265	0.07
657.593	0.06
657.92	0.08
658.248	0.09
658.576	0.11
658.904	0.12
659.231	0.12
659.559	0.11
659.887	0.12
660.214	0.12
660.542	0.12
660.869	0.13
661.196	0.13
661.524	0.12
661.851	0.12
662.178	0.13
662.505	0.13
662.832	0.13
663.159	0.12
663.486	0.12
663.813	0.13
664.14	0.13
664.467	0.12
664.794	0.12
665.12	0.12
665.447	0.12
665.774	0.12
666.1	0.12
666.427	0.12
666.753	0.12
667.079	0.12
667.406	0.13
667.732	0.13
668.058	0.13
668.384	0.13
668.71	0.13
669.036	0.12
669.362	0.13
669.688	0.12
670.014	0.12
670.34	0.12
670.666	0.12
670.991	0.12
671.317	0.12
671.643	0.12
671.968	0.12
672.294	0.13
672.619	0.12
672.945	0.12
673.27	0.12
673.595	0.12
673.92	0.12
674.246	0.12
674.571	0.13
674.896	0.13
675.221	0.13
675.546	0.13
675.87	0.13
676.195	0.12
676.52	0.12
676.845	0.13
677.169	0.12
677.494	0.13
677.819	0.13
678.143	0.12
678.468	0.13
678.792	0.13
679.116	0.13
679.44	0.13
679.765	0.13
680.089	0.12
680.413	0.12
680.737	0.12
681.061	0.12
681.385	0.13
681.709	0.12
682.033	0.12
682.356	0.12
682.68	0.12
683.004	0.12
683.327	0.12
683.651	0.12
683.974	0.12
684.298	0.13
684.621	0.12
684.944	0.12
685.268	0.13
685.591	0.12
685.914	0.12
686.237	0.12
686.56	0.12
686.883	0.12
687.206	0.12
687.529	0.12
687.852	0.13
688.175	0.12
688.497	0.12
688.82	0.12
689.142	0.13
689.465	0.12
689.787	0.13
690.11	0.12
690.432	0.13
690.755	0.13
691.077	0.12
691.399	0.13
691.721	0.13
692.043	0.12
692.365	0.13
692.687	0.12
693.009	0.13
693.331	0.12
693.653	0.12
693.974	0.12
694.296	0.13
694.618	0.13
694.939	0.12
695.261	0.13
695.582	0.13
695.904	0.13
696.225	0.12
696.546	0.13
696.868	0.13
697.189	0.12
697.51	0.13
697.831	0.12
698.152	0.12
698.473	0.12
698.794	0.13
699.114	0.13
699.435	0.12
699.756	0.13
700.077	0.14
700.397	0.14
700.718	0.13
701.038	0.13
701.359	0.14
701.679	0.13
701.999	0.13
702.32	0.13
702.64	0.13
702.96	0.13
703.28	0.13
703.6	0.12
703.92	0.13
704.24	0.14
704.56	0.13
704.879	0.13
705.199	0.13
705.519	0.13
705.838	0.14
706.158	0.14
706.478	0.14
706.797	0.14
707.116	0.14
707.436	0.13
707.755	0.14
708.074	0.13
708.393	0.13
708.712	0.13
709.031	0.13
709.35	0.13
709.669	0.13
709.988	0.13
710.307	0.13
710.626	0.13
710.944	0.13
711.263	0.14
711.582	0.14
711.9	0.14
712.219	0.15
712.537	0.14
712.855	0.14
713.174	0.14
713.492	0.14
713.81	0.14
714.128	0.14
714.446	0.14
714.764	0.14
715.082	0.14
715.4	0.14
715.718	0.13
716.035	0.13
716.353	0.13
716.671	0.13
716.988	0.14
717.306	0.13
717.623	0.14
717.941	0.14
718.258	0.14
718.575	0.14
718.893	0.14
719.21	0.14
719.527	0.14
719.844	0.14
720.161	0.14
720.478	0.14
720.795	0.14
721.112	0.14
721.428	0.15
721.745	0.14
722.062	0.14
722.378	0.14
722.695	0.14
723.011	0.14
723.328	0.13
723.644	0.14
723.96	0.14
724.276	0.14
724.593	0.14
724.909	0.14
725.225	0.15
725.541	0.14
725.857	0.14
726.173	0.15
726.488	0.15
726.804	0.15
727.12	0.15
727.435	0.15
727.751	0.15
728.067	0.15
728.382	0.15
728.697	0.15
729.013	0.14
729.328	0.14
729.643	0.13
729.958	0.14
730.273	0.13
730.588	0.14
730.903	0.14
731.218	0.14
731.533	0.14
731.848	0.14
732.163	0.14
732.477	0.14
732.792	0.14
733.107	0.14
733.421	0.14
733.736	0.14
734.05	0.14
734.364	0.14
734.678	0.14
734.993	0.14
735.307	0.14
735.621	0.15
735.935	0.14
736.249	0.15
736.563	0.14
736.877	0.15
737.19	0.14
737.504	0.14
737.818	0.14
738.131	0.14
738.445	0.14
738.758	0.15
739.072	0.15
739.385	0.14
739.698	0.14
740.012	0.14
740.325	0.15
740.638	0.15
740.951	0.15
741.264	0.15
741.577	0.15
741.89	0.14
742.203	0.14
742.515	0.15
742.828	0.15
743.141	0.14
743.453	0.15
743.766	0.15
744.078	0.15
744.391	0.15
744.703	0.15
745.015	0.15
745.327	0.15
745.639	0.15
745.952	0.15
746.264	0.15
746.575	0.15
746.887	0.15
747.199	0.15
747.511	0.15
747.823	0.15
748.134	0.15
748.446	0.15
748.757	0.15
749.069	0.14
749.38	0.15
749.692	0.15
750.003	0.14
750.314	0.14
750.625	0.15
750.936	0.14
751.248	0.14
751.559	0.14
751.869	0.14
752.18	0.14
752.491	0.13
752.802	0.14
753.112	0.14
753.423	0.15
753.734	0.14
754.044	0.14
754.355	0.14
754.665	0.15
754.975	0.14
755.285	0.14
755.596	0.14
755.906	0.14
756.216	0.14
756.526	0.14
756.836	0.14
757.146	0.14
757.455	0.14
757.765	0.14
758.075	0.14
758.385	0.14
758.694	0.13
759.004	0.13
759.313	0.14
759.622	0.14
759.932	0.14
760.241	0.14
760.55	0.14
760.859	0.14
761.168	0.14
761.477	0.13
761.786	0.14
762.095	0.14
762.404	0.14
762.713	0.14
763.021	0.14
763.33	0.14
763.639	0.14
763.947	0.14
764.256	0.14
764.564	0.14
764.872	0.14
765.181	0.14
765.489	0.13
765.797	0.14
766.105	0.13
766.413	0.14
766.721	0.12
767.029	0.13
767.337	0.13
767.644	0.13
767.952	0.13
768.26	0.13
768.567	0.13
768.875	0.13
769.182	0.14
769.49	0.13
769.797	0.13
770.104	0.13
770.411	0.13
770.718	0.13
771.026	0.13
771.333	0.13
771.639	0.13
771.946	0.14
772.253	0.13
772.56	0.13
772.867	0.13
773.173	0.13
773.48	0.13
773.786	0.12
774.093	0.13
774.399	0.13
774.705	0.13
775.012	0.13
775.318	0.13
775.624	0.13
775.93	0.13
776.236	0.13
776.542	0.13
776.848	0.14
777.154	0.13
777.459	0.14
777.765	0.13
778.071	0.13
778.376	0.13
778.682	0.14
778.987	0.13
779.292	0.13
779.598	0.13
779.903	0.13
780.208	0.13
780.513	0.13
780.818	0.13
781.123	0.13
781.428	0.13
781.733	0.13
782.038	0.13
782.343	0.13
782.647	0.13
782.952	0.14
783.256	0.14
783.561	0.13
783.865	0.13
784.17	0.13
784.474	0.12
784.778	0.12
785.082	0.13
785.386	0.12
785.69	0.13
785.994	0.13
786.298	0.13
786.602	0.13
786.906	0.13
787.209	0.13
787.513	0.13
787.817	0.13
788.12	0.12
788.424	0.12
788.727	0.13
789.03	0.12
789.333	0.13
789.637	0.12
789.94	0.12
790.243	0.12
790.546	0.12
790.849	0.11
791.152	0.12
791.454	0.11
791.757	0.11
792.06	0.12
792.362	0.1
792.665	0.11
792.967	0.11
793.27	0.12
793.572	0.12
793.874	0.12
794.177	0.12
794.479	0.12
794.781	0.11
795.083	0.11
795.385	0.11
795.687	0.1
795.989	0.11
796.29	0.11
796.592	0.11
796.894	0.1
797.195	0.11
797.497	0.13
797.798	0.11
798.1	0.12
798.401	0.12
798.702	0.11
799.003	0.11
799.304	0.11
799.605	0.11
799.906	0.12
800.207	0.11
800.508	0.11
800.809	0.11
801.11	0.11
801.41	0.11
801.711	0.1
802.011	0.1
802.312	0.1
802.612	0.1
802.913	0.1
803.213	0.11
803.513	0.1
803.813	0.11
804.113	0.1
804.413	0.1
804.713	0.1
805.013	0.1
805.313	0.1
805.613	0.1
805.912	0.11
806.212	0.11
806.511	0.11
806.811	0.11
807.11	0.1
807.41	0.1
807.709	0.09
808.008	0.1
808.307	0.09
808.606	0.1
808.905	0.1
809.204	0.1
809.503	0.09
809.802	0.09
810.101	0.08
810.399	0.09
810.698	0.09
810.997	0.1
811.295	0.1
811.593	0.09
811.892	0.1
812.19	0.08
812.488	0.08
812.786	0.09
813.084	0.09
813.383	0.09
813.68	0.08
813.978	0.09
814.276	0.09
814.574	0.07
814.872	0.09
815.169	0.08
815.467	0.07
815.764	0.08
816.062	0.07
816.359	0.07
816.656	0.07
816.954	0.08
817.251	0.07
817.548	0.08
817.845	0.07
818.142	0.07
818.439	0.07
818.735	0.07
819.032	0.07
819.329	0.06
819.626	0.06
819.922	0.08
820.219	0.09
820.515	0.08
820.811	0.07
821.108	0.08
821.404	0.06
821.7	0.07
821.996	0.06
822.292	0.05
822.588	0.06
822.884	0.06
823.18	0.06
823.475	0.06
823.771	0.06
824.067	0.06
824.362	0.06
824.658	0.07
824.953	0.06
825.249	0.06
825.544	0.07
825.839	0.07
826.134	0.07
826.429	0.06
826.724	0.06
827.019	0.06
827.314	0.06
827.609	0.05
827.904	0.04
828.198	0.04
828.493	0.06
828.787	0.05
829.082	0.05
829.376	0.04
829.671	0.05
829.965	0.05
830.259	0.04
830.553	0.05
830.847	0.04
831.141	0.04
831.435	0.04
831.729	0.06
832.023	0.04
832.317	0.04
832.61	0.04
832.904	0.04
833.197	0.04
833.491	0.03
833.784	0.04
834.077	0.05
834.371	0.04
834.664	0.04
834.957	0.05
835.25	0.03
835.543	0.05
835.836	0.04
836.129	0.02
836.421	0.04
836.714	0.03
837.007	0.03
837.299	0.04
837.592	0.02
837.884	0.04
838.177	0.04
838.469	0.01
838.761	0.01
839.053	0.01
839.345	0.02
839.637	0.02
839.929	-0
840.221	0
840.513	0.01
840.805	0.01
841.096	0.02
841.388	0
841.68	0.02
841.971	-0
842.262	0.01
842.554	0.02
842.845	0.02
843.136	0.01
843.427	0.01
843.718	0.03
844.009	0.02
844.3	0.02
844.591	0.02
844.882	0.02
845.173	0
845.463	0.01
845.754	0.01
846.044	-0
846.335	-0.02
846.625	0.01
846.915	-0.02
847.206	-0.01
847.496	0.01
847.786	-0.01
848.076	-0.01
848.366	-0.03
848.656	-0
848.945	-0.02
849.235	-0.02
849.525	-0.01
849.814	-0.01
850.104	-0.03
850.393	0
850.683	-0.03
850.972	-0.01
851.261	-0.03
851.551	-0
851.84	-0
852.129	-0
852.418	-0.01
852.707	-0.01
852.995	-0.05
853.284	-0.02
853.573	0
853.862	-0
854.15	-0.02
854.439	-0.03
854.727	-0.02
855.015	-0.03
855.304	-0.03
855.592	-0.04
855.88	-0.04
856.168	-0.02
856.456	-0.01
856.744	-0.02
857.032	-0
857.32	-0.03
857.607	-0.01
857.895	-0.02
858.183	-0
858.47	-0.05
858.757	-0.08
859.045	0.02
859.332	-0.04
859.619	-0.05
859.907	-0.07
860.194	-0.07
860.481	-0.03
860.768	-0.03
861.054	-0.09
861.341	-0.08
861.628	-0.03
861.915	-0.06
862.201	-0.08
862.488	-0.09
862.774	-0.06
863.061	-0.05
863.347	-0.01
863.633	-0.08
863.919	-0.02
864.205	-0.08
864.491	-0.05
864.777	-0.06
865.063	-0.08
865.349	-0.06
865.635	-0.12
865.92	-0.09
866.206	-0.14
866.492	-0.03
866.777	-0.04
867.062	-0.11
867.348	-0.11
867.633	-0.08
867.918	-0.08
868.203	-0.07
868.488	-0.09
868.773	-0.05
869.058	-0.18
869.343	-0.1
869.628	-0.12
869.912	-0.15
870.197	-0.14
870.482	-0.1
870.766	-0.19
871.05	-0
871.335	-0.15
871.619	-0.08
871.903	-0.18
872.187	-0.12
872.471	-0.01
872.755	-0.08
873.039	-0.05
873.323	-0.02
873.607	0.03
873.89	-0.18
874.174	-0.18
874.458	-0.07
874.741	-0.01
875.024	-0.02
875.308	-0.06
875.591	-0.14
875.874	-0.07
876.157	-0.03
876.44	-0.18
876.723	-0.12
877.006	-0.26
877.289	-0.19
877.572	-0.04
877.854	-0.45
878.137	-0.18
878.42	-0.15
878.702	0.01
878.984	-0.24
879.267	-0.25
879.549	-0.12
879.831	-0.17
880.113	-0.28
880.395	-0.2
880.677	-0.03
880.959	-0.3
