Data from Rubpy_EV_EDTA_Test_Absorbance_16-44-02-037.txt Node
Date: Thu Jun 25 16:44:02 BST 2026
User: fpm-admin
Spectrometer: OFX00224
Trigger mode: 0
Integration Time (sec): 6.000000E-2
Scans to average: 1
Nonlinearity correction enabled: false
Boxcar width: 0
Storing dark spectrum: false
XAxis mode: Wavelengths
Number of Pixels in Spectrum: 2136
>>>>>Begin Spectral Data<<<<<
154.91	0.32
155.289	-0
155.669	0.44
156.048	-0.19
156.428	-0
156.807	0.06
157.186	-0.95
157.566	-0
157.945	-0.6
158.325	-0
158.704	-0.16
159.083	-0
159.462	-0.26
159.842	0.04
160.221	-0.52
160.6	-0
160.979	0.65
161.359	-0
161.738	-0
162.117	0.23
162.496	-0
162.875	-0.03
163.254	-0.23
163.633	-0
164.012	0.16
164.391	-0
164.77	0.52
165.149	-0
165.528	-0
165.907	0.12
166.286	-0
166.665	-0
167.044	0.52
167.423	-0
167.802	-0
168.181	-0
168.559	-0
168.938	-0.72
169.317	-1
169.696	0.4
170.074	0.2
170.453	0.19
170.832	0.3
171.21	-0.52
171.589	-0
171.968	-0
172.346	-0
172.725	-0.95
173.103	-0.2
173.482	-0
173.861	-0
174.239	-0
174.617	-0.3
174.996	-0
175.374	0.98
175.753	-0
176.131	1.1
176.51	0.48
176.888	-0.74
177.266	-0
177.645	0.2
178.023	0.37
178.401	0.08
178.779	0.2
179.158	-0.02
179.536	-0
179.914	0.45
180.292	1.08
180.67	-0
181.048	-0
181.427	-0
181.805	-0
182.183	-0.16
182.561	-0
182.939	-0.14
183.317	-0
183.695	-0
184.073	-0.38
184.451	-0.43
184.829	0.12
185.206	-0
185.584	-0.6
185.962	-0
186.34	-0
186.718	-0
187.096	0.7
187.473	0.14
187.851	-0
188.229	0.07
188.607	0.15
188.984	0.47
189.362	0.47
189.74	0.36
190.117	0.17
190.495	0.15
190.872	0.47
191.25	0.29
191.627	0.36
192.005	0.35
192.382	0.45
192.76	0.38
193.137	0.32
193.515	0.15
193.892	0.36
194.269	0.27
194.647	0.25
195.024	0.35
195.401	0.29
195.779	0.3
196.156	0.32
196.533	0.42
196.91	0.54
197.288	0.35
197.665	0.26
198.042	0.2
198.419	0.23
198.796	0.54
199.173	0.33
199.55	0.64
199.927	0.38
200.304	0.76
200.681	0.37
201.058	0.57
201.435	0.45
201.812	0.44
202.189	0.56
202.566	0.25
202.943	0.25
203.32	0.48
203.697	0.28
204.073	0.35
204.45	0.5
204.827	0.33
205.204	0.36
205.58	0.45
205.957	0.25
206.334	0.47
206.71	0.3
207.087	0.49
207.464	0.39
207.84	0.46
208.217	0.3
208.593	0.54
208.97	0.65
209.346	0.21
209.723	0.59
210.099	0.46
210.476	0.5
210.852	0.57
211.228	0.42
211.605	0.27
211.981	0.25
212.357	0.23
212.733	0.34
213.11	0.49
213.486	0.45
213.862	0.41
214.238	0.47
214.614	0.47
214.991	0.55
215.367	0.28
215.743	0.45
216.119	0.95
216.495	0.81
216.871	0.24
217.247	0.53
217.623	0.42
217.999	0.38
218.375	0.72
218.751	0.54
219.127	0.32
219.502	0.48
219.878	0.36
220.254	0.37
220.63	0.47
221.006	0.33
221.381	0.48
221.757	0.39
222.133	0.34
222.508	0.42
222.884	0.41
223.26	0.45
223.635	0.44
224.011	0.3
224.386	0.33
224.762	0.39
225.137	0.68
225.513	0.43
225.888	0.41
226.264	0.35
226.639	0.41
227.014	0.6
227.39	0.45
227.765	0.51
228.14	0.54
228.516	0.61
228.891	0.48
229.266	0.67
229.641	0.59
230.017	0.41
230.392	0.55
230.767	0.4
231.142	0.34
231.517	0.53
231.892	0.45
232.267	0.56
232.642	0.41
233.017	0.42
233.392	0.41
233.767	0.59
234.142	0.65
234.517	0.46
234.892	0.49
235.267	0.47
235.641	0.64
236.016	0.52
236.391	0.38
236.766	0.55
237.14	0.39
237.515	0.72
237.89	0.54
238.264	0.49
238.639	0.69
239.014	0.55
239.388	0.53
239.763	0.66
240.137	0.61
240.512	0.77
240.886	0.58
241.261	0.79
241.635	0.53
242.009	0.9
242.384	0.54
242.758	0.6
243.132	0.61
243.507	0.58
243.881	0.67
244.255	0.64
244.629	0.9
245.004	0.61
245.378	0.57
245.752	0.52
246.126	0.56
246.5	0.63
246.874	0.83
247.248	0.7
247.622	0.61
247.996	0.68
248.37	0.79
248.744	0.62
249.118	0.62
249.492	0.55
249.866	0.88
250.24	0.81
250.613	0.99
250.987	0.94
251.361	0.74
251.735	1
252.108	0.69
252.482	1.03
252.856	0.88
253.229	1.05
253.603	1.22
253.977	1.05
254.35	1.17
254.724	1.15
255.097	1.17
255.471	1.17
255.844	1.43
256.218	1.5
256.591	1.4
256.964	1.54
257.338	1.46
257.711	1.65
258.084	1.69
258.458	1.77
258.831	1.91
259.204	1.61
259.577	1.65
259.95	1.88
260.323	1.63
260.697	1.81
261.07	1.82
261.443	1.73
261.816	1.81
262.189	1.87
262.562	1.89
262.935	1.95
263.308	1.8
263.68	2
264.053	1.73
264.426	1.87
264.799	1.83
265.172	1.87
265.545	1.99
265.917	1.95
266.29	1.89
266.663	1.85
267.035	2.22
267.408	1.84
267.781	2.05
268.153	2.03
268.526	1.99
268.898	1.97
269.271	2.03
269.643	2.05
270.016	2.09
270.388	2.13
270.76	2.06
271.133	2.19
271.505	2.13
271.877	2.03
272.25	2.2
272.622	2.11
272.994	2.45
273.366	2.32
273.739	2.15
274.111	2.32
274.483	2.1
274.855	2.16
275.227	2.07
275.599	2.16
275.971	2.17
276.343	2.32
276.715	2.17
277.087	2.21
277.459	2.2
277.831	2.36
278.203	2.23
278.574	2.19
278.946	2.22
279.318	2.27
279.69	2.31
280.061	2.19
280.433	2.49
280.805	2.38
281.176	2.17
281.548	2.43
281.92	2.29
282.291	2.2
282.663	2.36
283.034	2.4
283.406	2.44
283.777	2.15
284.148	2.25
284.52	2.23
284.891	2.28
285.262	2.36
285.634	2.21
286.005	2.22
286.376	2.28
286.747	2.3
287.119	2.22
287.49	2.38
287.861	2.26
288.232	2.11
288.603	2.19
288.974	2.28
289.345	2.1
289.716	2.31
290.087	2.45
290.458	2.35
290.829	2.26
291.2	2.45
291.571	2.16
291.941	2.17
292.312	2.19
292.683	2.2
293.054	2.19
293.424	2.21
293.795	2.17
294.166	2.34
294.536	2.13
294.907	2.28
295.277	2.18
295.648	2.27
296.018	2.25
296.389	2.21
296.759	2.2
297.13	2.14
297.5	2.06
297.871	2.04
298.241	2.13
298.611	2.06
298.981	1.96
299.352	1.9
299.722	1.86
300.092	1.82
300.462	1.76
300.832	1.75
301.202	1.68
301.573	1.62
301.943	1.56
302.313	1.54
302.683	1.48
303.053	1.44
303.422	1.4
303.792	1.36
304.162	1.31
304.532	1.26
304.902	1.26
305.272	1.22
305.641	1.19
306.011	1.16
306.381	1.13
306.75	1.1
307.12	1.07
307.49	1.05
307.859	1.04
308.229	1.01
308.598	1
308.968	0.97
309.337	0.96
309.707	0.94
310.076	0.93
310.445	0.92
310.815	0.89
311.184	0.88
311.553	0.87
311.923	0.87
312.292	0.85
312.661	0.85
313.03	0.84
313.399	0.83
313.768	0.82
314.137	0.82
314.506	0.81
314.875	0.81
315.244	0.79
315.613	0.78
315.982	0.78
316.351	0.77
316.72	0.77
317.089	0.77
317.458	0.76
317.826	0.77
318.195	0.76
318.564	0.76
318.933	0.75
319.301	0.74
319.67	0.74
320.038	0.74
320.407	0.72
320.775	0.73
321.144	0.72
321.512	0.72
321.881	0.72
322.249	0.71
322.618	0.71
322.986	0.71
323.354	0.71
323.723	0.69
324.091	0.69
324.459	0.69
324.827	0.69
325.195	0.67
325.564	0.66
325.932	0.67
326.3	0.66
326.668	0.66
327.036	0.65
327.404	0.64
327.772	0.64
328.14	0.64
328.508	0.63
328.875	0.63
329.243	0.62
329.611	0.62
329.979	0.59
330.346	0.6
330.714	0.58
331.082	0.58
331.449	0.58
331.817	0.57
332.185	0.58
332.552	0.57
332.92	0.57
333.287	0.57
333.655	0.56
334.022	0.56
334.389	0.54
334.757	0.53
335.124	0.52
335.491	0.52
335.859	0.52
336.226	0.52
336.593	0.52
336.96	0.51
337.327	0.51
337.695	0.51
338.062	0.5
338.429	0.5
338.796	0.5
339.163	0.5
339.53	0.5
339.897	0.49
340.263	0.49
340.63	0.48
340.997	0.48
341.364	0.48
341.731	0.47
342.097	0.47
342.464	0.47
342.831	0.46
343.197	0.47
343.564	0.46
343.931	0.47
344.297	0.46
344.664	0.46
345.03	0.46
345.396	0.46
345.763	0.45
346.129	0.46
346.496	0.46
346.862	0.46
347.228	0.46
347.594	0.46
347.961	0.45
348.327	0.46
348.693	0.46
349.059	0.46
349.425	0.46
349.791	0.46
350.157	0.46
350.523	0.46
350.889	0.46
351.255	0.46
351.621	0.46
351.987	0.45
352.353	0.46
352.719	0.45
353.084	0.45
353.45	0.45
353.816	0.45
354.181	0.46
354.547	0.46
354.913	0.46
355.278	0.45
355.644	0.45
356.009	0.44
356.375	0.45
356.74	0.45
357.106	0.45
357.471	0.44
357.836	0.44
358.202	0.44
358.567	0.44
358.932	0.43
359.297	0.43
359.663	0.43
360.028	0.43
360.393	0.43
360.758	0.42
361.123	0.41
361.488	0.41
361.853	0.41
362.218	0.41
362.583	0.4
362.948	0.4
363.312	0.4
363.677	0.4
364.042	0.4
364.407	0.4
364.772	0.41
365.136	0.39
365.501	0.4
365.865	0.39
366.23	0.39
366.595	0.4
366.959	0.39
367.324	0.38
367.688	0.39
368.052	0.39
368.417	0.39
368.781	0.38
369.145	0.39
369.51	0.39
369.874	0.39
370.238	0.38
370.602	0.38
370.967	0.38
371.331	0.38
371.695	0.38
372.059	0.38
372.423	0.37
372.787	0.38
373.151	0.38
373.515	0.38
373.878	0.38
374.242	0.39
374.606	0.38
374.97	0.38
375.334	0.38
375.697	0.39
376.061	0.39
376.425	0.39
376.788	0.39
377.152	0.39
377.515	0.39
377.879	0.39
378.242	0.4
378.606	0.4
378.969	0.4
379.333	0.41
379.696	0.4
380.059	0.4
380.422	0.41
380.786	0.42
381.149	0.42
381.512	0.43
381.875	0.43
382.238	0.44
382.601	0.43
382.964	0.45
383.327	0.45
383.69	0.46
384.053	0.46
384.416	0.46
384.779	0.46
385.142	0.47
385.504	0.47
385.867	0.48
386.23	0.47
386.593	0.47
386.955	0.48
387.318	0.48
387.68	0.47
388.043	0.49
388.405	0.48
388.768	0.49
389.13	0.49
389.493	0.49
389.855	0.49
390.217	0.5
390.58	0.51
390.942	0.51
391.304	0.52
391.666	0.52
392.028	0.53
392.391	0.53
392.753	0.54
393.115	0.54
393.477	0.56
393.839	0.56
394.201	0.57
394.563	0.58
394.924	0.59
395.286	0.59
395.648	0.6
396.01	0.59
396.371	0.6
396.733	0.59
397.095	0.6
397.456	0.6
397.818	0.59
398.18	0.58
398.541	0.58
398.903	0.59
399.264	0.57
399.625	0.57
399.987	0.56
400.348	0.56
400.709	0.55
401.071	0.55
401.432	0.54
401.793	0.54
402.154	0.54
402.515	0.54
402.876	0.53
403.238	0.53
403.599	0.55
403.96	0.53
404.32	0.53
404.681	0.54
405.042	0.54
405.403	0.54
405.764	0.55
406.125	0.55
406.485	0.55
406.846	0.55
407.207	0.56
407.567	0.56
407.928	0.57
408.288	0.57
408.649	0.57
409.009	0.58
409.37	0.58
409.73	0.58
410.091	0.6
410.451	0.6
410.811	0.61
411.171	0.62
411.532	0.62
411.892	0.63
412.252	0.64
412.612	0.64
412.972	0.65
413.332	0.66
413.692	0.66
414.052	0.66
414.412	0.68
414.772	0.68
415.132	0.69
415.492	0.7
415.851	0.7
416.211	0.71
416.571	0.72
416.931	0.72
417.29	0.72
417.65	0.73
418.009	0.74
418.369	0.75
418.728	0.75
419.088	0.76
419.447	0.75
419.807	0.76
420.166	0.76
420.525	0.77
420.884	0.77
421.244	0.77
421.603	0.78
421.962	0.79
422.321	0.79
422.68	0.81
423.039	0.79
423.398	0.81
423.757	0.81
424.116	0.81
424.475	0.81
424.834	0.81
425.193	0.8
425.551	0.82
425.91	0.81
426.269	0.82
426.628	0.82
426.986	0.83
427.345	0.82
427.703	0.83
428.062	0.83
428.42	0.83
428.779	0.82
429.137	0.83
429.496	0.84
429.854	0.84
430.212	0.84
430.57	0.84
430.929	0.84
431.287	0.84
431.645	0.85
432.003	0.85
432.361	0.84
432.719	0.86
433.077	0.84
433.435	0.86
433.793	0.86
434.151	0.86
434.509	0.85
434.866	0.86
435.224	0.87
435.582	0.85
435.94	0.87
436.297	0.87
436.655	0.87
437.012	0.87
437.37	0.87
437.727	0.88
438.085	0.87
438.442	0.87
438.8	0.87
439.157	0.88
439.514	0.88
439.872	0.86
440.229	0.88
440.586	0.89
440.943	0.89
441.3	0.88
441.657	0.9
442.014	0.89
442.371	0.9
442.728	0.9
443.085	0.9
443.442	0.91
443.799	0.91
444.156	0.92
444.513	0.91
444.869	0.92
445.226	0.92
445.583	0.92
445.939	0.91
446.296	0.93
446.652	0.94
447.009	0.94
447.365	0.94
447.722	0.94
448.078	0.93
448.434	0.95
448.791	0.94
449.147	0.95
449.503	0.94
449.859	0.95
450.215	0.95
450.571	0.96
450.928	0.95
451.284	0.95
451.64	0.95
451.995	0.95
452.351	0.96
452.707	0.95
453.063	0.95
453.419	0.93
453.775	0.95
454.13	0.95
454.486	0.95
454.842	0.94
455.197	0.94
455.553	0.94
455.908	0.92
456.264	0.94
456.619	0.93
456.975	0.93
457.33	0.92
457.685	0.92
458.04	0.91
458.396	0.9
458.751	0.91
459.106	0.89
459.461	0.89
459.816	0.89
460.171	0.88
460.526	0.88
460.881	0.87
461.236	0.86
461.591	0.85
461.946	0.84
462.301	0.83
462.655	0.82
463.01	0.82
463.365	0.8
463.719	0.8
464.074	0.78
464.428	0.77
464.783	0.77
465.137	0.77
465.492	0.76
465.846	0.76
466.201	0.75
466.555	0.74
466.909	0.72
467.263	0.71
467.618	0.69
467.972	0.69
468.326	0.68
468.68	0.67
469.034	0.67
469.388	0.65
469.742	0.64
470.096	0.62
470.45	0.64
470.804	0.61
471.157	0.61
471.511	0.59
471.865	0.59
472.218	0.59
472.572	0.58
472.926	0.57
473.279	0.56
473.633	0.56
473.986	0.55
474.34	0.53
474.693	0.53
475.046	0.52
475.4	0.53
475.753	0.51
476.106	0.52
476.459	0.5
476.812	0.5
477.165	0.49
477.519	0.47
477.872	0.47
478.224	0.45
478.577	0.46
478.93	0.44
479.283	0.44
479.636	0.44
479.989	0.43
480.341	0.43
480.694	0.42
481.047	0.41
481.399	0.41
481.752	0.41
482.104	0.4
482.457	0.39
482.809	0.38
483.162	0.38
483.514	0.36
483.866	0.36
484.219	0.36
484.571	0.36
484.923	0.35
485.275	0.34
485.627	0.34
485.979	0.34
486.331	0.33
486.683	0.33
487.035	0.32
487.387	0.31
487.739	0.31
488.091	0.3
488.443	0.3
488.794	0.29
489.146	0.29
489.498	0.29
489.849	0.29
490.201	0.29
490.552	0.28
490.904	0.27
491.255	0.27
491.607	0.27
491.958	0.27
492.309	0.27
492.661	0.25
493.012	0.26
493.363	0.26
493.714	0.25
494.065	0.25
494.416	0.25
494.767	0.25
495.118	0.24
495.469	0.24
495.82	0.24
496.171	0.24
496.522	0.24
496.872	0.24
497.223	0.22
497.574	0.22
497.924	0.23
498.275	0.22
498.626	0.22
498.976	0.23
499.327	0.23
499.677	0.22
500.027	0.22
500.378	0.21
500.728	0.21
501.078	0.21
501.428	0.21
501.779	0.21
502.129	0.22
502.479	0.21
502.829	0.21
503.179	0.2
503.529	0.2
503.879	0.21
504.229	0.2
504.578	0.21
504.928	0.2
505.278	0.21
505.628	0.2
505.977	0.21
506.327	0.19
506.676	0.2
507.026	0.2
507.375	0.19
507.725	0.18
508.074	0.19
508.424	0.19
508.773	0.19
509.122	0.19
509.471	0.2
509.82	0.19
510.17	0.19
510.519	0.19
510.868	0.19
511.217	0.19
511.566	0.19
511.915	0.18
512.263	0.18
512.612	0.17
512.961	0.18
513.31	0.18
513.659	0.17
514.007	0.18
514.356	0.18
514.704	0.18
515.053	0.17
515.401	0.18
515.75	0.18
516.098	0.18
516.447	0.18
516.795	0.18
517.143	0.18
517.491	0.17
517.839	0.17
518.188	0.17
518.536	0.18
518.884	0.17
519.232	0.17
519.58	0.18
519.928	0.17
520.275	0.17
520.623	0.18
520.971	0.17
521.319	0.17
521.666	0.17
522.014	0.18
522.362	0.17
522.709	0.18
523.057	0.17
523.404	0.17
523.752	0.17
524.099	0.17
524.446	0.17
524.794	0.17
525.141	0.17
525.488	0.17
525.835	0.16
526.182	0.17
526.529	0.17
526.876	0.18
527.223	0.17
527.57	0.16
527.917	0.17
528.264	0.16
528.611	0.16
528.958	0.17
529.304	0.17
529.651	0.17
529.998	0.16
530.344	0.17
530.691	0.17
531.037	0.17
531.384	0.16
531.73	0.16
532.076	0.16
532.423	0.16
532.769	0.16
533.115	0.15
533.461	0.17
533.807	0.16
534.154	0.16
534.5	0.16
534.846	0.15
535.192	0.16
535.537	0.16
535.883	0.16
536.229	0.16
536.575	0.16
536.921	0.17
537.266	0.16
537.612	0.16
537.957	0.16
538.303	0.16
538.649	0.15
538.994	0.16
539.339	0.16
539.685	0.15
540.03	0.16
540.375	0.16
540.721	0.16
541.066	0.15
541.411	0.16
541.756	0.16
542.101	0.15
542.446	0.15
542.791	0.15
543.136	0.15
543.481	0.15
543.825	0.16
544.17	0.16
544.515	0.15
544.86	0.16
545.204	0.15
545.549	0.16
545.893	0.15
546.238	0.15
546.582	0.16
546.927	0.16
547.271	0.15
547.615	0.15
547.96	0.16
548.304	0.15
548.648	0.15
548.992	0.15
549.336	0.14
549.68	0.16
550.024	0.15
550.368	0.15
550.712	0.14
551.056	0.15
551.4	0.15
551.743	0.15
552.087	0.15
552.431	0.15
552.774	0.15
553.118	0.15
553.462	0.15
553.805	0.14
554.148	0.15
554.492	0.15
554.835	0.16
555.178	0.15
555.522	0.14
555.865	0.16
556.208	0.14
556.551	0.14
556.894	0.15
557.237	0.15
557.58	0.15
557.923	0.15
558.266	0.14
558.609	0.15
558.952	0.15
559.294	0.14
559.637	0.15
559.98	0.15
560.322	0.15
560.665	0.15
561.007	0.15
561.35	0.15
561.692	0.15
562.034	0.14
562.377	0.14
562.719	0.15
563.061	0.14
563.403	0.15
563.745	0.14
564.088	0.14
564.43	0.15
564.772	0.14
565.113	0.14
565.455	0.14
565.797	0.14
566.139	0.14
566.481	0.14
566.822	0.14
567.164	0.14
567.506	0.15
567.847	0.14
568.189	0.15
568.53	0.14
568.872	0.14
569.213	0.14
569.554	0.14
569.895	0.14
570.237	0.14
570.578	0.14
570.919	0.14
571.26	0.14
571.601	0.13
571.942	0.14
572.283	0.14
572.624	0.13
572.965	0.13
573.306	0.14
573.646	0.13
573.987	0.14
574.328	0.13
574.668	0.13
575.009	0.14
575.349	0.14
575.69	0.13
576.03	0.13
576.37	0.13
576.711	0.13
577.051	0.14
577.391	0.13
577.731	0.13
578.072	0.13
578.412	0.13
578.752	0.13
579.092	0.12
579.431	0.12
579.771	0.12
580.111	0.13
580.451	0.13
580.791	0.13
581.13	0.13
581.47	0.14
581.81	0.13
582.149	0.13
582.489	0.12
582.828	0.12
583.167	0.12
583.507	0.12
583.846	0.12
584.185	0.13
584.525	0.13
584.864	0.14
585.203	0.13
585.542	0.13
585.881	0.13
586.22	0.13
586.559	0.13
586.898	0.13
587.236	0.13
587.575	0.14
587.914	0.13
588.252	0.13
588.591	0.13
588.93	0.13
589.268	0.13
589.607	0.13
589.945	0.13
590.283	0.13
590.622	0.14
590.96	0.14
591.298	0.14
591.636	0.13
591.974	0.15
592.313	0.14
592.651	0.15
592.989	0.14
593.326	0.14
593.664	0.14
594.002	0.14
594.34	0.13
594.678	0.13
595.015	0.13
595.353	0.13
595.691	0.14
596.028	0.14
596.366	0.14
596.703	0.14
597.04	0.14
597.378	0.14
597.715	0.15
598.052	0.15
598.389	0.14
598.726	0.14
599.064	0.14
599.401	0.15
599.738	0.14
600.074	0.14
600.411	0.14
600.748	0.14
601.085	0.14
601.422	0.14
601.758	0.14
602.095	0.14
602.432	0.14
602.768	0.15
603.105	0.14
603.441	0.15
603.777	0.14
604.114	0.14
604.45	0.14
604.786	0.14
605.122	0.14
605.459	0.14
605.795	0.15
606.131	0.15
606.467	0.14
606.803	0.15
607.139	0.15
607.474	0.14
607.81	0.15
608.146	0.14
608.482	0.15
608.817	0.14
609.153	0.14
609.488	0.14
609.824	0.14
610.159	0.15
610.495	0.14
610.83	0.15
611.165	0.14
611.5	0.14
611.836	0.15
612.171	0.14
612.506	0.15
612.841	0.15
613.176	0.14
613.511	0.15
613.845	0.14
614.18	0.15
614.515	0.14
614.85	0.14
615.184	0.15
615.519	0.15
615.854	0.15
616.188	0.14
616.523	0.14
616.857	0.14
617.191	0.15
617.526	0.14
617.86	0.14
618.194	0.14
618.528	0.14
618.862	0.15
619.196	0.15
619.53	0.14
619.864	0.15
620.198	0.14
620.532	0.15
620.866	0.15
621.2	0.14
621.533	0.15
621.867	0.15
622.201	0.15
622.534	0.16
622.868	0.15
623.201	0.15
623.534	0.14
623.868	0.14
624.201	0.15
624.534	0.15
624.868	0.15
625.201	0.15
625.534	0.15
625.867	0.15
626.2	0.15
626.533	0.15
626.865	0.15
627.198	0.15
627.531	0.15
627.864	0.14
628.196	0.15
628.529	0.14
628.862	0.15
629.194	0.14
629.527	0.14
629.859	0.15
630.191	0.14
630.524	0.15
630.856	0.14
631.188	0.14
631.52	0.15
631.852	0.15
632.184	0.14
632.516	0.14
632.848	0.15
633.18	0.14
633.512	0.14
633.844	0.15
634.175	0.14
634.507	0.14
634.839	0.14
635.17	0.15
635.502	0.14
635.833	0.15
636.165	0.14
636.496	0.15
636.827	0.15
637.159	0.14
637.49	0.14
637.821	0.14
638.152	0.13
638.483	0.15
638.814	0.14
639.145	0.14
639.476	0.14
639.807	0.13
640.137	0.13
640.468	0.13
640.799	0.13
641.129	0.13
641.46	0.14
641.791	0.14
642.121	0.14
642.451	0.14
642.782	0.14
643.112	0.14
643.442	0.14
643.773	0.14
644.103	0.14
644.433	0.14
644.763	0.14
645.093	0.14
645.423	0.14
645.753	0.14
646.082	0.14
646.412	0.14
646.742	0.14
647.072	0.14
647.401	0.14
647.731	0.14
648.06	0.14
648.39	0.14
648.719	0.14
649.048	0.14
649.378	0.14
649.707	0.14
650.036	0.14
650.365	0.14
650.694	0.13
651.023	0.14
651.352	0.14
651.681	0.13
652.01	0.13
652.339	0.14
652.668	0.14
652.996	0.14
653.325	0.14
653.654	0.15
653.982	0.14
654.311	0.13
654.639	0.13
654.967	0.14
655.296	0.13
655.624	0.13
655.952	0.13
656.28	0.08
656.609	0.03
656.937	0.05
657.265	0.08
657.593	0.09
657.92	0.09
658.248	0.11
658.576	0.13
658.904	0.13
659.231	0.14
659.559	0.14
659.887	0.14
660.214	0.13
660.542	0.14
660.869	0.14
661.196	0.14
661.524	0.14
661.851	0.14
662.178	0.14
662.505	0.14
662.832	0.15
663.159	0.15
663.486	0.14
663.813	0.14
664.14	0.14
664.467	0.14
664.794	0.13
665.12	0.13
665.447	0.14
665.774	0.13
666.1	0.13
666.427	0.13
666.753	0.14
667.079	0.14
667.406	0.15
667.732	0.15
668.058	0.14
668.384	0.14
668.71	0.14
669.036	0.14
669.362	0.14
669.688	0.14
670.014	0.14
670.34	0.14
670.666	0.14
670.991	0.14
671.317	0.13
671.643	0.13
671.968	0.14
672.294	0.14
672.619	0.13
672.945	0.13
673.27	0.13
673.595	0.13
673.92	0.14
674.246	0.14
674.571	0.14
674.896	0.14
675.221	0.14
675.546	0.14
675.87	0.14
676.195	0.14
676.52	0.14
676.845	0.14
677.169	0.13
677.494	0.14
677.819	0.14
678.143	0.14
678.468	0.14
678.792	0.14
679.116	0.14
679.44	0.14
679.765	0.14
680.089	0.14
680.413	0.14
680.737	0.13
681.061	0.13
681.385	0.14
681.709	0.14
682.033	0.14
682.356	0.13
682.68	0.13
683.004	0.13
683.327	0.14
683.651	0.14
683.974	0.14
684.298	0.14
684.621	0.14
684.944	0.14
685.268	0.14
685.591	0.13
685.914	0.13
686.237	0.13
686.56	0.13
686.883	0.13
687.206	0.13
687.529	0.13
687.852	0.13
688.175	0.13
688.497	0.13
688.82	0.13
689.142	0.13
689.465	0.13
689.787	0.13
690.11	0.14
690.432	0.13
690.755	0.14
691.077	0.13
691.399	0.13
691.721	0.14
692.043	0.14
692.365	0.13
692.687	0.13
693.009	0.13
693.331	0.13
693.653	0.13
693.974	0.13
694.296	0.13
694.618	0.13
694.939	0.13
695.261	0.13
695.582	0.13
695.904	0.14
696.225	0.13
696.546	0.14
696.868	0.14
697.189	0.13
697.51	0.13
697.831	0.13
698.152	0.13
698.473	0.13
698.794	0.13
699.114	0.13
699.435	0.14
699.756	0.14
700.077	0.15
700.397	0.15
700.718	0.14
701.038	0.15
701.359	0.14
701.679	0.14
701.999	0.14
702.32	0.14
702.64	0.14
702.96	0.14
703.28	0.14
703.6	0.14
703.92	0.14
704.24	0.14
704.56	0.14
704.879	0.13
705.199	0.13
705.519	0.13
705.838	0.14
706.158	0.14
706.478	0.14
706.797	0.14
707.116	0.14
707.436	0.14
707.755	0.14
708.074	0.13
708.393	0.13
708.712	0.13
709.031	0.14
709.35	0.14
709.669	0.13
709.988	0.14
710.307	0.14
710.626	0.14
710.944	0.14
711.263	0.14
711.582	0.14
711.9	0.14
712.219	0.15
712.537	0.15
712.855	0.14
713.174	0.14
713.492	0.14
713.81	0.14
714.128	0.14
714.446	0.14
714.764	0.14
715.082	0.14
715.4	0.14
715.718	0.14
716.035	0.14
716.353	0.14
716.671	0.14
716.988	0.14
717.306	0.14
717.623	0.14
717.941	0.14
718.258	0.14
718.575	0.15
718.893	0.15
719.21	0.15
719.527	0.15
719.844	0.15
720.161	0.14
720.478	0.14
720.795	0.14
721.112	0.15
721.428	0.15
721.745	0.15
722.062	0.15
722.378	0.14
722.695	0.14
723.011	0.15
723.328	0.14
723.644	0.15
723.96	0.15
724.276	0.14
724.593	0.15
724.909	0.15
725.225	0.15
725.541	0.15
725.857	0.14
726.173	0.15
726.488	0.15
726.804	0.15
727.12	0.16
727.435	0.15
727.751	0.16
728.067	0.15
728.382	0.15
728.697	0.15
729.013	0.15
729.328	0.15
729.643	0.14
729.958	0.15
730.273	0.14
730.588	0.14
730.903	0.15
731.218	0.15
731.533	0.15
731.848	0.14
732.163	0.15
732.477	0.15
732.792	0.15
733.107	0.15
733.421	0.15
733.736	0.15
734.05	0.15
734.364	0.15
734.678	0.15
734.993	0.15
735.307	0.15
735.621	0.15
735.935	0.15
736.249	0.15
736.563	0.15
736.877	0.15
737.19	0.15
737.504	0.14
737.818	0.15
738.131	0.15
738.445	0.15
738.758	0.15
739.072	0.16
739.385	0.15
739.698	0.15
740.012	0.15
740.325	0.16
740.638	0.16
740.951	0.15
741.264	0.15
741.577	0.15
741.89	0.16
742.203	0.15
742.515	0.16
742.828	0.16
743.141	0.15
743.453	0.15
743.766	0.15
744.078	0.15
744.391	0.15
744.703	0.15
745.015	0.16
745.327	0.15
745.639	0.15
745.952	0.16
746.264	0.15
746.575	0.15
746.887	0.15
747.199	0.15
747.511	0.15
747.823	0.15
748.134	0.15
748.446	0.15
748.757	0.15
749.069	0.14
749.38	0.15
749.692	0.15
750.003	0.15
750.314	0.14
750.625	0.15
750.936	0.15
751.248	0.14
751.559	0.14
751.869	0.14
752.18	0.14
752.491	0.14
752.802	0.14
753.112	0.14
753.423	0.15
753.734	0.14
754.044	0.14
754.355	0.14
754.665	0.15
754.975	0.14
755.285	0.15
755.596	0.15
755.906	0.15
756.216	0.14
756.526	0.15
756.836	0.14
757.146	0.14
757.455	0.14
757.765	0.14
758.075	0.14
758.385	0.13
758.694	0.13
759.004	0.14
759.313	0.14
759.622	0.14
759.932	0.14
760.241	0.14
760.55	0.14
760.859	0.14
761.168	0.14
761.477	0.14
761.786	0.14
762.095	0.14
762.404	0.14
762.713	0.14
763.021	0.14
763.33	0.14
763.639	0.14
763.947	0.14
764.256	0.14
764.564	0.14
764.872	0.14
765.181	0.13
765.489	0.14
765.797	0.14
766.105	0.13
766.413	0.14
766.721	0.13
767.029	0.13
767.337	0.13
767.644	0.13
767.952	0.13
768.26	0.13
768.567	0.13
768.875	0.14
769.182	0.13
769.49	0.13
769.797	0.12
770.104	0.13
770.411	0.14
770.718	0.13
771.026	0.13
771.333	0.13
771.639	0.13
771.946	0.13
772.253	0.13
772.56	0.13
772.867	0.13
773.173	0.12
773.48	0.13
773.786	0.12
774.093	0.12
774.399	0.13
774.705	0.13
775.012	0.13
775.318	0.13
775.624	0.13
775.93	0.13
776.236	0.13
776.542	0.13
776.848	0.13
777.154	0.14
777.459	0.14
777.765	0.13
778.071	0.12
778.376	0.13
778.682	0.14
778.987	0.13
779.292	0.13
779.598	0.14
779.903	0.13
780.208	0.12
780.513	0.13
780.818	0.13
781.123	0.13
781.428	0.13
781.733	0.13
782.038	0.12
782.343	0.13
782.647	0.13
782.952	0.13
783.256	0.13
783.561	0.14
783.865	0.12
784.17	0.13
784.474	0.13
784.778	0.13
785.082	0.13
785.386	0.13
785.69	0.13
785.994	0.13
786.298	0.13
786.602	0.13
786.906	0.13
787.209	0.13
787.513	0.13
787.817	0.13
788.12	0.13
788.424	0.13
788.727	0.13
789.03	0.13
789.333	0.13
789.637	0.13
789.94	0.12
790.243	0.12
790.546	0.12
790.849	0.11
791.152	0.11
791.454	0.12
791.757	0.11
792.06	0.11
792.362	0.11
792.665	0.11
792.967	0.11
793.27	0.12
793.572	0.12
793.874	0.12
794.177	0.11
794.479	0.11
794.781	0.11
795.083	0.11
795.385	0.11
795.687	0.11
795.989	0.11
796.29	0.11
796.592	0.11
796.894	0.11
797.195	0.11
797.497	0.12
797.798	0.12
798.1	0.12
798.401	0.11
798.702	0.12
799.003	0.12
799.304	0.11
799.605	0.12
799.906	0.12
800.207	0.12
800.508	0.1
800.809	0.11
801.11	0.11
801.41	0.11
801.711	0.11
802.011	0.1
802.312	0.1
802.612	0.11
802.913	0.11
803.213	0.11
803.513	0.1
803.813	0.1
804.113	0.1
804.413	0.1
804.713	0.1
805.013	0.09
805.313	0.1
805.613	0.1
805.912	0.1
806.212	0.11
806.511	0.11
806.811	0.11
807.11	0.1
807.41	0.1
807.709	0.09
808.008	0.1
808.307	0.09
808.606	0.1
808.905	0.1
809.204	0.1
809.503	0.1
809.802	0.1
810.101	0.09
810.399	0.09
810.698	0.08
810.997	0.1
811.295	0.1
811.593	0.09
811.892	0.1
812.19	0.09
812.488	0.08
812.786	0.09
813.084	0.09
813.383	0.09
813.68	0.08
813.978	0.09
814.276	0.09
814.574	0.08
814.872	0.08
815.169	0.09
815.467	0.07
815.764	0.09
816.062	0.07
816.359	0.07
816.656	0.07
816.954	0.07
817.251	0.08
817.548	0.07
817.845	0.06
818.142	0.07
818.439	0.07
818.735	0.07
819.032	0.07
819.329	0.07
819.626	0.07
819.922	0.07
820.219	0.08
820.515	0.08
820.811	0.07
821.108	0.07
821.404	0.07
821.7	0.08
821.996	0.06
822.292	0.07
822.588	0.06
822.884	0.07
823.18	0.07
823.475	0.06
823.771	0.06
824.067	0.07
824.362	0.06
824.658	0.07
824.953	0.06
825.249	0.06
825.544	0.08
825.839	0.08
826.134	0.07
826.429	0.06
826.724	0.06
827.019	0.05
827.314	0.04
827.609	0.05
827.904	0.04
828.198	0.05
828.493	0.05
828.787	0.06
829.082	0.04
829.376	0.04
829.671	0.04
829.965	0.06
830.259	0.04
830.553	0.06
830.847	0.04
831.141	0.05
831.435	0.05
831.729	0.05
832.023	0.04
832.317	0.04
832.61	0.04
832.904	0.04
833.197	0.05
833.491	0.05
833.784	0.05
834.077	0.04
834.371	0.04
834.664	0.04
834.957	0.03
835.25	0.04
835.543	0.04
835.836	0.04
836.129	0.03
836.421	0.04
836.714	0.03
837.007	0.02
837.299	0.04
837.592	0.03
837.884	0.05
838.177	0.04
838.469	0.04
838.761	0.01
839.053	0.03
839.345	0.01
839.637	0.01
839.929	0.01
840.221	0
840.513	0.01
840.805	0.02
841.096	0.02
841.388	-0
841.68	0.03
841.971	0.01
842.262	0.01
842.554	0.03
842.845	0.03
843.136	0.02
843.427	0.03
843.718	0.02
844.009	0.02
844.3	0.02
844.591	0.01
844.882	0.04
845.173	0.02
845.463	0
845.754	0.02
846.044	0
846.335	-0.01
846.625	0
846.915	-0.03
847.206	-0.02
847.496	-0
847.786	-0
848.076	-0.02
848.366	-0.03
848.656	-0.03
848.945	-0.03
849.235	-0.01
849.525	-0
849.814	-0.03
850.104	-0.03
850.393	-0.02
850.683	-0.02
850.972	-0.01
851.261	-0.01
851.551	0.01
851.84	-0.02
852.129	-0.01
852.418	-0.02
852.707	0.01
852.995	-0.02
853.284	-0.03
853.573	0.01
853.862	-0.01
854.15	-0.03
854.439	-0.01
854.727	-0.01
855.015	-0.01
855.304	-0.03
855.592	-0.05
855.88	-0.05
856.168	-0.03
856.456	0.01
856.744	-0.02
857.032	-0.01
857.32	-0.02
857.607	-0.02
857.895	-0.02
858.183	-0.03
858.47	-0.05
858.757	-0.09
859.045	-0.04
859.332	-0.05
859.619	-0.06
859.907	-0.07
860.194	-0.09
860.481	-0.03
860.768	-0.05
861.054	-0.07
861.341	-0.07
861.628	-0.1
861.915	-0.06
862.201	-0.08
862.488	-0.09
862.774	-0.09
863.061	-0.03
863.347	-0.07
863.633	-0.02
863.919	-0.07
864.205	-0.03
864.491	-0.03
864.777	-0.08
865.063	-0.09
865.349	-0.08
865.635	-0.14
865.92	-0.07
866.206	-0.11
866.492	-0.07
866.777	-0.06
867.062	-0.07
867.348	-0.07
867.633	-0.12
867.918	-0.08
868.203	-0.06
868.488	-0.08
868.773	-0.07
869.058	-0.16
869.343	-0.1
869.628	-0.17
869.912	-0.15
870.197	-0.14
870.482	-0.15
870.766	-0.17
871.05	0.02
871.335	-0.18
871.619	-0.07
871.903	-0.1
872.187	-0.1
872.471	-0.1
872.755	-0.08
873.039	-0.16
873.323	-0.03
873.607	-0.14
873.89	-0.17
874.174	-0.24
874.458	-0.11
874.741	-0.06
875.024	-0.12
875.308	-0.09
875.591	-0.06
875.874	-0.16
876.157	-0.21
876.44	-0.14
876.723	-0.1
877.006	-0.16
877.289	-0.16
877.572	-0.08
877.854	-0.39
878.137	-0.12
878.42	-0.24
878.702	-0.04
878.984	-0.29
879.267	-0.22
879.549	-0.33
879.831	-0.34
880.113	-0.39
880.395	-0.18
880.677	-0.02
880.959	-0.38
