Data from Rubpy_EV_EDTA_Test_Absorbance_16-49-06-065.txt Node
Date: Thu Jun 25 16:49:06 BST 2026
User: fpm-admin
Spectrometer: OFX00224
Trigger mode: 0
Integration Time (sec): 6.000000E-2
Scans to average: 1
Nonlinearity correction enabled: false
Boxcar width: 0
Storing dark spectrum: false
XAxis mode: Wavelengths
Number of Pixels in Spectrum: 2136
>>>>>Begin Spectral Data<<<<<
154.91	0.15
155.289	-0
155.669	0.64
156.048	-0
156.428	0.12
156.807	-0.32
157.186	-0.48
157.566	-0
157.945	-0.54
158.325	-0
158.704	0.48
159.083	-0
159.462	-0.16
159.842	0.02
160.221	-0.8
160.6	-1.04
160.979	1.43
161.359	0.3
161.738	-0.41
162.117	-0.26
162.496	-0
162.875	0.85
163.254	-0
163.633	-0
164.012	-0.05
164.391	0.3
164.77	0.58
165.149	-0
165.528	-0
165.907	-0.08
166.286	-0.43
166.665	0.05
167.044	-0
167.423	-0.3
167.802	-0
168.181	-0
168.559	-0
168.938	-0
169.317	-0
169.696	-0.05
170.074	0.24
170.453	-0.09
170.832	-0.32
171.21	-0
171.589	-0
171.968	-0.54
172.346	-0
172.725	-0.9
173.103	-0.07
173.482	-0.78
173.861	-0
174.239	-0.85
174.617	-0
174.996	0.68
175.374	0.68
175.753	-0
176.131	0.63
176.51	-0
176.888	-1.15
177.266	-0
177.645	-0.01
178.023	0.43
178.401	0.08
178.779	-0.4
179.158	-0.12
179.536	0.54
179.914	-0
180.292	-0.15
180.67	-0
181.048	-0
181.427	-0
181.805	-0
182.183	0.11
182.561	-0
182.939	-0.23
183.317	-0.34
183.695	-0
184.073	-0.04
184.451	-0.3
184.829	0.3
185.206	-0
185.584	-0.52
185.962	-0.21
186.34	-0.78
186.718	0.56
187.096	-0
187.473	0.55
187.851	-0.08
188.229	0.19
188.607	0.17
188.984	0.47
189.362	0.39
189.74	0.19
190.117	0.11
190.495	1.16
190.872	0.34
191.25	0.35
191.627	0.6
192.005	0.4
192.382	0.53
192.76	0.41
193.137	0.18
193.515	0.37
193.892	0.34
194.269	0.55
194.647	0.3
195.024	0.44
195.401	0.2
195.779	0.26
196.156	0.53
196.533	0.22
196.91	0.24
197.288	0.48
197.665	0.28
198.042	0.66
198.419	0.27
198.796	0.23
199.173	0.43
199.55	0.38
199.927	0.5
200.304	0.36
200.681	0.39
201.058	0.49
201.435	0.33
201.812	0.2
202.189	0.42
202.566	0.09
202.943	0.34
203.32	1.08
203.697	0.36
204.073	0.29
204.45	0.43
204.827	0.34
205.204	0.49
205.58	0.62
205.957	0.28
206.334	0.42
206.71	0.5
207.087	0.37
207.464	0.55
207.84	0.35
208.217	0.73
208.593	0.4
208.97	0.5
209.346	0.16
209.723	0.47
210.099	0.62
210.476	0.5
210.852	0.46
211.228	0.27
211.605	0.32
211.981	0.43
212.357	0.41
212.733	0.19
213.11	0.36
213.486	0.55
213.862	0.35
214.238	0.44
214.614	0.48
214.991	0.39
215.367	0.39
215.743	0.65
216.119	0.77
216.495	1.26
216.871	0.6
217.247	0.62
217.623	0.35
217.999	0.41
218.375	0.37
218.751	0.54
219.127	0.39
219.502	0.49
219.878	0.37
220.254	0.44
220.63	0.44
221.006	0.46
221.381	0.32
221.757	0.43
222.133	0.55
222.508	0.57
222.884	0.47
223.26	0.43
223.635	0.43
224.011	0.54
224.386	0.29
224.762	0.43
225.137	0.49
225.513	0.52
225.888	0.41
226.264	0.55
226.639	0.37
227.014	0.53
227.39	0.41
227.765	0.42
228.14	0.48
228.516	0.35
228.891	0.36
229.266	0.41
229.641	0.53
230.017	0.35
230.392	0.79
230.767	0.41
231.142	0.5
231.517	0.38
231.892	0.36
232.267	0.59
232.642	0.61
233.017	0.38
233.392	0.45
233.767	0.59
234.142	0.67
234.517	0.57
234.892	0.62
235.267	0.47
235.641	0.66
236.016	0.54
236.391	0.51
236.766	0.7
237.14	0.62
237.515	0.88
237.89	0.57
238.264	0.67
238.639	0.53
239.014	0.41
239.388	0.53
239.763	0.58
240.137	0.46
240.512	0.85
240.886	0.61
241.261	0.67
241.635	0.65
242.009	0.97
242.384	0.61
242.758	0.64
243.132	0.61
243.507	0.45
243.881	0.7
244.255	0.54
244.629	0.61
245.004	0.65
245.378	0.61
245.752	0.48
246.126	0.52
246.5	0.63
246.874	0.67
247.248	0.71
247.622	0.64
247.996	0.75
248.37	0.74
248.744	0.7
249.118	0.55
249.492	0.55
249.866	0.74
250.24	0.7
250.613	0.56
250.987	0.65
251.361	0.93
251.735	0.74
252.108	0.73
252.482	0.94
252.856	0.81
253.229	0.88
253.603	1.03
253.977	1
254.35	1.09
254.724	1.11
255.097	1.22
255.471	1.32
255.844	1.44
256.218	1.45
256.591	1.33
256.964	1.43
257.338	1.5
257.711	1.64
258.084	1.77
258.458	1.68
258.831	1.75
259.204	1.71
259.577	1.85
259.95	1.8
260.323	1.85
260.697	1.8
261.07	1.78
261.443	1.66
261.816	1.86
262.189	1.98
262.562	1.86
262.935	2.03
263.308	1.8
263.68	1.94
264.053	1.83
264.426	1.82
264.799	1.74
265.172	1.86
265.545	1.8
265.917	2.25
266.29	1.83
266.663	2.16
267.035	2.05
267.408	1.79
267.781	2.01
268.153	2.05
268.526	1.96
268.898	2.03
269.271	2.14
269.643	2.05
270.016	2.09
270.388	2.2
270.76	2.06
271.133	2.18
271.505	2.14
271.877	1.98
272.25	2.24
272.622	2.19
272.994	2.31
273.366	2.31
273.739	2.12
274.111	2.27
274.483	2.21
274.855	2.16
275.227	2.19
275.599	2.19
275.971	2.33
276.343	2.21
276.715	2.3
277.087	2.35
277.459	2.29
277.831	2.26
278.203	2.15
278.574	2.21
278.946	2.29
279.318	2.23
279.69	2.22
280.061	2.34
280.433	2.38
280.805	2.27
281.176	2.23
281.548	2.35
281.92	2.21
282.291	2.22
282.663	2.44
283.034	2.37
283.406	2.26
283.777	2.15
284.148	2.35
284.52	2.18
284.891	2.23
285.262	2.26
285.634	2.25
286.005	2.34
286.376	2.25
286.747	2.28
287.119	2.28
287.49	2.34
287.861	2.28
288.232	2.21
288.603	2.2
288.974	2.19
289.345	2.22
289.716	2.29
290.087	2.23
290.458	2.35
290.829	2.24
291.2	2.28
291.571	2.35
291.941	2.16
292.312	2.25
292.683	2.18
293.054	2.23
293.424	2.17
293.795	2.19
294.166	2.26
294.536	2.16
294.907	2.22
295.277	2.22
295.648	2.18
296.018	2.21
296.389	2.1
296.759	2.21
297.13	2.19
297.5	2.11
297.871	2.02
298.241	2.13
298.611	2.03
298.981	1.91
299.352	1.91
299.722	1.89
300.092	1.81
300.462	1.76
300.832	1.75
301.202	1.7
301.573	1.63
301.943	1.57
302.313	1.52
302.683	1.48
303.053	1.45
303.422	1.4
303.792	1.36
304.162	1.31
304.532	1.29
304.902	1.23
305.272	1.23
305.641	1.19
306.011	1.17
306.381	1.13
306.75	1.1
307.12	1.09
307.49	1.05
307.859	1.03
308.229	1.01
308.598	1.01
308.968	0.97
309.337	0.96
309.707	0.94
310.076	0.94
310.445	0.91
310.815	0.9
311.184	0.89
311.553	0.88
311.923	0.86
312.292	0.86
312.661	0.85
313.03	0.84
313.399	0.83
313.768	0.82
314.137	0.81
314.506	0.82
314.875	0.82
315.244	0.8
315.613	0.79
315.982	0.79
316.351	0.78
316.72	0.77
317.089	0.78
317.458	0.76
317.826	0.76
318.195	0.76
318.564	0.76
318.933	0.75
319.301	0.75
319.67	0.75
320.038	0.75
320.407	0.73
320.775	0.73
321.144	0.72
321.512	0.72
321.881	0.71
322.249	0.72
322.618	0.71
322.986	0.71
323.354	0.71
323.723	0.7
324.091	0.69
324.459	0.69
324.827	0.68
325.195	0.68
325.564	0.67
325.932	0.67
326.3	0.66
326.668	0.66
327.036	0.65
327.404	0.65
327.772	0.64
328.14	0.65
328.508	0.64
328.875	0.63
329.243	0.62
329.611	0.61
329.979	0.61
330.346	0.59
330.714	0.59
331.082	0.58
331.449	0.57
331.817	0.58
332.185	0.58
332.552	0.58
332.92	0.57
333.287	0.58
333.655	0.57
334.022	0.56
334.389	0.55
334.757	0.53
335.124	0.53
335.491	0.52
335.859	0.52
336.226	0.52
336.593	0.52
336.96	0.52
337.327	0.52
337.695	0.51
338.062	0.51
338.429	0.51
338.796	0.51
339.163	0.49
339.53	0.5
339.897	0.49
340.263	0.49
340.63	0.49
340.997	0.48
341.364	0.48
341.731	0.47
342.097	0.47
342.464	0.48
342.831	0.47
343.197	0.47
343.564	0.47
343.931	0.47
344.297	0.46
344.664	0.47
345.03	0.47
345.396	0.46
345.763	0.46
346.129	0.46
346.496	0.46
346.862	0.47
347.228	0.46
347.594	0.46
347.961	0.47
348.327	0.47
348.693	0.47
349.059	0.47
349.425	0.47
349.791	0.46
350.157	0.47
350.523	0.46
350.889	0.47
351.255	0.46
351.621	0.46
351.987	0.46
352.353	0.46
352.719	0.46
353.084	0.46
353.45	0.46
353.816	0.46
354.181	0.47
354.547	0.46
354.913	0.46
355.278	0.46
355.644	0.46
356.009	0.46
356.375	0.46
356.74	0.45
357.106	0.45
357.471	0.45
357.836	0.45
358.202	0.45
358.567	0.45
358.932	0.44
359.297	0.44
359.663	0.44
360.028	0.43
360.393	0.44
360.758	0.43
361.123	0.43
361.488	0.43
361.853	0.42
362.218	0.42
362.583	0.42
362.948	0.42
363.312	0.41
363.677	0.41
364.042	0.41
364.407	0.41
364.772	0.41
365.136	0.41
365.501	0.41
365.865	0.4
366.23	0.41
366.595	0.41
366.959	0.41
367.324	0.41
367.688	0.4
368.052	0.41
368.417	0.4
368.781	0.4
369.145	0.4
369.51	0.4
369.874	0.4
370.238	0.4
370.602	0.4
370.967	0.39
371.331	0.4
371.695	0.39
372.059	0.4
372.423	0.4
372.787	0.41
373.151	0.4
373.515	0.4
373.878	0.39
374.242	0.4
374.606	0.4
374.97	0.41
375.334	0.41
375.697	0.41
376.061	0.4
376.425	0.41
376.788	0.41
377.152	0.41
377.515	0.42
377.879	0.41
378.242	0.41
378.606	0.41
378.969	0.42
379.333	0.43
379.696	0.42
380.059	0.43
380.422	0.43
380.786	0.44
381.149	0.44
381.512	0.45
381.875	0.45
382.238	0.46
382.601	0.46
382.964	0.47
383.327	0.48
383.69	0.48
384.053	0.49
384.416	0.49
384.779	0.49
385.142	0.49
385.504	0.49
385.867	0.5
386.23	0.5
386.593	0.51
386.955	0.5
387.318	0.51
387.68	0.5
388.043	0.51
388.405	0.51
388.768	0.52
389.13	0.52
389.493	0.53
389.855	0.52
390.217	0.53
390.58	0.53
390.942	0.54
391.304	0.55
391.666	0.55
392.028	0.56
392.391	0.56
392.753	0.58
393.115	0.58
393.477	0.6
393.839	0.61
394.201	0.62
394.563	0.62
394.924	0.63
395.286	0.64
395.648	0.64
396.01	0.64
396.371	0.64
396.733	0.64
397.095	0.65
397.456	0.64
397.818	0.63
398.18	0.63
398.541	0.62
398.903	0.61
399.264	0.61
399.625	0.59
399.987	0.59
400.348	0.59
400.709	0.58
401.071	0.58
401.432	0.57
401.793	0.56
402.154	0.56
402.515	0.56
402.876	0.56
403.238	0.55
403.599	0.55
403.96	0.55
404.32	0.55
404.681	0.55
405.042	0.55
405.403	0.55
405.764	0.55
406.125	0.56
406.485	0.56
406.846	0.56
407.207	0.56
407.567	0.57
407.928	0.57
408.288	0.58
408.649	0.58
409.009	0.59
409.37	0.6
409.73	0.6
410.091	0.6
410.451	0.61
410.811	0.6
411.171	0.62
411.532	0.63
411.892	0.63
412.252	0.63
412.612	0.65
412.972	0.65
413.332	0.66
413.692	0.67
414.052	0.68
414.412	0.69
414.772	0.69
415.132	0.7
415.492	0.69
415.851	0.7
416.211	0.72
416.571	0.72
416.931	0.72
417.29	0.73
417.65	0.74
418.009	0.75
418.369	0.76
418.728	0.75
419.088	0.75
419.447	0.76
419.807	0.76
420.166	0.76
420.525	0.77
420.884	0.77
421.244	0.78
421.603	0.78
421.962	0.79
422.321	0.8
422.68	0.79
423.039	0.8
423.398	0.8
423.757	0.81
424.116	0.81
424.475	0.81
424.834	0.81
425.193	0.81
425.551	0.82
425.91	0.83
426.269	0.82
426.628	0.83
426.986	0.83
427.345	0.82
427.703	0.82
428.062	0.83
428.42	0.83
428.779	0.83
429.137	0.84
429.496	0.84
429.854	0.84
430.212	0.84
430.57	0.84
430.929	0.85
431.287	0.84
431.645	0.85
432.003	0.86
432.361	0.85
432.719	0.84
433.077	0.86
433.435	0.86
433.793	0.86
434.151	0.85
434.509	0.86
434.866	0.87
435.224	0.86
435.582	0.87
435.94	0.87
436.297	0.86
436.655	0.86
437.012	0.87
437.37	0.87
437.727	0.87
438.085	0.88
438.442	0.87
438.8	0.89
439.157	0.87
439.514	0.88
439.872	0.88
440.229	0.88
440.586	0.89
440.943	0.88
441.3	0.9
441.657	0.9
442.014	0.89
442.371	0.91
442.728	0.9
443.085	0.9
443.442	0.91
443.799	0.91
444.156	0.91
444.513	0.92
444.869	0.92
445.226	0.92
445.583	0.93
445.939	0.92
446.296	0.94
446.652	0.92
447.009	0.94
447.365	0.94
447.722	0.94
448.078	0.94
448.434	0.93
448.791	0.95
449.147	0.94
449.503	0.94
449.859	0.93
450.215	0.95
450.571	0.96
450.928	0.96
451.284	0.95
451.64	0.96
451.995	0.95
452.351	0.94
452.707	0.96
453.063	0.95
453.419	0.96
453.775	0.95
454.13	0.95
454.486	0.95
454.842	0.95
455.197	0.94
455.553	0.95
455.908	0.93
456.264	0.93
456.619	0.93
456.975	0.92
457.33	0.92
457.685	0.92
458.04	0.91
458.396	0.91
458.751	0.89
459.106	0.89
459.461	0.89
459.816	0.89
460.171	0.88
460.526	0.87
460.881	0.87
461.236	0.86
461.591	0.86
461.946	0.84
462.301	0.83
462.655	0.82
463.01	0.81
463.365	0.8
463.719	0.8
464.074	0.77
464.428	0.78
464.783	0.77
465.137	0.76
465.492	0.75
465.846	0.76
466.201	0.75
466.555	0.73
466.909	0.72
467.263	0.71
467.618	0.7
467.972	0.69
468.326	0.68
468.68	0.67
469.034	0.65
469.388	0.65
469.742	0.63
470.096	0.62
470.45	0.62
470.804	0.6
471.157	0.61
471.511	0.59
471.865	0.59
472.218	0.59
472.572	0.58
472.926	0.57
473.279	0.56
473.633	0.55
473.986	0.55
474.34	0.53
474.693	0.53
475.046	0.53
475.4	0.52
475.753	0.51
476.106	0.51
476.459	0.49
476.812	0.49
477.165	0.49
477.519	0.48
477.872	0.46
478.224	0.47
478.577	0.46
478.93	0.44
479.283	0.43
479.636	0.43
479.989	0.43
480.341	0.43
480.694	0.41
481.047	0.41
481.399	0.41
481.752	0.4
482.104	0.4
482.457	0.39
482.809	0.38
483.162	0.38
483.514	0.37
483.866	0.36
484.219	0.37
484.571	0.35
484.923	0.36
485.275	0.34
485.627	0.34
485.979	0.34
486.331	0.33
486.683	0.33
487.035	0.32
487.387	0.31
487.739	0.31
488.091	0.31
488.443	0.3
488.794	0.3
489.146	0.3
489.498	0.29
489.849	0.29
490.201	0.29
490.552	0.29
490.904	0.28
491.255	0.28
491.607	0.27
491.958	0.26
492.309	0.27
492.661	0.26
493.012	0.26
493.363	0.26
493.714	0.26
494.065	0.25
494.416	0.25
494.767	0.25
495.118	0.25
495.469	0.24
495.82	0.24
496.171	0.25
496.522	0.24
496.872	0.23
497.223	0.23
497.574	0.22
497.924	0.23
498.275	0.22
498.626	0.22
498.976	0.22
499.327	0.23
499.677	0.22
500.027	0.22
500.378	0.22
500.728	0.22
501.078	0.22
501.428	0.21
501.779	0.21
502.129	0.21
502.479	0.21
502.829	0.21
503.179	0.21
503.529	0.22
503.879	0.21
504.229	0.21
504.578	0.22
504.928	0.2
505.278	0.21
505.628	0.2
505.977	0.2
506.327	0.2
506.676	0.2
507.026	0.2
507.375	0.2
507.725	0.2
508.074	0.19
508.424	0.2
508.773	0.2
509.122	0.19
509.471	0.19
509.82	0.19
510.17	0.19
510.519	0.19
510.868	0.19
511.217	0.19
511.566	0.19
511.915	0.19
512.263	0.18
512.612	0.18
512.961	0.19
513.31	0.19
513.659	0.19
514.007	0.18
514.356	0.19
514.704	0.18
515.053	0.19
515.401	0.18
515.75	0.19
516.098	0.19
516.447	0.19
516.795	0.18
517.143	0.18
517.491	0.17
517.839	0.17
518.188	0.18
518.536	0.19
518.884	0.18
519.232	0.18
519.58	0.18
519.928	0.18
520.275	0.18
520.623	0.18
520.971	0.18
521.319	0.18
521.666	0.18
522.014	0.18
522.362	0.18
522.709	0.18
523.057	0.17
523.404	0.17
523.752	0.17
524.099	0.18
524.446	0.17
524.794	0.18
525.141	0.17
525.488	0.17
525.835	0.17
526.182	0.17
526.529	0.18
526.876	0.17
527.223	0.17
527.57	0.16
527.917	0.17
528.264	0.17
528.611	0.17
528.958	0.18
529.304	0.17
529.651	0.17
529.998	0.16
530.344	0.17
530.691	0.17
531.037	0.17
531.384	0.17
531.73	0.17
532.076	0.17
532.423	0.16
532.769	0.16
533.115	0.16
533.461	0.17
533.807	0.17
534.154	0.17
534.5	0.17
534.846	0.17
535.192	0.17
535.537	0.17
535.883	0.17
536.229	0.16
536.575	0.17
536.921	0.17
537.266	0.16
537.612	0.16
537.957	0.16
538.303	0.16
538.649	0.16
538.994	0.16
539.339	0.17
539.685	0.16
540.03	0.18
540.375	0.17
540.721	0.16
541.066	0.16
541.411	0.17
541.756	0.17
542.101	0.15
542.446	0.16
542.791	0.16
543.136	0.16
543.481	0.16
543.825	0.16
544.17	0.17
544.515	0.16
544.86	0.17
545.204	0.17
545.549	0.17
545.893	0.16
546.238	0.17
546.582	0.17
546.927	0.17
547.271	0.16
547.615	0.16
547.96	0.17
548.304	0.16
548.648	0.16
548.992	0.16
549.336	0.16
549.68	0.16
550.024	0.16
550.368	0.16
550.712	0.16
551.056	0.16
551.4	0.16
551.743	0.16
552.087	0.16
552.431	0.16
552.774	0.16
553.118	0.16
553.462	0.16
553.805	0.16
554.148	0.16
554.492	0.16
554.835	0.17
555.178	0.16
555.522	0.16
555.865	0.16
556.208	0.15
556.551	0.16
556.894	0.16
557.237	0.15
557.58	0.16
557.923	0.15
558.266	0.15
558.609	0.16
558.952	0.15
559.294	0.16
559.637	0.16
559.98	0.16
560.322	0.16
560.665	0.16
561.007	0.16
561.35	0.16
561.692	0.15
562.034	0.16
562.377	0.16
562.719	0.16
563.061	0.16
563.403	0.15
563.745	0.16
564.088	0.16
564.43	0.15
564.772	0.15
565.113	0.15
565.455	0.16
565.797	0.16
566.139	0.15
566.481	0.16
566.822	0.16
567.164	0.16
567.506	0.16
567.847	0.15
568.189	0.16
568.53	0.16
568.872	0.15
569.213	0.15
569.554	0.16
569.895	0.15
570.237	0.15
570.578	0.15
570.919	0.14
571.26	0.14
571.601	0.15
571.942	0.15
572.283	0.15
572.624	0.15
572.965	0.14
573.306	0.15
573.646	0.14
573.987	0.15
574.328	0.14
574.668	0.14
575.009	0.15
575.349	0.15
575.69	0.14
576.03	0.15
576.37	0.14
576.711	0.15
577.051	0.15
577.391	0.15
577.731	0.14
578.072	0.14
578.412	0.14
578.752	0.14
579.092	0.14
579.431	0.13
579.771	0.14
580.111	0.14
580.451	0.15
580.791	0.14
581.13	0.14
581.47	0.15
581.81	0.14
582.149	0.14
582.489	0.13
582.828	0.13
583.167	0.14
583.507	0.13
583.846	0.14
584.185	0.14
584.525	0.14
584.864	0.15
585.203	0.15
585.542	0.14
585.881	0.14
586.22	0.14
586.559	0.14
586.898	0.14
587.236	0.14
587.575	0.15
587.914	0.15
588.252	0.14
588.591	0.14
588.93	0.14
589.268	0.14
589.607	0.15
589.945	0.15
590.283	0.15
590.622	0.15
590.96	0.15
591.298	0.15
591.636	0.15
591.974	0.16
592.313	0.15
592.651	0.15
592.989	0.16
593.326	0.15
593.664	0.16
594.002	0.15
594.34	0.14
594.678	0.14
595.015	0.14
595.353	0.15
595.691	0.15
596.028	0.15
596.366	0.15
596.703	0.15
597.04	0.15
597.378	0.16
597.715	0.16
598.052	0.16
598.389	0.16
598.726	0.15
599.064	0.16
599.401	0.16
599.738	0.15
600.074	0.16
600.411	0.15
600.748	0.16
601.085	0.15
601.422	0.15
601.758	0.15
602.095	0.15
602.432	0.15
602.768	0.16
603.105	0.15
603.441	0.16
603.777	0.16
604.114	0.16
604.45	0.16
604.786	0.15
605.122	0.16
605.459	0.15
605.795	0.16
606.131	0.16
606.467	0.16
606.803	0.16
607.139	0.16
607.474	0.16
607.81	0.16
608.146	0.16
608.482	0.16
608.817	0.15
609.153	0.15
609.488	0.15
609.824	0.16
610.159	0.16
610.495	0.16
610.83	0.16
611.165	0.16
611.5	0.17
611.836	0.16
612.171	0.16
612.506	0.16
612.841	0.15
613.176	0.16
613.511	0.17
613.845	0.16
614.18	0.16
614.515	0.16
614.85	0.16
615.184	0.16
615.519	0.16
615.854	0.16
616.188	0.16
616.523	0.15
616.857	0.16
617.191	0.16
617.526	0.16
617.86	0.16
618.194	0.16
618.528	0.16
618.862	0.16
619.196	0.16
619.53	0.15
619.864	0.16
620.198	0.16
620.532	0.17
620.866	0.16
621.2	0.16
621.533	0.16
621.867	0.16
622.201	0.17
622.534	0.17
622.868	0.16
623.201	0.17
623.534	0.16
623.868	0.15
624.201	0.16
624.534	0.16
624.868	0.16
625.201	0.15
625.534	0.16
625.867	0.16
626.2	0.16
626.533	0.16
626.865	0.16
627.198	0.16
627.531	0.16
627.864	0.16
628.196	0.16
628.529	0.16
628.862	0.16
629.194	0.16
629.527	0.16
629.859	0.16
630.191	0.16
630.524	0.16
630.856	0.15
631.188	0.16
631.52	0.16
631.852	0.16
632.184	0.16
632.516	0.16
632.848	0.17
633.18	0.15
633.512	0.16
633.844	0.15
634.175	0.16
634.507	0.15
634.839	0.15
635.17	0.16
635.502	0.16
635.833	0.15
636.165	0.15
636.496	0.15
636.827	0.16
637.159	0.15
637.49	0.15
637.821	0.16
638.152	0.15
638.483	0.15
638.814	0.15
639.145	0.15
639.476	0.14
639.807	0.15
640.137	0.14
640.468	0.14
640.799	0.15
641.129	0.14
641.46	0.14
641.791	0.15
642.121	0.14
642.451	0.15
642.782	0.15
643.112	0.15
643.442	0.15
643.773	0.15
644.103	0.15
644.433	0.15
644.763	0.14
645.093	0.15
645.423	0.15
645.753	0.15
646.082	0.15
646.412	0.14
646.742	0.15
647.072	0.15
647.401	0.15
647.731	0.15
648.06	0.14
648.39	0.15
648.719	0.15
649.048	0.15
649.378	0.14
649.707	0.15
650.036	0.15
650.365	0.14
650.694	0.14
651.023	0.15
651.352	0.15
651.681	0.14
652.01	0.14
652.339	0.14
652.668	0.15
652.996	0.14
653.325	0.15
653.654	0.15
653.982	0.15
654.311	0.14
654.639	0.14
654.967	0.14
655.296	0.14
655.624	0.13
655.952	0.14
656.28	0.08
656.609	0.04
656.937	0.06
657.265	0.09
657.593	0.09
657.92	0.1
658.248	0.12
658.576	0.14
658.904	0.15
659.231	0.14
659.559	0.14
659.887	0.14
660.214	0.14
660.542	0.14
660.869	0.15
661.196	0.15
661.524	0.14
661.851	0.15
662.178	0.15
662.505	0.15
662.832	0.15
663.159	0.15
663.486	0.14
663.813	0.15
664.14	0.14
664.467	0.14
664.794	0.14
665.12	0.15
665.447	0.14
665.774	0.15
666.1	0.14
666.427	0.14
666.753	0.15
667.079	0.14
667.406	0.15
667.732	0.15
668.058	0.14
668.384	0.15
668.71	0.15
669.036	0.15
669.362	0.15
669.688	0.15
670.014	0.15
670.34	0.15
670.666	0.14
670.991	0.14
671.317	0.14
671.643	0.14
671.968	0.14
672.294	0.14
672.619	0.14
672.945	0.13
673.27	0.14
673.595	0.14
673.92	0.14
674.246	0.14
674.571	0.15
674.896	0.15
675.221	0.15
675.546	0.14
675.87	0.14
676.195	0.14
676.52	0.14
676.845	0.15
677.169	0.15
677.494	0.14
677.819	0.15
678.143	0.14
678.468	0.14
678.792	0.15
679.116	0.15
679.44	0.15
679.765	0.15
680.089	0.15
680.413	0.15
680.737	0.14
681.061	0.14
681.385	0.14
681.709	0.14
682.033	0.14
682.356	0.14
682.68	0.14
683.004	0.15
683.327	0.14
683.651	0.14
683.974	0.14
684.298	0.14
684.621	0.14
684.944	0.14
685.268	0.14
685.591	0.14
685.914	0.13
686.237	0.14
686.56	0.13
686.883	0.14
687.206	0.14
687.529	0.13
687.852	0.13
688.175	0.13
688.497	0.13
688.82	0.13
689.142	0.13
689.465	0.13
689.787	0.14
690.11	0.14
690.432	0.14
690.755	0.14
691.077	0.14
691.399	0.14
691.721	0.14
692.043	0.14
692.365	0.14
692.687	0.14
693.009	0.14
693.331	0.14
693.653	0.14
693.974	0.14
694.296	0.14
694.618	0.13
694.939	0.14
695.261	0.14
695.582	0.14
695.904	0.14
696.225	0.13
696.546	0.14
696.868	0.14
697.189	0.14
697.51	0.14
697.831	0.14
698.152	0.14
698.473	0.14
698.794	0.13
699.114	0.14
699.435	0.14
699.756	0.14
700.077	0.15
700.397	0.15
700.718	0.14
701.038	0.15
701.359	0.15
701.679	0.14
701.999	0.15
702.32	0.14
702.64	0.14
702.96	0.14
703.28	0.14
703.6	0.14
703.92	0.14
704.24	0.15
704.56	0.14
704.879	0.14
705.199	0.14
705.519	0.13
705.838	0.14
706.158	0.15
706.478	0.14
706.797	0.15
707.116	0.14
707.436	0.14
707.755	0.14
708.074	0.14
708.393	0.14
708.712	0.14
709.031	0.14
709.35	0.14
709.669	0.14
709.988	0.14
710.307	0.14
710.626	0.14
710.944	0.14
711.263	0.14
711.582	0.14
711.9	0.14
712.219	0.15
712.537	0.14
712.855	0.14
713.174	0.14
713.492	0.14
713.81	0.14
714.128	0.15
714.446	0.15
714.764	0.14
715.082	0.14
715.4	0.14
715.718	0.14
716.035	0.14
716.353	0.14
716.671	0.14
716.988	0.14
717.306	0.14
717.623	0.14
717.941	0.14
718.258	0.15
718.575	0.15
718.893	0.15
719.21	0.15
719.527	0.15
719.844	0.15
720.161	0.15
720.478	0.15
720.795	0.15
721.112	0.15
721.428	0.16
721.745	0.15
722.062	0.15
722.378	0.14
722.695	0.15
723.011	0.15
723.328	0.14
723.644	0.15
723.96	0.15
724.276	0.15
724.593	0.15
724.909	0.15
725.225	0.15
725.541	0.15
725.857	0.15
726.173	0.16
726.488	0.15
726.804	0.15
727.12	0.16
727.435	0.16
727.751	0.16
728.067	0.16
728.382	0.16
728.697	0.16
729.013	0.16
729.328	0.15
729.643	0.15
729.958	0.15
730.273	0.15
730.588	0.15
730.903	0.16
731.218	0.15
731.533	0.15
731.848	0.15
732.163	0.15
732.477	0.15
732.792	0.15
733.107	0.14
733.421	0.15
733.736	0.15
734.05	0.15
734.364	0.15
734.678	0.15
734.993	0.15
735.307	0.15
735.621	0.15
735.935	0.15
736.249	0.16
736.563	0.15
736.877	0.15
737.19	0.15
737.504	0.15
737.818	0.15
738.131	0.15
738.445	0.14
738.758	0.15
739.072	0.15
739.385	0.15
739.698	0.15
740.012	0.16
740.325	0.16
740.638	0.16
740.951	0.16
741.264	0.16
741.577	0.15
741.89	0.16
742.203	0.16
742.515	0.16
742.828	0.16
743.141	0.16
743.453	0.15
743.766	0.15
744.078	0.16
744.391	0.15
744.703	0.15
745.015	0.15
745.327	0.15
745.639	0.15
745.952	0.15
746.264	0.15
746.575	0.15
746.887	0.15
747.199	0.15
747.511	0.16
747.823	0.15
748.134	0.16
748.446	0.16
748.757	0.15
749.069	0.15
749.38	0.15
749.692	0.15
750.003	0.15
750.314	0.14
750.625	0.15
750.936	0.15
751.248	0.15
751.559	0.14
751.869	0.15
752.18	0.14
752.491	0.15
752.802	0.15
753.112	0.14
753.423	0.15
753.734	0.15
754.044	0.14
754.355	0.14
754.665	0.15
754.975	0.14
755.285	0.15
755.596	0.15
755.906	0.15
756.216	0.15
756.526	0.15
756.836	0.15
757.146	0.15
757.455	0.14
757.765	0.14
758.075	0.14
758.385	0.14
758.694	0.14
759.004	0.14
759.313	0.14
759.622	0.14
759.932	0.15
760.241	0.15
760.55	0.14
760.859	0.14
761.168	0.14
761.477	0.14
761.786	0.14
762.095	0.14
762.404	0.14
762.713	0.14
763.021	0.14
763.33	0.14
763.639	0.14
763.947	0.14
764.256	0.14
764.564	0.14
764.872	0.14
765.181	0.13
765.489	0.14
765.797	0.13
766.105	0.13
766.413	0.14
766.721	0.13
767.029	0.13
767.337	0.13
767.644	0.13
767.952	0.13
768.26	0.13
768.567	0.13
768.875	0.13
769.182	0.14
769.49	0.13
769.797	0.13
770.104	0.13
770.411	0.14
770.718	0.14
771.026	0.14
771.333	0.14
771.639	0.14
771.946	0.14
772.253	0.13
772.56	0.12
772.867	0.13
773.173	0.12
773.48	0.13
773.786	0.12
774.093	0.13
774.399	0.13
774.705	0.14
775.012	0.13
775.318	0.14
775.624	0.13
775.93	0.13
776.236	0.14
776.542	0.13
776.848	0.14
777.154	0.13
777.459	0.14
777.765	0.14
778.071	0.14
778.376	0.14
778.682	0.14
778.987	0.14
779.292	0.13
779.598	0.13
779.903	0.14
780.208	0.13
780.513	0.13
780.818	0.13
781.123	0.13
781.428	0.13
781.733	0.13
782.038	0.13
782.343	0.13
782.647	0.13
782.952	0.13
783.256	0.13
783.561	0.13
783.865	0.13
784.17	0.13
784.474	0.13
784.778	0.13
785.082	0.12
785.386	0.12
785.69	0.12
785.994	0.13
786.298	0.13
786.602	0.13
786.906	0.13
787.209	0.13
787.513	0.13
787.817	0.13
788.12	0.13
788.424	0.13
788.727	0.14
789.03	0.13
789.333	0.13
789.637	0.12
789.94	0.12
790.243	0.12
790.546	0.11
790.849	0.11
791.152	0.12
791.454	0.12
791.757	0.11
792.06	0.11
792.362	0.1
792.665	0.11
792.967	0.11
793.27	0.12
793.572	0.12
793.874	0.12
794.177	0.11
794.479	0.11
794.781	0.11
795.083	0.11
795.385	0.1
795.687	0.11
795.989	0.11
796.29	0.11
796.592	0.11
796.894	0.11
797.195	0.12
797.497	0.12
797.798	0.12
798.1	0.12
798.401	0.12
798.702	0.11
799.003	0.12
799.304	0.11
799.605	0.11
799.906	0.11
800.207	0.12
800.508	0.11
800.809	0.11
801.11	0.11
801.41	0.11
801.711	0.11
802.011	0.1
802.312	0.11
802.612	0.11
802.913	0.11
803.213	0.12
803.513	0.11
803.813	0.1
804.113	0.1
804.413	0.09
804.713	0.1
805.013	0.1
805.313	0.1
805.613	0.1
805.912	0.1
806.212	0.11
806.511	0.11
806.811	0.11
807.11	0.1
807.41	0.11
807.709	0.1
808.008	0.11
808.307	0.09
808.606	0.1
808.905	0.1
809.204	0.09
809.503	0.09
809.802	0.09
810.101	0.1
810.399	0.09
810.698	0.08
810.997	0.1
811.295	0.1
811.593	0.09
811.892	0.1
812.19	0.1
812.488	0.09
812.786	0.1
813.084	0.1
813.383	0.09
813.68	0.09
813.978	0.1
814.276	0.08
814.574	0.08
814.872	0.08
815.169	0.07
815.467	0.08
815.764	0.09
816.062	0.06
816.359	0.07
816.656	0.07
816.954	0.07
817.251	0.08
817.548	0.08
817.845	0.07
818.142	0.06
818.439	0.06
818.735	0.06
819.032	0.08
819.329	0.07
819.626	0.07
819.922	0.07
820.219	0.08
820.515	0.09
820.811	0.07
821.108	0.08
821.404	0.06
821.7	0.07
821.996	0.06
822.292	0.07
822.588	0.06
822.884	0.06
823.18	0.07
823.475	0.06
823.771	0.06
824.067	0.06
824.362	0.07
824.658	0.06
824.953	0.06
825.249	0.06
825.544	0.08
825.839	0.08
826.134	0.07
826.429	0.06
826.724	0.06
827.019	0.05
827.314	0.06
827.609	0.05
827.904	0.04
828.198	0.04
828.493	0.05
828.787	0.05
829.082	0.05
829.376	0.03
829.671	0.04
829.965	0.06
830.259	0.04
830.553	0.06
830.847	0.05
831.141	0.06
831.435	0.03
831.729	0.05
832.023	0.05
832.317	0.05
832.61	0.04
832.904	0.05
833.197	0.04
833.491	0.03
833.784	0.04
834.077	0.05
834.371	0.05
834.664	0.03
834.957	0.04
835.25	0.04
835.543	0.04
835.836	0.04
836.129	0.03
836.421	0.04
836.714	0.03
837.007	0.02
837.299	0.04
837.592	0.02
837.884	0.04
838.177	0.04
838.469	0.04
838.761	0.03
839.053	0.03
839.345	0.02
839.637	0.01
839.929	0.02
840.221	0.02
840.513	0.03
840.805	0.01
841.096	0.01
841.388	0.01
841.68	0.02
841.971	0.01
842.262	0.01
842.554	-0
842.845	0.03
843.136	0.02
843.427	0.02
843.718	0.02
844.009	0.03
844.3	0.01
844.591	0
844.882	0.03
845.173	0.01
845.463	0.01
845.754	0.02
846.044	0.01
846.335	0.01
846.625	-0.01
846.915	-0.02
847.206	-0.01
847.496	-0.01
847.786	-0.03
848.076	-0
848.366	-0.03
848.656	0
848.945	-0.02
849.235	-0.02
849.525	-0.02
849.814	-0.02
850.104	-0.05
850.393	-0.01
850.683	-0.04
850.972	-0.01
851.261	-0.03
851.551	-0.02
851.84	-0
852.129	-0.01
852.418	-0
852.707	-0
852.995	-0.03
853.284	-0.01
853.573	-0.02
853.862	0
854.15	-0.02
854.439	-0
854.727	0.01
855.015	-0
855.304	-0.03
855.592	-0.04
855.88	-0.04
856.168	-0.03
856.456	-0
856.744	-0.03
857.032	-0.02
857.32	-0.02
857.607	-0.02
857.895	-0.01
858.183	-0.04
858.47	-0.05
858.757	-0.07
859.045	0
859.332	-0.05
859.619	-0.03
859.907	-0.07
860.194	-0.05
860.481	-0.03
860.768	-0.04
861.054	-0.06
861.341	-0.07
861.628	-0.07
861.915	-0.07
862.201	-0.07
862.488	-0.07
862.774	-0.03
863.061	-0.02
863.347	-0.06
863.633	-0.01
863.919	-0.06
864.205	-0.05
864.491	-0.06
864.777	-0.07
865.063	-0.05
865.349	-0.04
865.635	-0.11
865.92	-0.09
866.206	-0.1
866.492	-0.07
866.777	-0.05
867.062	-0.11
867.348	-0.06
867.633	-0.08
867.918	-0.07
868.203	-0.07
868.488	-0.11
868.773	-0.1
869.058	-0.12
869.343	-0.08
869.628	-0.17
869.912	-0.12
870.197	-0.14
870.482	-0.05
870.766	-0.13
871.05	-0.08
871.335	-0.12
871.619	-0.1
871.903	-0.05
872.187	-0.09
872.471	-0.12
872.755	-0.03
873.039	-0.14
873.323	-0.13
873.607	-0.07
873.89	-0.12
874.174	-0.2
874.458	-0.15
874.741	-0.07
875.024	-0.04
875.308	-0.22
875.591	-0.07
875.874	-0.06
876.157	-0.07
876.44	-0.17
876.723	-0.03
877.006	-0.14
877.289	-0.21
877.572	0.06
877.854	-0.32
878.137	0
878.42	-0.31
878.702	0.04
878.984	-0.34
879.267	-0.02
879.549	-0.33
879.831	-0.27
880.113	-0.15
880.395	-0.15
880.677	0.06
880.959	-0.15
