Data from Rubpy_EV_1200_EDTA_Absorbance_12-47-49-844.txt Node
Date: Mon Jun 29 12:47:49 BST 2026
User: fpm-admin
Spectrometer: OFX00224
Trigger mode: 0
Integration Time (sec): 7.000000E-2
Scans to average: 3
Nonlinearity correction enabled: false
Boxcar width: 0
Storing dark spectrum: false
XAxis mode: Wavelengths
Number of Pixels in Spectrum: 2136
>>>>>Begin Spectral Data<<<<<
154.91	0.72
155.289	-0.05
155.669	0.29
156.048	0.23
156.428	-0
156.807	-0.27
157.186	0.07
157.566	-0
157.945	-0
158.325	0.04
158.704	-0
159.083	-0.27
159.462	-0
159.842	0.5
160.221	-0.02
160.6	-0
160.979	-0.22
161.359	-0.18
161.738	-0
162.117	0.56
162.496	0.16
162.875	-0.11
163.254	-0.13
163.633	-0
164.012	-0
164.391	-0.28
164.77	0.3
165.149	-0.18
165.528	0.36
165.907	0.29
166.286	-0
166.665	-0.1
167.044	-0
167.423	-0.6
167.802	-0.09
168.181	-0
168.559	-0.6
168.938	0.21
169.317	-0
169.696	-0.14
170.074	-0
170.453	1.48
170.832	0.27
171.21	-0.07
171.589	0.06
171.968	-0
172.346	-0
172.725	0.83
173.103	-0
173.482	-0
173.861	-0
174.239	0.16
174.617	-0.11
174.996	-0
175.374	-0.4
175.753	1.04
176.131	-0.65
176.51	0.35
176.888	-0
177.266	-0
177.645	0.03
178.023	-0
178.401	0.01
178.779	0.09
179.158	0.18
179.536	0.7
179.914	-0
180.292	0.62
180.67	-0
181.048	-0
181.427	-0
181.805	-0
182.183	-0
182.561	0.45
182.939	0.1
183.317	-0.3
183.695	-0
184.073	-0.35
184.451	-0
184.829	0.24
185.206	0.12
185.584	-0.52
185.962	-0.81
186.34	-0
186.718	-0
187.096	-1.38
187.473	0.39
187.851	-0.19
188.229	0.12
188.607	0.02
188.984	0.06
189.362	0.04
189.74	-0.09
190.117	-0.04
190.495	-0
190.872	-0.02
191.25	0.05
191.627	0.06
192.005	0.1
192.382	0.19
192.76	-0.02
193.137	0.09
193.515	-0.01
193.892	0.01
194.269	-0.05
194.647	-0.03
195.024	0.01
195.401	0.1
195.779	-0.08
196.156	-0.02
196.533	0.09
196.91	-0.23
197.288	0.05
197.665	-0.06
198.042	0.02
198.419	0.04
198.796	0.1
199.173	0.05
199.55	-0.11
199.927	0.14
200.304	0.12
200.681	-0.04
201.058	-0.01
201.435	0.06
201.812	0.25
202.189	0.03
202.566	0.19
202.943	0.01
203.32	0.01
203.697	0.01
204.073	-0.04
204.45	0.06
204.827	0.07
205.204	0.12
205.58	0
205.957	0.06
206.334	-0
206.71	-0
207.087	-0.03
207.464	0.12
207.84	0.03
208.217	0.18
208.593	0.09
208.97	-0.03
209.346	0.08
209.723	-0.05
210.099	0.25
210.476	0.09
210.852	-0.01
211.228	0.04
211.605	0.07
211.981	0.04
212.357	0.1
212.733	0.05
213.11	-0.01
213.486	0.01
213.862	-0.01
214.238	0.15
214.614	-0.07
214.991	-0.01
215.367	0.17
215.743	0.13
216.119	0.14
216.495	0.03
216.871	0.02
217.247	-0.02
217.623	0.02
217.999	0.08
218.375	0.11
218.751	-0.06
219.127	0.07
219.502	0.05
219.878	-0.04
220.254	0.05
220.63	-0
221.006	0.05
221.381	-0
221.757	0.09
222.133	0.06
222.508	0.08
222.884	0.04
223.26	0.08
223.635	0.05
224.011	0
224.386	0.15
224.762	-0.05
225.137	0.01
225.513	0.17
225.888	0.08
226.264	0.03
226.639	-0.02
227.014	-0
227.39	-0
227.765	-0.01
228.14	0.11
228.516	0.12
228.891	0.11
229.266	0.15
229.641	0.06
230.017	0.11
230.392	-0.01
230.767	0.09
231.142	0.11
231.517	0.17
231.892	0.08
232.267	0.13
232.642	-0.07
233.017	0.07
233.392	0.07
233.767	0.2
234.142	-0.04
234.517	0.01
234.892	0.03
235.267	0.05
235.641	0.14
236.016	-0
236.391	-0.02
236.766	-0.09
237.14	-0.08
237.515	0.07
237.89	0.19
238.264	0.1
238.639	0.07
239.014	0.14
239.388	0.09
239.763	0.03
240.137	0.12
240.512	0.05
240.886	0.05
241.261	0.09
241.635	-0.02
242.009	0.08
242.384	0.1
242.758	-0.02
243.132	-0
243.507	0.11
243.881	0.02
244.255	0.02
244.629	0.03
245.004	0.07
245.378	0.09
245.752	0.05
246.126	0.02
246.5	0.16
246.874	0.03
247.248	0.06
247.622	-0.05
247.996	0.11
248.37	-0.03
248.744	0.23
249.118	-0.03
249.492	0.09
249.866	0
250.24	0.09
250.613	-0.08
250.987	0.11
251.361	0.14
251.735	0.07
252.108	0.12
252.482	0.14
252.856	0.02
253.229	0.03
253.603	0.05
253.977	-0.01
254.35	0.12
254.724	0.04
255.097	0.11
255.471	0.02
255.844	0.1
256.218	0.1
256.591	0.08
256.964	-0.05
257.338	0.09
257.711	0.03
258.084	0.03
258.458	0.03
258.831	0.01
259.204	0.05
259.577	-0.03
259.95	0.04
260.323	0.12
260.697	0.02
261.07	0.08
261.443	0.04
261.816	0.06
262.189	0.05
262.562	0.02
262.935	-0.03
263.308	0.05
263.68	0.01
264.053	0.01
264.426	0.21
264.799	0.07
265.172	0.01
265.545	0.09
265.917	0.07
266.29	0.04
266.663	0.04
267.035	0.08
267.408	0.01
267.781	0.08
268.153	0.11
268.526	0.05
268.898	0.07
269.271	0.06
269.643	0.02
270.016	0.04
270.388	0.02
270.76	0.03
271.133	0.02
271.505	0.08
271.877	-0.01
272.25	0.08
272.622	0.09
272.994	0.02
273.366	0.1
273.739	-0
274.111	0.04
274.483	-0.02
274.855	-0.02
275.227	-0.01
275.599	0.05
275.971	0.02
276.343	0.07
276.715	0.14
277.087	0.04
277.459	0.11
277.831	0.07
278.203	0.04
278.574	0.1
278.946	0.1
279.318	0.15
279.69	0.06
280.061	0.05
280.433	0.13
280.805	0.07
281.176	0.04
281.548	-0.01
281.92	0.07
282.291	-0.03
282.663	0.1
283.034	0.1
283.406	0.04
283.777	0.03
284.148	0.08
284.52	0.09
284.891	0.07
285.262	0.05
285.634	0.11
286.005	0.06
286.376	0.05
286.747	0.03
287.119	0.01
287.49	0.02
287.861	0.05
288.232	0.07
288.603	0.1
288.974	0.03
289.345	0.02
289.716	0.04
290.087	0.03
290.458	-0.05
290.829	0.07
291.2	-0.02
291.571	0.01
291.941	0.02
292.312	0.1
292.683	0.07
293.054	0.06
293.424	0.03
293.795	0.11
294.166	0.06
294.536	0.05
294.907	0.02
295.277	0.02
295.648	0.01
296.018	0.08
296.389	0.06
296.759	0.03
297.13	0.11
297.5	0.05
297.871	0.06
298.241	0.02
298.611	0.07
298.981	0.06
299.352	0.06
299.722	0.06
300.092	0.06
300.462	0.05
300.832	0.04
301.202	0.03
301.573	0.02
301.943	0.04
302.313	0.03
302.683	0.02
303.053	0.04
303.422	0.03
303.792	0.04
304.162	0.03
304.532	0.04
304.902	0.02
305.272	0.05
305.641	0.03
306.011	0.03
306.381	0.04
306.75	0.03
307.12	0.04
307.49	0.04
307.859	0.03
308.229	0.04
308.598	0.05
308.968	0.04
309.337	0.03
309.707	0.04
310.076	0.04
310.445	0.04
310.815	0.04
311.184	0.05
311.553	0.04
311.923	0.05
312.292	0.04
312.661	0.05
313.03	0.04
313.399	0.04
313.768	0.04
314.137	0.04
314.506	0.05
314.875	0.04
315.244	0.03
315.613	0.04
315.982	0.04
316.351	0.05
316.72	0.04
317.089	0.04
317.458	0.04
317.826	0.04
318.195	0.03
318.564	0.04
318.933	0.04
319.301	0.04
319.67	0.04
320.038	0.03
320.407	0.04
320.775	0.04
321.144	0.03
321.512	0.04
321.881	0.04
322.249	0.04
322.618	0.04
322.986	0.03
323.354	0.03
323.723	0.03
324.091	0.03
324.459	0.03
324.827	0.03
325.195	0.03
325.564	0.03
325.932	0.03
326.3	0.03
326.668	0.03
327.036	0.03
327.404	0.02
327.772	0.03
328.14	0.03
328.508	0.03
328.875	0.03
329.243	0.03
329.611	0.03
329.979	0.03
330.346	0.03
330.714	0.04
331.082	0.03
331.449	0.04
331.817	0.03
332.185	0.03
332.552	0.03
332.92	0.03
333.287	0.03
333.655	0.04
334.022	0.03
334.389	0.03
334.757	0.03
335.124	0.03
335.491	0.03
335.859	0.04
336.226	0.04
336.593	0.04
336.96	0.04
337.327	0.03
337.695	0.04
338.062	0.04
338.429	0.04
338.796	0.04
339.163	0.04
339.53	0.04
339.897	0.04
340.263	0.04
340.63	0.04
340.997	0.04
341.364	0.04
341.731	0.05
342.097	0.04
342.464	0.05
342.831	0.05
343.197	0.05
343.564	0.05
343.931	0.05
344.297	0.05
344.664	0.05
345.03	0.05
345.396	0.05
345.763	0.06
346.129	0.05
346.496	0.05
346.862	0.05
347.228	0.06
347.594	0.05
347.961	0.06
348.327	0.06
348.693	0.06
349.059	0.06
349.425	0.06
349.791	0.06
350.157	0.06
350.523	0.06
350.889	0.06
351.255	0.07
351.621	0.07
351.987	0.07
352.353	0.07
352.719	0.07
353.084	0.08
353.45	0.07
353.816	0.08
354.181	0.08
354.547	0.08
354.913	0.09
355.278	0.08
355.644	0.09
356.009	0.09
356.375	0.09
356.74	0.09
357.106	0.1
357.471	0.1
357.836	0.1
358.202	0.1
358.567	0.1
358.932	0.11
359.297	0.11
359.663	0.11
360.028	0.11
360.393	0.11
360.758	0.11
361.123	0.12
361.488	0.12
361.853	0.12
362.218	0.12
362.583	0.12
362.948	0.13
363.312	0.12
363.677	0.13
364.042	0.13
364.407	0.13
364.772	0.13
365.136	0.14
365.501	0.14
365.865	0.15
366.23	0.15
366.595	0.15
366.959	0.15
367.324	0.16
367.688	0.16
368.052	0.17
368.417	0.16
368.781	0.17
369.145	0.17
369.51	0.17
369.874	0.17
370.238	0.17
370.602	0.17
370.967	0.17
371.331	0.17
371.695	0.17
372.059	0.17
372.423	0.17
372.787	0.17
373.151	0.17
373.515	0.17
373.878	0.17
374.242	0.17
374.606	0.17
374.97	0.17
375.334	0.17
375.697	0.17
376.061	0.18
376.425	0.17
376.788	0.17
377.152	0.17
377.515	0.18
377.879	0.18
378.242	0.19
378.606	0.19
378.969	0.19
379.333	0.19
379.696	0.19
380.059	0.2
380.422	0.2
380.786	0.21
381.149	0.21
381.512	0.22
381.875	0.22
382.238	0.22
382.601	0.23
382.964	0.24
383.327	0.24
383.69	0.25
384.053	0.26
384.416	0.26
384.779	0.27
385.142	0.27
385.504	0.28
385.867	0.29
386.23	0.29
386.593	0.29
386.955	0.29
387.318	0.29
387.68	0.29
388.043	0.29
388.405	0.29
388.768	0.29
389.13	0.29
389.493	0.28
389.855	0.28
390.217	0.28
390.58	0.28
390.942	0.28
391.304	0.28
391.666	0.29
392.028	0.29
392.391	0.3
392.753	0.3
393.115	0.31
393.477	0.33
393.839	0.34
394.201	0.35
394.563	0.37
394.924	0.38
395.286	0.4
395.648	0.41
396.01	0.43
396.371	0.44
396.733	0.45
397.095	0.46
397.456	0.46
397.818	0.45
398.18	0.46
398.541	0.45
398.903	0.44
399.264	0.42
399.625	0.41
399.987	0.4
400.348	0.38
400.709	0.35
401.071	0.34
401.432	0.32
401.793	0.3
402.154	0.28
402.515	0.26
402.876	0.24
403.238	0.22
403.599	0.21
403.96	0.19
404.32	0.17
404.681	0.16
405.042	0.15
405.403	0.14
405.764	0.13
406.125	0.12
406.485	0.12
406.846	0.11
407.207	0.1
407.567	0.09
407.928	0.09
408.288	0.09
408.649	0.08
409.009	0.08
409.37	0.08
409.73	0.07
410.091	0.06
410.451	0.07
410.811	0.06
411.171	0.06
411.532	0.06
411.892	0.05
412.252	0.06
412.612	0.05
412.972	0.04
413.332	0.04
413.692	0.05
414.052	0.04
414.412	0.04
414.772	0.04
415.132	0.04
415.492	0.04
415.851	0.04
416.211	0.04
416.571	0.03
416.931	0.03
417.29	0.04
417.65	0.03
418.009	0.04
418.369	0.03
418.728	0.04
419.088	0.03
419.447	0.03
419.807	0.03
420.166	0.03
420.525	0.02
420.884	0.02
421.244	0.03
421.603	0.02
421.962	0.02
422.321	0.02
422.68	0.02
423.039	0.03
423.398	0.02
423.757	0.02
424.116	0.02
424.475	0.02
424.834	0.02
425.193	0.02
425.551	0.02
425.91	0.02
426.269	0.02
426.628	0.02
426.986	0.03
427.345	0.02
427.703	0.03
428.062	0.02
428.42	0.02
428.779	0.02
429.137	0.02
429.496	0.02
429.854	0.01
430.212	0.02
430.57	0.01
430.929	0.02
431.287	0.02
431.645	0.03
432.003	0.01
432.361	0.02
432.719	0.02
433.077	0.02
433.435	0.01
433.793	0.01
434.151	0.02
434.509	0.02
434.866	0.01
435.224	0.02
435.582	0.02
435.94	0.02
436.297	0.02
436.655	0.02
437.012	0.01
437.37	0.01
437.727	0.02
438.085	0.01
438.442	0.02
438.8	0.02
439.157	0.02
439.514	0.01
439.872	0.02
440.229	0.02
440.586	0.01
440.943	0.01
441.3	0.01
441.657	0
442.014	0.01
442.371	0.01
442.728	0.02
443.085	0.01
443.442	0.01
443.799	0.01
444.156	0.01
444.513	0.02
444.869	0.02
445.226	0.01
445.583	0.01
445.939	0.01
446.296	0.01
446.652	0.01
447.009	0.01
447.365	0.01
447.722	0.01
448.078	0.01
448.434	0.01
448.791	0.01
449.147	0.01
449.503	0.01
449.859	0.01
450.215	0.01
450.571	-0
450.928	0.01
451.284	0.02
451.64	0.01
451.995	-0
452.351	0.01
452.707	0
453.063	0.01
453.419	0.01
453.775	0
454.13	-0
454.486	-0
454.842	0
455.197	0.01
455.553	0
455.908	0.01
456.264	-0
456.619	0.01
456.975	0.01
457.33	0.01
457.685	0
458.04	0
458.396	-0
458.751	0.01
459.106	-0
459.461	0
459.816	0.01
460.171	-0
460.526	0
460.881	-0
461.236	-0
461.591	-0.01
461.946	-0
462.301	-0
462.655	0
463.01	0
463.365	0.01
463.719	0
464.074	-0
464.428	-0
464.783	-0
465.137	-0.01
465.492	-0.01
465.846	-0.01
466.201	-0.01
466.555	-0
466.909	-0.01
467.263	-0
467.618	-0.01
467.972	-0.01
468.326	-0.01
468.68	-0.01
469.034	-0.01
469.388	-0.01
469.742	-0.02
470.096	-0
470.45	-0.01
470.804	-0.01
471.157	-0.01
471.511	-0.01
471.865	-0.01
472.218	-0.01
472.572	-0.01
472.926	-0.01
473.279	-0
473.633	-0.01
473.986	-0.01
474.34	-0
474.693	-0.01
475.046	-0.01
475.4	-0
475.753	-0
476.106	-0
476.459	-0
476.812	0
477.165	-0
477.519	-0
477.872	-0
478.224	0.01
478.577	0
478.93	0
479.283	0.01
479.636	0.01
479.989	0
480.341	0.01
480.694	0.01
481.047	0.01
481.399	0
481.752	0.01
482.104	0.01
482.457	0.01
482.809	0.01
483.162	0.01
483.514	0
483.866	0.01
484.219	0.01
484.571	0.01
484.923	0.01
485.275	0.01
485.627	0.01
485.979	0.01
486.331	0.01
486.683	0.01
487.035	0.01
487.387	0.02
487.739	0.01
488.091	0.02
488.443	0.01
488.794	0.02
489.146	0.02
489.498	0.01
489.849	0.01
490.201	0.02
490.552	0.01
490.904	0.02
491.255	0.01
491.607	0.02
491.958	0.01
492.309	0.02
492.661	0.02
493.012	0.02
493.363	0.02
493.714	0.02
494.065	0.02
494.416	0.02
494.767	0.02
495.118	0.02
495.469	0.02
495.82	0.02
496.171	0.02
496.522	0.02
496.872	0.02
497.223	0.02
497.574	0.02
497.924	0.03
498.275	0.02
498.626	0.02
498.976	0.02
499.327	0.02
499.677	0.02
500.027	0.03
500.378	0.03
500.728	0.02
501.078	0.03
501.428	0.02
501.779	0.02
502.129	0.03
502.479	0.03
502.829	0.03
503.179	0.03
503.529	0.03
503.879	0.03
504.229	0.03
504.578	0.03
504.928	0.03
505.278	0.03
505.628	0.03
505.977	0.03
506.327	0.03
506.676	0.03
507.026	0.03
507.375	0.03
507.725	0.03
508.074	0.03
508.424	0.04
508.773	0.03
509.122	0.04
509.471	0.03
509.82	0.04
510.17	0.04
510.519	0.04
510.868	0.03
511.217	0.04
511.566	0.04
511.915	0.04
512.263	0.03
512.612	0.04
512.961	0.04
513.31	0.04
513.659	0.04
514.007	0.04
514.356	0.03
514.704	0.04
515.053	0.04
515.401	0.04
515.75	0.04
516.098	0.04
516.447	0.04
516.795	0.04
517.143	0.04
517.491	0.04
517.839	0.04
518.188	0.04
518.536	0.04
518.884	0.04
519.232	0.05
519.58	0.04
519.928	0.04
520.275	0.05
520.623	0.04
520.971	0.05
521.319	0.05
521.666	0.05
522.014	0.05
522.362	0.04
522.709	0.05
523.057	0.04
523.404	0.05
523.752	0.05
524.099	0.05
524.446	0.05
524.794	0.05
525.141	0.05
525.488	0.05
525.835	0.05
526.182	0.05
526.529	0.05
526.876	0.05
527.223	0.05
527.57	0.05
527.917	0.05
528.264	0.05
528.611	0.05
528.958	0.06
529.304	0.06
529.651	0.06
529.998	0.06
530.344	0.06
530.691	0.06
531.037	0.06
531.384	0.06
531.73	0.06
532.076	0.06
532.423	0.06
532.769	0.06
533.115	0.06
533.461	0.06
533.807	0.06
534.154	0.06
534.5	0.06
534.846	0.06
535.192	0.07
535.537	0.07
535.883	0.06
536.229	0.07
536.575	0.07
536.921	0.06
537.266	0.06
537.612	0.07
537.957	0.07
538.303	0.07
538.649	0.07
538.994	0.07
539.339	0.07
539.685	0.07
540.03	0.07
540.375	0.07
540.721	0.07
541.066	0.07
541.411	0.07
541.756	0.07
542.101	0.08
542.446	0.07
542.791	0.08
543.136	0.08
543.481	0.08
543.825	0.07
544.17	0.08
544.515	0.07
544.86	0.07
545.204	0.08
545.549	0.08
545.893	0.08
546.238	0.08
546.582	0.08
546.927	0.08
547.271	0.08
547.615	0.08
547.96	0.08
548.304	0.08
548.648	0.08
548.992	0.09
549.336	0.09
549.68	0.09
550.024	0.09
550.368	0.08
550.712	0.09
551.056	0.09
551.4	0.09
551.743	0.09
552.087	0.09
552.431	0.09
552.774	0.09
553.118	0.09
553.462	0.09
553.805	0.09
554.148	0.09
554.492	0.1
554.835	0.1
555.178	0.09
555.522	0.09
555.865	0.1
556.208	0.09
556.551	0.1
556.894	0.1
557.237	0.1
557.58	0.09
557.923	0.09
558.266	0.1
558.609	0.1
558.952	0.1
559.294	0.1
559.637	0.1
559.98	0.1
560.322	0.1
560.665	0.1
561.007	0.1
561.35	0.1
561.692	0.1
562.034	0.1
562.377	0.1
562.719	0.11
563.061	0.1
563.403	0.1
563.745	0.11
564.088	0.11
564.43	0.1
564.772	0.1
565.113	0.1
565.455	0.1
565.797	0.1
566.139	0.1
566.481	0.1
566.822	0.1
567.164	0.1
567.506	0.1
567.847	0.1
568.189	0.11
568.53	0.1
568.872	0.1
569.213	0.11
569.554	0.1
569.895	0.1
570.237	0.11
570.578	0.11
570.919	0.11
571.26	0.1
571.601	0.11
571.942	0.11
572.283	0.11
572.624	0.1
572.965	0.11
573.306	0.11
573.646	0.11
573.987	0.1
574.328	0.11
574.668	0.11
575.009	0.1
575.349	0.11
575.69	0.1
576.03	0.1
576.37	0.11
576.711	0.1
577.051	0.11
577.391	0.11
577.731	0.11
578.072	0.11
578.412	0.11
578.752	0.11
579.092	0.11
579.431	0.11
579.771	0.11
580.111	0.1
580.451	0.11
580.791	0.11
581.13	0.11
581.47	0.11
581.81	0.11
582.149	0.11
582.489	0.11
582.828	0.11
583.167	0.11
583.507	0.1
583.846	0.1
584.185	0.1
584.525	0.11
584.864	0.11
585.203	0.11
585.542	0.11
585.881	0.11
586.22	0.12
586.559	0.11
586.898	0.11
587.236	0.11
587.575	0.11
587.914	0.11
588.252	0.11
588.591	0.11
588.93	0.11
589.268	0.12
589.607	0.11
589.945	0.12
590.283	0.12
590.622	0.11
590.96	0.12
591.298	0.12
591.636	0.12
591.974	0.12
592.313	0.12
592.651	0.12
592.989	0.12
593.326	0.12
593.664	0.13
594.002	0.12
594.34	0.12
594.678	0.13
595.015	0.12
595.353	0.12
595.691	0.13
596.028	0.13
596.366	0.13
596.703	0.13
597.04	0.13
597.378	0.13
597.715	0.13
598.052	0.13
598.389	0.13
598.726	0.13
599.064	0.13
599.401	0.13
599.738	0.13
600.074	0.13
600.411	0.14
600.748	0.13
601.085	0.13
601.422	0.13
601.758	0.13
602.095	0.13
602.432	0.13
602.768	0.13
603.105	0.13
603.441	0.13
603.777	0.13
604.114	0.13
604.45	0.13
604.786	0.13
605.122	0.13
605.459	0.13
605.795	0.14
606.131	0.13
606.467	0.13
606.803	0.13
607.139	0.14
607.474	0.14
607.81	0.14
608.146	0.13
608.482	0.13
608.817	0.13
609.153	0.13
609.488	0.13
609.824	0.13
610.159	0.13
610.495	0.12
610.83	0.13
611.165	0.13
611.5	0.12
611.836	0.13
612.171	0.13
612.506	0.13
612.841	0.13
613.176	0.13
613.511	0.13
613.845	0.13
614.18	0.13
614.515	0.13
614.85	0.13
615.184	0.13
615.519	0.13
615.854	0.13
616.188	0.12
616.523	0.13
616.857	0.12
617.191	0.12
617.526	0.12
617.86	0.12
618.194	0.12
618.528	0.12
618.862	0.12
619.196	0.12
619.53	0.12
619.864	0.12
620.198	0.12
620.532	0.12
620.866	0.12
621.2	0.12
621.533	0.12
621.867	0.12
622.201	0.12
622.534	0.12
622.868	0.12
623.201	0.11
623.534	0.11
623.868	0.11
624.201	0.11
624.534	0.12
624.868	0.12
625.201	0.11
625.534	0.11
625.867	0.11
626.2	0.11
626.533	0.11
626.865	0.11
627.198	0.11
627.531	0.11
627.864	0.11
628.196	0.12
628.529	0.11
628.862	0.11
629.194	0.11
629.527	0.11
629.859	0.11
630.191	0.11
630.524	0.11
630.856	0.11
631.188	0.11
631.52	0.1
631.852	0.1
632.184	0.09
632.516	0.1
632.848	0.1
633.18	0.1
633.512	0.1
633.844	0.09
634.175	0.1
634.507	0.09
634.839	0.09
635.17	0.09
635.502	0.09
635.833	0.09
636.165	0.09
636.496	0.09
636.827	0.09
637.159	0.09
637.49	0.09
637.821	0.09
638.152	0.09
638.483	0.08
638.814	0.09
639.145	0.08
639.476	0.09
639.807	0.08
640.137	0.08
640.468	0.08
640.799	0.08
641.129	0.08
641.46	0.08
641.791	0.08
642.121	0.08
642.451	0.08
642.782	0.08
643.112	0.08
643.442	0.07
643.773	0.08
644.103	0.08
644.433	0.08
644.763	0.07
645.093	0.07
645.423	0.07
645.753	0.07
646.082	0.07
646.412	0.07
646.742	0.07
647.072	0.07
647.401	0.07
647.731	0.07
648.06	0.07
648.39	0.07
648.719	0.07
649.048	0.07
649.378	0.07
649.707	0.07
650.036	0.07
650.365	0.07
650.694	0.07
651.023	0.07
651.352	0.07
651.681	0.07
652.01	0.07
652.339	0.07
652.668	0.06
652.996	0.07
653.325	0.06
653.654	0.06
653.982	0.07
654.311	0.06
654.639	0.07
654.967	0.07
655.296	0.07
655.624	0.07
655.952	0.07
656.28	0.07
656.609	0.06
656.937	0.07
657.265	0.07
657.593	0.07
657.92	0.01
658.248	-0
658.576	-0
658.904	0.04
659.231	0.06
659.559	0.07
659.887	0.07
660.214	0.07
660.542	0.07
660.869	0.06
661.196	0.07
661.524	0.07
661.851	0.07
662.178	0.07
662.505	0.07
662.832	0.07
663.159	0.07
663.486	0.08
663.813	0.08
664.14	0.07
664.467	0.07
664.794	0.07
665.12	0.07
665.447	0.07
665.774	0.07
666.1	0.06
666.427	0.07
666.753	0.06
667.079	0.07
667.406	0.06
667.732	0.06
668.058	0.07
668.384	0.07
668.71	0.06
669.036	0.06
669.362	0.06
669.688	0.06
670.014	0.06
670.34	0.06
670.666	0.06
670.991	0.06
671.317	0.06
671.643	0.06
671.968	0.06
672.294	0.06
672.619	0.06
672.945	0.06
673.27	0.06
673.595	0.06
673.92	0.06
674.246	0.06
674.571	0.06
674.896	0.06
675.221	0.06
675.546	0.06
675.87	0.06
676.195	0.06
676.52	0.06
676.845	0.06
677.169	0.06
677.494	0.06
677.819	0.06
678.143	0.06
678.468	0.06
678.792	0.06
679.116	0.05
679.44	0.06
679.765	0.05
680.089	0.05
680.413	0.05
680.737	0.05
681.061	0.05
681.385	0.05
681.709	0.05
682.033	0.05
682.356	0.05
682.68	0.04
683.004	0.05
683.327	0.05
683.651	0.05
683.974	0.05
684.298	0.05
684.621	0.05
684.944	0.04
685.268	0.04
685.591	0.04
685.914	0.04
686.237	0.04
686.56	0.04
686.883	0.04
687.206	0.04
687.529	0.04
687.852	0.04
688.175	0.04
688.497	0.04
688.82	0.04
689.142	0.04
689.465	0.04
689.787	0.04
690.11	0.04
690.432	0.04
690.755	0.04
691.077	0.04
691.399	0.04
691.721	0.04
692.043	0.04
692.365	0.04
692.687	0.04
693.009	0.04
693.331	0.03
693.653	0.03
693.974	0.04
694.296	0.04
694.618	0.04
694.939	0.04
695.261	0.04
695.582	0.04
695.904	0.04
696.225	0.03
696.546	0.04
696.868	0.03
697.189	0.04
697.51	0.04
697.831	0.03
698.152	0.04
698.473	0.03
698.794	0.03
699.114	0.03
699.435	0.03
699.756	0.03
700.077	0.03
700.397	0.02
700.718	0.02
701.038	0.02
701.359	0.02
701.679	0.02
701.999	0.02
702.32	0.03
702.64	0.03
702.96	0.02
703.28	0.03
703.6	0.03
703.92	0.02
704.24	0.02
704.56	0.02
704.879	0.02
705.199	0.02
705.519	0.02
705.838	0.02
706.158	0.03
706.478	0.02
706.797	0.02
707.116	0.02
707.436	0.02
707.755	0.02
708.074	0.02
708.393	0.02
708.712	0.02
709.031	0.02
709.35	0.02
709.669	0.02
709.988	0.02
710.307	0.02
710.626	0.03
710.944	0.03
711.263	0.03
711.582	0.03
711.9	0.03
712.219	0.03
712.537	0.03
712.855	0.03
713.174	0.03
713.492	0.03
713.81	0.03
714.128	0.03
714.446	0.03
714.764	0.03
715.082	0.03
715.4	0.03
715.718	0.03
716.035	0.03
716.353	0.03
716.671	0.03
716.988	0.03
717.306	0.03
717.623	0.03
717.941	0.03
718.258	0.03
718.575	0.02
718.893	0.02
719.21	0.02
719.527	0.02
719.844	0.02
720.161	0.02
720.478	0.02
720.795	0.02
721.112	0.02
721.428	0.02
721.745	0.02
722.062	0.02
722.378	0.02
722.695	0.02
723.011	0.02
723.328	0.02
723.644	0.02
723.96	0.02
724.276	0.02
724.593	0.02
724.909	0.02
725.225	0.03
725.541	0.03
725.857	0.03
726.173	0.03
726.488	0.03
726.804	0.03
727.12	0.03
727.435	0.03
727.751	0.03
728.067	0.03
728.382	0.03
728.697	0.03
729.013	0.03
729.328	0.03
729.643	0.02
729.958	0.03
730.273	0.03
730.588	0.03
730.903	0.03
731.218	0.03
731.533	0.02
731.848	0.02
732.163	0.02
732.477	0.02
732.792	0.02
733.107	0.02
733.421	0.02
733.736	0.02
734.05	0.02
734.364	0.02
734.678	0.02
734.993	0.02
735.307	0.03
735.621	0.03
735.935	0.03
736.249	0.03
736.563	0.03
736.877	0.03
737.19	0.03
737.504	0.03
737.818	0.03
738.131	0.02
738.445	0.02
738.758	0.02
739.072	0.02
739.385	0.02
739.698	0.02
740.012	0.02
740.325	0.02
740.638	0.02
740.951	0.02
741.264	0.02
741.577	0.02
741.89	0.02
742.203	0.02
742.515	0.03
742.828	0.02
743.141	0.02
743.453	0.02
743.766	0.02
744.078	0.02
744.391	0.02
744.703	0.03
745.015	0.02
745.327	0.02
745.639	0.02
745.952	0.02
746.264	0.02
746.575	0.02
746.887	0.02
747.199	0.03
747.511	0.02
747.823	0.02
748.134	0.02
748.446	0.02
748.757	0.02
749.069	0.03
749.38	0.02
749.692	0.02
750.003	0.02
750.314	0.02
750.625	0.02
750.936	0.02
751.248	0.02
751.559	0.02
751.869	0.02
752.18	0.02
752.491	0.02
752.802	0.02
753.112	0.02
753.423	0.02
753.734	0.02
754.044	0.02
754.355	0.02
754.665	0.02
754.975	0.02
755.285	0.02
755.596	0.02
755.906	0.01
756.216	0.01
756.526	0.01
756.836	0.01
757.146	0.01
757.455	0.01
757.765	0.01
758.075	0.01
758.385	0.01
758.694	0.01
759.004	0.01
759.313	0.01
759.622	0.01
759.932	0.01
760.241	0.01
760.55	0.01
760.859	0.01
761.168	0.01
761.477	0.01
761.786	0.01
762.095	0.01
762.404	0.01
762.713	0.01
763.021	0.01
763.33	0.01
763.639	0.01
763.947	0.01
764.256	0.01
764.564	0.01
764.872	0.01
765.181	0.01
765.489	0.01
765.797	0.01
766.105	0.01
766.413	0.01
766.721	0.01
767.029	0.01
767.337	0.01
767.644	0.01
767.952	0.01
768.26	0.01
768.567	0.01
768.875	0.01
769.182	0.01
769.49	0
769.797	0
770.104	0
770.411	0
770.718	0.01
771.026	0
771.333	0.01
771.639	0
771.946	0
772.253	0
772.56	-0
772.867	0
773.173	0
773.48	0.01
773.786	0
774.093	0
774.399	0
774.705	0
775.012	0
775.318	-0
775.624	0
775.93	0
776.236	-0
776.542	-0
776.848	-0
777.154	-0
777.459	-0
777.765	0
778.071	-0
778.376	-0
778.682	-0
778.987	-0
779.292	0
779.598	0
779.903	0
780.208	0
780.513	0.01
780.818	0.01
781.123	0.01
781.428	0.01
781.733	0.01
782.038	0.01
782.343	0.01
782.647	0
782.952	0.01
783.256	0
783.561	0
783.865	0
784.17	0
784.474	0.01
784.778	0
785.082	0.01
785.386	0
785.69	0
785.994	-0
786.298	0
786.602	0
786.906	0
787.209	0
787.513	-0
787.817	0
788.12	0.01
788.424	0.01
788.727	0.01
789.03	0.01
789.333	0.01
789.637	0.01
789.94	0.01
790.243	0.01
790.546	0.01
790.849	0.01
791.152	0.01
791.454	0.01
791.757	0.01
792.06	0.01
792.362	0.01
792.665	0.01
792.967	0.01
793.27	-0
793.572	0
793.874	0
794.177	-0
794.479	-0
794.781	-0.01
795.083	-0
795.385	-0
795.687	-0.01
795.989	-0
796.29	-0
796.592	-0
796.894	0
797.195	0
797.497	-0
797.798	-0
798.1	-0
798.401	-0
798.702	-0.01
799.003	-0.01
799.304	-0
799.605	-0
799.906	-0
800.207	-0
800.508	-0
800.809	0
801.11	-0
801.41	-0
801.711	-0
802.011	-0
802.312	-0
802.612	0
802.913	0
803.213	0.01
803.513	0
803.813	0
804.113	0
804.413	0
804.713	-0
805.013	-0
805.313	0
805.613	0
805.912	0
806.212	0
806.511	0
806.811	-0
807.11	-0
807.41	-0
807.709	-0
808.008	-0.01
808.307	-0.01
808.606	-0
808.905	0
809.204	-0
809.503	-0.01
809.802	0
810.101	0
810.399	-0
810.698	0
810.997	-0
811.295	-0
811.593	0
811.892	0
812.19	-0
812.488	-0.01
812.786	-0.01
813.084	-0.01
813.383	-0.01
813.68	-0.01
813.978	-0
814.276	-0.01
814.574	-0
814.872	-0.01
815.169	-0.01
815.467	-0.01
815.764	-0.01
816.062	-0
816.359	-0
816.656	0
816.954	0
817.251	0.01
817.548	0.01
817.845	0
818.142	-0
818.439	-0
818.735	-0
819.032	-0
819.329	-0.01
819.626	-0
819.922	-0.01
820.219	-0
820.515	-0.01
820.811	-0.01
821.108	-0.01
821.404	-0.01
821.7	-0
821.996	-0.01
822.292	-0.01
822.588	-0.01
822.884	-0.01
823.18	-0.01
823.475	0
823.771	0
824.067	-0.01
824.362	0
824.658	-0
824.953	0
825.249	0.01
825.544	0
825.839	0.01
826.134	0
826.429	0.01
826.724	0.01
827.019	0.01
827.314	-0.01
827.609	-0.02
827.904	-0
828.198	-0
828.493	-0.01
828.787	-0
829.082	-0.01
829.376	-0.01
829.671	-0.01
829.965	-0
830.259	0
830.553	0
830.847	-0
831.141	0
831.435	-0.01
831.729	0
832.023	-0
832.317	-0
832.61	-0.01
832.904	-0.01
833.197	0
833.491	0
833.784	0.01
834.077	0
834.371	0
834.664	-0.01
834.957	-0.01
835.25	-0.01
835.543	-0
835.836	-0.01
836.129	-0
836.421	-0.01
836.714	-0.01
837.007	-0.01
837.299	-0.01
837.592	-0
837.884	-0.01
838.177	0
838.469	-0
838.761	0
839.053	-0
839.345	0
839.637	-0.01
839.929	0.01
840.221	-0.01
840.513	0
840.805	-0.01
841.096	0
841.388	-0
841.68	0
841.971	0
842.262	0
842.554	0
842.845	-0
843.136	0.01
843.427	-0.01
843.718	0
844.009	0
844.3	-0.01
844.591	-0.01
844.882	-0.01
845.173	-0.01
845.463	-0.01
845.754	0
846.044	-0.01
846.335	-0
846.625	-0.02
846.915	-0.01
847.206	-0
847.496	-0.01
847.786	-0.02
848.076	-0.01
848.366	-0
848.656	-0.01
848.945	-0
849.235	-0.01
849.525	-0.01
849.814	-0
850.104	-0.02
850.393	-0.01
850.683	-0.01
850.972	-0.02
851.261	-0
851.551	-0
851.84	0.01
852.129	-0
852.418	0.01
852.707	0.01
852.995	-0
853.284	0
853.573	-0.01
853.862	-0.01
854.15	-0.01
854.439	-0.02
854.727	-0
855.015	-0.02
855.304	-0.02
855.592	-0.01
855.88	-0.02
856.168	0
856.456	-0.01
856.744	-0.01
857.032	-0.02
857.32	-0.03
857.607	-0.02
857.895	-0.03
858.183	-0.01
858.47	-0.02
858.757	-0.02
859.045	-0
859.332	-0.01
859.619	0
859.907	-0
860.194	-0.02
860.481	-0.03
860.768	-0.05
861.054	-0.02
861.341	-0.03
861.628	-0
861.915	-0.02
862.201	-0.01
862.488	0.01
862.774	-0
863.061	-0.01
863.347	-0
863.633	-0.03
863.919	0.03
864.205	0
864.491	-0
864.777	-0.01
865.063	-0.01
865.349	0.02
865.635	-0.01
865.92	-0.04
866.206	-0.04
866.492	-0
866.777	0.01
867.062	-0.02
867.348	-0.01
867.633	0.03
867.918	0
868.203	0.01
868.488	-0.01
868.773	-0.06
869.058	-0.02
869.343	-0
869.628	-0.02
869.912	0
870.197	-0
870.482	-0.02
870.766	0.01
871.05	-0.02
871.335	-0.07
871.619	-0.01
871.903	-0.04
872.187	-0.03
872.471	0.03
872.755	-0.03
873.039	-0.05
873.323	-0.09
873.607	-0.03
873.89	0.03
874.174	0.03
874.458	0.08
874.741	-0
875.024	-0.01
875.308	0.04
875.591	0.07
875.874	-0.05
876.157	0.01
876.44	-0.04
876.723	-0
877.006	-0.06
877.289	0.02
877.572	-0.04
877.854	-0.08
878.137	0.05
878.42	0.05
878.702	-0.04
878.984	-0.08
879.267	-0.03
879.549	-0.12
879.831	-0.09
880.113	0.09
880.395	0.03
880.677	-0.02
880.959	-0.06
