Data from Rubpy_EV_1200_EDTA_Absorbance_12-48-36-735.txt Node
Date: Mon Jun 29 12:48:36 BST 2026
User: fpm-admin
Spectrometer: OFX00224
Trigger mode: 0
Integration Time (sec): 7.000000E-2
Scans to average: 3
Nonlinearity correction enabled: false
Boxcar width: 0
Storing dark spectrum: false
XAxis mode: Wavelengths
Number of Pixels in Spectrum: 2136
>>>>>Begin Spectral Data<<<<<
154.91	0.58
155.289	-0
155.669	-0
156.048	0.31
156.428	-1.18
156.807	-0.41
157.186	-0.04
157.566	-0
157.945	-0.56
158.325	0.13
158.704	0.07
159.083	-0.11
159.462	0.4
159.842	0.23
160.221	-0.34
160.6	-0
160.979	-0.48
161.359	0.7
161.738	-1.14
162.117	-0
162.496	-0.16
162.875	-0
163.254	-0.27
163.633	0.75
164.012	-0
164.391	0.1
164.77	-0
165.149	-0
165.528	0.2
165.907	0.29
166.286	-0
166.665	-0.11
167.044	0.08
167.423	-0
167.802	0.11
168.181	-0
168.559	-0.9
168.938	0.28
169.317	-0
169.696	-0
170.074	-0
170.453	0.52
170.832	0.06
171.21	-0
171.589	-0.01
171.968	-0
172.346	-0
172.725	-0
173.103	-0
173.482	-0.21
173.861	-0.51
174.239	-0
174.617	-0.26
174.996	-0
175.374	-0
175.753	-0
176.131	-1.18
176.51	0.12
176.888	-0
177.266	-0
177.645	0.07
178.023	0.02
178.401	0.04
178.779	0.13
179.158	-0
179.536	0.32
179.914	-0
180.292	-0
180.67	-0
181.048	-0.06
181.427	-0
181.805	-0.2
182.183	0.05
182.561	-0
182.939	-0.32
183.317	-0.65
183.695	-0
184.073	-0.35
184.451	-1.22
184.829	0.34
185.206	0.04
185.584	-0.28
185.962	-0.8
186.34	-0
186.718	-0
187.096	-0
187.473	-0
187.851	-0.25
188.229	-0
188.607	0.16
188.984	-0.02
189.362	0.21
189.74	0.07
190.117	-0.06
190.495	0.02
190.872	-0.11
191.25	0.01
191.627	0.07
192.005	0.12
192.382	0.02
192.76	0.14
193.137	0.03
193.515	-0.03
193.892	0.17
194.269	0.13
194.647	0.03
195.024	0.01
195.401	-0.01
195.779	-0.04
196.156	0.04
196.533	-0.03
196.91	-0.07
197.288	-0.05
197.665	-0.04
198.042	0.05
198.419	0.06
198.796	0
199.173	0.08
199.55	0.05
199.927	0.14
200.304	0.15
200.681	0.01
201.058	-0.03
201.435	0.13
201.812	0.16
202.189	0.08
202.566	0.09
202.943	0.15
203.32	0.06
203.697	-0.02
204.073	0.08
204.45	0.03
204.827	0.05
205.204	0.14
205.58	-0.09
205.957	0.02
206.334	0.12
206.71	0.12
207.087	0.09
207.464	0.08
207.84	-0.02
208.217	0.12
208.593	0.01
208.97	0.01
209.346	0.16
209.723	0.07
210.099	0.19
210.476	0.13
210.852	0.02
211.228	-0.01
211.605	0.09
211.981	0.08
212.357	0.19
212.733	0.09
213.11	0.07
213.486	0.04
213.862	0.02
214.238	0.14
214.614	0.1
214.991	-0.02
215.367	0.09
215.743	-0
216.119	0.13
216.495	0.07
216.871	0.13
217.247	0.08
217.623	0.05
217.999	0.08
218.375	0.16
218.751	0
219.127	0.01
219.502	0.08
219.878	-0.03
220.254	-0.01
220.63	0.07
221.006	0.07
221.381	0.08
221.757	0.15
222.133	0.19
222.508	0.1
222.884	0.12
223.26	0.11
223.635	0.12
224.011	0.04
224.386	0.09
224.762	0.04
225.137	0.15
225.513	0.08
225.888	0.08
226.264	0.12
226.639	0.07
227.014	0.08
227.39	0.06
227.765	0.13
228.14	0.09
228.516	0.02
228.891	0.03
229.266	0.09
229.641	-0.05
230.017	0.13
230.392	0.07
230.767	0.03
231.142	0.13
231.517	0.13
231.892	0.04
232.267	0.08
232.642	0.09
233.017	0.1
233.392	0.2
233.767	0.1
234.142	0.06
234.517	0.09
234.892	-0.04
235.267	0.14
235.641	0.13
236.016	-0
236.391	0.13
236.766	0.07
237.14	-0.07
237.515	0.13
237.89	0.26
238.264	0.1
238.639	0.02
239.014	0.03
239.388	0.14
239.763	0.11
240.137	0.04
240.512	0.02
240.886	0.06
241.261	0.02
241.635	0.13
242.009	0.07
242.384	0.08
242.758	0
243.132	0.05
243.507	0.08
243.881	0.04
244.255	-0.05
244.629	0.23
245.004	0.04
245.378	0.1
245.752	0.04
246.126	0.07
246.5	0.05
246.874	0.12
247.248	0.08
247.622	-0.08
247.996	0.13
248.37	-0.07
248.744	0.2
249.118	0.06
249.492	0.08
249.866	0.06
250.24	0.02
250.613	-0.03
250.987	0.06
251.361	0.18
251.735	0.05
252.108	0.08
252.482	0.07
252.856	0.13
253.229	0.12
253.603	0.04
253.977	0.05
254.35	0.09
254.724	0.05
255.097	0.04
255.471	0.05
255.844	0.04
256.218	0.07
256.591	0.04
256.964	0.06
257.338	0.12
257.711	0.08
258.084	0.12
258.458	0.09
258.831	0.06
259.204	0.09
259.577	0.08
259.95	0.07
260.323	0.07
260.697	0.06
261.07	0.07
261.443	0.08
261.816	0.02
262.189	0.08
262.562	0.03
262.935	0.06
263.308	0.03
263.68	0.02
264.053	0.1
264.426	0.06
264.799	0.17
265.172	0.13
265.545	0.03
265.917	0.18
266.29	0.03
266.663	0.05
267.035	0.2
267.408	0.09
267.781	0.05
268.153	0.15
268.526	0.04
268.898	0.13
269.271	0.1
269.643	-0
270.016	0.06
270.388	0.07
270.76	0.08
271.133	-0.02
271.505	0.15
271.877	0
272.25	0.15
272.622	0.08
272.994	-0.01
273.366	0.11
273.739	-0.01
274.111	0.05
274.483	0.06
274.855	-0.02
275.227	0.08
275.599	0.09
275.971	0.08
276.343	0.09
276.715	0.17
277.087	0.03
277.459	0.14
277.831	0.09
278.203	0.07
278.574	0.15
278.946	0.05
279.318	0.15
279.69	0.11
280.061	0.09
280.433	0.09
280.805	-0.02
281.176	0.1
281.548	0.04
281.92	0.13
282.291	0.07
282.663	0.08
283.034	0.08
283.406	0.04
283.777	0.03
284.148	0.09
284.52	0.16
284.891	0.08
285.262	0.03
285.634	0.08
286.005	0.06
286.376	0.08
286.747	0.05
287.119	0.08
287.49	0.08
287.861	0.11
288.232	0.08
288.603	0.13
288.974	0.07
289.345	0.05
289.716	0.07
290.087	0.08
290.458	0.01
290.829	0.17
291.2	-0.03
291.571	0.08
291.941	0.01
292.312	0.04
292.683	0.04
293.054	0.04
293.424	0.03
293.795	0.09
294.166	0.06
294.536	0.06
294.907	-0
295.277	0.02
295.648	0
296.018	0.12
296.389	0.07
296.759	0.03
297.13	0.1
297.5	0.07
297.871	0.09
298.241	0.04
298.611	0.06
298.981	0.05
299.352	0.08
299.722	0.01
300.092	0.05
300.462	0.03
300.832	0.03
301.202	0.08
301.573	0.02
301.943	0.06
302.313	0.02
302.683	0.04
303.053	0.04
303.422	0.04
303.792	0.04
304.162	0.04
304.532	0.04
304.902	0.04
305.272	0.06
305.641	0.03
306.011	0.03
306.381	0.05
306.75	0.04
307.12	0.05
307.49	0.04
307.859	0.05
308.229	0.04
308.598	0.04
308.968	0.05
309.337	0.04
309.707	0.05
310.076	0.05
310.445	0.05
310.815	0.05
311.184	0.05
311.553	0.04
311.923	0.05
312.292	0.06
312.661	0.06
313.03	0.05
313.399	0.05
313.768	0.05
314.137	0.05
314.506	0.06
314.875	0.06
315.244	0.05
315.613	0.04
315.982	0.05
316.351	0.05
316.72	0.06
317.089	0.05
317.458	0.05
317.826	0.05
318.195	0.05
318.564	0.05
318.933	0.05
319.301	0.05
319.67	0.05
320.038	0.05
320.407	0.05
320.775	0.05
321.144	0.04
321.512	0.05
321.881	0.04
322.249	0.05
322.618	0.05
322.986	0.05
323.354	0.04
323.723	0.04
324.091	0.04
324.459	0.04
324.827	0.04
325.195	0.04
325.564	0.04
325.932	0.04
326.3	0.04
326.668	0.04
327.036	0.04
327.404	0.04
327.772	0.04
328.14	0.04
328.508	0.04
328.875	0.04
329.243	0.04
329.611	0.04
329.979	0.04
330.346	0.04
330.714	0.04
331.082	0.04
331.449	0.04
331.817	0.04
332.185	0.04
332.552	0.04
332.92	0.04
333.287	0.04
333.655	0.04
334.022	0.04
334.389	0.04
334.757	0.04
335.124	0.04
335.491	0.04
335.859	0.05
336.226	0.05
336.593	0.05
336.96	0.05
337.327	0.05
337.695	0.05
338.062	0.05
338.429	0.05
338.796	0.05
339.163	0.05
339.53	0.05
339.897	0.05
340.263	0.05
340.63	0.05
340.997	0.05
341.364	0.05
341.731	0.06
342.097	0.05
342.464	0.06
342.831	0.06
343.197	0.06
343.564	0.06
343.931	0.06
344.297	0.07
344.664	0.06
345.03	0.06
345.396	0.06
345.763	0.07
346.129	0.07
346.496	0.06
346.862	0.07
347.228	0.07
347.594	0.07
347.961	0.07
348.327	0.07
348.693	0.07
349.059	0.08
349.425	0.07
349.791	0.08
350.157	0.08
350.523	0.08
350.889	0.08
351.255	0.09
351.621	0.09
351.987	0.09
352.353	0.09
352.719	0.09
353.084	0.1
353.45	0.1
353.816	0.1
354.181	0.1
354.547	0.1
354.913	0.1
355.278	0.1
355.644	0.11
356.009	0.11
356.375	0.11
356.74	0.11
357.106	0.12
357.471	0.12
357.836	0.12
358.202	0.13
358.567	0.13
358.932	0.13
359.297	0.13
359.663	0.14
360.028	0.14
360.393	0.14
360.758	0.14
361.123	0.14
361.488	0.15
361.853	0.15
362.218	0.15
362.583	0.14
362.948	0.16
363.312	0.16
363.677	0.16
364.042	0.16
364.407	0.16
364.772	0.17
365.136	0.17
365.501	0.18
365.865	0.18
366.23	0.18
366.595	0.19
366.959	0.19
367.324	0.19
367.688	0.2
368.052	0.2
368.417	0.2
368.781	0.21
369.145	0.21
369.51	0.21
369.874	0.21
370.238	0.22
370.602	0.21
370.967	0.21
371.331	0.22
371.695	0.21
372.059	0.21
372.423	0.21
372.787	0.21
373.151	0.21
373.515	0.21
373.878	0.21
374.242	0.21
374.606	0.21
374.97	0.22
375.334	0.21
375.697	0.22
376.061	0.22
376.425	0.22
376.788	0.22
377.152	0.22
377.515	0.22
377.879	0.23
378.242	0.23
378.606	0.23
378.969	0.24
379.333	0.24
379.696	0.24
380.059	0.24
380.422	0.25
380.786	0.26
381.149	0.26
381.512	0.27
381.875	0.27
382.238	0.28
382.601	0.28
382.964	0.3
383.327	0.31
383.69	0.32
384.053	0.32
384.416	0.33
384.779	0.34
385.142	0.34
385.504	0.35
385.867	0.36
386.23	0.36
386.593	0.36
386.955	0.36
387.318	0.36
387.68	0.36
388.043	0.36
388.405	0.36
388.768	0.36
389.13	0.35
389.493	0.35
389.855	0.35
390.217	0.35
390.58	0.34
390.942	0.35
391.304	0.35
391.666	0.36
392.028	0.36
392.391	0.37
392.753	0.38
393.115	0.39
393.477	0.41
393.839	0.43
394.201	0.44
394.563	0.46
394.924	0.48
395.286	0.5
395.648	0.52
396.01	0.53
396.371	0.55
396.733	0.57
397.095	0.57
397.456	0.57
397.818	0.57
398.18	0.57
398.541	0.55
398.903	0.54
399.264	0.54
399.625	0.51
399.987	0.49
400.348	0.47
400.709	0.44
401.071	0.42
401.432	0.4
401.793	0.37
402.154	0.34
402.515	0.32
402.876	0.3
403.238	0.28
403.599	0.26
403.96	0.24
404.32	0.22
404.681	0.2
405.042	0.19
405.403	0.18
405.764	0.16
406.125	0.16
406.485	0.15
406.846	0.13
407.207	0.12
407.567	0.12
407.928	0.11
408.288	0.11
408.649	0.09
409.009	0.09
409.37	0.09
409.73	0.08
410.091	0.08
410.451	0.08
410.811	0.07
411.171	0.07
411.532	0.06
411.892	0.06
412.252	0.07
412.612	0.06
412.972	0.05
413.332	0.05
413.692	0.06
414.052	0.05
414.412	0.05
414.772	0.05
415.132	0.05
415.492	0.04
415.851	0.05
416.211	0.05
416.571	0.04
416.931	0.04
417.29	0.04
417.65	0.03
418.009	0.04
418.369	0.03
418.728	0.04
419.088	0.04
419.447	0.03
419.807	0.04
420.166	0.03
420.525	0.03
420.884	0.03
421.244	0.03
421.603	0.03
421.962	0.03
422.321	0.03
422.68	0.03
423.039	0.03
423.398	0.03
423.757	0.02
424.116	0.02
424.475	0.03
424.834	0.02
425.193	0.02
425.551	0.02
425.91	0.03
426.269	0.02
426.628	0.02
426.986	0.03
427.345	0.02
427.703	0.03
428.062	0.02
428.42	0.02
428.779	0.02
429.137	0.03
429.496	0.02
429.854	0.02
430.212	0.02
430.57	0.03
430.929	0.02
431.287	0.02
431.645	0.02
432.003	0.02
432.361	0.03
432.719	0.02
433.077	0.01
433.435	0.02
433.793	0.02
434.151	0.02
434.509	0.03
434.866	0.02
435.224	0.02
435.582	0.02
435.94	0.02
436.297	0.03
436.655	0.02
437.012	0.02
437.37	0.01
437.727	0.02
438.085	0.02
438.442	0.02
438.8	0.02
439.157	0.02
439.514	0.02
439.872	0.03
440.229	0.02
440.586	0.02
440.943	0.02
441.3	0.02
441.657	0.02
442.014	0.01
442.371	0.02
442.728	0.02
443.085	0.02
443.442	0.02
443.799	0.03
444.156	0.02
444.513	0.02
444.869	0.02
445.226	0.01
445.583	0.01
445.939	0.01
446.296	0.01
446.652	0.02
447.009	0.02
447.365	0.01
447.722	0.02
448.078	0.01
448.434	0.01
448.791	0.01
449.147	0.01
449.503	0.02
449.859	0.01
450.215	0
450.571	0.01
450.928	0.01
451.284	0.02
451.64	0.01
451.995	0
452.351	0.01
452.707	0.01
453.063	0.02
453.419	0.01
453.775	0
454.13	0.01
454.486	0.01
454.842	0.01
455.197	0.01
455.553	0.01
455.908	0.01
456.264	-0
456.619	0
456.975	0.01
457.33	0.01
457.685	0.01
458.04	0.01
458.396	-0.01
458.751	0
459.106	0
459.461	0.01
459.816	0
460.171	0
460.526	0
460.881	-0
461.236	0.01
461.591	-0.01
461.946	0.01
462.301	-0
462.655	0.01
463.01	0.01
463.365	0.01
463.719	0
464.074	-0.01
464.428	-0
464.783	-0
465.137	-0.01
465.492	-0.01
465.846	-0.01
466.201	-0.01
466.555	-0
466.909	-0.01
467.263	0
467.618	-0
467.972	-0.01
468.326	-0
468.68	-0.01
469.034	-0
469.388	-0.01
469.742	-0.01
470.096	-0
470.45	-0.01
470.804	-0.01
471.157	-0.01
471.511	-0.01
471.865	-0.01
472.218	-0.01
472.572	-0.01
472.926	-0.01
473.279	0
473.633	-0
473.986	-0
474.34	-0
474.693	-0.01
475.046	-0.01
475.4	0
475.753	0
476.106	0
476.459	-0
476.812	-0
477.165	0
477.519	0
477.872	0.01
478.224	0.01
478.577	0.01
478.93	0.01
479.283	0.01
479.636	0.01
479.989	0.01
480.341	0.01
480.694	0.01
481.047	0.01
481.399	0.01
481.752	0.01
482.104	0.01
482.457	0.01
482.809	0.01
483.162	0.02
483.514	0.01
483.866	0.01
484.219	0.01
484.571	0.01
484.923	0.01
485.275	0.02
485.627	0.01
485.979	0.01
486.331	0.01
486.683	0.02
487.035	0.02
487.387	0.02
487.739	0.02
488.091	0.02
488.443	0.02
488.794	0.02
489.146	0.02
489.498	0.02
489.849	0.02
490.201	0.02
490.552	0.02
490.904	0.02
491.255	0.02
491.607	0.02
491.958	0.02
492.309	0.02
492.661	0.02
493.012	0.02
493.363	0.02
493.714	0.02
494.065	0.02
494.416	0.02
494.767	0.02
495.118	0.02
495.469	0.03
495.82	0.02
496.171	0.02
496.522	0.03
496.872	0.03
497.223	0.03
497.574	0.03
497.924	0.03
498.275	0.03
498.626	0.03
498.976	0.03
499.327	0.02
499.677	0.03
500.027	0.04
500.378	0.03
500.728	0.03
501.078	0.03
501.428	0.03
501.779	0.03
502.129	0.03
502.479	0.03
502.829	0.03
503.179	0.03
503.529	0.03
503.879	0.03
504.229	0.04
504.578	0.04
504.928	0.04
505.278	0.04
505.628	0.04
505.977	0.03
506.327	0.03
506.676	0.04
507.026	0.04
507.375	0.04
507.725	0.03
508.074	0.04
508.424	0.04
508.773	0.04
509.122	0.04
509.471	0.04
509.82	0.04
510.17	0.04
510.519	0.04
510.868	0.04
511.217	0.05
511.566	0.04
511.915	0.05
512.263	0.04
512.612	0.05
512.961	0.05
513.31	0.05
513.659	0.05
514.007	0.05
514.356	0.05
514.704	0.05
515.053	0.05
515.401	0.05
515.75	0.05
516.098	0.05
516.447	0.05
516.795	0.05
517.143	0.05
517.491	0.05
517.839	0.05
518.188	0.06
518.536	0.05
518.884	0.05
519.232	0.06
519.58	0.05
519.928	0.06
520.275	0.06
520.623	0.06
520.971	0.06
521.319	0.06
521.666	0.06
522.014	0.06
522.362	0.06
522.709	0.05
523.057	0.05
523.404	0.06
523.752	0.06
524.099	0.06
524.446	0.06
524.794	0.06
525.141	0.07
525.488	0.06
525.835	0.06
526.182	0.06
526.529	0.06
526.876	0.06
527.223	0.07
527.57	0.07
527.917	0.07
528.264	0.07
528.611	0.07
528.958	0.07
529.304	0.07
529.651	0.07
529.998	0.07
530.344	0.07
530.691	0.07
531.037	0.07
531.384	0.07
531.73	0.07
532.076	0.07
532.423	0.07
532.769	0.07
533.115	0.07
533.461	0.07
533.807	0.07
534.154	0.08
534.5	0.08
534.846	0.08
535.192	0.08
535.537	0.08
535.883	0.08
536.229	0.08
536.575	0.09
536.921	0.08
537.266	0.08
537.612	0.08
537.957	0.09
538.303	0.09
538.649	0.09
538.994	0.08
539.339	0.09
539.685	0.09
540.03	0.09
540.375	0.08
540.721	0.09
541.066	0.09
541.411	0.09
541.756	0.09
542.101	0.09
542.446	0.09
542.791	0.1
543.136	0.09
543.481	0.1
543.825	0.1
544.17	0.1
544.515	0.09
544.86	0.09
545.204	0.09
545.549	0.1
545.893	0.1
546.238	0.1
546.582	0.1
546.927	0.1
547.271	0.1
547.615	0.1
547.96	0.1
548.304	0.11
548.648	0.1
548.992	0.11
549.336	0.11
549.68	0.11
550.024	0.11
550.368	0.11
550.712	0.11
551.056	0.11
551.4	0.11
551.743	0.11
552.087	0.11
552.431	0.11
552.774	0.12
553.118	0.12
553.462	0.11
553.805	0.12
554.148	0.12
554.492	0.12
554.835	0.11
555.178	0.12
555.522	0.12
555.865	0.12
556.208	0.12
556.551	0.12
556.894	0.12
557.237	0.12
557.58	0.12
557.923	0.11
558.266	0.12
558.609	0.13
558.952	0.12
559.294	0.12
559.637	0.12
559.98	0.12
560.322	0.12
560.665	0.12
561.007	0.13
561.35	0.12
561.692	0.13
562.034	0.13
562.377	0.13
562.719	0.13
563.061	0.13
563.403	0.13
563.745	0.13
564.088	0.13
564.43	0.13
564.772	0.12
565.113	0.12
565.455	0.13
565.797	0.13
566.139	0.13
566.481	0.13
566.822	0.13
567.164	0.13
567.506	0.12
567.847	0.13
568.189	0.13
568.53	0.13
568.872	0.13
569.213	0.13
569.554	0.13
569.895	0.13
570.237	0.14
570.578	0.13
570.919	0.14
571.26	0.13
571.601	0.13
571.942	0.13
572.283	0.13
572.624	0.13
572.965	0.13
573.306	0.14
573.646	0.14
573.987	0.13
574.328	0.13
574.668	0.13
575.009	0.13
575.349	0.13
575.69	0.13
576.03	0.13
576.37	0.13
576.711	0.13
577.051	0.13
577.391	0.13
577.731	0.14
578.072	0.14
578.412	0.14
578.752	0.14
579.092	0.13
579.431	0.13
579.771	0.13
580.111	0.13
580.451	0.13
580.791	0.13
581.13	0.13
581.47	0.13
581.81	0.14
582.149	0.14
582.489	0.14
582.828	0.13
583.167	0.14
583.507	0.13
583.846	0.13
584.185	0.13
584.525	0.14
584.864	0.13
585.203	0.14
585.542	0.14
585.881	0.14
586.22	0.14
586.559	0.14
586.898	0.14
587.236	0.14
587.575	0.14
587.914	0.14
588.252	0.14
588.591	0.14
588.93	0.14
589.268	0.14
589.607	0.14
589.945	0.14
590.283	0.14
590.622	0.14
590.96	0.15
591.298	0.15
591.636	0.15
591.974	0.15
592.313	0.15
592.651	0.15
592.989	0.15
593.326	0.15
593.664	0.15
594.002	0.16
594.34	0.16
594.678	0.16
595.015	0.16
595.353	0.15
595.691	0.16
596.028	0.16
596.366	0.16
596.703	0.16
597.04	0.16
597.378	0.16
597.715	0.16
598.052	0.16
598.389	0.16
598.726	0.17
599.064	0.17
599.401	0.17
599.738	0.17
600.074	0.17
600.411	0.17
600.748	0.17
601.085	0.17
601.422	0.16
601.758	0.17
602.095	0.16
602.432	0.16
602.768	0.17
603.105	0.16
603.441	0.17
603.777	0.16
604.114	0.17
604.45	0.17
604.786	0.17
605.122	0.17
605.459	0.17
605.795	0.17
606.131	0.17
606.467	0.17
606.803	0.17
607.139	0.17
607.474	0.17
607.81	0.17
608.146	0.17
608.482	0.17
608.817	0.17
609.153	0.16
609.488	0.16
609.824	0.16
610.159	0.16
610.495	0.16
610.83	0.16
611.165	0.16
611.5	0.16
611.836	0.16
612.171	0.16
612.506	0.16
612.841	0.16
613.176	0.16
613.511	0.16
613.845	0.16
614.18	0.16
614.515	0.16
614.85	0.16
615.184	0.16
615.519	0.16
615.854	0.16
616.188	0.15
616.523	0.15
616.857	0.16
617.191	0.15
617.526	0.15
617.86	0.15
618.194	0.15
618.528	0.15
618.862	0.15
619.196	0.16
619.53	0.15
619.864	0.15
620.198	0.15
620.532	0.15
620.866	0.15
621.2	0.15
621.533	0.15
621.867	0.15
622.201	0.15
622.534	0.15
622.868	0.15
623.201	0.14
623.534	0.14
623.868	0.14
624.201	0.14
624.534	0.14
624.868	0.14
625.201	0.14
625.534	0.14
625.867	0.14
626.2	0.14
626.533	0.14
626.865	0.14
627.198	0.14
627.531	0.14
627.864	0.14
628.196	0.14
628.529	0.14
628.862	0.14
629.194	0.14
629.527	0.14
629.859	0.14
630.191	0.13
630.524	0.13
630.856	0.13
631.188	0.13
631.52	0.13
631.852	0.12
632.184	0.12
632.516	0.12
632.848	0.12
633.18	0.12
633.512	0.12
633.844	0.12
634.175	0.12
634.507	0.12
634.839	0.12
635.17	0.12
635.502	0.12
635.833	0.12
636.165	0.11
636.496	0.11
636.827	0.11
637.159	0.11
637.49	0.11
637.821	0.11
638.152	0.11
638.483	0.11
638.814	0.11
639.145	0.11
639.476	0.11
639.807	0.11
640.137	0.11
640.468	0.1
640.799	0.1
641.129	0.1
641.46	0.1
641.791	0.1
642.121	0.1
642.451	0.1
642.782	0.1
643.112	0.09
643.442	0.09
643.773	0.09
644.103	0.1
644.433	0.1
644.763	0.09
645.093	0.09
645.423	0.09
645.753	0.09
646.082	0.09
646.412	0.09
646.742	0.09
647.072	0.09
647.401	0.09
647.731	0.09
648.06	0.09
648.39	0.09
648.719	0.09
649.048	0.09
649.378	0.09
649.707	0.09
650.036	0.09
650.365	0.09
650.694	0.09
651.023	0.09
651.352	0.09
651.681	0.09
652.01	0.08
652.339	0.08
652.668	0.08
652.996	0.08
653.325	0.08
653.654	0.08
653.982	0.08
654.311	0.08
654.639	0.08
654.967	0.08
655.296	0.09
655.624	0.08
655.952	0.08
656.28	0.08
656.609	0.08
656.937	0.09
657.265	0.08
657.593	0.09
657.92	0.02
658.248	0
658.576	0
658.904	0.06
659.231	0.08
659.559	0.08
659.887	0.09
660.214	0.09
660.542	0.09
660.869	0.08
661.196	0.08
661.524	0.09
661.851	0.09
662.178	0.09
662.505	0.09
662.832	0.09
663.159	0.09
663.486	0.09
663.813	0.09
664.14	0.09
664.467	0.09
664.794	0.09
665.12	0.09
665.447	0.09
665.774	0.08
666.1	0.08
666.427	0.08
666.753	0.08
667.079	0.08
667.406	0.08
667.732	0.08
668.058	0.08
668.384	0.08
668.71	0.08
669.036	0.08
669.362	0.08
669.688	0.08
670.014	0.08
670.34	0.07
670.666	0.08
670.991	0.08
671.317	0.08
671.643	0.08
671.968	0.07
672.294	0.08
672.619	0.08
672.945	0.08
673.27	0.07
673.595	0.08
673.92	0.08
674.246	0.08
674.571	0.07
674.896	0.07
675.221	0.07
675.546	0.07
675.87	0.07
676.195	0.07
676.52	0.07
676.845	0.07
677.169	0.07
677.494	0.07
677.819	0.07
678.143	0.07
678.468	0.07
678.792	0.07
679.116	0.06
679.44	0.07
679.765	0.07
680.089	0.06
680.413	0.06
680.737	0.06
681.061	0.06
681.385	0.06
681.709	0.06
682.033	0.06
682.356	0.06
682.68	0.06
683.004	0.06
683.327	0.06
683.651	0.06
683.974	0.06
684.298	0.06
684.621	0.06
684.944	0.05
685.268	0.05
685.591	0.06
685.914	0.05
686.237	0.06
686.56	0.05
686.883	0.05
687.206	0.05
687.529	0.05
687.852	0.05
688.175	0.05
688.497	0.05
688.82	0.05
689.142	0.05
689.465	0.05
689.787	0.05
690.11	0.05
690.432	0.05
690.755	0.05
691.077	0.05
691.399	0.05
691.721	0.05
692.043	0.05
692.365	0.05
692.687	0.05
693.009	0.05
693.331	0.04
693.653	0.04
693.974	0.04
694.296	0.04
694.618	0.04
694.939	0.04
695.261	0.04
695.582	0.04
695.904	0.04
696.225	0.04
696.546	0.04
696.868	0.04
697.189	0.04
697.51	0.04
697.831	0.04
698.152	0.04
698.473	0.04
698.794	0.04
699.114	0.04
699.435	0.03
699.756	0.04
700.077	0.03
700.397	0.03
700.718	0.03
701.038	0.03
701.359	0.03
701.679	0.03
701.999	0.03
702.32	0.03
702.64	0.03
702.96	0.03
703.28	0.03
703.6	0.03
703.92	0.03
704.24	0.03
704.56	0.03
704.879	0.03
705.199	0.03
705.519	0.03
705.838	0.03
706.158	0.03
706.478	0.03
706.797	0.03
707.116	0.03
707.436	0.03
707.755	0.03
708.074	0.02
708.393	0.02
708.712	0.02
709.031	0.02
709.35	0.03
709.669	0.03
709.988	0.03
710.307	0.03
710.626	0.03
710.944	0.03
711.263	0.03
711.582	0.03
711.9	0.03
712.219	0.04
712.537	0.03
712.855	0.03
713.174	0.04
713.492	0.03
713.81	0.03
714.128	0.04
714.446	0.04
714.764	0.03
715.082	0.03
715.4	0.03
715.718	0.03
716.035	0.03
716.353	0.03
716.671	0.03
716.988	0.03
717.306	0.03
717.623	0.03
717.941	0.03
718.258	0.03
718.575	0.03
718.893	0.03
719.21	0.03
719.527	0.03
719.844	0.03
720.161	0.03
720.478	0.03
720.795	0.03
721.112	0.03
721.428	0.03
721.745	0.03
722.062	0.02
722.378	0.02
722.695	0.02
723.011	0.03
723.328	0.03
723.644	0.03
723.96	0.03
724.276	0.03
724.593	0.03
724.909	0.03
725.225	0.03
725.541	0.03
725.857	0.03
726.173	0.03
726.488	0.03
726.804	0.03
727.12	0.03
727.435	0.04
727.751	0.03
728.067	0.04
728.382	0.03
728.697	0.03
729.013	0.04
729.328	0.03
729.643	0.03
729.958	0.04
730.273	0.03
730.588	0.03
730.903	0.03
731.218	0.03
731.533	0.03
731.848	0.03
732.163	0.03
732.477	0.03
732.792	0.03
733.107	0.03
733.421	0.03
733.736	0.03
734.05	0.03
734.364	0.03
734.678	0.03
734.993	0.03
735.307	0.03
735.621	0.04
735.935	0.04
736.249	0.03
736.563	0.03
736.877	0.03
737.19	0.04
737.504	0.03
737.818	0.03
738.131	0.03
738.445	0.03
738.758	0.03
739.072	0.02
739.385	0.03
739.698	0.03
740.012	0.03
740.325	0.03
740.638	0.03
740.951	0.03
741.264	0.03
741.577	0.03
741.89	0.03
742.203	0.03
742.515	0.03
742.828	0.03
743.141	0.03
743.453	0.03
743.766	0.03
744.078	0.03
744.391	0.03
744.703	0.03
745.015	0.03
745.327	0.03
745.639	0.03
745.952	0.02
746.264	0.02
746.575	0.03
746.887	0.03
747.199	0.03
747.511	0.03
747.823	0.02
748.134	0.03
748.446	0.03
748.757	0.03
749.069	0.03
749.38	0.03
749.692	0.02
750.003	0.02
750.314	0.02
750.625	0.02
750.936	0.02
751.248	0.02
751.559	0.02
751.869	0.02
752.18	0.03
752.491	0.02
752.802	0.03
753.112	0.02
753.423	0.02
753.734	0.02
754.044	0.03
754.355	0.02
754.665	0.02
754.975	0.02
755.285	0.02
755.596	0.02
755.906	0.01
756.216	0.01
756.526	0.01
756.836	0.01
757.146	0.01
757.455	0.01
757.765	0.01
758.075	0.01
758.385	0.01
758.694	0.01
759.004	0.01
759.313	0.01
759.622	0.01
759.932	0.01
760.241	0.01
760.55	0.01
760.859	0.01
761.168	0.01
761.477	0.01
761.786	0.01
762.095	0.01
762.404	0.01
762.713	0.01
763.021	0.02
763.33	0.02
763.639	0.01
763.947	0.01
764.256	0.01
764.564	0.01
764.872	0.01
765.181	0.01
765.489	0.01
765.797	0.01
766.105	0.01
766.413	0.01
766.721	0.01
767.029	0.01
767.337	0.01
767.644	0.01
767.952	0.01
768.26	0.01
768.567	0.01
768.875	0.01
769.182	0.01
769.49	0
769.797	0.01
770.104	0.01
770.411	0
770.718	0.01
771.026	0.01
771.333	0
771.639	0
771.946	0
772.253	0
772.56	0
772.867	0
773.173	0
773.48	0.01
773.786	0
774.093	0.01
774.399	0
774.705	0
775.012	0
775.318	0
775.624	0
775.93	0
776.236	-0
776.542	0
776.848	0
777.154	-0
777.459	0
777.765	0
778.071	-0
778.376	-0
778.682	-0
778.987	-0
779.292	-0
779.598	0
779.903	0
780.208	0
780.513	0.01
780.818	0.01
781.123	0.01
781.428	0.01
781.733	0.01
782.038	0.01
782.343	0.01
782.647	0.01
782.952	0
783.256	0
783.561	0
783.865	0
784.17	0
784.474	0.01
784.778	0
785.082	0.01
785.386	0
785.69	0
785.994	-0
786.298	0
786.602	0
786.906	0
787.209	0.01
787.513	0
787.817	0
788.12	0
788.424	0.01
788.727	0.01
789.03	0.01
789.333	0.01
789.637	0.01
789.94	0.01
790.243	0.01
790.546	0.01
790.849	0.01
791.152	0.01
791.454	0.01
791.757	0.01
792.06	0.01
792.362	0.01
792.665	0.01
792.967	0.01
793.27	0
793.572	0
793.874	0
794.177	-0
794.479	-0
794.781	-0
795.083	-0
795.385	-0
795.687	-0
795.989	-0
796.29	-0
796.592	-0.01
796.894	0
797.195	0
797.497	-0
797.798	-0
798.1	-0.01
798.401	-0.01
798.702	-0.01
799.003	-0
799.304	-0
799.605	-0
799.906	-0
800.207	-0
800.508	-0
800.809	0
801.11	-0
801.41	-0
801.711	-0
802.011	-0
802.312	0
802.612	0
802.913	0.01
803.213	0.01
803.513	-0
803.813	0
804.113	0
804.413	0
804.713	0
805.013	0
805.313	0
805.613	0
805.912	0
806.212	0
806.511	0
806.811	-0.01
807.11	-0
807.41	0
807.709	-0
808.008	-0
808.307	-0
808.606	-0
808.905	-0
809.204	-0
809.503	-0.01
809.802	-0
810.101	-0
810.399	0
810.698	0
810.997	-0.01
811.295	-0
811.593	0
811.892	-0
812.19	-0
812.488	-0.01
812.786	-0
813.084	-0
813.383	-0
813.68	-0.01
813.978	-0.01
814.276	-0
814.574	-0
814.872	-0.01
815.169	-0.01
815.467	-0.01
815.764	-0.01
816.062	-0
816.359	-0.01
816.656	0
816.954	0
817.251	0.01
817.548	0
817.845	0
818.142	-0
818.439	-0
818.735	-0.01
819.032	-0.01
819.329	-0
819.626	-0.01
819.922	-0.01
820.219	-0
820.515	-0.01
820.811	-0.01
821.108	-0.01
821.404	-0.01
821.7	-0.01
821.996	-0.02
822.292	-0.01
822.588	-0.01
822.884	-0.01
823.18	-0.01
823.475	-0
823.771	0
824.067	-0.01
824.362	0.01
824.658	0
824.953	0
825.249	0.01
825.544	0.01
825.839	0.01
826.134	0
826.429	0.01
826.724	0.01
827.019	0
827.314	-0.01
827.609	-0.02
827.904	-0
828.198	-0.01
828.493	-0
828.787	-0
829.082	0
829.376	-0.01
829.671	-0.01
829.965	-0
830.259	-0
830.553	0
830.847	0
831.141	0
831.435	-0.01
831.729	-0
832.023	0
832.317	-0.01
832.61	-0.01
832.904	-0.01
833.197	-0
833.491	0.01
833.784	-0
834.077	0
834.371	0
834.664	-0.01
834.957	-0
835.25	-0.01
835.543	-0
835.836	-0
836.129	-0.01
836.421	-0.01
836.714	-0.01
837.007	-0.02
837.299	-0.01
837.592	-0
837.884	-0
838.177	-0
838.469	-0
838.761	0.01
839.053	-0.01
839.345	-0.01
839.637	-0.01
839.929	-0
840.221	-0
840.513	-0
840.805	0
841.096	0
841.388	-0
841.68	0.01
841.971	-0
842.262	-0.01
842.554	0
842.845	0
843.136	0
843.427	0
843.718	0
844.009	0
844.3	0.01
844.591	-0.01
844.882	-0
845.173	-0.01
845.463	-0
845.754	0
846.044	-0.01
846.335	-0.01
846.625	-0.02
846.915	-0.01
847.206	-0.01
847.496	-0
847.786	-0.01
848.076	-0.01
848.366	-0.01
848.656	-0.01
848.945	0
849.235	-0.01
849.525	-0.02
849.814	0
850.104	-0.01
850.393	-0.01
850.683	-0
850.972	-0
851.261	-0
851.551	0.01
851.84	-0.01
852.129	-0
852.418	0
852.707	-0.01
852.995	-0.01
853.284	0.01
853.573	0.01
853.862	-0.01
854.15	-0.01
854.439	-0.01
854.727	-0.01
855.015	-0.02
855.304	-0.02
855.592	-0.01
855.88	-0.01
856.168	-0.01
856.456	-0.01
856.744	-0.01
857.032	-0.02
857.32	-0.02
857.607	-0.01
857.895	-0.03
858.183	-0.01
858.47	-0.01
858.757	-0.03
859.045	-0.02
859.332	-0.02
859.619	-0.01
859.907	-0.01
860.194	-0.03
860.481	-0.02
860.768	-0.02
861.054	-0.04
861.341	-0.01
861.628	-0.02
861.915	-0.02
862.201	-0.02
862.488	0
862.774	-0.02
863.061	-0.01
863.347	-0.01
863.633	-0.01
863.919	0.03
864.205	0
864.491	-0
864.777	-0
865.063	0
865.349	-0.01
865.635	-0.01
865.92	-0.06
866.206	-0.01
866.492	-0.03
866.777	-0.01
867.062	-0.05
867.348	-0
867.633	0.02
867.918	-0
868.203	0.01
868.488	0.04
868.773	-0.01
869.058	-0.03
869.343	0
869.628	-0.08
869.912	0.01
870.197	0.02
870.482	-0.04
870.766	-0.02
871.05	0.04
871.335	-0.01
871.619	0
871.903	-0.02
872.187	-0.06
872.471	-0.01
872.755	0.02
873.039	0
873.323	-0.03
873.607	-0.06
873.89	0.02
874.174	0.07
874.458	0.03
874.741	0.04
875.024	0.01
875.308	-0.02
875.591	0.09
875.874	0.02
876.157	-0.02
876.44	-0.05
876.723	0.02
877.006	-0.06
877.289	-0.01
877.572	-0.05
877.854	0.01
878.137	0.09
878.42	0
878.702	-0.08
878.984	-0
879.267	0.1
879.549	-0.08
879.831	-0.13
880.113	0.03
880.395	-0.03
880.677	-0.01
880.959	0.07
