Data from Rubpy_EV_1200_EDTA_Absorbance_12-51-38-635.txt Node
Date: Mon Jun 29 12:51:38 BST 2026
User: fpm-admin
Spectrometer: OFX00224
Trigger mode: 0
Integration Time (sec): 7.000000E-2
Scans to average: 3
Nonlinearity correction enabled: false
Boxcar width: 0
Storing dark spectrum: false
XAxis mode: Wavelengths
Number of Pixels in Spectrum: 2136
>>>>>Begin Spectral Data<<<<<
154.91	0.32
155.289	0.32
155.669	0.45
156.048	-0
156.428	-0
156.807	0.07
157.186	0.58
157.566	-0
157.945	-0
158.325	-0.05
158.704	-0.06
159.083	-0
159.462	0.3
159.842	-0
160.221	-0
160.6	-0
160.979	-0.92
161.359	-0.41
161.738	-0.48
162.117	-0.48
162.496	-0.46
162.875	0.32
163.254	-0.37
163.633	0.75
164.012	-0
164.391	0.1
164.77	-0.3
165.149	-0
165.528	0.15
165.907	-0.36
166.286	-0.3
166.665	-0.05
167.044	-0.07
167.423	-0
167.802	0.54
168.181	-0
168.559	-0.6
168.938	0.06
169.317	-0
169.696	-0
170.074	0.43
170.453	1.18
170.832	0.19
171.21	-0.32
171.589	-0.1
171.968	-0.26
172.346	-0
172.725	0.35
173.103	-0
173.482	-0
173.861	-0
174.239	0.58
174.617	-0
174.996	-0
175.374	0.2
175.753	0.06
176.131	-0
176.51	-0.08
176.888	0.08
177.266	-0
177.645	0.05
178.023	-0.16
178.401	-0.04
178.779	0.09
179.158	-0.27
179.536	-0.12
179.914	1.06
180.292	1.32
180.67	-0
181.048	-0.06
181.427	-0
181.805	-0.88
182.183	-0.11
182.561	-0.46
182.939	-0.27
183.317	-0.89
183.695	-0
184.073	-0.56
184.451	-1.13
184.829	-0.19
185.206	-0.01
185.584	-0.15
185.962	-0.62
186.34	-0
186.718	-0.21
187.096	-0.9
187.473	-0
187.851	-0
188.229	-0.34
188.607	-0.02
188.984	0.04
189.362	0.03
189.74	0.1
190.117	-0.03
190.495	0.12
190.872	0.04
191.25	0.2
191.627	0.1
192.005	0.17
192.382	0.08
192.76	0.14
193.137	0.08
193.515	0.19
193.892	0.27
194.269	0.07
194.647	-0
195.024	0.07
195.401	0.05
195.779	0.07
196.156	0.18
196.533	0.05
196.91	-0.14
197.288	0.05
197.665	0.06
198.042	0.1
198.419	0.05
198.796	0.1
199.173	0.06
199.55	0.03
199.927	0.08
200.304	0.14
200.681	0.09
201.058	0.15
201.435	0.15
201.812	0.21
202.189	-0
202.566	0.12
202.943	0.07
203.32	0.06
203.697	0.07
204.073	0.07
204.45	0.12
204.827	0.14
205.204	0.14
205.58	-0.06
205.957	0.09
206.334	-0.09
206.71	0.12
207.087	0.01
207.464	0.16
207.84	0.06
208.217	0.14
208.593	0.12
208.97	0.05
209.346	0.09
209.723	0.05
210.099	0.15
210.476	0.05
210.852	-0.05
211.228	-0.04
211.605	0.16
211.981	0.07
212.357	0.05
212.733	0.18
213.11	0.16
213.486	-0
213.862	0.11
214.238	0.14
214.614	0.11
214.991	-0.1
215.367	0.1
215.743	0.24
216.119	0.19
216.495	0.15
216.871	0.13
217.247	0.11
217.623	0.1
217.999	0.11
218.375	0.26
218.751	0.14
219.127	-0.03
219.502	0.22
219.878	0.08
220.254	0.01
220.63	0.2
221.006	0.12
221.381	0.09
221.757	0.15
222.133	0.2
222.508	0.16
222.884	0.06
223.26	0.18
223.635	0.07
224.011	0.07
224.386	0.18
224.762	0.06
225.137	0.13
225.513	0.22
225.888	0.11
226.264	0.08
226.639	0.17
227.014	0.09
227.39	0.11
227.765	0.22
228.14	0.17
228.516	0.3
228.891	0.16
229.266	0.27
229.641	-0.05
230.017	0.15
230.392	0.04
230.767	0.12
231.142	0.14
231.517	0.18
231.892	0.23
232.267	0.19
232.642	-0
233.017	0.11
233.392	0.1
233.767	0.23
234.142	0.07
234.517	0.22
234.892	0.08
235.267	0.12
235.641	0.16
236.016	0.11
236.391	0.1
236.766	0.1
237.14	-0.01
237.515	0.2
237.89	0.19
238.264	0.17
238.639	0.06
239.014	0.15
239.388	0.14
239.763	0.18
240.137	0.16
240.512	0.12
240.886	0.05
241.261	0.19
241.635	0.12
242.009	0.22
242.384	0.1
242.758	0.02
243.132	0.02
243.507	0.17
243.881	0.13
244.255	0.13
244.629	0.15
245.004	0.05
245.378	0.18
245.752	0.13
246.126	0.19
246.5	0.18
246.874	0.12
247.248	0.08
247.622	-0.01
247.996	0.17
248.37	0.06
248.744	0.11
249.118	0.13
249.492	0.23
249.866	0.15
250.24	0.11
250.613	-0.01
250.987	0.26
251.361	0.18
251.735	0.06
252.108	0.14
252.482	0.19
252.856	0.17
253.229	0.03
253.603	0.11
253.977	0.1
254.35	0.19
254.724	0.14
255.097	0.13
255.471	0.24
255.844	0.14
256.218	0.14
256.591	0.08
256.964	0.05
257.338	0.16
257.711	0.05
258.084	0.17
258.458	0.11
258.831	0.1
259.204	0.11
259.577	0.12
259.95	0.18
260.323	0.05
260.697	0.1
261.07	0.11
261.443	0.09
261.816	0.07
262.189	0.08
262.562	0.08
262.935	0.09
263.308	0.1
263.68	0.1
264.053	0.06
264.426	0.11
264.799	0.19
265.172	0.14
265.545	0.03
265.917	0.16
266.29	0.06
266.663	0.12
267.035	0.16
267.408	0.03
267.781	0.18
268.153	0.24
268.526	0.2
268.898	0.15
269.271	0.11
269.643	0.04
270.016	0.13
270.388	0.1
270.76	0.11
271.133	0.08
271.505	0.07
271.877	0
272.25	0.13
272.622	0.14
272.994	0.11
273.366	0.14
273.739	0.08
274.111	0.12
274.483	0.01
274.855	0.1
275.227	0.08
275.599	0.21
275.971	0.07
276.343	0.13
276.715	0.14
277.087	0.16
277.459	0.22
277.831	0.12
278.203	0.1
278.574	0.1
278.946	0.16
279.318	0.2
279.69	0.14
280.061	0.12
280.433	0.17
280.805	0.06
281.176	0.19
281.548	0.07
281.92	0.13
282.291	0.13
282.663	0.12
283.034	0.15
283.406	0.04
283.777	0.07
284.148	0.19
284.52	0.15
284.891	0.2
285.262	0.16
285.634	0.16
286.005	0.13
286.376	0.2
286.747	0.12
287.119	0.15
287.49	0.07
287.861	0.1
288.232	0.1
288.603	0.16
288.974	0.08
289.345	0.12
289.716	0.09
290.087	0.12
290.458	-0
290.829	0.13
291.2	0.07
291.571	0.09
291.941	0.11
292.312	0.12
292.683	0.11
293.054	0.1
293.424	0.05
293.795	0.13
294.166	0.14
294.536	0.11
294.907	0.1
295.277	0.1
295.648	0.12
296.018	0.1
296.389	0.13
296.759	0.13
297.13	0.13
297.5	0.08
297.871	0.1
298.241	0.08
298.611	0.1
298.981	0.08
299.352	0.11
299.722	0.09
300.092	0.07
300.462	0.08
300.832	0.06
301.202	0.08
301.573	0.05
301.943	0.09
302.313	0.06
302.683	0.07
303.053	0.07
303.422	0.07
303.792	0.07
304.162	0.06
304.532	0.06
304.902	0.06
305.272	0.08
305.641	0.07
306.011	0.07
306.381	0.08
306.75	0.07
307.12	0.08
307.49	0.07
307.859	0.09
308.229	0.07
308.598	0.09
308.968	0.08
309.337	0.08
309.707	0.09
310.076	0.09
310.445	0.09
310.815	0.08
311.184	0.09
311.553	0.08
311.923	0.09
312.292	0.09
312.661	0.1
313.03	0.09
313.399	0.09
313.768	0.1
314.137	0.09
314.506	0.1
314.875	0.09
315.244	0.09
315.613	0.09
315.982	0.09
316.351	0.09
316.72	0.09
317.089	0.09
317.458	0.09
317.826	0.08
318.195	0.08
318.564	0.08
318.933	0.09
319.301	0.08
319.67	0.09
320.038	0.08
320.407	0.09
320.775	0.07
321.144	0.08
321.512	0.07
321.881	0.07
322.249	0.08
322.618	0.08
322.986	0.08
323.354	0.07
323.723	0.07
324.091	0.08
324.459	0.07
324.827	0.07
325.195	0.07
325.564	0.07
325.932	0.07
326.3	0.06
326.668	0.07
327.036	0.07
327.404	0.07
327.772	0.07
328.14	0.07
328.508	0.07
328.875	0.07
329.243	0.07
329.611	0.07
329.979	0.07
330.346	0.07
330.714	0.07
331.082	0.07
331.449	0.07
331.817	0.07
332.185	0.07
332.552	0.08
332.92	0.07
333.287	0.07
333.655	0.08
334.022	0.07
334.389	0.07
334.757	0.07
335.124	0.08
335.491	0.08
335.859	0.08
336.226	0.08
336.593	0.08
336.96	0.08
337.327	0.08
337.695	0.08
338.062	0.08
338.429	0.09
338.796	0.08
339.163	0.09
339.53	0.09
339.897	0.09
340.263	0.09
340.63	0.09
340.997	0.09
341.364	0.09
341.731	0.1
342.097	0.09
342.464	0.1
342.831	0.1
343.197	0.1
343.564	0.1
343.931	0.1
344.297	0.11
344.664	0.11
345.03	0.11
345.396	0.11
345.763	0.11
346.129	0.12
346.496	0.12
346.862	0.12
347.228	0.12
347.594	0.12
347.961	0.13
348.327	0.13
348.693	0.13
349.059	0.13
349.425	0.13
349.791	0.13
350.157	0.14
350.523	0.14
350.889	0.14
351.255	0.14
351.621	0.15
351.987	0.15
352.353	0.16
352.719	0.16
353.084	0.16
353.45	0.17
353.816	0.17
354.181	0.17
354.547	0.17
354.913	0.18
355.278	0.18
355.644	0.19
356.009	0.19
356.375	0.19
356.74	0.2
357.106	0.21
357.471	0.21
357.836	0.21
358.202	0.21
358.567	0.22
358.932	0.23
359.297	0.23
359.663	0.24
360.028	0.24
360.393	0.24
360.758	0.25
361.123	0.25
361.488	0.25
361.853	0.25
362.218	0.26
362.583	0.26
362.948	0.26
363.312	0.26
363.677	0.27
364.042	0.27
364.407	0.28
364.772	0.29
365.136	0.29
365.501	0.3
365.865	0.31
366.23	0.31
366.595	0.32
366.959	0.33
367.324	0.33
367.688	0.34
368.052	0.35
368.417	0.35
368.781	0.36
369.145	0.36
369.51	0.37
369.874	0.36
370.238	0.36
370.602	0.36
370.967	0.37
371.331	0.36
371.695	0.37
372.059	0.36
372.423	0.37
372.787	0.36
373.151	0.36
373.515	0.36
373.878	0.36
374.242	0.36
374.606	0.36
374.97	0.36
375.334	0.36
375.697	0.36
376.061	0.37
376.425	0.37
376.788	0.37
377.152	0.37
377.515	0.38
377.879	0.38
378.242	0.38
378.606	0.39
378.969	0.4
379.333	0.4
379.696	0.41
380.059	0.42
380.422	0.42
380.786	0.43
381.149	0.44
381.512	0.45
381.875	0.46
382.238	0.46
382.601	0.48
382.964	0.49
383.327	0.51
383.69	0.52
384.053	0.54
384.416	0.55
384.779	0.56
385.142	0.57
385.504	0.58
385.867	0.59
386.23	0.6
386.593	0.61
386.955	0.6
387.318	0.61
387.68	0.6
388.043	0.6
388.405	0.6
388.768	0.59
389.13	0.59
389.493	0.58
389.855	0.58
390.217	0.58
390.58	0.57
390.942	0.58
391.304	0.59
391.666	0.59
392.028	0.6
392.391	0.62
392.753	0.63
393.115	0.65
393.477	0.68
393.839	0.7
394.201	0.74
394.563	0.76
394.924	0.79
395.286	0.82
395.648	0.85
396.01	0.88
396.371	0.9
396.733	0.92
397.095	0.94
397.456	0.95
397.818	0.94
398.18	0.93
398.541	0.92
398.903	0.91
399.264	0.87
399.625	0.84
399.987	0.81
400.348	0.78
400.709	0.73
401.071	0.69
401.432	0.65
401.793	0.61
402.154	0.57
402.515	0.54
402.876	0.49
403.238	0.46
403.599	0.43
403.96	0.4
404.32	0.36
404.681	0.34
405.042	0.32
405.403	0.29
405.764	0.27
406.125	0.25
406.485	0.23
406.846	0.22
407.207	0.21
407.567	0.19
407.928	0.19
408.288	0.18
408.649	0.16
409.009	0.15
409.37	0.15
409.73	0.14
410.091	0.13
410.451	0.13
410.811	0.12
411.171	0.12
411.532	0.11
411.892	0.11
412.252	0.1
412.612	0.1
412.972	0.09
413.332	0.09
413.692	0.09
414.052	0.09
414.412	0.08
414.772	0.08
415.132	0.08
415.492	0.07
415.851	0.07
416.211	0.07
416.571	0.07
416.931	0.07
417.29	0.07
417.65	0.06
418.009	0.07
418.369	0.06
418.728	0.06
419.088	0.06
419.447	0.06
419.807	0.06
420.166	0.05
420.525	0.05
420.884	0.05
421.244	0.05
421.603	0.05
421.962	0.05
422.321	0.05
422.68	0.05
423.039	0.05
423.398	0.04
423.757	0.05
424.116	0.04
424.475	0.05
424.834	0.04
425.193	0.04
425.551	0.04
425.91	0.04
426.269	0.04
426.628	0.04
426.986	0.04
427.345	0.04
427.703	0.04
428.062	0.04
428.42	0.04
428.779	0.03
429.137	0.04
429.496	0.04
429.854	0.03
430.212	0.04
430.57	0.04
430.929	0.04
431.287	0.04
431.645	0.04
432.003	0.03
432.361	0.03
432.719	0.03
433.077	0.03
433.435	0.03
433.793	0.03
434.151	0.03
434.509	0.04
434.866	0.03
435.224	0.03
435.582	0.03
435.94	0.02
436.297	0.04
436.655	0.04
437.012	0.03
437.37	0.03
437.727	0.03
438.085	0.02
438.442	0.04
438.8	0.03
439.157	0.04
439.514	0.03
439.872	0.03
440.229	0.03
440.586	0.03
440.943	0.03
441.3	0.03
441.657	0.02
442.014	0.02
442.371	0.03
442.728	0.03
443.085	0.03
443.442	0.02
443.799	0.03
444.156	0.02
444.513	0.03
444.869	0.03
445.226	0.02
445.583	0.02
445.939	0.02
446.296	0.02
446.652	0.02
447.009	0.02
447.365	0.02
447.722	0.02
448.078	0.02
448.434	0.02
448.791	0.02
449.147	0.02
449.503	0.03
449.859	0.02
450.215	0.02
450.571	0.02
450.928	0.02
451.284	0.03
451.64	0.02
451.995	0.01
452.351	0.02
452.707	0.02
453.063	0.02
453.419	0.02
453.775	0.02
454.13	0.01
454.486	0.01
454.842	0.01
455.197	0.02
455.553	0.02
455.908	0.02
456.264	0.01
456.619	0.02
456.975	0.02
457.33	0.01
457.685	0.02
458.04	0.01
458.396	0.01
458.751	0.01
459.106	0.02
459.461	0.02
459.816	0.02
460.171	0.01
460.526	0.01
460.881	0.01
461.236	0.01
461.591	0
461.946	0.01
462.301	0.01
462.655	0.01
463.01	0.01
463.365	0.01
463.719	0.01
464.074	0.01
464.428	0.01
464.783	0.01
465.137	0.01
465.492	-0
465.846	-0
466.201	0.01
466.555	0.01
466.909	0
467.263	0.01
467.618	0
467.972	-0
468.326	0.01
468.68	0
469.034	0
469.388	0
469.742	-0.01
470.096	0.01
470.45	0
470.804	-0.01
471.157	0.01
471.511	-0
471.865	0
472.218	0.01
472.572	0.01
472.926	-0
473.279	0
473.633	0
473.986	0
474.34	0.01
474.693	0.01
475.046	0.01
475.4	0.01
475.753	0.01
476.106	0.01
476.459	0.01
476.812	0.01
477.165	0.02
477.519	0.01
477.872	0.01
478.224	0.02
478.577	0.02
478.93	0.02
479.283	0.02
479.636	0.02
479.989	0.02
480.341	0.02
480.694	0.02
481.047	0.02
481.399	0.02
481.752	0.02
482.104	0.02
482.457	0.02
482.809	0.03
483.162	0.03
483.514	0.02
483.866	0.02
484.219	0.02
484.571	0.03
484.923	0.03
485.275	0.03
485.627	0.03
485.979	0.03
486.331	0.03
486.683	0.03
487.035	0.03
487.387	0.03
487.739	0.03
488.091	0.04
488.443	0.03
488.794	0.03
489.146	0.04
489.498	0.04
489.849	0.03
490.201	0.04
490.552	0.04
490.904	0.04
491.255	0.04
491.607	0.04
491.958	0.04
492.309	0.04
492.661	0.04
493.012	0.05
493.363	0.04
493.714	0.04
494.065	0.04
494.416	0.04
494.767	0.05
495.118	0.04
495.469	0.05
495.82	0.05
496.171	0.05
496.522	0.04
496.872	0.04
497.223	0.05
497.574	0.04
497.924	0.05
498.275	0.05
498.626	0.05
498.976	0.05
499.327	0.05
499.677	0.05
500.027	0.05
500.378	0.05
500.728	0.06
501.078	0.06
501.428	0.06
501.779	0.06
502.129	0.06
502.479	0.06
502.829	0.06
503.179	0.06
503.529	0.06
503.879	0.06
504.229	0.06
504.578	0.06
504.928	0.06
505.278	0.07
505.628	0.06
505.977	0.07
506.327	0.07
506.676	0.07
507.026	0.07
507.375	0.06
507.725	0.07
508.074	0.07
508.424	0.07
508.773	0.07
509.122	0.07
509.471	0.07
509.82	0.07
510.17	0.07
510.519	0.08
510.868	0.07
511.217	0.07
511.566	0.07
511.915	0.07
512.263	0.08
512.612	0.08
512.961	0.08
513.31	0.08
513.659	0.08
514.007	0.08
514.356	0.08
514.704	0.09
515.053	0.08
515.401	0.08
515.75	0.09
516.098	0.09
516.447	0.09
516.795	0.09
517.143	0.09
517.491	0.09
517.839	0.09
518.188	0.09
518.536	0.09
518.884	0.09
519.232	0.1
519.58	0.09
519.928	0.09
520.275	0.1
520.623	0.09
520.971	0.1
521.319	0.1
521.666	0.1
522.014	0.1
522.362	0.1
522.709	0.1
523.057	0.1
523.404	0.1
523.752	0.1
524.099	0.1
524.446	0.11
524.794	0.11
525.141	0.1
525.488	0.11
525.835	0.11
526.182	0.1
526.529	0.1
526.876	0.11
527.223	0.11
527.57	0.11
527.917	0.11
528.264	0.11
528.611	0.11
528.958	0.12
529.304	0.12
529.651	0.12
529.998	0.12
530.344	0.12
530.691	0.12
531.037	0.12
531.384	0.12
531.73	0.13
532.076	0.12
532.423	0.13
532.769	0.12
533.115	0.13
533.461	0.13
533.807	0.13
534.154	0.13
534.5	0.14
534.846	0.14
535.192	0.13
535.537	0.14
535.883	0.14
536.229	0.14
536.575	0.14
536.921	0.14
537.266	0.14
537.612	0.14
537.957	0.15
538.303	0.14
538.649	0.15
538.994	0.15
539.339	0.15
539.685	0.15
540.03	0.15
540.375	0.15
540.721	0.15
541.066	0.15
541.411	0.15
541.756	0.15
542.101	0.15
542.446	0.15
542.791	0.16
543.136	0.16
543.481	0.16
543.825	0.16
544.17	0.16
544.515	0.16
544.86	0.16
545.204	0.16
545.549	0.17
545.893	0.17
546.238	0.17
546.582	0.17
546.927	0.17
547.271	0.17
547.615	0.18
547.96	0.18
548.304	0.18
548.648	0.18
548.992	0.18
549.336	0.18
549.68	0.19
550.024	0.18
550.368	0.18
550.712	0.18
551.056	0.18
551.4	0.19
551.743	0.19
552.087	0.19
552.431	0.19
552.774	0.2
553.118	0.19
553.462	0.19
553.805	0.19
554.148	0.2
554.492	0.2
554.835	0.2
555.178	0.2
555.522	0.2
555.865	0.2
556.208	0.2
556.551	0.2
556.894	0.2
557.237	0.2
557.58	0.2
557.923	0.2
558.266	0.2
558.609	0.21
558.952	0.21
559.294	0.21
559.637	0.21
559.98	0.21
560.322	0.21
560.665	0.21
561.007	0.21
561.35	0.21
561.692	0.21
562.034	0.21
562.377	0.21
562.719	0.22
563.061	0.22
563.403	0.21
563.745	0.22
564.088	0.22
564.43	0.21
564.772	0.21
565.113	0.21
565.455	0.22
565.797	0.22
566.139	0.21
566.481	0.22
566.822	0.22
567.164	0.22
567.506	0.22
567.847	0.22
568.189	0.22
568.53	0.22
568.872	0.22
569.213	0.23
569.554	0.22
569.895	0.22
570.237	0.23
570.578	0.23
570.919	0.23
571.26	0.22
571.601	0.22
571.942	0.22
572.283	0.23
572.624	0.22
572.965	0.22
573.306	0.23
573.646	0.22
573.987	0.22
574.328	0.22
574.668	0.22
575.009	0.22
575.349	0.22
575.69	0.22
576.03	0.23
576.37	0.23
576.711	0.23
577.051	0.23
577.391	0.23
577.731	0.23
578.072	0.23
578.412	0.23
578.752	0.23
579.092	0.22
579.431	0.23
579.771	0.22
580.111	0.22
580.451	0.22
580.791	0.23
581.13	0.23
581.47	0.23
581.81	0.23
582.149	0.23
582.489	0.23
582.828	0.23
583.167	0.23
583.507	0.23
583.846	0.22
584.185	0.22
584.525	0.23
584.864	0.23
585.203	0.24
585.542	0.23
585.881	0.24
586.22	0.24
586.559	0.24
586.898	0.24
587.236	0.23
587.575	0.23
587.914	0.24
588.252	0.24
588.591	0.24
588.93	0.24
589.268	0.24
589.607	0.24
589.945	0.24
590.283	0.25
590.622	0.25
590.96	0.25
591.298	0.25
591.636	0.25
591.974	0.26
592.313	0.26
592.651	0.26
592.989	0.26
593.326	0.26
593.664	0.26
594.002	0.26
594.34	0.26
594.678	0.27
595.015	0.27
595.353	0.26
595.691	0.27
596.028	0.27
596.366	0.27
596.703	0.27
597.04	0.27
597.378	0.27
597.715	0.27
598.052	0.28
598.389	0.28
598.726	0.28
599.064	0.28
599.401	0.28
599.738	0.28
600.074	0.28
600.411	0.28
600.748	0.28
601.085	0.28
601.422	0.28
601.758	0.28
602.095	0.28
602.432	0.28
602.768	0.28
603.105	0.28
603.441	0.28
603.777	0.28
604.114	0.28
604.45	0.28
604.786	0.28
605.122	0.28
605.459	0.28
605.795	0.28
606.131	0.28
606.467	0.28
606.803	0.28
607.139	0.28
607.474	0.29
607.81	0.28
608.146	0.28
608.482	0.28
608.817	0.28
609.153	0.28
609.488	0.28
609.824	0.28
610.159	0.28
610.495	0.27
610.83	0.27
611.165	0.27
611.5	0.27
611.836	0.27
612.171	0.27
612.506	0.27
612.841	0.27
613.176	0.27
613.511	0.27
613.845	0.27
614.18	0.27
614.515	0.27
614.85	0.27
615.184	0.27
615.519	0.27
615.854	0.26
616.188	0.26
616.523	0.27
616.857	0.27
617.191	0.26
617.526	0.26
617.86	0.26
618.194	0.26
618.528	0.26
618.862	0.26
619.196	0.26
619.53	0.26
619.864	0.25
620.198	0.25
620.532	0.25
620.866	0.25
621.2	0.25
621.533	0.25
621.867	0.25
622.201	0.25
622.534	0.25
622.868	0.25
623.201	0.25
623.534	0.24
623.868	0.24
624.201	0.24
624.534	0.25
624.868	0.25
625.201	0.24
625.534	0.24
625.867	0.24
626.2	0.24
626.533	0.24
626.865	0.24
627.198	0.24
627.531	0.24
627.864	0.24
628.196	0.24
628.529	0.23
628.862	0.23
629.194	0.23
629.527	0.23
629.859	0.23
630.191	0.22
630.524	0.22
630.856	0.22
631.188	0.22
631.52	0.22
631.852	0.22
632.184	0.21
632.516	0.21
632.848	0.21
633.18	0.21
633.512	0.21
633.844	0.2
634.175	0.2
634.507	0.21
634.839	0.2
635.17	0.2
635.502	0.2
635.833	0.2
636.165	0.2
636.496	0.19
636.827	0.19
637.159	0.19
637.49	0.19
637.821	0.19
638.152	0.18
638.483	0.18
638.814	0.19
639.145	0.19
639.476	0.18
639.807	0.18
640.137	0.18
640.468	0.18
640.799	0.18
641.129	0.18
641.46	0.17
641.791	0.17
642.121	0.17
642.451	0.17
642.782	0.17
643.112	0.17
643.442	0.17
643.773	0.16
644.103	0.16
644.433	0.17
644.763	0.16
645.093	0.16
645.423	0.15
645.753	0.16
646.082	0.15
646.412	0.16
646.742	0.15
647.072	0.15
647.401	0.15
647.731	0.15
648.06	0.15
648.39	0.15
648.719	0.15
649.048	0.15
649.378	0.15
649.707	0.16
650.036	0.16
650.365	0.15
650.694	0.15
651.023	0.15
651.352	0.15
651.681	0.15
652.01	0.15
652.339	0.15
652.668	0.14
652.996	0.15
653.325	0.15
653.654	0.14
653.982	0.15
654.311	0.14
654.639	0.14
654.967	0.15
655.296	0.14
655.624	0.14
655.952	0.15
656.28	0.15
656.609	0.14
656.937	0.15
657.265	0.15
657.593	0.15
657.92	0.07
658.248	0.02
658.576	0.03
658.904	0.12
659.231	0.14
659.559	0.15
659.887	0.14
660.214	0.15
660.542	0.15
660.869	0.14
661.196	0.14
661.524	0.15
661.851	0.15
662.178	0.15
662.505	0.15
662.832	0.15
663.159	0.15
663.486	0.15
663.813	0.15
664.14	0.15
664.467	0.15
664.794	0.14
665.12	0.14
665.447	0.15
665.774	0.14
666.1	0.15
666.427	0.14
666.753	0.14
667.079	0.14
667.406	0.14
667.732	0.14
668.058	0.14
668.384	0.14
668.71	0.14
669.036	0.14
669.362	0.13
669.688	0.14
670.014	0.14
670.34	0.13
670.666	0.14
670.991	0.13
671.317	0.14
671.643	0.13
671.968	0.13
672.294	0.13
672.619	0.13
672.945	0.13
673.27	0.13
673.595	0.13
673.92	0.13
674.246	0.13
674.571	0.13
674.896	0.12
675.221	0.12
675.546	0.12
675.87	0.12
676.195	0.12
676.52	0.13
676.845	0.12
677.169	0.13
677.494	0.12
677.819	0.12
678.143	0.12
678.468	0.12
678.792	0.12
679.116	0.11
679.44	0.11
679.765	0.11
680.089	0.11
680.413	0.11
680.737	0.11
681.061	0.11
681.385	0.1
681.709	0.1
682.033	0.1
682.356	0.1
682.68	0.1
683.004	0.1
683.327	0.1
683.651	0.1
683.974	0.1
684.298	0.1
684.621	0.1
684.944	0.09
685.268	0.1
685.591	0.09
685.914	0.09
686.237	0.09
686.56	0.09
686.883	0.09
687.206	0.09
687.529	0.09
687.852	0.09
688.175	0.09
688.497	0.09
688.82	0.08
689.142	0.09
689.465	0.08
689.787	0.08
690.11	0.09
690.432	0.08
690.755	0.08
691.077	0.08
691.399	0.08
691.721	0.08
692.043	0.08
692.365	0.08
692.687	0.08
693.009	0.08
693.331	0.07
693.653	0.07
693.974	0.07
694.296	0.07
694.618	0.07
694.939	0.07
695.261	0.07
695.582	0.07
695.904	0.07
696.225	0.07
696.546	0.07
696.868	0.07
697.189	0.07
697.51	0.07
697.831	0.07
698.152	0.07
698.473	0.07
698.794	0.07
699.114	0.06
699.435	0.06
699.756	0.05
700.077	0.06
700.397	0.06
700.718	0.05
701.038	0.05
701.359	0.05
701.679	0.05
701.999	0.05
702.32	0.06
702.64	0.05
702.96	0.05
703.28	0.05
703.6	0.05
703.92	0.05
704.24	0.05
704.56	0.05
704.879	0.05
705.199	0.05
705.519	0.05
705.838	0.05
706.158	0.05
706.478	0.05
706.797	0.05
707.116	0.05
707.436	0.04
707.755	0.04
708.074	0.04
708.393	0.04
708.712	0.04
709.031	0.04
709.35	0.04
709.669	0.04
709.988	0.04
710.307	0.04
710.626	0.05
710.944	0.05
711.263	0.05
711.582	0.05
711.9	0.05
712.219	0.05
712.537	0.05
712.855	0.05
713.174	0.06
713.492	0.05
713.81	0.05
714.128	0.05
714.446	0.05
714.764	0.05
715.082	0.05
715.4	0.05
715.718	0.05
716.035	0.05
716.353	0.05
716.671	0.05
716.988	0.05
717.306	0.05
717.623	0.05
717.941	0.05
718.258	0.05
718.575	0.05
718.893	0.05
719.21	0.05
719.527	0.05
719.844	0.05
720.161	0.05
720.478	0.05
720.795	0.05
721.112	0.05
721.428	0.05
721.745	0.05
722.062	0.04
722.378	0.05
722.695	0.05
723.011	0.05
723.328	0.05
723.644	0.05
723.96	0.05
724.276	0.05
724.593	0.05
724.909	0.05
725.225	0.05
725.541	0.05
725.857	0.05
726.173	0.06
726.488	0.06
726.804	0.06
727.12	0.06
727.435	0.06
727.751	0.05
728.067	0.05
728.382	0.05
728.697	0.05
729.013	0.06
729.328	0.06
729.643	0.05
729.958	0.06
730.273	0.06
730.588	0.06
730.903	0.05
731.218	0.05
731.533	0.05
731.848	0.05
732.163	0.05
732.477	0.05
732.792	0.05
733.107	0.05
733.421	0.05
733.736	0.05
734.05	0.05
734.364	0.05
734.678	0.05
734.993	0.05
735.307	0.05
735.621	0.05
735.935	0.05
736.249	0.05
736.563	0.05
736.877	0.06
737.19	0.06
737.504	0.05
737.818	0.05
738.131	0.04
738.445	0.05
738.758	0.04
739.072	0.04
739.385	0.04
739.698	0.04
740.012	0.04
740.325	0.05
740.638	0.04
740.951	0.04
741.264	0.04
741.577	0.04
741.89	0.05
742.203	0.05
742.515	0.05
742.828	0.05
743.141	0.05
743.453	0.05
743.766	0.05
744.078	0.05
744.391	0.05
744.703	0.05
745.015	0.05
745.327	0.04
745.639	0.04
745.952	0.04
746.264	0.04
746.575	0.05
746.887	0.05
747.199	0.05
747.511	0.05
747.823	0.04
748.134	0.04
748.446	0.04
748.757	0.04
749.069	0.04
749.38	0.04
749.692	0.04
750.003	0.04
750.314	0.03
750.625	0.03
750.936	0.03
751.248	0.03
751.559	0.03
751.869	0.03
752.18	0.04
752.491	0.03
752.802	0.04
753.112	0.03
753.423	0.03
753.734	0.04
754.044	0.04
754.355	0.04
754.665	0.03
754.975	0.03
755.285	0.03
755.596	0.03
755.906	0.03
756.216	0.02
756.526	0.03
756.836	0.03
757.146	0.03
757.455	0.02
757.765	0.02
758.075	0.02
758.385	0.02
758.694	0.02
759.004	0.02
759.313	0.02
759.622	0.02
759.932	0.02
760.241	0.02
760.55	0.02
760.859	0.02
761.168	0.02
761.477	0.02
761.786	0.02
762.095	0.02
762.404	0.02
762.713	0.02
763.021	0.02
763.33	0.02
763.639	0.02
763.947	0.02
764.256	0.02
764.564	0.02
764.872	0.02
765.181	0.02
765.489	0.01
765.797	0.01
766.105	0.01
766.413	0.01
766.721	0.01
767.029	0.01
767.337	0.01
767.644	0.01
767.952	0.01
768.26	0.01
768.567	0.01
768.875	0.02
769.182	0.02
769.49	0.01
769.797	0.01
770.104	0.01
770.411	0.01
770.718	0.01
771.026	0.01
771.333	0.01
771.639	0.01
771.946	0.01
772.253	0.01
772.56	0
772.867	0.01
773.173	0.01
773.48	0.01
773.786	0.01
774.093	0.01
774.399	0
774.705	0.01
775.012	0.01
775.318	0
775.624	0.01
775.93	0
776.236	0
776.542	0
776.848	0
777.154	-0
777.459	-0
777.765	0
778.071	0
778.376	0
778.682	-0
778.987	0
779.292	0
779.598	0
779.903	-0
780.208	-0
780.513	0.01
780.818	0.01
781.123	0.01
781.428	0.01
781.733	0.01
782.038	0.01
782.343	0.01
782.647	0
782.952	0
783.256	0
783.561	0
783.865	0.01
784.17	0.01
784.474	0.01
784.778	0
785.082	0
785.386	0
785.69	-0
785.994	-0
786.298	0
786.602	0.01
786.906	0.01
787.209	0.01
787.513	0.01
787.817	0.01
788.12	0.01
788.424	0.01
788.727	0.01
789.03	0.01
789.333	0.01
789.637	0.01
789.94	0.01
790.243	0.01
790.546	0.01
790.849	0.01
791.152	0.01
791.454	0.01
791.757	0.01
792.06	0.01
792.362	0.01
792.665	0.01
792.967	0.01
793.27	0
793.572	0
793.874	0
794.177	-0.01
794.479	-0
794.781	-0
795.083	-0
795.385	-0
795.687	0
795.989	0
796.29	0
796.592	-0
796.894	0
797.195	0
797.497	0
797.798	-0.01
798.1	-0
798.401	-0.01
798.702	-0.01
799.003	-0.01
799.304	-0.01
799.605	-0
799.906	-0
800.207	-0
800.508	-0
800.809	0
801.11	-0
801.41	0
801.711	-0
802.011	-0
802.312	0
802.612	0.01
802.913	0.01
803.213	0.01
803.513	0.01
803.813	0.01
804.113	0.01
804.413	0
804.713	0
805.013	-0
805.313	-0
805.613	-0
805.912	-0
806.212	-0
806.511	0
806.811	-0.01
807.11	-0
807.41	0
807.709	-0
808.008	-0
808.307	-0.01
808.606	-0
808.905	-0.01
809.204	-0.01
809.503	-0.01
809.802	-0
810.101	-0
810.399	-0.01
810.698	-0
810.997	-0.01
811.295	-0.01
811.593	-0
811.892	-0.01
812.19	-0.01
812.488	-0.01
812.786	-0.01
813.084	-0.01
813.383	-0.01
813.68	-0.01
813.978	-0.01
814.276	-0.01
814.574	-0.01
814.872	-0.01
815.169	-0.01
815.467	-0.01
815.764	-0
816.062	-0
816.359	-0
816.656	0
816.954	-0
817.251	0
817.548	-0
817.845	-0
818.142	-0
818.439	-0
818.735	-0.01
819.032	-0
819.329	-0
819.626	-0.01
819.922	-0
820.219	-0.01
820.515	-0.01
820.811	-0.01
821.108	-0.01
821.404	-0
821.7	0
821.996	-0.01
822.292	-0.01
822.588	-0
822.884	-0.01
823.18	-0
823.475	0
823.771	0
824.067	-0.01
824.362	-0
824.658	0
824.953	-0
825.249	0.01
825.544	0
825.839	0.01
826.134	0.01
826.429	0.01
826.724	0.02
827.019	0.01
827.314	0
827.609	-0.01
827.904	0
828.198	-0
828.493	-0.01
828.787	-0
829.082	-0
829.376	-0.01
829.671	-0.01
829.965	-0
830.259	-0
830.553	-0
830.847	0
831.141	-0
831.435	-0
831.729	0
832.023	0
832.317	0
832.61	-0.01
832.904	-0
833.197	-0
833.491	0
833.784	-0
834.077	0
834.371	-0
834.664	-0.01
834.957	-0.01
835.25	-0.01
835.543	-0.01
835.836	0
836.129	-0.01
836.421	-0.01
836.714	-0.01
837.007	-0.01
837.299	-0.02
837.592	-0.01
837.884	-0.02
838.177	-0
838.469	-0
838.761	-0
839.053	-0.01
839.345	-0.01
839.637	-0.01
839.929	0
840.221	-0.01
840.513	-0.01
840.805	-0.01
841.096	-0
841.388	-0
841.68	0.01
841.971	0.01
842.262	-0
842.554	0.01
842.845	0.01
843.136	0
843.427	-0.01
843.718	-0
844.009	0.01
844.3	-0.01
844.591	-0
844.882	-0.01
845.173	-0.02
845.463	0.01
845.754	-0
846.044	-0.01
846.335	-0.01
846.625	-0.02
846.915	-0.01
847.206	-0.01
847.496	-0.01
847.786	-0.02
848.076	-0.01
848.366	-0
848.656	-0.02
848.945	-0
849.235	-0.02
849.525	-0.01
849.814	-0.01
850.104	-0.01
850.393	-0.02
850.683	-0.01
850.972	-0.01
851.261	-0.02
851.551	0
851.84	-0.02
852.129	0.01
852.418	0.01
852.707	0.01
852.995	-0
853.284	0.01
853.573	0.01
853.862	-0.02
854.15	-0
854.439	-0.02
854.727	-0.01
855.015	-0.02
855.304	-0.03
855.592	-0.02
855.88	-0.02
856.168	-0.01
856.456	-0.01
856.744	-0.02
857.032	-0.02
857.32	-0.03
857.607	-0.02
857.895	-0.03
858.183	-0.03
858.47	-0.01
858.757	-0.05
859.045	-0
859.332	-0.03
859.619	-0.02
859.907	-0.02
860.194	-0.02
860.481	-0.03
860.768	-0.05
861.054	-0.03
861.341	-0.02
861.628	-0.02
861.915	-0.03
862.201	-0.01
862.488	-0
862.774	-0.01
863.061	-0.02
863.347	-0.02
863.633	-0.04
863.919	0.03
864.205	-0.02
864.491	-0.01
864.777	-0.02
865.063	0.01
865.349	-0.02
865.635	-0.03
865.92	-0.03
866.206	-0.05
866.492	-0.02
866.777	-0.03
867.062	-0.04
867.348	-0.02
867.633	0.01
867.918	-0.05
868.203	0.02
868.488	-0
868.773	-0.01
869.058	-0.03
869.343	-0.02
869.628	-0.06
869.912	0.01
870.197	-0.02
870.482	-0.03
870.766	0
871.05	-0.03
871.335	-0.06
871.619	-0.02
871.903	-0.05
872.187	-0.06
872.471	-0
872.755	-0.04
873.039	-0.06
873.323	0.02
873.607	-0.02
873.89	0.1
874.174	-0.03
874.458	0.01
874.741	-0.01
875.024	-0.02
875.308	0
875.591	0.06
875.874	-0.12
876.157	-0.08
876.44	-0.05
876.723	0.03
877.006	-0.01
877.289	0.03
877.572	-0.05
877.854	-0.01
878.137	0.01
878.42	0.03
878.702	-0.11
878.984	0.05
879.267	-0.01
879.549	-0.03
879.831	-0.07
880.113	0
880.395	-0.02
880.677	-0.03
880.959	-0
