Data from Rubpy_EV_1200_EDTA_Absorbance_12-48-54-816.txt Node
Date: Mon Jun 29 12:48:54 BST 2026
User: fpm-admin
Spectrometer: OFX00224
Trigger mode: 0
Integration Time (sec): 7.000000E-2
Scans to average: 3
Nonlinearity correction enabled: false
Boxcar width: 0
Storing dark spectrum: false
XAxis mode: Wavelengths
Number of Pixels in Spectrum: 2136
>>>>>Begin Spectral Data<<<<<
154.91	0.48
155.289	-0.14
155.669	-0.01
156.048	0.16
156.428	-0
156.807	-0
157.186	-0.21
157.566	-0.34
157.945	-0.43
158.325	-0.07
158.704	-0.08
159.083	0.75
159.462	0.54
159.842	0.44
160.221	-0.02
160.6	-0
160.979	-0
161.359	-0.15
161.738	0.48
162.117	-0.19
162.496	0.09
162.875	0.43
163.254	-0.21
163.633	0.75
164.012	0.37
164.391	-0.26
164.77	-0.54
165.149	-0
165.528	0.5
165.907	0.32
166.286	-0.14
166.665	-0.1
167.044	-0
167.423	-0.18
167.802	0.27
168.181	1.49
168.559	-0.53
168.938	0.05
169.317	-0
169.696	1
170.074	-0.48
170.453	-0
170.832	-0
171.21	0.25
171.589	-0
171.968	0.52
172.346	-0
172.725	0.35
173.103	-0
173.482	-0
173.861	-0
174.239	0.58
174.617	-0
174.996	-0
175.374	-0.33
175.753	0.11
176.131	-0
176.51	-0.19
176.888	-0
177.266	-0
177.645	0.07
178.023	0.3
178.401	-0.14
178.779	0.18
179.158	-0
179.536	0.1
179.914	0.36
180.292	-0
180.67	-0.1
181.048	-0
181.427	-0
181.805	-0
182.183	0.95
182.561	0.45
182.939	-0
183.317	-0.85
183.695	-0
184.073	-0.35
184.451	-0
184.829	-0.28
185.206	0.16
185.584	-0.28
185.962	-0
186.34	-0.37
186.718	0.26
187.096	-1.4
187.473	0.17
187.851	-0.23
188.229	-0.24
188.607	0.02
188.984	-0.02
189.362	0.11
189.74	-0.04
190.117	0.07
190.495	0.07
190.872	-0.02
191.25	0.01
191.627	0.04
192.005	0.1
192.382	-0.03
192.76	0.02
193.137	0.15
193.515	0.08
193.892	-0
194.269	0.15
194.647	-0.01
195.024	-0.07
195.401	-0.01
195.779	0.05
196.156	0.04
196.533	0.08
196.91	-0.12
197.288	0.13
197.665	0.01
198.042	0.04
198.419	0.08
198.796	0.08
199.173	0.08
199.55	0.05
199.927	0.15
200.304	0.07
200.681	0.06
201.058	0.02
201.435	0.19
201.812	0.08
202.189	0.09
202.566	0.13
202.943	0.08
203.32	0.12
203.697	0.1
204.073	0.03
204.45	0.22
204.827	0.05
205.204	0.13
205.58	-0.01
205.957	0.1
206.334	0.02
206.71	0.18
207.087	0.1
207.464	0.02
207.84	0.05
208.217	0.14
208.593	-0
208.97	0.03
209.346	0.02
209.723	0.03
210.099	0.19
210.476	0.02
210.852	0.01
211.228	0.06
211.605	0.17
211.981	0.13
212.357	0.01
212.733	0.12
213.11	-0.03
213.486	0.05
213.862	0.12
214.238	0.07
214.614	0.11
214.991	0.07
215.367	0.11
215.743	0.05
216.119	-0.03
216.495	-0.03
216.871	0.09
217.247	0.03
217.623	0.07
217.999	0.07
218.375	0.16
218.751	0.08
219.127	-0.04
219.502	0.22
219.878	-0.03
220.254	0.02
220.63	0.04
221.006	0.12
221.381	0.05
221.757	0.16
222.133	0.1
222.508	0.11
222.884	0.15
223.26	0.07
223.635	0.1
224.011	0.05
224.386	0.1
224.762	0.02
225.137	0
225.513	0.17
225.888	-0.01
226.264	0.01
226.639	0.08
227.014	0.03
227.39	0.05
227.765	0.11
228.14	0.12
228.516	0.16
228.891	0.01
229.266	0.14
229.641	-0.01
230.017	0.05
230.392	0.02
230.767	0.1
231.142	0.08
231.517	0.09
231.892	0.1
232.267	0.09
232.642	-0.03
233.017	0.1
233.392	0.01
233.767	0.12
234.142	-0
234.517	0.05
234.892	0.02
235.267	0.08
235.641	0.11
236.016	0.04
236.391	0.14
236.766	0.06
237.14	0.01
237.515	0.15
237.89	0.1
238.264	0.09
238.639	0.09
239.014	0.14
239.388	0.1
239.763	0.07
240.137	0.06
240.512	-0
240.886	0.06
241.261	0.02
241.635	0.06
242.009	0.06
242.384	0.09
242.758	0.08
243.132	0.06
243.507	0.06
243.881	0.14
244.255	0.08
244.629	0.09
245.004	0.03
245.378	0.11
245.752	0.06
246.126	0.04
246.5	0.09
246.874	0.22
247.248	0.07
247.622	0.03
247.996	0.07
248.37	0.08
248.744	0.23
249.118	0.04
249.492	-0.02
249.866	0.16
250.24	0.12
250.613	0.01
250.987	0.16
251.361	0.12
251.735	0.04
252.108	0.12
252.482	0.08
252.856	0.15
253.229	0.05
253.603	0.05
253.977	0.01
254.35	0.07
254.724	0.02
255.097	0.15
255.471	0.07
255.844	0.04
256.218	0.09
256.591	0.05
256.964	0.05
257.338	0.13
257.711	0.01
258.084	0.05
258.458	0.05
258.831	0.05
259.204	0.11
259.577	-0
259.95	0.1
260.323	0.09
260.697	0.16
261.07	0.14
261.443	0.1
261.816	0.12
262.189	0.02
262.562	0.07
262.935	0.01
263.308	0.09
263.68	0.07
264.053	0.19
264.426	0.03
264.799	0.09
265.172	0.05
265.545	0.03
265.917	0.1
266.29	0.07
266.663	0.11
267.035	0.19
267.408	0.04
267.781	0.14
268.153	0.2
268.526	0.08
268.898	0.07
269.271	0.04
269.643	0.02
270.016	0.09
270.388	0.05
270.76	0.03
271.133	0.08
271.505	0.03
271.877	0.07
272.25	0.05
272.622	0.07
272.994	0.01
273.366	0.08
273.739	0.01
274.111	0.09
274.483	0.08
274.855	0.04
275.227	0.12
275.599	0.07
275.971	0.08
276.343	0.04
276.715	0.19
277.087	0.06
277.459	0.12
277.831	0.11
278.203	0.12
278.574	0.17
278.946	0.13
279.318	0.15
279.69	0.1
280.061	0.14
280.433	0.13
280.805	0.04
281.176	0.1
281.548	-0.01
281.92	0.12
282.291	0.07
282.663	0.13
283.034	0.12
283.406	0.07
283.777	0.05
284.148	0.08
284.52	0.08
284.891	0.14
285.262	0.08
285.634	0.13
286.005	0.1
286.376	0.11
286.747	0.13
287.119	0.05
287.49	0.04
287.861	0.06
288.232	0.08
288.603	0.17
288.974	0.03
289.345	0.13
289.716	0.04
290.087	0.09
290.458	0.03
290.829	0.1
291.2	0
291.571	0.02
291.941	0.05
292.312	0.11
292.683	0.07
293.054	0.03
293.424	0.06
293.795	0.07
294.166	0.09
294.536	0.08
294.907	0.03
295.277	0.03
295.648	0.09
296.018	0.08
296.389	0.07
296.759	0.03
297.13	0.1
297.5	0.03
297.871	0.07
298.241	0.06
298.611	0.05
298.981	0.06
299.352	0.06
299.722	0.09
300.092	0.04
300.462	0.06
300.832	0.05
301.202	0.06
301.573	0.04
301.943	0.06
302.313	0.05
302.683	0.03
303.053	0.02
303.422	0.05
303.792	0.03
304.162	0.04
304.532	0.03
304.902	0.04
305.272	0.04
305.641	0.05
306.011	0.03
306.381	0.05
306.75	0.04
307.12	0.04
307.49	0.05
307.859	0.05
308.229	0.06
308.598	0.05
308.968	0.05
309.337	0.05
309.707	0.05
310.076	0.06
310.445	0.06
310.815	0.06
311.184	0.06
311.553	0.05
311.923	0.06
312.292	0.06
312.661	0.06
313.03	0.06
313.399	0.06
313.768	0.05
314.137	0.05
314.506	0.05
314.875	0.06
315.244	0.05
315.613	0.06
315.982	0.06
316.351	0.06
316.72	0.06
317.089	0.05
317.458	0.06
317.826	0.05
318.195	0.05
318.564	0.05
318.933	0.05
319.301	0.05
319.67	0.06
320.038	0.05
320.407	0.05
320.775	0.05
321.144	0.05
321.512	0.05
321.881	0.04
322.249	0.05
322.618	0.05
322.986	0.04
323.354	0.04
323.723	0.05
324.091	0.05
324.459	0.04
324.827	0.04
325.195	0.04
325.564	0.04
325.932	0.04
326.3	0.04
326.668	0.04
327.036	0.04
327.404	0.04
327.772	0.05
328.14	0.04
328.508	0.04
328.875	0.04
329.243	0.04
329.611	0.04
329.979	0.04
330.346	0.04
330.714	0.04
331.082	0.04
331.449	0.05
331.817	0.05
332.185	0.05
332.552	0.05
332.92	0.04
333.287	0.04
333.655	0.05
334.022	0.05
334.389	0.05
334.757	0.04
335.124	0.05
335.491	0.05
335.859	0.05
336.226	0.05
336.593	0.05
336.96	0.05
337.327	0.05
337.695	0.05
338.062	0.05
338.429	0.06
338.796	0.05
339.163	0.05
339.53	0.06
339.897	0.06
340.263	0.06
340.63	0.06
340.997	0.06
341.364	0.06
341.731	0.06
342.097	0.06
342.464	0.06
342.831	0.06
343.197	0.07
343.564	0.06
343.931	0.06
344.297	0.07
344.664	0.07
345.03	0.07
345.396	0.07
345.763	0.08
346.129	0.07
346.496	0.07
346.862	0.08
347.228	0.07
347.594	0.07
347.961	0.08
348.327	0.08
348.693	0.08
349.059	0.08
349.425	0.08
349.791	0.09
350.157	0.09
350.523	0.09
350.889	0.09
351.255	0.09
351.621	0.09
351.987	0.1
352.353	0.1
352.719	0.1
353.084	0.1
353.45	0.1
353.816	0.1
354.181	0.11
354.547	0.11
354.913	0.11
355.278	0.11
355.644	0.12
356.009	0.12
356.375	0.12
356.74	0.12
357.106	0.13
357.471	0.13
357.836	0.13
358.202	0.13
358.567	0.14
358.932	0.14
359.297	0.14
359.663	0.15
360.028	0.15
360.393	0.15
360.758	0.15
361.123	0.15
361.488	0.16
361.853	0.16
362.218	0.16
362.583	0.16
362.948	0.16
363.312	0.17
363.677	0.17
364.042	0.18
364.407	0.18
364.772	0.19
365.136	0.18
365.501	0.19
365.865	0.2
366.23	0.19
366.595	0.2
366.959	0.2
367.324	0.21
367.688	0.22
368.052	0.22
368.417	0.22
368.781	0.23
369.145	0.23
369.51	0.23
369.874	0.23
370.238	0.23
370.602	0.23
370.967	0.23
371.331	0.23
371.695	0.23
372.059	0.23
372.423	0.23
372.787	0.23
373.151	0.23
373.515	0.23
373.878	0.23
374.242	0.23
374.606	0.23
374.97	0.23
375.334	0.23
375.697	0.23
376.061	0.24
376.425	0.24
376.788	0.24
377.152	0.24
377.515	0.24
377.879	0.24
378.242	0.25
378.606	0.25
378.969	0.25
379.333	0.25
379.696	0.26
380.059	0.27
380.422	0.27
380.786	0.28
381.149	0.28
381.512	0.29
381.875	0.29
382.238	0.3
382.601	0.31
382.964	0.32
383.327	0.33
383.69	0.33
384.053	0.35
384.416	0.36
384.779	0.36
385.142	0.37
385.504	0.38
385.867	0.39
386.23	0.39
386.593	0.39
386.955	0.39
387.318	0.39
387.68	0.39
388.043	0.39
388.405	0.39
388.768	0.39
389.13	0.39
389.493	0.37
389.855	0.38
390.217	0.37
390.58	0.37
390.942	0.37
391.304	0.38
391.666	0.38
392.028	0.39
392.391	0.4
392.753	0.41
393.115	0.42
393.477	0.44
393.839	0.46
394.201	0.48
394.563	0.5
394.924	0.52
395.286	0.53
395.648	0.56
396.01	0.57
396.371	0.59
396.733	0.6
397.095	0.61
397.456	0.61
397.818	0.62
398.18	0.61
398.541	0.6
398.903	0.59
399.264	0.57
399.625	0.55
399.987	0.53
400.348	0.51
400.709	0.48
401.071	0.46
401.432	0.43
401.793	0.39
402.154	0.37
402.515	0.35
402.876	0.33
403.238	0.3
403.599	0.28
403.96	0.26
404.32	0.24
404.681	0.22
405.042	0.21
405.403	0.19
405.764	0.18
406.125	0.17
406.485	0.15
406.846	0.14
407.207	0.14
407.567	0.13
407.928	0.12
408.288	0.12
408.649	0.1
409.009	0.1
409.37	0.1
409.73	0.09
410.091	0.08
410.451	0.08
410.811	0.08
411.171	0.08
411.532	0.07
411.892	0.07
412.252	0.07
412.612	0.07
412.972	0.06
413.332	0.06
413.692	0.06
414.052	0.06
414.412	0.06
414.772	0.05
415.132	0.05
415.492	0.05
415.851	0.05
416.211	0.05
416.571	0.05
416.931	0.04
417.29	0.04
417.65	0.04
418.009	0.04
418.369	0.04
418.728	0.04
419.088	0.04
419.447	0.04
419.807	0.04
420.166	0.03
420.525	0.03
420.884	0.04
421.244	0.04
421.603	0.03
421.962	0.03
422.321	0.03
422.68	0.04
423.039	0.04
423.398	0.03
423.757	0.03
424.116	0.03
424.475	0.03
424.834	0.03
425.193	0.03
425.551	0.02
425.91	0.03
426.269	0.03
426.628	0.03
426.986	0.03
427.345	0.03
427.703	0.03
428.062	0.02
428.42	0.02
428.779	0.03
429.137	0.03
429.496	0.02
429.854	0.02
430.212	0.03
430.57	0.02
430.929	0.03
431.287	0.02
431.645	0.02
432.003	0.02
432.361	0.02
432.719	0.02
433.077	0.02
433.435	0.02
433.793	0.02
434.151	0.02
434.509	0.03
434.866	0.02
435.224	0.02
435.582	0.02
435.94	0.01
436.297	0.02
436.655	0.02
437.012	0.02
437.37	0.02
437.727	0.02
438.085	0.02
438.442	0.02
438.8	0.02
439.157	0.03
439.514	0.02
439.872	0.02
440.229	0.02
440.586	0.02
440.943	0.02
441.3	0.03
441.657	0.01
442.014	0.01
442.371	0.02
442.728	0.02
443.085	0.02
443.442	0.01
443.799	0.02
444.156	0.02
444.513	0.02
444.869	0.02
445.226	0.01
445.583	0.02
445.939	0.02
446.296	0.02
446.652	0.01
447.009	0.01
447.365	0.01
447.722	0.02
448.078	0.01
448.434	0.01
448.791	0.01
449.147	0.02
449.503	0.01
449.859	0.02
450.215	0.01
450.571	0
450.928	0.01
451.284	0.02
451.64	0.01
451.995	0.01
452.351	0.01
452.707	0.01
453.063	0.01
453.419	0.01
453.775	0.01
454.13	0
454.486	0.01
454.842	0.01
455.197	0.01
455.553	0.01
455.908	0.01
456.264	0
456.619	0.01
456.975	0.01
457.33	0.01
457.685	0.01
458.04	0.01
458.396	-0
458.751	0
459.106	0
459.461	0.01
459.816	0
460.171	0
460.526	-0
460.881	0
461.236	-0
461.591	-0
461.946	0
462.301	0
462.655	0
463.01	0
463.365	0
463.719	0.01
464.074	0
464.428	-0
464.783	0
465.137	-0
465.492	-0
465.846	-0.01
466.201	-0
466.555	-0.01
466.909	-0.01
467.263	0
467.618	0
467.972	-0.01
468.326	-0
468.68	-0
469.034	-0.01
469.388	-0.01
469.742	-0.01
470.096	-0
470.45	-0.01
470.804	-0.01
471.157	-0.01
471.511	-0.01
471.865	-0
472.218	-0.01
472.572	-0.01
472.926	-0.01
473.279	0
473.633	0
473.986	-0.01
474.34	0
474.693	0
475.046	-0
475.4	0
475.753	0
476.106	0
476.459	-0
476.812	0
477.165	0
477.519	0
477.872	0
478.224	0.01
478.577	0.01
478.93	0.01
479.283	0.01
479.636	0.01
479.989	0.01
480.341	0.01
480.694	0.01
481.047	0.01
481.399	0.01
481.752	0.01
482.104	0.01
482.457	0.01
482.809	0.01
483.162	0.02
483.514	0.01
483.866	0.01
484.219	0.01
484.571	0.01
484.923	0.01
485.275	0.02
485.627	0.01
485.979	0.02
486.331	0.02
486.683	0.02
487.035	0.02
487.387	0.02
487.739	0.02
488.091	0.02
488.443	0.02
488.794	0.02
489.146	0.02
489.498	0.02
489.849	0.02
490.201	0.02
490.552	0.02
490.904	0.02
491.255	0.02
491.607	0.02
491.958	0.02
492.309	0.02
492.661	0.03
493.012	0.03
493.363	0.02
493.714	0.02
494.065	0.02
494.416	0.02
494.767	0.02
495.118	0.02
495.469	0.03
495.82	0.03
496.171	0.02
496.522	0.03
496.872	0.03
497.223	0.03
497.574	0.03
497.924	0.03
498.275	0.03
498.626	0.03
498.976	0.03
499.327	0.03
499.677	0.03
500.027	0.03
500.378	0.03
500.728	0.04
501.078	0.03
501.428	0.04
501.779	0.03
502.129	0.04
502.479	0.03
502.829	0.03
503.179	0.04
503.529	0.04
503.879	0.04
504.229	0.04
504.578	0.04
504.928	0.04
505.278	0.04
505.628	0.04
505.977	0.04
506.327	0.04
506.676	0.04
507.026	0.04
507.375	0.04
507.725	0.04
508.074	0.05
508.424	0.05
508.773	0.04
509.122	0.05
509.471	0.04
509.82	0.05
510.17	0.05
510.519	0.05
510.868	0.04
511.217	0.05
511.566	0.05
511.915	0.05
512.263	0.05
512.612	0.05
512.961	0.05
513.31	0.05
513.659	0.05
514.007	0.05
514.356	0.05
514.704	0.06
515.053	0.05
515.401	0.05
515.75	0.05
516.098	0.05
516.447	0.06
516.795	0.06
517.143	0.06
517.491	0.06
517.839	0.05
518.188	0.06
518.536	0.06
518.884	0.06
519.232	0.06
519.58	0.06
519.928	0.06
520.275	0.06
520.623	0.06
520.971	0.06
521.319	0.06
521.666	0.07
522.014	0.07
522.362	0.06
522.709	0.06
523.057	0.06
523.404	0.06
523.752	0.07
524.099	0.07
524.446	0.06
524.794	0.07
525.141	0.06
525.488	0.07
525.835	0.07
526.182	0.06
526.529	0.07
526.876	0.07
527.223	0.07
527.57	0.07
527.917	0.07
528.264	0.07
528.611	0.07
528.958	0.08
529.304	0.08
529.651	0.07
529.998	0.08
530.344	0.08
530.691	0.07
531.037	0.08
531.384	0.08
531.73	0.08
532.076	0.08
532.423	0.08
532.769	0.08
533.115	0.08
533.461	0.08
533.807	0.08
534.154	0.09
534.5	0.08
534.846	0.08
535.192	0.09
535.537	0.08
535.883	0.09
536.229	0.09
536.575	0.09
536.921	0.09
537.266	0.09
537.612	0.09
537.957	0.09
538.303	0.1
538.649	0.09
538.994	0.09
539.339	0.09
539.685	0.1
540.03	0.09
540.375	0.09
540.721	0.1
541.066	0.1
541.411	0.1
541.756	0.09
542.101	0.1
542.446	0.1
542.791	0.1
543.136	0.1
543.481	0.11
543.825	0.1
544.17	0.1
544.515	0.1
544.86	0.1
545.204	0.1
545.549	0.11
545.893	0.11
546.238	0.11
546.582	0.11
546.927	0.11
547.271	0.11
547.615	0.11
547.96	0.11
548.304	0.11
548.648	0.11
548.992	0.12
549.336	0.12
549.68	0.12
550.024	0.12
550.368	0.12
550.712	0.12
551.056	0.12
551.4	0.12
551.743	0.12
552.087	0.12
552.431	0.12
552.774	0.12
553.118	0.12
553.462	0.12
553.805	0.12
554.148	0.13
554.492	0.12
554.835	0.13
555.178	0.13
555.522	0.13
555.865	0.13
556.208	0.13
556.551	0.13
556.894	0.13
557.237	0.13
557.58	0.13
557.923	0.12
558.266	0.13
558.609	0.13
558.952	0.13
559.294	0.13
559.637	0.13
559.98	0.13
560.322	0.14
560.665	0.13
561.007	0.13
561.35	0.14
561.692	0.13
562.034	0.14
562.377	0.14
562.719	0.14
563.061	0.14
563.403	0.14
563.745	0.14
564.088	0.14
564.43	0.14
564.772	0.13
565.113	0.13
565.455	0.13
565.797	0.14
566.139	0.14
566.481	0.14
566.822	0.14
567.164	0.14
567.506	0.14
567.847	0.14
568.189	0.14
568.53	0.14
568.872	0.14
569.213	0.14
569.554	0.14
569.895	0.14
570.237	0.14
570.578	0.14
570.919	0.14
571.26	0.15
571.601	0.14
571.942	0.14
572.283	0.15
572.624	0.14
572.965	0.15
573.306	0.15
573.646	0.14
573.987	0.14
574.328	0.14
574.668	0.14
575.009	0.14
575.349	0.14
575.69	0.14
576.03	0.14
576.37	0.14
576.711	0.14
577.051	0.15
577.391	0.15
577.731	0.14
578.072	0.15
578.412	0.15
578.752	0.14
579.092	0.14
579.431	0.14
579.771	0.14
580.111	0.14
580.451	0.14
580.791	0.14
581.13	0.15
581.47	0.15
581.81	0.15
582.149	0.15
582.489	0.15
582.828	0.15
583.167	0.15
583.507	0.14
583.846	0.14
584.185	0.14
584.525	0.15
584.864	0.15
585.203	0.15
585.542	0.15
585.881	0.15
586.22	0.15
586.559	0.15
586.898	0.15
587.236	0.15
587.575	0.15
587.914	0.15
588.252	0.15
588.591	0.16
588.93	0.15
589.268	0.16
589.607	0.15
589.945	0.15
590.283	0.16
590.622	0.16
590.96	0.16
591.298	0.16
591.636	0.16
591.974	0.16
592.313	0.16
592.651	0.16
592.989	0.16
593.326	0.17
593.664	0.17
594.002	0.17
594.34	0.17
594.678	0.17
595.015	0.17
595.353	0.17
595.691	0.17
596.028	0.17
596.366	0.17
596.703	0.17
597.04	0.17
597.378	0.17
597.715	0.18
598.052	0.18
598.389	0.17
598.726	0.18
599.064	0.18
599.401	0.18
599.738	0.18
600.074	0.18
600.411	0.18
600.748	0.18
601.085	0.18
601.422	0.18
601.758	0.18
602.095	0.18
602.432	0.18
602.768	0.18
603.105	0.18
603.441	0.18
603.777	0.18
604.114	0.18
604.45	0.18
604.786	0.18
605.122	0.18
605.459	0.18
605.795	0.18
606.131	0.18
606.467	0.18
606.803	0.18
607.139	0.18
607.474	0.18
607.81	0.18
608.146	0.18
608.482	0.18
608.817	0.18
609.153	0.17
609.488	0.18
609.824	0.18
610.159	0.18
610.495	0.17
610.83	0.17
611.165	0.18
611.5	0.17
611.836	0.17
612.171	0.17
612.506	0.17
612.841	0.17
613.176	0.17
613.511	0.17
613.845	0.17
614.18	0.17
614.515	0.17
614.85	0.17
615.184	0.17
615.519	0.17
615.854	0.17
616.188	0.17
616.523	0.17
616.857	0.17
617.191	0.17
617.526	0.17
617.86	0.16
618.194	0.17
618.528	0.17
618.862	0.17
619.196	0.17
619.53	0.16
619.864	0.16
620.198	0.16
620.532	0.16
620.866	0.16
621.2	0.16
621.533	0.16
621.867	0.16
622.201	0.16
622.534	0.16
622.868	0.16
623.201	0.15
623.534	0.16
623.868	0.15
624.201	0.15
624.534	0.16
624.868	0.16
625.201	0.15
625.534	0.15
625.867	0.15
626.2	0.15
626.533	0.15
626.865	0.15
627.198	0.15
627.531	0.16
627.864	0.15
628.196	0.15
628.529	0.15
628.862	0.15
629.194	0.15
629.527	0.14
629.859	0.15
630.191	0.15
630.524	0.14
630.856	0.15
631.188	0.14
631.52	0.14
631.852	0.14
632.184	0.13
632.516	0.13
632.848	0.13
633.18	0.13
633.512	0.13
633.844	0.13
634.175	0.13
634.507	0.13
634.839	0.13
635.17	0.13
635.502	0.13
635.833	0.12
636.165	0.13
636.496	0.12
636.827	0.12
637.159	0.12
637.49	0.12
637.821	0.12
638.152	0.12
638.483	0.12
638.814	0.12
639.145	0.12
639.476	0.12
639.807	0.12
640.137	0.12
640.468	0.11
640.799	0.11
641.129	0.11
641.46	0.11
641.791	0.11
642.121	0.11
642.451	0.11
642.782	0.11
643.112	0.1
643.442	0.1
643.773	0.1
644.103	0.1
644.433	0.1
644.763	0.1
645.093	0.1
645.423	0.1
645.753	0.1
646.082	0.1
646.412	0.1
646.742	0.1
647.072	0.09
647.401	0.09
647.731	0.09
648.06	0.1
648.39	0.09
648.719	0.1
649.048	0.1
649.378	0.1
649.707	0.1
650.036	0.1
650.365	0.1
650.694	0.1
651.023	0.1
651.352	0.1
651.681	0.1
652.01	0.09
652.339	0.09
652.668	0.09
652.996	0.09
653.325	0.09
653.654	0.09
653.982	0.09
654.311	0.09
654.639	0.09
654.967	0.09
655.296	0.09
655.624	0.09
655.952	0.09
656.28	0.09
656.609	0.09
656.937	0.09
657.265	0.09
657.593	0.09
657.92	0.02
658.248	0
658.576	0
658.904	0.06
659.231	0.09
659.559	0.09
659.887	0.09
660.214	0.09
660.542	0.09
660.869	0.09
661.196	0.09
661.524	0.09
661.851	0.09
662.178	0.09
662.505	0.09
662.832	0.09
663.159	0.09
663.486	0.1
663.813	0.1
664.14	0.1
664.467	0.09
664.794	0.1
665.12	0.09
665.447	0.09
665.774	0.09
666.1	0.09
666.427	0.09
666.753	0.09
667.079	0.09
667.406	0.09
667.732	0.08
668.058	0.09
668.384	0.09
668.71	0.09
669.036	0.09
669.362	0.08
669.688	0.08
670.014	0.08
670.34	0.08
670.666	0.08
670.991	0.08
671.317	0.08
671.643	0.08
671.968	0.08
672.294	0.08
672.619	0.08
672.945	0.08
673.27	0.08
673.595	0.08
673.92	0.08
674.246	0.08
674.571	0.08
674.896	0.08
675.221	0.08
675.546	0.08
675.87	0.08
676.195	0.08
676.52	0.08
676.845	0.08
677.169	0.08
677.494	0.08
677.819	0.08
678.143	0.08
678.468	0.07
678.792	0.08
679.116	0.07
679.44	0.07
679.765	0.07
680.089	0.07
680.413	0.07
680.737	0.07
681.061	0.07
681.385	0.07
681.709	0.06
682.033	0.06
682.356	0.06
682.68	0.06
683.004	0.06
683.327	0.06
683.651	0.06
683.974	0.06
684.298	0.06
684.621	0.06
684.944	0.06
685.268	0.06
685.591	0.06
685.914	0.06
686.237	0.06
686.56	0.06
686.883	0.06
687.206	0.05
687.529	0.05
687.852	0.05
688.175	0.06
688.497	0.05
688.82	0.05
689.142	0.06
689.465	0.05
689.787	0.06
690.11	0.06
690.432	0.05
690.755	0.05
691.077	0.05
691.399	0.05
691.721	0.05
692.043	0.05
692.365	0.05
692.687	0.05
693.009	0.05
693.331	0.05
693.653	0.05
693.974	0.05
694.296	0.04
694.618	0.05
694.939	0.05
695.261	0.05
695.582	0.05
695.904	0.05
696.225	0.05
696.546	0.05
696.868	0.05
697.189	0.05
697.51	0.04
697.831	0.05
698.152	0.04
698.473	0.04
698.794	0.04
699.114	0.04
699.435	0.04
699.756	0.04
700.077	0.04
700.397	0.03
700.718	0.03
701.038	0.03
701.359	0.03
701.679	0.03
701.999	0.03
702.32	0.03
702.64	0.04
702.96	0.03
703.28	0.03
703.6	0.03
703.92	0.03
704.24	0.03
704.56	0.03
704.879	0.03
705.199	0.03
705.519	0.03
705.838	0.03
706.158	0.03
706.478	0.03
706.797	0.03
707.116	0.03
707.436	0.03
707.755	0.03
708.074	0.03
708.393	0.03
708.712	0.03
709.031	0.03
709.35	0.03
709.669	0.03
709.988	0.03
710.307	0.03
710.626	0.03
710.944	0.03
711.263	0.04
711.582	0.03
711.9	0.04
712.219	0.04
712.537	0.04
712.855	0.04
713.174	0.04
713.492	0.04
713.81	0.04
714.128	0.04
714.446	0.04
714.764	0.03
715.082	0.04
715.4	0.03
715.718	0.04
716.035	0.04
716.353	0.04
716.671	0.04
716.988	0.04
717.306	0.04
717.623	0.03
717.941	0.04
718.258	0.03
718.575	0.03
718.893	0.03
719.21	0.03
719.527	0.03
719.844	0.03
720.161	0.03
720.478	0.03
720.795	0.03
721.112	0.03
721.428	0.03
721.745	0.03
722.062	0.03
722.378	0.03
722.695	0.03
723.011	0.03
723.328	0.03
723.644	0.03
723.96	0.03
724.276	0.03
724.593	0.03
724.909	0.03
725.225	0.03
725.541	0.04
725.857	0.03
726.173	0.04
726.488	0.04
726.804	0.04
727.12	0.04
727.435	0.04
727.751	0.04
728.067	0.04
728.382	0.04
728.697	0.04
729.013	0.04
729.328	0.04
729.643	0.03
729.958	0.04
730.273	0.04
730.588	0.04
730.903	0.03
731.218	0.03
731.533	0.03
731.848	0.03
732.163	0.03
732.477	0.03
732.792	0.03
733.107	0.03
733.421	0.03
733.736	0.03
734.05	0.03
734.364	0.03
734.678	0.03
734.993	0.03
735.307	0.03
735.621	0.04
735.935	0.04
736.249	0.03
736.563	0.04
736.877	0.04
737.19	0.04
737.504	0.03
737.818	0.03
738.131	0.03
738.445	0.03
738.758	0.03
739.072	0.03
739.385	0.03
739.698	0.03
740.012	0.03
740.325	0.03
740.638	0.03
740.951	0.03
741.264	0.03
741.577	0.03
741.89	0.03
742.203	0.03
742.515	0.03
742.828	0.03
743.141	0.03
743.453	0.03
743.766	0.03
744.078	0.03
744.391	0.03
744.703	0.03
745.015	0.03
745.327	0.03
745.639	0.03
745.952	0.03
746.264	0.03
746.575	0.03
746.887	0.03
747.199	0.03
747.511	0.03
747.823	0.03
748.134	0.03
748.446	0.03
748.757	0.03
749.069	0.03
749.38	0.03
749.692	0.03
750.003	0.03
750.314	0.02
750.625	0.03
750.936	0.02
751.248	0.02
751.559	0.02
751.869	0.02
752.18	0.03
752.491	0.03
752.802	0.03
753.112	0.03
753.423	0.02
753.734	0.03
754.044	0.03
754.355	0.02
754.665	0.02
754.975	0.02
755.285	0.02
755.596	0.02
755.906	0.02
756.216	0.02
756.526	0.02
756.836	0.01
757.146	0.02
757.455	0.01
757.765	0.01
758.075	0.01
758.385	0.01
758.694	0.01
759.004	0.01
759.313	0.01
759.622	0.01
759.932	0.01
760.241	0.01
760.55	0.01
760.859	0.01
761.168	0.01
761.477	0.02
761.786	0.02
762.095	0.02
762.404	0.02
762.713	0.02
763.021	0.02
763.33	0.02
763.639	0.01
763.947	0.01
764.256	0.01
764.564	0.01
764.872	0.01
765.181	0.01
765.489	0.01
765.797	0.01
766.105	0.01
766.413	0.01
766.721	0.01
767.029	0.01
767.337	0.01
767.644	0.01
767.952	0.01
768.26	0.01
768.567	0.01
768.875	0.01
769.182	0.01
769.49	0
769.797	0
770.104	0.01
770.411	0
770.718	0.01
771.026	0.01
771.333	0.01
771.639	0.01
771.946	0.01
772.253	0.01
772.56	0
772.867	0
773.173	0.01
773.48	0.01
773.786	0.01
774.093	0.01
774.399	0
774.705	0.01
775.012	0.01
775.318	0
775.624	0
775.93	0
776.236	0
776.542	0
776.848	0
777.154	0
777.459	0
777.765	0
778.071	-0
778.376	-0
778.682	-0
778.987	-0
779.292	-0
779.598	0
779.903	0
780.208	0
780.513	0.01
780.818	0.01
781.123	0.01
781.428	0.01
781.733	0.01
782.038	0.01
782.343	0.01
782.647	0.01
782.952	0
783.256	0
783.561	0
783.865	0
784.17	0
784.474	0.01
784.778	0
785.082	0.01
785.386	0
785.69	0
785.994	0
786.298	0
786.602	0.01
786.906	0
787.209	0.01
787.513	0
787.817	0.01
788.12	0.01
788.424	0.01
788.727	0.01
789.03	0
789.333	0.01
789.637	0.01
789.94	0.01
790.243	0.01
790.546	0.01
790.849	0.01
791.152	0.01
791.454	0
791.757	0.01
792.06	0.01
792.362	0.01
792.665	0.01
792.967	0.01
793.27	0
793.572	0.01
793.874	0
794.177	-0
794.479	-0
794.781	-0.01
795.083	-0
795.385	-0.01
795.687	-0
795.989	-0
796.29	-0
796.592	-0
796.894	0
797.195	0
797.497	0
797.798	-0
798.1	-0
798.401	-0.01
798.702	-0.01
799.003	-0.01
799.304	-0
799.605	0
799.906	-0
800.207	-0
800.508	-0
800.809	0
801.11	-0
801.41	-0
801.711	0
802.011	0
802.312	0
802.612	0
802.913	0.01
803.213	0.01
803.513	0
803.813	0.01
804.113	0.01
804.413	0.01
804.713	0
805.013	0
805.313	0
805.613	0
805.912	0.01
806.212	0
806.511	0
806.811	-0
807.11	0
807.41	0
807.709	-0
808.008	-0.01
808.307	-0
808.606	-0
808.905	-0.01
809.204	-0
809.503	-0
809.802	-0
810.101	-0
810.399	0
810.698	0.01
810.997	0
811.295	0
811.593	0.01
811.892	0
812.19	0
812.488	-0.01
812.786	-0
813.084	-0
813.383	-0.01
813.68	-0
813.978	-0.01
814.276	-0.01
814.574	-0.01
814.872	-0.01
815.169	-0.01
815.467	-0.01
815.764	-0.01
816.062	-0.01
816.359	-0
816.656	0
816.954	0
817.251	0.01
817.548	0.01
817.845	-0
818.142	-0
818.439	-0
818.735	-0.01
819.032	-0
819.329	-0.01
819.626	-0.01
819.922	-0
820.219	-0.01
820.515	-0.01
820.811	-0.01
821.108	-0.01
821.404	-0.01
821.7	-0.01
821.996	-0.01
822.292	-0.01
822.588	-0.01
822.884	-0
823.18	-0
823.475	-0
823.771	-0
824.067	-0
824.362	-0
824.658	0
824.953	-0
825.249	0
825.544	0
825.839	0.01
826.134	0
826.429	0.01
826.724	0.01
827.019	0.01
827.314	0
827.609	-0.01
827.904	0
828.198	-0
828.493	-0
828.787	-0
829.082	0
829.376	-0.01
829.671	-0.01
829.965	0
830.259	-0
830.553	0
830.847	-0
831.141	-0
831.435	-0.01
831.729	-0
832.023	-0
832.317	0
832.61	-0
832.904	-0.01
833.197	0
833.491	0.01
833.784	0
834.077	0
834.371	0
834.664	-0.01
834.957	-0.01
835.25	-0.01
835.543	-0.01
835.836	-0
836.129	-0.01
836.421	-0.01
836.714	-0.01
837.007	-0.01
837.299	-0.02
837.592	-0
837.884	-0
838.177	0
838.469	-0.01
838.761	0
839.053	-0.01
839.345	0
839.637	-0
839.929	-0
840.221	-0
840.513	-0
840.805	-0
841.096	0
841.388	0
841.68	0
841.971	0
842.262	0
842.554	0.01
842.845	-0
843.136	0
843.427	-0.01
843.718	0.01
844.009	0.01
844.3	0.01
844.591	-0
844.882	-0.02
845.173	-0.01
845.463	0.01
845.754	0
846.044	-0.01
846.335	-0
846.625	-0.01
846.915	-0.01
847.206	-0
847.496	-0.01
847.786	-0.01
848.076	-0.01
848.366	-0.01
848.656	-0.01
848.945	-0.01
849.235	-0.02
849.525	-0.01
849.814	-0.01
850.104	-0.01
850.393	-0
850.683	-0.01
850.972	-0.01
851.261	-0.01
851.551	0
851.84	-0.01
852.129	-0
852.418	0.01
852.707	0.01
852.995	-0
853.284	0
853.573	-0.01
853.862	0
854.15	-0
854.439	-0.01
854.727	0
855.015	-0.02
855.304	-0.02
855.592	-0.01
855.88	-0.01
856.168	-0.01
856.456	-0.01
856.744	-0.02
857.032	-0.01
857.32	-0.01
857.607	-0.02
857.895	-0.03
858.183	-0.02
858.47	-0.01
858.757	-0.04
859.045	-0.01
859.332	0.01
859.619	-0.01
859.907	-0.02
860.194	-0.03
860.481	-0.04
860.768	-0.04
861.054	-0.02
861.341	-0.01
861.628	-0.03
861.915	-0.02
862.201	0.01
862.488	-0
862.774	-0.02
863.061	-0.01
863.347	0
863.633	-0.03
863.919	0.04
864.205	-0.04
864.491	-0.03
864.777	-0
865.063	0
865.349	-0
865.635	-0
865.92	-0.03
866.206	-0.01
866.492	-0.05
866.777	-0.02
867.062	-0
867.348	0.02
867.633	-0.01
867.918	-0.02
868.203	0
868.488	0.02
868.773	0.01
869.058	-0.02
869.343	-0.02
869.628	-0.03
869.912	0.04
870.197	0
870.482	-0.02
870.766	-0
871.05	-0.03
871.335	-0.02
871.619	-0.03
871.903	-0.06
872.187	-0.05
872.471	-0.02
872.755	-0.03
873.039	-0.01
873.323	-0.08
873.607	-0.06
873.89	0.04
874.174	0.01
874.458	0.06
874.741	0.05
875.024	0.06
875.308	0.02
875.591	0.02
875.874	-0.02
876.157	-0.07
876.44	-0.04
876.723	0.04
877.006	-0.09
877.289	-0.05
877.572	0.06
877.854	-0.03
878.137	0.05
878.42	-0.03
878.702	-0.05
878.984	0.04
879.267	-0.09
879.549	-0.04
879.831	-0.14
880.113	-0
880.395	0
880.677	-0.12
880.959	0.08
