Data from Rubpy_EV_1200_EDTA_Absorbance_12-49-41-805.txt Node
Date: Mon Jun 29 12:49:41 BST 2026
User: fpm-admin
Spectrometer: OFX00224
Trigger mode: 0
Integration Time (sec): 7.000000E-2
Scans to average: 3
Nonlinearity correction enabled: false
Boxcar width: 0
Storing dark spectrum: false
XAxis mode: Wavelengths
Number of Pixels in Spectrum: 2136
>>>>>Begin Spectral Data<<<<<
154.91	0.12
155.289	0.08
155.669	-0.02
156.048	0.11
156.428	-0.85
156.807	-0.3
157.186	-0
157.566	-0
157.945	-0
158.325	-0.02
158.704	-0
159.083	0.33
159.462	0.15
159.842	0.44
160.221	-0
160.6	-0
160.979	-0
161.359	-0.46
161.738	-0
162.117	-0
162.496	-0
162.875	0.15
163.254	0.03
163.633	-0
164.012	-0
164.391	0.1
164.77	-0.62
165.149	-0
165.528	0.47
165.907	0.38
166.286	-0.44
166.665	-0.1
167.044	0.66
167.423	-0
167.802	0.21
168.181	1.19
168.559	-0.53
168.938	0.18
169.317	-0
169.696	-0
170.074	-0
170.453	0.44
170.832	0.97
171.21	0.41
171.589	0.03
171.968	-0.49
172.346	-0
172.725	-0
173.103	-0
173.482	0.34
173.861	-0.8
174.239	0.58
174.617	-0
174.996	-0
175.374	-0
175.753	0.23
176.131	-1.02
176.51	0.1
176.888	0.45
177.266	-0
177.645	0.01
178.023	-0
178.401	-0.05
178.779	0.13
179.158	-0.15
179.536	-0
179.914	-0
180.292	-0
180.67	-0
181.048	-0
181.427	-0.96
181.805	-0
182.183	-0
182.561	0.03
182.939	0.82
183.317	-0
183.695	-0
184.073	-0.34
184.451	-0
184.829	-0.13
185.206	0.24
185.584	-0.66
185.962	-0.34
186.34	-0
186.718	0.65
187.096	-1.08
187.473	-0.04
187.851	-0.07
188.229	-0.2
188.607	0.15
188.984	0.02
189.362	-0.02
189.74	-0.03
190.117	-0.11
190.495	0.04
190.872	-0.04
191.25	0.09
191.627	0.05
192.005	0.12
192.382	0.02
192.76	-0.09
193.137	0.2
193.515	0.11
193.892	0.04
194.269	0.09
194.647	-0.05
195.024	-0.02
195.401	0
195.779	0.01
196.156	-0.03
196.533	0.05
196.91	-0.11
197.288	0.09
197.665	0.12
198.042	0.01
198.419	0.03
198.796	0.13
199.173	0.07
199.55	-0.06
199.927	0.15
200.304	0.08
200.681	0.07
201.058	0.01
201.435	0.04
201.812	0.1
202.189	0.03
202.566	0.1
202.943	0.18
203.32	0.04
203.697	0.11
204.073	0.17
204.45	0.06
204.827	0.09
205.204	0.11
205.58	0.08
205.957	0.14
206.334	0.08
206.71	0.17
207.087	0.01
207.464	0.07
207.84	0.1
208.217	0.12
208.593	0.09
208.97	0
209.346	0.09
209.723	0.05
210.099	0.17
210.476	0.12
210.852	0.07
211.228	0.05
211.605	0.14
211.981	-0.03
212.357	0.06
212.733	0.11
213.11	0.12
213.486	0.07
213.862	0.06
214.238	0.13
214.614	0.11
214.991	0.01
215.367	0.04
215.743	0.04
216.119	0.15
216.495	0.19
216.871	0.06
217.247	0.05
217.623	0.02
217.999	0.05
218.375	0.19
218.751	0.01
219.127	-0.01
219.502	0.15
219.878	-0.06
220.254	0.02
220.63	0.07
221.006	0.1
221.381	0.11
221.757	0.09
222.133	0.16
222.508	0.13
222.884	0.16
223.26	0.16
223.635	-0
224.011	0.06
224.386	-0.04
224.762	0.05
225.137	0.18
225.513	0.19
225.888	0.06
226.264	0.14
226.639	0.03
227.014	0.11
227.39	-0
227.765	0.08
228.14	0.12
228.516	0.01
228.891	0.19
229.266	0.08
229.641	0.05
230.017	0.09
230.392	0.14
230.767	0.1
231.142	0.11
231.517	0.14
231.892	0.05
232.267	0.1
232.642	-0
233.017	0.16
233.392	0.13
233.767	0.14
234.142	0.03
234.517	0.03
234.892	-0.01
235.267	0.07
235.641	0.11
236.016	0.19
236.391	0.05
236.766	0.07
237.14	-0.02
237.515	0.18
237.89	0.21
238.264	0.22
238.639	0.05
239.014	0.03
239.388	0.1
239.763	0.12
240.137	0.16
240.512	0.06
240.886	0.1
241.261	0.03
241.635	0.14
242.009	0.11
242.384	0.15
242.758	0.07
243.132	0
243.507	0.08
243.881	0.14
244.255	0.09
244.629	0.1
245.004	0.09
245.378	0.11
245.752	0.07
246.126	0.13
246.5	0.11
246.874	0.21
247.248	0.09
247.622	0.04
247.996	0.08
248.37	0.05
248.744	0.19
249.118	0.19
249.492	0.12
249.866	0.08
250.24	0.01
250.613	0.02
250.987	0.15
251.361	0.21
251.735	0.08
252.108	0.11
252.482	0.12
252.856	0.05
253.229	0.04
253.603	0.12
253.977	0.11
254.35	0.05
254.724	0.03
255.097	0.18
255.471	0.11
255.844	0.26
256.218	0.17
256.591	0.13
256.964	0.08
257.338	0.12
257.711	0.08
258.084	0.07
258.458	0.02
258.831	0.14
259.204	0.13
259.577	-0.04
259.95	0.06
260.323	0.07
260.697	0.1
261.07	0.11
261.443	0.05
261.816	0.07
262.189	0.07
262.562	0.1
262.935	0.17
263.308	0.08
263.68	0.14
264.053	0.11
264.426	0.05
264.799	0.14
265.172	0.08
265.545	0.09
265.917	0.17
266.29	0.03
266.663	0.07
267.035	0.19
267.408	0.05
267.781	0.14
268.153	0.13
268.526	0.14
268.898	0.18
269.271	0.05
269.643	0.02
270.016	0.03
270.388	0.12
270.76	-0
271.133	0.05
271.505	0.18
271.877	0.05
272.25	0.06
272.622	0.08
272.994	0.02
273.366	0.1
273.739	0.05
274.111	0.09
274.483	0.04
274.855	0.06
275.227	0.12
275.599	-0.01
275.971	0.08
276.343	0.11
276.715	0.16
277.087	0.04
277.459	0.19
277.831	0.09
278.203	0.09
278.574	0.02
278.946	0.09
279.318	0.12
279.69	0.04
280.061	0.12
280.433	0.19
280.805	0.05
281.176	0.18
281.548	0.02
281.92	0.08
282.291	0.02
282.663	0.12
283.034	0.15
283.406	0.02
283.777	0.15
284.148	0.14
284.52	0.14
284.891	0.05
285.262	0.1
285.634	0.1
286.005	0.11
286.376	0.06
286.747	0.04
287.119	0.04
287.49	0.07
287.861	0.11
288.232	0.11
288.603	0.1
288.974	0.06
289.345	0.05
289.716	0.05
290.087	0.08
290.458	0.03
290.829	0.13
291.2	-0
291.571	0.08
291.941	0.07
292.312	0.11
292.683	0.08
293.054	0.05
293.424	0.02
293.795	0.1
294.166	0.08
294.536	0.05
294.907	0.07
295.277	0.08
295.648	0.11
296.018	0.04
296.389	0.09
296.759	0.06
297.13	0.14
297.5	0.08
297.871	0.11
298.241	0.03
298.611	0.05
298.981	0.06
299.352	0.05
299.722	0.07
300.092	0.07
300.462	0.06
300.832	0.05
301.202	0.07
301.573	0.05
301.943	0.08
302.313	0.06
302.683	0.02
303.053	0.04
303.422	0.04
303.792	0.04
304.162	0.05
304.532	0.05
304.902	0.05
305.272	0.05
305.641	0.05
306.011	0.06
306.381	0.06
306.75	0.05
307.12	0.05
307.49	0.06
307.859	0.06
308.229	0.06
308.598	0.05
308.968	0.06
309.337	0.05
309.707	0.07
310.076	0.07
310.445	0.07
310.815	0.06
311.184	0.07
311.553	0.06
311.923	0.07
312.292	0.06
312.661	0.07
313.03	0.07
313.399	0.07
313.768	0.07
314.137	0.07
314.506	0.07
314.875	0.07
315.244	0.07
315.613	0.07
315.982	0.07
316.351	0.07
316.72	0.07
317.089	0.06
317.458	0.07
317.826	0.06
318.195	0.06
318.564	0.05
318.933	0.06
319.301	0.06
319.67	0.06
320.038	0.06
320.407	0.06
320.775	0.06
321.144	0.06
321.512	0.06
321.881	0.05
322.249	0.06
322.618	0.06
322.986	0.06
323.354	0.05
323.723	0.06
324.091	0.06
324.459	0.05
324.827	0.05
325.195	0.05
325.564	0.05
325.932	0.05
326.3	0.05
326.668	0.05
327.036	0.05
327.404	0.04
327.772	0.06
328.14	0.05
328.508	0.05
328.875	0.05
329.243	0.05
329.611	0.05
329.979	0.05
330.346	0.05
330.714	0.05
331.082	0.05
331.449	0.06
331.817	0.05
332.185	0.05
332.552	0.05
332.92	0.05
333.287	0.06
333.655	0.06
334.022	0.06
334.389	0.06
334.757	0.05
335.124	0.06
335.491	0.06
335.859	0.06
336.226	0.06
336.593	0.06
336.96	0.06
337.327	0.06
337.695	0.06
338.062	0.06
338.429	0.07
338.796	0.06
339.163	0.07
339.53	0.06
339.897	0.06
340.263	0.07
340.63	0.07
340.997	0.07
341.364	0.07
341.731	0.07
342.097	0.07
342.464	0.07
342.831	0.07
343.197	0.08
343.564	0.07
343.931	0.08
344.297	0.08
344.664	0.08
345.03	0.08
345.396	0.08
345.763	0.09
346.129	0.09
346.496	0.09
346.862	0.09
347.228	0.09
347.594	0.09
347.961	0.09
348.327	0.09
348.693	0.09
349.059	0.1
349.425	0.09
349.791	0.1
350.157	0.1
350.523	0.1
350.889	0.11
351.255	0.11
351.621	0.11
351.987	0.11
352.353	0.11
352.719	0.12
353.084	0.12
353.45	0.12
353.816	0.12
354.181	0.13
354.547	0.13
354.913	0.14
355.278	0.13
355.644	0.14
356.009	0.14
356.375	0.15
356.74	0.14
357.106	0.15
357.471	0.15
357.836	0.16
358.202	0.16
358.567	0.16
358.932	0.17
359.297	0.17
359.663	0.18
360.028	0.18
360.393	0.18
360.758	0.18
361.123	0.18
361.488	0.19
361.853	0.19
362.218	0.19
362.583	0.19
362.948	0.19
363.312	0.2
363.677	0.21
364.042	0.21
364.407	0.21
364.772	0.22
365.136	0.22
365.501	0.22
365.865	0.23
366.23	0.23
366.595	0.24
366.959	0.25
367.324	0.25
367.688	0.26
368.052	0.26
368.417	0.26
368.781	0.27
369.145	0.27
369.51	0.27
369.874	0.27
370.238	0.27
370.602	0.27
370.967	0.27
371.331	0.28
371.695	0.28
372.059	0.27
372.423	0.27
372.787	0.27
373.151	0.27
373.515	0.27
373.878	0.27
374.242	0.27
374.606	0.27
374.97	0.27
375.334	0.27
375.697	0.27
376.061	0.28
376.425	0.27
376.788	0.28
377.152	0.28
377.515	0.28
377.879	0.29
378.242	0.29
378.606	0.3
378.969	0.3
379.333	0.3
379.696	0.31
380.059	0.32
380.422	0.31
380.786	0.33
381.149	0.33
381.512	0.34
381.875	0.34
382.238	0.35
382.601	0.36
382.964	0.38
383.327	0.39
383.69	0.4
384.053	0.4
384.416	0.42
384.779	0.43
385.142	0.43
385.504	0.44
385.867	0.46
386.23	0.45
386.593	0.46
386.955	0.46
387.318	0.46
387.68	0.46
388.043	0.46
388.405	0.46
388.768	0.45
389.13	0.44
389.493	0.44
389.855	0.44
390.217	0.44
390.58	0.44
390.942	0.44
391.304	0.44
391.666	0.45
392.028	0.45
392.391	0.47
392.753	0.48
393.115	0.5
393.477	0.52
393.839	0.54
394.201	0.56
394.563	0.58
394.924	0.61
395.286	0.63
395.648	0.65
396.01	0.67
396.371	0.69
396.733	0.71
397.095	0.71
397.456	0.72
397.818	0.72
398.18	0.71
398.541	0.7
398.903	0.69
399.264	0.67
399.625	0.65
399.987	0.62
400.348	0.6
400.709	0.56
401.071	0.53
401.432	0.5
401.793	0.47
402.154	0.44
402.515	0.4
402.876	0.37
403.238	0.34
403.599	0.33
403.96	0.3
404.32	0.27
404.681	0.26
405.042	0.24
405.403	0.22
405.764	0.21
406.125	0.19
406.485	0.18
406.846	0.17
407.207	0.16
407.567	0.15
407.928	0.14
408.288	0.14
408.649	0.12
409.009	0.12
409.37	0.11
409.73	0.11
410.091	0.1
410.451	0.1
410.811	0.09
411.171	0.09
411.532	0.08
411.892	0.08
412.252	0.08
412.612	0.08
412.972	0.07
413.332	0.07
413.692	0.07
414.052	0.07
414.412	0.06
414.772	0.07
415.132	0.06
415.492	0.06
415.851	0.05
416.211	0.06
416.571	0.05
416.931	0.05
417.29	0.05
417.65	0.05
418.009	0.05
418.369	0.05
418.728	0.05
419.088	0.05
419.447	0.04
419.807	0.05
420.166	0.04
420.525	0.04
420.884	0.04
421.244	0.04
421.603	0.04
421.962	0.03
422.321	0.04
422.68	0.03
423.039	0.04
423.398	0.03
423.757	0.03
424.116	0.03
424.475	0.03
424.834	0.03
425.193	0.03
425.551	0.03
425.91	0.04
426.269	0.03
426.628	0.03
426.986	0.03
427.345	0.03
427.703	0.03
428.062	0.03
428.42	0.03
428.779	0.03
429.137	0.03
429.496	0.03
429.854	0.03
430.212	0.03
430.57	0.03
430.929	0.03
431.287	0.03
431.645	0.03
432.003	0.03
432.361	0.03
432.719	0.03
433.077	0.03
433.435	0.02
433.793	0.02
434.151	0.03
434.509	0.03
434.866	0.02
435.224	0.02
435.582	0.02
435.94	0.02
436.297	0.03
436.655	0.03
437.012	0.02
437.37	0.02
437.727	0.03
438.085	0.02
438.442	0.02
438.8	0.03
439.157	0.03
439.514	0.02
439.872	0.03
440.229	0.02
440.586	0.02
440.943	0.02
441.3	0.02
441.657	0.02
442.014	0.01
442.371	0.02
442.728	0.02
443.085	0.02
443.442	0.02
443.799	0.02
444.156	0.02
444.513	0.02
444.869	0.02
445.226	0.02
445.583	0.02
445.939	0.02
446.296	0.02
446.652	0.01
447.009	0.02
447.365	0.02
447.722	0.02
448.078	0.02
448.434	0.01
448.791	0.02
449.147	0.02
449.503	0.02
449.859	0.01
450.215	0.02
450.571	0
450.928	0.02
451.284	0.02
451.64	0.02
451.995	0
452.351	0.02
452.707	0.01
453.063	0.01
453.419	0.01
453.775	0.02
454.13	0
454.486	0.01
454.842	0.01
455.197	0.01
455.553	0.01
455.908	0.01
456.264	-0
456.619	0.01
456.975	0.01
457.33	0.01
457.685	0.01
458.04	0.01
458.396	-0
458.751	0.01
459.106	0
459.461	0.01
459.816	0.01
460.171	0
460.526	0.01
460.881	0.01
461.236	0.01
461.591	-0.01
461.946	0.01
462.301	0.01
462.655	0.01
463.01	0.01
463.365	0
463.719	0.01
464.074	-0
464.428	-0
464.783	0
465.137	-0
465.492	-0.01
465.846	-0
466.201	-0
466.555	-0
466.909	-0
467.263	0
467.618	0
467.972	-0.01
468.326	0
468.68	-0
469.034	-0
469.388	0
469.742	-0.01
470.096	-0
470.45	-0.01
470.804	-0.01
471.157	0
471.511	-0
471.865	-0
472.218	-0.01
472.572	-0
472.926	-0.01
473.279	0
473.633	0
473.986	0
474.34	0
474.693	0.01
475.046	0
475.4	0.01
475.753	0.01
476.106	0.01
476.459	0.01
476.812	0
477.165	0.01
477.519	0
477.872	0.01
478.224	0.02
478.577	0.01
478.93	0.01
479.283	0.02
479.636	0.01
479.989	0.02
480.341	0.01
480.694	0.01
481.047	0.02
481.399	0.01
481.752	0.01
482.104	0.02
482.457	0.02
482.809	0.02
483.162	0.02
483.514	0.01
483.866	0.02
484.219	0.02
484.571	0.02
484.923	0.02
485.275	0.02
485.627	0.02
485.979	0.02
486.331	0.03
486.683	0.02
487.035	0.02
487.387	0.02
487.739	0.02
488.091	0.03
488.443	0.02
488.794	0.03
489.146	0.02
489.498	0.02
489.849	0.02
490.201	0.03
490.552	0.03
490.904	0.02
491.255	0.02
491.607	0.03
491.958	0.03
492.309	0.03
492.661	0.03
493.012	0.03
493.363	0.03
493.714	0.02
494.065	0.03
494.416	0.03
494.767	0.03
495.118	0.03
495.469	0.03
495.82	0.04
496.171	0.03
496.522	0.04
496.872	0.04
497.223	0.03
497.574	0.03
497.924	0.04
498.275	0.04
498.626	0.03
498.976	0.03
499.327	0.03
499.677	0.03
500.027	0.04
500.378	0.04
500.728	0.04
501.078	0.04
501.428	0.04
501.779	0.04
502.129	0.04
502.479	0.04
502.829	0.04
503.179	0.04
503.529	0.04
503.879	0.04
504.229	0.05
504.578	0.05
504.928	0.04
505.278	0.05
505.628	0.05
505.977	0.05
506.327	0.05
506.676	0.05
507.026	0.05
507.375	0.05
507.725	0.05
508.074	0.05
508.424	0.06
508.773	0.05
509.122	0.06
509.471	0.05
509.82	0.05
510.17	0.05
510.519	0.06
510.868	0.05
511.217	0.06
511.566	0.06
511.915	0.06
512.263	0.06
512.612	0.06
512.961	0.06
513.31	0.06
513.659	0.06
514.007	0.06
514.356	0.06
514.704	0.07
515.053	0.06
515.401	0.06
515.75	0.07
516.098	0.06
516.447	0.07
516.795	0.07
517.143	0.06
517.491	0.07
517.839	0.06
518.188	0.07
518.536	0.07
518.884	0.07
519.232	0.07
519.58	0.07
519.928	0.07
520.275	0.08
520.623	0.07
520.971	0.08
521.319	0.07
521.666	0.08
522.014	0.08
522.362	0.07
522.709	0.07
523.057	0.07
523.404	0.08
523.752	0.08
524.099	0.08
524.446	0.08
524.794	0.08
525.141	0.08
525.488	0.08
525.835	0.08
526.182	0.08
526.529	0.08
526.876	0.08
527.223	0.08
527.57	0.09
527.917	0.09
528.264	0.08
528.611	0.09
528.958	0.09
529.304	0.09
529.651	0.09
529.998	0.09
530.344	0.09
530.691	0.09
531.037	0.09
531.384	0.09
531.73	0.09
532.076	0.09
532.423	0.1
532.769	0.09
533.115	0.09
533.461	0.1
533.807	0.1
534.154	0.1
534.5	0.1
534.846	0.1
535.192	0.1
535.537	0.11
535.883	0.1
536.229	0.11
536.575	0.11
536.921	0.11
537.266	0.11
537.612	0.11
537.957	0.11
538.303	0.11
538.649	0.11
538.994	0.11
539.339	0.11
539.685	0.12
540.03	0.11
540.375	0.11
540.721	0.11
541.066	0.11
541.411	0.11
541.756	0.12
542.101	0.12
542.446	0.12
542.791	0.12
543.136	0.13
543.481	0.12
543.825	0.12
544.17	0.12
544.515	0.12
544.86	0.12
545.204	0.12
545.549	0.13
545.893	0.13
546.238	0.13
546.582	0.13
546.927	0.13
547.271	0.13
547.615	0.13
547.96	0.13
548.304	0.13
548.648	0.13
548.992	0.14
549.336	0.14
549.68	0.14
550.024	0.14
550.368	0.13
550.712	0.14
551.056	0.14
551.4	0.14
551.743	0.14
552.087	0.14
552.431	0.14
552.774	0.15
553.118	0.15
553.462	0.15
553.805	0.15
554.148	0.15
554.492	0.15
554.835	0.15
555.178	0.15
555.522	0.15
555.865	0.15
556.208	0.15
556.551	0.15
556.894	0.15
557.237	0.16
557.58	0.15
557.923	0.15
558.266	0.15
558.609	0.16
558.952	0.16
559.294	0.16
559.637	0.16
559.98	0.16
560.322	0.16
560.665	0.16
561.007	0.16
561.35	0.16
561.692	0.16
562.034	0.16
562.377	0.16
562.719	0.17
563.061	0.16
563.403	0.16
563.745	0.16
564.088	0.17
564.43	0.16
564.772	0.16
565.113	0.16
565.455	0.16
565.797	0.16
566.139	0.16
566.481	0.16
566.822	0.16
567.164	0.16
567.506	0.16
567.847	0.16
568.189	0.17
568.53	0.17
568.872	0.16
569.213	0.17
569.554	0.17
569.895	0.17
570.237	0.17
570.578	0.17
570.919	0.17
571.26	0.17
571.601	0.17
571.942	0.17
572.283	0.17
572.624	0.17
572.965	0.17
573.306	0.17
573.646	0.17
573.987	0.17
574.328	0.17
574.668	0.17
575.009	0.17
575.349	0.17
575.69	0.17
576.03	0.17
576.37	0.17
576.711	0.17
577.051	0.17
577.391	0.17
577.731	0.17
578.072	0.17
578.412	0.17
578.752	0.17
579.092	0.17
579.431	0.17
579.771	0.17
580.111	0.17
580.451	0.17
580.791	0.17
581.13	0.17
581.47	0.17
581.81	0.17
582.149	0.17
582.489	0.17
582.828	0.17
583.167	0.17
583.507	0.17
583.846	0.16
584.185	0.16
584.525	0.17
584.864	0.18
585.203	0.17
585.542	0.18
585.881	0.18
586.22	0.18
586.559	0.18
586.898	0.18
587.236	0.17
587.575	0.17
587.914	0.18
588.252	0.18
588.591	0.18
588.93	0.18
589.268	0.19
589.607	0.18
589.945	0.19
590.283	0.19
590.622	0.19
590.96	0.19
591.298	0.19
591.636	0.19
591.974	0.19
592.313	0.19
592.651	0.19
592.989	0.19
593.326	0.2
593.664	0.2
594.002	0.2
594.34	0.2
594.678	0.2
595.015	0.2
595.353	0.2
595.691	0.2
596.028	0.2
596.366	0.2
596.703	0.2
597.04	0.2
597.378	0.2
597.715	0.21
598.052	0.21
598.389	0.21
598.726	0.21
599.064	0.21
599.401	0.21
599.738	0.21
600.074	0.21
600.411	0.21
600.748	0.21
601.085	0.21
601.422	0.21
601.758	0.21
602.095	0.21
602.432	0.21
602.768	0.21
603.105	0.21
603.441	0.21
603.777	0.21
604.114	0.21
604.45	0.21
604.786	0.21
605.122	0.21
605.459	0.21
605.795	0.21
606.131	0.21
606.467	0.21
606.803	0.21
607.139	0.21
607.474	0.22
607.81	0.21
608.146	0.22
608.482	0.22
608.817	0.21
609.153	0.21
609.488	0.21
609.824	0.21
610.159	0.21
610.495	0.21
610.83	0.21
611.165	0.21
611.5	0.2
611.836	0.2
612.171	0.21
612.506	0.21
612.841	0.2
613.176	0.2
613.511	0.2
613.845	0.2
614.18	0.2
614.515	0.2
614.85	0.2
615.184	0.2
615.519	0.2
615.854	0.2
616.188	0.2
616.523	0.2
616.857	0.2
617.191	0.2
617.526	0.2
617.86	0.19
618.194	0.2
618.528	0.2
618.862	0.2
619.196	0.2
619.53	0.19
619.864	0.19
620.198	0.19
620.532	0.19
620.866	0.19
621.2	0.19
621.533	0.19
621.867	0.19
622.201	0.19
622.534	0.19
622.868	0.19
623.201	0.18
623.534	0.18
623.868	0.18
624.201	0.18
624.534	0.19
624.868	0.18
625.201	0.18
625.534	0.18
625.867	0.18
626.2	0.18
626.533	0.18
626.865	0.18
627.198	0.18
627.531	0.18
627.864	0.18
628.196	0.18
628.529	0.18
628.862	0.17
629.194	0.18
629.527	0.17
629.859	0.17
630.191	0.17
630.524	0.17
630.856	0.17
631.188	0.17
631.52	0.17
631.852	0.16
632.184	0.16
632.516	0.16
632.848	0.16
633.18	0.16
633.512	0.16
633.844	0.15
634.175	0.15
634.507	0.16
634.839	0.15
635.17	0.15
635.502	0.15
635.833	0.15
636.165	0.15
636.496	0.14
636.827	0.14
637.159	0.15
637.49	0.14
637.821	0.14
638.152	0.14
638.483	0.14
638.814	0.14
639.145	0.14
639.476	0.14
639.807	0.13
640.137	0.14
640.468	0.13
640.799	0.13
641.129	0.13
641.46	0.13
641.791	0.13
642.121	0.13
642.451	0.13
642.782	0.13
643.112	0.12
643.442	0.13
643.773	0.12
644.103	0.12
644.433	0.12
644.763	0.12
645.093	0.12
645.423	0.12
645.753	0.12
646.082	0.12
646.412	0.12
646.742	0.11
647.072	0.11
647.401	0.11
647.731	0.12
648.06	0.11
648.39	0.11
648.719	0.12
649.048	0.12
649.378	0.12
649.707	0.11
650.036	0.12
650.365	0.11
650.694	0.11
651.023	0.12
651.352	0.11
651.681	0.12
652.01	0.11
652.339	0.11
652.668	0.11
652.996	0.11
653.325	0.11
653.654	0.11
653.982	0.11
654.311	0.11
654.639	0.11
654.967	0.11
655.296	0.11
655.624	0.11
655.952	0.11
656.28	0.11
656.609	0.11
656.937	0.11
657.265	0.11
657.593	0.11
657.92	0.04
658.248	0
658.576	0.01
658.904	0.08
659.231	0.1
659.559	0.11
659.887	0.11
660.214	0.11
660.542	0.11
660.869	0.11
661.196	0.11
661.524	0.11
661.851	0.11
662.178	0.11
662.505	0.11
662.832	0.11
663.159	0.11
663.486	0.12
663.813	0.11
664.14	0.11
664.467	0.11
664.794	0.11
665.12	0.11
665.447	0.11
665.774	0.11
666.1	0.1
666.427	0.1
666.753	0.1
667.079	0.1
667.406	0.1
667.732	0.1
668.058	0.11
668.384	0.11
668.71	0.1
669.036	0.1
669.362	0.1
669.688	0.1
670.014	0.1
670.34	0.1
670.666	0.1
670.991	0.1
671.317	0.1
671.643	0.1
671.968	0.1
672.294	0.1
672.619	0.1
672.945	0.1
673.27	0.1
673.595	0.1
673.92	0.1
674.246	0.1
674.571	0.1
674.896	0.1
675.221	0.1
675.546	0.09
675.87	0.09
676.195	0.09
676.52	0.09
676.845	0.09
677.169	0.09
677.494	0.09
677.819	0.09
678.143	0.09
678.468	0.09
678.792	0.09
679.116	0.08
679.44	0.09
679.765	0.08
680.089	0.08
680.413	0.08
680.737	0.08
681.061	0.08
681.385	0.08
681.709	0.08
682.033	0.08
682.356	0.08
682.68	0.08
683.004	0.08
683.327	0.07
683.651	0.08
683.974	0.08
684.298	0.08
684.621	0.08
684.944	0.07
685.268	0.07
685.591	0.07
685.914	0.07
686.237	0.07
686.56	0.07
686.883	0.07
687.206	0.06
687.529	0.07
687.852	0.06
688.175	0.07
688.497	0.07
688.82	0.07
689.142	0.07
689.465	0.06
689.787	0.06
690.11	0.06
690.432	0.06
690.755	0.06
691.077	0.06
691.399	0.06
691.721	0.06
692.043	0.06
692.365	0.06
692.687	0.06
693.009	0.06
693.331	0.06
693.653	0.06
693.974	0.05
694.296	0.06
694.618	0.05
694.939	0.05
695.261	0.05
695.582	0.06
695.904	0.06
696.225	0.05
696.546	0.06
696.868	0.06
697.189	0.05
697.51	0.05
697.831	0.05
698.152	0.05
698.473	0.05
698.794	0.05
699.114	0.05
699.435	0.04
699.756	0.04
700.077	0.04
700.397	0.04
700.718	0.04
701.038	0.04
701.359	0.04
701.679	0.04
701.999	0.04
702.32	0.04
702.64	0.04
702.96	0.04
703.28	0.04
703.6	0.04
703.92	0.04
704.24	0.03
704.56	0.04
704.879	0.04
705.199	0.04
705.519	0.04
705.838	0.04
706.158	0.04
706.478	0.04
706.797	0.04
707.116	0.04
707.436	0.03
707.755	0.03
708.074	0.03
708.393	0.03
708.712	0.03
709.031	0.03
709.35	0.04
709.669	0.04
709.988	0.03
710.307	0.03
710.626	0.04
710.944	0.04
711.263	0.04
711.582	0.04
711.9	0.04
712.219	0.04
712.537	0.04
712.855	0.04
713.174	0.04
713.492	0.04
713.81	0.04
714.128	0.05
714.446	0.05
714.764	0.04
715.082	0.04
715.4	0.04
715.718	0.04
716.035	0.04
716.353	0.04
716.671	0.04
716.988	0.04
717.306	0.04
717.623	0.04
717.941	0.04
718.258	0.04
718.575	0.04
718.893	0.04
719.21	0.04
719.527	0.04
719.844	0.04
720.161	0.04
720.478	0.04
720.795	0.04
721.112	0.03
721.428	0.03
721.745	0.04
722.062	0.03
722.378	0.03
722.695	0.03
723.011	0.03
723.328	0.03
723.644	0.04
723.96	0.04
724.276	0.04
724.593	0.04
724.909	0.04
725.225	0.04
725.541	0.04
725.857	0.04
726.173	0.04
726.488	0.05
726.804	0.05
727.12	0.05
727.435	0.05
727.751	0.04
728.067	0.04
728.382	0.05
728.697	0.04
729.013	0.05
729.328	0.05
729.643	0.04
729.958	0.04
730.273	0.04
730.588	0.04
730.903	0.04
731.218	0.04
731.533	0.04
731.848	0.04
732.163	0.04
732.477	0.04
732.792	0.04
733.107	0.03
733.421	0.04
733.736	0.04
734.05	0.04
734.364	0.04
734.678	0.04
734.993	0.04
735.307	0.04
735.621	0.04
735.935	0.04
736.249	0.04
736.563	0.04
736.877	0.04
737.19	0.04
737.504	0.04
737.818	0.04
738.131	0.04
738.445	0.04
738.758	0.03
739.072	0.03
739.385	0.03
739.698	0.03
740.012	0.04
740.325	0.04
740.638	0.03
740.951	0.03
741.264	0.03
741.577	0.03
741.89	0.03
742.203	0.03
742.515	0.04
742.828	0.04
743.141	0.04
743.453	0.04
743.766	0.04
744.078	0.03
744.391	0.04
744.703	0.04
745.015	0.04
745.327	0.03
745.639	0.03
745.952	0.03
746.264	0.03
746.575	0.04
746.887	0.04
747.199	0.04
747.511	0.03
747.823	0.04
748.134	0.03
748.446	0.03
748.757	0.04
749.069	0.04
749.38	0.04
749.692	0.03
750.003	0.03
750.314	0.03
750.625	0.03
750.936	0.03
751.248	0.03
751.559	0.03
751.869	0.03
752.18	0.03
752.491	0.03
752.802	0.03
753.112	0.03
753.423	0.03
753.734	0.03
754.044	0.03
754.355	0.03
754.665	0.03
754.975	0.03
755.285	0.03
755.596	0.02
755.906	0.02
756.216	0.02
756.526	0.02
756.836	0.02
757.146	0.02
757.455	0.02
757.765	0.02
758.075	0.02
758.385	0.02
758.694	0.01
759.004	0.02
759.313	0.01
759.622	0.01
759.932	0.01
760.241	0.02
760.55	0.01
760.859	0.01
761.168	0.02
761.477	0.02
761.786	0.02
762.095	0.02
762.404	0.02
762.713	0.02
763.021	0.02
763.33	0.02
763.639	0.02
763.947	0.02
764.256	0.02
764.564	0.02
764.872	0.02
765.181	0.01
765.489	0.01
765.797	0.01
766.105	0.01
766.413	0.01
766.721	0.01
767.029	0.01
767.337	0.01
767.644	0.01
767.952	0.01
768.26	0.01
768.567	0.01
768.875	0.01
769.182	0.01
769.49	0.01
769.797	0.01
770.104	0.01
770.411	0.01
770.718	0.01
771.026	0.01
771.333	0.01
771.639	0.01
771.946	0.01
772.253	0
772.56	0
772.867	0.01
773.173	0.01
773.48	0.01
773.786	0.01
774.093	0.01
774.399	0.01
774.705	0.01
775.012	0.01
775.318	0.01
775.624	0.01
775.93	0
776.236	0
776.542	-0
776.848	0
777.154	-0
777.459	0
777.765	0
778.071	-0
778.376	0
778.682	-0
778.987	0
779.292	0
779.598	0.01
779.903	0
780.208	0.01
780.513	0.01
780.818	0.01
781.123	0.01
781.428	0.02
781.733	0.01
782.038	0.01
782.343	0.01
782.647	0.01
782.952	0.01
783.256	0.01
783.561	0
783.865	0
784.17	0.01
784.474	0.01
784.778	0.01
785.082	0.01
785.386	0
785.69	0.01
785.994	0
786.298	0.01
786.602	0.01
786.906	0.01
787.209	0.01
787.513	0
787.817	0.01
788.12	0
788.424	0.01
788.727	0.01
789.03	0.01
789.333	0.01
789.637	0.01
789.94	0.01
790.243	0.01
790.546	0.01
790.849	0.01
791.152	0.01
791.454	0.01
791.757	0.01
792.06	0.01
792.362	0.01
792.665	0.01
792.967	0.01
793.27	0.01
793.572	0.01
793.874	0
794.177	-0
794.479	-0
794.781	-0
795.083	-0
795.385	-0.01
795.687	-0.01
795.989	-0
796.29	-0
796.592	-0.01
796.894	0
797.195	0
797.497	0
797.798	-0
798.1	-0
798.401	-0
798.702	-0
799.003	-0.01
799.304	-0
799.605	-0
799.906	-0
800.207	0
800.508	0
800.809	0
801.11	0
801.41	-0
801.711	-0
802.011	0
802.312	0
802.612	0.01
802.913	0.01
803.213	0.01
803.513	0.01
803.813	0
804.113	0.01
804.413	0.01
804.713	0
805.013	0
805.313	0
805.613	0
805.912	0
806.212	0
806.511	0
806.811	-0.01
807.11	0
807.41	0
807.709	-0
808.008	-0
808.307	-0
808.606	-0
808.905	-0
809.204	-0.01
809.503	-0
809.802	-0
810.101	-0
810.399	-0
810.698	0.01
810.997	-0
811.295	0
811.593	0
811.892	0
812.19	-0
812.488	-0.01
812.786	-0
813.084	-0.01
813.383	-0
813.68	-0.01
813.978	-0.01
814.276	-0.01
814.574	-0
814.872	-0.01
815.169	-0.01
815.467	-0.01
815.764	-0.01
816.062	-0
816.359	-0
816.656	0.01
816.954	0.01
817.251	0.01
817.548	0
817.845	0
818.142	-0
818.439	-0
818.735	-0.01
819.032	-0
819.329	-0.01
819.626	-0.01
819.922	-0.01
820.219	-0
820.515	-0.01
820.811	-0.01
821.108	-0.01
821.404	-0
821.7	-0
821.996	-0.01
822.292	-0.01
822.588	-0.01
822.884	-0
823.18	0
823.475	-0.01
823.771	0
824.067	-0.01
824.362	-0
824.658	0
824.953	0
825.249	0.01
825.544	0.01
825.839	0
826.134	0.01
826.429	0.01
826.724	0.01
827.019	0.01
827.314	-0
827.609	-0.01
827.904	-0
828.198	-0.01
828.493	-0
828.787	0
829.082	-0
829.376	-0.01
829.671	-0.01
829.965	0
830.259	-0
830.553	0
830.847	0
831.141	-0.01
831.435	-0.01
831.729	-0
832.023	-0
832.317	0
832.61	-0
832.904	-0.01
833.197	-0
833.491	0.01
833.784	0
834.077	0
834.371	0
834.664	-0.01
834.957	-0.01
835.25	-0
835.543	0
835.836	-0
836.129	-0.01
836.421	-0
836.714	-0.01
837.007	-0.01
837.299	-0.01
837.592	-0
837.884	-0.01
838.177	0
838.469	-0.01
838.761	-0
839.053	-0
839.345	-0.01
839.637	0
839.929	-0
840.221	-0
840.513	0
840.805	-0.01
841.096	0.01
841.388	0.01
841.68	0.01
841.971	-0
842.262	0
842.554	0
842.845	0
843.136	0
843.427	-0.01
843.718	-0
844.009	0
844.3	0.01
844.591	-0.01
844.882	-0
845.173	-0
845.463	0
845.754	-0
846.044	-0.01
846.335	-0
846.625	-0.02
846.915	-0
847.206	-0.01
847.496	-0.01
847.786	-0.01
848.076	-0.01
848.366	0
848.656	-0.01
848.945	-0
849.235	-0.01
849.525	-0.01
849.814	-0.01
850.104	-0.02
850.393	-0.01
850.683	-0.01
850.972	-0.01
851.261	-0.01
851.551	0.01
851.84	-0.01
852.129	0.01
852.418	-0
852.707	-0
852.995	0
853.284	0
853.573	-0
853.862	-0
854.15	-0
854.439	-0.01
854.727	0
855.015	-0.02
855.304	-0.02
855.592	-0.02
855.88	-0.02
856.168	-0
856.456	-0.01
856.744	-0.01
857.032	-0
857.32	-0.02
857.607	-0.02
857.895	-0.02
858.183	-0.01
858.47	-0.01
858.757	-0.02
859.045	-0.01
859.332	-0.01
859.619	-0
859.907	-0.01
860.194	-0.03
860.481	-0.02
860.768	-0.02
861.054	-0.02
861.341	-0.01
861.628	-0.01
861.915	-0.02
862.201	-0.01
862.488	0.02
862.774	-0.01
863.061	-0
863.347	-0.02
863.633	-0.04
863.919	0.04
864.205	-0.01
864.491	0
864.777	-0.01
865.063	0.02
865.349	-0
865.635	0
865.92	-0.04
866.206	-0.04
866.492	-0.02
866.777	0
867.062	-0.01
867.348	0.01
867.633	-0.01
867.918	-0.04
868.203	0
868.488	0
868.773	-0.02
869.058	0.03
869.343	0.01
869.628	-0.08
869.912	-0
870.197	-0.03
870.482	-0.02
870.766	0.01
871.05	-0.04
871.335	-0.05
871.619	-0
871.903	-0.05
872.187	-0.08
872.471	-0.06
872.755	-0.03
873.039	-0.04
873.323	-0.03
873.607	-0.02
873.89	0.02
874.174	0.01
874.458	0.06
874.741	0.01
875.024	0.03
875.308	-0.01
875.591	0.1
875.874	-0.06
876.157	-0.02
876.44	-0.03
876.723	-0.03
877.006	-0.07
877.289	-0
877.572	-0.06
877.854	-0.13
878.137	0.06
878.42	-0.03
878.702	-0.07
878.984	0.08
879.267	-0.07
879.549	-0.05
879.831	0.05
880.113	0.09
880.395	-0.03
880.677	-0.05
880.959	-0.01
