Data from Rubpy_EV_1200_EDTA_Absorbance_12-58-09-743.txt Node
Date: Mon Jun 29 12:58:09 BST 2026
User: fpm-admin
Spectrometer: OFX00224
Trigger mode: 0
Integration Time (sec): 7.000000E-2
Scans to average: 3
Nonlinearity correction enabled: false
Boxcar width: 0
Storing dark spectrum: false
XAxis mode: Wavelengths
Number of Pixels in Spectrum: 2136
>>>>>Begin Spectral Data<<<<<
154.91	0.37
155.289	0.54
155.669	0.54
156.048	0.16
156.428	-0.7
156.807	-0
157.186	0.28
157.566	-0
157.945	-0.7
158.325	-0.07
158.704	1.28
159.083	0.08
159.462	0.13
159.842	0.39
160.221	-0
160.6	-0
160.979	-0.78
161.359	-0
161.738	-0
162.117	-0.3
162.496	0.36
162.875	-0
163.254	-0.27
163.633	-0.2
164.012	-0
164.391	-0.04
164.77	-0
165.149	-0
165.528	0.11
165.907	0.46
166.286	-0.38
166.665	-0
167.044	0.19
167.423	-0
167.802	-0
168.181	0.59
168.559	-0.62
168.938	0.56
169.317	0.2
169.696	-0.35
170.074	-0
170.453	0.13
170.832	0.57
171.21	-0.02
171.589	0.48
171.968	-0
172.346	-0
172.725	-0
173.103	-0
173.482	0.26
173.861	-0.57
174.239	-0
174.617	-0
174.996	-0
175.374	-0
175.753	0.26
176.131	-1.08
176.51	0.12
176.888	0.33
177.266	-0
177.645	0.03
178.023	-0.34
178.401	0.06
178.779	0.1
179.158	-0
179.536	-0.05
179.914	-0
180.292	0.48
180.67	-0.04
181.048	-0
181.427	-0
181.805	-0.75
182.183	-0.02
182.561	-0.49
182.939	-0.41
183.317	-0
183.695	-0
184.073	0.04
184.451	-0
184.829	-0.18
185.206	-0.19
185.584	-0.38
185.962	-0
186.34	0.78
186.718	0.3
187.096	-0.95
187.473	0.5
187.851	-0
188.229	0.48
188.607	0.12
188.984	0.13
189.362	0.2
189.74	0.02
190.117	0.04
190.495	0.05
190.872	0.09
191.25	0.13
191.627	0.12
192.005	0.12
192.382	0.07
192.76	0.11
193.137	0.35
193.515	0.13
193.892	0.23
194.269	0.26
194.647	0.13
195.024	0.06
195.401	0.22
195.779	0
196.156	0.17
196.533	0.07
196.91	0.13
197.288	0.17
197.665	0.09
198.042	0.18
198.419	0.14
198.796	0.22
199.173	0.09
199.55	0.21
199.927	0.19
200.304	0.25
200.681	0.26
201.058	0.11
201.435	0.14
201.812	0.32
202.189	0.13
202.566	0.17
202.943	0.29
203.32	0.22
203.697	0.18
204.073	0.1
204.45	0.12
204.827	0.16
205.204	0.16
205.58	0.15
205.957	0.17
206.334	-0.06
206.71	0.17
207.087	0.23
207.464	0.14
207.84	0.18
208.217	0.17
208.593	-0.01
208.97	0.12
209.346	0.25
209.723	0.22
210.099	0.26
210.476	0.18
210.852	0.14
211.228	0.16
211.605	0.19
211.981	0.08
212.357	0.14
212.733	0.1
213.11	0.06
213.486	0.14
213.862	0.06
214.238	0.18
214.614	0.33
214.991	0.08
215.367	0.06
215.743	0.15
216.119	0.14
216.495	0.17
216.871	0.13
217.247	0.05
217.623	0.13
217.999	0.1
218.375	0.23
218.751	0.07
219.127	0.08
219.502	0.11
219.878	0
220.254	0.15
220.63	0.28
221.006	0.17
221.381	0.08
221.757	0.19
222.133	0.19
222.508	0.25
222.884	0.18
223.26	0.14
223.635	0.22
224.011	0.2
224.386	0.11
224.762	0.13
225.137	0.13
225.513	0.21
225.888	0.22
226.264	0.15
226.639	0.11
227.014	0
227.39	0.03
227.765	0.21
228.14	0.3
228.516	0.25
228.891	0.21
229.266	0.12
229.641	0.07
230.017	0.2
230.392	0.2
230.767	0.16
231.142	0.12
231.517	0.21
231.892	0.24
232.267	0.11
232.642	0.09
233.017	0.27
233.392	0.18
233.767	0.25
234.142	0.17
234.517	0.09
234.892	0.04
235.267	0.19
235.641	0.13
236.016	0.08
236.391	0.14
236.766	0.04
237.14	0.06
237.515	0.26
237.89	0.17
238.264	0.13
238.639	0.2
239.014	0.15
239.388	0.15
239.763	0.25
240.137	0.12
240.512	0.1
240.886	0.16
241.261	0.24
241.635	0.25
242.009	0.19
242.384	0.14
242.758	0.07
243.132	0.1
243.507	0.19
243.881	0.14
244.255	0.23
244.629	0.17
245.004	0.16
245.378	0.2
245.752	0.15
246.126	0.23
246.5	0.33
246.874	0.27
247.248	0.15
247.622	0.23
247.996	0.14
248.37	0.09
248.744	0.32
249.118	0.2
249.492	0.16
249.866	0.15
250.24	0.13
250.613	0.14
250.987	0.23
251.361	0.29
251.735	0.15
252.108	0.18
252.482	0.18
252.856	0.19
253.229	0.13
253.603	0.13
253.977	0.12
254.35	0.14
254.724	0.16
255.097	0.19
255.471	0.24
255.844	0.26
256.218	0.2
256.591	0.13
256.964	0.11
257.338	0.25
257.711	0.11
258.084	0.22
258.458	0.23
258.831	0.14
259.204	0.2
259.577	0.13
259.95	0.25
260.323	0.1
260.697	0.06
261.07	0.14
261.443	0.26
261.816	0.12
262.189	0.15
262.562	0.13
262.935	0.1
263.308	0.22
263.68	0.18
264.053	0.18
264.426	0.16
264.799	0.2
265.172	0.14
265.545	0.09
265.917	0.17
266.29	0.18
266.663	0.14
267.035	0.27
267.408	0.22
267.781	0.17
268.153	0.25
268.526	0.22
268.898	0.17
269.271	0.19
269.643	0.12
270.016	0.15
270.388	0.11
270.76	0.16
271.133	0.11
271.505	0.17
271.877	0.14
272.25	0.22
272.622	0.18
272.994	0.08
273.366	0.21
273.739	0.14
274.111	0.26
274.483	0.11
274.855	0.13
275.227	0.17
275.599	0.15
275.971	0.05
276.343	0.08
276.715	0.18
277.087	0.22
277.459	0.15
277.831	0.19
278.203	0.2
278.574	0.25
278.946	0.17
279.318	0.32
279.69	0.2
280.061	0.17
280.433	0.23
280.805	0.1
281.176	0.22
281.548	0.1
281.92	0.19
282.291	0.17
282.663	0.27
283.034	0.17
283.406	0.21
283.777	0.14
284.148	0.2
284.52	0.23
284.891	0.2
285.262	0.15
285.634	0.14
286.005	0.22
286.376	0.17
286.747	0.19
287.119	0.17
287.49	0.15
287.861	0.18
288.232	0.17
288.603	0.2
288.974	0.12
289.345	0.24
289.716	0.18
290.087	0.15
290.458	0.14
290.829	0.19
291.2	0.12
291.571	0.2
291.941	0.15
292.312	0.17
292.683	0.16
293.054	0.18
293.424	0.09
293.795	0.19
294.166	0.13
294.536	0.15
294.907	0.13
295.277	0.14
295.648	0.15
296.018	0.11
296.389	0.1
296.759	0.13
297.13	0.17
297.5	0.2
297.871	0.15
298.241	0.15
298.611	0.16
298.981	0.16
299.352	0.1
299.722	0.11
300.092	0.11
300.462	0.16
300.832	0.14
301.202	0.13
301.573	0.13
301.943	0.12
302.313	0.11
302.683	0.1
303.053	0.11
303.422	0.11
303.792	0.11
304.162	0.11
304.532	0.11
304.902	0.11
305.272	0.12
305.641	0.12
306.011	0.11
306.381	0.12
306.75	0.13
307.12	0.12
307.49	0.13
307.859	0.13
308.229	0.14
308.598	0.14
308.968	0.13
309.337	0.13
309.707	0.13
310.076	0.14
310.445	0.15
310.815	0.14
311.184	0.15
311.553	0.14
311.923	0.15
312.292	0.15
312.661	0.15
313.03	0.15
313.399	0.16
313.768	0.15
314.137	0.15
314.506	0.15
314.875	0.14
315.244	0.14
315.613	0.15
315.982	0.15
316.351	0.15
316.72	0.15
317.089	0.14
317.458	0.15
317.826	0.14
318.195	0.14
318.564	0.14
318.933	0.14
319.301	0.14
319.67	0.15
320.038	0.13
320.407	0.13
320.775	0.13
321.144	0.13
321.512	0.13
321.881	0.13
322.249	0.12
322.618	0.13
322.986	0.12
323.354	0.12
323.723	0.12
324.091	0.12
324.459	0.12
324.827	0.12
325.195	0.12
325.564	0.12
325.932	0.12
326.3	0.12
326.668	0.12
327.036	0.12
327.404	0.11
327.772	0.12
328.14	0.12
328.508	0.12
328.875	0.11
329.243	0.12
329.611	0.12
329.979	0.11
330.346	0.12
330.714	0.12
331.082	0.12
331.449	0.12
331.817	0.12
332.185	0.12
332.552	0.13
332.92	0.12
333.287	0.13
333.655	0.13
334.022	0.13
334.389	0.13
334.757	0.13
335.124	0.12
335.491	0.13
335.859	0.13
336.226	0.13
336.593	0.14
336.96	0.14
337.327	0.14
337.695	0.14
338.062	0.14
338.429	0.15
338.796	0.14
339.163	0.15
339.53	0.15
339.897	0.15
340.263	0.16
340.63	0.15
340.997	0.16
341.364	0.16
341.731	0.16
342.097	0.16
342.464	0.17
342.831	0.17
343.197	0.18
343.564	0.18
343.931	0.18
344.297	0.18
344.664	0.19
345.03	0.19
345.396	0.19
345.763	0.19
346.129	0.19
346.496	0.2
346.862	0.2
347.228	0.2
347.594	0.21
347.961	0.21
348.327	0.21
348.693	0.21
349.059	0.22
349.425	0.22
349.791	0.23
350.157	0.24
350.523	0.24
350.889	0.24
351.255	0.24
351.621	0.26
351.987	0.26
352.353	0.26
352.719	0.27
353.084	0.27
353.45	0.28
353.816	0.29
354.181	0.29
354.547	0.3
354.913	0.3
355.278	0.3
355.644	0.32
356.009	0.32
356.375	0.33
356.74	0.33
357.106	0.35
357.471	0.35
357.836	0.36
358.202	0.37
358.567	0.38
358.932	0.38
359.297	0.39
359.663	0.39
360.028	0.4
360.393	0.41
360.758	0.41
361.123	0.41
361.488	0.42
361.853	0.42
362.218	0.43
362.583	0.43
362.948	0.44
363.312	0.44
363.677	0.46
364.042	0.46
364.407	0.46
364.772	0.49
365.136	0.48
365.501	0.49
365.865	0.51
366.23	0.51
366.595	0.53
366.959	0.54
367.324	0.55
367.688	0.56
368.052	0.57
368.417	0.58
368.781	0.59
369.145	0.59
369.51	0.59
369.874	0.6
370.238	0.6
370.602	0.6
370.967	0.6
371.331	0.6
371.695	0.6
372.059	0.59
372.423	0.59
372.787	0.58
373.151	0.58
373.515	0.59
373.878	0.58
374.242	0.58
374.606	0.59
374.97	0.59
375.334	0.59
375.697	0.6
376.061	0.6
376.425	0.6
376.788	0.6
377.152	0.61
377.515	0.61
377.879	0.61
378.242	0.63
378.606	0.63
378.969	0.64
379.333	0.65
379.696	0.66
380.059	0.67
380.422	0.68
380.786	0.69
381.149	0.71
381.512	0.73
381.875	0.74
382.238	0.75
382.601	0.76
382.964	0.8
383.327	0.82
383.69	0.84
384.053	0.85
384.416	0.89
384.779	0.9
385.142	0.91
385.504	0.93
385.867	0.94
386.23	0.95
386.593	0.96
386.955	0.96
387.318	0.97
387.68	0.96
388.043	0.95
388.405	0.95
388.768	0.95
389.13	0.93
389.493	0.92
389.855	0.92
390.217	0.91
390.58	0.92
390.942	0.93
391.304	0.94
391.666	0.94
392.028	0.96
392.391	0.97
392.753	1
393.115	1.03
393.477	1.06
393.839	1.1
394.201	1.15
394.563	1.21
394.924	1.25
395.286	1.29
395.648	1.33
396.01	1.37
396.371	1.41
396.733	1.43
397.095	1.45
397.456	1.48
397.818	1.45
398.18	1.42
398.541	1.41
398.903	1.39
399.264	1.36
399.625	1.3
399.987	1.27
400.348	1.22
400.709	1.15
401.071	1.1
401.432	1.03
401.793	0.96
402.154	0.91
402.515	0.84
402.876	0.78
403.238	0.74
403.599	0.69
403.96	0.62
404.32	0.57
404.681	0.53
405.042	0.5
405.403	0.47
405.764	0.44
406.125	0.41
406.485	0.38
406.846	0.35
407.207	0.33
407.567	0.31
407.928	0.29
408.288	0.28
408.649	0.26
409.009	0.26
409.37	0.24
409.73	0.23
410.091	0.21
410.451	0.2
410.811	0.19
411.171	0.18
411.532	0.18
411.892	0.17
412.252	0.17
412.612	0.16
412.972	0.15
413.332	0.15
413.692	0.14
414.052	0.14
414.412	0.13
414.772	0.13
415.132	0.12
415.492	0.12
415.851	0.11
416.211	0.11
416.571	0.11
416.931	0.11
417.29	0.1
417.65	0.1
418.009	0.1
418.369	0.09
418.728	0.1
419.088	0.09
419.447	0.09
419.807	0.09
420.166	0.09
420.525	0.09
420.884	0.09
421.244	0.08
421.603	0.08
421.962	0.08
422.321	0.07
422.68	0.08
423.039	0.08
423.398	0.07
423.757	0.07
424.116	0.07
424.475	0.07
424.834	0.07
425.193	0.07
425.551	0.06
425.91	0.07
426.269	0.07
426.628	0.06
426.986	0.06
427.345	0.06
427.703	0.07
428.062	0.07
428.42	0.06
428.779	0.06
429.137	0.07
429.496	0.06
429.854	0.06
430.212	0.06
430.57	0.06
430.929	0.06
431.287	0.05
431.645	0.06
432.003	0.06
432.361	0.06
432.719	0.06
433.077	0.05
433.435	0.05
433.793	0.05
434.151	0.06
434.509	0.06
434.866	0.04
435.224	0.05
435.582	0.05
435.94	0.05
436.297	0.06
436.655	0.05
437.012	0.05
437.37	0.04
437.727	0.05
438.085	0.05
438.442	0.05
438.8	0.05
439.157	0.05
439.514	0.04
439.872	0.05
440.229	0.05
440.586	0.04
440.943	0.05
441.3	0.04
441.657	0.04
442.014	0.03
442.371	0.04
442.728	0.04
443.085	0.04
443.442	0.04
443.799	0.04
444.156	0.04
444.513	0.04
444.869	0.05
445.226	0.04
445.583	0.05
445.939	0.04
446.296	0.04
446.652	0.03
447.009	0.04
447.365	0.04
447.722	0.04
448.078	0.03
448.434	0.04
448.791	0.03
449.147	0.04
449.503	0.04
449.859	0.04
450.215	0.03
450.571	0.03
450.928	0.03
451.284	0.04
451.64	0.03
451.995	0.02
452.351	0.03
452.707	0.03
453.063	0.03
453.419	0.03
453.775	0.03
454.13	0.03
454.486	0.03
454.842	0.03
455.197	0.03
455.553	0.02
455.908	0.03
456.264	0.02
456.619	0.03
456.975	0.04
457.33	0.03
457.685	0.03
458.04	0.02
458.396	0.02
458.751	0.03
459.106	0.02
459.461	0.03
459.816	0.03
460.171	0.02
460.526	0.03
460.881	0.01
461.236	0.02
461.591	0.02
461.946	0.03
462.301	0.02
462.655	0.03
463.01	0.02
463.365	0.03
463.719	0.03
464.074	0.02
464.428	0.02
464.783	0.02
465.137	0.02
465.492	0.01
465.846	0.01
466.201	0.02
466.555	0.01
466.909	0.02
467.263	0.02
467.618	0.02
467.972	0.02
468.326	0.02
468.68	0.02
469.034	0.02
469.388	0.02
469.742	0.01
470.096	0.03
470.45	0.01
470.804	0.02
471.157	0.02
471.511	0.02
471.865	0.02
472.218	0.02
472.572	0.01
472.926	0.02
473.279	0.03
473.633	0.02
473.986	0.02
474.34	0.03
474.693	0.02
475.046	0.03
475.4	0.03
475.753	0.03
476.106	0.03
476.459	0.03
476.812	0.03
477.165	0.03
477.519	0.03
477.872	0.04
478.224	0.04
478.577	0.04
478.93	0.03
479.283	0.04
479.636	0.04
479.989	0.04
480.341	0.04
480.694	0.04
481.047	0.04
481.399	0.04
481.752	0.04
482.104	0.05
482.457	0.04
482.809	0.05
483.162	0.05
483.514	0.04
483.866	0.05
484.219	0.04
484.571	0.05
484.923	0.05
485.275	0.05
485.627	0.05
485.979	0.06
486.331	0.06
486.683	0.05
487.035	0.06
487.387	0.06
487.739	0.06
488.091	0.06
488.443	0.06
488.794	0.06
489.146	0.06
489.498	0.06
489.849	0.06
490.201	0.06
490.552	0.06
490.904	0.06
491.255	0.07
491.607	0.07
491.958	0.07
492.309	0.07
492.661	0.07
493.012	0.07
493.363	0.07
493.714	0.07
494.065	0.07
494.416	0.07
494.767	0.08
495.118	0.08
495.469	0.08
495.82	0.08
496.171	0.08
496.522	0.08
496.872	0.08
497.223	0.08
497.574	0.08
497.924	0.09
498.275	0.09
498.626	0.08
498.976	0.09
499.327	0.09
499.677	0.09
500.027	0.09
500.378	0.09
500.728	0.09
501.078	0.09
501.428	0.1
501.779	0.09
502.129	0.1
502.479	0.1
502.829	0.1
503.179	0.1
503.529	0.1
503.879	0.1
504.229	0.11
504.578	0.11
504.928	0.11
505.278	0.11
505.628	0.1
505.977	0.11
506.327	0.11
506.676	0.11
507.026	0.12
507.375	0.12
507.725	0.12
508.074	0.12
508.424	0.12
508.773	0.12
509.122	0.12
509.471	0.12
509.82	0.12
510.17	0.13
510.519	0.13
510.868	0.12
511.217	0.13
511.566	0.13
511.915	0.13
512.263	0.13
512.612	0.14
512.961	0.13
513.31	0.13
513.659	0.13
514.007	0.14
514.356	0.14
514.704	0.15
515.053	0.14
515.401	0.14
515.75	0.15
516.098	0.14
516.447	0.15
516.795	0.15
517.143	0.15
517.491	0.15
517.839	0.15
518.188	0.16
518.536	0.16
518.884	0.15
519.232	0.16
519.58	0.15
519.928	0.16
520.275	0.16
520.623	0.17
520.971	0.17
521.319	0.16
521.666	0.17
522.014	0.17
522.362	0.16
522.709	0.17
523.057	0.17
523.404	0.17
523.752	0.17
524.099	0.17
524.446	0.17
524.794	0.18
525.141	0.18
525.488	0.18
525.835	0.18
526.182	0.18
526.529	0.18
526.876	0.18
527.223	0.19
527.57	0.19
527.917	0.19
528.264	0.19
528.611	0.19
528.958	0.2
529.304	0.2
529.651	0.19
529.998	0.2
530.344	0.2
530.691	0.2
531.037	0.2
531.384	0.21
531.73	0.2
532.076	0.21
532.423	0.21
532.769	0.21
533.115	0.21
533.461	0.21
533.807	0.22
534.154	0.22
534.5	0.22
534.846	0.22
535.192	0.22
535.537	0.23
535.883	0.22
536.229	0.23
536.575	0.23
536.921	0.23
537.266	0.23
537.612	0.24
537.957	0.24
538.303	0.24
538.649	0.24
538.994	0.24
539.339	0.24
539.685	0.25
540.03	0.24
540.375	0.24
540.721	0.25
541.066	0.25
541.411	0.25
541.756	0.25
542.101	0.26
542.446	0.26
542.791	0.26
543.136	0.27
543.481	0.27
543.825	0.26
544.17	0.27
544.515	0.27
544.86	0.27
545.204	0.27
545.549	0.28
545.893	0.28
546.238	0.28
546.582	0.28
546.927	0.28
547.271	0.28
547.615	0.29
547.96	0.29
548.304	0.29
548.648	0.29
548.992	0.3
549.336	0.3
549.68	0.3
550.024	0.3
550.368	0.3
550.712	0.31
551.056	0.31
551.4	0.31
551.743	0.31
552.087	0.31
552.431	0.31
552.774	0.32
553.118	0.31
553.462	0.32
553.805	0.32
554.148	0.32
554.492	0.32
554.835	0.32
555.178	0.33
555.522	0.32
555.865	0.33
556.208	0.32
556.551	0.33
556.894	0.33
557.237	0.33
557.58	0.33
557.923	0.33
558.266	0.33
558.609	0.34
558.952	0.34
559.294	0.33
559.637	0.34
559.98	0.34
560.322	0.34
560.665	0.34
561.007	0.34
561.35	0.34
561.692	0.35
562.034	0.35
562.377	0.35
562.719	0.35
563.061	0.35
563.403	0.35
563.745	0.35
564.088	0.35
564.43	0.35
564.772	0.35
565.113	0.35
565.455	0.35
565.797	0.36
566.139	0.36
566.481	0.35
566.822	0.35
567.164	0.35
567.506	0.35
567.847	0.36
568.189	0.36
568.53	0.36
568.872	0.36
569.213	0.36
569.554	0.36
569.895	0.37
570.237	0.36
570.578	0.37
570.919	0.37
571.26	0.36
571.601	0.36
571.942	0.37
572.283	0.37
572.624	0.36
572.965	0.37
573.306	0.37
573.646	0.37
573.987	0.36
574.328	0.37
574.668	0.37
575.009	0.36
575.349	0.37
575.69	0.37
576.03	0.37
576.37	0.37
576.711	0.37
577.051	0.37
577.391	0.37
577.731	0.37
578.072	0.37
578.412	0.37
578.752	0.37
579.092	0.37
579.431	0.37
579.771	0.37
580.111	0.36
580.451	0.37
580.791	0.37
581.13	0.37
581.47	0.38
581.81	0.38
582.149	0.38
582.489	0.38
582.828	0.38
583.167	0.38
583.507	0.37
583.846	0.37
584.185	0.37
584.525	0.38
584.864	0.38
585.203	0.38
585.542	0.39
585.881	0.39
586.22	0.39
586.559	0.39
586.898	0.39
587.236	0.39
587.575	0.39
587.914	0.39
588.252	0.39
588.591	0.4
588.93	0.4
589.268	0.4
589.607	0.4
589.945	0.4
590.283	0.4
590.622	0.4
590.96	0.41
591.298	0.41
591.636	0.41
591.974	0.42
592.313	0.42
592.651	0.42
592.989	0.42
593.326	0.42
593.664	0.42
594.002	0.43
594.34	0.43
594.678	0.43
595.015	0.43
595.353	0.43
595.691	0.43
596.028	0.43
596.366	0.43
596.703	0.44
597.04	0.44
597.378	0.44
597.715	0.44
598.052	0.44
598.389	0.44
598.726	0.45
599.064	0.45
599.401	0.45
599.738	0.45
600.074	0.45
600.411	0.46
600.748	0.45
601.085	0.45
601.422	0.45
601.758	0.45
602.095	0.46
602.432	0.45
602.768	0.46
603.105	0.45
603.441	0.45
603.777	0.45
604.114	0.45
604.45	0.45
604.786	0.45
605.122	0.46
605.459	0.46
605.795	0.46
606.131	0.46
606.467	0.46
606.803	0.46
607.139	0.46
607.474	0.46
607.81	0.46
608.146	0.46
608.482	0.45
608.817	0.45
609.153	0.45
609.488	0.45
609.824	0.45
610.159	0.45
610.495	0.44
610.83	0.44
611.165	0.44
611.5	0.44
611.836	0.44
612.171	0.44
612.506	0.44
612.841	0.44
613.176	0.44
613.511	0.44
613.845	0.43
614.18	0.43
614.515	0.43
614.85	0.43
615.184	0.43
615.519	0.43
615.854	0.43
616.188	0.43
616.523	0.42
616.857	0.43
617.191	0.42
617.526	0.43
617.86	0.42
618.194	0.42
618.528	0.42
618.862	0.42
619.196	0.41
619.53	0.41
619.864	0.41
620.198	0.41
620.532	0.41
620.866	0.41
621.2	0.41
621.533	0.41
621.867	0.41
622.201	0.4
622.534	0.4
622.868	0.4
623.201	0.4
623.534	0.4
623.868	0.39
624.201	0.4
624.534	0.4
624.868	0.39
625.201	0.39
625.534	0.39
625.867	0.39
626.2	0.38
626.533	0.38
626.865	0.39
627.198	0.38
627.531	0.39
627.864	0.38
628.196	0.38
628.529	0.37
628.862	0.37
629.194	0.37
629.527	0.37
629.859	0.37
630.191	0.36
630.524	0.36
630.856	0.36
631.188	0.35
631.52	0.35
631.852	0.35
632.184	0.34
632.516	0.34
632.848	0.34
633.18	0.34
633.512	0.34
633.844	0.33
634.175	0.33
634.507	0.33
634.839	0.33
635.17	0.32
635.502	0.33
635.833	0.31
636.165	0.32
636.496	0.31
636.827	0.31
637.159	0.31
637.49	0.31
637.821	0.31
638.152	0.3
638.483	0.3
638.814	0.3
639.145	0.3
639.476	0.3
639.807	0.29
640.137	0.29
640.468	0.29
640.799	0.28
641.129	0.29
641.46	0.28
641.791	0.28
642.121	0.28
642.451	0.28
642.782	0.27
643.112	0.27
643.442	0.27
643.773	0.27
644.103	0.27
644.433	0.27
644.763	0.26
645.093	0.26
645.423	0.26
645.753	0.25
646.082	0.25
646.412	0.25
646.742	0.25
647.072	0.25
647.401	0.25
647.731	0.25
648.06	0.25
648.39	0.25
648.719	0.25
649.048	0.25
649.378	0.25
649.707	0.25
650.036	0.25
650.365	0.25
650.694	0.25
651.023	0.25
651.352	0.25
651.681	0.25
652.01	0.24
652.339	0.24
652.668	0.24
652.996	0.24
653.325	0.24
653.654	0.24
653.982	0.24
654.311	0.24
654.639	0.24
654.967	0.24
655.296	0.24
655.624	0.24
655.952	0.24
656.28	0.24
656.609	0.23
656.937	0.24
657.265	0.24
657.593	0.23
657.92	0.15
658.248	0.1
658.576	0.11
658.904	0.2
659.231	0.23
659.559	0.23
659.887	0.24
660.214	0.24
660.542	0.23
660.869	0.23
661.196	0.23
661.524	0.23
661.851	0.24
662.178	0.24
662.505	0.24
662.832	0.23
663.159	0.23
663.486	0.24
663.813	0.24
664.14	0.23
664.467	0.23
664.794	0.23
665.12	0.23
665.447	0.23
665.774	0.23
666.1	0.23
666.427	0.23
666.753	0.23
667.079	0.23
667.406	0.23
667.732	0.22
668.058	0.23
668.384	0.23
668.71	0.22
669.036	0.22
669.362	0.22
669.688	0.22
670.014	0.22
670.34	0.22
670.666	0.22
670.991	0.21
671.317	0.22
671.643	0.21
671.968	0.21
672.294	0.21
672.619	0.21
672.945	0.21
673.27	0.21
673.595	0.21
673.92	0.21
674.246	0.21
674.571	0.2
674.896	0.2
675.221	0.2
675.546	0.2
675.87	0.2
676.195	0.2
676.52	0.2
676.845	0.2
677.169	0.2
677.494	0.2
677.819	0.19
678.143	0.19
678.468	0.19
678.792	0.19
679.116	0.18
679.44	0.18
679.765	0.18
680.089	0.18
680.413	0.18
680.737	0.17
681.061	0.18
681.385	0.17
681.709	0.17
682.033	0.16
682.356	0.16
682.68	0.16
683.004	0.16
683.327	0.16
683.651	0.16
683.974	0.16
684.298	0.16
684.621	0.16
684.944	0.15
685.268	0.16
685.591	0.15
685.914	0.15
686.237	0.15
686.56	0.14
686.883	0.14
687.206	0.14
687.529	0.14
687.852	0.14
688.175	0.14
688.497	0.14
688.82	0.14
689.142	0.14
689.465	0.13
689.787	0.13
690.11	0.14
690.432	0.13
690.755	0.13
691.077	0.12
691.399	0.13
691.721	0.13
692.043	0.13
692.365	0.12
692.687	0.12
693.009	0.12
693.331	0.11
693.653	0.11
693.974	0.11
694.296	0.12
694.618	0.11
694.939	0.11
695.261	0.11
695.582	0.11
695.904	0.11
696.225	0.11
696.546	0.11
696.868	0.11
697.189	0.11
697.51	0.11
697.831	0.11
698.152	0.1
698.473	0.1
698.794	0.1
699.114	0.1
699.435	0.09
699.756	0.09
700.077	0.09
700.397	0.09
700.718	0.09
701.038	0.09
701.359	0.09
701.679	0.09
701.999	0.08
702.32	0.09
702.64	0.09
702.96	0.09
703.28	0.09
703.6	0.08
703.92	0.08
704.24	0.08
704.56	0.08
704.879	0.08
705.199	0.08
705.519	0.08
705.838	0.08
706.158	0.08
706.478	0.08
706.797	0.08
707.116	0.08
707.436	0.08
707.755	0.07
708.074	0.08
708.393	0.07
708.712	0.08
709.031	0.08
709.35	0.08
709.669	0.07
709.988	0.07
710.307	0.07
710.626	0.08
710.944	0.08
711.263	0.08
711.582	0.08
711.9	0.08
712.219	0.08
712.537	0.08
712.855	0.08
713.174	0.09
713.492	0.08
713.81	0.08
714.128	0.08
714.446	0.08
714.764	0.08
715.082	0.08
715.4	0.08
715.718	0.08
716.035	0.08
716.353	0.08
716.671	0.08
716.988	0.08
717.306	0.08
717.623	0.08
717.941	0.08
718.258	0.08
718.575	0.08
718.893	0.08
719.21	0.08
719.527	0.08
719.844	0.08
720.161	0.08
720.478	0.08
720.795	0.08
721.112	0.08
721.428	0.08
721.745	0.08
722.062	0.08
722.378	0.08
722.695	0.08
723.011	0.08
723.328	0.08
723.644	0.08
723.96	0.08
724.276	0.08
724.593	0.08
724.909	0.08
725.225	0.08
725.541	0.08
725.857	0.08
726.173	0.09
726.488	0.09
726.804	0.09
727.12	0.09
727.435	0.09
727.751	0.09
728.067	0.09
728.382	0.09
728.697	0.09
729.013	0.09
729.328	0.09
729.643	0.09
729.958	0.09
730.273	0.09
730.588	0.09
730.903	0.09
731.218	0.09
731.533	0.08
731.848	0.08
732.163	0.08
732.477	0.08
732.792	0.09
733.107	0.08
733.421	0.09
733.736	0.09
734.05	0.08
734.364	0.08
734.678	0.08
734.993	0.08
735.307	0.08
735.621	0.08
735.935	0.08
736.249	0.08
736.563	0.08
736.877	0.09
737.19	0.09
737.504	0.08
737.818	0.08
738.131	0.08
738.445	0.08
738.758	0.07
739.072	0.07
739.385	0.08
739.698	0.08
740.012	0.08
740.325	0.08
740.638	0.08
740.951	0.07
741.264	0.07
741.577	0.07
741.89	0.08
742.203	0.08
742.515	0.08
742.828	0.08
743.141	0.08
743.453	0.07
743.766	0.08
744.078	0.08
744.391	0.08
744.703	0.08
745.015	0.07
745.327	0.07
745.639	0.07
745.952	0.07
746.264	0.07
746.575	0.08
746.887	0.07
747.199	0.07
747.511	0.07
747.823	0.07
748.134	0.07
748.446	0.06
748.757	0.06
749.069	0.06
749.38	0.06
749.692	0.06
750.003	0.06
750.314	0.06
750.625	0.06
750.936	0.05
751.248	0.05
751.559	0.06
751.869	0.05
752.18	0.06
752.491	0.05
752.802	0.05
753.112	0.05
753.423	0.05
753.734	0.06
754.044	0.06
754.355	0.05
754.665	0.05
754.975	0.05
755.285	0.05
755.596	0.05
755.906	0.04
756.216	0.04
756.526	0.04
756.836	0.04
757.146	0.04
757.455	0.04
757.765	0.04
758.075	0.04
758.385	0.04
758.694	0.04
759.004	0.03
759.313	0.04
759.622	0.03
759.932	0.03
760.241	0.03
760.55	0.03
760.859	0.03
761.168	0.03
761.477	0.03
761.786	0.03
762.095	0.03
762.404	0.03
762.713	0.04
763.021	0.03
763.33	0.03
763.639	0.03
763.947	0.03
764.256	0.03
764.564	0.03
764.872	0.03
765.181	0.03
765.489	0.03
765.797	0.03
766.105	0.03
766.413	0.02
766.721	0.02
767.029	0.02
767.337	0.02
767.644	0.03
767.952	0.02
768.26	0.02
768.567	0.02
768.875	0.02
769.182	0.02
769.49	0.02
769.797	0.02
770.104	0.02
770.411	0.02
770.718	0.02
771.026	0.02
771.333	0.02
771.639	0.01
771.946	0.01
772.253	0.01
772.56	0.01
772.867	0.01
773.173	0.01
773.48	0.02
773.786	0.02
774.093	0.02
774.399	0.02
774.705	0.02
775.012	0.02
775.318	0.01
775.624	0.01
775.93	0.01
776.236	0.01
776.542	0.01
776.848	0.01
777.154	0.01
777.459	0.01
777.765	0.01
778.071	0.01
778.376	0.01
778.682	0
778.987	0
779.292	0
779.598	0.01
779.903	0.01
780.208	0.01
780.513	0.01
780.818	0.01
781.123	0.02
781.428	0.02
781.733	0.01
782.038	0.01
782.343	0.01
782.647	0.01
782.952	0.01
783.256	0.01
783.561	0.01
783.865	0.01
784.17	0.01
784.474	0.01
784.778	0.01
785.082	0.01
785.386	0.01
785.69	0.01
785.994	0.01
786.298	0.01
786.602	0.01
786.906	0.01
787.209	0.01
787.513	0.01
787.817	0.02
788.12	0.01
788.424	0.01
788.727	0.02
789.03	0.01
789.333	0.01
789.637	0.02
789.94	0.02
790.243	0.02
790.546	0.02
790.849	0.02
791.152	0.02
791.454	0.02
791.757	0.02
792.06	0.02
792.362	0.02
792.665	0.01
792.967	0.01
793.27	0.01
793.572	0.01
793.874	0.01
794.177	0
794.479	0
794.781	-0
795.083	-0
795.385	-0
795.687	0
795.989	0
796.29	0
796.592	0
796.894	0.01
797.195	0.01
797.497	-0
797.798	-0
798.1	-0.01
798.401	-0
798.702	-0.01
799.003	-0.01
799.304	-0.01
799.605	-0
799.906	0
800.207	0
800.508	0.01
800.809	0.01
801.11	0.01
801.41	0.01
801.711	0.01
802.011	0.01
802.312	0.01
802.612	0.01
802.913	0.02
803.213	0.02
803.513	0.01
803.813	0.02
804.113	0.01
804.413	0.01
804.713	0.01
805.013	0
805.313	0
805.613	0
805.912	0
806.212	0
806.511	0
806.811	0
807.11	0
807.41	0.01
807.709	0.01
808.008	0
808.307	0
808.606	0
808.905	0
809.204	-0
809.503	-0
809.802	-0
810.101	-0
810.399	0
810.698	0
810.997	-0
811.295	0
811.593	-0
811.892	-0
812.19	-0
812.488	0
812.786	0
813.084	0
813.383	-0
813.68	-0
813.978	0
814.276	-0
814.574	0
814.872	-0
815.169	-0.01
815.467	-0
815.764	-0
816.062	0
816.359	0
816.656	0.01
816.954	0.01
817.251	0.01
817.548	0
817.845	-0
818.142	-0
818.439	0
818.735	-0
819.032	0
819.329	-0
819.626	-0
819.922	-0
820.219	0
820.515	-0.01
820.811	-0.01
821.108	-0
821.404	-0.01
821.7	0
821.996	-0
822.292	-0
822.588	-0
822.884	-0
823.18	-0
823.475	-0
823.771	0.01
824.067	0
824.362	0.01
824.658	0.01
824.953	0
825.249	0.01
825.544	0.01
825.839	0.01
826.134	0.01
826.429	0.02
826.724	0.02
827.019	0.01
827.314	0
827.609	-0.01
827.904	-0
828.198	-0
828.493	-0.01
828.787	0
829.082	-0
829.376	-0.01
829.671	-0
829.965	0.01
830.259	0.01
830.553	0.01
830.847	0.01
831.141	0.01
831.435	-0
831.729	0
832.023	-0
832.317	0
832.61	0
832.904	-0.01
833.197	-0
833.491	0.01
833.784	0
834.077	0.01
834.371	-0
834.664	-0.01
834.957	-0.01
835.25	-0.01
835.543	-0
835.836	0
836.129	-0.01
836.421	-0
836.714	-0.01
837.007	-0.01
837.299	-0.01
837.592	0
837.884	-0
838.177	0.01
838.469	-0
838.761	0
839.053	-0
839.345	0
839.637	0
839.929	-0
840.221	0
840.513	0
840.805	0
841.096	0
841.388	0
841.68	0.01
841.971	-0
842.262	-0
842.554	0.01
842.845	0.01
843.136	0
843.427	-0.01
843.718	0
844.009	0
844.3	-0
844.591	-0.01
844.882	-0
845.173	-0
845.463	0
845.754	-0
846.044	-0.02
846.335	-0
846.625	-0
846.915	-0.01
847.206	0
847.496	-0.01
847.786	0
848.076	-0
848.366	-0
848.656	-0
848.945	-0
849.235	-0
849.525	-0.01
849.814	-0.01
850.104	-0
850.393	-0.01
850.683	-0.02
850.972	-0
851.261	-0.01
851.551	-0
851.84	-0.01
852.129	0.01
852.418	-0
852.707	0.01
852.995	0.01
853.284	0.01
853.573	0
853.862	-0
854.15	-0.01
854.439	-0.01
854.727	-0
855.015	-0.01
855.304	-0.01
855.592	-0.02
855.88	-0.01
856.168	-0
856.456	-0.01
856.744	0.01
857.032	-0.01
857.32	-0.01
857.607	-0.01
857.895	-0.04
858.183	-0.01
858.47	-0.02
858.757	-0.02
859.045	0
859.332	-0.01
859.619	0.01
859.907	-0.03
860.194	-0.01
860.481	-0.03
860.768	-0.03
861.054	-0.02
861.341	-0.02
861.628	-0.02
861.915	-0.02
862.201	-0
862.488	0
862.774	-0.01
863.061	-0.03
863.347	-0.01
863.633	-0.03
863.919	0.02
864.205	0
864.491	0.01
864.777	0
865.063	0.02
865.349	-0.02
865.635	-0.03
865.92	-0.04
866.206	-0.02
866.492	-0.04
866.777	-0.01
867.062	-0.04
867.348	0.01
867.633	-0
867.918	-0.05
868.203	-0.02
868.488	0.01
868.773	0
869.058	-0.05
869.343	-0.03
869.628	-0.02
869.912	-0.03
870.197	0.03
870.482	-0.02
870.766	-0.02
871.05	-0.03
871.335	-0.01
871.619	-0.02
871.903	-0.01
872.187	-0.09
872.471	-0.03
872.755	-0.05
873.039	-0.06
873.323	-0.07
873.607	-0.01
873.89	0.09
874.174	0.03
874.458	0.01
874.741	-0
875.024	0.02
875.308	0.02
875.591	-0.01
875.874	-0.02
876.157	-0.05
876.44	-0.05
876.723	-0.04
877.006	-0.08
877.289	-0.05
877.572	0
877.854	-0.08
878.137	-0.01
878.42	0.08
878.702	-0.13
878.984	-0
879.267	0.04
879.549	-0.13
879.831	-0.08
880.113	-0.03
880.395	-0.11
880.677	-0.18
880.959	0.05
