Data from Rubpy_EV_1200_EDTA_Absorbance_12-47-42-740.txt Node
Date: Mon Jun 29 12:47:42 BST 2026
User: fpm-admin
Spectrometer: OFX00224
Trigger mode: 0
Integration Time (sec): 7.000000E-2
Scans to average: 3
Nonlinearity correction enabled: false
Boxcar width: 0
Storing dark spectrum: false
XAxis mode: Wavelengths
Number of Pixels in Spectrum: 2136
>>>>>Begin Spectral Data<<<<<
154.91	-0
155.289	0.38
155.669	-0
156.048	0.89
156.428	-0
156.807	-0
157.186	0.98
157.566	-0
157.945	-0.56
158.325	0.05
158.704	-0
159.083	-0
159.462	0.07
159.842	-0.13
160.221	-0
160.6	-0
160.979	-0
161.359	-0.18
161.738	-0
162.117	0.14
162.496	-0
162.875	0.83
163.254	-0.21
163.633	0.53
164.012	-0
164.391	-0
164.77	-0
165.149	0.2
165.528	1.14
165.907	0.38
166.286	0.16
166.665	-0.24
167.044	0.52
167.423	-0
167.802	0.4
168.181	0.41
168.559	-0.6
168.938	0.19
169.317	-0
169.696	-0
170.074	-0
170.453	-0
170.832	0.87
171.21	0.07
171.589	-0
171.968	-0.26
172.346	-0
172.725	-0.03
173.103	-0
173.482	-0
173.861	-0.63
174.239	0.32
174.617	-0
174.996	0.48
175.374	-0.14
175.753	-0
176.131	-0.93
176.51	0.12
176.888	-0
177.266	-0
177.645	0.05
178.023	0.41
178.401	-0.1
178.779	0.13
179.158	0.1
179.536	-0
179.914	0.28
180.292	-0
180.67	-0
181.048	-0.36
181.427	-0
181.805	-0
182.183	-0.14
182.561	0.33
182.939	-0.08
183.317	-0.8
183.695	-0
184.073	-0
184.451	-0.95
184.829	-0.31
185.206	-0.15
185.584	-0.63
185.962	-0.71
186.34	-0
186.718	-0
187.096	-1.53
187.473	-0
187.851	-0
188.229	-0
188.607	0.04
188.984	0.01
189.362	-0
189.74	0.04
190.117	-0.07
190.495	0.05
190.872	-0.05
191.25	0.05
191.627	0.01
192.005	0.05
192.382	0.05
192.76	0.04
193.137	0.07
193.515	-0.09
193.892	0.07
194.269	0.01
194.647	0.02
195.024	-0.08
195.401	0.01
195.779	-0.07
196.156	0.1
196.533	-0.06
196.91	-0.03
197.288	0.05
197.665	0.12
198.042	0.03
198.419	0.02
198.796	0.07
199.173	0.05
199.55	-0
199.927	0.11
200.304	0.09
200.681	0.07
201.058	-0.02
201.435	0.19
201.812	0.12
202.189	0.01
202.566	0.07
202.943	0.05
203.32	0.11
203.697	0.11
204.073	0.01
204.45	0.03
204.827	0.13
205.204	0.09
205.58	0.02
205.957	-0
206.334	0.01
206.71	0.09
207.087	0.13
207.464	0.08
207.84	0.08
208.217	0.16
208.593	0.06
208.97	-0.09
209.346	0.15
209.723	0.03
210.099	0.11
210.476	0.06
210.852	0.02
211.228	0.02
211.605	0.09
211.981	0.07
212.357	0.04
212.733	0.07
213.11	0.01
213.486	-0.02
213.862	0.1
214.238	0.12
214.614	0.16
214.991	-0.01
215.367	0.06
215.743	-0.12
216.119	-0
216.495	0.02
216.871	0.06
217.247	-0.04
217.623	-0
217.999	0.04
218.375	0.23
218.751	-0.01
219.127	0
219.502	0.06
219.878	-0.04
220.254	0.03
220.63	0.12
221.006	0.07
221.381	-0.04
221.757	0.08
222.133	0.06
222.508	0.06
222.884	0.04
223.26	0.02
223.635	0.01
224.011	-0.04
224.386	-0
224.762	0.03
225.137	0.03
225.513	0.13
225.888	0.04
226.264	0.06
226.639	0.02
227.014	0.02
227.39	0.02
227.765	0.13
228.14	0.08
228.516	0.04
228.891	0.07
229.266	0.14
229.641	-0.03
230.017	0.02
230.392	0.08
230.767	-0.03
231.142	0.06
231.517	0.01
231.892	0.1
232.267	0.01
232.642	-0.05
233.017	0.11
233.392	0.12
233.767	0.13
234.142	0
234.517	-0
234.892	-0.03
235.267	-0.02
235.641	0.02
236.016	-0.08
236.391	0.07
236.766	0.06
237.14	0.01
237.515	0.1
237.89	0.09
238.264	0.06
238.639	0.01
239.014	-0.02
239.388	0.14
239.763	0.03
240.137	0
240.512	0.05
240.886	0.07
241.261	0.16
241.635	0.08
242.009	0.12
242.384	0.17
242.758	0.03
243.132	-0.06
243.507	0.07
243.881	0.03
244.255	0
244.629	0.03
245.004	0.01
245.378	0.12
245.752	0.01
246.126	0.05
246.5	0.06
246.874	0.18
247.248	0.04
247.622	-0.1
247.996	0.05
248.37	-0
248.744	0.22
249.118	0.06
249.492	0.01
249.866	0.02
250.24	0.03
250.613	-0.04
250.987	0.16
251.361	0.08
251.735	0.05
252.108	0.12
252.482	0.1
252.856	0.06
253.229	0.15
253.603	0.05
253.977	-0.04
254.35	0.08
254.724	0.08
255.097	0.17
255.471	0.13
255.844	0.21
256.218	0
256.591	0.11
256.964	-0.03
257.338	0.05
257.711	0.03
258.084	0.1
258.458	0.07
258.831	0.05
259.204	0.11
259.577	0.01
259.95	0.02
260.323	0.05
260.697	0.1
261.07	0.16
261.443	0.05
261.816	0.02
262.189	0.01
262.562	0.1
262.935	0.09
263.308	0.03
263.68	0.08
264.053	0.07
264.426	0.05
264.799	0.07
265.172	0.04
265.545	0.02
265.917	0.07
266.29	0.07
266.663	0.05
267.035	0.12
267.408	0.01
267.781	0.12
268.153	0.13
268.526	0.14
268.898	0.06
269.271	-0.02
269.643	0.04
270.016	0.05
270.388	0.06
270.76	0.07
271.133	0.01
271.505	0.01
271.877	-0.01
272.25	0
272.622	0.05
272.994	0.01
273.366	0.12
273.739	0.04
274.111	0.09
274.483	0.01
274.855	0.04
275.227	-0.02
275.599	-0.03
275.971	0.06
276.343	0.1
276.715	0.1
277.087	0.01
277.459	0.15
277.831	0.06
278.203	0.08
278.574	0.07
278.946	0.06
279.318	0.17
279.69	0.09
280.061	0.06
280.433	0.06
280.805	0.05
281.176	0.1
281.548	0.04
281.92	0.04
282.291	-0.01
282.663	0.16
283.034	0.08
283.406	0.03
283.777	0.04
284.148	0.11
284.52	0.13
284.891	0.11
285.262	0.06
285.634	0.08
286.005	0.08
286.376	0.11
286.747	0.01
287.119	0.02
287.49	0.05
287.861	0.07
288.232	0.09
288.603	0.09
288.974	0.08
289.345	0.04
289.716	0.03
290.087	0.07
290.458	-0
290.829	0.07
291.2	-0.02
291.571	0.05
291.941	0.01
292.312	0.11
292.683	0.05
293.054	0.04
293.424	-0.02
293.795	0.1
294.166	0.07
294.536	0.05
294.907	0.1
295.277	0.02
295.648	0.01
296.018	0.05
296.389	0.05
296.759	0
297.13	0.11
297.5	0.08
297.871	0.04
298.241	0.01
298.611	0.06
298.981	0.05
299.352	0.02
299.722	0.03
300.092	0.05
300.462	0.06
300.832	0.02
301.202	0.04
301.573	0.01
301.943	0.02
302.313	0.04
302.683	0.02
303.053	0.02
303.422	0.04
303.792	0.03
304.162	0.03
304.532	0.04
304.902	0.02
305.272	0.03
305.641	0.03
306.011	0.03
306.381	0.05
306.75	0.03
307.12	0.04
307.49	0.03
307.859	0.03
308.229	0.04
308.598	0.04
308.968	0.04
309.337	0.03
309.707	0.04
310.076	0.04
310.445	0.04
310.815	0.05
311.184	0.04
311.553	0.04
311.923	0.05
312.292	0.04
312.661	0.04
313.03	0.04
313.399	0.05
313.768	0.04
314.137	0.04
314.506	0.04
314.875	0.04
315.244	0.04
315.613	0.04
315.982	0.04
316.351	0.04
316.72	0.04
317.089	0.04
317.458	0.04
317.826	0.04
318.195	0.03
318.564	0.03
318.933	0.04
319.301	0.04
319.67	0.04
320.038	0.04
320.407	0.04
320.775	0.04
321.144	0.04
321.512	0.03
321.881	0.04
322.249	0.04
322.618	0.04
322.986	0.03
323.354	0.03
323.723	0.03
324.091	0.03
324.459	0.03
324.827	0.03
325.195	0.03
325.564	0.03
325.932	0.03
326.3	0.03
326.668	0.03
327.036	0.03
327.404	0.02
327.772	0.03
328.14	0.03
328.508	0.03
328.875	0.03
329.243	0.03
329.611	0.03
329.979	0.03
330.346	0.03
330.714	0.03
331.082	0.03
331.449	0.04
331.817	0.03
332.185	0.03
332.552	0.03
332.92	0.03
333.287	0.04
333.655	0.03
334.022	0.03
334.389	0.04
334.757	0.03
335.124	0.03
335.491	0.03
335.859	0.03
336.226	0.04
336.593	0.04
336.96	0.03
337.327	0.03
337.695	0.04
338.062	0.04
338.429	0.04
338.796	0.04
339.163	0.04
339.53	0.04
339.897	0.04
340.263	0.04
340.63	0.04
340.997	0.04
341.364	0.04
341.731	0.04
342.097	0.04
342.464	0.04
342.831	0.05
343.197	0.04
343.564	0.04
343.931	0.04
344.297	0.05
344.664	0.05
345.03	0.05
345.396	0.05
345.763	0.05
346.129	0.05
346.496	0.05
346.862	0.05
347.228	0.05
347.594	0.05
347.961	0.06
348.327	0.05
348.693	0.06
349.059	0.06
349.425	0.05
349.791	0.06
350.157	0.06
350.523	0.06
350.889	0.06
351.255	0.07
351.621	0.07
351.987	0.07
352.353	0.07
352.719	0.07
353.084	0.07
353.45	0.07
353.816	0.08
354.181	0.08
354.547	0.08
354.913	0.08
355.278	0.08
355.644	0.08
356.009	0.08
356.375	0.09
356.74	0.09
357.106	0.09
357.471	0.1
357.836	0.09
358.202	0.1
358.567	0.1
358.932	0.1
359.297	0.1
359.663	0.1
360.028	0.11
360.393	0.11
360.758	0.11
361.123	0.11
361.488	0.12
361.853	0.11
362.218	0.11
362.583	0.12
362.948	0.12
363.312	0.12
363.677	0.12
364.042	0.12
364.407	0.12
364.772	0.13
365.136	0.13
365.501	0.13
365.865	0.14
366.23	0.14
366.595	0.15
366.959	0.15
367.324	0.15
367.688	0.15
368.052	0.16
368.417	0.15
368.781	0.17
369.145	0.17
369.51	0.17
369.874	0.16
370.238	0.17
370.602	0.17
370.967	0.17
371.331	0.16
371.695	0.17
372.059	0.16
372.423	0.16
372.787	0.16
373.151	0.17
373.515	0.16
373.878	0.17
374.242	0.16
374.606	0.17
374.97	0.16
375.334	0.16
375.697	0.17
376.061	0.17
376.425	0.17
376.788	0.17
377.152	0.17
377.515	0.17
377.879	0.17
378.242	0.18
378.606	0.18
378.969	0.19
379.333	0.18
379.696	0.19
380.059	0.19
380.422	0.19
380.786	0.2
381.149	0.2
381.512	0.21
381.875	0.21
382.238	0.21
382.601	0.22
382.964	0.23
383.327	0.24
383.69	0.24
384.053	0.25
384.416	0.26
384.779	0.26
385.142	0.27
385.504	0.27
385.867	0.28
386.23	0.28
386.593	0.29
386.955	0.28
387.318	0.29
387.68	0.28
388.043	0.28
388.405	0.28
388.768	0.27
389.13	0.28
389.493	0.27
389.855	0.27
390.217	0.27
390.58	0.27
390.942	0.27
391.304	0.27
391.666	0.28
392.028	0.28
392.391	0.29
392.753	0.3
393.115	0.3
393.477	0.32
393.839	0.33
394.201	0.35
394.563	0.36
394.924	0.37
395.286	0.38
395.648	0.4
396.01	0.41
396.371	0.43
396.733	0.44
397.095	0.44
397.456	0.45
397.818	0.44
398.18	0.44
398.541	0.43
398.903	0.42
399.264	0.41
399.625	0.4
399.987	0.38
400.348	0.37
400.709	0.34
401.071	0.33
401.432	0.31
401.793	0.29
402.154	0.26
402.515	0.25
402.876	0.23
403.238	0.21
403.599	0.2
403.96	0.19
404.32	0.17
404.681	0.15
405.042	0.15
405.403	0.14
405.764	0.13
406.125	0.12
406.485	0.11
406.846	0.1
407.207	0.1
407.567	0.09
407.928	0.09
408.288	0.08
408.649	0.07
409.009	0.07
409.37	0.07
409.73	0.06
410.091	0.06
410.451	0.06
410.811	0.06
411.171	0.05
411.532	0.05
411.892	0.05
412.252	0.05
412.612	0.05
412.972	0.05
413.332	0.04
413.692	0.05
414.052	0.04
414.412	0.04
414.772	0.04
415.132	0.04
415.492	0.03
415.851	0.03
416.211	0.03
416.571	0.02
416.931	0.03
417.29	0.03
417.65	0.03
418.009	0.04
418.369	0.03
418.728	0.03
419.088	0.03
419.447	0.02
419.807	0.03
420.166	0.02
420.525	0.03
420.884	0.03
421.244	0.02
421.603	0.02
421.962	0.03
422.321	0.02
422.68	0.02
423.039	0.03
423.398	0.02
423.757	0.02
424.116	0.02
424.475	0.02
424.834	0.02
425.193	0.02
425.551	0.01
425.91	0.02
426.269	0.02
426.628	0.02
426.986	0.02
427.345	0.02
427.703	0.02
428.062	0.02
428.42	0.02
428.779	0.02
429.137	0.03
429.496	0.02
429.854	0.01
430.212	0.01
430.57	0.02
430.929	0.02
431.287	0.01
431.645	0.01
432.003	0.01
432.361	0.02
432.719	0.02
433.077	0.01
433.435	0.01
433.793	0.01
434.151	0.01
434.509	0.02
434.866	0.01
435.224	0.02
435.582	0.02
435.94	0.01
436.297	0.02
436.655	0.02
437.012	0.01
437.37	0.01
437.727	0.02
438.085	0.01
438.442	0.02
438.8	0.01
439.157	0.01
439.514	0.01
439.872	0.02
440.229	0.02
440.586	0.01
440.943	0.01
441.3	0.02
441.657	0.01
442.014	0.01
442.371	0.01
442.728	0.01
443.085	0.02
443.442	0.01
443.799	0.02
444.156	0.01
444.513	0.01
444.869	0.02
445.226	0.01
445.583	0.01
445.939	0.01
446.296	0.01
446.652	0.01
447.009	0.01
447.365	0.01
447.722	0
448.078	0.01
448.434	0.01
448.791	0.01
449.147	0.02
449.503	0.01
449.859	0.01
450.215	0.01
450.571	0
450.928	0.01
451.284	0.01
451.64	0.01
451.995	-0
452.351	0.01
452.707	0
453.063	0.01
453.419	0.01
453.775	0.01
454.13	0
454.486	0
454.842	-0
455.197	-0
455.553	0
455.908	0.01
456.264	-0
456.619	0
456.975	0.01
457.33	0.01
457.685	0
458.04	0
458.396	-0
458.751	-0
459.106	-0
459.461	0.01
459.816	0
460.171	-0.01
460.526	0
460.881	0
461.236	-0
461.591	-0
461.946	0.01
462.301	-0
462.655	0
463.01	-0
463.365	-0
463.719	-0
464.074	-0.01
464.428	-0.01
464.783	-0.01
465.137	-0.01
465.492	-0.01
465.846	-0.01
466.201	-0.01
466.555	-0.01
466.909	-0
467.263	-0
467.618	-0
467.972	-0.01
468.326	-0.01
468.68	-0.01
469.034	-0.01
469.388	-0.01
469.742	-0.02
470.096	-0
470.45	-0.01
470.804	-0.01
471.157	-0.01
471.511	-0.02
471.865	-0.01
472.218	-0.01
472.572	-0.01
472.926	-0.01
473.279	-0
473.633	-0.01
473.986	-0.01
474.34	-0
474.693	-0.01
475.046	-0
475.4	-0
475.753	0
476.106	-0
476.459	-0.01
476.812	-0
477.165	-0
477.519	-0
477.872	0
478.224	0.01
478.577	0
478.93	-0
479.283	0
479.636	0.01
479.989	0.01
480.341	0.01
480.694	0.01
481.047	0.01
481.399	0.01
481.752	0
482.104	0.01
482.457	0.01
482.809	0.01
483.162	0.01
483.514	0
483.866	0.01
484.219	0.01
484.571	0.01
484.923	0.01
485.275	0.01
485.627	0.01
485.979	0.01
486.331	0.01
486.683	0.01
487.035	0.01
487.387	0.01
487.739	0.02
488.091	0.02
488.443	0.01
488.794	0.02
489.146	0.01
489.498	0.02
489.849	0.01
490.201	0.02
490.552	0.01
490.904	0.01
491.255	0.01
491.607	0.02
491.958	0.01
492.309	0.02
492.661	0.02
493.012	0.02
493.363	0.01
493.714	0.02
494.065	0.02
494.416	0.02
494.767	0.02
495.118	0.02
495.469	0.02
495.82	0.02
496.171	0.02
496.522	0.02
496.872	0.02
497.223	0.02
497.574	0.02
497.924	0.02
498.275	0.02
498.626	0.02
498.976	0.02
499.327	0.02
499.677	0.02
500.027	0.02
500.378	0.02
500.728	0.02
501.078	0.02
501.428	0.03
501.779	0.02
502.129	0.03
502.479	0.02
502.829	0.02
503.179	0.03
503.529	0.03
503.879	0.02
504.229	0.03
504.578	0.03
504.928	0.03
505.278	0.03
505.628	0.03
505.977	0.03
506.327	0.02
506.676	0.03
507.026	0.03
507.375	0.03
507.725	0.03
508.074	0.03
508.424	0.04
508.773	0.03
509.122	0.04
509.471	0.03
509.82	0.03
510.17	0.03
510.519	0.03
510.868	0.03
511.217	0.03
511.566	0.04
511.915	0.03
512.263	0.03
512.612	0.04
512.961	0.04
513.31	0.03
513.659	0.03
514.007	0.04
514.356	0.03
514.704	0.04
515.053	0.04
515.401	0.04
515.75	0.04
516.098	0.04
516.447	0.04
516.795	0.04
517.143	0.04
517.491	0.04
517.839	0.04
518.188	0.04
518.536	0.04
518.884	0.04
519.232	0.05
519.58	0.04
519.928	0.04
520.275	0.05
520.623	0.04
520.971	0.05
521.319	0.04
521.666	0.05
522.014	0.04
522.362	0.04
522.709	0.04
523.057	0.04
523.404	0.04
523.752	0.05
524.099	0.05
524.446	0.05
524.794	0.05
525.141	0.05
525.488	0.05
525.835	0.05
526.182	0.04
526.529	0.05
526.876	0.05
527.223	0.05
527.57	0.05
527.917	0.05
528.264	0.05
528.611	0.05
528.958	0.05
529.304	0.06
529.651	0.05
529.998	0.06
530.344	0.06
530.691	0.05
531.037	0.06
531.384	0.06
531.73	0.06
532.076	0.06
532.423	0.06
532.769	0.05
533.115	0.05
533.461	0.06
533.807	0.06
534.154	0.06
534.5	0.06
534.846	0.06
535.192	0.06
535.537	0.07
535.883	0.06
536.229	0.06
536.575	0.06
536.921	0.07
537.266	0.07
537.612	0.07
537.957	0.07
538.303	0.07
538.649	0.06
538.994	0.06
539.339	0.07
539.685	0.07
540.03	0.06
540.375	0.06
540.721	0.07
541.066	0.07
541.411	0.07
541.756	0.07
542.101	0.07
542.446	0.07
542.791	0.07
543.136	0.07
543.481	0.08
543.825	0.07
544.17	0.07
544.515	0.07
544.86	0.07
545.204	0.07
545.549	0.08
545.893	0.08
546.238	0.08
546.582	0.08
546.927	0.08
547.271	0.08
547.615	0.08
547.96	0.08
548.304	0.08
548.648	0.08
548.992	0.08
549.336	0.08
549.68	0.09
550.024	0.08
550.368	0.08
550.712	0.09
551.056	0.09
551.4	0.08
551.743	0.08
552.087	0.08
552.431	0.09
552.774	0.09
553.118	0.09
553.462	0.09
553.805	0.09
554.148	0.09
554.492	0.09
554.835	0.09
555.178	0.09
555.522	0.09
555.865	0.09
556.208	0.09
556.551	0.09
556.894	0.09
557.237	0.09
557.58	0.09
557.923	0.09
558.266	0.09
558.609	0.1
558.952	0.09
559.294	0.09
559.637	0.1
559.98	0.1
560.322	0.1
560.665	0.1
561.007	0.1
561.35	0.1
561.692	0.09
562.034	0.1
562.377	0.1
562.719	0.1
563.061	0.1
563.403	0.1
563.745	0.1
564.088	0.1
564.43	0.1
564.772	0.09
565.113	0.1
565.455	0.1
565.797	0.1
566.139	0.1
566.481	0.1
566.822	0.1
567.164	0.1
567.506	0.1
567.847	0.1
568.189	0.1
568.53	0.1
568.872	0.1
569.213	0.1
569.554	0.1
569.895	0.1
570.237	0.1
570.578	0.1
570.919	0.1
571.26	0.1
571.601	0.1
571.942	0.1
572.283	0.1
572.624	0.1
572.965	0.1
573.306	0.11
573.646	0.1
573.987	0.1
574.328	0.1
574.668	0.1
575.009	0.1
575.349	0.1
575.69	0.1
576.03	0.1
576.37	0.1
576.711	0.1
577.051	0.1
577.391	0.1
577.731	0.1
578.072	0.11
578.412	0.11
578.752	0.1
579.092	0.1
579.431	0.1
579.771	0.1
580.111	0.1
580.451	0.1
580.791	0.1
581.13	0.1
581.47	0.11
581.81	0.11
582.149	0.1
582.489	0.1
582.828	0.1
583.167	0.1
583.507	0.1
583.846	0.1
584.185	0.1
584.525	0.1
584.864	0.11
585.203	0.11
585.542	0.11
585.881	0.11
586.22	0.11
586.559	0.11
586.898	0.11
587.236	0.1
587.575	0.11
587.914	0.11
588.252	0.11
588.591	0.11
588.93	0.11
589.268	0.11
589.607	0.11
589.945	0.11
590.283	0.11
590.622	0.11
590.96	0.12
591.298	0.12
591.636	0.11
591.974	0.12
592.313	0.11
592.651	0.12
592.989	0.12
593.326	0.12
593.664	0.12
594.002	0.12
594.34	0.12
594.678	0.12
595.015	0.12
595.353	0.12
595.691	0.12
596.028	0.12
596.366	0.12
596.703	0.12
597.04	0.12
597.378	0.12
597.715	0.12
598.052	0.12
598.389	0.12
598.726	0.13
599.064	0.13
599.401	0.13
599.738	0.13
600.074	0.13
600.411	0.13
600.748	0.13
601.085	0.13
601.422	0.13
601.758	0.13
602.095	0.13
602.432	0.13
602.768	0.13
603.105	0.13
603.441	0.13
603.777	0.13
604.114	0.13
604.45	0.13
604.786	0.13
605.122	0.13
605.459	0.13
605.795	0.13
606.131	0.13
606.467	0.13
606.803	0.13
607.139	0.13
607.474	0.13
607.81	0.13
608.146	0.13
608.482	0.13
608.817	0.13
609.153	0.12
609.488	0.13
609.824	0.12
610.159	0.12
610.495	0.12
610.83	0.12
611.165	0.12
611.5	0.12
611.836	0.12
612.171	0.12
612.506	0.12
612.841	0.12
613.176	0.12
613.511	0.12
613.845	0.12
614.18	0.12
614.515	0.12
614.85	0.12
615.184	0.12
615.519	0.12
615.854	0.12
616.188	0.12
616.523	0.12
616.857	0.12
617.191	0.12
617.526	0.12
617.86	0.12
618.194	0.12
618.528	0.12
618.862	0.12
619.196	0.12
619.53	0.12
619.864	0.12
620.198	0.11
620.532	0.11
620.866	0.11
621.2	0.11
621.533	0.11
621.867	0.12
622.201	0.11
622.534	0.11
622.868	0.11
623.201	0.11
623.534	0.11
623.868	0.11
624.201	0.11
624.534	0.11
624.868	0.11
625.201	0.11
625.534	0.11
625.867	0.1
626.2	0.11
626.533	0.11
626.865	0.11
627.198	0.11
627.531	0.11
627.864	0.11
628.196	0.11
628.529	0.11
628.862	0.11
629.194	0.1
629.527	0.1
629.859	0.11
630.191	0.1
630.524	0.1
630.856	0.1
631.188	0.1
631.52	0.1
631.852	0.1
632.184	0.09
632.516	0.09
632.848	0.09
633.18	0.09
633.512	0.09
633.844	0.09
634.175	0.09
634.507	0.09
634.839	0.09
635.17	0.09
635.502	0.09
635.833	0.09
636.165	0.09
636.496	0.09
636.827	0.08
637.159	0.08
637.49	0.08
637.821	0.08
638.152	0.08
638.483	0.08
638.814	0.08
639.145	0.08
639.476	0.08
639.807	0.08
640.137	0.08
640.468	0.08
640.799	0.07
641.129	0.08
641.46	0.08
641.791	0.07
642.121	0.08
642.451	0.08
642.782	0.07
643.112	0.07
643.442	0.07
643.773	0.07
644.103	0.07
644.433	0.07
644.763	0.07
645.093	0.07
645.423	0.07
645.753	0.07
646.082	0.07
646.412	0.07
646.742	0.07
647.072	0.06
647.401	0.06
647.731	0.06
648.06	0.07
648.39	0.07
648.719	0.07
649.048	0.07
649.378	0.07
649.707	0.07
650.036	0.07
650.365	0.07
650.694	0.07
651.023	0.07
651.352	0.07
651.681	0.07
652.01	0.06
652.339	0.06
652.668	0.06
652.996	0.06
653.325	0.06
653.654	0.06
653.982	0.07
654.311	0.06
654.639	0.07
654.967	0.06
655.296	0.06
655.624	0.06
655.952	0.06
656.28	0.06
656.609	0.06
656.937	0.07
657.265	0.07
657.593	0.07
657.92	0.01
658.248	-0
658.576	-0
658.904	0.04
659.231	0.06
659.559	0.06
659.887	0.07
660.214	0.06
660.542	0.07
660.869	0.06
661.196	0.06
661.524	0.07
661.851	0.07
662.178	0.07
662.505	0.07
662.832	0.07
663.159	0.07
663.486	0.07
663.813	0.07
664.14	0.07
664.467	0.07
664.794	0.07
665.12	0.07
665.447	0.07
665.774	0.06
666.1	0.06
666.427	0.06
666.753	0.06
667.079	0.06
667.406	0.06
667.732	0.06
668.058	0.06
668.384	0.06
668.71	0.06
669.036	0.06
669.362	0.06
669.688	0.06
670.014	0.06
670.34	0.06
670.666	0.06
670.991	0.06
671.317	0.06
671.643	0.06
671.968	0.06
672.294	0.06
672.619	0.06
672.945	0.06
673.27	0.06
673.595	0.06
673.92	0.06
674.246	0.06
674.571	0.06
674.896	0.06
675.221	0.06
675.546	0.06
675.87	0.06
676.195	0.06
676.52	0.06
676.845	0.06
677.169	0.06
677.494	0.06
677.819	0.05
678.143	0.06
678.468	0.05
678.792	0.05
679.116	0.05
679.44	0.05
679.765	0.05
680.089	0.05
680.413	0.05
680.737	0.05
681.061	0.05
681.385	0.05
681.709	0.05
682.033	0.04
682.356	0.05
682.68	0.04
683.004	0.04
683.327	0.05
683.651	0.04
683.974	0.05
684.298	0.05
684.621	0.04
684.944	0.04
685.268	0.04
685.591	0.04
685.914	0.04
686.237	0.04
686.56	0.04
686.883	0.04
687.206	0.04
687.529	0.04
687.852	0.04
688.175	0.04
688.497	0.04
688.82	0.04
689.142	0.04
689.465	0.04
689.787	0.04
690.11	0.04
690.432	0.04
690.755	0.04
691.077	0.04
691.399	0.04
691.721	0.04
692.043	0.04
692.365	0.04
692.687	0.04
693.009	0.04
693.331	0.03
693.653	0.03
693.974	0.03
694.296	0.03
694.618	0.03
694.939	0.03
695.261	0.04
695.582	0.04
695.904	0.03
696.225	0.03
696.546	0.03
696.868	0.04
697.189	0.03
697.51	0.03
697.831	0.03
698.152	0.03
698.473	0.03
698.794	0.03
699.114	0.03
699.435	0.03
699.756	0.03
700.077	0.02
700.397	0.02
700.718	0.02
701.038	0.02
701.359	0.02
701.679	0.02
701.999	0.02
702.32	0.02
702.64	0.03
702.96	0.02
703.28	0.02
703.6	0.02
703.92	0.02
704.24	0.02
704.56	0.02
704.879	0.02
705.199	0.02
705.519	0.02
705.838	0.02
706.158	0.03
706.478	0.02
706.797	0.02
707.116	0.02
707.436	0.02
707.755	0.02
708.074	0.02
708.393	0.02
708.712	0.02
709.031	0.02
709.35	0.02
709.669	0.02
709.988	0.02
710.307	0.02
710.626	0.03
710.944	0.03
711.263	0.03
711.582	0.03
711.9	0.03
712.219	0.03
712.537	0.03
712.855	0.03
713.174	0.03
713.492	0.03
713.81	0.03
714.128	0.03
714.446	0.03
714.764	0.03
715.082	0.03
715.4	0.02
715.718	0.02
716.035	0.03
716.353	0.03
716.671	0.03
716.988	0.03
717.306	0.03
717.623	0.02
717.941	0.02
718.258	0.03
718.575	0.02
718.893	0.02
719.21	0.02
719.527	0.02
719.844	0.02
720.161	0.02
720.478	0.02
720.795	0.02
721.112	0.02
721.428	0.02
721.745	0.02
722.062	0.02
722.378	0.02
722.695	0.02
723.011	0.02
723.328	0.02
723.644	0.02
723.96	0.02
724.276	0.02
724.593	0.02
724.909	0.02
725.225	0.03
725.541	0.02
725.857	0.02
726.173	0.03
726.488	0.03
726.804	0.03
727.12	0.03
727.435	0.03
727.751	0.03
728.067	0.03
728.382	0.02
728.697	0.03
729.013	0.03
729.328	0.03
729.643	0.02
729.958	0.03
730.273	0.03
730.588	0.03
730.903	0.02
731.218	0.03
731.533	0.02
731.848	0.02
732.163	0.02
732.477	0.02
732.792	0.02
733.107	0.02
733.421	0.02
733.736	0.02
734.05	0.02
734.364	0.02
734.678	0.02
734.993	0.02
735.307	0.03
735.621	0.03
735.935	0.03
736.249	0.02
736.563	0.02
736.877	0.03
737.19	0.03
737.504	0.03
737.818	0.02
738.131	0.02
738.445	0.02
738.758	0.02
739.072	0.02
739.385	0.02
739.698	0.02
740.012	0.02
740.325	0.02
740.638	0.02
740.951	0.02
741.264	0.02
741.577	0.02
741.89	0.02
742.203	0.02
742.515	0.02
742.828	0.02
743.141	0.02
743.453	0.02
743.766	0.02
744.078	0.02
744.391	0.02
744.703	0.02
745.015	0.02
745.327	0.02
745.639	0.02
745.952	0.02
746.264	0.02
746.575	0.02
746.887	0.02
747.199	0.03
747.511	0.02
747.823	0.02
748.134	0.02
748.446	0.02
748.757	0.03
749.069	0.03
749.38	0.02
749.692	0.02
750.003	0.02
750.314	0.02
750.625	0.02
750.936	0.02
751.248	0.02
751.559	0.02
751.869	0.02
752.18	0.02
752.491	0.02
752.802	0.02
753.112	0.02
753.423	0.02
753.734	0.02
754.044	0.02
754.355	0.02
754.665	0.02
754.975	0.02
755.285	0.02
755.596	0.01
755.906	0.01
756.216	0.01
756.526	0.01
756.836	0.01
757.146	0.01
757.455	0.01
757.765	0.01
758.075	0.01
758.385	0.01
758.694	0.01
759.004	0.01
759.313	0.01
759.622	0.01
759.932	0.01
760.241	0.01
760.55	0.01
760.859	0.01
761.168	0.01
761.477	0.01
761.786	0.01
762.095	0.01
762.404	0.01
762.713	0.01
763.021	0.01
763.33	0.02
763.639	0.01
763.947	0.01
764.256	0.01
764.564	0.01
764.872	0.01
765.181	0.01
765.489	0.01
765.797	0.01
766.105	0.01
766.413	0.01
766.721	0.01
767.029	0.01
767.337	0.01
767.644	0.01
767.952	0.01
768.26	0.01
768.567	0
768.875	0.01
769.182	0.01
769.49	0
769.797	0
770.104	0
770.411	0
770.718	0
771.026	0
771.333	0
771.639	0
771.946	0
772.253	0
772.56	-0
772.867	0
773.173	0
773.48	0.01
773.786	0
774.093	0.01
774.399	0
774.705	0
775.012	0
775.318	0
775.624	0
775.93	-0
776.236	-0
776.542	-0
776.848	-0
777.154	-0
777.459	0
777.765	0
778.071	-0
778.376	-0
778.682	-0.01
778.987	-0.01
779.292	-0
779.598	0
779.903	0
780.208	0
780.513	0
780.818	0
781.123	0.01
781.428	0.01
781.733	0.01
782.038	0.01
782.343	0.01
782.647	0.01
782.952	0.01
783.256	0
783.561	0
783.865	0
784.17	0
784.474	0.01
784.778	0
785.082	0.01
785.386	0
785.69	0
785.994	-0
786.298	0
786.602	0
786.906	0
787.209	0
787.513	0
787.817	0
788.12	0
788.424	0.01
788.727	0.01
789.03	0.01
789.333	0.01
789.637	0.01
789.94	0.01
790.243	0.01
790.546	0.01
790.849	0.01
791.152	0.01
791.454	0.01
791.757	0.01
792.06	0.01
792.362	0.01
792.665	0.01
792.967	0.01
793.27	0
793.572	0.01
793.874	0
794.177	0
794.479	-0
794.781	-0.01
795.083	-0
795.385	-0
795.687	-0
795.989	0
796.29	-0
796.592	-0
796.894	0
797.195	0
797.497	0
797.798	-0
798.1	-0
798.401	-0
798.702	-0.01
799.003	-0.01
799.304	-0
799.605	-0
799.906	-0
800.207	0
800.508	0
800.809	-0
801.11	-0
801.41	0
801.711	0
802.011	-0
802.312	-0
802.612	0
802.913	0
803.213	0.01
803.513	0
803.813	0
804.113	0
804.413	0
804.713	0
805.013	-0
805.313	0
805.613	0
805.912	0.01
806.212	0
806.511	0
806.811	-0
807.11	-0
807.41	-0
807.709	-0
808.008	-0
808.307	-0
808.606	-0
808.905	-0
809.204	-0.01
809.503	-0
809.802	-0
810.101	0
810.399	0
810.698	0.01
810.997	0
811.295	0
811.593	0
811.892	-0
812.19	-0
812.488	-0
812.786	-0
813.084	-0.01
813.383	-0.01
813.68	-0.01
813.978	-0
814.276	-0.01
814.574	-0
814.872	-0.01
815.169	-0.01
815.467	-0.01
815.764	-0.01
816.062	-0.01
816.359	-0.01
816.656	0.01
816.954	0.01
817.251	0.01
817.548	0
817.845	0
818.142	-0
818.439	-0
818.735	-0.01
819.032	-0.01
819.329	-0.01
819.626	-0.01
819.922	-0.01
820.219	-0.01
820.515	-0.01
820.811	-0.01
821.108	-0.01
821.404	-0.01
821.7	-0.01
821.996	-0.01
822.292	-0.01
822.588	-0.01
822.884	-0.01
823.18	-0
823.475	-0.01
823.771	-0
824.067	-0.01
824.362	-0
824.658	0
824.953	-0
825.249	0.01
825.544	0
825.839	0.01
826.134	0
826.429	0
826.724	0.01
827.019	0.01
827.314	-0.01
827.609	-0.01
827.904	-0
828.198	-0.01
828.493	-0
828.787	0
829.082	-0
829.376	-0.01
829.671	-0.02
829.965	-0
830.259	-0
830.553	-0
830.847	-0
831.141	-0
831.435	-0.01
831.729	-0
832.023	-0.01
832.317	-0
832.61	-0
832.904	-0.01
833.197	-0
833.491	0
833.784	0.01
834.077	0
834.371	-0
834.664	-0.01
834.957	-0.01
835.25	-0.01
835.543	-0.01
835.836	-0.01
836.129	-0.01
836.421	-0.01
836.714	-0.01
837.007	-0.01
837.299	-0.01
837.592	-0.01
837.884	-0.01
838.177	0
838.469	-0
838.761	0
839.053	-0.01
839.345	-0.01
839.637	-0
839.929	-0.01
840.221	-0
840.513	-0
840.805	-0
841.096	-0.01
841.388	0
841.68	0
841.971	0
842.262	0.01
842.554	0.01
842.845	-0.01
843.136	-0.01
843.427	-0.01
843.718	0.01
844.009	0.01
844.3	-0.01
844.591	-0
844.882	0
845.173	-0.01
845.463	-0.01
845.754	-0.01
846.044	-0.01
846.335	-0
846.625	-0.02
846.915	-0.01
847.206	-0.02
847.496	-0.01
847.786	-0.01
848.076	-0.01
848.366	-0
848.656	-0
848.945	-0.01
849.235	-0.01
849.525	-0.02
849.814	-0.02
850.104	-0.01
850.393	-0.01
850.683	-0.01
850.972	-0.01
851.261	-0.01
851.551	0
851.84	-0
852.129	0.01
852.418	-0
852.707	-0.01
852.995	0.01
853.284	0.01
853.573	-0.01
853.862	-0.01
854.15	-0.01
854.439	-0.01
854.727	-0.01
855.015	-0.02
855.304	-0.01
855.592	-0.01
855.88	-0.01
856.168	-0.01
856.456	-0.01
856.744	-0.02
857.032	-0.01
857.32	-0.02
857.607	-0.02
857.895	-0.03
858.183	-0.02
858.47	-0.02
858.757	-0.02
859.045	-0.02
859.332	-0.02
859.619	-0
859.907	-0.01
860.194	-0.03
860.481	-0.03
860.768	-0.04
861.054	-0.02
861.341	-0.02
861.628	-0.02
861.915	-0.04
862.201	0.01
862.488	0.01
862.774	-0.01
863.061	-0.02
863.347	-0.02
863.633	-0.03
863.919	0.02
864.205	-0.01
864.491	-0
864.777	0.01
865.063	-0
865.349	-0.04
865.635	-0.02
865.92	-0.02
866.206	-0.02
866.492	-0.01
866.777	-0.04
867.062	-0.07
867.348	-0.01
867.633	0.02
867.918	-0.06
868.203	0
868.488	-0.03
868.773	-0
869.058	-0.01
869.343	0
869.628	-0.04
869.912	0.02
870.197	-0.03
870.482	0.01
870.766	-0.01
871.05	-0.02
871.335	-0.04
871.619	-0.02
871.903	-0.07
872.187	-0.1
872.471	0.06
872.755	-0.01
873.039	0
873.323	-0.03
873.607	-0.02
873.89	-0.01
874.174	0.02
874.458	0.06
874.741	-0
875.024	0.02
875.308	-0.04
875.591	0
875.874	-0.08
876.157	-0.08
876.44	-0.04
876.723	0.01
877.006	-0.08
877.289	-0.04
877.572	-0.11
877.854	-0.08
878.137	-0.01
878.42	0.02
878.702	-0.09
878.984	0.01
879.267	-0.02
879.549	0.06
879.831	-0.04
880.113	-0.08
880.395	0.03
880.677	-0.13
880.959	0.1
