Data from Rubpy_EV_1200_EDTA_Absorbance_12-57-49-749.txt Node
Date: Mon Jun 29 12:57:49 BST 2026
User: fpm-admin
Spectrometer: OFX00224
Trigger mode: 0
Integration Time (sec): 7.000000E-2
Scans to average: 3
Nonlinearity correction enabled: false
Boxcar width: 0
Storing dark spectrum: false
XAxis mode: Wavelengths
Number of Pixels in Spectrum: 2136
>>>>>Begin Spectral Data<<<<<
154.91	0.3
155.289	0.54
155.669	0.73
156.048	-0
156.428	-0
156.807	-0.48
157.186	0.02
157.566	-0.62
157.945	-0
158.325	-0.03
158.704	0.58
159.083	0.28
159.462	0.15
159.842	-0
160.221	-0
160.6	-0
160.979	-0
161.359	0.52
161.738	-0
162.117	-0.13
162.496	-0.21
162.875	1.43
163.254	-0.24
163.633	0.15
164.012	-0
164.391	-0
164.77	-0
165.149	-0.21
165.528	0.41
165.907	0.76
166.286	-0.42
166.665	-0.19
167.044	0.25
167.423	-0
167.802	0.11
168.181	0.71
168.559	-0.91
168.938	0.1
169.317	0.43
169.696	-0
170.074	0.2
170.453	-0
170.832	0.87
171.21	-0.04
171.589	0.06
171.968	-0
172.346	-0
172.725	0.09
173.103	-0
173.482	-0
173.861	-0.92
174.239	-0
174.617	-0
174.996	-0
175.374	-0.33
175.753	-0.13
176.131	-0.65
176.51	0.35
176.888	-0
177.266	-0
177.645	0.1
178.023	-0.14
178.401	-0.01
178.779	0.13
179.158	0.48
179.536	-0.03
179.914	-0
180.292	0.12
180.67	0.14
181.048	-0
181.427	-0
181.805	-0
182.183	0.43
182.561	-0.46
182.939	0.52
183.317	-0
183.695	-0
184.073	0.12
184.451	-0
184.829	-0.23
185.206	-0.04
185.584	-0.38
185.962	-0.71
186.34	-0.26
186.718	0.78
187.096	-1.38
187.473	1.04
187.851	-0.09
188.229	-0.18
188.607	0.14
188.984	0.21
189.362	0.06
189.74	0.04
190.117	-0.07
190.495	0.12
190.872	0.09
191.25	0.15
191.627	0.11
192.005	0.12
192.382	0.26
192.76	0.1
193.137	0.19
193.515	0.17
193.892	0.14
194.269	0.21
194.647	-0.06
195.024	0.02
195.401	0.08
195.779	0.17
196.156	0.12
196.533	0.06
196.91	0.1
197.288	0.17
197.665	0.07
198.042	0.14
198.419	0.08
198.796	0.47
199.173	0.21
199.55	-0.01
199.927	0.15
200.304	0.2
200.681	0.05
201.058	0.09
201.435	0.24
201.812	0.23
202.189	0.1
202.566	0.12
202.943	0.16
203.32	0.14
203.697	0.24
204.073	0.24
204.45	0.11
204.827	0.13
205.204	0.23
205.58	0.16
205.957	0.08
206.334	0.09
206.71	0.17
207.087	0.15
207.464	0.18
207.84	0.17
208.217	0.29
208.593	0.15
208.97	0.16
209.346	0.24
209.723	0.21
210.099	0.26
210.476	0.14
210.852	0.1
211.228	0.22
211.605	0.34
211.981	0.13
212.357	0.08
212.733	0.15
213.11	0.14
213.486	0.1
213.862	0.28
214.238	0.28
214.614	0.3
214.991	0.13
215.367	0.16
215.743	0.18
216.119	0.24
216.495	0.35
216.871	0.15
217.247	0.26
217.623	0.06
217.999	0.31
218.375	0.23
218.751	0.1
219.127	0.15
219.502	0.26
219.878	0.09
220.254	0.14
220.63	0.33
221.006	0.19
221.381	0.18
221.757	0.15
222.133	0.19
222.508	0.23
222.884	0.14
223.26	0.31
223.635	0.14
224.011	0.3
224.386	0.27
224.762	0.02
225.137	0.12
225.513	0.27
225.888	0.25
226.264	0.15
226.639	0.21
227.014	0.17
227.39	0.11
227.765	0.29
228.14	0.26
228.516	0.3
228.891	0.23
229.266	0.19
229.641	-0.01
230.017	0.27
230.392	0.14
230.767	0.1
231.142	0.21
231.517	0.23
231.892	0.2
232.267	0.13
232.642	0.07
233.017	0.25
233.392	0.18
233.767	0.26
234.142	0.19
234.517	0.3
234.892	0.11
235.267	0.18
235.641	0.2
236.016	0.13
236.391	0.21
236.766	0.04
237.14	0.06
237.515	0.23
237.89	0.14
238.264	0.25
238.639	0.16
239.014	0.18
239.388	0.14
239.763	0.22
240.137	0.22
240.512	0.14
240.886	0.16
241.261	0.28
241.635	0.11
242.009	0.21
242.384	0.15
242.758	0.08
243.132	0.09
243.507	0.17
243.881	0.12
244.255	0.09
244.629	0.17
245.004	0.2
245.378	0.19
245.752	0.1
246.126	0.17
246.5	0.34
246.874	0.41
247.248	0.23
247.622	0.09
247.996	0.2
248.37	0.1
248.744	0.25
249.118	0.33
249.492	0.1
249.866	0.14
250.24	0.21
250.613	0.11
250.987	0.26
251.361	0.21
251.735	0.17
252.108	0.22
252.482	0.19
252.856	0.2
253.229	0.13
253.603	0.15
253.977	0.1
254.35	0.24
254.724	0.09
255.097	0.21
255.471	0.19
255.844	0.22
256.218	0.12
256.591	0.11
256.964	0.13
257.338	0.18
257.711	0.17
258.084	0.19
258.458	0.15
258.831	0.17
259.204	0.19
259.577	0.13
259.95	0.14
260.323	0.09
260.697	0.18
261.07	0.23
261.443	0.17
261.816	0.17
262.189	0.21
262.562	0.15
262.935	0.06
263.308	0.16
263.68	0.08
264.053	0.17
264.426	0.15
264.799	0.16
265.172	0.17
265.545	0.07
265.917	0.21
266.29	0.11
266.663	0.15
267.035	0.25
267.408	0.09
267.781	0.21
268.153	0.33
268.526	0.17
268.898	0.21
269.271	0.08
269.643	0.13
270.016	0.13
270.388	0.17
270.76	0.23
271.133	0.12
271.505	0.21
271.877	0.1
272.25	0.08
272.622	0.18
272.994	0.11
273.366	0.21
273.739	0.13
274.111	0.15
274.483	0.12
274.855	0.17
275.227	0.18
275.599	0.11
275.971	0.27
276.343	0.16
276.715	0.21
277.087	0.11
277.459	0.18
277.831	0.12
278.203	0.16
278.574	0.26
278.946	0.08
279.318	0.32
279.69	0.16
280.061	0.19
280.433	0.17
280.805	0.14
281.176	0.14
281.548	0.05
281.92	0.18
282.291	0.13
282.663	0.16
283.034	0.17
283.406	0.15
283.777	0.17
284.148	0.2
284.52	0.13
284.891	0.2
285.262	0.18
285.634	0.17
286.005	0.13
286.376	0.16
286.747	0.17
287.119	0.17
287.49	0.14
287.861	0.14
288.232	0.1
288.603	0.16
288.974	0.12
289.345	0.18
289.716	0.16
290.087	0.18
290.458	0.09
290.829	0.18
291.2	0.11
291.571	0.18
291.941	0.14
292.312	0.19
292.683	0.15
293.054	0.13
293.424	0.12
293.795	0.15
294.166	0.16
294.536	0.2
294.907	0.09
295.277	0.13
295.648	0.16
296.018	0.16
296.389	0.14
296.759	0.08
297.13	0.19
297.5	0.12
297.871	0.12
298.241	0.13
298.611	0.16
298.981	0.1
299.352	0.12
299.722	0.09
300.092	0.12
300.462	0.11
300.832	0.09
301.202	0.14
301.573	0.11
301.943	0.12
302.313	0.11
302.683	0.09
303.053	0.1
303.422	0.11
303.792	0.11
304.162	0.09
304.532	0.11
304.902	0.11
305.272	0.12
305.641	0.12
306.011	0.11
306.381	0.12
306.75	0.11
307.12	0.12
307.49	0.13
307.859	0.13
308.229	0.12
308.598	0.12
308.968	0.13
309.337	0.12
309.707	0.13
310.076	0.14
310.445	0.14
310.815	0.14
311.184	0.15
311.553	0.13
311.923	0.14
312.292	0.14
312.661	0.15
313.03	0.15
313.399	0.14
313.768	0.14
314.137	0.15
314.506	0.14
314.875	0.15
315.244	0.14
315.613	0.14
315.982	0.14
316.351	0.15
316.72	0.14
317.089	0.14
317.458	0.14
317.826	0.13
318.195	0.13
318.564	0.13
318.933	0.13
319.301	0.13
319.67	0.14
320.038	0.13
320.407	0.14
320.775	0.13
321.144	0.13
321.512	0.13
321.881	0.12
322.249	0.13
322.618	0.13
322.986	0.12
323.354	0.11
323.723	0.12
324.091	0.12
324.459	0.11
324.827	0.11
325.195	0.11
325.564	0.12
325.932	0.11
326.3	0.11
326.668	0.11
327.036	0.11
327.404	0.11
327.772	0.12
328.14	0.12
328.508	0.11
328.875	0.12
329.243	0.11
329.611	0.12
329.979	0.11
330.346	0.12
330.714	0.12
331.082	0.12
331.449	0.12
331.817	0.12
332.185	0.11
332.552	0.12
332.92	0.12
333.287	0.12
333.655	0.12
334.022	0.12
334.389	0.13
334.757	0.12
335.124	0.13
335.491	0.13
335.859	0.13
336.226	0.13
336.593	0.14
336.96	0.13
337.327	0.13
337.695	0.14
338.062	0.14
338.429	0.14
338.796	0.14
339.163	0.15
339.53	0.14
339.897	0.15
340.263	0.15
340.63	0.15
340.997	0.16
341.364	0.16
341.731	0.16
342.097	0.16
342.464	0.16
342.831	0.17
343.197	0.17
343.564	0.18
343.931	0.17
344.297	0.18
344.664	0.18
345.03	0.18
345.396	0.19
345.763	0.19
346.129	0.2
346.496	0.2
346.862	0.2
347.228	0.2
347.594	0.2
347.961	0.21
348.327	0.21
348.693	0.21
349.059	0.22
349.425	0.22
349.791	0.22
350.157	0.23
350.523	0.23
350.889	0.24
351.255	0.24
351.621	0.25
351.987	0.25
352.353	0.26
352.719	0.26
353.084	0.27
353.45	0.27
353.816	0.28
354.181	0.28
354.547	0.29
354.913	0.3
355.278	0.3
355.644	0.31
356.009	0.31
356.375	0.32
356.74	0.32
357.106	0.34
357.471	0.34
357.836	0.35
358.202	0.36
358.567	0.37
358.932	0.37
359.297	0.38
359.663	0.38
360.028	0.39
360.393	0.39
360.758	0.4
361.123	0.4
361.488	0.41
361.853	0.41
362.218	0.42
362.583	0.42
362.948	0.43
363.312	0.43
363.677	0.45
364.042	0.45
364.407	0.46
364.772	0.47
365.136	0.48
365.501	0.48
365.865	0.5
366.23	0.5
366.595	0.52
366.959	0.53
367.324	0.54
367.688	0.55
368.052	0.55
368.417	0.57
368.781	0.58
369.145	0.58
369.51	0.59
369.874	0.59
370.238	0.59
370.602	0.59
370.967	0.59
371.331	0.59
371.695	0.58
372.059	0.58
372.423	0.58
372.787	0.57
373.151	0.57
373.515	0.58
373.878	0.57
374.242	0.57
374.606	0.57
374.97	0.57
375.334	0.57
375.697	0.58
376.061	0.59
376.425	0.58
376.788	0.58
377.152	0.59
377.515	0.6
377.879	0.6
378.242	0.61
378.606	0.63
378.969	0.62
379.333	0.64
379.696	0.65
380.059	0.66
380.422	0.67
380.786	0.68
381.149	0.69
381.512	0.71
381.875	0.72
382.238	0.73
382.601	0.76
382.964	0.77
383.327	0.8
383.69	0.81
384.053	0.84
384.416	0.87
384.779	0.89
385.142	0.9
385.504	0.91
385.867	0.92
386.23	0.94
386.593	0.95
386.955	0.94
387.318	0.95
387.68	0.93
388.043	0.93
388.405	0.94
388.768	0.92
389.13	0.92
389.493	0.9
389.855	0.9
390.217	0.89
390.58	0.9
390.942	0.9
391.304	0.92
391.666	0.92
392.028	0.94
392.391	0.95
392.753	0.98
393.115	1.01
393.477	1.05
393.839	1.09
394.201	1.13
394.563	1.18
394.924	1.22
395.286	1.26
395.648	1.3
396.01	1.34
396.371	1.38
396.733	1.39
397.095	1.41
397.456	1.44
397.818	1.41
398.18	1.4
398.541	1.38
398.903	1.37
399.264	1.34
399.625	1.3
399.987	1.24
400.348	1.21
400.709	1.13
401.071	1.07
401.432	1
401.793	0.95
402.154	0.89
402.515	0.82
402.876	0.77
403.238	0.71
403.599	0.67
403.96	0.61
404.32	0.57
404.681	0.53
405.042	0.49
405.403	0.46
405.764	0.42
406.125	0.4
406.485	0.37
406.846	0.34
407.207	0.33
407.567	0.31
407.928	0.29
408.288	0.27
408.649	0.25
409.009	0.24
409.37	0.23
409.73	0.22
410.091	0.21
410.451	0.2
410.811	0.19
411.171	0.18
411.532	0.17
411.892	0.16
412.252	0.16
412.612	0.15
412.972	0.15
413.332	0.14
413.692	0.14
414.052	0.13
414.412	0.13
414.772	0.13
415.132	0.12
415.492	0.11
415.851	0.12
416.211	0.11
416.571	0.1
416.931	0.1
417.29	0.1
417.65	0.1
418.009	0.1
418.369	0.1
418.728	0.1
419.088	0.1
419.447	0.09
419.807	0.09
420.166	0.08
420.525	0.08
420.884	0.08
421.244	0.09
421.603	0.08
421.962	0.08
422.321	0.08
422.68	0.08
423.039	0.08
423.398	0.07
423.757	0.07
424.116	0.07
424.475	0.07
424.834	0.06
425.193	0.07
425.551	0.07
425.91	0.07
426.269	0.07
426.628	0.06
426.986	0.07
427.345	0.06
427.703	0.06
428.062	0.06
428.42	0.06
428.779	0.06
429.137	0.06
429.496	0.06
429.854	0.06
430.212	0.06
430.57	0.06
430.929	0.06
431.287	0.06
431.645	0.05
432.003	0.05
432.361	0.05
432.719	0.05
433.077	0.05
433.435	0.05
433.793	0.04
434.151	0.05
434.509	0.05
434.866	0.05
435.224	0.05
435.582	0.05
435.94	0.04
436.297	0.05
436.655	0.05
437.012	0.05
437.37	0.04
437.727	0.05
438.085	0.05
438.442	0.05
438.8	0.05
439.157	0.05
439.514	0.04
439.872	0.05
440.229	0.04
440.586	0.04
440.943	0.04
441.3	0.04
441.657	0.04
442.014	0.04
442.371	0.04
442.728	0.04
443.085	0.04
443.442	0.04
443.799	0.04
444.156	0.03
444.513	0.05
444.869	0.04
445.226	0.03
445.583	0.04
445.939	0.04
446.296	0.04
446.652	0.04
447.009	0.04
447.365	0.04
447.722	0.04
448.078	0.04
448.434	0.03
448.791	0.04
449.147	0.04
449.503	0.04
449.859	0.03
450.215	0.03
450.571	0.03
450.928	0.03
451.284	0.03
451.64	0.03
451.995	0.02
452.351	0.03
452.707	0.03
453.063	0.04
453.419	0.02
453.775	0.03
454.13	0.02
454.486	0.03
454.842	0.02
455.197	0.03
455.553	0.03
455.908	0.03
456.264	0.02
456.619	0.03
456.975	0.04
457.33	0.03
457.685	0.04
458.04	0.02
458.396	0.02
458.751	0.02
459.106	0.03
459.461	0.03
459.816	0.03
460.171	0.02
460.526	0.02
460.881	0.02
461.236	0.02
461.591	0.02
461.946	0.03
462.301	0.02
462.655	0.02
463.01	0.02
463.365	0.03
463.719	0.02
464.074	0.02
464.428	0.02
464.783	0.02
465.137	0.01
465.492	0.02
465.846	0.01
466.201	0.01
466.555	0.02
466.909	0.01
467.263	0.02
467.618	0.02
467.972	0.01
468.326	0.02
468.68	0.02
469.034	0.02
469.388	0.02
469.742	0.02
470.096	0.02
470.45	0.02
470.804	0.01
471.157	0.02
471.511	0.01
471.865	0.02
472.218	0.02
472.572	0.02
472.926	0.02
473.279	0.02
473.633	0.02
473.986	0.02
474.34	0.03
474.693	0.03
475.046	0.03
475.4	0.03
475.753	0.03
476.106	0.03
476.459	0.03
476.812	0.03
477.165	0.03
477.519	0.03
477.872	0.04
478.224	0.04
478.577	0.04
478.93	0.04
479.283	0.04
479.636	0.04
479.989	0.04
480.341	0.04
480.694	0.04
481.047	0.04
481.399	0.04
481.752	0.04
482.104	0.04
482.457	0.04
482.809	0.05
483.162	0.05
483.514	0.04
483.866	0.05
484.219	0.05
484.571	0.05
484.923	0.05
485.275	0.05
485.627	0.05
485.979	0.05
486.331	0.06
486.683	0.06
487.035	0.06
487.387	0.06
487.739	0.06
488.091	0.06
488.443	0.06
488.794	0.06
489.146	0.06
489.498	0.07
489.849	0.06
490.201	0.07
490.552	0.06
490.904	0.07
491.255	0.06
491.607	0.07
491.958	0.06
492.309	0.07
492.661	0.07
493.012	0.07
493.363	0.07
493.714	0.07
494.065	0.07
494.416	0.07
494.767	0.07
495.118	0.07
495.469	0.08
495.82	0.07
496.171	0.08
496.522	0.08
496.872	0.07
497.223	0.08
497.574	0.08
497.924	0.08
498.275	0.08
498.626	0.08
498.976	0.08
499.327	0.08
499.677	0.09
500.027	0.09
500.378	0.09
500.728	0.09
501.078	0.09
501.428	0.1
501.779	0.09
502.129	0.1
502.479	0.1
502.829	0.09
503.179	0.1
503.529	0.1
503.879	0.1
504.229	0.11
504.578	0.1
504.928	0.1
505.278	0.1
505.628	0.11
505.977	0.11
506.327	0.1
506.676	0.11
507.026	0.11
507.375	0.11
507.725	0.11
508.074	0.12
508.424	0.12
508.773	0.12
509.122	0.12
509.471	0.12
509.82	0.12
510.17	0.12
510.519	0.12
510.868	0.12
511.217	0.13
511.566	0.12
511.915	0.13
512.263	0.13
512.612	0.13
512.961	0.13
513.31	0.13
513.659	0.13
514.007	0.14
514.356	0.13
514.704	0.14
515.053	0.14
515.401	0.14
515.75	0.14
516.098	0.14
516.447	0.14
516.795	0.14
517.143	0.14
517.491	0.15
517.839	0.14
518.188	0.15
518.536	0.15
518.884	0.15
519.232	0.15
519.58	0.15
519.928	0.16
520.275	0.16
520.623	0.16
520.971	0.16
521.319	0.16
521.666	0.16
522.014	0.17
522.362	0.16
522.709	0.16
523.057	0.16
523.404	0.17
523.752	0.17
524.099	0.17
524.446	0.17
524.794	0.18
525.141	0.17
525.488	0.17
525.835	0.17
526.182	0.17
526.529	0.18
526.876	0.18
527.223	0.18
527.57	0.18
527.917	0.18
528.264	0.19
528.611	0.19
528.958	0.19
529.304	0.19
529.651	0.19
529.998	0.2
530.344	0.2
530.691	0.2
531.037	0.2
531.384	0.2
531.73	0.2
532.076	0.2
532.423	0.21
532.769	0.2
533.115	0.2
533.461	0.21
533.807	0.21
534.154	0.21
534.5	0.21
534.846	0.22
535.192	0.21
535.537	0.22
535.883	0.22
536.229	0.22
536.575	0.22
536.921	0.23
537.266	0.23
537.612	0.23
537.957	0.23
538.303	0.23
538.649	0.24
538.994	0.23
539.339	0.24
539.685	0.24
540.03	0.24
540.375	0.24
540.721	0.24
541.066	0.24
541.411	0.25
541.756	0.25
542.101	0.25
542.446	0.25
542.791	0.26
543.136	0.26
543.481	0.26
543.825	0.27
544.17	0.27
544.515	0.26
544.86	0.26
545.204	0.27
545.549	0.27
545.893	0.28
546.238	0.28
546.582	0.28
546.927	0.27
547.271	0.28
547.615	0.28
547.96	0.28
548.304	0.28
548.648	0.29
548.992	0.29
549.336	0.29
549.68	0.3
550.024	0.29
550.368	0.29
550.712	0.3
551.056	0.3
551.4	0.3
551.743	0.3
552.087	0.3
552.431	0.31
552.774	0.3
553.118	0.31
553.462	0.31
553.805	0.31
554.148	0.31
554.492	0.32
554.835	0.32
555.178	0.32
555.522	0.32
555.865	0.32
556.208	0.32
556.551	0.32
556.894	0.32
557.237	0.32
557.58	0.32
557.923	0.32
558.266	0.33
558.609	0.33
558.952	0.33
559.294	0.33
559.637	0.33
559.98	0.33
560.322	0.33
560.665	0.34
561.007	0.34
561.35	0.33
561.692	0.33
562.034	0.34
562.377	0.34
562.719	0.34
563.061	0.34
563.403	0.34
563.745	0.34
564.088	0.35
564.43	0.34
564.772	0.34
565.113	0.34
565.455	0.34
565.797	0.35
566.139	0.34
566.481	0.34
566.822	0.34
567.164	0.35
567.506	0.35
567.847	0.35
568.189	0.36
568.53	0.35
568.872	0.35
569.213	0.36
569.554	0.36
569.895	0.36
570.237	0.36
570.578	0.36
570.919	0.36
571.26	0.36
571.601	0.36
571.942	0.36
572.283	0.36
572.624	0.36
572.965	0.36
573.306	0.36
573.646	0.36
573.987	0.36
574.328	0.36
574.668	0.36
575.009	0.36
575.349	0.36
575.69	0.36
576.03	0.36
576.37	0.36
576.711	0.36
577.051	0.36
577.391	0.36
577.731	0.36
578.072	0.37
578.412	0.36
578.752	0.36
579.092	0.36
579.431	0.36
579.771	0.36
580.111	0.36
580.451	0.36
580.791	0.36
581.13	0.37
581.47	0.37
581.81	0.37
582.149	0.37
582.489	0.37
582.828	0.37
583.167	0.37
583.507	0.36
583.846	0.36
584.185	0.36
584.525	0.37
584.864	0.37
585.203	0.37
585.542	0.38
585.881	0.38
586.22	0.38
586.559	0.38
586.898	0.38
587.236	0.38
587.575	0.38
587.914	0.38
588.252	0.38
588.591	0.39
588.93	0.39
589.268	0.39
589.607	0.39
589.945	0.4
590.283	0.4
590.622	0.39
590.96	0.4
591.298	0.4
591.636	0.4
591.974	0.4
592.313	0.41
592.651	0.41
592.989	0.41
593.326	0.42
593.664	0.42
594.002	0.42
594.34	0.42
594.678	0.42
595.015	0.42
595.353	0.42
595.691	0.42
596.028	0.43
596.366	0.43
596.703	0.43
597.04	0.43
597.378	0.43
597.715	0.43
598.052	0.44
598.389	0.44
598.726	0.44
599.064	0.44
599.401	0.44
599.738	0.44
600.074	0.44
600.411	0.45
600.748	0.44
601.085	0.44
601.422	0.44
601.758	0.45
602.095	0.44
602.432	0.44
602.768	0.45
603.105	0.44
603.441	0.45
603.777	0.45
604.114	0.45
604.45	0.45
604.786	0.45
605.122	0.45
605.459	0.45
605.795	0.45
606.131	0.45
606.467	0.45
606.803	0.45
607.139	0.45
607.474	0.45
607.81	0.45
608.146	0.45
608.482	0.45
608.817	0.45
609.153	0.44
609.488	0.44
609.824	0.44
610.159	0.44
610.495	0.43
610.83	0.44
611.165	0.44
611.5	0.43
611.836	0.43
612.171	0.43
612.506	0.43
612.841	0.43
613.176	0.43
613.511	0.43
613.845	0.43
614.18	0.43
614.515	0.42
614.85	0.43
615.184	0.42
615.519	0.42
615.854	0.42
616.188	0.42
616.523	0.42
616.857	0.42
617.191	0.42
617.526	0.42
617.86	0.41
618.194	0.42
618.528	0.41
618.862	0.41
619.196	0.41
619.53	0.4
619.864	0.4
620.198	0.4
620.532	0.4
620.866	0.4
621.2	0.41
621.533	0.4
621.867	0.4
622.201	0.4
622.534	0.39
622.868	0.4
623.201	0.39
623.534	0.39
623.868	0.39
624.201	0.39
624.534	0.39
624.868	0.38
625.201	0.38
625.534	0.38
625.867	0.38
626.2	0.38
626.533	0.37
626.865	0.38
627.198	0.38
627.531	0.38
627.864	0.37
628.196	0.37
628.529	0.37
628.862	0.37
629.194	0.36
629.527	0.36
629.859	0.36
630.191	0.35
630.524	0.35
630.856	0.36
631.188	0.35
631.52	0.35
631.852	0.35
632.184	0.34
632.516	0.34
632.848	0.33
633.18	0.33
633.512	0.33
633.844	0.33
634.175	0.33
634.507	0.32
634.839	0.32
635.17	0.32
635.502	0.32
635.833	0.31
636.165	0.31
636.496	0.31
636.827	0.3
637.159	0.3
637.49	0.31
637.821	0.3
638.152	0.3
638.483	0.29
638.814	0.29
639.145	0.29
639.476	0.29
639.807	0.29
640.137	0.29
640.468	0.28
640.799	0.28
641.129	0.28
641.46	0.27
641.791	0.27
642.121	0.27
642.451	0.27
642.782	0.27
643.112	0.26
643.442	0.26
643.773	0.26
644.103	0.26
644.433	0.26
644.763	0.26
645.093	0.26
645.423	0.25
645.753	0.25
646.082	0.25
646.412	0.25
646.742	0.24
647.072	0.25
647.401	0.25
647.731	0.24
648.06	0.24
648.39	0.24
648.719	0.24
649.048	0.25
649.378	0.25
649.707	0.24
650.036	0.24
650.365	0.25
650.694	0.24
651.023	0.24
651.352	0.24
651.681	0.24
652.01	0.23
652.339	0.23
652.668	0.23
652.996	0.24
653.325	0.23
653.654	0.23
653.982	0.23
654.311	0.24
654.639	0.23
654.967	0.23
655.296	0.24
655.624	0.23
655.952	0.23
656.28	0.23
656.609	0.23
656.937	0.23
657.265	0.23
657.593	0.23
657.92	0.15
658.248	0.1
658.576	0.11
658.904	0.2
659.231	0.22
659.559	0.23
659.887	0.23
660.214	0.23
660.542	0.23
660.869	0.23
661.196	0.23
661.524	0.23
661.851	0.23
662.178	0.23
662.505	0.23
662.832	0.23
663.159	0.23
663.486	0.24
663.813	0.24
664.14	0.23
664.467	0.23
664.794	0.23
665.12	0.23
665.447	0.23
665.774	0.23
666.1	0.22
666.427	0.22
666.753	0.22
667.079	0.23
667.406	0.22
667.732	0.22
668.058	0.22
668.384	0.22
668.71	0.22
669.036	0.22
669.362	0.21
669.688	0.22
670.014	0.21
670.34	0.21
670.666	0.21
670.991	0.21
671.317	0.21
671.643	0.21
671.968	0.21
672.294	0.21
672.619	0.21
672.945	0.21
673.27	0.2
673.595	0.21
673.92	0.2
674.246	0.2
674.571	0.2
674.896	0.2
675.221	0.2
675.546	0.2
675.87	0.2
676.195	0.19
676.52	0.19
676.845	0.19
677.169	0.2
677.494	0.19
677.819	0.19
678.143	0.19
678.468	0.19
678.792	0.19
679.116	0.18
679.44	0.18
679.765	0.18
680.089	0.17
680.413	0.17
680.737	0.18
681.061	0.17
681.385	0.17
681.709	0.16
682.033	0.16
682.356	0.16
682.68	0.16
683.004	0.16
683.327	0.16
683.651	0.16
683.974	0.16
684.298	0.15
684.621	0.16
684.944	0.15
685.268	0.15
685.591	0.15
685.914	0.14
686.237	0.15
686.56	0.14
686.883	0.14
687.206	0.14
687.529	0.14
687.852	0.14
688.175	0.14
688.497	0.14
688.82	0.13
689.142	0.13
689.465	0.13
689.787	0.13
690.11	0.13
690.432	0.13
690.755	0.13
691.077	0.13
691.399	0.13
691.721	0.13
692.043	0.13
692.365	0.12
692.687	0.12
693.009	0.12
693.331	0.12
693.653	0.11
693.974	0.11
694.296	0.11
694.618	0.11
694.939	0.11
695.261	0.11
695.582	0.11
695.904	0.11
696.225	0.11
696.546	0.11
696.868	0.11
697.189	0.11
697.51	0.11
697.831	0.1
698.152	0.1
698.473	0.1
698.794	0.1
699.114	0.1
699.435	0.09
699.756	0.09
700.077	0.09
700.397	0.09
700.718	0.09
701.038	0.09
701.359	0.08
701.679	0.09
701.999	0.08
702.32	0.09
702.64	0.09
702.96	0.09
703.28	0.08
703.6	0.08
703.92	0.08
704.24	0.08
704.56	0.08
704.879	0.08
705.199	0.08
705.519	0.08
705.838	0.08
706.158	0.08
706.478	0.08
706.797	0.08
707.116	0.07
707.436	0.07
707.755	0.07
708.074	0.07
708.393	0.07
708.712	0.07
709.031	0.07
709.35	0.08
709.669	0.08
709.988	0.07
710.307	0.07
710.626	0.08
710.944	0.07
711.263	0.08
711.582	0.08
711.9	0.08
712.219	0.08
712.537	0.08
712.855	0.08
713.174	0.08
713.492	0.08
713.81	0.08
714.128	0.08
714.446	0.08
714.764	0.08
715.082	0.08
715.4	0.08
715.718	0.08
716.035	0.08
716.353	0.08
716.671	0.08
716.988	0.08
717.306	0.08
717.623	0.08
717.941	0.08
718.258	0.08
718.575	0.08
718.893	0.08
719.21	0.08
719.527	0.08
719.844	0.08
720.161	0.08
720.478	0.08
720.795	0.08
721.112	0.08
721.428	0.08
721.745	0.08
722.062	0.07
722.378	0.07
722.695	0.08
723.011	0.08
723.328	0.08
723.644	0.08
723.96	0.08
724.276	0.08
724.593	0.08
724.909	0.08
725.225	0.08
725.541	0.08
725.857	0.08
726.173	0.08
726.488	0.09
726.804	0.09
727.12	0.09
727.435	0.09
727.751	0.08
728.067	0.09
728.382	0.08
728.697	0.08
729.013	0.09
729.328	0.09
729.643	0.08
729.958	0.09
730.273	0.09
730.588	0.09
730.903	0.09
731.218	0.08
731.533	0.08
731.848	0.08
732.163	0.08
732.477	0.08
732.792	0.08
733.107	0.08
733.421	0.08
733.736	0.08
734.05	0.08
734.364	0.08
734.678	0.08
734.993	0.08
735.307	0.08
735.621	0.08
735.935	0.08
736.249	0.08
736.563	0.08
736.877	0.09
737.19	0.09
737.504	0.08
737.818	0.08
738.131	0.08
738.445	0.07
738.758	0.07
739.072	0.07
739.385	0.07
739.698	0.08
740.012	0.08
740.325	0.08
740.638	0.08
740.951	0.07
741.264	0.07
741.577	0.07
741.89	0.07
742.203	0.08
742.515	0.08
742.828	0.08
743.141	0.08
743.453	0.08
743.766	0.08
744.078	0.07
744.391	0.08
744.703	0.08
745.015	0.07
745.327	0.07
745.639	0.07
745.952	0.07
746.264	0.07
746.575	0.08
746.887	0.07
747.199	0.07
747.511	0.07
747.823	0.07
748.134	0.06
748.446	0.06
748.757	0.07
749.069	0.06
749.38	0.06
749.692	0.06
750.003	0.06
750.314	0.06
750.625	0.06
750.936	0.05
751.248	0.05
751.559	0.06
751.869	0.05
752.18	0.06
752.491	0.05
752.802	0.05
753.112	0.05
753.423	0.05
753.734	0.05
754.044	0.06
754.355	0.05
754.665	0.05
754.975	0.05
755.285	0.05
755.596	0.05
755.906	0.04
756.216	0.04
756.526	0.04
756.836	0.04
757.146	0.04
757.455	0.04
757.765	0.04
758.075	0.04
758.385	0.04
758.694	0.04
759.004	0.03
759.313	0.03
759.622	0.03
759.932	0.03
760.241	0.03
760.55	0.03
760.859	0.03
761.168	0.03
761.477	0.03
761.786	0.04
762.095	0.03
762.404	0.03
762.713	0.03
763.021	0.03
763.33	0.03
763.639	0.03
763.947	0.03
764.256	0.03
764.564	0.03
764.872	0.03
765.181	0.03
765.489	0.03
765.797	0.03
766.105	0.03
766.413	0.02
766.721	0.02
767.029	0.02
767.337	0.02
767.644	0.02
767.952	0.02
768.26	0.02
768.567	0.02
768.875	0.02
769.182	0.02
769.49	0.02
769.797	0.02
770.104	0.02
770.411	0.02
770.718	0.02
771.026	0.01
771.333	0.01
771.639	0.01
771.946	0.01
772.253	0.01
772.56	0.01
772.867	0.01
773.173	0.01
773.48	0.02
773.786	0.01
774.093	0.01
774.399	0.01
774.705	0.02
775.012	0.02
775.318	0.01
775.624	0.02
775.93	0.01
776.236	0.01
776.542	0.01
776.848	0.01
777.154	0.01
777.459	0
777.765	0.01
778.071	0.01
778.376	0.01
778.682	0.01
778.987	0
779.292	0
779.598	0.01
779.903	0.01
780.208	0
780.513	0.01
780.818	0.01
781.123	0.02
781.428	0.02
781.733	0.02
782.038	0.02
782.343	0.01
782.647	0.01
782.952	0.01
783.256	0.01
783.561	0.01
783.865	0.01
784.17	0.01
784.474	0.01
784.778	0.01
785.082	0.01
785.386	0.01
785.69	0.01
785.994	0.01
786.298	0.01
786.602	0.01
786.906	0.01
787.209	0.01
787.513	0.01
787.817	0.01
788.12	0.01
788.424	0.02
788.727	0.01
789.03	0.01
789.333	0.02
789.637	0.02
789.94	0.02
790.243	0.02
790.546	0.02
790.849	0.01
791.152	0.02
791.454	0.01
791.757	0.02
792.06	0.02
792.362	0.02
792.665	0.01
792.967	0.01
793.27	0.01
793.572	0.01
793.874	0.01
794.177	0
794.479	0
794.781	0
795.083	0
795.385	-0
795.687	0
795.989	0
796.29	0
796.592	0
796.894	0.01
797.195	0
797.497	0
797.798	-0
798.1	-0
798.401	-0.01
798.702	-0.01
799.003	-0.01
799.304	-0
799.605	-0
799.906	0
800.207	0
800.508	0
800.809	0.01
801.11	0.01
801.41	0.01
801.711	0.01
802.011	0.01
802.312	0.01
802.612	0.01
802.913	0.01
803.213	0.01
803.513	0.01
803.813	0.01
804.113	0.01
804.413	0.01
804.713	0.01
805.013	0
805.313	0
805.613	0.01
805.912	-0
806.212	0
806.511	0
806.811	-0
807.11	0
807.41	0
807.709	0
808.008	-0
808.307	0
808.606	0
808.905	-0
809.204	-0
809.503	-0.01
809.802	0
810.101	-0
810.399	-0
810.698	0
810.997	-0
811.295	-0
811.593	0
811.892	-0.01
812.19	0
812.488	-0
812.786	0
813.084	0
813.383	-0
813.68	-0
813.978	-0
814.276	-0
814.574	0
814.872	-0
815.169	-0
815.467	-0.01
815.764	0
816.062	0
816.359	0
816.656	0.01
816.954	0
817.251	0.01
817.548	0
817.845	0
818.142	-0
818.439	-0
818.735	0
819.032	0
819.329	0
819.626	-0
819.922	-0
820.219	-0
820.515	-0
820.811	-0.01
821.108	-0
821.404	-0
821.7	-0
821.996	-0.01
822.292	0
822.588	-0
822.884	0
823.18	0
823.475	-0
823.771	0.01
824.067	0.01
824.362	0.01
824.658	0.01
824.953	0.01
825.249	0.01
825.544	0.01
825.839	0.01
826.134	0.01
826.429	0.01
826.724	0.01
827.019	0.01
827.314	-0
827.609	-0.01
827.904	-0.01
828.198	-0.01
828.493	-0.01
828.787	-0
829.082	0
829.376	-0.01
829.671	-0.01
829.965	0
830.259	0
830.553	0.01
830.847	0.01
831.141	0.01
831.435	0
831.729	-0
832.023	-0
832.317	0.01
832.61	0
832.904	-0
833.197	0
833.491	0.01
833.784	0
834.077	-0
834.371	0
834.664	-0.01
834.957	-0
835.25	-0.01
835.543	-0.01
835.836	0.01
836.129	-0.01
836.421	-0.01
836.714	-0.01
837.007	-0.01
837.299	-0.01
837.592	-0.01
837.884	-0
838.177	0.01
838.469	0
838.761	0
839.053	0.01
839.345	0
839.637	-0
839.929	0
840.221	0
840.513	-0
840.805	-0.01
841.096	0
841.388	0
841.68	0.01
841.971	0.01
842.262	0.01
842.554	0
842.845	-0
843.136	0
843.427	-0
843.718	-0.01
844.009	0
844.3	0.01
844.591	-0
844.882	0.01
845.173	-0.01
845.463	-0
845.754	-0
846.044	-0.01
846.335	-0
846.625	-0.01
846.915	-0.01
847.206	0
847.496	-0
847.786	-0
848.076	-0
848.366	-0
848.656	-0
848.945	-0.01
849.235	-0.02
849.525	0
849.814	0
850.104	-0
850.393	-0.01
850.683	-0.01
850.972	-0.02
851.261	-0.02
851.551	0.01
851.84	-0.01
852.129	0
852.418	0.01
852.707	0.01
852.995	0
853.284	0.02
853.573	0.02
853.862	-0.01
854.15	0
854.439	-0.02
854.727	-0.01
855.015	-0.03
855.304	-0.02
855.592	0
855.88	-0.01
856.168	-0.02
856.456	-0.01
856.744	-0.02
857.032	-0.01
857.32	-0.02
857.607	-0.02
857.895	-0.03
858.183	-0.02
858.47	-0.01
858.757	-0.04
859.045	-0.02
859.332	-0.02
859.619	-0.01
859.907	-0.02
860.194	-0.04
860.481	-0.03
860.768	-0.02
861.054	-0.01
861.341	-0.03
861.628	-0.03
861.915	-0.02
862.201	0.02
862.488	0.02
862.774	-0.02
863.061	-0.01
863.347	-0.01
863.633	-0.02
863.919	0.01
864.205	-0.02
864.491	0.02
864.777	-0.01
865.063	0
865.349	-0.02
865.635	-0.01
865.92	-0.04
866.206	-0.04
866.492	-0.02
866.777	-0
867.062	-0.02
867.348	-0
867.633	-0.02
867.918	-0.03
868.203	-0.03
868.488	0.01
868.773	-0.03
869.058	-0.03
869.343	-0.05
869.628	-0.03
869.912	0.03
870.197	0.04
870.482	-0.04
870.766	0.01
871.05	-0.05
871.335	-0.06
871.619	-0.02
871.903	-0.09
872.187	-0.08
872.471	-0.09
872.755	-0.04
873.039	-0.01
873.323	-0.09
873.607	0.01
873.89	0.01
874.174	0.03
874.458	0.06
874.741	-0.03
875.024	-0.03
875.308	-0.03
875.591	0.11
875.874	-0.02
876.157	-0.1
876.44	-0.1
876.723	-0.02
877.006	-0.06
877.289	-0.02
877.572	-0.07
877.854	0.02
878.137	0.01
878.42	-0
878.702	-0.05
878.984	0.02
879.267	-0
879.549	-0.04
879.831	-0.09
880.113	-0
880.395	0.03
880.677	-0.16
880.959	0.07
