Data from Rubpy_EV_1200_EDTA_Absorbance_12-57-33-766.txt Node
Date: Mon Jun 29 12:57:33 BST 2026
User: fpm-admin
Spectrometer: OFX00224
Trigger mode: 0
Integration Time (sec): 7.000000E-2
Scans to average: 3
Nonlinearity correction enabled: false
Boxcar width: 0
Storing dark spectrum: false
XAxis mode: Wavelengths
Number of Pixels in Spectrum: 2136
>>>>>Begin Spectral Data<<<<<
154.91	-0
155.289	0.45
155.669	1.17
156.048	0.44
156.428	-1.34
156.807	-0.43
157.186	-0.15
157.566	-0
157.945	-0
158.325	-0.02
158.704	0.8
159.083	0.08
159.462	0.04
159.842	0.17
160.221	-0.02
160.6	0.06
160.979	-0.7
161.359	-0.46
161.738	-0
162.117	-0
162.496	-0.24
162.875	0.83
163.254	-0.43
163.633	-0.07
164.012	-0
164.391	-0
164.77	-0.81
165.149	-0.12
165.528	0.03
165.907	0.03
166.286	-0.36
166.665	0.25
167.044	0.28
167.423	-0
167.802	0.05
168.181	0.11
168.559	-0.3
168.938	0.17
169.317	-0
169.696	-0
170.074	-0
170.453	-0
170.832	0.53
171.21	0.19
171.589	0.03
171.968	-0
172.346	-0
172.725	0.03
173.103	-0
173.482	-0.44
173.861	-0
174.239	-0
174.617	1
174.996	0.18
175.374	-0
175.753	0.39
176.131	-1.04
176.51	0.13
176.888	-0
177.266	-0
177.645	0.08
178.023	0.18
178.401	-0.08
178.779	0.09
179.158	-0.1
179.536	-0.03
179.914	-0
180.292	-0
180.67	0.56
181.048	0.85
181.427	-0.45
181.805	-0.82
182.183	0.48
182.561	-0.46
182.939	0.4
183.317	-0
183.695	-0
184.073	-0.64
184.451	-0
184.829	-0
185.206	-0.06
185.584	-0.43
185.962	-0
186.34	-0
186.718	-0.09
187.096	-0
187.473	0.44
187.851	-0.06
188.229	-0
188.607	0.23
188.984	0.04
189.362	0.13
189.74	0.08
190.117	-0.09
190.495	0.09
190.872	0.05
191.25	0.13
191.627	0.11
192.005	0.2
192.382	0.26
192.76	0.06
193.137	0.19
193.515	0.06
193.892	0.2
194.269	0.1
194.647	0.2
195.024	0.12
195.401	0.08
195.779	0.1
196.156	0.09
196.533	0.13
196.91	0.2
197.288	0.15
197.665	0.09
198.042	0.19
198.419	0.14
198.796	0.14
199.173	0.24
199.55	0.12
199.927	0.14
200.304	0.08
200.681	0.18
201.058	0.09
201.435	0.16
201.812	0.33
202.189	0.3
202.566	0.11
202.943	0.14
203.32	0.19
203.697	0.19
204.073	0.08
204.45	0.11
204.827	0.2
205.204	0.13
205.58	0.01
205.957	0.14
206.334	-0.01
206.71	0.08
207.087	0.09
207.464	0.13
207.84	0.12
208.217	0.15
208.593	0.09
208.97	0.13
209.346	0.26
209.723	0.05
210.099	0.25
210.476	0.17
210.852	0.06
211.228	0.2
211.605	0.19
211.981	0.06
212.357	0.07
212.733	0.11
213.11	0.16
213.486	0.11
213.862	0.21
214.238	0.32
214.614	0.12
214.991	0.09
215.367	0.13
215.743	0.07
216.119	0.2
216.495	0.21
216.871	0.13
217.247	0.01
217.623	0.1
217.999	0.21
218.375	0.26
218.751	0.12
219.127	0.09
219.502	0.18
219.878	0.09
220.254	0.13
220.63	0.11
221.006	0.09
221.381	0.12
221.757	0.3
222.133	0.14
222.508	0.26
222.884	0.26
223.26	0.11
223.635	0.18
224.011	0.25
224.386	0.34
224.762	0.18
225.137	0.16
225.513	0.24
225.888	0.03
226.264	0.16
226.639	0.18
227.014	0.31
227.39	0.13
227.765	0.15
228.14	0.22
228.516	0.28
228.891	0.15
229.266	0.25
229.641	0.06
230.017	0.15
230.392	0.16
230.767	0.24
231.142	0.17
231.517	0.18
231.892	0.22
232.267	0.11
232.642	0.18
233.017	0.21
233.392	0.23
233.767	0.33
234.142	0.1
234.517	0.25
234.892	0.1
235.267	0.09
235.641	0.27
236.016	0.06
236.391	0.1
236.766	0.01
237.14	0.05
237.515	0.18
237.89	0.37
238.264	0.27
238.639	0.21
239.014	0.19
239.388	0.28
239.763	0.13
240.137	0.19
240.512	0.18
240.886	0.12
241.261	0.28
241.635	0.11
242.009	0.16
242.384	0.13
242.758	0.15
243.132	0.13
243.507	0.27
243.881	0.21
244.255	0.23
244.629	0.1
245.004	0.13
245.378	0.22
245.752	0.18
246.126	0.25
246.5	0.17
246.874	0.26
247.248	0.21
247.622	-0.11
247.996	0.21
248.37	0.02
248.744	0.24
249.118	0.29
249.492	0.21
249.866	0.2
250.24	0.23
250.613	0.16
250.987	0.14
251.361	0.22
251.735	0.11
252.108	0.16
252.482	0.27
252.856	0.15
253.229	0.12
253.603	0.15
253.977	0.11
254.35	0.13
254.724	0.13
255.097	0.22
255.471	0.14
255.844	0.15
256.218	0.15
256.591	0.13
256.964	0.03
257.338	0.14
257.711	0.15
258.084	0.19
258.458	0.07
258.831	0.12
259.204	0.2
259.577	0.1
259.95	0.2
260.323	0.16
260.697	0.19
261.07	0.15
261.443	0.12
261.816	0.15
262.189	0.13
262.562	0.14
262.935	0.2
263.308	0.31
263.68	0.13
264.053	0.23
264.426	0.25
264.799	0.24
265.172	0.19
265.545	0.1
265.917	0.11
266.29	0.1
266.663	0.09
267.035	0.12
267.408	0.21
267.781	0.16
268.153	0.24
268.526	0.15
268.898	0.2
269.271	0.13
269.643	0.11
270.016	0.12
270.388	0.17
270.76	0.15
271.133	0.16
271.505	0.17
271.877	0.1
272.25	0.17
272.622	0.16
272.994	0.08
273.366	0.2
273.739	0.06
274.111	0.13
274.483	0.11
274.855	0.12
275.227	0.23
275.599	0.09
275.971	0.16
276.343	0.2
276.715	0.29
277.087	0.12
277.459	0.19
277.831	0.22
278.203	0.14
278.574	0.22
278.946	0.21
279.318	0.18
279.69	0.19
280.061	0.22
280.433	0.17
280.805	0.1
281.176	0.17
281.548	0.12
281.92	0.15
282.291	0.14
282.663	0.23
283.034	0.13
283.406	0.09
283.777	0.16
284.148	0.21
284.52	0.21
284.891	0.21
285.262	0.2
285.634	0.2
286.005	0.14
286.376	0.16
286.747	0.14
287.119	0.17
287.49	0.11
287.861	0.2
288.232	0.16
288.603	0.19
288.974	0.17
289.345	0.17
289.716	0.2
290.087	0.26
290.458	0.04
290.829	0.16
291.2	0.1
291.571	0.1
291.941	0.11
292.312	0.21
292.683	0.15
293.054	0.18
293.424	0.05
293.795	0.22
294.166	0.15
294.536	0.17
294.907	0.1
295.277	0.11
295.648	0.12
296.018	0.08
296.389	0.18
296.759	0.16
297.13	0.23
297.5	0.15
297.871	0.14
298.241	0.15
298.611	0.14
298.981	0.14
299.352	0.1
299.722	0.12
300.092	0.1
300.462	0.14
300.832	0.13
301.202	0.11
301.573	0.1
301.943	0.13
302.313	0.1
302.683	0.12
303.053	0.1
303.422	0.09
303.792	0.11
304.162	0.12
304.532	0.1
304.902	0.12
305.272	0.12
305.641	0.1
306.011	0.12
306.381	0.12
306.75	0.12
307.12	0.12
307.49	0.12
307.859	0.12
308.229	0.13
308.598	0.13
308.968	0.12
309.337	0.13
309.707	0.13
310.076	0.14
310.445	0.14
310.815	0.14
311.184	0.14
311.553	0.13
311.923	0.15
312.292	0.14
312.661	0.15
313.03	0.14
313.399	0.14
313.768	0.15
314.137	0.14
314.506	0.14
314.875	0.15
315.244	0.14
315.613	0.14
315.982	0.14
316.351	0.14
316.72	0.14
317.089	0.14
317.458	0.14
317.826	0.13
318.195	0.14
318.564	0.13
318.933	0.14
319.301	0.14
319.67	0.14
320.038	0.12
320.407	0.13
320.775	0.12
321.144	0.12
321.512	0.12
321.881	0.12
322.249	0.12
322.618	0.12
322.986	0.12
323.354	0.11
323.723	0.12
324.091	0.12
324.459	0.11
324.827	0.11
325.195	0.11
325.564	0.11
325.932	0.11
326.3	0.11
326.668	0.11
327.036	0.11
327.404	0.1
327.772	0.11
328.14	0.11
328.508	0.11
328.875	0.11
329.243	0.11
329.611	0.11
329.979	0.11
330.346	0.11
330.714	0.11
331.082	0.11
331.449	0.12
331.817	0.11
332.185	0.11
332.552	0.12
332.92	0.11
333.287	0.12
333.655	0.12
334.022	0.12
334.389	0.12
334.757	0.12
335.124	0.12
335.491	0.12
335.859	0.13
336.226	0.13
336.593	0.13
336.96	0.13
337.327	0.13
337.695	0.13
338.062	0.13
338.429	0.14
338.796	0.13
339.163	0.14
339.53	0.14
339.897	0.14
340.263	0.15
340.63	0.15
340.997	0.15
341.364	0.16
341.731	0.16
342.097	0.16
342.464	0.16
342.831	0.17
343.197	0.17
343.564	0.17
343.931	0.17
344.297	0.18
344.664	0.18
345.03	0.18
345.396	0.18
345.763	0.19
346.129	0.19
346.496	0.19
346.862	0.19
347.228	0.2
347.594	0.2
347.961	0.2
348.327	0.21
348.693	0.21
349.059	0.22
349.425	0.21
349.791	0.22
350.157	0.23
350.523	0.22
350.889	0.23
351.255	0.24
351.621	0.25
351.987	0.25
352.353	0.25
352.719	0.26
353.084	0.26
353.45	0.27
353.816	0.27
354.181	0.28
354.547	0.29
354.913	0.29
355.278	0.29
355.644	0.3
356.009	0.31
356.375	0.32
356.74	0.33
357.106	0.33
357.471	0.33
357.836	0.34
358.202	0.35
358.567	0.35
358.932	0.36
359.297	0.37
359.663	0.38
360.028	0.38
360.393	0.39
360.758	0.39
361.123	0.4
361.488	0.4
361.853	0.41
362.218	0.41
362.583	0.41
362.948	0.42
363.312	0.43
363.677	0.44
364.042	0.44
364.407	0.45
364.772	0.46
365.136	0.46
365.501	0.48
365.865	0.49
366.23	0.5
366.595	0.5
366.959	0.52
367.324	0.53
367.688	0.55
368.052	0.55
368.417	0.55
368.781	0.56
369.145	0.57
369.51	0.58
369.874	0.57
370.238	0.57
370.602	0.57
370.967	0.58
371.331	0.58
371.695	0.57
372.059	0.57
372.423	0.57
372.787	0.56
373.151	0.56
373.515	0.56
373.878	0.56
374.242	0.56
374.606	0.56
374.97	0.56
375.334	0.56
375.697	0.57
376.061	0.57
376.425	0.57
376.788	0.58
377.152	0.58
377.515	0.58
377.879	0.59
378.242	0.61
378.606	0.62
378.969	0.62
379.333	0.62
379.696	0.64
380.059	0.64
380.422	0.66
380.786	0.67
381.149	0.68
381.512	0.7
381.875	0.71
382.238	0.73
382.601	0.74
382.964	0.77
383.327	0.79
383.69	0.8
384.053	0.82
384.416	0.85
384.779	0.87
385.142	0.88
385.504	0.89
385.867	0.91
386.23	0.91
386.593	0.94
386.955	0.93
387.318	0.94
387.68	0.93
388.043	0.92
388.405	0.91
388.768	0.91
389.13	0.9
389.493	0.89
389.855	0.89
390.217	0.89
390.58	0.88
390.942	0.89
391.304	0.9
391.666	0.91
392.028	0.92
392.391	0.94
392.753	0.97
393.115	1.01
393.477	1.04
393.839	1.06
394.201	1.12
394.563	1.16
394.924	1.21
395.286	1.25
395.648	1.28
396.01	1.32
396.371	1.37
396.733	1.39
397.095	1.4
397.456	1.42
397.818	1.41
398.18	1.38
398.541	1.37
398.903	1.35
399.264	1.31
399.625	1.26
399.987	1.23
400.348	1.18
400.709	1.12
401.071	1.06
401.432	0.99
401.793	0.93
402.154	0.87
402.515	0.81
402.876	0.76
403.238	0.71
403.599	0.65
403.96	0.61
404.32	0.55
404.681	0.52
405.042	0.49
405.403	0.45
405.764	0.42
406.125	0.39
406.485	0.37
406.846	0.34
407.207	0.32
407.567	0.3
407.928	0.28
408.288	0.27
408.649	0.25
409.009	0.24
409.37	0.23
409.73	0.22
410.091	0.2
410.451	0.2
410.811	0.19
411.171	0.18
411.532	0.17
411.892	0.16
412.252	0.16
412.612	0.15
412.972	0.15
413.332	0.14
413.692	0.14
414.052	0.14
414.412	0.13
414.772	0.12
415.132	0.12
415.492	0.12
415.851	0.11
416.211	0.11
416.571	0.1
416.931	0.1
417.29	0.1
417.65	0.1
418.009	0.1
418.369	0.09
418.728	0.09
419.088	0.09
419.447	0.08
419.807	0.09
420.166	0.08
420.525	0.07
420.884	0.08
421.244	0.08
421.603	0.08
421.962	0.08
422.321	0.07
422.68	0.07
423.039	0.08
423.398	0.07
423.757	0.07
424.116	0.07
424.475	0.07
424.834	0.06
425.193	0.06
425.551	0.07
425.91	0.06
426.269	0.06
426.628	0.06
426.986	0.07
427.345	0.06
427.703	0.06
428.062	0.06
428.42	0.06
428.779	0.06
429.137	0.06
429.496	0.06
429.854	0.05
430.212	0.06
430.57	0.06
430.929	0.06
431.287	0.05
431.645	0.05
432.003	0.06
432.361	0.05
432.719	0.05
433.077	0.05
433.435	0.05
433.793	0.05
434.151	0.04
434.509	0.06
434.866	0.05
435.224	0.05
435.582	0.05
435.94	0.05
436.297	0.06
436.655	0.05
437.012	0.04
437.37	0.04
437.727	0.05
438.085	0.04
438.442	0.04
438.8	0.05
439.157	0.04
439.514	0.04
439.872	0.05
440.229	0.04
440.586	0.04
440.943	0.04
441.3	0.04
441.657	0.04
442.014	0.04
442.371	0.04
442.728	0.04
443.085	0.04
443.442	0.04
443.799	0.04
444.156	0.04
444.513	0.05
444.869	0.04
445.226	0.03
445.583	0.03
445.939	0.03
446.296	0.04
446.652	0.03
447.009	0.04
447.365	0.04
447.722	0.04
448.078	0.04
448.434	0.03
448.791	0.03
449.147	0.03
449.503	0.04
449.859	0.03
450.215	0.02
450.571	0.03
450.928	0.03
451.284	0.04
451.64	0.03
451.995	0.03
452.351	0.03
452.707	0.03
453.063	0.03
453.419	0.03
453.775	0.03
454.13	0.02
454.486	0.03
454.842	0.02
455.197	0.03
455.553	0.02
455.908	0.03
456.264	0.02
456.619	0.03
456.975	0.03
457.33	0.03
457.685	0.03
458.04	0.02
458.396	0.02
458.751	0.02
459.106	0.02
459.461	0.03
459.816	0.03
460.171	0.01
460.526	0.03
460.881	0.02
461.236	0.02
461.591	0.02
461.946	0.02
462.301	0.02
462.655	0.03
463.01	0.02
463.365	0.03
463.719	0.02
464.074	0.01
464.428	0.02
464.783	0.02
465.137	0.02
465.492	0.01
465.846	0.01
466.201	0.02
466.555	0.02
466.909	0.01
467.263	0.02
467.618	0.02
467.972	0.01
468.326	0.01
468.68	0.02
469.034	0.01
469.388	0.02
469.742	0.01
470.096	0.02
470.45	0.02
470.804	0.01
471.157	0.02
471.511	0.01
471.865	0.02
472.218	0.02
472.572	0.01
472.926	0.02
473.279	0.03
473.633	0.03
473.986	0.02
474.34	0.03
474.693	0.03
475.046	0.03
475.4	0.03
475.753	0.03
476.106	0.03
476.459	0.03
476.812	0.03
477.165	0.03
477.519	0.03
477.872	0.03
478.224	0.04
478.577	0.03
478.93	0.03
479.283	0.04
479.636	0.04
479.989	0.04
480.341	0.04
480.694	0.04
481.047	0.04
481.399	0.04
481.752	0.04
482.104	0.04
482.457	0.04
482.809	0.05
483.162	0.05
483.514	0.04
483.866	0.04
484.219	0.05
484.571	0.05
484.923	0.05
485.275	0.05
485.627	0.05
485.979	0.05
486.331	0.05
486.683	0.05
487.035	0.05
487.387	0.06
487.739	0.06
488.091	0.06
488.443	0.06
488.794	0.06
489.146	0.06
489.498	0.06
489.849	0.06
490.201	0.06
490.552	0.06
490.904	0.06
491.255	0.06
491.607	0.07
491.958	0.06
492.309	0.07
492.661	0.07
493.012	0.07
493.363	0.07
493.714	0.07
494.065	0.07
494.416	0.07
494.767	0.07
495.118	0.07
495.469	0.08
495.82	0.07
496.171	0.08
496.522	0.08
496.872	0.08
497.223	0.08
497.574	0.08
497.924	0.08
498.275	0.08
498.626	0.08
498.976	0.08
499.327	0.08
499.677	0.08
500.027	0.09
500.378	0.09
500.728	0.09
501.078	0.09
501.428	0.09
501.779	0.09
502.129	0.09
502.479	0.09
502.829	0.09
503.179	0.1
503.529	0.09
503.879	0.1
504.229	0.1
504.578	0.11
504.928	0.1
505.278	0.1
505.628	0.11
505.977	0.11
506.327	0.1
506.676	0.11
507.026	0.11
507.375	0.11
507.725	0.11
508.074	0.11
508.424	0.12
508.773	0.11
509.122	0.12
509.471	0.11
509.82	0.12
510.17	0.12
510.519	0.12
510.868	0.12
511.217	0.12
511.566	0.12
511.915	0.13
512.263	0.13
512.612	0.13
512.961	0.13
513.31	0.13
513.659	0.13
514.007	0.13
514.356	0.13
514.704	0.14
515.053	0.14
515.401	0.14
515.75	0.14
516.098	0.13
516.447	0.14
516.795	0.14
517.143	0.14
517.491	0.14
517.839	0.14
518.188	0.15
518.536	0.15
518.884	0.15
519.232	0.15
519.58	0.15
519.928	0.15
520.275	0.15
520.623	0.16
520.971	0.16
521.319	0.16
521.666	0.16
522.014	0.16
522.362	0.16
522.709	0.16
523.057	0.16
523.404	0.16
523.752	0.16
524.099	0.17
524.446	0.17
524.794	0.17
525.141	0.17
525.488	0.17
525.835	0.17
526.182	0.17
526.529	0.18
526.876	0.18
527.223	0.18
527.57	0.18
527.917	0.18
528.264	0.18
528.611	0.19
528.958	0.19
529.304	0.19
529.651	0.19
529.998	0.19
530.344	0.19
530.691	0.19
531.037	0.2
531.384	0.2
531.73	0.19
532.076	0.2
532.423	0.21
532.769	0.2
533.115	0.2
533.461	0.2
533.807	0.21
534.154	0.21
534.5	0.21
534.846	0.21
535.192	0.21
535.537	0.22
535.883	0.21
536.229	0.22
536.575	0.23
536.921	0.23
537.266	0.22
537.612	0.23
537.957	0.23
538.303	0.23
538.649	0.23
538.994	0.23
539.339	0.23
539.685	0.24
540.03	0.23
540.375	0.24
540.721	0.24
541.066	0.24
541.411	0.25
541.756	0.24
542.101	0.25
542.446	0.25
542.791	0.25
543.136	0.26
543.481	0.26
543.825	0.26
544.17	0.26
544.515	0.26
544.86	0.26
545.204	0.26
545.549	0.27
545.893	0.27
546.238	0.27
546.582	0.27
546.927	0.27
547.271	0.27
547.615	0.28
547.96	0.28
548.304	0.28
548.648	0.28
548.992	0.29
549.336	0.29
549.68	0.29
550.024	0.29
550.368	0.29
550.712	0.29
551.056	0.3
551.4	0.3
551.743	0.3
552.087	0.3
552.431	0.3
552.774	0.31
553.118	0.31
553.462	0.31
553.805	0.31
554.148	0.31
554.492	0.31
554.835	0.32
555.178	0.31
555.522	0.31
555.865	0.31
556.208	0.31
556.551	0.31
556.894	0.32
557.237	0.32
557.58	0.32
557.923	0.32
558.266	0.32
558.609	0.32
558.952	0.33
559.294	0.33
559.637	0.33
559.98	0.33
560.322	0.33
560.665	0.33
561.007	0.33
561.35	0.33
561.692	0.33
562.034	0.33
562.377	0.34
562.719	0.34
563.061	0.34
563.403	0.34
563.745	0.33
564.088	0.34
564.43	0.34
564.772	0.34
565.113	0.34
565.455	0.34
565.797	0.34
566.139	0.34
566.481	0.34
566.822	0.34
567.164	0.34
567.506	0.34
567.847	0.34
568.189	0.35
568.53	0.35
568.872	0.35
569.213	0.35
569.554	0.35
569.895	0.35
570.237	0.35
570.578	0.35
570.919	0.35
571.26	0.36
571.601	0.35
571.942	0.35
572.283	0.35
572.624	0.35
572.965	0.35
573.306	0.35
573.646	0.35
573.987	0.35
574.328	0.36
574.668	0.35
575.009	0.35
575.349	0.35
575.69	0.35
576.03	0.36
576.37	0.36
576.711	0.35
577.051	0.36
577.391	0.35
577.731	0.36
578.072	0.36
578.412	0.36
578.752	0.36
579.092	0.36
579.431	0.36
579.771	0.35
580.111	0.35
580.451	0.35
580.791	0.36
581.13	0.36
581.47	0.36
581.81	0.36
582.149	0.36
582.489	0.36
582.828	0.36
583.167	0.36
583.507	0.36
583.846	0.35
584.185	0.35
584.525	0.36
584.864	0.36
585.203	0.37
585.542	0.37
585.881	0.37
586.22	0.38
586.559	0.38
586.898	0.37
587.236	0.37
587.575	0.37
587.914	0.37
588.252	0.38
588.591	0.38
588.93	0.38
589.268	0.38
589.607	0.38
589.945	0.39
590.283	0.39
590.622	0.39
590.96	0.39
591.298	0.39
591.636	0.4
591.974	0.4
592.313	0.4
592.651	0.4
592.989	0.4
593.326	0.41
593.664	0.41
594.002	0.41
594.34	0.41
594.678	0.42
595.015	0.42
595.353	0.41
595.691	0.42
596.028	0.42
596.366	0.42
596.703	0.42
597.04	0.42
597.378	0.42
597.715	0.43
598.052	0.43
598.389	0.43
598.726	0.43
599.064	0.43
599.401	0.43
599.738	0.44
600.074	0.43
600.411	0.44
600.748	0.44
601.085	0.44
601.422	0.44
601.758	0.44
602.095	0.44
602.432	0.44
602.768	0.44
603.105	0.43
603.441	0.44
603.777	0.44
604.114	0.44
604.45	0.44
604.786	0.44
605.122	0.44
605.459	0.44
605.795	0.44
606.131	0.44
606.467	0.44
606.803	0.44
607.139	0.44
607.474	0.44
607.81	0.44
608.146	0.44
608.482	0.44
608.817	0.44
609.153	0.43
609.488	0.44
609.824	0.43
610.159	0.43
610.495	0.43
610.83	0.43
611.165	0.43
611.5	0.42
611.836	0.42
612.171	0.42
612.506	0.42
612.841	0.42
613.176	0.42
613.511	0.42
613.845	0.42
614.18	0.42
614.515	0.42
614.85	0.42
615.184	0.41
615.519	0.41
615.854	0.41
616.188	0.41
616.523	0.41
616.857	0.41
617.191	0.41
617.526	0.41
617.86	0.41
618.194	0.41
618.528	0.41
618.862	0.4
619.196	0.4
619.53	0.4
619.864	0.4
620.198	0.4
620.532	0.39
620.866	0.39
621.2	0.39
621.533	0.39
621.867	0.4
622.201	0.39
622.534	0.39
622.868	0.39
623.201	0.39
623.534	0.39
623.868	0.38
624.201	0.38
624.534	0.38
624.868	0.38
625.201	0.37
625.534	0.37
625.867	0.37
626.2	0.37
626.533	0.37
626.865	0.37
627.198	0.37
627.531	0.37
627.864	0.37
628.196	0.37
628.529	0.36
628.862	0.36
629.194	0.36
629.527	0.36
629.859	0.36
630.191	0.35
630.524	0.35
630.856	0.35
631.188	0.35
631.52	0.34
631.852	0.34
632.184	0.33
632.516	0.33
632.848	0.33
633.18	0.32
633.512	0.33
633.844	0.32
634.175	0.32
634.507	0.32
634.839	0.31
635.17	0.32
635.502	0.31
635.833	0.31
636.165	0.3
636.496	0.3
636.827	0.3
637.159	0.3
637.49	0.3
637.821	0.29
638.152	0.29
638.483	0.29
638.814	0.29
639.145	0.29
639.476	0.28
639.807	0.28
640.137	0.28
640.468	0.28
640.799	0.28
641.129	0.27
641.46	0.27
641.791	0.27
642.121	0.27
642.451	0.27
642.782	0.26
643.112	0.26
643.442	0.26
643.773	0.26
644.103	0.26
644.433	0.26
644.763	0.25
645.093	0.25
645.423	0.25
645.753	0.25
646.082	0.25
646.412	0.24
646.742	0.25
647.072	0.24
647.401	0.24
647.731	0.24
648.06	0.24
648.39	0.24
648.719	0.24
649.048	0.24
649.378	0.24
649.707	0.24
650.036	0.24
650.365	0.24
650.694	0.24
651.023	0.24
651.352	0.23
651.681	0.23
652.01	0.23
652.339	0.23
652.668	0.23
652.996	0.23
653.325	0.23
653.654	0.23
653.982	0.23
654.311	0.23
654.639	0.23
654.967	0.23
655.296	0.23
655.624	0.23
655.952	0.23
656.28	0.23
656.609	0.23
656.937	0.23
657.265	0.23
657.593	0.22
657.92	0.15
658.248	0.09
658.576	0.1
658.904	0.2
659.231	0.22
659.559	0.22
659.887	0.23
660.214	0.23
660.542	0.23
660.869	0.22
661.196	0.22
661.524	0.23
661.851	0.23
662.178	0.23
662.505	0.23
662.832	0.22
663.159	0.23
663.486	0.23
663.813	0.23
664.14	0.23
664.467	0.23
664.794	0.22
665.12	0.22
665.447	0.23
665.774	0.22
666.1	0.22
666.427	0.22
666.753	0.22
667.079	0.22
667.406	0.21
667.732	0.21
668.058	0.22
668.384	0.22
668.71	0.22
669.036	0.21
669.362	0.21
669.688	0.21
670.014	0.21
670.34	0.21
670.666	0.21
670.991	0.2
671.317	0.21
671.643	0.21
671.968	0.2
672.294	0.21
672.619	0.21
672.945	0.21
673.27	0.2
673.595	0.2
673.92	0.2
674.246	0.2
674.571	0.2
674.896	0.2
675.221	0.2
675.546	0.19
675.87	0.19
676.195	0.19
676.52	0.19
676.845	0.19
677.169	0.19
677.494	0.19
677.819	0.19
678.143	0.19
678.468	0.18
678.792	0.18
679.116	0.18
679.44	0.18
679.765	0.17
680.089	0.17
680.413	0.17
680.737	0.17
681.061	0.17
681.385	0.17
681.709	0.16
682.033	0.16
682.356	0.16
682.68	0.16
683.004	0.16
683.327	0.16
683.651	0.15
683.974	0.16
684.298	0.16
684.621	0.15
684.944	0.15
685.268	0.15
685.591	0.15
685.914	0.14
686.237	0.14
686.56	0.14
686.883	0.14
687.206	0.14
687.529	0.14
687.852	0.14
688.175	0.14
688.497	0.13
688.82	0.14
689.142	0.13
689.465	0.13
689.787	0.13
690.11	0.13
690.432	0.13
690.755	0.13
691.077	0.12
691.399	0.12
691.721	0.12
692.043	0.12
692.365	0.12
692.687	0.12
693.009	0.12
693.331	0.11
693.653	0.11
693.974	0.11
694.296	0.11
694.618	0.11
694.939	0.11
695.261	0.11
695.582	0.11
695.904	0.11
696.225	0.11
696.546	0.11
696.868	0.11
697.189	0.11
697.51	0.1
697.831	0.1
698.152	0.1
698.473	0.1
698.794	0.1
699.114	0.1
699.435	0.09
699.756	0.09
700.077	0.09
700.397	0.09
700.718	0.08
701.038	0.08
701.359	0.08
701.679	0.08
701.999	0.08
702.32	0.08
702.64	0.09
702.96	0.08
703.28	0.08
703.6	0.08
703.92	0.08
704.24	0.08
704.56	0.08
704.879	0.08
705.199	0.08
705.519	0.08
705.838	0.08
706.158	0.08
706.478	0.08
706.797	0.08
707.116	0.08
707.436	0.07
707.755	0.07
708.074	0.07
708.393	0.07
708.712	0.07
709.031	0.07
709.35	0.07
709.669	0.07
709.988	0.07
710.307	0.07
710.626	0.07
710.944	0.08
711.263	0.08
711.582	0.08
711.9	0.08
712.219	0.08
712.537	0.08
712.855	0.08
713.174	0.08
713.492	0.08
713.81	0.08
714.128	0.08
714.446	0.08
714.764	0.08
715.082	0.08
715.4	0.07
715.718	0.08
716.035	0.08
716.353	0.08
716.671	0.08
716.988	0.08
717.306	0.08
717.623	0.08
717.941	0.08
718.258	0.08
718.575	0.08
718.893	0.08
719.21	0.08
719.527	0.08
719.844	0.08
720.161	0.08
720.478	0.08
720.795	0.08
721.112	0.08
721.428	0.07
721.745	0.08
722.062	0.07
722.378	0.07
722.695	0.08
723.011	0.08
723.328	0.08
723.644	0.08
723.96	0.08
724.276	0.08
724.593	0.08
724.909	0.08
725.225	0.08
725.541	0.08
725.857	0.08
726.173	0.08
726.488	0.09
726.804	0.09
727.12	0.08
727.435	0.08
727.751	0.08
728.067	0.09
728.382	0.08
728.697	0.08
729.013	0.09
729.328	0.09
729.643	0.09
729.958	0.09
730.273	0.09
730.588	0.09
730.903	0.09
731.218	0.08
731.533	0.08
731.848	0.08
732.163	0.08
732.477	0.08
732.792	0.08
733.107	0.08
733.421	0.08
733.736	0.08
734.05	0.08
734.364	0.08
734.678	0.08
734.993	0.07
735.307	0.08
735.621	0.08
735.935	0.08
736.249	0.08
736.563	0.08
736.877	0.09
737.19	0.08
737.504	0.08
737.818	0.08
738.131	0.08
738.445	0.07
738.758	0.07
739.072	0.07
739.385	0.07
739.698	0.08
740.012	0.08
740.325	0.08
740.638	0.07
740.951	0.07
741.264	0.07
741.577	0.07
741.89	0.07
742.203	0.08
742.515	0.08
742.828	0.08
743.141	0.08
743.453	0.08
743.766	0.07
744.078	0.07
744.391	0.07
744.703	0.07
745.015	0.07
745.327	0.07
745.639	0.07
745.952	0.07
746.264	0.07
746.575	0.07
746.887	0.07
747.199	0.07
747.511	0.07
747.823	0.06
748.134	0.06
748.446	0.06
748.757	0.06
749.069	0.06
749.38	0.06
749.692	0.06
750.003	0.06
750.314	0.06
750.625	0.06
750.936	0.05
751.248	0.05
751.559	0.05
751.869	0.05
752.18	0.06
752.491	0.05
752.802	0.05
753.112	0.05
753.423	0.05
753.734	0.05
754.044	0.06
754.355	0.05
754.665	0.05
754.975	0.05
755.285	0.05
755.596	0.04
755.906	0.04
756.216	0.04
756.526	0.04
756.836	0.04
757.146	0.04
757.455	0.04
757.765	0.04
758.075	0.04
758.385	0.04
758.694	0.04
759.004	0.04
759.313	0.03
759.622	0.03
759.932	0.03
760.241	0.03
760.55	0.03
760.859	0.03
761.168	0.03
761.477	0.03
761.786	0.03
762.095	0.03
762.404	0.03
762.713	0.03
763.021	0.03
763.33	0.03
763.639	0.03
763.947	0.03
764.256	0.03
764.564	0.03
764.872	0.03
765.181	0.03
765.489	0.03
765.797	0.03
766.105	0.03
766.413	0.02
766.721	0.02
767.029	0.02
767.337	0.02
767.644	0.02
767.952	0.02
768.26	0.02
768.567	0.02
768.875	0.02
769.182	0.02
769.49	0.02
769.797	0.02
770.104	0.02
770.411	0.02
770.718	0.02
771.026	0.02
771.333	0.01
771.639	0.01
771.946	0.01
772.253	0.01
772.56	0.01
772.867	0.01
773.173	0.01
773.48	0.02
773.786	0.01
774.093	0.01
774.399	0.02
774.705	0.02
775.012	0.02
775.318	0.01
775.624	0.01
775.93	0.01
776.236	0.01
776.542	0.01
776.848	0.01
777.154	0
777.459	0
777.765	0.01
778.071	0.01
778.376	0.01
778.682	0
778.987	0
779.292	0
779.598	0.01
779.903	0.01
780.208	0.01
780.513	0.01
780.818	0.01
781.123	0.02
781.428	0.02
781.733	0.02
782.038	0.02
782.343	0.01
782.647	0.01
782.952	0.01
783.256	0.01
783.561	0.01
783.865	0.01
784.17	0.01
784.474	0.01
784.778	0.01
785.082	0.01
785.386	0.01
785.69	0.01
785.994	0.01
786.298	0.01
786.602	0.01
786.906	0.01
787.209	0.01
787.513	0.01
787.817	0.01
788.12	0.01
788.424	0.01
788.727	0.01
789.03	0.01
789.333	0.01
789.637	0.02
789.94	0.02
790.243	0.02
790.546	0.02
790.849	0.01
791.152	0.02
791.454	0.01
791.757	0.02
792.06	0.01
792.362	0.02
792.665	0.01
792.967	0.01
793.27	0.01
793.572	0.01
793.874	0
794.177	0
794.479	0
794.781	0
795.083	0
795.385	-0
795.687	0
795.989	0
796.29	0.01
796.592	0.01
796.894	0.01
797.195	0
797.497	0
797.798	-0
798.1	-0
798.401	-0.01
798.702	-0
799.003	-0.01
799.304	-0.01
799.605	-0
799.906	-0
800.207	0
800.508	0.01
800.809	0.01
801.11	0.01
801.41	0.01
801.711	0.01
802.011	0.01
802.312	0.01
802.612	0.01
802.913	0.01
803.213	0.02
803.513	0.01
803.813	0.01
804.113	0.01
804.413	0.01
804.713	0.01
805.013	0
805.313	0
805.613	0
805.912	0
806.212	0
806.511	0
806.811	0
807.11	-0
807.41	0.01
807.709	0
808.008	0
808.307	0
808.606	0
808.905	0
809.204	-0
809.503	-0
809.802	0
810.101	0
810.399	-0
810.698	0.01
810.997	-0
811.295	-0
811.593	-0
811.892	-0
812.19	0
812.488	0
812.786	0
813.084	-0
813.383	0
813.68	-0
813.978	-0
814.276	0
814.574	0
814.872	-0
815.169	-0
815.467	-0
815.764	-0
816.062	0.01
816.359	0.01
816.656	0.01
816.954	0.01
817.251	0.01
817.548	-0
817.845	-0
818.142	-0
818.439	0
818.735	-0
819.032	0
819.329	0
819.626	-0
819.922	-0
820.219	-0
820.515	-0.01
820.811	-0.01
821.108	-0
821.404	-0
821.7	0
821.996	-0
822.292	-0
822.588	-0.01
822.884	-0
823.18	0
823.475	-0
823.771	0
824.067	-0
824.362	0
824.658	0.01
824.953	0.01
825.249	0.01
825.544	0.02
825.839	0.02
826.134	0.01
826.429	0.01
826.724	0.01
827.019	0.01
827.314	0
827.609	-0
827.904	0
828.198	-0.01
828.493	-0.01
828.787	0
829.082	-0
829.376	-0
829.671	-0
829.965	0.01
830.259	0.01
830.553	0.01
830.847	0
831.141	-0
831.435	0
831.729	0
832.023	0
832.317	0
832.61	-0
832.904	-0.01
833.197	0
833.491	0.01
833.784	0.01
834.077	0
834.371	-0
834.664	-0.01
834.957	-0.01
835.25	0
835.543	-0.01
835.836	0
836.129	-0.01
836.421	-0.01
836.714	-0
837.007	-0.01
837.299	-0.01
837.592	-0
837.884	-0.01
838.177	0.01
838.469	-0.01
838.761	0
839.053	0.01
839.345	0
839.637	-0
839.929	0
840.221	-0.01
840.513	0
840.805	-0
841.096	0
841.388	0
841.68	0.01
841.971	0
842.262	0.01
842.554	0
842.845	0.01
843.136	0.01
843.427	-0.01
843.718	0
844.009	0
844.3	0
844.591	-0.01
844.882	-0
845.173	-0.01
845.463	-0
845.754	-0
846.044	-0.01
846.335	-0.01
846.625	-0.01
846.915	-0.01
847.206	-0.01
847.496	-0
847.786	-0.01
848.076	-0
848.366	-0
848.656	-0
848.945	0
849.235	-0.01
849.525	-0
849.814	0
850.104	-0.01
850.393	-0
850.683	-0
850.972	0.01
851.261	-0
851.551	-0
851.84	-0
852.129	0
852.418	-0
852.707	0
852.995	-0.01
853.284	0.01
853.573	-0
853.862	-0
854.15	-0.01
854.439	-0.01
854.727	-0.01
855.015	-0.02
855.304	0.01
855.592	-0.01
855.88	-0.01
856.168	0.01
856.456	-0.01
856.744	-0.01
857.032	-0
857.32	-0.02
857.607	-0.01
857.895	-0.03
858.183	-0.03
858.47	-0.01
858.757	-0.02
859.045	-0.01
859.332	-0.02
859.619	0
859.907	-0.01
860.194	-0.04
860.481	-0.04
860.768	-0.04
861.054	-0.03
861.341	-0.01
861.628	-0.02
861.915	0
862.201	-0
862.488	0.01
862.774	0.01
863.061	-0.01
863.347	-0.02
863.633	-0.02
863.919	0.03
864.205	-0.01
864.491	0.01
864.777	-0.01
865.063	0
865.349	-0.02
865.635	-0.02
865.92	-0.03
866.206	-0.03
866.492	-0.02
866.777	-0.03
867.062	-0.02
867.348	-0
867.633	0.01
867.918	-0.01
868.203	0.02
868.488	-0.03
868.773	-0.02
869.058	-0.04
869.343	0.01
869.628	-0.01
869.912	-0.02
870.197	-0
870.482	-0.01
870.766	0.02
871.05	-0.03
871.335	-0.04
871.619	0.03
871.903	-0.04
872.187	-0.05
872.471	-0.01
872.755	-0.01
873.039	-0.04
873.323	-0.02
873.607	-0.04
873.89	0.08
874.174	0.05
874.458	0.05
874.741	0.03
875.024	0
875.308	0.02
875.591	0.02
875.874	-0.08
876.157	-0.03
876.44	-0.09
876.723	-0.03
877.006	-0.09
877.289	-0.01
877.572	-0.04
877.854	-0
878.137	0.05
878.42	0.03
878.702	-0.04
878.984	0.1
879.267	-0.02
879.549	-0.03
879.831	-0.15
880.113	0.01
880.395	-0.06
880.677	-0.09
880.959	0.01
