Data from Rubpy_EV_1200_EDTA_Absorbance_12-54-24-614.txt Node
Date: Mon Jun 29 12:54:24 BST 2026
User: fpm-admin
Spectrometer: OFX00224
Trigger mode: 0
Integration Time (sec): 7.000000E-2
Scans to average: 3
Nonlinearity correction enabled: false
Boxcar width: 0
Storing dark spectrum: false
XAxis mode: Wavelengths
Number of Pixels in Spectrum: 2136
>>>>>Begin Spectral Data<<<<<
154.91	1.02
155.289	-0.22
155.669	0.03
156.048	0.64
156.428	-1.08
156.807	0.37
157.186	0.8
157.566	-0.6
157.945	-0
158.325	-0.08
158.704	0.1
159.083	-0
159.462	0.4
159.842	-0
160.221	-0.07
160.6	-0
160.979	-0.9
161.359	-0.34
161.738	-0
162.117	-0.45
162.496	-0.31
162.875	-0
163.254	-0.33
163.633	1.23
164.012	-0
164.391	-0.2
164.77	-0
165.149	-0
165.528	0.12
165.907	-0.15
166.286	-0
166.665	-0.3
167.044	0.46
167.423	-0.54
167.802	0.11
168.181	-0
168.559	-0.75
168.938	0.21
169.317	-0
169.696	0.05
170.074	-0.33
170.453	-0.1
170.832	0.79
171.21	0.02
171.589	0.88
171.968	-0
172.346	-0
172.725	-0
173.103	-0
173.482	-0.32
173.861	-0
174.239	-0.1
174.617	-0
174.996	-0
175.374	-0.6
175.753	0.09
176.131	-0.48
176.51	0.53
176.888	-0
177.266	-0
177.645	0.01
178.023	0.48
178.401	-0.06
178.779	0.11
179.158	-0.2
179.536	-0
179.914	-0.02
180.292	0.24
180.67	0.09
181.048	-0
181.427	-0
181.805	-0.34
182.183	-0.05
182.561	0.23
182.939	-0
183.317	-0.48
183.695	-0
184.073	-0.51
184.451	-1.04
184.829	0.3
185.206	0.21
185.584	-0.08
185.962	-0.8
186.34	-0
186.718	-0
187.096	-0
187.473	-0.04
187.851	0.39
188.229	-0
188.607	0.14
188.984	0.11
189.362	0.23
189.74	0.06
190.117	0.01
190.495	0.05
190.872	0.01
191.25	0.17
191.627	0.22
192.005	0.18
192.382	0.08
192.76	0.08
193.137	0.18
193.515	-0.01
193.892	0.1
194.269	0.46
194.647	0.01
195.024	0.11
195.401	0.03
195.779	0.06
196.156	0.19
196.533	0.07
196.91	-0.03
197.288	0.06
197.665	0.09
198.042	0.19
198.419	0.32
198.796	0.15
199.173	0.11
199.55	0.21
199.927	0.16
200.304	0.11
200.681	0.08
201.058	0.14
201.435	0.21
201.812	0.27
202.189	0.03
202.566	0.15
202.943	0.13
203.32	0.17
203.697	0.13
204.073	0.07
204.45	0.13
204.827	0.17
205.204	0.14
205.58	-0.06
205.957	0.12
206.334	0.07
206.71	0.18
207.087	0.1
207.464	0.18
207.84	0.12
208.217	0.2
208.593	0.07
208.97	0.11
209.346	0.27
209.723	0.06
210.099	0.29
210.476	0.16
210.852	0.11
211.228	0.18
211.605	0.21
211.981	0.16
212.357	0.12
212.733	0.08
213.11	0.17
213.486	0.13
213.862	0.12
214.238	0.17
214.614	0.15
214.991	0.13
215.367	0.1
215.743	0.15
216.119	0.21
216.495	0.26
216.871	0.16
217.247	0.07
217.623	0.07
217.999	0.14
218.375	0.29
218.751	0.08
219.127	0.1
219.502	0.12
219.878	0.08
220.254	0.07
220.63	0.13
221.006	0.17
221.381	0.06
221.757	0.17
222.133	0.2
222.508	0.09
222.884	0.14
223.26	0.17
223.635	0.2
224.011	0.15
224.386	0.11
224.762	0.18
225.137	0.25
225.513	0.26
225.888	0.14
226.264	0.2
226.639	0.23
227.014	0.12
227.39	0.16
227.765	0.16
228.14	0.3
228.516	0.07
228.891	0.21
229.266	0.31
229.641	0.04
230.017	0.22
230.392	0.23
230.767	0.1
231.142	0.16
231.517	0.15
231.892	0.14
232.267	0.21
232.642	0.01
233.017	0.16
233.392	0.17
233.767	0.16
234.142	0.1
234.517	0.12
234.892	0.05
235.267	0.12
235.641	0.24
236.016	0.04
236.391	0.21
236.766	0.16
237.14	0.03
237.515	0.22
237.89	0.15
238.264	0.18
238.639	0.09
239.014	0.14
239.388	0.15
239.763	0.21
240.137	0.16
240.512	0.13
240.886	0.24
241.261	0.2
241.635	0.15
242.009	0.22
242.384	0.11
242.758	0.09
243.132	0.15
243.507	0.19
243.881	0.11
244.255	0.13
244.629	0.19
245.004	0.16
245.378	0.23
245.752	0.24
246.126	0.21
246.5	0.2
246.874	0.26
247.248	0.05
247.622	0.18
247.996	0.33
248.37	0.12
248.744	0.29
249.118	0.25
249.492	0.19
249.866	0.14
250.24	0.13
250.613	0.01
250.987	0.31
251.361	0.19
251.735	0.18
252.108	0.27
252.482	0.21
252.856	0.12
253.229	0.11
253.603	0.12
253.977	0.07
254.35	0.21
254.724	0.12
255.097	0.19
255.471	0.15
255.844	0.15
256.218	0.08
256.591	0.13
256.964	0.15
257.338	0.17
257.711	0.09
258.084	0.15
258.458	0.03
258.831	0.16
259.204	0.17
259.577	0.09
259.95	0.17
260.323	0.12
260.697	0.12
261.07	0.19
261.443	0.17
261.816	0.12
262.189	0.11
262.562	0.17
262.935	0.08
263.308	0.16
263.68	0.18
264.053	0.2
264.426	0.13
264.799	0.14
265.172	0.19
265.545	0.26
265.917	0.28
266.29	0.24
266.663	0.27
267.035	0.24
267.408	0.21
267.781	0.19
268.153	0.26
268.526	0.16
268.898	0.12
269.271	0.08
269.643	0.06
270.016	0.04
270.388	0.09
270.76	0.12
271.133	0.15
271.505	0.09
271.877	0.14
272.25	0.07
272.622	0.12
272.994	0.09
273.366	0.18
273.739	0.21
274.111	0.16
274.483	0.07
274.855	0.11
275.227	0.15
275.599	0.1
275.971	0.17
276.343	0.08
276.715	0.14
277.087	0.1
277.459	0.16
277.831	0.12
278.203	0.13
278.574	0.14
278.946	0.07
279.318	0.18
279.69	0.12
280.061	0.15
280.433	0.15
280.805	0.15
281.176	0.22
281.548	0.09
281.92	0.2
282.291	0.11
282.663	0.17
283.034	0.14
283.406	0.19
283.777	0.13
284.148	0.15
284.52	0.17
284.891	0.18
285.262	0.16
285.634	0.13
286.005	0.15
286.376	0.17
286.747	0.17
287.119	0.1
287.49	0.09
287.861	0.18
288.232	0.18
288.603	0.15
288.974	0.16
289.345	0.14
289.716	0.1
290.087	0.15
290.458	0.03
290.829	0.13
291.2	0.04
291.571	0.12
291.941	0.13
292.312	0.21
292.683	0.15
293.054	0.08
293.424	0.14
293.795	0.14
294.166	0.19
294.536	0.12
294.907	0.12
295.277	0.09
295.648	0.12
296.018	0.14
296.389	0.14
296.759	0.13
297.13	0.15
297.5	0.1
297.871	0.14
298.241	0.11
298.611	0.12
298.981	0.16
299.352	0.14
299.722	0.11
300.092	0.09
300.462	0.1
300.832	0.1
301.202	0.12
301.573	0.07
301.943	0.12
302.313	0.09
302.683	0.09
303.053	0.08
303.422	0.09
303.792	0.09
304.162	0.08
304.532	0.07
304.902	0.08
305.272	0.1
305.641	0.08
306.011	0.09
306.381	0.1
306.75	0.1
307.12	0.09
307.49	0.1
307.859	0.1
308.229	0.09
308.598	0.11
308.968	0.1
309.337	0.1
309.707	0.11
310.076	0.11
310.445	0.11
310.815	0.12
311.184	0.11
311.553	0.1
311.923	0.12
312.292	0.11
312.661	0.12
313.03	0.12
313.399	0.12
313.768	0.12
314.137	0.11
314.506	0.12
314.875	0.12
315.244	0.11
315.613	0.11
315.982	0.12
316.351	0.12
316.72	0.12
317.089	0.11
317.458	0.11
317.826	0.11
318.195	0.11
318.564	0.11
318.933	0.11
319.301	0.11
319.67	0.11
320.038	0.1
320.407	0.11
320.775	0.11
321.144	0.09
321.512	0.09
321.881	0.1
322.249	0.1
322.618	0.11
322.986	0.09
323.354	0.09
323.723	0.1
324.091	0.09
324.459	0.09
324.827	0.09
325.195	0.09
325.564	0.09
325.932	0.09
326.3	0.08
326.668	0.09
327.036	0.09
327.404	0.08
327.772	0.1
328.14	0.09
328.508	0.09
328.875	0.09
329.243	0.09
329.611	0.09
329.979	0.09
330.346	0.09
330.714	0.09
331.082	0.09
331.449	0.09
331.817	0.1
332.185	0.09
332.552	0.09
332.92	0.09
333.287	0.1
333.655	0.1
334.022	0.09
334.389	0.1
334.757	0.1
335.124	0.1
335.491	0.1
335.859	0.1
336.226	0.1
336.593	0.1
336.96	0.11
337.327	0.1
337.695	0.11
338.062	0.11
338.429	0.11
338.796	0.11
339.163	0.11
339.53	0.12
339.897	0.12
340.263	0.12
340.63	0.12
340.997	0.12
341.364	0.13
341.731	0.12
342.097	0.12
342.464	0.13
342.831	0.13
343.197	0.14
343.564	0.14
343.931	0.14
344.297	0.14
344.664	0.14
345.03	0.14
345.396	0.15
345.763	0.15
346.129	0.16
346.496	0.15
346.862	0.16
347.228	0.16
347.594	0.16
347.961	0.16
348.327	0.17
348.693	0.17
349.059	0.17
349.425	0.17
349.791	0.17
350.157	0.18
350.523	0.18
350.889	0.19
351.255	0.19
351.621	0.2
351.987	0.2
352.353	0.2
352.719	0.21
353.084	0.21
353.45	0.22
353.816	0.22
354.181	0.22
354.547	0.23
354.913	0.24
355.278	0.24
355.644	0.24
356.009	0.25
356.375	0.25
356.74	0.26
357.106	0.27
357.471	0.27
357.836	0.28
358.202	0.29
358.567	0.29
358.932	0.29
359.297	0.3
359.663	0.31
360.028	0.31
360.393	0.32
360.758	0.32
361.123	0.32
361.488	0.33
361.853	0.33
362.218	0.33
362.583	0.33
362.948	0.35
363.312	0.35
363.677	0.36
364.042	0.35
364.407	0.36
364.772	0.38
365.136	0.38
365.501	0.38
365.865	0.39
366.23	0.4
366.595	0.41
366.959	0.42
367.324	0.43
367.688	0.44
368.052	0.45
368.417	0.45
368.781	0.46
369.145	0.46
369.51	0.47
369.874	0.47
370.238	0.47
370.602	0.47
370.967	0.47
371.331	0.47
371.695	0.46
372.059	0.46
372.423	0.47
372.787	0.46
373.151	0.46
373.515	0.46
373.878	0.46
374.242	0.46
374.606	0.46
374.97	0.46
375.334	0.47
375.697	0.46
376.061	0.47
376.425	0.47
376.788	0.47
377.152	0.47
377.515	0.48
377.879	0.48
378.242	0.49
378.606	0.5
378.969	0.51
379.333	0.51
379.696	0.52
380.059	0.53
380.422	0.54
380.786	0.55
381.149	0.56
381.512	0.57
381.875	0.58
382.238	0.59
382.601	0.62
382.964	0.63
383.327	0.65
383.69	0.66
384.053	0.68
384.416	0.7
384.779	0.71
385.142	0.73
385.504	0.74
385.867	0.76
386.23	0.77
386.593	0.77
386.955	0.78
387.318	0.77
387.68	0.76
388.043	0.76
388.405	0.76
388.768	0.75
389.13	0.75
389.493	0.74
389.855	0.73
390.217	0.73
390.58	0.73
390.942	0.73
391.304	0.74
391.666	0.76
392.028	0.76
392.391	0.78
392.753	0.8
393.115	0.83
393.477	0.87
393.839	0.89
394.201	0.93
394.563	0.97
394.924	1
395.286	1.04
395.648	1.07
396.01	1.1
396.371	1.15
396.733	1.17
397.095	1.17
397.456	1.18
397.818	1.18
398.18	1.17
398.541	1.14
398.903	1.14
399.264	1.11
399.625	1.05
399.987	1.03
400.348	0.98
400.709	0.92
401.071	0.87
401.432	0.82
401.793	0.78
402.154	0.72
402.515	0.67
402.876	0.62
403.238	0.58
403.599	0.55
403.96	0.5
404.32	0.46
404.681	0.43
405.042	0.4
405.403	0.37
405.764	0.34
406.125	0.32
406.485	0.29
406.846	0.28
407.207	0.26
407.567	0.24
407.928	0.24
408.288	0.22
408.649	0.2
409.009	0.19
409.37	0.19
409.73	0.18
410.091	0.16
410.451	0.16
410.811	0.15
411.171	0.15
411.532	0.14
411.892	0.14
412.252	0.13
412.612	0.12
412.972	0.12
413.332	0.12
413.692	0.12
414.052	0.11
414.412	0.1
414.772	0.1
415.132	0.1
415.492	0.09
415.851	0.09
416.211	0.09
416.571	0.08
416.931	0.09
417.29	0.08
417.65	0.08
418.009	0.08
418.369	0.08
418.728	0.08
419.088	0.08
419.447	0.07
419.807	0.07
420.166	0.07
420.525	0.07
420.884	0.07
421.244	0.06
421.603	0.06
421.962	0.06
422.321	0.07
422.68	0.06
423.039	0.07
423.398	0.05
423.757	0.06
424.116	0.06
424.475	0.06
424.834	0.05
425.193	0.05
425.551	0.04
425.91	0.06
426.269	0.05
426.628	0.06
426.986	0.05
427.345	0.05
427.703	0.05
428.062	0.05
428.42	0.05
428.779	0.05
429.137	0.05
429.496	0.05
429.854	0.04
430.212	0.05
430.57	0.05
430.929	0.05
431.287	0.05
431.645	0.05
432.003	0.04
432.361	0.04
432.719	0.04
433.077	0.04
433.435	0.04
433.793	0.04
434.151	0.04
434.509	0.04
434.866	0.03
435.224	0.04
435.582	0.04
435.94	0.04
436.297	0.05
436.655	0.05
437.012	0.03
437.37	0.03
437.727	0.04
438.085	0.03
438.442	0.04
438.8	0.04
439.157	0.04
439.514	0.03
439.872	0.04
440.229	0.03
440.586	0.03
440.943	0.03
441.3	0.04
441.657	0.03
442.014	0.03
442.371	0.04
442.728	0.03
443.085	0.03
443.442	0.03
443.799	0.03
444.156	0.03
444.513	0.04
444.869	0.03
445.226	0.03
445.583	0.03
445.939	0.03
446.296	0.03
446.652	0.03
447.009	0.04
447.365	0.02
447.722	0.02
448.078	0.02
448.434	0.03
448.791	0.02
449.147	0.02
449.503	0.04
449.859	0.02
450.215	0.02
450.571	0.02
450.928	0.02
451.284	0.03
451.64	0.03
451.995	0.02
452.351	0.02
452.707	0.03
453.063	0.02
453.419	0.03
453.775	0.02
454.13	0.02
454.486	0.02
454.842	0.02
455.197	0.02
455.553	0.02
455.908	0.02
456.264	0.02
456.619	0.03
456.975	0.02
457.33	0.02
457.685	0.02
458.04	0.01
458.396	0.01
458.751	0.02
459.106	0.02
459.461	0.02
459.816	0.02
460.171	0.02
460.526	0.02
460.881	0.01
461.236	0.01
461.591	0.01
461.946	0.02
462.301	0.01
462.655	0.02
463.01	0.01
463.365	0.01
463.719	0.02
464.074	0.01
464.428	0.01
464.783	0.01
465.137	-0
465.492	0.01
465.846	0.01
466.201	0.01
466.555	0.01
466.909	0
467.263	0.02
467.618	0.01
467.972	0.01
468.326	0.01
468.68	0.01
469.034	0.01
469.388	0.01
469.742	0
470.096	0.01
470.45	0
470.804	0.01
471.157	0.01
471.511	0
471.865	0.01
472.218	0.01
472.572	0.01
472.926	0.01
473.279	0.01
473.633	0.01
473.986	0.01
474.34	0.02
474.693	0.02
475.046	0.01
475.4	0.02
475.753	0.02
476.106	0.02
476.459	0.02
476.812	0.02
477.165	0.02
477.519	0.02
477.872	0.02
478.224	0.03
478.577	0.03
478.93	0.02
479.283	0.03
479.636	0.02
479.989	0.03
480.341	0.03
480.694	0.03
481.047	0.03
481.399	0.03
481.752	0.03
482.104	0.04
482.457	0.03
482.809	0.04
483.162	0.04
483.514	0.03
483.866	0.03
484.219	0.03
484.571	0.04
484.923	0.04
485.275	0.04
485.627	0.04
485.979	0.04
486.331	0.04
486.683	0.04
487.035	0.04
487.387	0.04
487.739	0.05
488.091	0.05
488.443	0.05
488.794	0.05
489.146	0.05
489.498	0.05
489.849	0.04
490.201	0.05
490.552	0.05
490.904	0.05
491.255	0.05
491.607	0.05
491.958	0.05
492.309	0.05
492.661	0.05
493.012	0.06
493.363	0.05
493.714	0.05
494.065	0.05
494.416	0.05
494.767	0.06
495.118	0.06
495.469	0.06
495.82	0.06
496.171	0.06
496.522	0.06
496.872	0.06
497.223	0.07
497.574	0.06
497.924	0.07
498.275	0.07
498.626	0.06
498.976	0.07
499.327	0.07
499.677	0.06
500.027	0.07
500.378	0.07
500.728	0.07
501.078	0.07
501.428	0.07
501.779	0.07
502.129	0.08
502.479	0.08
502.829	0.07
503.179	0.08
503.529	0.07
503.879	0.07
504.229	0.08
504.578	0.08
504.928	0.08
505.278	0.08
505.628	0.08
505.977	0.08
506.327	0.08
506.676	0.09
507.026	0.09
507.375	0.09
507.725	0.09
508.074	0.09
508.424	0.09
508.773	0.09
509.122	0.09
509.471	0.09
509.82	0.09
510.17	0.1
510.519	0.1
510.868	0.09
511.217	0.1
511.566	0.1
511.915	0.1
512.263	0.1
512.612	0.1
512.961	0.1
513.31	0.1
513.659	0.11
514.007	0.11
514.356	0.11
514.704	0.11
515.053	0.11
515.401	0.11
515.75	0.11
516.098	0.11
516.447	0.12
516.795	0.12
517.143	0.11
517.491	0.12
517.839	0.11
518.188	0.12
518.536	0.12
518.884	0.12
519.232	0.12
519.58	0.12
519.928	0.12
520.275	0.13
520.623	0.13
520.971	0.13
521.319	0.13
521.666	0.13
522.014	0.13
522.362	0.13
522.709	0.12
523.057	0.13
523.404	0.13
523.752	0.13
524.099	0.14
524.446	0.13
524.794	0.14
525.141	0.14
525.488	0.14
525.835	0.14
526.182	0.13
526.529	0.14
526.876	0.14
527.223	0.14
527.57	0.14
527.917	0.14
528.264	0.15
528.611	0.15
528.958	0.16
529.304	0.15
529.651	0.15
529.998	0.16
530.344	0.16
530.691	0.15
531.037	0.16
531.384	0.16
531.73	0.16
532.076	0.16
532.423	0.16
532.769	0.16
533.115	0.16
533.461	0.16
533.807	0.17
534.154	0.17
534.5	0.17
534.846	0.17
535.192	0.17
535.537	0.18
535.883	0.17
536.229	0.18
536.575	0.18
536.921	0.18
537.266	0.18
537.612	0.18
537.957	0.19
538.303	0.19
538.649	0.19
538.994	0.19
539.339	0.19
539.685	0.19
540.03	0.19
540.375	0.19
540.721	0.19
541.066	0.19
541.411	0.19
541.756	0.2
542.101	0.2
542.446	0.2
542.791	0.2
543.136	0.21
543.481	0.21
543.825	0.21
544.17	0.21
544.515	0.21
544.86	0.21
545.204	0.21
545.549	0.22
545.893	0.22
546.238	0.22
546.582	0.22
546.927	0.22
547.271	0.22
547.615	0.23
547.96	0.22
548.304	0.23
548.648	0.23
548.992	0.23
549.336	0.24
549.68	0.24
550.024	0.24
550.368	0.23
550.712	0.24
551.056	0.24
551.4	0.24
551.743	0.24
552.087	0.24
552.431	0.24
552.774	0.25
553.118	0.24
553.462	0.25
553.805	0.25
554.148	0.25
554.492	0.26
554.835	0.26
555.178	0.26
555.522	0.26
555.865	0.26
556.208	0.25
556.551	0.25
556.894	0.26
557.237	0.26
557.58	0.26
557.923	0.26
558.266	0.26
558.609	0.26
558.952	0.26
559.294	0.26
559.637	0.26
559.98	0.27
560.322	0.27
560.665	0.27
561.007	0.27
561.35	0.27
561.692	0.27
562.034	0.27
562.377	0.27
562.719	0.28
563.061	0.27
563.403	0.27
563.745	0.28
564.088	0.28
564.43	0.28
564.772	0.27
565.113	0.27
565.455	0.28
565.797	0.28
566.139	0.28
566.481	0.28
566.822	0.28
567.164	0.28
567.506	0.28
567.847	0.28
568.189	0.29
568.53	0.28
568.872	0.28
569.213	0.29
569.554	0.29
569.895	0.29
570.237	0.29
570.578	0.29
570.919	0.28
571.26	0.28
571.601	0.28
571.942	0.29
572.283	0.29
572.624	0.29
572.965	0.29
573.306	0.29
573.646	0.29
573.987	0.29
574.328	0.29
574.668	0.29
575.009	0.29
575.349	0.29
575.69	0.29
576.03	0.29
576.37	0.29
576.711	0.29
577.051	0.29
577.391	0.29
577.731	0.29
578.072	0.29
578.412	0.29
578.752	0.29
579.092	0.29
579.431	0.29
579.771	0.29
580.111	0.29
580.451	0.29
580.791	0.29
581.13	0.29
581.47	0.29
581.81	0.3
582.149	0.3
582.489	0.3
582.828	0.29
583.167	0.29
583.507	0.29
583.846	0.28
584.185	0.29
584.525	0.29
584.864	0.3
585.203	0.3
585.542	0.3
585.881	0.31
586.22	0.3
586.559	0.31
586.898	0.31
587.236	0.3
587.575	0.3
587.914	0.31
588.252	0.31
588.591	0.31
588.93	0.31
589.268	0.31
589.607	0.31
589.945	0.31
590.283	0.32
590.622	0.32
590.96	0.32
591.298	0.32
591.636	0.33
591.974	0.33
592.313	0.33
592.651	0.33
592.989	0.33
593.326	0.34
593.664	0.34
594.002	0.34
594.34	0.34
594.678	0.34
595.015	0.34
595.353	0.34
595.691	0.34
596.028	0.34
596.366	0.34
596.703	0.34
597.04	0.34
597.378	0.35
597.715	0.35
598.052	0.35
598.389	0.35
598.726	0.36
599.064	0.36
599.401	0.36
599.738	0.36
600.074	0.35
600.411	0.36
600.748	0.36
601.085	0.36
601.422	0.36
601.758	0.36
602.095	0.36
602.432	0.35
602.768	0.36
603.105	0.36
603.441	0.36
603.777	0.36
604.114	0.36
604.45	0.36
604.786	0.36
605.122	0.36
605.459	0.36
605.795	0.36
606.131	0.36
606.467	0.36
606.803	0.36
607.139	0.36
607.474	0.36
607.81	0.36
608.146	0.36
608.482	0.36
608.817	0.36
609.153	0.36
609.488	0.36
609.824	0.35
610.159	0.36
610.495	0.35
610.83	0.35
611.165	0.35
611.5	0.35
611.836	0.35
612.171	0.35
612.506	0.34
612.841	0.34
613.176	0.35
613.511	0.35
613.845	0.34
614.18	0.34
614.515	0.34
614.85	0.34
615.184	0.34
615.519	0.34
615.854	0.34
616.188	0.34
616.523	0.34
616.857	0.34
617.191	0.34
617.526	0.34
617.86	0.33
618.194	0.33
618.528	0.33
618.862	0.33
619.196	0.33
619.53	0.33
619.864	0.32
620.198	0.32
620.532	0.32
620.866	0.32
621.2	0.32
621.533	0.32
621.867	0.33
622.201	0.32
622.534	0.32
622.868	0.32
623.201	0.31
623.534	0.31
623.868	0.31
624.201	0.31
624.534	0.31
624.868	0.31
625.201	0.31
625.534	0.31
625.867	0.3
626.2	0.31
626.533	0.3
626.865	0.3
627.198	0.3
627.531	0.3
627.864	0.3
628.196	0.3
628.529	0.3
628.862	0.29
629.194	0.29
629.527	0.29
629.859	0.29
630.191	0.28
630.524	0.29
630.856	0.28
631.188	0.28
631.52	0.28
631.852	0.28
632.184	0.27
632.516	0.27
632.848	0.27
633.18	0.26
633.512	0.27
633.844	0.26
634.175	0.26
634.507	0.26
634.839	0.26
635.17	0.26
635.502	0.26
635.833	0.25
636.165	0.25
636.496	0.25
636.827	0.24
637.159	0.24
637.49	0.24
637.821	0.24
638.152	0.24
638.483	0.24
638.814	0.23
639.145	0.24
639.476	0.23
639.807	0.23
640.137	0.23
640.468	0.23
640.799	0.23
641.129	0.22
641.46	0.22
641.791	0.22
642.121	0.22
642.451	0.21
642.782	0.21
643.112	0.21
643.442	0.21
643.773	0.21
644.103	0.21
644.433	0.21
644.763	0.2
645.093	0.21
645.423	0.2
645.753	0.2
646.082	0.2
646.412	0.2
646.742	0.19
647.072	0.19
647.401	0.19
647.731	0.19
648.06	0.2
648.39	0.2
648.719	0.2
649.048	0.2
649.378	0.2
649.707	0.2
650.036	0.2
650.365	0.19
650.694	0.19
651.023	0.19
651.352	0.19
651.681	0.19
652.01	0.19
652.339	0.19
652.668	0.19
652.996	0.19
653.325	0.19
653.654	0.18
653.982	0.18
654.311	0.18
654.639	0.19
654.967	0.19
655.296	0.19
655.624	0.19
655.952	0.19
656.28	0.19
656.609	0.19
656.937	0.19
657.265	0.19
657.593	0.19
657.92	0.11
658.248	0.06
658.576	0.06
658.904	0.16
659.231	0.18
659.559	0.18
659.887	0.18
660.214	0.19
660.542	0.18
660.869	0.18
661.196	0.18
661.524	0.19
661.851	0.19
662.178	0.19
662.505	0.18
662.832	0.19
663.159	0.18
663.486	0.19
663.813	0.19
664.14	0.19
664.467	0.18
664.794	0.18
665.12	0.18
665.447	0.18
665.774	0.18
666.1	0.18
666.427	0.18
666.753	0.18
667.079	0.18
667.406	0.18
667.732	0.18
668.058	0.18
668.384	0.18
668.71	0.18
669.036	0.17
669.362	0.17
669.688	0.17
670.014	0.17
670.34	0.17
670.666	0.17
670.991	0.17
671.317	0.17
671.643	0.17
671.968	0.17
672.294	0.17
672.619	0.17
672.945	0.17
673.27	0.16
673.595	0.16
673.92	0.16
674.246	0.16
674.571	0.16
674.896	0.16
675.221	0.16
675.546	0.15
675.87	0.16
676.195	0.15
676.52	0.16
676.845	0.16
677.169	0.16
677.494	0.15
677.819	0.15
678.143	0.16
678.468	0.15
678.792	0.15
679.116	0.14
679.44	0.14
679.765	0.14
680.089	0.14
680.413	0.14
680.737	0.14
681.061	0.14
681.385	0.13
681.709	0.13
682.033	0.13
682.356	0.13
682.68	0.13
683.004	0.12
683.327	0.12
683.651	0.12
683.974	0.12
684.298	0.13
684.621	0.12
684.944	0.12
685.268	0.12
685.591	0.12
685.914	0.12
686.237	0.11
686.56	0.11
686.883	0.11
687.206	0.11
687.529	0.11
687.852	0.11
688.175	0.11
688.497	0.11
688.82	0.11
689.142	0.11
689.465	0.11
689.787	0.11
690.11	0.11
690.432	0.11
690.755	0.11
691.077	0.1
691.399	0.1
691.721	0.1
692.043	0.1
692.365	0.1
692.687	0.1
693.009	0.1
693.331	0.09
693.653	0.09
693.974	0.09
694.296	0.09
694.618	0.09
694.939	0.09
695.261	0.09
695.582	0.09
695.904	0.09
696.225	0.09
696.546	0.09
696.868	0.09
697.189	0.09
697.51	0.09
697.831	0.09
698.152	0.08
698.473	0.08
698.794	0.08
699.114	0.08
699.435	0.08
699.756	0.07
700.077	0.07
700.397	0.07
700.718	0.07
701.038	0.07
701.359	0.07
701.679	0.07
701.999	0.06
702.32	0.07
702.64	0.07
702.96	0.06
703.28	0.06
703.6	0.07
703.92	0.06
704.24	0.06
704.56	0.06
704.879	0.06
705.199	0.06
705.519	0.06
705.838	0.06
706.158	0.06
706.478	0.06
706.797	0.06
707.116	0.06
707.436	0.05
707.755	0.05
708.074	0.05
708.393	0.05
708.712	0.06
709.031	0.05
709.35	0.06
709.669	0.06
709.988	0.06
710.307	0.06
710.626	0.06
710.944	0.06
711.263	0.06
711.582	0.06
711.9	0.06
712.219	0.07
712.537	0.07
712.855	0.07
713.174	0.07
713.492	0.07
713.81	0.07
714.128	0.07
714.446	0.06
714.764	0.06
715.082	0.06
715.4	0.06
715.718	0.06
716.035	0.06
716.353	0.06
716.671	0.06
716.988	0.06
717.306	0.06
717.623	0.06
717.941	0.06
718.258	0.06
718.575	0.06
718.893	0.06
719.21	0.06
719.527	0.06
719.844	0.06
720.161	0.07
720.478	0.06
720.795	0.06
721.112	0.06
721.428	0.06
721.745	0.06
722.062	0.06
722.378	0.06
722.695	0.06
723.011	0.06
723.328	0.06
723.644	0.06
723.96	0.06
724.276	0.07
724.593	0.06
724.909	0.06
725.225	0.07
725.541	0.07
725.857	0.07
726.173	0.07
726.488	0.07
726.804	0.07
727.12	0.07
727.435	0.07
727.751	0.07
728.067	0.07
728.382	0.07
728.697	0.07
729.013	0.07
729.328	0.07
729.643	0.07
729.958	0.07
730.273	0.07
730.588	0.07
730.903	0.07
731.218	0.07
731.533	0.07
731.848	0.06
732.163	0.06
732.477	0.06
732.792	0.07
733.107	0.06
733.421	0.06
733.736	0.07
734.05	0.06
734.364	0.06
734.678	0.06
734.993	0.06
735.307	0.06
735.621	0.06
735.935	0.06
736.249	0.06
736.563	0.06
736.877	0.07
737.19	0.07
737.504	0.07
737.818	0.06
738.131	0.06
738.445	0.06
738.758	0.05
739.072	0.05
739.385	0.06
739.698	0.06
740.012	0.06
740.325	0.06
740.638	0.06
740.951	0.06
741.264	0.06
741.577	0.06
741.89	0.06
742.203	0.06
742.515	0.06
742.828	0.06
743.141	0.06
743.453	0.06
743.766	0.06
744.078	0.06
744.391	0.06
744.703	0.06
745.015	0.06
745.327	0.06
745.639	0.06
745.952	0.06
746.264	0.06
746.575	0.06
746.887	0.06
747.199	0.06
747.511	0.06
747.823	0.05
748.134	0.05
748.446	0.05
748.757	0.05
749.069	0.05
749.38	0.05
749.692	0.05
750.003	0.05
750.314	0.04
750.625	0.04
750.936	0.04
751.248	0.04
751.559	0.04
751.869	0.04
752.18	0.04
752.491	0.04
752.802	0.04
753.112	0.04
753.423	0.04
753.734	0.04
754.044	0.04
754.355	0.04
754.665	0.04
754.975	0.04
755.285	0.04
755.596	0.04
755.906	0.03
756.216	0.03
756.526	0.03
756.836	0.03
757.146	0.03
757.455	0.03
757.765	0.03
758.075	0.03
758.385	0.03
758.694	0.03
759.004	0.02
759.313	0.02
759.622	0.02
759.932	0.02
760.241	0.02
760.55	0.02
760.859	0.02
761.168	0.02
761.477	0.02
761.786	0.03
762.095	0.03
762.404	0.02
762.713	0.03
763.021	0.03
763.33	0.03
763.639	0.02
763.947	0.02
764.256	0.02
764.564	0.02
764.872	0.02
765.181	0.02
765.489	0.02
765.797	0.02
766.105	0.01
766.413	0.02
766.721	0.01
767.029	0.01
767.337	0.01
767.644	0.02
767.952	0.02
768.26	0.01
768.567	0.02
768.875	0.02
769.182	0.02
769.49	0.01
769.797	0.01
770.104	0.01
770.411	0.01
770.718	0.01
771.026	0.01
771.333	0.01
771.639	0.01
771.946	0.01
772.253	0.01
772.56	0
772.867	0.01
773.173	0.01
773.48	0.01
773.786	0.01
774.093	0.01
774.399	0.01
774.705	0.01
775.012	0.01
775.318	0.01
775.624	0.01
775.93	0.01
776.236	0
776.542	0
776.848	0
777.154	-0
777.459	0
777.765	0
778.071	0
778.376	0
778.682	-0
778.987	-0
779.292	0
779.598	0
779.903	0
780.208	0
780.513	0
780.818	0.01
781.123	0.01
781.428	0.01
781.733	0.01
782.038	0.01
782.343	0.01
782.647	0
782.952	0.01
783.256	0
783.561	0.01
783.865	0.01
784.17	0.01
784.474	0.01
784.778	0.01
785.082	0.01
785.386	0.01
785.69	0
785.994	0
786.298	0.01
786.602	0
786.906	0.01
787.209	0.01
787.513	0.01
787.817	0.01
788.12	0.01
788.424	0.01
788.727	0.01
789.03	0.01
789.333	0.01
789.637	0.01
789.94	0.01
790.243	0.01
790.546	0.01
790.849	0.01
791.152	0.01
791.454	0.01
791.757	0.01
792.06	0.01
792.362	0.01
792.665	0
792.967	0.01
793.27	0
793.572	0
793.874	0
794.177	-0
794.479	-0
794.781	-0
795.083	-0
795.385	-0
795.687	-0
795.989	0
796.29	0
796.592	-0
796.894	0
797.195	0
797.497	0
797.798	-0
798.1	-0
798.401	-0.01
798.702	-0.01
799.003	-0.01
799.304	-0
799.605	-0
799.906	-0
800.207	-0
800.508	0
800.809	0.01
801.11	-0
801.41	0
801.711	0
802.011	-0
802.312	0
802.612	0.01
802.913	0.01
803.213	0.01
803.513	0
803.813	0.01
804.113	0.01
804.413	0.01
804.713	0
805.013	-0
805.313	0
805.613	-0
805.912	-0
806.212	-0
806.511	-0
806.811	-0.01
807.11	-0.01
807.41	0
807.709	-0
808.008	-0
808.307	-0
808.606	-0
808.905	-0
809.204	-0.01
809.503	-0.01
809.802	-0
810.101	0
810.399	-0
810.698	0
810.997	-0
811.295	-0
811.593	-0
811.892	-0.01
812.19	-0
812.488	-0.01
812.786	-0.01
813.084	-0
813.383	-0.01
813.68	-0.01
813.978	-0
814.276	-0.01
814.574	-0
814.872	-0
815.169	-0.01
815.467	-0.01
815.764	-0
816.062	-0
816.359	-0
816.656	0
816.954	-0
817.251	0
817.548	-0
817.845	-0
818.142	-0
818.439	-0.01
818.735	-0
819.032	-0
819.329	-0
819.626	-0
819.922	-0.01
820.219	-0.01
820.515	-0.01
820.811	-0.01
821.108	-0.01
821.404	-0.01
821.7	-0
821.996	-0.01
822.292	-0.01
822.588	-0
822.884	-0.01
823.18	0
823.475	-0.01
823.771	0.01
824.067	0
824.362	0
824.658	0.01
824.953	0.01
825.249	0.01
825.544	0.01
825.839	0.01
826.134	0.01
826.429	0.01
826.724	0.01
827.019	0.01
827.314	-0
827.609	-0.01
827.904	-0
828.198	-0.01
828.493	-0.01
828.787	0
829.082	0
829.376	-0.01
829.671	-0.01
829.965	0
830.259	0
830.553	0
830.847	0.01
831.141	-0
831.435	-0.01
831.729	-0
832.023	-0
832.317	-0
832.61	-0.01
832.904	-0.02
833.197	-0
833.491	0
833.784	0
834.077	-0
834.371	0
834.664	-0.01
834.957	-0.01
835.25	-0.01
835.543	-0.01
835.836	-0.01
836.129	-0.01
836.421	-0.01
836.714	-0.01
837.007	-0.02
837.299	-0.01
837.592	-0.01
837.884	-0.01
838.177	0
838.469	-0.01
838.761	-0
839.053	-0
839.345	0
839.637	-0
839.929	0.01
840.221	-0.01
840.513	-0.01
840.805	-0.01
841.096	-0
841.388	0.01
841.68	0.01
841.971	-0.01
842.262	0
842.554	0.01
842.845	0
843.136	-0
843.427	-0.01
843.718	-0
844.009	-0
844.3	-0
844.591	-0.01
844.882	-0
845.173	-0.02
845.463	-0
845.754	-0.01
846.044	-0.02
846.335	-0
846.625	-0.01
846.915	-0.01
847.206	-0
847.496	-0.02
847.786	-0.01
848.076	-0.01
848.366	-0
848.656	-0.01
848.945	-0.01
849.235	-0.01
849.525	-0.01
849.814	-0
850.104	-0
850.393	-0.01
850.683	-0.01
850.972	-0.01
851.261	-0.01
851.551	-0
851.84	-0.02
852.129	-0.01
852.418	0.01
852.707	-0
852.995	-0.01
853.284	0.01
853.573	0.01
853.862	-0
854.15	-0.01
854.439	-0
854.727	-0.01
855.015	-0.03
855.304	-0.01
855.592	-0.01
855.88	-0.01
856.168	-0.01
856.456	-0
856.744	-0.01
857.032	-0
857.32	-0.01
857.607	-0.02
857.895	-0.04
858.183	-0.03
858.47	-0.03
858.757	-0.03
859.045	-0.01
859.332	-0.03
859.619	-0.01
859.907	-0.01
860.194	-0.04
860.481	-0.02
860.768	-0.05
861.054	-0.03
861.341	-0
861.628	-0.02
861.915	-0.03
862.201	-0.02
862.488	0.01
862.774	-0.02
863.061	-0.02
863.347	-0.03
863.633	-0.05
863.919	0.02
864.205	-0.01
864.491	-0.01
864.777	0
865.063	0.03
865.349	-0.01
865.635	-0.03
865.92	-0.03
866.206	-0.02
866.492	-0.03
866.777	-0.04
867.062	-0.02
867.348	0.03
867.633	0.03
867.918	-0.02
868.203	-0.04
868.488	-0.02
868.773	-0.05
869.058	-0.04
869.343	-0.01
869.628	-0.02
869.912	-0.01
870.197	-0.03
870.482	-0.06
870.766	0.03
871.05	-0.05
871.335	-0.07
871.619	0.01
871.903	-0.05
872.187	-0.1
872.471	-0.1
872.755	-0.04
873.039	-0.06
873.323	-0.04
873.607	-0.01
873.89	0.09
874.174	-0.01
874.458	0.04
874.741	-0.01
875.024	-0
875.308	0.02
875.591	0.04
875.874	-0.06
876.157	-0.06
876.44	-0.02
876.723	-0.06
877.006	-0.04
877.289	0.08
877.572	-0.09
877.854	-0
878.137	0.07
878.42	-0.02
878.702	-0.11
878.984	0.07
879.267	-0.04
879.549	0
879.831	0.08
880.113	0
880.395	-0.07
880.677	-0.02
880.959	0.06
