Data from Rubpy_EV_1200_EDTA_Absorbance_12-57-16-669.txt Node
Date: Mon Jun 29 12:57:16 BST 2026
User: fpm-admin
Spectrometer: OFX00224
Trigger mode: 0
Integration Time (sec): 7.000000E-2
Scans to average: 3
Nonlinearity correction enabled: false
Boxcar width: 0
Storing dark spectrum: false
XAxis mode: Wavelengths
Number of Pixels in Spectrum: 2136
>>>>>Begin Spectral Data<<<<<
154.91	0.1
155.289	0.71
155.669	1.77
156.048	0.21
156.428	-0
156.807	-0
157.186	-0.25
157.566	-0.56
157.945	-0.85
158.325	-0.21
158.704	-0.17
159.083	0.12
159.462	-0.09
159.842	-0
160.221	-0.31
160.6	1.18
160.979	-0.9
161.359	-0.49
161.738	-1
162.117	-0.48
162.496	-0.47
162.875	-0
163.254	-0.46
163.633	-0.05
164.012	-0
164.391	-0
164.77	-0.45
165.149	0.6
165.528	-0.11
165.907	-0.11
166.286	-0.27
166.665	-0.26
167.044	-0.21
167.423	-0
167.802	-0.2
168.181	1.19
168.559	-0.56
168.938	0.23
169.317	-0
169.696	1.18
170.074	-0.14
170.453	-0
170.832	0.67
171.21	0.25
171.589	1.18
171.968	-0.36
172.346	-0
172.725	0.59
173.103	-0
173.482	-0.55
173.861	-0
174.239	-0.14
174.617	-0
174.996	-0
175.374	-0
175.753	-0.09
176.131	-0
176.51	-0.08
176.888	-0
177.266	-0
177.645	0.14
178.023	0.11
178.401	-0.01
178.779	0.06
179.158	1.18
179.536	-0.23
179.914	-0
180.292	-0.02
180.67	-0.16
181.048	-0
181.427	-0
181.805	-0.7
182.183	-0.3
182.561	-0.4
182.939	-0.16
183.317	-0.54
183.695	-0
184.073	1.08
184.451	-0
184.829	-0.26
185.206	0.1
185.584	0.05
185.962	0.08
186.34	-0.07
186.718	-0
187.096	-0
187.473	0.87
187.851	0.5
188.229	-0.32
188.607	0.32
188.984	0.16
189.362	0.26
189.74	0.14
190.117	0.1
190.495	0.18
190.872	0.03
191.25	0.19
191.627	0.06
192.005	0.23
192.382	0.15
192.76	0.17
193.137	0.23
193.515	0.4
193.892	0.24
194.269	0.24
194.647	0.1
195.024	0.11
195.401	0.15
195.779	0.14
196.156	0.2
196.533	0.15
196.91	-0.05
197.288	0.28
197.665	0.08
198.042	0.28
198.419	0.04
198.796	0.22
199.173	0.18
199.55	0.16
199.927	0.16
200.304	0.21
200.681	0.07
201.058	0.06
201.435	0.08
201.812	0.18
202.189	0.14
202.566	0.16
202.943	0.35
203.32	0.11
203.697	0.25
204.073	-0.05
204.45	0.14
204.827	0.13
205.204	0.22
205.58	0.17
205.957	0.13
206.334	0.11
206.71	0.29
207.087	0.15
207.464	0.28
207.84	0.12
208.217	0.31
208.593	0.09
208.97	0.08
209.346	0.41
209.723	0.18
210.099	0.13
210.476	0.18
210.852	0.31
211.228	0.23
211.605	0.09
211.981	0.18
212.357	0.16
212.733	0.1
213.11	0.14
213.486	0.14
213.862	0.3
214.238	0.24
214.614	0.19
214.991	0.12
215.367	0.09
215.743	0.11
216.119	0.03
216.495	0.14
216.871	0.25
217.247	0.13
217.623	0.15
217.999	0.17
218.375	0.25
218.751	0.22
219.127	0.15
219.502	0.18
219.878	0.03
220.254	0.07
220.63	0.17
221.006	0.23
221.381	0.14
221.757	0.15
222.133	0.21
222.508	0.17
222.884	0.15
223.26	0.23
223.635	0.27
224.011	0.16
224.386	0.36
224.762	0.19
225.137	0.19
225.513	0.39
225.888	0.3
226.264	0.08
226.639	0.09
227.014	0.28
227.39	0.01
227.765	0.39
228.14	0.2
228.516	0.1
228.891	0.19
229.266	0.25
229.641	0.13
230.017	0.19
230.392	0.12
230.767	0.2
231.142	0.15
231.517	0.24
231.892	0.13
232.267	0.1
232.642	0.18
233.017	0.24
233.392	0.17
233.767	0.21
234.142	0.23
234.517	0.16
234.892	0.07
235.267	0.17
235.641	0.23
236.016	0.23
236.391	0.23
236.766	0.1
237.14	0.1
237.515	0.31
237.89	0.12
238.264	0.26
238.639	0.13
239.014	0.1
239.388	0.19
239.763	0.16
240.137	0.2
240.512	0.02
240.886	0.13
241.261	0.27
241.635	0.22
242.009	0.23
242.384	0.16
242.758	0.07
243.132	0.04
243.507	0.15
243.881	0.18
244.255	0.16
244.629	0.21
245.004	0.11
245.378	0.12
245.752	0.21
246.126	0.2
246.5	0.24
246.874	0.24
247.248	0.19
247.622	-0.01
247.996	0.21
248.37	0.16
248.744	0.42
249.118	0.18
249.492	0.37
249.866	0.13
250.24	0.2
250.613	0.18
250.987	0.25
251.361	0.24
251.735	0.13
252.108	0.12
252.482	0.14
252.856	0.11
253.229	0.11
253.603	0.18
253.977	0.1
254.35	0.27
254.724	0.13
255.097	0.25
255.471	0.16
255.844	0.22
256.218	0.13
256.591	0.18
256.964	0.16
257.338	0.19
257.711	0.15
258.084	0.15
258.458	0.21
258.831	0.06
259.204	0.19
259.577	0.15
259.95	0.15
260.323	0.1
260.697	0.18
261.07	0.17
261.443	0.15
261.816	0.09
262.189	0.18
262.562	0.23
262.935	0.12
263.308	0.2
263.68	0.18
264.053	0.19
264.426	0.22
264.799	0.16
265.172	0.16
265.545	0.17
265.917	0.22
266.29	0.2
266.663	0.2
267.035	0.15
267.408	0.16
267.781	0.2
268.153	0.32
268.526	0.25
268.898	0.2
269.271	0.09
269.643	0.08
270.016	0.27
270.388	0.21
270.76	0.09
271.133	0.07
271.505	0.28
271.877	0.14
272.25	0.21
272.622	0.16
272.994	0.12
273.366	0.19
273.739	0.13
274.111	0.18
274.483	0.1
274.855	0.17
275.227	0.06
275.599	0.15
275.971	0.1
276.343	0.14
276.715	0.26
277.087	0.15
277.459	0.23
277.831	0.21
278.203	0.14
278.574	0.24
278.946	0.19
279.318	0.26
279.69	0.24
280.061	0.24
280.433	0.19
280.805	0.11
281.176	0.14
281.548	0.09
281.92	0.19
282.291	0.18
282.663	0.24
283.034	0.14
283.406	0.19
283.777	0.13
284.148	0.14
284.52	0.15
284.891	0.17
285.262	0.2
285.634	0.14
286.005	0.16
286.376	0.17
286.747	0.19
287.119	0.15
287.49	0.09
287.861	0.12
288.232	0.15
288.603	0.19
288.974	0.12
289.345	0.19
289.716	0.16
290.087	0.18
290.458	0.07
290.829	0.2
291.2	0.07
291.571	0.15
291.941	0.16
292.312	0.24
292.683	0.15
293.054	0.17
293.424	0.06
293.795	0.17
294.166	0.15
294.536	0.14
294.907	0.15
295.277	0.12
295.648	0.14
296.018	0.16
296.389	0.17
296.759	0.08
297.13	0.18
297.5	0.16
297.871	0.14
298.241	0.17
298.611	0.14
298.981	0.14
299.352	0.15
299.722	0.09
300.092	0.14
300.462	0.15
300.832	0.1
301.202	0.12
301.573	0.1
301.943	0.13
302.313	0.09
302.683	0.11
303.053	0.11
303.422	0.1
303.792	0.1
304.162	0.11
304.532	0.1
304.902	0.1
305.272	0.11
305.641	0.11
306.011	0.1
306.381	0.11
306.75	0.12
307.12	0.12
307.49	0.12
307.859	0.12
308.229	0.12
308.598	0.12
308.968	0.13
309.337	0.12
309.707	0.12
310.076	0.14
310.445	0.14
310.815	0.13
311.184	0.14
311.553	0.13
311.923	0.15
312.292	0.14
312.661	0.14
313.03	0.14
313.399	0.14
313.768	0.14
314.137	0.14
314.506	0.14
314.875	0.14
315.244	0.13
315.613	0.14
315.982	0.14
316.351	0.14
316.72	0.14
317.089	0.13
317.458	0.14
317.826	0.13
318.195	0.13
318.564	0.13
318.933	0.13
319.301	0.13
319.67	0.13
320.038	0.12
320.407	0.13
320.775	0.13
321.144	0.12
321.512	0.12
321.881	0.12
322.249	0.12
322.618	0.12
322.986	0.12
323.354	0.11
323.723	0.11
324.091	0.12
324.459	0.11
324.827	0.11
325.195	0.12
325.564	0.11
325.932	0.11
326.3	0.1
326.668	0.11
327.036	0.11
327.404	0.11
327.772	0.11
328.14	0.11
328.508	0.11
328.875	0.1
329.243	0.11
329.611	0.11
329.979	0.1
330.346	0.11
330.714	0.11
331.082	0.11
331.449	0.12
331.817	0.12
332.185	0.12
332.552	0.12
332.92	0.11
333.287	0.12
333.655	0.12
334.022	0.12
334.389	0.12
334.757	0.12
335.124	0.12
335.491	0.12
335.859	0.13
336.226	0.13
336.593	0.13
336.96	0.13
337.327	0.13
337.695	0.13
338.062	0.13
338.429	0.14
338.796	0.14
339.163	0.14
339.53	0.14
339.897	0.14
340.263	0.14
340.63	0.15
340.997	0.15
341.364	0.15
341.731	0.16
342.097	0.15
342.464	0.16
342.831	0.16
343.197	0.17
343.564	0.17
343.931	0.17
344.297	0.18
344.664	0.18
345.03	0.18
345.396	0.18
345.763	0.18
346.129	0.19
346.496	0.19
346.862	0.19
347.228	0.19
347.594	0.2
347.961	0.2
348.327	0.21
348.693	0.21
349.059	0.21
349.425	0.21
349.791	0.21
350.157	0.22
350.523	0.23
350.889	0.23
351.255	0.24
351.621	0.24
351.987	0.25
352.353	0.25
352.719	0.25
353.084	0.26
353.45	0.26
353.816	0.27
354.181	0.27
354.547	0.28
354.913	0.28
355.278	0.29
355.644	0.3
356.009	0.3
356.375	0.31
356.74	0.31
357.106	0.33
357.471	0.33
357.836	0.34
358.202	0.35
358.567	0.35
358.932	0.36
359.297	0.36
359.663	0.37
360.028	0.37
360.393	0.38
360.758	0.38
361.123	0.39
361.488	0.4
361.853	0.4
362.218	0.4
362.583	0.41
362.948	0.41
363.312	0.42
363.677	0.43
364.042	0.43
364.407	0.44
364.772	0.45
365.136	0.46
365.501	0.46
365.865	0.48
366.23	0.49
366.595	0.5
366.959	0.51
367.324	0.52
367.688	0.53
368.052	0.54
368.417	0.54
368.781	0.56
369.145	0.56
369.51	0.57
369.874	0.56
370.238	0.57
370.602	0.57
370.967	0.57
371.331	0.57
371.695	0.56
372.059	0.55
372.423	0.55
372.787	0.55
373.151	0.55
373.515	0.55
373.878	0.55
374.242	0.55
374.606	0.56
374.97	0.55
375.334	0.56
375.697	0.56
376.061	0.57
376.425	0.56
376.788	0.56
377.152	0.57
377.515	0.57
377.879	0.59
378.242	0.6
378.606	0.6
378.969	0.61
379.333	0.62
379.696	0.62
380.059	0.63
380.422	0.64
380.786	0.65
381.149	0.67
381.512	0.68
381.875	0.7
382.238	0.71
382.601	0.73
382.964	0.75
383.327	0.77
383.69	0.79
384.053	0.81
384.416	0.83
384.779	0.86
385.142	0.87
385.504	0.88
385.867	0.9
386.23	0.91
386.593	0.92
386.955	0.92
387.318	0.92
387.68	0.9
388.043	0.9
388.405	0.9
388.768	0.89
389.13	0.89
389.493	0.87
389.855	0.88
390.217	0.88
390.58	0.87
390.942	0.88
391.304	0.88
391.666	0.89
392.028	0.91
392.391	0.93
392.753	0.96
393.115	0.98
393.477	1.02
393.839	1.05
394.201	1.1
394.563	1.15
394.924	1.19
395.286	1.24
395.648	1.26
396.01	1.29
396.371	1.33
396.733	1.37
397.095	1.38
397.456	1.4
397.818	1.4
398.18	1.38
398.541	1.37
398.903	1.32
399.264	1.29
399.625	1.25
399.987	1.21
400.348	1.15
400.709	1.09
401.071	1.04
401.432	0.98
401.793	0.92
402.154	0.85
402.515	0.8
402.876	0.73
403.238	0.69
403.599	0.64
403.96	0.59
404.32	0.55
404.681	0.51
405.042	0.47
405.403	0.44
405.764	0.41
406.125	0.39
406.485	0.36
406.846	0.33
407.207	0.31
407.567	0.3
407.928	0.28
408.288	0.26
408.649	0.24
409.009	0.23
409.37	0.22
409.73	0.21
410.091	0.2
410.451	0.19
410.811	0.18
411.171	0.18
411.532	0.16
411.892	0.16
412.252	0.16
412.612	0.15
412.972	0.15
413.332	0.14
413.692	0.14
414.052	0.13
414.412	0.12
414.772	0.12
415.132	0.12
415.492	0.11
415.851	0.11
416.211	0.11
416.571	0.1
416.931	0.1
417.29	0.1
417.65	0.1
418.009	0.1
418.369	0.09
418.728	0.1
419.088	0.09
419.447	0.09
419.807	0.09
420.166	0.08
420.525	0.08
420.884	0.08
421.244	0.08
421.603	0.08
421.962	0.08
422.321	0.07
422.68	0.07
423.039	0.08
423.398	0.07
423.757	0.07
424.116	0.06
424.475	0.07
424.834	0.06
425.193	0.06
425.551	0.06
425.91	0.07
426.269	0.06
426.628	0.07
426.986	0.07
427.345	0.05
427.703	0.07
428.062	0.06
428.42	0.06
428.779	0.06
429.137	0.06
429.496	0.06
429.854	0.05
430.212	0.06
430.57	0.05
430.929	0.06
431.287	0.05
431.645	0.06
432.003	0.06
432.361	0.06
432.719	0.05
433.077	0.05
433.435	0.05
433.793	0.05
434.151	0.05
434.509	0.05
434.866	0.05
435.224	0.05
435.582	0.05
435.94	0.04
436.297	0.05
436.655	0.05
437.012	0.04
437.37	0.04
437.727	0.05
438.085	0.04
438.442	0.05
438.8	0.05
439.157	0.05
439.514	0.04
439.872	0.05
440.229	0.05
440.586	0.04
440.943	0.04
441.3	0.04
441.657	0.05
442.014	0.04
442.371	0.04
442.728	0.04
443.085	0.04
443.442	0.04
443.799	0.04
444.156	0.04
444.513	0.05
444.869	0.04
445.226	0.03
445.583	0.04
445.939	0.04
446.296	0.04
446.652	0.03
447.009	0.03
447.365	0.04
447.722	0.03
448.078	0.04
448.434	0.03
448.791	0.03
449.147	0.03
449.503	0.04
449.859	0.03
450.215	0.04
450.571	0.03
450.928	0.03
451.284	0.03
451.64	0.03
451.995	0.02
452.351	0.03
452.707	0.03
453.063	0.03
453.419	0.02
453.775	0.03
454.13	0.02
454.486	0.03
454.842	0.02
455.197	0.03
455.553	0.02
455.908	0.03
456.264	0.02
456.619	0.04
456.975	0.03
457.33	0.02
457.685	0.02
458.04	0.02
458.396	0.01
458.751	0.02
459.106	0.02
459.461	0.03
459.816	0.03
460.171	0.02
460.526	0.03
460.881	0.02
461.236	0.03
461.591	0.02
461.946	0.03
462.301	0.02
462.655	0.02
463.01	0.03
463.365	0.02
463.719	0.02
464.074	0.02
464.428	0.02
464.783	0.02
465.137	0.01
465.492	0.01
465.846	0.01
466.201	0.02
466.555	0.02
466.909	0.02
467.263	0.02
467.618	0.02
467.972	0.02
468.326	0.01
468.68	0.02
469.034	0.02
469.388	0.02
469.742	0.01
470.096	0.03
470.45	0.01
470.804	0.01
471.157	0.02
471.511	0.01
471.865	0.02
472.218	0.02
472.572	0.02
472.926	0.02
473.279	0.03
473.633	0.02
473.986	0.02
474.34	0.03
474.693	0.03
475.046	0.02
475.4	0.03
475.753	0.02
476.106	0.03
476.459	0.03
476.812	0.03
477.165	0.03
477.519	0.03
477.872	0.03
478.224	0.04
478.577	0.04
478.93	0.04
479.283	0.04
479.636	0.04
479.989	0.04
480.341	0.04
480.694	0.04
481.047	0.04
481.399	0.04
481.752	0.04
482.104	0.04
482.457	0.04
482.809	0.04
483.162	0.05
483.514	0.04
483.866	0.05
484.219	0.05
484.571	0.05
484.923	0.05
485.275	0.05
485.627	0.05
485.979	0.05
486.331	0.05
486.683	0.05
487.035	0.05
487.387	0.06
487.739	0.06
488.091	0.06
488.443	0.06
488.794	0.06
489.146	0.06
489.498	0.06
489.849	0.06
490.201	0.06
490.552	0.06
490.904	0.06
491.255	0.06
491.607	0.07
491.958	0.06
492.309	0.07
492.661	0.07
493.012	0.07
493.363	0.07
493.714	0.07
494.065	0.07
494.416	0.07
494.767	0.07
495.118	0.07
495.469	0.07
495.82	0.08
496.171	0.08
496.522	0.08
496.872	0.07
497.223	0.08
497.574	0.08
497.924	0.08
498.275	0.08
498.626	0.08
498.976	0.08
499.327	0.08
499.677	0.08
500.027	0.09
500.378	0.09
500.728	0.09
501.078	0.09
501.428	0.09
501.779	0.09
502.129	0.09
502.479	0.09
502.829	0.09
503.179	0.09
503.529	0.09
503.879	0.09
504.229	0.1
504.578	0.1
504.928	0.1
505.278	0.1
505.628	0.1
505.977	0.1
506.327	0.1
506.676	0.11
507.026	0.11
507.375	0.11
507.725	0.11
508.074	0.11
508.424	0.11
508.773	0.11
509.122	0.11
509.471	0.11
509.82	0.12
510.17	0.12
510.519	0.12
510.868	0.12
511.217	0.12
511.566	0.12
511.915	0.12
512.263	0.12
512.612	0.13
512.961	0.13
513.31	0.13
513.659	0.13
514.007	0.13
514.356	0.13
514.704	0.14
515.053	0.13
515.401	0.14
515.75	0.14
516.098	0.14
516.447	0.14
516.795	0.14
517.143	0.14
517.491	0.14
517.839	0.14
518.188	0.15
518.536	0.15
518.884	0.14
519.232	0.15
519.58	0.14
519.928	0.15
520.275	0.16
520.623	0.16
520.971	0.16
521.319	0.15
521.666	0.16
522.014	0.16
522.362	0.15
522.709	0.16
523.057	0.16
523.404	0.16
523.752	0.16
524.099	0.17
524.446	0.16
524.794	0.17
525.141	0.17
525.488	0.17
525.835	0.17
526.182	0.17
526.529	0.17
526.876	0.17
527.223	0.17
527.57	0.17
527.917	0.18
528.264	0.18
528.611	0.18
528.958	0.19
529.304	0.18
529.651	0.19
529.998	0.19
530.344	0.19
530.691	0.19
531.037	0.19
531.384	0.19
531.73	0.19
532.076	0.19
532.423	0.2
532.769	0.2
533.115	0.19
533.461	0.2
533.807	0.21
534.154	0.21
534.5	0.21
534.846	0.21
535.192	0.21
535.537	0.21
535.883	0.21
536.229	0.21
536.575	0.22
536.921	0.22
537.266	0.22
537.612	0.22
537.957	0.23
538.303	0.23
538.649	0.23
538.994	0.23
539.339	0.23
539.685	0.23
540.03	0.23
540.375	0.23
540.721	0.23
541.066	0.23
541.411	0.24
541.756	0.24
542.101	0.24
542.446	0.24
542.791	0.25
543.136	0.25
543.481	0.25
543.825	0.26
544.17	0.26
544.515	0.25
544.86	0.26
545.204	0.26
545.549	0.26
545.893	0.26
546.238	0.26
546.582	0.27
546.927	0.27
547.271	0.27
547.615	0.27
547.96	0.27
548.304	0.28
548.648	0.28
548.992	0.29
549.336	0.29
549.68	0.28
550.024	0.29
550.368	0.29
550.712	0.29
551.056	0.29
551.4	0.29
551.743	0.29
552.087	0.29
552.431	0.29
552.774	0.3
553.118	0.3
553.462	0.31
553.805	0.31
554.148	0.31
554.492	0.31
554.835	0.31
555.178	0.31
555.522	0.31
555.865	0.31
556.208	0.31
556.551	0.31
556.894	0.31
557.237	0.31
557.58	0.31
557.923	0.32
558.266	0.32
558.609	0.32
558.952	0.32
559.294	0.32
559.637	0.32
559.98	0.32
560.322	0.32
560.665	0.32
561.007	0.33
561.35	0.32
561.692	0.32
562.034	0.33
562.377	0.33
562.719	0.33
563.061	0.33
563.403	0.33
563.745	0.33
564.088	0.33
564.43	0.33
564.772	0.33
565.113	0.33
565.455	0.33
565.797	0.34
566.139	0.33
566.481	0.33
566.822	0.33
567.164	0.33
567.506	0.34
567.847	0.34
568.189	0.34
568.53	0.34
568.872	0.34
569.213	0.35
569.554	0.34
569.895	0.34
570.237	0.35
570.578	0.34
570.919	0.35
571.26	0.34
571.601	0.35
571.942	0.34
572.283	0.35
572.624	0.34
572.965	0.34
573.306	0.35
573.646	0.35
573.987	0.34
574.328	0.35
574.668	0.35
575.009	0.35
575.349	0.35
575.69	0.35
576.03	0.35
576.37	0.35
576.711	0.35
577.051	0.35
577.391	0.35
577.731	0.35
578.072	0.35
578.412	0.35
578.752	0.35
579.092	0.35
579.431	0.35
579.771	0.35
580.111	0.35
580.451	0.35
580.791	0.35
581.13	0.35
581.47	0.35
581.81	0.36
582.149	0.36
582.489	0.36
582.828	0.36
583.167	0.36
583.507	0.35
583.846	0.34
584.185	0.35
584.525	0.36
584.864	0.36
585.203	0.36
585.542	0.36
585.881	0.36
586.22	0.37
586.559	0.37
586.898	0.37
587.236	0.37
587.575	0.36
587.914	0.37
588.252	0.37
588.591	0.38
588.93	0.38
589.268	0.38
589.607	0.38
589.945	0.38
590.283	0.38
590.622	0.38
590.96	0.39
591.298	0.39
591.636	0.39
591.974	0.39
592.313	0.4
592.651	0.39
592.989	0.4
593.326	0.41
593.664	0.4
594.002	0.4
594.34	0.4
594.678	0.41
595.015	0.41
595.353	0.4
595.691	0.41
596.028	0.41
596.366	0.41
596.703	0.41
597.04	0.42
597.378	0.42
597.715	0.42
598.052	0.42
598.389	0.42
598.726	0.43
599.064	0.43
599.401	0.43
599.738	0.43
600.074	0.43
600.411	0.43
600.748	0.43
601.085	0.43
601.422	0.43
601.758	0.43
602.095	0.43
602.432	0.43
602.768	0.43
603.105	0.43
603.441	0.43
603.777	0.43
604.114	0.43
604.45	0.43
604.786	0.43
605.122	0.43
605.459	0.43
605.795	0.44
606.131	0.43
606.467	0.43
606.803	0.43
607.139	0.43
607.474	0.44
607.81	0.43
608.146	0.44
608.482	0.43
608.817	0.43
609.153	0.43
609.488	0.43
609.824	0.42
610.159	0.42
610.495	0.42
610.83	0.42
611.165	0.42
611.5	0.42
611.836	0.42
612.171	0.42
612.506	0.41
612.841	0.41
613.176	0.41
613.511	0.41
613.845	0.41
614.18	0.41
614.515	0.41
614.85	0.41
615.184	0.41
615.519	0.41
615.854	0.4
616.188	0.41
616.523	0.4
616.857	0.4
617.191	0.4
617.526	0.4
617.86	0.4
618.194	0.4
618.528	0.4
618.862	0.39
619.196	0.39
619.53	0.39
619.864	0.39
620.198	0.39
620.532	0.39
620.866	0.39
621.2	0.38
621.533	0.38
621.867	0.39
622.201	0.38
622.534	0.38
622.868	0.38
623.201	0.38
623.534	0.38
623.868	0.38
624.201	0.38
624.534	0.37
624.868	0.37
625.201	0.37
625.534	0.37
625.867	0.37
626.2	0.37
626.533	0.36
626.865	0.36
627.198	0.36
627.531	0.36
627.864	0.36
628.196	0.36
628.529	0.36
628.862	0.35
629.194	0.35
629.527	0.35
629.859	0.35
630.191	0.34
630.524	0.34
630.856	0.34
631.188	0.34
631.52	0.34
631.852	0.33
632.184	0.33
632.516	0.32
632.848	0.32
633.18	0.32
633.512	0.32
633.844	0.31
634.175	0.32
634.507	0.31
634.839	0.31
635.17	0.31
635.502	0.31
635.833	0.3
636.165	0.3
636.496	0.3
636.827	0.29
637.159	0.29
637.49	0.29
637.821	0.29
638.152	0.29
638.483	0.29
638.814	0.28
639.145	0.28
639.476	0.28
639.807	0.28
640.137	0.27
640.468	0.27
640.799	0.27
641.129	0.27
641.46	0.27
641.791	0.26
642.121	0.26
642.451	0.26
642.782	0.26
643.112	0.26
643.442	0.26
643.773	0.25
644.103	0.25
644.433	0.25
644.763	0.25
645.093	0.24
645.423	0.24
645.753	0.24
646.082	0.24
646.412	0.24
646.742	0.24
647.072	0.24
647.401	0.24
647.731	0.23
648.06	0.24
648.39	0.24
648.719	0.24
649.048	0.24
649.378	0.24
649.707	0.24
650.036	0.24
650.365	0.23
650.694	0.23
651.023	0.24
651.352	0.23
651.681	0.23
652.01	0.23
652.339	0.22
652.668	0.22
652.996	0.23
653.325	0.23
653.654	0.22
653.982	0.23
654.311	0.23
654.639	0.23
654.967	0.23
655.296	0.23
655.624	0.22
655.952	0.23
656.28	0.22
656.609	0.22
656.937	0.23
657.265	0.23
657.593	0.22
657.92	0.14
658.248	0.09
658.576	0.1
658.904	0.19
659.231	0.22
659.559	0.22
659.887	0.22
660.214	0.22
660.542	0.22
660.869	0.22
661.196	0.22
661.524	0.22
661.851	0.23
662.178	0.23
662.505	0.22
662.832	0.22
663.159	0.22
663.486	0.22
663.813	0.23
664.14	0.23
664.467	0.22
664.794	0.22
665.12	0.22
665.447	0.22
665.774	0.22
666.1	0.22
666.427	0.22
666.753	0.22
667.079	0.22
667.406	0.21
667.732	0.21
668.058	0.21
668.384	0.21
668.71	0.21
669.036	0.21
669.362	0.21
669.688	0.21
670.014	0.21
670.34	0.21
670.666	0.2
670.991	0.2
671.317	0.21
671.643	0.2
671.968	0.2
672.294	0.2
672.619	0.21
672.945	0.2
673.27	0.2
673.595	0.2
673.92	0.2
674.246	0.2
674.571	0.19
674.896	0.19
675.221	0.19
675.546	0.19
675.87	0.19
676.195	0.19
676.52	0.19
676.845	0.19
677.169	0.19
677.494	0.19
677.819	0.18
678.143	0.19
678.468	0.18
678.792	0.18
679.116	0.18
679.44	0.18
679.765	0.17
680.089	0.17
680.413	0.17
680.737	0.17
681.061	0.16
681.385	0.16
681.709	0.16
682.033	0.16
682.356	0.16
682.68	0.15
683.004	0.15
683.327	0.15
683.651	0.15
683.974	0.15
684.298	0.15
684.621	0.15
684.944	0.15
685.268	0.15
685.591	0.14
685.914	0.14
686.237	0.14
686.56	0.13
686.883	0.13
687.206	0.14
687.529	0.13
687.852	0.13
688.175	0.13
688.497	0.13
688.82	0.13
689.142	0.13
689.465	0.13
689.787	0.13
690.11	0.13
690.432	0.13
690.755	0.13
691.077	0.12
691.399	0.12
691.721	0.12
692.043	0.12
692.365	0.12
692.687	0.12
693.009	0.12
693.331	0.11
693.653	0.11
693.974	0.11
694.296	0.11
694.618	0.11
694.939	0.11
695.261	0.11
695.582	0.11
695.904	0.11
696.225	0.11
696.546	0.11
696.868	0.11
697.189	0.11
697.51	0.11
697.831	0.1
698.152	0.1
698.473	0.1
698.794	0.1
699.114	0.1
699.435	0.09
699.756	0.09
700.077	0.09
700.397	0.09
700.718	0.08
701.038	0.08
701.359	0.08
701.679	0.08
701.999	0.08
702.32	0.08
702.64	0.08
702.96	0.08
703.28	0.08
703.6	0.08
703.92	0.08
704.24	0.07
704.56	0.07
704.879	0.07
705.199	0.08
705.519	0.08
705.838	0.08
706.158	0.08
706.478	0.08
706.797	0.07
707.116	0.07
707.436	0.07
707.755	0.07
708.074	0.07
708.393	0.07
708.712	0.07
709.031	0.07
709.35	0.07
709.669	0.07
709.988	0.07
710.307	0.07
710.626	0.07
710.944	0.07
711.263	0.08
711.582	0.08
711.9	0.08
712.219	0.08
712.537	0.08
712.855	0.08
713.174	0.08
713.492	0.08
713.81	0.08
714.128	0.08
714.446	0.08
714.764	0.08
715.082	0.07
715.4	0.08
715.718	0.08
716.035	0.08
716.353	0.08
716.671	0.08
716.988	0.08
717.306	0.08
717.623	0.08
717.941	0.08
718.258	0.08
718.575	0.08
718.893	0.08
719.21	0.08
719.527	0.08
719.844	0.08
720.161	0.08
720.478	0.08
720.795	0.08
721.112	0.07
721.428	0.07
721.745	0.07
722.062	0.07
722.378	0.07
722.695	0.07
723.011	0.08
723.328	0.07
723.644	0.08
723.96	0.08
724.276	0.08
724.593	0.08
724.909	0.08
725.225	0.08
725.541	0.08
725.857	0.08
726.173	0.08
726.488	0.09
726.804	0.09
727.12	0.08
727.435	0.09
727.751	0.08
728.067	0.08
728.382	0.08
728.697	0.08
729.013	0.09
729.328	0.09
729.643	0.08
729.958	0.09
730.273	0.09
730.588	0.09
730.903	0.08
731.218	0.08
731.533	0.08
731.848	0.08
732.163	0.08
732.477	0.08
732.792	0.08
733.107	0.08
733.421	0.08
733.736	0.08
734.05	0.08
734.364	0.08
734.678	0.08
734.993	0.08
735.307	0.08
735.621	0.08
735.935	0.08
736.249	0.08
736.563	0.08
736.877	0.08
737.19	0.08
737.504	0.08
737.818	0.08
738.131	0.07
738.445	0.07
738.758	0.07
739.072	0.07
739.385	0.07
739.698	0.08
740.012	0.07
740.325	0.07
740.638	0.07
740.951	0.07
741.264	0.07
741.577	0.07
741.89	0.07
742.203	0.07
742.515	0.08
742.828	0.07
743.141	0.07
743.453	0.07
743.766	0.07
744.078	0.07
744.391	0.07
744.703	0.07
745.015	0.07
745.327	0.07
745.639	0.07
745.952	0.07
746.264	0.07
746.575	0.07
746.887	0.07
747.199	0.07
747.511	0.07
747.823	0.06
748.134	0.06
748.446	0.06
748.757	0.06
749.069	0.06
749.38	0.06
749.692	0.06
750.003	0.06
750.314	0.06
750.625	0.05
750.936	0.05
751.248	0.05
751.559	0.06
751.869	0.05
752.18	0.06
752.491	0.05
752.802	0.05
753.112	0.05
753.423	0.05
753.734	0.05
754.044	0.05
754.355	0.05
754.665	0.05
754.975	0.05
755.285	0.05
755.596	0.04
755.906	0.04
756.216	0.04
756.526	0.04
756.836	0.04
757.146	0.04
757.455	0.04
757.765	0.04
758.075	0.03
758.385	0.04
758.694	0.03
759.004	0.03
759.313	0.03
759.622	0.03
759.932	0.03
760.241	0.03
760.55	0.03
760.859	0.03
761.168	0.03
761.477	0.03
761.786	0.04
762.095	0.04
762.404	0.03
762.713	0.04
763.021	0.03
763.33	0.03
763.639	0.03
763.947	0.03
764.256	0.03
764.564	0.03
764.872	0.03
765.181	0.03
765.489	0.03
765.797	0.03
766.105	0.02
766.413	0.02
766.721	0.02
767.029	0.02
767.337	0.02
767.644	0.02
767.952	0.02
768.26	0.02
768.567	0.02
768.875	0.02
769.182	0.02
769.49	0.02
769.797	0.02
770.104	0.02
770.411	0.02
770.718	0.02
771.026	0.02
771.333	0.01
771.639	0.01
771.946	0.01
772.253	0.01
772.56	0.01
772.867	0.01
773.173	0.01
773.48	0.02
773.786	0.01
774.093	0.01
774.399	0.01
774.705	0.02
775.012	0.02
775.318	0.01
775.624	0.01
775.93	0.01
776.236	0.01
776.542	0.01
776.848	0.01
777.154	0.01
777.459	0.01
777.765	0.01
778.071	0
778.376	0.01
778.682	0
778.987	0
779.292	0
779.598	0.01
779.903	0.01
780.208	0.01
780.513	0.01
780.818	0.01
781.123	0.02
781.428	0.02
781.733	0.02
782.038	0.02
782.343	0.01
782.647	0.01
782.952	0.01
783.256	0.01
783.561	0.01
783.865	0.01
784.17	0.01
784.474	0.01
784.778	0.01
785.082	0.02
785.386	0.01
785.69	0.01
785.994	0.01
786.298	0.01
786.602	0.01
786.906	0.01
787.209	0.01
787.513	0.01
787.817	0.01
788.12	0.01
788.424	0.01
788.727	0.02
789.03	0.01
789.333	0.02
789.637	0.02
789.94	0.01
790.243	0.02
790.546	0.02
790.849	0.01
791.152	0.02
791.454	0.01
791.757	0.02
792.06	0.02
792.362	0.02
792.665	0.01
792.967	0.01
793.27	0
793.572	0.01
793.874	0
794.177	0
794.479	0
794.781	-0
795.083	0
795.385	-0
795.687	0
795.989	0.01
796.29	0.01
796.592	0
796.894	0.01
797.195	0
797.497	0
797.798	-0
798.1	-0
798.401	-0.01
798.702	-0.01
799.003	-0.01
799.304	-0.01
799.605	-0
799.906	0
800.207	0.01
800.508	0
800.809	0.01
801.11	0.01
801.41	0.01
801.711	0.01
802.011	0
802.312	0.01
802.612	0.01
802.913	0.01
803.213	0.01
803.513	0.01
803.813	0.01
804.113	0.01
804.413	0.01
804.713	0.01
805.013	0
805.313	0
805.613	0
805.912	0
806.212	0
806.511	0
806.811	-0
807.11	0
807.41	0.01
807.709	0
808.008	0
808.307	-0
808.606	0
808.905	-0
809.204	-0.01
809.503	-0
809.802	-0
810.101	0
810.399	0
810.698	0
810.997	-0
811.295	-0
811.593	0
811.892	-0
812.19	-0
812.488	0
812.786	0
813.084	0
813.383	-0
813.68	-0
813.978	-0
814.276	-0
814.574	0
814.872	-0
815.169	-0
815.467	-0
815.764	-0
816.062	0
816.359	0
816.656	0.01
816.954	0
817.251	0.01
817.548	0
817.845	0
818.142	-0.01
818.439	0
818.735	0
819.032	0
819.329	0
819.626	-0
819.922	-0.01
820.219	-0
820.515	-0.01
820.811	-0.01
821.108	-0.01
821.404	-0
821.7	-0
821.996	-0
822.292	-0.01
822.588	-0
822.884	-0.01
823.18	0
823.475	-0
823.771	0.01
824.067	0
824.362	0
824.658	0.01
824.953	0
825.249	0.01
825.544	0.01
825.839	0.02
826.134	0.01
826.429	0.01
826.724	0.02
827.019	0.01
827.314	-0
827.609	-0.01
827.904	-0
828.198	-0.01
828.493	-0
828.787	0
829.082	-0
829.376	-0
829.671	-0.01
829.965	0
830.259	0
830.553	0
830.847	0.01
831.141	0
831.435	-0
831.729	0
832.023	0
832.317	-0
832.61	-0
832.904	-0.01
833.197	-0.01
833.491	0.01
833.784	0
834.077	0.01
834.371	0
834.664	-0.02
834.957	-0
835.25	-0.01
835.543	-0.01
835.836	0
836.129	-0.01
836.421	-0.01
836.714	-0.01
837.007	-0.02
837.299	-0
837.592	-0
837.884	-0
838.177	0
838.469	0
838.761	0
839.053	0
839.345	-0.01
839.637	0
839.929	0.01
840.221	-0
840.513	-0.01
840.805	0
841.096	-0
841.388	0
841.68	0.01
841.971	0.01
842.262	0.01
842.554	0.01
842.845	0
843.136	0
843.427	-0
843.718	0
844.009	0.01
844.3	0
844.591	-0.01
844.882	-0
845.173	-0
845.463	0
845.754	0
846.044	-0
846.335	-0.01
846.625	-0.02
846.915	-0.01
847.206	-0
847.496	-0.01
847.786	-0.01
848.076	-0
848.366	0
848.656	-0
848.945	-0
849.235	-0.03
849.525	-0
849.814	-0
850.104	-0.01
850.393	-0
850.683	-0
850.972	0
851.261	-0.01
851.551	0.01
851.84	-0.01
852.129	0.01
852.418	0
852.707	0
852.995	-0
853.284	0.01
853.573	0.01
853.862	-0.01
854.15	0.01
854.439	-0.01
854.727	-0.01
855.015	-0.02
855.304	-0.01
855.592	-0
855.88	-0.01
856.168	-0.01
856.456	-0.01
856.744	-0.01
857.032	-0.01
857.32	-0.02
857.607	-0.01
857.895	-0.04
858.183	-0.01
858.47	-0.03
858.757	-0.03
859.045	-0.01
859.332	-0.01
859.619	-0.01
859.907	-0.01
860.194	-0.01
860.481	-0.02
860.768	-0.04
861.054	-0.03
861.341	-0.02
861.628	-0.03
861.915	-0.03
862.201	0
862.488	0.02
862.774	0
863.061	-0.01
863.347	0
863.633	-0
863.919	0.02
864.205	-0.01
864.491	0.01
864.777	0.01
865.063	0.02
865.349	0
865.635	-0.02
865.92	-0.04
866.206	-0.04
866.492	-0.06
866.777	-0
867.062	-0.02
867.348	-0.01
867.633	-0.01
867.918	-0.04
868.203	0
868.488	0
868.773	0.03
869.058	-0.01
869.343	0.01
869.628	-0.06
869.912	0.02
870.197	-0.02
870.482	-0.03
870.766	0
871.05	-0.01
871.335	-0.04
871.619	-0.02
871.903	-0.05
872.187	-0.05
872.471	-0.03
872.755	-0.01
873.039	-0.03
873.323	-0.06
873.607	-0
873.89	0.09
874.174	0.04
874.458	0.08
874.741	-0
875.024	-0.03
875.308	0
875.591	0.04
875.874	-0.01
876.157	-0.07
876.44	-0.03
876.723	-0.03
877.006	-0.01
877.289	-0.03
877.572	0.06
877.854	-0.05
878.137	0.08
878.42	-0.03
878.702	-0.07
878.984	0.05
879.267	-0.02
879.549	-0.04
879.831	-0.02
880.113	0.05
880.395	-0.04
880.677	-0.06
880.959	-0.02
