Data from Rubpy_BV_1800_EDTA_Buffered_Absorbance_15-11-54-898.txt Node
Date: Wed Jul 01 15:11:54 BST 2026
User: fpm-admin
Spectrometer: OFX00224
Trigger mode: 0
Integration Time (sec): 7.000000E-2
Scans to average: 3
Nonlinearity correction enabled: false
Boxcar width: 0
Storing dark spectrum: false
XAxis mode: Wavelengths
Number of Pixels in Spectrum: 2136
>>>>>Begin Spectral Data<<<<<
154.91	0.15
155.289	0.12
155.669	-0.63
156.048	-0
156.428	0.16
156.807	0.6
157.186	0.52
157.566	-0.2
157.945	-0.06
158.325	0.48
158.704	-0
159.083	-0
159.462	-0
159.842	-0
160.221	-0.88
160.6	-0.12
160.979	-0.56
161.359	0.17
161.738	0.2
162.117	-0.1
162.496	-0
162.875	-0.02
163.254	0.19
163.633	-0
164.012	-0.16
164.391	-0.85
164.77	-0.48
165.149	-0.22
165.528	-0.7
165.907	-0
166.286	0.24
166.665	-0.03
167.044	0.69
167.423	-0.19
167.802	-0
168.181	-0
168.559	-0.52
168.938	-0.63
169.317	0.28
169.696	-0
170.074	-0.38
170.453	0.54
170.832	-0
171.21	-0
171.589	0.78
171.968	-0.16
172.346	-0
172.725	0.65
173.103	0.26
173.482	0.27
173.861	-1.04
174.239	0.21
174.617	-0.45
174.996	0.37
175.374	-0
175.753	0.1
176.131	-0
176.51	0.28
176.888	-0
177.266	-0
177.645	0.09
178.023	0.48
178.401	-0.1
178.779	-0.1
179.158	-0
179.536	-0
179.914	0.13
180.292	0.24
180.67	-0
181.048	-0
181.427	-0
181.805	-0
182.183	-1.18
182.561	-0
182.939	-0.41
183.317	-0
183.695	-0
184.073	0.25
184.451	0.39
184.829	-0
185.206	-0
185.584	0.38
185.962	-0
186.34	0.18
186.718	-0.41
187.096	-0.44
187.473	0.24
187.851	-0
188.229	0.73
188.607	0.33
188.984	0.28
189.362	0.24
189.74	0.23
190.117	0.25
190.495	0.27
190.872	0.35
191.25	0.18
191.627	0.29
192.005	0.18
192.382	0.1
192.76	0.24
193.137	0.27
193.515	0.29
193.892	0.2
194.269	0.32
194.647	0.27
195.024	0.15
195.401	0.33
195.779	0.27
196.156	0.23
196.533	0.28
196.91	0.27
197.288	0.32
197.665	0.25
198.042	0.2
198.419	0.28
198.796	0.17
199.173	0.39
199.55	0.31
199.927	0.21
200.304	0.27
200.681	0.44
201.058	0.11
201.435	0.4
201.812	0.34
202.189	0.29
202.566	0.35
202.943	0.25
203.32	0.27
203.697	0.23
204.073	0.17
204.45	0.4
204.827	0.25
205.204	0.33
205.58	0.27
205.957	0.42
206.334	0.32
206.71	0.33
207.087	0.32
207.464	0.34
207.84	0.36
208.217	0.39
208.593	0.3
208.97	0.32
209.346	0.47
209.723	0.24
210.099	0.43
210.476	0.36
210.852	0.3
211.228	0.41
211.605	0.31
211.981	0.37
212.357	0.29
212.733	0.59
213.11	0.25
213.486	0.35
213.862	0.46
214.238	0.36
214.614	0.24
214.991	0.3
215.367	0.26
215.743	0.4
216.119	0.26
216.495	0.25
216.871	0.42
217.247	0.28
217.623	0.35
217.999	0.24
218.375	0.26
218.751	0.3
219.127	0.42
219.502	0.2
219.878	0.35
220.254	0.31
220.63	0.3
221.006	0.36
221.381	0.2
221.757	0.21
222.133	0.49
222.508	0.32
222.884	0.26
223.26	0.32
223.635	0.27
224.011	0.4
224.386	0.44
224.762	0.46
225.137	0.4
225.513	0.24
225.888	0.31
226.264	0.34
226.639	0.42
227.014	0.15
227.39	0.34
227.765	0.26
228.14	0.39
228.516	0.48
228.891	0.47
229.266	0.33
229.641	0.31
230.017	0.4
230.392	0.34
230.767	0.3
231.142	0.27
231.517	0.31
231.892	0.31
232.267	0.32
232.642	0.39
233.017	0.4
233.392	0.31
233.767	0.35
234.142	0.24
234.517	0.38
234.892	0.24
235.267	0.32
235.641	0.25
236.016	0.27
236.391	0.47
236.766	0.4
237.14	0.51
237.515	0.4
237.89	0.29
238.264	0.3
238.639	0.24
239.014	0.41
239.388	0.54
239.763	0.37
240.137	0.36
240.512	0.26
240.886	0.3
241.261	0.23
241.635	0.29
242.009	0.33
242.384	0.41
242.758	0.34
243.132	0.3
243.507	0.3
243.881	0.32
244.255	0.38
244.629	0.29
245.004	0.23
245.378	0.27
245.752	0.27
246.126	0.31
246.5	0.32
246.874	0.3
247.248	0.65
247.622	0.38
247.996	0.29
248.37	0.24
248.744	0.25
249.118	0.23
249.492	0.22
249.866	0.37
250.24	0.33
250.613	0.41
250.987	0.29
251.361	0.47
251.735	0.34
252.108	0.41
252.482	0.26
252.856	0.49
253.229	0.4
253.603	0.26
253.977	0.46
254.35	0.3
254.724	0.55
255.097	0.23
255.471	0.28
255.844	0.43
256.218	0.35
256.591	0.43
256.964	0.3
257.338	0.29
257.711	0.25
258.084	0.31
258.458	0.34
258.831	0.36
259.204	0.5
259.577	0.34
259.95	0.37
260.323	0.27
260.697	0.37
261.07	0.3
261.443	0.36
261.816	0.25
262.189	0.52
262.562	0.37
262.935	0.26
263.308	0.34
263.68	0.36
264.053	0.25
264.426	0.38
264.799	0.36
265.172	0.3
265.545	0.36
265.917	0.28
266.29	0.25
266.663	0.5
267.035	0.26
267.408	0.3
267.781	0.51
268.153	0.33
268.526	0.33
268.898	0.28
269.271	0.35
269.643	0.33
270.016	0.27
270.388	0.55
270.76	0.22
271.133	0.43
271.505	0.34
271.877	0.38
272.25	0.32
272.622	0.32
272.994	0.6
273.366	0.47
273.739	0.36
274.111	0.28
274.483	0.33
274.855	0.35
275.227	0.43
275.599	0.41
275.971	0.34
276.343	0.29
276.715	0.28
277.087	0.44
277.459	0.26
277.831	0.36
278.203	0.33
278.574	0.27
278.946	0.39
279.318	0.4
279.69	0.43
280.061	0.41
280.433	0.4
280.805	0.31
281.176	0.31
281.548	0.41
281.92	0.27
282.291	0.42
282.663	0.29
283.034	0.3
283.406	0.34
283.777	0.37
284.148	0.33
284.52	0.33
284.891	0.27
285.262	0.29
285.634	0.42
286.005	0.31
286.376	0.36
286.747	0.36
287.119	0.37
287.49	0.44
287.861	0.28
288.232	0.3
288.603	0.43
288.974	0.38
289.345	0.36
289.716	0.29
290.087	0.31
290.458	0.28
290.829	0.31
291.2	0.21
291.571	0.28
291.941	0.44
292.312	0.37
292.683	0.42
293.054	0.37
293.424	0.28
293.795	0.31
294.166	0.39
294.536	0.48
294.907	0.37
295.277	0.35
295.648	0.32
296.018	0.29
296.389	0.28
296.759	0.28
297.13	0.29
297.5	0.29
297.871	0.34
298.241	0.35
298.611	0.4
298.981	0.33
299.352	0.35
299.722	0.34
300.092	0.31
300.462	0.29
300.832	0.33
301.202	0.31
301.573	0.28
301.943	0.42
302.313	0.44
302.683	0.37
303.053	0.28
303.422	0.39
303.792	0.35
304.162	0.36
304.532	0.33
304.902	0.35
305.272	0.39
305.641	0.34
306.011	0.31
306.381	0.34
306.75	0.33
307.12	0.36
307.49	0.33
307.859	0.35
308.229	0.3
308.598	0.32
308.968	0.32
309.337	0.26
309.707	0.26
310.076	0.32
310.445	0.27
310.815	0.24
311.184	0.24
311.553	0.24
311.923	0.25
312.292	0.28
312.661	0.27
313.03	0.26
313.399	0.29
313.768	0.26
314.137	0.29
314.506	0.28
314.875	0.27
315.244	0.3
315.613	0.28
315.982	0.28
316.351	0.29
316.72	0.32
317.089	0.3
317.458	0.3
317.826	0.32
318.195	0.32
318.564	0.31
318.933	0.32
319.301	0.32
319.67	0.33
320.038	0.32
320.407	0.34
320.775	0.33
321.144	0.35
321.512	0.36
321.881	0.35
322.249	0.36
322.618	0.36
322.986	0.37
323.354	0.38
323.723	0.38
324.091	0.38
324.459	0.39
324.827	0.39
325.195	0.4
325.564	0.4
325.932	0.41
326.3	0.42
326.668	0.43
327.036	0.42
327.404	0.44
327.772	0.45
328.14	0.45
328.508	0.47
328.875	0.47
329.243	0.48
329.611	0.48
329.979	0.49
330.346	0.51
330.714	0.5
331.082	0.5
331.449	0.52
331.817	0.53
332.185	0.54
332.552	0.54
332.92	0.56
333.287	0.57
333.655	0.58
334.022	0.58
334.389	0.61
334.757	0.62
335.124	0.62
335.491	0.64
335.859	0.65
336.226	0.65
336.593	0.68
336.96	0.68
337.327	0.69
337.695	0.72
338.062	0.71
338.429	0.72
338.796	0.73
339.163	0.76
339.53	0.76
339.897	0.78
340.263	0.8
340.63	0.81
340.997	0.82
341.364	0.84
341.731	0.85
342.097	0.87
342.464	0.88
342.831	0.9
343.197	0.92
343.564	0.92
343.931	0.94
344.297	0.95
344.664	0.96
345.03	0.98
345.396	0.99
345.763	1.02
346.129	1.03
346.496	1.04
346.862	1.05
347.228	1.05
347.594	1.08
347.961	1.1
348.327	1.11
348.693	1.13
349.059	1.15
349.425	1.14
349.791	1.17
350.157	1.18
350.523	1.18
350.889	1.2
351.255	1.2
351.621	1.23
351.987	1.23
352.353	1.25
352.719	1.26
353.084	1.27
353.45	1.29
353.816	1.31
354.181	1.31
354.547	1.35
354.913	1.34
355.278	1.37
355.644	1.39
356.009	1.39
356.375	1.4
356.74	1.42
357.106	1.44
357.471	1.47
357.836	1.48
358.202	1.51
358.567	1.51
358.932	1.53
359.297	1.53
359.663	1.57
360.028	1.59
360.393	1.58
360.758	1.61
361.123	1.61
361.488	1.66
361.853	1.66
362.218	1.7
362.583	1.73
362.948	1.68
363.312	1.74
363.677	1.72
364.042	1.75
364.407	1.72
364.772	1.79
365.136	1.79
365.501	1.8
365.865	1.8
366.23	1.8
366.595	1.86
366.959	1.86
367.324	1.84
367.688	1.85
368.052	1.87
368.417	1.93
368.781	1.91
369.145	1.88
369.51	1.87
369.874	1.95
370.238	1.89
370.602	1.86
370.967	1.91
371.331	1.86
371.695	1.86
372.059	1.89
372.423	1.91
372.787	1.95
373.151	1.88
373.515	1.92
373.878	1.91
374.242	1.91
374.606	1.93
374.97	1.91
375.334	1.91
375.697	1.88
376.061	1.86
376.425	1.85
376.788	1.86
377.152	1.86
377.515	1.84
377.879	1.8
378.242	1.81
378.606	1.81
378.969	1.81
379.333	1.75
379.696	1.71
380.059	1.72
380.422	1.73
380.786	1.72
381.149	1.69
381.512	1.65
381.875	1.64
382.238	1.6
382.601	1.59
382.964	1.6
383.327	1.59
383.69	1.57
384.053	1.53
384.416	1.52
384.779	1.5
385.142	1.49
385.504	1.46
385.867	1.48
386.23	1.47
386.593	1.45
386.955	1.45
387.318	1.44
387.68	1.42
388.043	1.42
388.405	1.42
388.768	1.4
389.13	1.39
389.493	1.38
389.855	1.38
390.217	1.36
390.58	1.36
390.942	1.35
391.304	1.33
391.666	1.3
392.028	1.3
392.391	1.27
392.753	1.26
393.115	1.26
393.477	1.23
393.839	1.22
394.201	1.2
394.563	1.2
394.924	1.2
395.286	1.19
395.648	1.19
396.01	1.2
396.371	1.21
396.733	1.21
397.095	1.23
397.456	1.25
397.818	1.26
398.18	1.3
398.541	1.33
398.903	1.36
399.264	1.38
399.625	1.38
399.987	1.43
400.348	1.43
400.709	1.45
401.071	1.48
401.432	1.46
401.793	1.47
402.154	1.44
402.515	1.44
402.876	1.41
403.238	1.38
403.599	1.36
403.96	1.32
404.32	1.26
404.681	1.23
405.042	1.18
405.403	1.13
405.764	1.09
406.125	1.04
406.485	0.99
406.846	0.95
407.207	0.89
407.567	0.84
407.928	0.82
408.288	0.76
408.649	0.72
409.009	0.68
409.37	0.65
409.73	0.61
410.091	0.57
410.451	0.55
410.811	0.52
411.171	0.5
411.532	0.48
411.892	0.46
412.252	0.44
412.612	0.41
412.972	0.4
413.332	0.37
413.692	0.37
414.052	0.35
414.412	0.34
414.772	0.33
415.132	0.31
415.492	0.31
415.851	0.3
416.211	0.28
416.571	0.28
416.931	0.28
417.29	0.26
417.65	0.25
418.009	0.25
418.369	0.25
418.728	0.25
419.088	0.24
419.447	0.23
419.807	0.22
420.166	0.22
420.525	0.21
420.884	0.22
421.244	0.21
421.603	0.2
421.962	0.19
422.321	0.2
422.68	0.19
423.039	0.19
423.398	0.18
423.757	0.19
424.116	0.19
424.475	0.18
424.834	0.18
425.193	0.17
425.551	0.18
425.91	0.17
426.269	0.17
426.628	0.16
426.986	0.17
427.345	0.17
427.703	0.16
428.062	0.16
428.42	0.16
428.779	0.17
429.137	0.16
429.496	0.16
429.854	0.15
430.212	0.16
430.57	0.17
430.929	0.15
431.287	0.15
431.645	0.15
432.003	0.15
432.361	0.15
432.719	0.16
433.077	0.15
433.435	0.16
433.793	0.16
434.151	0.14
434.509	0.15
434.866	0.14
435.224	0.16
435.582	0.15
435.94	0.15
436.297	0.15
436.655	0.15
437.012	0.16
437.37	0.16
437.727	0.15
438.085	0.14
438.442	0.15
438.8	0.15
439.157	0.15
439.514	0.16
439.872	0.15
440.229	0.15
440.586	0.15
440.943	0.15
441.3	0.15
441.657	0.16
442.014	0.15
442.371	0.15
442.728	0.15
443.085	0.15
443.442	0.15
443.799	0.16
444.156	0.16
444.513	0.16
444.869	0.15
445.226	0.16
445.583	0.16
445.939	0.17
446.296	0.16
446.652	0.16
447.009	0.15
447.365	0.16
447.722	0.15
448.078	0.15
448.434	0.16
448.791	0.16
449.147	0.16
449.503	0.16
449.859	0.16
450.215	0.16
450.571	0.16
450.928	0.16
451.284	0.17
451.64	0.16
451.995	0.16
452.351	0.16
452.707	0.16
453.063	0.17
453.419	0.15
453.775	0.15
454.13	0.16
454.486	0.15
454.842	0.16
455.197	0.16
455.553	0.15
455.908	0.15
456.264	0.14
456.619	0.15
456.975	0.15
457.33	0.15
457.685	0.14
458.04	0.15
458.396	0.15
458.751	0.14
459.106	0.14
459.461	0.14
459.816	0.13
460.171	0.13
460.526	0.13
460.881	0.12
461.236	0.11
461.591	0.13
461.946	0.12
462.301	0.12
462.655	0.11
463.01	0.12
463.365	0.12
463.719	0.11
464.074	0.1
464.428	0.1
464.783	0.09
465.137	0.1
465.492	0.09
465.846	0.09
466.201	0.09
466.555	0.09
466.909	0.1
467.263	0.11
467.618	0.11
467.972	0.11
468.326	0.1
468.68	0.1
469.034	0.1
469.388	0.09
469.742	0.1
470.096	0.11
470.45	0.12
470.804	0.11
471.157	0.12
471.511	0.12
471.865	0.11
472.218	0.12
472.572	0.13
472.926	0.14
473.279	0.14
473.633	0.15
473.986	0.17
474.34	0.17
474.693	0.18
475.046	0.19
475.4	0.2
475.753	0.2
476.106	0.21
476.459	0.22
476.812	0.23
477.165	0.25
477.519	0.26
477.872	0.26
478.224	0.27
478.577	0.28
478.93	0.28
479.283	0.28
479.636	0.29
479.989	0.31
480.341	0.31
480.694	0.32
481.047	0.32
481.399	0.33
481.752	0.34
482.104	0.35
482.457	0.35
482.809	0.36
483.162	0.37
483.514	0.38
483.866	0.38
484.219	0.38
484.571	0.39
484.923	0.39
485.275	0.4
485.627	0.4
485.979	0.41
486.331	0.42
486.683	0.42
487.035	0.42
487.387	0.44
487.739	0.45
488.091	0.45
488.443	0.45
488.794	0.46
489.146	0.46
489.498	0.47
489.849	0.47
490.201	0.47
490.552	0.48
490.904	0.48
491.255	0.49
491.607	0.49
491.958	0.49
492.309	0.5
492.661	0.5
493.012	0.51
493.363	0.52
493.714	0.52
494.065	0.52
494.416	0.53
494.767	0.54
495.118	0.54
495.469	0.55
495.82	0.55
496.171	0.56
496.522	0.56
496.872	0.57
497.223	0.56
497.574	0.57
497.924	0.58
498.275	0.59
498.626	0.59
498.976	0.59
499.327	0.6
499.677	0.6
500.027	0.61
500.378	0.61
500.728	0.62
501.078	0.62
501.428	0.63
501.779	0.63
502.129	0.63
502.479	0.63
502.829	0.65
503.179	0.64
503.529	0.66
503.879	0.66
504.229	0.66
504.578	0.67
504.928	0.66
505.278	0.67
505.628	0.68
505.977	0.68
506.327	0.68
506.676	0.7
507.026	0.7
507.375	0.7
507.725	0.71
508.074	0.71
508.424	0.71
508.773	0.72
509.122	0.72
509.471	0.73
509.82	0.73
510.17	0.73
510.519	0.73
510.868	0.74
511.217	0.75
511.566	0.75
511.915	0.75
512.263	0.76
512.612	0.75
512.961	0.76
513.31	0.77
513.659	0.77
514.007	0.77
514.356	0.77
514.704	0.78
515.053	0.79
515.401	0.78
515.75	0.79
516.098	0.8
516.447	0.8
516.795	0.8
517.143	0.81
517.491	0.81
517.839	0.81
518.188	0.82
518.536	0.82
518.884	0.82
519.232	0.83
519.58	0.83
519.928	0.83
520.275	0.84
520.623	0.83
520.971	0.84
521.319	0.84
521.666	0.85
522.014	0.85
522.362	0.86
522.709	0.85
523.057	0.86
523.404	0.85
523.752	0.87
524.099	0.87
524.446	0.88
524.794	0.87
525.141	0.88
525.488	0.88
525.835	0.89
526.182	0.88
526.529	0.89
526.876	0.89
527.223	0.89
527.57	0.89
527.917	0.9
528.264	0.89
528.611	0.9
528.958	0.9
529.304	0.91
529.651	0.9
529.998	0.91
530.344	0.91
530.691	0.91
531.037	0.92
531.384	0.92
531.73	0.92
532.076	0.92
532.423	0.92
532.769	0.92
533.115	0.93
533.461	0.92
533.807	0.93
534.154	0.93
534.5	0.94
534.846	0.94
535.192	0.94
535.537	0.93
535.883	0.95
536.229	0.95
536.575	0.94
536.921	0.95
537.266	0.96
537.612	0.95
537.957	0.95
538.303	0.95
538.649	0.95
538.994	0.96
539.339	0.97
539.685	0.96
540.03	0.97
540.375	0.96
540.721	0.97
541.066	0.96
541.411	0.96
541.756	0.97
542.101	0.98
542.446	0.97
542.791	0.97
543.136	0.98
543.481	0.97
543.825	0.97
544.17	0.98
544.515	0.98
544.86	0.97
545.204	0.98
545.549	0.98
545.893	0.98
546.238	0.98
546.582	0.98
546.927	0.98
547.271	0.97
547.615	0.98
547.96	0.98
548.304	0.99
548.648	0.98
548.992	0.98
549.336	0.98
549.68	0.98
550.024	0.99
550.368	1
550.712	0.99
551.056	0.98
551.4	0.99
551.743	0.99
552.087	0.98
552.431	0.99
552.774	0.98
553.118	0.98
553.462	0.98
553.805	0.98
554.148	0.98
554.492	0.99
554.835	0.99
555.178	0.98
555.522	0.99
555.865	0.98
556.208	0.99
556.551	0.98
556.894	0.98
557.237	0.98
557.58	0.98
557.923	0.98
558.266	0.98
558.609	0.98
558.952	0.98
559.294	0.98
559.637	0.97
559.98	0.98
560.322	0.98
560.665	0.97
561.007	0.97
561.35	0.97
561.692	0.96
562.034	0.96
562.377	0.97
562.719	0.97
563.061	0.97
563.403	0.96
563.745	0.97
564.088	0.97
564.43	0.96
564.772	0.96
565.113	0.96
565.455	0.96
565.797	0.95
566.139	0.96
566.481	0.96
566.822	0.95
567.164	0.95
567.506	0.95
567.847	0.95
568.189	0.94
568.53	0.95
568.872	0.95
569.213	0.94
569.554	0.93
569.895	0.94
570.237	0.93
570.578	0.94
570.919	0.93
571.26	0.93
571.601	0.93
571.942	0.93
572.283	0.92
572.624	0.92
572.965	0.92
573.306	0.91
573.646	0.91
573.987	0.91
574.328	0.9
574.668	0.91
575.009	0.91
575.349	0.9
575.69	0.9
576.03	0.9
576.37	0.89
576.711	0.89
577.051	0.89
577.391	0.89
577.731	0.89
578.072	0.89
578.412	0.89
578.752	0.88
579.092	0.88
579.431	0.87
579.771	0.85
580.111	0.84
580.451	0.86
580.791	0.87
581.13	0.87
581.47	0.87
581.81	0.87
582.149	0.87
582.489	0.86
582.828	0.85
583.167	0.82
583.507	0.78
583.846	0.78
584.185	0.82
584.525	0.84
584.864	0.85
585.203	0.86
585.542	0.86
585.881	0.85
586.22	0.85
586.559	0.84
586.898	0.83
587.236	0.82
587.575	0.83
587.914	0.83
588.252	0.84
588.591	0.84
588.93	0.84
589.268	0.83
589.607	0.84
589.945	0.84
590.283	0.84
590.622	0.84
590.96	0.84
591.298	0.84
591.636	0.84
591.974	0.84
592.313	0.84
592.651	0.84
592.989	0.84
593.326	0.84
593.664	0.84
594.002	0.84
594.34	0.83
594.678	0.83
595.015	0.82
595.353	0.82
595.691	0.83
596.028	0.83
596.366	0.84
596.703	0.83
597.04	0.83
597.378	0.83
597.715	0.83
598.052	0.84
598.389	0.83
598.726	0.83
599.064	0.83
599.401	0.83
599.738	0.83
600.074	0.83
600.411	0.82
600.748	0.82
601.085	0.82
601.422	0.81
601.758	0.81
602.095	0.81
602.432	0.81
602.768	0.81
603.105	0.81
603.441	0.81
603.777	0.81
604.114	0.81
604.45	0.82
604.786	0.81
605.122	0.81
605.459	0.8
605.795	0.8
606.131	0.8
606.467	0.8
606.803	0.8
607.139	0.8
607.474	0.79
607.81	0.79
608.146	0.79
608.482	0.79
608.817	0.78
609.153	0.78
609.488	0.77
609.824	0.77
610.159	0.78
610.495	0.78
610.83	0.77
611.165	0.77
611.5	0.77
611.836	0.76
612.171	0.76
612.506	0.76
612.841	0.76
613.176	0.76
613.511	0.75
613.845	0.74
614.18	0.75
614.515	0.74
614.85	0.74
615.184	0.74
615.519	0.73
615.854	0.74
616.188	0.73
616.523	0.73
616.857	0.73
617.191	0.73
617.526	0.72
617.86	0.72
618.194	0.72
618.528	0.72
618.862	0.72
619.196	0.72
619.53	0.71
619.864	0.71
620.198	0.71
620.532	0.7
620.866	0.7
621.2	0.69
621.533	0.69
621.867	0.7
622.201	0.68
622.534	0.68
622.868	0.69
623.201	0.68
623.534	0.68
623.868	0.67
624.201	0.67
624.534	0.67
624.868	0.66
625.201	0.66
625.534	0.66
625.867	0.66
626.2	0.65
626.533	0.65
626.865	0.65
627.198	0.65
627.531	0.64
627.864	0.64
628.196	0.63
628.529	0.64
628.862	0.63
629.194	0.63
629.527	0.63
629.859	0.62
630.191	0.62
630.524	0.62
630.856	0.61
631.188	0.61
631.52	0.61
631.852	0.6
632.184	0.59
632.516	0.59
632.848	0.59
633.18	0.59
633.512	0.58
633.844	0.58
634.175	0.57
634.507	0.57
634.839	0.56
635.17	0.56
635.502	0.56
635.833	0.56
636.165	0.55
636.496	0.55
636.827	0.54
637.159	0.54
637.49	0.54
637.821	0.53
638.152	0.53
638.483	0.53
638.814	0.52
639.145	0.52
639.476	0.52
639.807	0.51
640.137	0.51
640.468	0.5
640.799	0.5
641.129	0.5
641.46	0.5
641.791	0.49
642.121	0.49
642.451	0.49
642.782	0.48
643.112	0.48
643.442	0.48
643.773	0.47
644.103	0.47
644.433	0.47
644.763	0.47
645.093	0.47
645.423	0.47
645.753	0.47
646.082	0.46
646.412	0.46
646.742	0.46
647.072	0.45
647.401	0.45
647.731	0.45
648.06	0.45
648.39	0.45
648.719	0.45
649.048	0.45
649.378	0.44
649.707	0.44
650.036	0.43
650.365	0.43
650.694	0.43
651.023	0.43
651.352	0.42
651.681	0.43
652.01	0.43
652.339	0.42
652.668	0.42
652.996	0.42
653.325	0.42
653.654	0.42
653.982	0.42
654.311	0.42
654.639	0.41
654.967	0.41
655.296	0.41
655.624	0.41
655.952	0.41
656.28	0.4
656.609	0.41
656.937	0.41
657.265	0.38
657.593	0.23
657.92	0.14
658.248	0.11
658.576	0.18
658.904	0.31
659.231	0.38
659.559	0.39
659.887	0.39
660.214	0.39
660.542	0.38
660.869	0.38
661.196	0.38
661.524	0.38
661.851	0.38
662.178	0.38
662.505	0.38
662.832	0.38
663.159	0.38
663.486	0.37
663.813	0.37
664.14	0.37
664.467	0.37
664.794	0.37
665.12	0.37
665.447	0.36
665.774	0.36
666.1	0.36
666.427	0.36
666.753	0.35
667.079	0.35
667.406	0.35
667.732	0.34
668.058	0.35
668.384	0.35
668.71	0.35
669.036	0.35
669.362	0.34
669.688	0.34
670.014	0.34
670.34	0.34
670.666	0.33
670.991	0.33
671.317	0.33
671.643	0.32
671.968	0.32
672.294	0.32
672.619	0.32
672.945	0.32
673.27	0.31
673.595	0.31
673.92	0.31
674.246	0.3
674.571	0.31
674.896	0.3
675.221	0.3
675.546	0.3
675.87	0.3
676.195	0.29
676.52	0.29
676.845	0.29
677.169	0.28
677.494	0.28
677.819	0.28
678.143	0.28
678.468	0.27
678.792	0.27
679.116	0.27
679.44	0.27
679.765	0.27
680.089	0.26
680.413	0.26
680.737	0.26
681.061	0.25
681.385	0.25
681.709	0.25
682.033	0.25
682.356	0.24
682.68	0.24
683.004	0.24
683.327	0.24
683.651	0.23
683.974	0.23
684.298	0.23
684.621	0.23
684.944	0.22
685.268	0.22
685.591	0.22
685.914	0.21
686.237	0.21
686.56	0.21
686.883	0.21
687.206	0.2
687.529	0.2
687.852	0.2
688.175	0.2
688.497	0.2
688.82	0.2
689.142	0.19
689.465	0.19
689.787	0.19
690.11	0.19
690.432	0.19
690.755	0.18
691.077	0.18
691.399	0.17
691.721	0.17
692.043	0.17
692.365	0.17
692.687	0.17
693.009	0.16
693.331	0.16
693.653	0.16
693.974	0.16
694.296	0.16
694.618	0.16
694.939	0.15
695.261	0.15
695.582	0.15
695.904	0.15
696.225	0.15
696.546	0.15
696.868	0.15
697.189	0.15
697.51	0.14
697.831	0.14
698.152	0.14
698.473	0.14
698.794	0.13
699.114	0.13
699.435	0.12
699.756	0.12
700.077	0.12
700.397	0.13
700.718	0.13
701.038	0.13
701.359	0.13
701.679	0.13
701.999	0.13
702.32	0.12
702.64	0.12
702.96	0.12
703.28	0.12
703.6	0.12
703.92	0.12
704.24	0.12
704.56	0.11
704.879	0.11
705.199	0.12
705.519	0.12
705.838	0.11
706.158	0.12
706.478	0.12
706.797	0.12
707.116	0.12
707.436	0.12
707.755	0.11
708.074	0.12
708.393	0.11
708.712	0.1
709.031	0.09
709.35	0.09
709.669	0.09
709.988	0.1
710.307	0.1
710.626	0.1
710.944	0.11
711.263	0.11
711.582	0.11
711.9	0.11
712.219	0.1
712.537	0.1
712.855	0.1
713.174	0.11
713.492	0.11
713.81	0.11
714.128	0.11
714.446	0.11
714.764	0.1
715.082	0.09
715.4	0.1
715.718	0.1
716.035	0.1
716.353	0.1
716.671	0.1
716.988	0.11
717.306	0.1
717.623	0.11
717.941	0.11
718.258	0.12
718.575	0.12
718.893	0.11
719.21	0.11
719.527	0.11
719.844	0.11
720.161	0.11
720.478	0.11
720.795	0.11
721.112	0.11
721.428	0.12
721.745	0.12
722.062	0.12
722.378	0.12
722.695	0.12
723.011	0.12
723.328	0.12
723.644	0.12
723.96	0.12
724.276	0.12
724.593	0.12
724.909	0.12
725.225	0.12
725.541	0.12
725.857	0.11
726.173	0.12
726.488	0.12
726.804	0.11
727.12	0.11
727.435	0.11
727.751	0.11
728.067	0.11
728.382	0.11
728.697	0.11
729.013	0.11
729.328	0.11
729.643	0.11
729.958	0.11
730.273	0.11
730.588	0.11
730.903	0.11
731.218	0.11
731.533	0.11
731.848	0.11
732.163	0.11
732.477	0.11
732.792	0.11
733.107	0.1
733.421	0.1
733.736	0.11
734.05	0.1
734.364	0.1
734.678	0.1
734.993	0.1
735.307	0.1
735.621	0.1
735.935	0.1
736.249	0.1
736.563	0.1
736.877	0.11
737.19	0.11
737.504	0.1
737.818	0.1
738.131	0.11
738.445	0.11
738.758	0.11
739.072	0.11
739.385	0.11
739.698	0.11
740.012	0.11
740.325	0.11
740.638	0.1
740.951	0.1
741.264	0.1
741.577	0.1
741.89	0.1
742.203	0.1
742.515	0.1
742.828	0.1
743.141	0.1
743.453	0.1
743.766	0.1
744.078	0.09
744.391	0.09
744.703	0.09
745.015	0.09
745.327	0.09
745.639	0.09
745.952	0.09
746.264	0.09
746.575	0.09
746.887	0.09
747.199	0.09
747.511	0.09
747.823	0.09
748.134	0.09
748.446	0.08
748.757	0.08
749.069	0.08
749.38	0.08
749.692	0.08
750.003	0.07
750.314	0.07
750.625	0.07
750.936	0.07
751.248	0.07
751.559	0.08
751.869	0.08
752.18	0.07
752.491	0.07
752.802	0.07
753.112	0.07
753.423	0.07
753.734	0.07
754.044	0.07
754.355	0.06
754.665	0.06
754.975	0.06
755.285	0.06
755.596	0.06
755.906	0.06
756.216	0.06
756.526	0.06
756.836	0.06
757.146	0.06
757.455	0.06
757.765	0.06
758.075	0.06
758.385	0.06
758.694	0.05
759.004	0.05
759.313	0.05
759.622	0.05
759.932	0.06
760.241	0.06
760.55	0.06
760.859	0.06
761.168	0.06
761.477	0.06
761.786	0.06
762.095	0.06
762.404	0.05
762.713	0.06
763.021	0.05
763.33	0.05
763.639	0.06
763.947	0.06
764.256	0.06
764.564	0.06
764.872	0.06
765.181	0.06
765.489	0.05
765.797	0.05
766.105	0.05
766.413	0.05
766.721	0.05
767.029	0.06
767.337	0.06
767.644	0.06
767.952	0.06
768.26	0.06
768.567	0.06
768.875	0.06
769.182	0.05
769.49	0.05
769.797	0.05
770.104	0.05
770.411	0.05
770.718	0.05
771.026	0.05
771.333	0.05
771.639	0.05
771.946	0.05
772.253	0.05
772.56	0.05
772.867	0.05
773.173	0.05
773.48	0.05
773.786	0.06
774.093	0.05
774.399	0.06
774.705	0.05
775.012	0.05
775.318	0.06
775.624	0.06
775.93	0.05
776.236	0.06
776.542	0.06
776.848	0.06
777.154	0.06
777.459	0.06
777.765	0.06
778.071	0.06
778.376	0.06
778.682	0.06
778.987	0.06
779.292	0.06
779.598	0.05
779.903	0.05
780.208	0.05
780.513	0.05
780.818	0.05
781.123	0.05
781.428	0.06
781.733	0.06
782.038	0.05
782.343	0.05
782.647	0.05
782.952	0.05
783.256	0.05
783.561	0.05
783.865	0.05
784.17	0.05
784.474	0.05
784.778	0.05
785.082	0.05
785.386	0.05
785.69	0.05
785.994	0.05
786.298	0.05
786.602	0.05
786.906	0.06
787.209	0.06
787.513	0.06
787.817	0.06
788.12	0.06
788.424	0.07
788.727	0.07
789.03	0.07
789.333	0.07
789.637	0.06
789.94	0.06
790.243	0.07
790.546	0.07
790.849	0.07
791.152	0.07
791.454	0.06
791.757	0.07
792.06	0.06
792.362	0.07
792.665	0.06
792.967	0.06
793.27	0.06
793.572	0.07
793.874	0.07
794.177	0.07
794.479	0.07
794.781	0.07
795.083	0.07
795.385	0.07
795.687	0.08
795.989	0.07
796.29	0.08
796.592	0.08
796.894	0.08
797.195	0.08
797.497	0.07
797.798	0.08
798.1	0.08
798.401	0.08
798.702	0.07
799.003	0.07
799.304	0.07
799.605	0.06
799.906	0.07
800.207	0.07
800.508	0.07
800.809	0.08
801.11	0.08
801.41	0.08
801.711	0.08
802.011	0.08
802.312	0.08
802.612	0.08
802.913	0.08
803.213	0.08
803.513	0.08
803.813	0.08
804.113	0.08
804.413	0.08
804.713	0.08
805.013	0.08
805.313	0.09
805.613	0.08
805.912	0.08
806.212	0.08
806.511	0.08
806.811	0.08
807.11	0.08
807.41	0.08
807.709	0.09
808.008	0.09
808.307	0.09
808.606	0.09
808.905	0.09
809.204	0.08
809.503	0.08
809.802	0.09
810.101	0.09
810.399	0.09
810.698	0.09
810.997	0.09
811.295	0.09
811.593	0.09
811.892	0.09
812.19	0.09
812.488	0.09
812.786	0.09
813.084	0.09
813.383	0.1
813.68	0.09
813.978	0.1
814.276	0.1
814.574	0.1
814.872	0.1
815.169	0.1
815.467	0.09
815.764	0.09
816.062	0.09
816.359	0.09
816.656	0.09
816.954	0.1
817.251	0.1
817.548	0.1
817.845	0.1
818.142	0.1
818.439	0.11
818.735	0.1
819.032	0.11
819.329	0.1
819.626	0.11
819.922	0.11
820.219	0.12
820.515	0.11
820.811	0.11
821.108	0.11
821.404	0.11
821.7	0.11
821.996	0.1
822.292	0.1
822.588	0.11
822.884	0.11
823.18	0.12
823.475	0.12
823.771	0.13
824.067	0.12
824.362	0.12
824.658	0.12
824.953	0.12
825.249	0.11
825.544	0.12
825.839	0.12
826.134	0.12
826.429	0.12
826.724	0.12
827.019	0.12
827.314	0.13
827.609	0.13
827.904	0.12
828.198	0.12
828.493	0.12
828.787	0.13
829.082	0.12
829.376	0.13
829.671	0.14
829.965	0.14
830.259	0.13
830.553	0.14
830.847	0.13
831.141	0.13
831.435	0.13
831.729	0.14
832.023	0.13
832.317	0.14
832.61	0.13
832.904	0.14
833.197	0.14
833.491	0.13
833.784	0.14
834.077	0.14
834.371	0.14
834.664	0.15
834.957	0.14
835.25	0.14
835.543	0.14
835.836	0.15
836.129	0.14
836.421	0.14
836.714	0.14
837.007	0.13
837.299	0.14
837.592	0.13
837.884	0.14
838.177	0.14
838.469	0.14
838.761	0.14
839.053	0.14
839.345	0.14
839.637	0.14
839.929	0.14
840.221	0.15
840.513	0.15
840.805	0.16
841.096	0.15
841.388	0.15
841.68	0.16
841.971	0.16
842.262	0.15
842.554	0.15
842.845	0.15
843.136	0.15
843.427	0.16
843.718	0.15
844.009	0.15
844.3	0.15
844.591	0.15
844.882	0.16
845.173	0.16
845.463	0.15
845.754	0.16
846.044	0.15
846.335	0.16
846.625	0.16
846.915	0.16
847.206	0.15
847.496	0.16
847.786	0.16
848.076	0.16
848.366	0.16
848.656	0.15
848.945	0.16
849.235	0.15
849.525	0.14
849.814	0.15
850.104	0.15
850.393	0.16
850.683	0.17
850.972	0.16
851.261	0.16
851.551	0.18
851.84	0.17
852.129	0.17
852.418	0.16
852.707	0.18
852.995	0.17
853.284	0.16
853.573	0.16
853.862	0.16
854.15	0.17
854.439	0.15
854.727	0.16
855.015	0.17
855.304	0.17
855.592	0.17
855.88	0.17
856.168	0.17
856.456	0.18
856.744	0.17
857.032	0.17
857.32	0.16
857.607	0.17
857.895	0.17
858.183	0.18
858.47	0.18
858.757	0.17
859.045	0.18
859.332	0.17
859.619	0.19
859.907	0.18
860.194	0.16
860.481	0.18
860.768	0.18
861.054	0.17
861.341	0.17
861.628	0.19
861.915	0.2
862.201	0.17
862.488	0.18
862.774	0.19
863.061	0.2
863.347	0.18
863.633	0.19
863.919	0.15
864.205	0.18
864.491	0.18
864.777	0.19
865.063	0.18
865.349	0.19
865.635	0.19
865.92	0.22
866.206	0.2
866.492	0.18
866.777	0.21
867.062	0.17
867.348	0.15
867.633	0.18
867.918	0.18
868.203	0.17
868.488	0.18
868.773	0.2
869.058	0.19
869.343	0.2
869.628	0.2
869.912	0.18
870.197	0.19
870.482	0.18
870.766	0.2
871.05	0.16
871.335	0.19
871.619	0.23
871.903	0.19
872.187	0.16
872.471	0.24
872.755	0.2
873.039	0.17
873.323	0.21
873.607	0.17
873.89	0.2
874.174	0.14
874.458	0.26
874.741	0.17
875.024	0.18
875.308	0.26
875.591	0.17
875.874	0.22
876.157	0.13
876.44	0.05
876.723	0.11
877.006	0.13
877.289	0.17
877.572	0.17
877.854	0.19
878.137	0.1
878.42	0.14
878.702	0.19
878.984	0.25
879.267	0.28
879.549	0.09
879.831	0.07
880.113	0.21
880.395	0.01
880.677	0.07
880.959	0.08
