Data from Rubpy_BV_1800_EDTA_Buffered_Absorbance_14-54-17-844.txt Node
Date: Wed Jul 01 14:54:17 BST 2026
User: fpm-admin
Spectrometer: OFX00224
Trigger mode: 0
Integration Time (sec): 7.000000E-2
Scans to average: 3
Nonlinearity correction enabled: false
Boxcar width: 0
Storing dark spectrum: false
XAxis mode: Wavelengths
Number of Pixels in Spectrum: 2136
>>>>>Begin Spectral Data<<<<<
154.91	-0.51
155.289	-0
155.669	-0.6
156.048	-0.3
156.428	-0.15
156.807	-0
157.186	-0.2
157.566	-0
157.945	-0.09
158.325	-0.29
158.704	-0
159.083	-0
159.462	-0
159.842	-0
160.221	-0.81
160.6	-0.05
160.979	0.88
161.359	-0
161.738	-0
162.117	1.28
162.496	0.6
162.875	-0
163.254	0.23
163.633	-0
164.012	-0.19
164.391	-0.51
164.77	0.12
165.149	-0
165.528	-1.11
165.907	-0
166.286	-0.2
166.665	-0.22
167.044	-0.11
167.423	-0.29
167.802	-0
168.181	-0.08
168.559	-0
168.938	-0.7
169.317	-0.1
169.696	-0
170.074	-0.05
170.453	0.16
170.832	-0
171.21	-0.53
171.589	0.48
171.968	-0
172.346	-0
172.725	-0
173.103	-0.11
173.482	0.1
173.861	-0
174.239	0.26
174.617	-0
174.996	0.85
175.374	0.2
175.753	-0
176.131	-0
176.51	0.07
176.888	-0
177.266	-0
177.645	-0.11
178.023	1.5
178.401	-0.14
178.779	-0.29
179.158	-1.15
179.536	-0.05
179.914	0.03
180.292	-0
180.67	0.39
181.048	-0.12
181.427	-0
181.805	-0
182.183	-1.68
182.561	-0.03
182.939	-0
183.317	-0
183.695	0.66
184.073	0.1
184.451	0.72
184.829	-0.39
185.206	1.2
185.584	0.43
185.962	-0
186.34	1.29
186.718	-0
187.096	-0.65
187.473	0.09
187.851	-0
188.229	-0
188.607	0.12
188.984	0.12
189.362	0.24
189.74	0.3
190.117	0.16
190.495	0.14
190.872	0.17
191.25	0.26
191.627	0.25
192.005	0.09
192.382	-0
192.76	0.22
193.137	0.28
193.515	0.23
193.892	0.32
194.269	0.24
194.647	0.15
195.024	0.1
195.401	0.24
195.779	0.17
196.156	0.07
196.533	0.17
196.91	0.14
197.288	0.11
197.665	0.12
198.042	0.18
198.419	0.22
198.796	0.11
199.173	0.22
199.55	0.23
199.927	0.11
200.304	0.23
200.681	0.25
201.058	0.04
201.435	0.23
201.812	0.06
202.189	0.28
202.566	0.21
202.943	0.09
203.32	0.19
203.697	0.22
204.073	0.21
204.45	0.28
204.827	0.35
205.204	0.09
205.58	0.1
205.957	0.21
206.334	0.22
206.71	0.17
207.087	0.2
207.464	0.13
207.84	0.24
208.217	0.32
208.593	0.22
208.97	0.22
209.346	0.26
209.723	0.26
210.099	0.14
210.476	0.1
210.852	0.1
211.228	0.13
211.605	0.25
211.981	0.37
212.357	0.19
212.733	0.18
213.11	0.09
213.486	0.11
213.862	0.16
214.238	0.26
214.614	0.21
214.991	0.16
215.367	0.2
215.743	0.17
216.119	0.38
216.495	0.15
216.871	0.28
217.247	0.09
217.623	0.23
217.999	0.12
218.375	0.19
218.751	0.09
219.127	0.21
219.502	0.22
219.878	0.18
220.254	0.13
220.63	0.13
221.006	0.25
221.381	0.19
221.757	0.07
222.133	0.24
222.508	0.35
222.884	0.09
223.26	0.12
223.635	0.18
224.011	0.14
224.386	0.13
224.762	0.16
225.137	0.23
225.513	0.1
225.888	0.18
226.264	0.25
226.639	0.17
227.014	0.18
227.39	0.25
227.765	0.12
228.14	0.26
228.516	0.31
228.891	0.14
229.266	0.15
229.641	0.2
230.017	0.1
230.392	0.2
230.767	0.08
231.142	0.18
231.517	0.15
231.892	0.1
232.267	0.15
232.642	0.11
233.017	0.13
233.392	0.14
233.767	0.18
234.142	0.1
234.517	0.23
234.892	0.2
235.267	0.19
235.641	0.22
236.016	0.15
236.391	0.14
236.766	0.4
237.14	0.2
237.515	0.23
237.89	0.01
238.264	0.16
238.639	0.2
239.014	0.28
239.388	0.18
239.763	0.14
240.137	0.25
240.512	0.13
240.886	0.14
241.261	0.12
241.635	0.12
242.009	0.16
242.384	0.1
242.758	0.16
243.132	0.28
243.507	0.12
243.881	0.17
244.255	0.24
244.629	0.23
245.004	0.19
245.378	0.19
245.752	0.14
246.126	0.11
246.5	0.11
246.874	0.26
247.248	0.23
247.622	0.28
247.996	0.16
248.37	0.14
248.744	0.12
249.118	0.17
249.492	0.26
249.866	0.18
250.24	0.26
250.613	0.18
250.987	0.2
251.361	0.27
251.735	0.16
252.108	0.14
252.482	0.11
252.856	0.13
253.229	0.16
253.603	0.11
253.977	0.08
254.35	0.17
254.724	0.13
255.097	0.12
255.471	0.16
255.844	0.18
256.218	0.15
256.591	0.16
256.964	0.14
257.338	0.15
257.711	0.14
258.084	0.19
258.458	0.24
258.831	0.29
259.204	0.22
259.577	0.21
259.95	0.28
260.323	0.24
260.697	0.18
261.07	0.17
261.443	0.14
261.816	0.06
262.189	0.2
262.562	0.24
262.935	0.24
263.308	0.17
263.68	0.21
264.053	0.1
264.426	0.17
264.799	0.13
265.172	0.19
265.545	0.17
265.917	0.18
266.29	0.19
266.663	0.36
267.035	0.21
267.408	0.22
267.781	0.26
268.153	0.23
268.526	0.13
268.898	0.19
269.271	0.19
269.643	0.19
270.016	0.2
270.388	0.13
270.76	0.25
271.133	0.28
271.505	0.19
271.877	0.18
272.25	0.28
272.622	0.21
272.994	0.19
273.366	0.22
273.739	0.14
274.111	0.12
274.483	0.17
274.855	0.23
275.227	0.14
275.599	0.11
275.971	0.16
276.343	0.11
276.715	0.19
277.087	0.23
277.459	0.11
277.831	0.21
278.203	0.2
278.574	0.21
278.946	0.17
279.318	0.09
279.69	0.21
280.061	0.15
280.433	0.19
280.805	0.22
281.176	0.18
281.548	0.15
281.92	0.16
282.291	0.2
282.663	0.16
283.034	0.12
283.406	0.2
283.777	0.19
284.148	0.11
284.52	0.24
284.891	0.17
285.262	0.18
285.634	0.18
286.005	0.14
286.376	0.14
286.747	0.21
287.119	0.16
287.49	0.22
287.861	0.18
288.232	0.14
288.603	0.21
288.974	0.22
289.345	0.16
289.716	0.16
290.087	0.21
290.458	0.23
290.829	0.15
291.2	0.12
291.571	0.21
291.941	0.26
292.312	0.15
292.683	0.24
293.054	0.18
293.424	0.16
293.795	0.15
294.166	0.19
294.536	0.14
294.907	0.19
295.277	0.21
295.648	0.16
296.018	0.2
296.389	0.16
296.759	0.19
297.13	0.18
297.5	0.23
297.871	0.16
298.241	0.18
298.611	0.25
298.981	0.18
299.352	0.15
299.722	0.23
300.092	0.17
300.462	0.09
300.832	0.25
301.202	0.26
301.573	0.15
301.943	0.17
302.313	0.23
302.683	0.24
303.053	0.16
303.422	0.2
303.792	0.15
304.162	0.2
304.532	0.17
304.902	0.15
305.272	0.21
305.641	0.19
306.011	0.11
306.381	0.2
306.75	0.18
307.12	0.2
307.49	0.13
307.859	0.19
308.229	0.13
308.598	0.17
308.968	0.15
309.337	0.11
309.707	0.14
310.076	0.13
310.445	0.18
310.815	0.15
311.184	0.12
311.553	0.1
311.923	0.13
312.292	0.14
312.661	0.15
313.03	0.14
313.399	0.13
313.768	0.13
314.137	0.12
314.506	0.14
314.875	0.15
315.244	0.14
315.613	0.1
315.982	0.14
316.351	0.15
316.72	0.15
317.089	0.15
317.458	0.15
317.826	0.15
318.195	0.16
318.564	0.14
318.933	0.14
319.301	0.16
319.67	0.16
320.038	0.15
320.407	0.17
320.775	0.16
321.144	0.17
321.512	0.16
321.881	0.16
322.249	0.17
322.618	0.16
322.986	0.16
323.354	0.17
323.723	0.17
324.091	0.16
324.459	0.18
324.827	0.16
325.195	0.18
325.564	0.19
325.932	0.18
326.3	0.19
326.668	0.2
327.036	0.19
327.404	0.19
327.772	0.2
328.14	0.19
328.508	0.2
328.875	0.2
329.243	0.21
329.611	0.21
329.979	0.21
330.346	0.21
330.714	0.21
331.082	0.21
331.449	0.23
331.817	0.22
332.185	0.23
332.552	0.23
332.92	0.24
333.287	0.25
333.655	0.24
334.022	0.26
334.389	0.25
334.757	0.26
335.124	0.26
335.491	0.27
335.859	0.28
336.226	0.27
336.593	0.28
336.96	0.29
337.327	0.29
337.695	0.3
338.062	0.3
338.429	0.3
338.796	0.31
339.163	0.32
339.53	0.33
339.897	0.32
340.263	0.33
340.63	0.34
340.997	0.34
341.364	0.35
341.731	0.35
342.097	0.36
342.464	0.37
342.831	0.38
343.197	0.38
343.564	0.39
343.931	0.39
344.297	0.4
344.664	0.41
345.03	0.41
345.396	0.42
345.763	0.43
346.129	0.43
346.496	0.43
346.862	0.44
347.228	0.44
347.594	0.45
347.961	0.46
348.327	0.47
348.693	0.47
349.059	0.48
349.425	0.48
349.791	0.48
350.157	0.49
350.523	0.5
350.889	0.51
351.255	0.52
351.621	0.52
351.987	0.52
352.353	0.53
352.719	0.54
353.084	0.55
353.45	0.56
353.816	0.55
354.181	0.56
354.547	0.58
354.913	0.57
355.278	0.58
355.644	0.59
356.009	0.6
356.375	0.61
356.74	0.62
357.106	0.63
357.471	0.63
357.836	0.64
358.202	0.65
358.567	0.65
358.932	0.67
359.297	0.67
359.663	0.69
360.028	0.7
360.393	0.71
360.758	0.72
361.123	0.73
361.488	0.73
361.853	0.74
362.218	0.76
362.583	0.76
362.948	0.77
363.312	0.78
363.677	0.8
364.042	0.8
364.407	0.81
364.772	0.81
365.136	0.82
365.501	0.82
365.865	0.85
366.23	0.84
366.595	0.85
366.959	0.86
367.324	0.87
367.688	0.88
368.052	0.88
368.417	0.9
368.781	0.9
369.145	0.91
369.51	0.91
369.874	0.92
370.238	0.92
370.602	0.93
370.967	0.95
371.331	0.94
371.695	0.95
372.059	0.94
372.423	0.95
372.787	0.95
373.151	0.95
373.515	0.95
373.878	0.94
374.242	0.94
374.606	0.94
374.97	0.93
375.334	0.93
375.697	0.92
376.061	0.9
376.425	0.9
376.788	0.89
377.152	0.89
377.515	0.88
377.879	0.86
378.242	0.86
378.606	0.85
378.969	0.83
379.333	0.82
379.696	0.81
380.059	0.81
380.422	0.81
380.786	0.79
381.149	0.79
381.512	0.77
381.875	0.77
382.238	0.76
382.601	0.76
382.964	0.75
383.327	0.74
383.69	0.74
384.053	0.73
384.416	0.73
384.779	0.72
385.142	0.72
385.504	0.72
385.867	0.71
386.23	0.71
386.593	0.71
386.955	0.71
387.318	0.71
387.68	0.71
388.043	0.71
388.405	0.71
388.768	0.71
389.13	0.71
389.493	0.71
389.855	0.7
390.217	0.69
390.58	0.69
390.942	0.69
391.304	0.68
391.666	0.67
392.028	0.67
392.391	0.66
392.753	0.65
393.115	0.65
393.477	0.64
393.839	0.63
394.201	0.63
394.563	0.63
394.924	0.63
395.286	0.63
395.648	0.63
396.01	0.63
396.371	0.64
396.733	0.65
397.095	0.66
397.456	0.68
397.818	0.7
398.18	0.71
398.541	0.73
398.903	0.74
399.264	0.76
399.625	0.77
399.987	0.8
400.348	0.81
400.709	0.82
401.071	0.83
401.432	0.83
401.793	0.83
402.154	0.82
402.515	0.82
402.876	0.81
403.238	0.79
403.599	0.78
403.96	0.75
404.32	0.71
404.681	0.69
405.042	0.67
405.403	0.64
405.764	0.61
406.125	0.57
406.485	0.54
406.846	0.51
407.207	0.49
407.567	0.46
407.928	0.44
408.288	0.42
408.649	0.39
409.009	0.37
409.37	0.34
409.73	0.32
410.091	0.31
410.451	0.3
410.811	0.28
411.171	0.27
411.532	0.25
411.892	0.24
412.252	0.22
412.612	0.21
412.972	0.21
413.332	0.19
413.692	0.19
414.052	0.18
414.412	0.17
414.772	0.17
415.132	0.16
415.492	0.16
415.851	0.15
416.211	0.14
416.571	0.14
416.931	0.14
417.29	0.14
417.65	0.12
418.009	0.13
418.369	0.12
418.728	0.13
419.088	0.12
419.447	0.11
419.807	0.1
420.166	0.11
420.525	0.1
420.884	0.1
421.244	0.11
421.603	0.1
421.962	0.09
422.321	0.1
422.68	0.1
423.039	0.09
423.398	0.09
423.757	0.09
424.116	0.1
424.475	0.09
424.834	0.1
425.193	0.08
425.551	0.08
425.91	0.08
426.269	0.08
426.628	0.08
426.986	0.09
427.345	0.08
427.703	0.08
428.062	0.08
428.42	0.08
428.779	0.08
429.137	0.08
429.496	0.08
429.854	0.08
430.212	0.08
430.57	0.08
430.929	0.07
431.287	0.07
431.645	0.07
432.003	0.07
432.361	0.07
432.719	0.08
433.077	0.07
433.435	0.07
433.793	0.07
434.151	0.08
434.509	0.08
434.866	0.07
435.224	0.08
435.582	0.07
435.94	0.07
436.297	0.07
436.655	0.07
437.012	0.07
437.37	0.07
437.727	0.07
438.085	0.07
438.442	0.07
438.8	0.07
439.157	0.07
439.514	0.07
439.872	0.07
440.229	0.07
440.586	0.07
440.943	0.07
441.3	0.06
441.657	0.07
442.014	0.07
442.371	0.07
442.728	0.06
443.085	0.07
443.442	0.06
443.799	0.07
444.156	0.07
444.513	0.06
444.869	0.06
445.226	0.07
445.583	0.07
445.939	0.07
446.296	0.06
446.652	0.07
447.009	0.06
447.365	0.07
447.722	0.06
448.078	0.06
448.434	0.07
448.791	0.07
449.147	0.06
449.503	0.07
449.859	0.06
450.215	0.05
450.571	0.06
450.928	0.06
451.284	0.07
451.64	0.07
451.995	0.06
452.351	0.06
452.707	0.05
453.063	0.06
453.419	0.06
453.775	0.05
454.13	0.05
454.486	0.05
454.842	0.05
455.197	0.05
455.553	0.04
455.908	0.04
456.264	0.04
456.619	0.04
456.975	0.04
457.33	0.05
457.685	0.04
458.04	0.04
458.396	0.04
458.751	0.04
459.106	0.03
459.461	0.03
459.816	0.02
460.171	0.03
460.526	0.03
460.881	0.01
461.236	0.01
461.591	0.01
461.946	0.01
462.301	0.01
462.655	0
463.01	0.01
463.365	0
463.719	-0.01
464.074	-0.01
464.428	-0.02
464.783	-0.02
465.137	-0.02
465.492	-0.01
465.846	-0.02
466.201	-0.02
466.555	-0.02
466.909	-0.02
467.263	-0.01
467.618	-0.01
467.972	-0.01
468.326	-0.01
468.68	-0.02
469.034	-0.01
469.388	-0.02
469.742	-0.02
470.096	-0.02
470.45	-0.01
470.804	-0.01
471.157	-0.01
471.511	-0.01
471.865	-0.02
472.218	-0.01
472.572	-0
472.926	-0
473.279	0
473.633	0.01
473.986	0.02
474.34	0.02
474.693	0.02
475.046	0.03
475.4	0.04
475.753	0.05
476.106	0.05
476.459	0.06
476.812	0.07
477.165	0.07
477.519	0.08
477.872	0.08
478.224	0.08
478.577	0.09
478.93	0.09
479.283	0.09
479.636	0.1
479.989	0.11
480.341	0.11
480.694	0.11
481.047	0.11
481.399	0.12
481.752	0.13
482.104	0.13
482.457	0.13
482.809	0.13
483.162	0.14
483.514	0.14
483.866	0.14
484.219	0.14
484.571	0.15
484.923	0.15
485.275	0.16
485.627	0.15
485.979	0.16
486.331	0.16
486.683	0.17
487.035	0.17
487.387	0.17
487.739	0.18
488.091	0.18
488.443	0.18
488.794	0.18
489.146	0.18
489.498	0.18
489.849	0.19
490.201	0.19
490.552	0.19
490.904	0.19
491.255	0.2
491.607	0.19
491.958	0.19
492.309	0.2
492.661	0.2
493.012	0.21
493.363	0.21
493.714	0.21
494.065	0.21
494.416	0.22
494.767	0.22
495.118	0.22
495.469	0.22
495.82	0.22
496.171	0.23
496.522	0.23
496.872	0.23
497.223	0.23
497.574	0.23
497.924	0.23
498.275	0.24
498.626	0.24
498.976	0.24
499.327	0.25
499.677	0.25
500.027	0.25
500.378	0.25
500.728	0.25
501.078	0.26
501.428	0.26
501.779	0.26
502.129	0.26
502.479	0.26
502.829	0.27
503.179	0.26
503.529	0.27
503.879	0.27
504.229	0.27
504.578	0.28
504.928	0.27
505.278	0.28
505.628	0.28
505.977	0.28
506.327	0.29
506.676	0.29
507.026	0.29
507.375	0.29
507.725	0.29
508.074	0.29
508.424	0.29
508.773	0.3
509.122	0.3
509.471	0.3
509.82	0.3
510.17	0.31
510.519	0.3
510.868	0.31
511.217	0.31
511.566	0.31
511.915	0.31
512.263	0.32
512.612	0.32
512.961	0.32
513.31	0.32
513.659	0.33
514.007	0.33
514.356	0.32
514.704	0.33
515.053	0.33
515.401	0.33
515.75	0.33
516.098	0.34
516.447	0.34
516.795	0.33
517.143	0.34
517.491	0.35
517.839	0.34
518.188	0.34
518.536	0.34
518.884	0.35
519.232	0.35
519.58	0.35
519.928	0.34
520.275	0.35
520.623	0.35
520.971	0.36
521.319	0.35
521.666	0.36
522.014	0.36
522.362	0.36
522.709	0.36
523.057	0.36
523.404	0.36
523.752	0.37
524.099	0.37
524.446	0.37
524.794	0.36
525.141	0.38
525.488	0.37
525.835	0.37
526.182	0.37
526.529	0.37
526.876	0.37
527.223	0.37
527.57	0.38
527.917	0.38
528.264	0.38
528.611	0.38
528.958	0.38
529.304	0.38
529.651	0.39
529.998	0.39
530.344	0.39
530.691	0.39
531.037	0.39
531.384	0.4
531.73	0.39
532.076	0.39
532.423	0.39
532.769	0.39
533.115	0.39
533.461	0.4
533.807	0.4
534.154	0.4
534.5	0.4
534.846	0.4
535.192	0.4
535.537	0.4
535.883	0.41
536.229	0.41
536.575	0.41
536.921	0.4
537.266	0.41
537.612	0.41
537.957	0.41
538.303	0.41
538.649	0.41
538.994	0.41
539.339	0.42
539.685	0.42
540.03	0.41
540.375	0.41
540.721	0.42
541.066	0.42
541.411	0.42
541.756	0.42
542.101	0.42
542.446	0.42
542.791	0.42
543.136	0.42
543.481	0.42
543.825	0.42
544.17	0.42
544.515	0.43
544.86	0.42
545.204	0.42
545.549	0.42
545.893	0.43
546.238	0.43
546.582	0.43
546.927	0.43
547.271	0.43
547.615	0.43
547.96	0.43
548.304	0.43
548.648	0.44
548.992	0.43
549.336	0.43
549.68	0.43
550.024	0.44
550.368	0.44
550.712	0.43
551.056	0.43
551.4	0.44
551.743	0.44
552.087	0.43
552.431	0.44
552.774	0.44
553.118	0.44
553.462	0.44
553.805	0.43
554.148	0.44
554.492	0.44
554.835	0.43
555.178	0.43
555.522	0.44
555.865	0.44
556.208	0.44
556.551	0.43
556.894	0.44
557.237	0.44
557.58	0.44
557.923	0.44
558.266	0.44
558.609	0.43
558.952	0.44
559.294	0.44
559.637	0.44
559.98	0.44
560.322	0.44
560.665	0.43
561.007	0.43
561.35	0.43
561.692	0.43
562.034	0.44
562.377	0.43
562.719	0.43
563.061	0.43
563.403	0.43
563.745	0.43
564.088	0.43
564.43	0.43
564.772	0.43
565.113	0.43
565.455	0.43
565.797	0.43
566.139	0.43
566.481	0.43
566.822	0.43
567.164	0.43
567.506	0.43
567.847	0.43
568.189	0.43
568.53	0.43
568.872	0.42
569.213	0.43
569.554	0.42
569.895	0.42
570.237	0.42
570.578	0.42
570.919	0.42
571.26	0.42
571.601	0.42
571.942	0.42
572.283	0.42
572.624	0.42
572.965	0.41
573.306	0.41
573.646	0.41
573.987	0.41
574.328	0.41
574.668	0.41
575.009	0.41
575.349	0.4
575.69	0.41
576.03	0.4
576.37	0.4
576.711	0.4
577.051	0.4
577.391	0.4
577.731	0.4
578.072	0.4
578.412	0.4
578.752	0.4
579.092	0.39
579.431	0.38
579.771	0.37
580.111	0.36
580.451	0.38
580.791	0.4
581.13	0.4
581.47	0.39
581.81	0.39
582.149	0.39
582.489	0.39
582.828	0.38
583.167	0.35
583.507	0.31
583.846	0.31
584.185	0.35
584.525	0.37
584.864	0.39
585.203	0.39
585.542	0.4
585.881	0.4
586.22	0.39
586.559	0.39
586.898	0.37
587.236	0.37
587.575	0.37
587.914	0.37
588.252	0.38
588.591	0.39
588.93	0.39
589.268	0.38
589.607	0.38
589.945	0.38
590.283	0.39
590.622	0.39
590.96	0.39
591.298	0.39
591.636	0.39
591.974	0.39
592.313	0.39
592.651	0.39
592.989	0.39
593.326	0.39
593.664	0.4
594.002	0.39
594.34	0.39
594.678	0.38
595.015	0.38
595.353	0.38
595.691	0.39
596.028	0.39
596.366	0.39
596.703	0.39
597.04	0.39
597.378	0.39
597.715	0.39
598.052	0.4
598.389	0.4
598.726	0.39
599.064	0.39
599.401	0.39
599.738	0.39
600.074	0.39
600.411	0.39
600.748	0.39
601.085	0.38
601.422	0.38
601.758	0.38
602.095	0.38
602.432	0.39
602.768	0.39
603.105	0.39
603.441	0.39
603.777	0.39
604.114	0.39
604.45	0.39
604.786	0.39
605.122	0.39
605.459	0.39
605.795	0.38
606.131	0.38
606.467	0.38
606.803	0.39
607.139	0.38
607.474	0.38
607.81	0.38
608.146	0.38
608.482	0.38
608.817	0.38
609.153	0.37
609.488	0.37
609.824	0.37
610.159	0.37
610.495	0.37
610.83	0.37
611.165	0.37
611.5	0.37
611.836	0.37
612.171	0.37
612.506	0.37
612.841	0.37
613.176	0.37
613.511	0.36
613.845	0.36
614.18	0.36
614.515	0.36
614.85	0.36
615.184	0.36
615.519	0.36
615.854	0.36
616.188	0.36
616.523	0.35
616.857	0.35
617.191	0.35
617.526	0.35
617.86	0.35
618.194	0.35
618.528	0.35
618.862	0.35
619.196	0.35
619.53	0.35
619.864	0.35
620.198	0.35
620.532	0.35
620.866	0.35
621.2	0.34
621.533	0.34
621.867	0.34
622.201	0.34
622.534	0.34
622.868	0.34
623.201	0.33
623.534	0.33
623.868	0.33
624.201	0.33
624.534	0.33
624.868	0.33
625.201	0.33
625.534	0.33
625.867	0.32
626.2	0.32
626.533	0.32
626.865	0.32
627.198	0.32
627.531	0.31
627.864	0.31
628.196	0.31
628.529	0.31
628.862	0.31
629.194	0.31
629.527	0.3
629.859	0.3
630.191	0.3
630.524	0.3
630.856	0.3
631.188	0.3
631.52	0.3
631.852	0.29
632.184	0.29
632.516	0.29
632.848	0.29
633.18	0.29
633.512	0.28
633.844	0.28
634.175	0.28
634.507	0.28
634.839	0.27
635.17	0.28
635.502	0.28
635.833	0.27
636.165	0.27
636.496	0.27
636.827	0.27
637.159	0.27
637.49	0.26
637.821	0.26
638.152	0.26
638.483	0.26
638.814	0.26
639.145	0.26
639.476	0.25
639.807	0.25
640.137	0.25
640.468	0.25
640.799	0.24
641.129	0.24
641.46	0.24
641.791	0.24
642.121	0.23
642.451	0.23
642.782	0.23
643.112	0.23
643.442	0.23
643.773	0.23
644.103	0.23
644.433	0.23
644.763	0.23
645.093	0.23
645.423	0.22
645.753	0.22
646.082	0.22
646.412	0.23
646.742	0.22
647.072	0.22
647.401	0.22
647.731	0.22
648.06	0.22
648.39	0.22
648.719	0.22
649.048	0.22
649.378	0.22
649.707	0.22
650.036	0.21
650.365	0.21
650.694	0.21
651.023	0.21
651.352	0.21
651.681	0.21
652.01	0.21
652.339	0.21
652.668	0.21
652.996	0.21
653.325	0.2
653.654	0.2
653.982	0.2
654.311	0.2
654.639	0.2
654.967	0.2
655.296	0.2
655.624	0.2
655.952	0.2
656.28	0.2
656.609	0.2
656.937	0.2
657.265	0.19
657.593	0.05
657.92	0
658.248	0
658.576	0.01
658.904	0.1
659.231	0.18
659.559	0.2
659.887	0.2
660.214	0.19
660.542	0.19
660.869	0.19
661.196	0.19
661.524	0.19
661.851	0.19
662.178	0.19
662.505	0.19
662.832	0.19
663.159	0.19
663.486	0.19
663.813	0.18
664.14	0.18
664.467	0.18
664.794	0.18
665.12	0.18
665.447	0.18
665.774	0.18
666.1	0.18
666.427	0.18
666.753	0.18
667.079	0.18
667.406	0.17
667.732	0.17
668.058	0.17
668.384	0.17
668.71	0.17
669.036	0.17
669.362	0.17
669.688	0.17
670.014	0.17
670.34	0.17
670.666	0.17
670.991	0.16
671.317	0.16
671.643	0.16
671.968	0.16
672.294	0.16
672.619	0.16
672.945	0.16
673.27	0.16
673.595	0.15
673.92	0.15
674.246	0.15
674.571	0.15
674.896	0.15
675.221	0.15
675.546	0.15
675.87	0.15
676.195	0.14
676.52	0.15
676.845	0.14
677.169	0.14
677.494	0.14
677.819	0.14
678.143	0.14
678.468	0.14
678.792	0.14
679.116	0.14
679.44	0.13
679.765	0.13
680.089	0.13
680.413	0.12
680.737	0.12
681.061	0.12
681.385	0.12
681.709	0.12
682.033	0.12
682.356	0.12
682.68	0.12
683.004	0.12
683.327	0.11
683.651	0.11
683.974	0.11
684.298	0.11
684.621	0.11
684.944	0.11
685.268	0.11
685.591	0.11
685.914	0.1
686.237	0.1
686.56	0.1
686.883	0.1
687.206	0.1
687.529	0.1
687.852	0.09
688.175	0.1
688.497	0.1
688.82	0.1
689.142	0.09
689.465	0.09
689.787	0.09
690.11	0.09
690.432	0.09
690.755	0.09
691.077	0.09
691.399	0.09
691.721	0.08
692.043	0.08
692.365	0.08
692.687	0.08
693.009	0.08
693.331	0.08
693.653	0.07
693.974	0.07
694.296	0.07
694.618	0.07
694.939	0.07
695.261	0.07
695.582	0.07
695.904	0.07
696.225	0.07
696.546	0.07
696.868	0.07
697.189	0.07
697.51	0.07
697.831	0.07
698.152	0.07
698.473	0.07
698.794	0.06
699.114	0.06
699.435	0.05
699.756	0.06
700.077	0.06
700.397	0.06
700.718	0.06
701.038	0.06
701.359	0.06
701.679	0.06
701.999	0.06
702.32	0.06
702.64	0.06
702.96	0.06
703.28	0.06
703.6	0.05
703.92	0.05
704.24	0.05
704.56	0.05
704.879	0.05
705.199	0.05
705.519	0.05
705.838	0.05
706.158	0.06
706.478	0.06
706.797	0.06
707.116	0.05
707.436	0.05
707.755	0.05
708.074	0.05
708.393	0.05
708.712	0.04
709.031	0.04
709.35	0.04
709.669	0.04
709.988	0.04
710.307	0.04
710.626	0.04
710.944	0.05
711.263	0.05
711.582	0.05
711.9	0.05
712.219	0.05
712.537	0.05
712.855	0.05
713.174	0.05
713.492	0.05
713.81	0.05
714.128	0.05
714.446	0.05
714.764	0.04
715.082	0.04
715.4	0.05
715.718	0.04
716.035	0.04
716.353	0.05
716.671	0.05
716.988	0.05
717.306	0.05
717.623	0.05
717.941	0.05
718.258	0.05
718.575	0.05
718.893	0.06
719.21	0.05
719.527	0.05
719.844	0.05
720.161	0.05
720.478	0.05
720.795	0.05
721.112	0.06
721.428	0.05
721.745	0.06
722.062	0.05
722.378	0.06
722.695	0.05
723.011	0.05
723.328	0.05
723.644	0.06
723.96	0.06
724.276	0.06
724.593	0.06
724.909	0.06
725.225	0.05
725.541	0.06
725.857	0.05
726.173	0.06
726.488	0.06
726.804	0.06
727.12	0.06
727.435	0.05
727.751	0.05
728.067	0.05
728.382	0.05
728.697	0.06
729.013	0.06
729.328	0.06
729.643	0.06
729.958	0.05
730.273	0.05
730.588	0.05
730.903	0.05
731.218	0.05
731.533	0.05
731.848	0.05
732.163	0.05
732.477	0.05
732.792	0.05
733.107	0.04
733.421	0.05
733.736	0.05
734.05	0.05
734.364	0.05
734.678	0.05
734.993	0.05
735.307	0.05
735.621	0.05
735.935	0.05
736.249	0.05
736.563	0.05
736.877	0.05
737.19	0.05
737.504	0.05
737.818	0.05
738.131	0.05
738.445	0.05
738.758	0.05
739.072	0.05
739.385	0.05
739.698	0.05
740.012	0.06
740.325	0.05
740.638	0.05
740.951	0.05
741.264	0.05
741.577	0.05
741.89	0.05
742.203	0.05
742.515	0.05
742.828	0.05
743.141	0.05
743.453	0.05
743.766	0.05
744.078	0.04
744.391	0.05
744.703	0.04
745.015	0.05
745.327	0.05
745.639	0.05
745.952	0.04
746.264	0.04
746.575	0.05
746.887	0.04
747.199	0.04
747.511	0.04
747.823	0.04
748.134	0.04
748.446	0.04
748.757	0.04
749.069	0.04
749.38	0.04
749.692	0.04
750.003	0.03
750.314	0.03
750.625	0.03
750.936	0.03
751.248	0.03
751.559	0.03
751.869	0.03
752.18	0.03
752.491	0.03
752.802	0.03
753.112	0.03
753.423	0.03
753.734	0.03
754.044	0.03
754.355	0.03
754.665	0.03
754.975	0.03
755.285	0.03
755.596	0.03
755.906	0.03
756.216	0.02
756.526	0.03
756.836	0.03
757.146	0.02
757.455	0.03
757.765	0.02
758.075	0.02
758.385	0.02
758.694	0.02
759.004	0.02
759.313	0.02
759.622	0.02
759.932	0.02
760.241	0.03
760.55	0.03
760.859	0.03
761.168	0.02
761.477	0.02
761.786	0.02
762.095	0.02
762.404	0.02
762.713	0.02
763.021	0.02
763.33	0.02
763.639	0.02
763.947	0.02
764.256	0.02
764.564	0.02
764.872	0.02
765.181	0.02
765.489	0.02
765.797	0.02
766.105	0.02
766.413	0.02
766.721	0.02
767.029	0.02
767.337	0.02
767.644	0.02
767.952	0.02
768.26	0.02
768.567	0.02
768.875	0.02
769.182	0.02
769.49	0.02
769.797	0.02
770.104	0.02
770.411	0.02
770.718	0.02
771.026	0.02
771.333	0.02
771.639	0.02
771.946	0.02
772.253	0.02
772.56	0.02
772.867	0.02
773.173	0.02
773.48	0.02
773.786	0.02
774.093	0.02
774.399	0.02
774.705	0.02
775.012	0.02
775.318	0.02
775.624	0.02
775.93	0.02
776.236	0.02
776.542	0.02
776.848	0.02
777.154	0.02
777.459	0.02
777.765	0.02
778.071	0.02
778.376	0.02
778.682	0.02
778.987	0.02
779.292	0.02
779.598	0.02
779.903	0.02
780.208	0.02
780.513	0.02
780.818	0.02
781.123	0.02
781.428	0.02
781.733	0.02
782.038	0.01
782.343	0.02
782.647	0.01
782.952	0.01
783.256	0.01
783.561	0.01
783.865	0.01
784.17	0.01
784.474	0.02
784.778	0.01
785.082	0.01
785.386	0.01
785.69	0.01
785.994	0.01
786.298	0.01
786.602	0.02
786.906	0.02
787.209	0.02
787.513	0.02
787.817	0.02
788.12	0.02
788.424	0.03
788.727	0.02
789.03	0.02
789.333	0.02
789.637	0.02
789.94	0.02
790.243	0.02
790.546	0.03
790.849	0.02
791.152	0.02
791.454	0.02
791.757	0.02
792.06	0.02
792.362	0.03
792.665	0.02
792.967	0.02
793.27	0.02
793.572	0.03
793.874	0.03
794.177	0.02
794.479	0.02
794.781	0.02
795.083	0.02
795.385	0.02
795.687	0.03
795.989	0.03
796.29	0.03
796.592	0.02
796.894	0.03
797.195	0.03
797.497	0.03
797.798	0.03
798.1	0.02
798.401	0.02
798.702	0.02
799.003	0.02
799.304	0.03
799.605	0.03
799.906	0.03
800.207	0.02
800.508	0.02
800.809	0.03
801.11	0.03
801.41	0.03
801.711	0.02
802.011	0.03
802.312	0.03
802.612	0.02
802.913	0.02
803.213	0.02
803.513	0.02
803.813	0.02
804.113	0.02
804.413	0.03
804.713	0.03
805.013	0.03
805.313	0.03
805.613	0.03
805.912	0.03
806.212	0.03
806.511	0.03
806.811	0.03
807.11	0.03
807.41	0.03
807.709	0.03
808.008	0.03
808.307	0.03
808.606	0.03
808.905	0.03
809.204	0.03
809.503	0.03
809.802	0.03
810.101	0.03
810.399	0.03
810.698	0.03
810.997	0.03
811.295	0.03
811.593	0.03
811.892	0.03
812.19	0.03
812.488	0.03
812.786	0.03
813.084	0.03
813.383	0.03
813.68	0.04
813.978	0.03
814.276	0.03
814.574	0.04
814.872	0.03
815.169	0.03
815.467	0.03
815.764	0.03
816.062	0.03
816.359	0.03
816.656	0.03
816.954	0.03
817.251	0.03
817.548	0.03
817.845	0.03
818.142	0.04
818.439	0.04
818.735	0.04
819.032	0.04
819.329	0.04
819.626	0.04
819.922	0.04
820.219	0.05
820.515	0.04
820.811	0.05
821.108	0.04
821.404	0.04
821.7	0.04
821.996	0.04
822.292	0.05
822.588	0.04
822.884	0.05
823.18	0.05
823.475	0.05
823.771	0.05
824.067	0.05
824.362	0.05
824.658	0.05
824.953	0.05
825.249	0.04
825.544	0.04
825.839	0.05
826.134	0.04
826.429	0.04
826.724	0.04
827.019	0.04
827.314	0.04
827.609	0.05
827.904	0.04
828.198	0.04
828.493	0.05
828.787	0.05
829.082	0.05
829.376	0.05
829.671	0.06
829.965	0.06
830.259	0.06
830.553	0.06
830.847	0.06
831.141	0.05
831.435	0.06
831.729	0.05
832.023	0.05
832.317	0.06
832.61	0.05
832.904	0.06
833.197	0.06
833.491	0.05
833.784	0.05
834.077	0.06
834.371	0.06
834.664	0.06
834.957	0.06
835.25	0.05
835.543	0.05
835.836	0.06
836.129	0.06
836.421	0.06
836.714	0.05
837.007	0.06
837.299	0.06
837.592	0.06
837.884	0.06
838.177	0.05
838.469	0.06
838.761	0.05
839.053	0.06
839.345	0.05
839.637	0.05
839.929	0.06
840.221	0.06
840.513	0.06
840.805	0.06
841.096	0.06
841.388	0.07
841.68	0.06
841.971	0.05
842.262	0.06
842.554	0.06
842.845	0.06
843.136	0.05
843.427	0.06
843.718	0.06
844.009	0.06
844.3	0.05
844.591	0.06
844.882	0.06
845.173	0.07
845.463	0.06
845.754	0.07
846.044	0.07
846.335	0.06
846.625	0.06
846.915	0.06
847.206	0.06
847.496	0.06
847.786	0.06
848.076	0.06
848.366	0.06
848.656	0.06
848.945	0.06
849.235	0.06
849.525	0.06
849.814	0.06
850.104	0.05
850.393	0.07
850.683	0.06
850.972	0.06
851.261	0.06
851.551	0.06
851.84	0.07
852.129	0.07
852.418	0.07
852.707	0.08
852.995	0.07
853.284	0.06
853.573	0.07
853.862	0.05
854.15	0.07
854.439	0.07
854.727	0.06
855.015	0.07
855.304	0.07
855.592	0.06
855.88	0.06
856.168	0.06
856.456	0.06
856.744	0.06
857.032	0.06
857.32	0.07
857.607	0.07
857.895	0.07
858.183	0.07
858.47	0.06
858.757	0.08
859.045	0.07
859.332	0.07
859.619	0.08
859.907	0.08
860.194	0.06
860.481	0.09
860.768	0.08
861.054	0.05
861.341	0.06
861.628	0.09
861.915	0.07
862.201	0.08
862.488	0.08
862.774	0.09
863.061	0.07
863.347	0.08
863.633	0.09
863.919	0.06
864.205	0.06
864.491	0.09
864.777	0.07
865.063	0.04
865.349	0.09
865.635	0.1
865.92	0.08
866.206	0.08
866.492	0.07
866.777	0.09
867.062	0.1
867.348	0.08
867.633	0.06
867.918	0.07
868.203	0.06
868.488	0.08
868.773	0.09
869.058	0.12
869.343	0.08
869.628	0.08
869.912	0.07
870.197	0.07
870.482	0.05
870.766	0.07
871.05	0.09
871.335	0.09
871.619	0.07
871.903	0.09
872.187	0.06
872.471	0.05
872.755	0.07
873.039	0.05
873.323	0.09
873.607	0.09
873.89	0.08
874.174	0.08
874.458	0.1
874.741	0.03
875.024	0.08
875.308	0.08
875.591	0.11
875.874	0.06
876.157	-0.01
876.44	0.03
876.723	0.07
877.006	0.04
877.289	0.02
877.572	0.09
877.854	0.04
878.137	0.04
878.42	0.01
878.702	0.01
878.984	0.17
879.267	0.12
879.549	0.06
879.831	0.06
880.113	-0.03
880.395	0.1
880.677	0.01
880.959	0.04
