Data from Rubpy_BV_1800_EDTA_Buffered_Absorbance_14-50-48-796.txt Node
Date: Wed Jul 01 14:50:48 BST 2026
User: fpm-admin
Spectrometer: OFX00224
Trigger mode: 0
Integration Time (sec): 7.000000E-2
Scans to average: 3
Nonlinearity correction enabled: false
Boxcar width: 0
Storing dark spectrum: false
XAxis mode: Wavelengths
Number of Pixels in Spectrum: 2136
>>>>>Begin Spectral Data<<<<<
154.91	-0.33
155.289	-0.04
155.669	-0.88
156.048	-0.51
156.428	0.1
156.807	-0
157.186	-0
157.566	-0.23
157.945	-0
158.325	-0
158.704	0.9
159.083	-0
159.462	-0
159.842	-0.36
160.221	-0.9
160.6	-0.26
160.979	-0.37
161.359	0.15
161.738	-0
162.117	-0.25
162.496	-0.32
162.875	0.03
163.254	0.36
163.633	-0
164.012	-0.24
164.391	-0.89
164.77	-0.4
165.149	-0
165.528	-1.2
165.907	-0.54
166.286	-0.15
166.665	-0.03
167.044	0.15
167.423	0.87
167.802	-0
168.181	-0.26
168.559	-0
168.938	-0.59
169.317	1.28
169.696	-0
170.074	-0.36
170.453	0.48
170.832	-0.46
171.21	-0.64
171.589	-0
171.968	-0.13
172.346	0.05
172.725	0.06
173.103	0.14
173.482	0.35
173.861	-0
174.239	0.28
174.617	-0.3
174.996	0.8
175.374	-0.16
175.753	-0
176.131	-0
176.51	-0.18
176.888	-0
177.266	1.19
177.645	-0.06
178.023	0.15
178.401	0.07
178.779	-0.15
179.158	-0
179.536	-0.35
179.914	0.57
180.292	0.6
180.67	-0
181.048	-0.3
181.427	-0
181.805	-0.99
182.183	-1.23
182.561	-0
182.939	-0
183.317	-0
183.695	0.25
184.073	-0
184.451	0.09
184.829	0.44
185.206	-0.38
185.584	0.43
185.962	-0
186.34	0.05
186.718	-0.36
187.096	-0.54
187.473	-0.19
187.851	-0
188.229	-0
188.607	0
188.984	0.06
189.362	0.01
189.74	0.08
190.117	-0.01
190.495	0.08
190.872	0.18
191.25	0.04
191.627	0.05
192.005	0.07
192.382	-0.12
192.76	-0.08
193.137	0.1
193.515	0.05
193.892	0.06
194.269	0.02
194.647	0.06
195.024	-0.01
195.401	-0.03
195.779	0.15
196.156	0
196.533	0.04
196.91	-0.04
197.288	0.01
197.665	0.1
198.042	-0.09
198.419	0.07
198.796	-0.01
199.173	0.11
199.55	0.03
199.927	0.07
200.304	0.11
200.681	0.1
201.058	-0.05
201.435	0.07
201.812	0.07
202.189	0.04
202.566	0.16
202.943	0.04
203.32	0.08
203.697	0.09
204.073	0.07
204.45	0.11
204.827	0.13
205.204	0.1
205.58	0.06
205.957	0.13
206.334	-0
206.71	0.15
207.087	0.11
207.464	-0.05
207.84	0.11
208.217	0.05
208.593	0.1
208.97	0.01
209.346	0.14
209.723	0.07
210.099	0.03
210.476	0.02
210.852	-0.05
211.228	0.01
211.605	0.07
211.981	0.08
212.357	0.04
212.733	0.06
213.11	0.06
213.486	0.02
213.862	0.07
214.238	0.14
214.614	0.06
214.991	0.14
215.367	0.09
215.743	0.03
216.119	0.02
216.495	0.11
216.871	0.1
217.247	0.06
217.623	0.05
217.999	-0.05
218.375	0.05
218.751	0.08
219.127	0.14
219.502	0.07
219.878	0.02
220.254	0.02
220.63	0.01
221.006	0.12
221.381	0.07
221.757	-0.04
222.133	0.03
222.508	0.01
222.884	0.04
223.26	-0
223.635	0.1
224.011	0
224.386	0.03
224.762	0.07
225.137	0.05
225.513	-0.02
225.888	0.1
226.264	0.01
226.639	0.04
227.014	0.1
227.39	0.16
227.765	0.07
228.14	0.1
228.516	0.18
228.891	0.07
229.266	-0.03
229.641	0.03
230.017	0.03
230.392	0.1
230.767	0.06
231.142	0.09
231.517	-0.02
231.892	0.01
232.267	0.03
232.642	0.11
233.017	0.13
233.392	0.01
233.767	0.08
234.142	0.08
234.517	0.14
234.892	0.02
235.267	0.01
235.641	0.06
236.016	0.03
236.391	0.01
236.766	0.05
237.14	0.05
237.515	0.12
237.89	0.12
238.264	0.04
238.639	-0.04
239.014	0.11
239.388	0.08
239.763	0.09
240.137	0.1
240.512	-0.02
240.886	0.1
241.261	0.16
241.635	0
242.009	0.13
242.384	0.06
242.758	0.06
243.132	0.09
243.507	0.06
243.881	0.04
244.255	0.01
244.629	0.12
245.004	0.04
245.378	0.09
245.752	0.12
246.126	0.11
246.5	-0.01
246.874	0.12
247.248	0.05
247.622	0.08
247.996	0.02
248.37	0.05
248.744	0.02
249.118	0.01
249.492	0.07
249.866	0.05
250.24	0.08
250.613	0.04
250.987	0.07
251.361	0.09
251.735	0.05
252.108	0.01
252.482	0.02
252.856	0.06
253.229	0.05
253.603	0.03
253.977	0.09
254.35	0.01
254.724	0.09
255.097	0.04
255.471	0.02
255.844	0.06
256.218	0.05
256.591	-0.01
256.964	0.04
257.338	0.03
257.711	0.04
258.084	-0.04
258.458	0.1
258.831	0.15
259.204	0.07
259.577	0.08
259.95	0.06
260.323	0.04
260.697	0.12
261.07	0.08
261.443	0.02
261.816	0.01
262.189	0.04
262.562	0.13
262.935	0.05
263.308	-0.03
263.68	0.08
264.053	-0.03
264.426	0.05
264.799	0.06
265.172	0.07
265.545	-0.01
265.917	0.09
266.29	0.09
266.663	0.14
267.035	0.02
267.408	0.06
267.781	0.16
268.153	0.04
268.526	0.04
268.898	0.08
269.271	0.05
269.643	0.12
270.016	0.02
270.388	0.08
270.76	0.12
271.133	0.06
271.505	0.07
271.877	0.05
272.25	0.11
272.622	0.05
272.994	0.05
273.366	0.11
273.739	0.02
274.111	0.03
274.483	0.09
274.855	0.05
275.227	0.01
275.599	0.04
275.971	0.06
276.343	0.07
276.715	0.07
277.087	0.04
277.459	-0.01
277.831	0.06
278.203	0.08
278.574	0.06
278.946	0.06
279.318	0.02
279.69	0.15
280.061	0.04
280.433	0.09
280.805	0.09
281.176	0.04
281.548	0.05
281.92	0.01
282.291	0.04
282.663	0.06
283.034	0.03
283.406	0
283.777	0.09
284.148	0.12
284.52	0.05
284.891	0.01
285.262	0.03
285.634	0.06
286.005	0.06
286.376	0.02
286.747	0.08
287.119	0.05
287.49	0.02
287.861	-0.01
288.232	0.09
288.603	0.1
288.974	0.04
289.345	0.04
289.716	0.06
290.087	0.02
290.458	0.05
290.829	0.01
291.2	0.05
291.571	0.03
291.941	0.1
292.312	0.08
292.683	0.07
293.054	0.07
293.424	0.08
293.795	0.06
294.166	0.07
294.536	0.02
294.907	0.07
295.277	0.06
295.648	0.06
296.018	0.08
296.389	0.03
296.759	0.02
297.13	0.03
297.5	0.11
297.871	0.04
298.241	0.09
298.611	0.1
298.981	0.07
299.352	0.08
299.722	0.08
300.092	0.06
300.462	0.11
300.832	0.08
301.202	0.09
301.573	0.07
301.943	0.01
302.313	0.07
302.683	0.04
303.053	0.06
303.422	0.06
303.792	0.03
304.162	0.07
304.532	0.04
304.902	0.04
305.272	0.12
305.641	0.06
306.011	0.07
306.381	0.07
306.75	0.04
307.12	0.05
307.49	0.06
307.859	0.06
308.229	0.05
308.598	0.06
308.968	0.03
309.337	0.03
309.707	0.05
310.076	0.03
310.445	0.06
310.815	0.05
311.184	0.03
311.553	0.03
311.923	0.02
312.292	0.04
312.661	0.04
313.03	0.02
313.399	0.02
313.768	0.01
314.137	0.02
314.506	0.05
314.875	0.03
315.244	0.04
315.613	0.02
315.982	0.04
316.351	0.05
316.72	0.05
317.089	0.03
317.458	0.04
317.826	0.04
318.195	0.04
318.564	0.04
318.933	0.03
319.301	0.05
319.67	0.04
320.038	0.04
320.407	0.04
320.775	0.04
321.144	0.05
321.512	0.03
321.881	0.04
322.249	0.04
322.618	0.02
322.986	0.03
323.354	0.03
323.723	0.04
324.091	0.04
324.459	0.04
324.827	0.04
325.195	0.05
325.564	0.04
325.932	0.04
326.3	0.05
326.668	0.05
327.036	0.04
327.404	0.04
327.772	0.04
328.14	0.04
328.508	0.04
328.875	0.04
329.243	0.05
329.611	0.05
329.979	0.04
330.346	0.04
330.714	0.04
331.082	0.04
331.449	0.05
331.817	0.04
332.185	0.05
332.552	0.05
332.92	0.05
333.287	0.05
333.655	0.05
334.022	0.05
334.389	0.05
334.757	0.05
335.124	0.05
335.491	0.06
335.859	0.06
336.226	0.05
336.593	0.05
336.96	0.06
337.327	0.06
337.695	0.06
338.062	0.06
338.429	0.06
338.796	0.06
339.163	0.06
339.53	0.06
339.897	0.07
340.263	0.07
340.63	0.07
340.997	0.07
341.364	0.07
341.731	0.07
342.097	0.07
342.464	0.08
342.831	0.07
343.197	0.07
343.564	0.08
343.931	0.08
344.297	0.08
344.664	0.08
345.03	0.09
345.396	0.08
345.763	0.09
346.129	0.09
346.496	0.09
346.862	0.09
347.228	0.09
347.594	0.09
347.961	0.09
348.327	0.1
348.693	0.1
349.059	0.09
349.425	0.1
349.791	0.1
350.157	0.1
350.523	0.1
350.889	0.11
351.255	0.1
351.621	0.1
351.987	0.1
352.353	0.11
352.719	0.11
353.084	0.11
353.45	0.12
353.816	0.11
354.181	0.11
354.547	0.12
354.913	0.12
355.278	0.12
355.644	0.12
356.009	0.12
356.375	0.13
356.74	0.12
357.106	0.13
357.471	0.13
357.836	0.13
358.202	0.14
358.567	0.14
358.932	0.14
359.297	0.14
359.663	0.14
360.028	0.15
360.393	0.15
360.758	0.15
361.123	0.16
361.488	0.16
361.853	0.16
362.218	0.16
362.583	0.17
362.948	0.17
363.312	0.17
363.677	0.17
364.042	0.17
364.407	0.17
364.772	0.18
365.136	0.17
365.501	0.17
365.865	0.19
366.23	0.18
366.595	0.18
366.959	0.19
367.324	0.18
367.688	0.19
368.052	0.19
368.417	0.19
368.781	0.2
369.145	0.2
369.51	0.2
369.874	0.2
370.238	0.2
370.602	0.21
370.967	0.21
371.331	0.21
371.695	0.22
372.059	0.22
372.423	0.21
372.787	0.22
373.151	0.22
373.515	0.22
373.878	0.22
374.242	0.22
374.606	0.21
374.97	0.21
375.334	0.22
375.697	0.21
376.061	0.21
376.425	0.21
376.788	0.21
377.152	0.21
377.515	0.2
377.879	0.2
378.242	0.2
378.606	0.2
378.969	0.19
379.333	0.2
379.696	0.19
380.059	0.2
380.422	0.19
380.786	0.19
381.149	0.19
381.512	0.19
381.875	0.19
382.238	0.19
382.601	0.19
382.964	0.19
383.327	0.19
383.69	0.19
384.053	0.19
384.416	0.18
384.779	0.19
385.142	0.19
385.504	0.19
385.867	0.2
386.23	0.2
386.593	0.2
386.955	0.2
387.318	0.2
387.68	0.2
388.043	0.21
388.405	0.21
388.768	0.21
389.13	0.21
389.493	0.21
389.855	0.21
390.217	0.21
390.58	0.21
390.942	0.21
391.304	0.21
391.666	0.21
392.028	0.21
392.391	0.2
392.753	0.2
393.115	0.21
393.477	0.21
393.839	0.2
394.201	0.2
394.563	0.2
394.924	0.2
395.286	0.2
395.648	0.2
396.01	0.21
396.371	0.21
396.733	0.22
397.095	0.21
397.456	0.23
397.818	0.23
398.18	0.23
398.541	0.24
398.903	0.25
399.264	0.26
399.625	0.27
399.987	0.27
400.348	0.27
400.709	0.28
401.071	0.29
401.432	0.29
401.793	0.29
402.154	0.29
402.515	0.29
402.876	0.28
403.238	0.28
403.599	0.27
403.96	0.26
404.32	0.25
404.681	0.24
405.042	0.23
405.403	0.22
405.764	0.21
406.125	0.19
406.485	0.19
406.846	0.18
407.207	0.17
407.567	0.15
407.928	0.15
408.288	0.14
408.649	0.13
409.009	0.13
409.37	0.11
409.73	0.11
410.091	0.1
410.451	0.1
410.811	0.09
411.171	0.09
411.532	0.08
411.892	0.08
412.252	0.07
412.612	0.07
412.972	0.07
413.332	0.06
413.692	0.06
414.052	0.06
414.412	0.06
414.772	0.05
415.132	0.05
415.492	0.05
415.851	0.05
416.211	0.03
416.571	0.05
416.931	0.04
417.29	0.04
417.65	0.04
418.009	0.04
418.369	0.04
418.728	0.04
419.088	0.04
419.447	0.04
419.807	0.04
420.166	0.03
420.525	0.03
420.884	0.03
421.244	0.03
421.603	0.03
421.962	0.03
422.321	0.03
422.68	0.03
423.039	0.03
423.398	0.02
423.757	0.03
424.116	0.03
424.475	0.03
424.834	0.03
425.193	0.02
425.551	0.03
425.91	0.02
426.269	0.03
426.628	0.03
426.986	0.03
427.345	0.02
427.703	0.02
428.062	0.02
428.42	0.02
428.779	0.03
429.137	0.02
429.496	0.02
429.854	0.03
430.212	0.03
430.57	0.02
430.929	0.01
431.287	0.02
431.645	0.02
432.003	0.02
432.361	0.02
432.719	0.02
433.077	0.02
433.435	0.02
433.793	0.02
434.151	0.02
434.509	0.02
434.866	0.01
435.224	0.02
435.582	0.01
435.94	0.02
436.297	0.02
436.655	0.02
437.012	0.02
437.37	0.01
437.727	0.02
438.085	0.02
438.442	0.02
438.8	0.01
439.157	0.01
439.514	0.01
439.872	0.02
440.229	0.01
440.586	0.01
440.943	0.01
441.3	0.01
441.657	0.02
442.014	0.01
442.371	0.01
442.728	0.01
443.085	0.01
443.442	0.01
443.799	0.01
444.156	0.01
444.513	0.01
444.869	0.01
445.226	0.01
445.583	0.01
445.939	0.01
446.296	0.01
446.652	0.01
447.009	0
447.365	0.01
447.722	0.01
448.078	0
448.434	0.01
448.791	0.01
449.147	0.01
449.503	0
449.859	0
450.215	0
450.571	-0
450.928	0.01
451.284	0
451.64	-0
451.995	-0
452.351	-0
452.707	-0.01
453.063	-0
453.419	-0
453.775	-0.01
454.13	-0.01
454.486	-0.01
454.842	-0.01
455.197	-0.01
455.553	-0.02
455.908	-0.02
456.264	-0.02
456.619	-0.02
456.975	-0.02
457.33	-0.02
457.685	-0.03
458.04	-0.03
458.396	-0.03
458.751	-0.03
459.106	-0.04
459.461	-0.04
459.816	-0.05
460.171	-0.04
460.526	-0.04
460.881	-0.05
461.236	-0.06
461.591	-0.05
461.946	-0.06
462.301	-0.06
462.655	-0.06
463.01	-0.05
463.365	-0.07
463.719	-0.08
464.074	-0.07
464.428	-0.09
464.783	-0.09
465.137	-0.08
465.492	-0.08
465.846	-0.09
466.201	-0.09
466.555	-0.09
466.909	-0.09
467.263	-0.08
467.618	-0.09
467.972	-0.08
468.326	-0.08
468.68	-0.09
469.034	-0.09
469.388	-0.1
469.742	-0.1
470.096	-0.09
470.45	-0.09
470.804	-0.09
471.157	-0.09
471.511	-0.09
471.865	-0.09
472.218	-0.09
472.572	-0.08
472.926	-0.08
473.279	-0.08
473.633	-0.08
473.986	-0.07
474.34	-0.07
474.693	-0.07
475.046	-0.06
475.4	-0.06
475.753	-0.05
476.106	-0.05
476.459	-0.04
476.812	-0.04
477.165	-0.04
477.519	-0.03
477.872	-0.03
478.224	-0.03
478.577	-0.03
478.93	-0.02
479.283	-0.02
479.636	-0.02
479.989	-0.01
480.341	-0.01
480.694	-0.01
481.047	-0.01
481.399	-0
481.752	-0
482.104	0
482.457	0
482.809	0
483.162	0.01
483.514	0
483.866	0
484.219	0.01
484.571	0.01
484.923	0
485.275	0.01
485.627	0.01
485.979	0.01
486.331	0.01
486.683	0.02
487.035	0.02
487.387	0.02
487.739	0.02
488.091	0.02
488.443	0.02
488.794	0.02
489.146	0.02
489.498	0.02
489.849	0.03
490.201	0.02
490.552	0.03
490.904	0.02
491.255	0.03
491.607	0.03
491.958	0.03
492.309	0.03
492.661	0.03
493.012	0.03
493.363	0.03
493.714	0.03
494.065	0.03
494.416	0.03
494.767	0.03
495.118	0.03
495.469	0.03
495.82	0.03
496.171	0.04
496.522	0.03
496.872	0.04
497.223	0.04
497.574	0.04
497.924	0.04
498.275	0.04
498.626	0.04
498.976	0.04
499.327	0.04
499.677	0.04
500.027	0.05
500.378	0.04
500.728	0.05
501.078	0.05
501.428	0.04
501.779	0.05
502.129	0.04
502.479	0.04
502.829	0.05
503.179	0.05
503.529	0.05
503.879	0.05
504.229	0.05
504.578	0.05
504.928	0.05
505.278	0.05
505.628	0.05
505.977	0.05
506.327	0.05
506.676	0.05
507.026	0.06
507.375	0.05
507.725	0.05
508.074	0.05
508.424	0.06
508.773	0.06
509.122	0.05
509.471	0.06
509.82	0.06
510.17	0.06
510.519	0.06
510.868	0.06
511.217	0.06
511.566	0.06
511.915	0.06
512.263	0.06
512.612	0.06
512.961	0.06
513.31	0.06
513.659	0.06
514.007	0.07
514.356	0.06
514.704	0.07
515.053	0.06
515.401	0.07
515.75	0.07
516.098	0.06
516.447	0.06
516.795	0.07
517.143	0.07
517.491	0.07
517.839	0.07
518.188	0.07
518.536	0.07
518.884	0.07
519.232	0.07
519.58	0.07
519.928	0.07
520.275	0.07
520.623	0.07
520.971	0.07
521.319	0.07
521.666	0.07
522.014	0.07
522.362	0.07
522.709	0.08
523.057	0.07
523.404	0.07
523.752	0.08
524.099	0.08
524.446	0.08
524.794	0.07
525.141	0.08
525.488	0.08
525.835	0.08
526.182	0.08
526.529	0.08
526.876	0.08
527.223	0.08
527.57	0.08
527.917	0.08
528.264	0.08
528.611	0.08
528.958	0.07
529.304	0.08
529.651	0.08
529.998	0.08
530.344	0.08
530.691	0.08
531.037	0.08
531.384	0.08
531.73	0.08
532.076	0.08
532.423	0.08
532.769	0.08
533.115	0.08
533.461	0.08
533.807	0.08
534.154	0.08
534.5	0.09
534.846	0.09
535.192	0.09
535.537	0.08
535.883	0.09
536.229	0.08
536.575	0.09
536.921	0.08
537.266	0.09
537.612	0.09
537.957	0.08
538.303	0.09
538.649	0.09
538.994	0.09
539.339	0.09
539.685	0.09
540.03	0.09
540.375	0.09
540.721	0.09
541.066	0.1
541.411	0.09
541.756	0.09
542.101	0.09
542.446	0.09
542.791	0.09
543.136	0.09
543.481	0.09
543.825	0.09
544.17	0.09
544.515	0.1
544.86	0.09
545.204	0.09
545.549	0.1
545.893	0.09
546.238	0.09
546.582	0.09
546.927	0.1
547.271	0.09
547.615	0.1
547.96	0.1
548.304	0.1
548.648	0.1
548.992	0.09
549.336	0.09
549.68	0.1
550.024	0.1
550.368	0.1
550.712	0.1
551.056	0.1
551.4	0.1
551.743	0.1
552.087	0.1
552.431	0.1
552.774	0.1
553.118	0.1
553.462	0.1
553.805	0.1
554.148	0.1
554.492	0.1
554.835	0.1
555.178	0.1
555.522	0.1
555.865	0.1
556.208	0.1
556.551	0.1
556.894	0.1
557.237	0.1
557.58	0.1
557.923	0.1
558.266	0.1
558.609	0.1
558.952	0.1
559.294	0.11
559.637	0.1
559.98	0.1
560.322	0.1
560.665	0.1
561.007	0.1
561.35	0.11
561.692	0.1
562.034	0.1
562.377	0.1
562.719	0.1
563.061	0.1
563.403	0.1
563.745	0.1
564.088	0.1
564.43	0.1
564.772	0.1
565.113	0.1
565.455	0.1
565.797	0.1
566.139	0.1
566.481	0.1
566.822	0.1
567.164	0.1
567.506	0.1
567.847	0.1
568.189	0.1
568.53	0.1
568.872	0.11
569.213	0.1
569.554	0.1
569.895	0.1
570.237	0.1
570.578	0.1
570.919	0.1
571.26	0.1
571.601	0.1
571.942	0.1
572.283	0.1
572.624	0.1
572.965	0.1
573.306	0.1
573.646	0.1
573.987	0.1
574.328	0.1
574.668	0.1
575.009	0.1
575.349	0.09
575.69	0.1
576.03	0.1
576.37	0.09
576.711	0.09
577.051	0.09
577.391	0.09
577.731	0.1
578.072	0.09
578.412	0.1
578.752	0.09
579.092	0.09
579.431	0.08
579.771	0.07
580.111	0.07
580.451	0.08
580.791	0.09
581.13	0.1
581.47	0.1
581.81	0.1
582.149	0.1
582.489	0.09
582.828	0.09
583.167	0.06
583.507	0.03
583.846	0.03
584.185	0.06
584.525	0.08
584.864	0.09
585.203	0.1
585.542	0.1
585.881	0.1
586.22	0.1
586.559	0.09
586.898	0.09
587.236	0.08
587.575	0.08
587.914	0.09
588.252	0.09
588.591	0.09
588.93	0.1
589.268	0.09
589.607	0.09
589.945	0.09
590.283	0.1
590.622	0.1
590.96	0.1
591.298	0.1
591.636	0.1
591.974	0.1
592.313	0.1
592.651	0.1
592.989	0.1
593.326	0.1
593.664	0.1
594.002	0.1
594.34	0.1
594.678	0.1
595.015	0.09
595.353	0.09
595.691	0.1
596.028	0.1
596.366	0.1
596.703	0.1
597.04	0.1
597.378	0.1
597.715	0.1
598.052	0.1
598.389	0.1
598.726	0.1
599.064	0.11
599.401	0.11
599.738	0.11
600.074	0.1
600.411	0.1
600.748	0.1
601.085	0.1
601.422	0.1
601.758	0.1
602.095	0.1
602.432	0.1
602.768	0.1
603.105	0.1
603.441	0.1
603.777	0.1
604.114	0.1
604.45	0.11
604.786	0.11
605.122	0.1
605.459	0.11
605.795	0.1
606.131	0.1
606.467	0.11
606.803	0.1
607.139	0.1
607.474	0.1
607.81	0.1
608.146	0.1
608.482	0.1
608.817	0.1
609.153	0.1
609.488	0.1
609.824	0.1
610.159	0.1
610.495	0.1
610.83	0.1
611.165	0.1
611.5	0.1
611.836	0.1
612.171	0.1
612.506	0.1
612.841	0.1
613.176	0.1
613.511	0.1
613.845	0.1
614.18	0.1
614.515	0.1
614.85	0.1
615.184	0.1
615.519	0.1
615.854	0.1
616.188	0.1
616.523	0.09
616.857	0.1
617.191	0.1
617.526	0.1
617.86	0.1
618.194	0.1
618.528	0.1
618.862	0.1
619.196	0.1
619.53	0.1
619.864	0.1
620.198	0.1
620.532	0.1
620.866	0.1
621.2	0.1
621.533	0.1
621.867	0.1
622.201	0.1
622.534	0.1
622.868	0.1
623.201	0.09
623.534	0.09
623.868	0.09
624.201	0.09
624.534	0.09
624.868	0.09
625.201	0.09
625.534	0.09
625.867	0.09
626.2	0.09
626.533	0.09
626.865	0.09
627.198	0.09
627.531	0.09
627.864	0.09
628.196	0.08
628.529	0.09
628.862	0.09
629.194	0.08
629.527	0.08
629.859	0.08
630.191	0.08
630.524	0.08
630.856	0.08
631.188	0.08
631.52	0.08
631.852	0.08
632.184	0.08
632.516	0.08
632.848	0.08
633.18	0.08
633.512	0.08
633.844	0.08
634.175	0.07
634.507	0.08
634.839	0.08
635.17	0.07
635.502	0.08
635.833	0.08
636.165	0.08
636.496	0.07
636.827	0.08
637.159	0.07
637.49	0.07
637.821	0.07
638.152	0.07
638.483	0.07
638.814	0.07
639.145	0.07
639.476	0.07
639.807	0.07
640.137	0.07
640.468	0.07
640.799	0.07
641.129	0.06
641.46	0.06
641.791	0.06
642.121	0.06
642.451	0.06
642.782	0.06
643.112	0.06
643.442	0.06
643.773	0.06
644.103	0.06
644.433	0.06
644.763	0.06
645.093	0.06
645.423	0.06
645.753	0.06
646.082	0.06
646.412	0.06
646.742	0.06
647.072	0.06
647.401	0.06
647.731	0.06
648.06	0.06
648.39	0.06
648.719	0.06
649.048	0.07
649.378	0.06
649.707	0.06
650.036	0.06
650.365	0.06
650.694	0.06
651.023	0.06
651.352	0.06
651.681	0.06
652.01	0.05
652.339	0.06
652.668	0.06
652.996	0.06
653.325	0.06
653.654	0.06
653.982	0.06
654.311	0.06
654.639	0.06
654.967	0.06
655.296	0.06
655.624	0.06
655.952	0.06
656.28	0.05
656.609	0.06
656.937	0.06
657.265	0.05
657.593	0
657.92	0
658.248	0
658.576	0
658.904	0
659.231	0.05
659.559	0.06
659.887	0.06
660.214	0.06
660.542	0.06
660.869	0.06
661.196	0.05
661.524	0.05
661.851	0.06
662.178	0.05
662.505	0.05
662.832	0.05
663.159	0.06
663.486	0.06
663.813	0.05
664.14	0.05
664.467	0.05
664.794	0.05
665.12	0.05
665.447	0.05
665.774	0.05
666.1	0.05
666.427	0.05
666.753	0.05
667.079	0.05
667.406	0.05
667.732	0.05
668.058	0.05
668.384	0.05
668.71	0.05
669.036	0.05
669.362	0.05
669.688	0.05
670.014	0.05
670.34	0.05
670.666	0.05
670.991	0.05
671.317	0.05
671.643	0.05
671.968	0.05
672.294	0.05
672.619	0.04
672.945	0.05
673.27	0.04
673.595	0.04
673.92	0.04
674.246	0.04
674.571	0.04
674.896	0.04
675.221	0.04
675.546	0.04
675.87	0.04
676.195	0.04
676.52	0.04
676.845	0.04
677.169	0.04
677.494	0.04
677.819	0.04
678.143	0.04
678.468	0.04
678.792	0.04
679.116	0.04
679.44	0.04
679.765	0.04
680.089	0.04
680.413	0.03
680.737	0.04
681.061	0.03
681.385	0.03
681.709	0.03
682.033	0.03
682.356	0.03
682.68	0.03
683.004	0.03
683.327	0.03
683.651	0.03
683.974	0.03
684.298	0.03
684.621	0.03
684.944	0.03
685.268	0.03
685.591	0.03
685.914	0.03
686.237	0.02
686.56	0.03
686.883	0.03
687.206	0.03
687.529	0.03
687.852	0.03
688.175	0.03
688.497	0.03
688.82	0.03
689.142	0.03
689.465	0.02
689.787	0.03
690.11	0.02
690.432	0.02
690.755	0.03
691.077	0.03
691.399	0.02
691.721	0.02
692.043	0.02
692.365	0.02
692.687	0.02
693.009	0.02
693.331	0.02
693.653	0.02
693.974	0.02
694.296	0.02
694.618	0.02
694.939	0.02
695.261	0.02
695.582	0.02
695.904	0.02
696.225	0.02
696.546	0.02
696.868	0.02
697.189	0.02
697.51	0.02
697.831	0.02
698.152	0.02
698.473	0.02
698.794	0.01
699.114	0.01
699.435	0.01
699.756	0.01
700.077	0.01
700.397	0.01
700.718	0.02
701.038	0.01
701.359	0.02
701.679	0.02
701.999	0.02
702.32	0.01
702.64	0.01
702.96	0.01
703.28	0.01
703.6	0.01
703.92	0.01
704.24	0.01
704.56	0.01
704.879	0.01
705.199	0.01
705.519	0.01
705.838	0.01
706.158	0.01
706.478	0.02
706.797	0.02
707.116	0.02
707.436	0.01
707.755	0.01
708.074	0.01
708.393	0.01
708.712	0.01
709.031	0.01
709.35	0
709.669	0.01
709.988	0.01
710.307	0.01
710.626	0.01
710.944	0.01
711.263	0.01
711.582	0.01
711.9	0.01
712.219	0.01
712.537	0.01
712.855	0.01
713.174	0.01
713.492	0.01
713.81	0.01
714.128	0.01
714.446	0.01
714.764	0.01
715.082	0.01
715.4	0.01
715.718	0.01
716.035	0.01
716.353	0.01
716.671	0.01
716.988	0.01
717.306	0.01
717.623	0.01
717.941	0.01
718.258	0.02
718.575	0.01
718.893	0.02
719.21	0.01
719.527	0.01
719.844	0.01
720.161	0.01
720.478	0.01
720.795	0.01
721.112	0.01
721.428	0.02
721.745	0.02
722.062	0.01
722.378	0.01
722.695	0.01
723.011	0.01
723.328	0.01
723.644	0.01
723.96	0.01
724.276	0.01
724.593	0.01
724.909	0.01
725.225	0.02
725.541	0.01
725.857	0.01
726.173	0.01
726.488	0.01
726.804	0.01
727.12	0.01
727.435	0.01
727.751	0.01
728.067	0.01
728.382	0.01
728.697	0.02
729.013	0.02
729.328	0.02
729.643	0.01
729.958	0.02
730.273	0.01
730.588	0.01
730.903	0.01
731.218	0.01
731.533	0.01
731.848	0.01
732.163	0.01
732.477	0.01
732.792	0.01
733.107	0.01
733.421	0.01
733.736	0.01
734.05	0.01
734.364	0.01
734.678	0.01
734.993	0.01
735.307	0.01
735.621	0.01
735.935	0.01
736.249	0.01
736.563	0.01
736.877	0.02
737.19	0.02
737.504	0.01
737.818	0.01
738.131	0.02
738.445	0.02
738.758	0.02
739.072	0.02
739.385	0.02
739.698	0.02
740.012	0.02
740.325	0.02
740.638	0.02
740.951	0.02
741.264	0.01
741.577	0.01
741.89	0.01
742.203	0.01
742.515	0.01
742.828	0.01
743.141	0.01
743.453	0.01
743.766	0.01
744.078	0.01
744.391	0.01
744.703	0.01
745.015	0.01
745.327	0.01
745.639	0.01
745.952	0.01
746.264	0.01
746.575	0.01
746.887	0.01
747.199	0.01
747.511	0.01
747.823	0.01
748.134	0.01
748.446	0.01
748.757	0.01
749.069	0.01
749.38	0.01
749.692	0.01
750.003	0.01
750.314	0
750.625	0
750.936	0.01
751.248	0
751.559	0
751.869	0
752.18	0.01
752.491	0
752.802	0.01
753.112	0.01
753.423	0.01
753.734	0.01
754.044	0
754.355	0
754.665	0
754.975	0
755.285	0
755.596	0
755.906	0
756.216	0
756.526	0
756.836	0
757.146	0
757.455	0
757.765	0
758.075	0
758.385	0
758.694	0.01
759.004	0
759.313	0
759.622	0
759.932	0.01
760.241	0.01
760.55	0.01
760.859	0
761.168	0.01
761.477	0
761.786	0
762.095	0
762.404	0
762.713	0.01
763.021	0
763.33	0
763.639	0
763.947	0
764.256	0
764.564	0
764.872	0
765.181	0
765.489	0
765.797	0
766.105	0
766.413	0
766.721	0
767.029	0
767.337	0
767.644	0
767.952	0
768.26	0.01
768.567	0
768.875	0
769.182	0
769.49	0
769.797	0.01
770.104	0
770.411	0
770.718	0
771.026	0
771.333	0
771.639	-0
771.946	-0
772.253	0
772.56	-0
772.867	0
773.173	0
773.48	0
773.786	0
774.093	0
774.399	0
774.705	0
775.012	0
775.318	0
775.624	0
775.93	0
776.236	0
776.542	0
776.848	0.01
777.154	0
777.459	0
777.765	0
778.071	0
778.376	0
778.682	0
778.987	0.01
779.292	0
779.598	-0
779.903	-0
780.208	-0
780.513	-0
780.818	-0
781.123	-0
781.428	-0
781.733	-0
782.038	-0
782.343	-0
782.647	-0.01
782.952	-0.01
783.256	-0.01
783.561	-0.01
783.865	-0.01
784.17	-0.01
784.474	-0
784.778	-0.01
785.082	-0.01
785.386	-0.01
785.69	-0
785.994	-0.01
786.298	-0.01
786.602	-0
786.906	-0
787.209	0
787.513	0
787.817	0
788.12	-0
788.424	0
788.727	0
789.03	0
789.333	0
789.637	0
789.94	0
790.243	0
790.546	0
790.849	0
791.152	0
791.454	0
791.757	0
792.06	0
792.362	0
792.665	0
792.967	0
793.27	0
793.572	0
793.874	0
794.177	0
794.479	-0
794.781	-0
795.083	-0
795.385	-0
795.687	-0
795.989	0
796.29	-0
796.592	0
796.894	0
797.195	0
797.497	0
797.798	0
798.1	0
798.401	-0
798.702	-0
799.003	-0
799.304	0
799.605	0
799.906	-0
800.207	0
800.508	0
800.809	0
801.11	0
801.41	0
801.711	0
802.011	0
802.312	0
802.612	-0
802.913	-0
803.213	-0
803.513	-0
803.813	-0
804.113	-0
804.413	0
804.713	-0
805.013	0
805.313	0
805.613	-0
805.912	-0
806.212	-0
806.511	0
806.811	0
807.11	0
807.41	0
807.709	0
808.008	0
808.307	-0
808.606	-0
808.905	-0
809.204	-0
809.503	-0
809.802	-0
810.101	-0
810.399	0
810.698	-0
810.997	-0
811.295	0
811.593	0
811.892	0
812.19	-0
812.488	0
812.786	-0
813.084	-0
813.383	0.01
813.68	-0
813.978	0
814.276	0
814.574	0
814.872	-0
815.169	0
815.467	0
815.764	-0
816.062	-0
816.359	-0
816.656	-0
816.954	-0
817.251	0
817.548	-0
817.845	-0
818.142	0
818.439	0.01
818.735	0.01
819.032	0.01
819.329	0.01
819.626	0
819.922	0.01
820.219	0.01
820.515	0.01
820.811	0.01
821.108	0.01
821.404	0.01
821.7	0.01
821.996	0.01
822.292	0.01
822.588	0.01
822.884	0.01
823.18	0.01
823.475	0.01
823.771	0.01
824.067	0.01
824.362	0.01
824.658	0.01
824.953	0.01
825.249	0
825.544	0.01
825.839	0.01
826.134	0
826.429	0.01
826.724	0.01
827.019	0.01
827.314	0.01
827.609	0.01
827.904	0.01
828.198	0
828.493	0.01
828.787	0.01
829.082	0.01
829.376	0.01
829.671	0.02
829.965	0.02
830.259	0.01
830.553	0.02
830.847	0.02
831.141	0.01
831.435	0.02
831.729	0.02
832.023	0.01
832.317	0.01
832.61	0.01
832.904	0.01
833.197	0.01
833.491	0.01
833.784	0.01
834.077	0.01
834.371	0.01
834.664	0.02
834.957	0.01
835.25	0.01
835.543	0.01
835.836	0.02
836.129	0.01
836.421	0.01
836.714	0.01
837.007	0.01
837.299	0.02
837.592	0.01
837.884	0.02
838.177	0.01
838.469	0.01
838.761	0.02
839.053	0.01
839.345	0.02
839.637	0.01
839.929	0.01
840.221	0.01
840.513	0.01
840.805	0.02
841.096	0.01
841.388	0.02
841.68	0.01
841.971	0.01
842.262	0.01
842.554	0.01
842.845	0.01
843.136	0.01
843.427	0.02
843.718	0.02
844.009	0.01
844.3	0.01
844.591	0.01
844.882	0.02
845.173	0.02
845.463	0.01
845.754	0.02
846.044	0.01
846.335	0.01
846.625	0.01
846.915	0.01
847.206	0.01
847.496	0.02
847.786	0.01
848.076	0.01
848.366	0
848.656	0
848.945	0.01
849.235	0.01
849.525	0
849.814	0.01
850.104	-0.01
850.393	0.02
850.683	0.01
850.972	0.01
851.261	0.01
851.551	0.02
851.84	0.02
852.129	0.02
852.418	0.02
852.707	0.01
852.995	0.01
853.284	0.01
853.573	0
853.862	0.01
854.15	0.02
854.439	0.01
854.727	0.01
855.015	0.01
855.304	0.01
855.592	0.01
855.88	0
856.168	0.01
856.456	0
856.744	0
857.032	0.01
857.32	0.01
857.607	-0
857.895	0
858.183	0.02
858.47	0.02
858.757	-0
859.045	0.01
859.332	0.01
859.619	0.02
859.907	0.02
860.194	0.01
860.481	0.03
860.768	0
861.054	0
861.341	0.02
861.628	0.03
861.915	0.02
862.201	0.01
862.488	0.01
862.774	0.02
863.061	0.02
863.347	0.02
863.633	0.02
863.919	-0.01
864.205	0
864.491	0.02
864.777	0.02
865.063	0
865.349	0.01
865.635	0
865.92	0.02
866.206	0.02
866.492	0.03
866.777	0.05
867.062	0.03
867.348	0
867.633	0
867.918	0.03
868.203	0.01
868.488	-0.01
868.773	0.05
869.058	0.01
869.343	0.01
869.628	0.04
869.912	0.02
870.197	0.03
870.482	0.03
870.766	0.08
871.05	0.02
871.335	0.02
871.619	0
871.903	0.03
872.187	-0
872.471	0.02
872.755	0.01
873.039	0.02
873.323	-0
873.607	0.08
873.89	-0
874.174	0.01
874.458	0.07
874.741	-0.01
875.024	0.04
875.308	-0.01
875.591	0.07
875.874	0.02
876.157	-0.01
876.44	-0.03
876.723	0.03
877.006	0.03
877.289	-0
877.572	0.01
877.854	0.01
878.137	-0.02
878.42	0.01
878.702	-0
878.984	0.09
879.267	0.1
879.549	0.03
879.831	-0.07
880.113	-0.01
880.395	-0
880.677	-0.13
880.959	-0.06
