Data from Rubpy_BV_1800_EDTA_Buffered_Absorbance_14-52-33-912.txt Node
Date: Wed Jul 01 14:52:33 BST 2026
User: fpm-admin
Spectrometer: OFX00224
Trigger mode: 0
Integration Time (sec): 7.000000E-2
Scans to average: 3
Nonlinearity correction enabled: false
Boxcar width: 0
Storing dark spectrum: false
XAxis mode: Wavelengths
Number of Pixels in Spectrum: 2136
>>>>>Begin Spectral Data<<<<<
154.91	-0.48
155.289	-0
155.669	0.37
156.048	-0.73
156.428	0.2
156.807	-0
157.186	-0
157.566	-0.65
157.945	-0.06
158.325	-0
158.704	-0
159.083	-0.26
159.462	-0
159.842	-0.57
160.221	-0
160.6	0.08
160.979	0.18
161.359	-0
161.738	0.41
162.117	-0.33
162.496	0.12
162.875	-0
163.254	1.68
163.633	-0
164.012	-0
164.391	-0.18
164.77	-0
165.149	-0
165.528	-0
165.907	-0.18
166.286	0.54
166.665	-0.2
167.044	0.43
167.423	0.11
167.802	-0
168.181	-0
168.559	-0.88
168.938	-0.79
169.317	0.2
169.696	-0
170.074	-0.26
170.453	1.02
170.832	-0.78
171.21	-0
171.589	-0.26
171.968	0.36
172.346	-0
172.725	0.09
173.103	0.41
173.482	0.95
173.861	-0.85
174.239	0.18
174.617	-0
174.996	0.61
175.374	-0
175.753	-0
176.131	-0
176.51	0.05
176.888	-0
177.266	-0
177.645	-0.11
178.023	1.67
178.401	0.06
178.779	-0.23
179.158	-1.23
179.536	-0.09
179.914	-0.34
180.292	-0
180.67	-0.34
181.048	-0
181.427	0.48
181.805	-0
182.183	-1.23
182.561	-0
182.939	0.07
183.317	-0
183.695	0.36
184.073	-0.09
184.451	0.27
184.829	-0.04
185.206	-0.27
185.584	-0.05
185.962	-0
186.34	0.36
186.718	0.3
187.096	-0
187.473	-0.07
187.851	0.99
188.229	-0
188.607	0.13
188.984	0.17
189.362	0.15
189.74	0.08
190.117	-0
190.495	0.16
190.872	0.16
191.25	0.19
191.627	0.18
192.005	0.02
192.382	-0.04
192.76	0.14
193.137	0.19
193.515	0.12
193.892	0.13
194.269	0.23
194.647	0.24
195.024	0.06
195.401	0.12
195.779	0.21
196.156	0.12
196.533	0.14
196.91	0.06
197.288	0.19
197.665	0.12
198.042	0.08
198.419	0.19
198.796	-0.02
199.173	0.19
199.55	0.11
199.927	0.18
200.304	0.17
200.681	0.33
201.058	0.01
201.435	0.19
201.812	0.12
202.189	0.17
202.566	0.26
202.943	0.07
203.32	0.18
203.697	0.12
204.073	0.2
204.45	0.2
204.827	0.11
205.204	0.16
205.58	0.18
205.957	0.09
206.334	0.17
206.71	0.27
207.087	0.22
207.464	0.15
207.84	0.27
208.217	0.15
208.593	0.19
208.97	0.16
209.346	0.15
209.723	0.19
210.099	0.17
210.476	0.15
210.852	0.18
211.228	0.12
211.605	0.19
211.981	0.26
212.357	0.13
212.733	0.21
213.11	0.12
213.486	0.19
213.862	0.14
214.238	0.16
214.614	0.18
214.991	0.2
215.367	0.11
215.743	0.17
216.119	0.31
216.495	0.17
216.871	0.11
217.247	0.09
217.623	0.17
217.999	0.13
218.375	0.06
218.751	0.08
219.127	0.34
219.502	0.09
219.878	0.24
220.254	0.07
220.63	0.13
221.006	0.15
221.381	0.12
221.757	0.15
222.133	0.29
222.508	0.1
222.884	0.04
223.26	0.05
223.635	0.21
224.011	0.15
224.386	0.11
224.762	0.1
225.137	0.21
225.513	0.14
225.888	0.15
226.264	0.06
226.639	0.11
227.014	0.06
227.39	0.23
227.765	0.19
228.14	0.25
228.516	0.26
228.891	0.15
229.266	0.07
229.641	0.18
230.017	0.18
230.392	0.12
230.767	0.21
231.142	0.11
231.517	0.01
231.892	0.2
232.267	0.1
232.642	0.21
233.017	0.04
233.392	0.03
233.767	0.11
234.142	0.06
234.517	0.21
234.892	0.11
235.267	0.14
235.641	0.19
236.016	0.13
236.391	0.11
236.766	0.23
237.14	0.1
237.515	0.18
237.89	0.17
238.264	0.13
238.639	0.12
239.014	0.15
239.388	0.19
239.763	0.18
240.137	0.1
240.512	0.05
240.886	0.23
241.261	0.14
241.635	0.11
242.009	0.17
242.384	0.12
242.758	0.15
243.132	0.26
243.507	0.12
243.881	0.06
244.255	0.1
244.629	0.27
245.004	0.15
245.378	0.24
245.752	0.08
246.126	0.1
246.5	0.07
246.874	0.19
247.248	0.14
247.622	0.18
247.996	0.16
248.37	0.17
248.744	0.15
249.118	0.07
249.492	0.28
249.866	0.29
250.24	0.18
250.613	0.14
250.987	0.21
251.361	0.25
251.735	0.14
252.108	0.1
252.482	0.09
252.856	0.07
253.229	0.14
253.603	0.12
253.977	0.25
254.35	0.13
254.724	0.15
255.097	0.17
255.471	0.16
255.844	0.23
256.218	0.11
256.591	0.15
256.964	0.13
257.338	0.18
257.711	0.06
258.084	0.2
258.458	0.18
258.831	0.24
259.204	0.18
259.577	0.25
259.95	0.19
260.323	0.16
260.697	0.13
261.07	0.15
261.443	0.18
261.816	0.09
262.189	0.13
262.562	0.2
262.935	0.16
263.308	0.11
263.68	0.22
264.053	0.11
264.426	0.15
264.799	0.18
265.172	0.09
265.545	0.11
265.917	0.19
266.29	0.2
266.663	0.2
267.035	0.15
267.408	0.14
267.781	0.19
268.153	0.1
268.526	0.12
268.898	0.14
269.271	0.09
269.643	0.23
270.016	0.15
270.388	0.1
270.76	0.11
271.133	0.27
271.505	0.1
271.877	0.18
272.25	0.22
272.622	0.22
272.994	0.28
273.366	0.15
273.739	0.11
274.111	0.07
274.483	0.16
274.855	0.2
275.227	0.13
275.599	0.12
275.971	0.15
276.343	0.15
276.715	0.16
277.087	0.16
277.459	0.17
277.831	0.19
278.203	0.18
278.574	0.19
278.946	0.15
279.318	0.09
279.69	0.17
280.061	0.12
280.433	0.21
280.805	0.11
281.176	0.09
281.548	0.15
281.92	0.12
282.291	0.15
282.663	0.1
283.034	0.14
283.406	0.14
283.777	0.19
284.148	0.19
284.52	0.23
284.891	0.11
285.262	0.08
285.634	0.14
286.005	0.13
286.376	0.17
286.747	0.15
287.119	0.15
287.49	0.16
287.861	0.15
288.232	0.15
288.603	0.2
288.974	0.18
289.345	0.14
289.716	0.1
290.087	0.12
290.458	0.2
290.829	0.08
291.2	0.13
291.571	0.19
291.941	0.14
292.312	0.16
292.683	0.18
293.054	0.13
293.424	0.16
293.795	0.12
294.166	0.11
294.536	0.14
294.907	0.23
295.277	0.19
295.648	0.11
296.018	0.12
296.389	0.21
296.759	0.07
297.13	0.05
297.5	0.17
297.871	0.16
298.241	0.18
298.611	0.18
298.981	0.15
299.352	0.16
299.722	0.18
300.092	0.17
300.462	0.03
300.832	0.17
301.202	0.19
301.573	0.12
301.943	0.1
302.313	0.18
302.683	0.19
303.053	0.12
303.422	0.16
303.792	0.1
304.162	0.19
304.532	0.11
304.902	0.15
305.272	0.14
305.641	0.14
306.011	0.1
306.381	0.13
306.75	0.1
307.12	0.14
307.49	0.17
307.859	0.12
308.229	0.1
308.598	0.12
308.968	0.13
309.337	0.12
309.707	0.13
310.076	0.09
310.445	0.13
310.815	0.09
311.184	0.12
311.553	0.09
311.923	0.1
312.292	0.13
312.661	0.13
313.03	0.09
313.399	0.08
313.768	0.09
314.137	0.09
314.506	0.11
314.875	0.09
315.244	0.11
315.613	0.09
315.982	0.11
316.351	0.11
316.72	0.1
317.089	0.1
317.458	0.1
317.826	0.11
318.195	0.12
318.564	0.12
318.933	0.09
319.301	0.12
319.67	0.12
320.038	0.11
320.407	0.12
320.775	0.11
321.144	0.11
321.512	0.12
321.881	0.11
322.249	0.12
322.618	0.12
322.986	0.11
323.354	0.12
323.723	0.12
324.091	0.12
324.459	0.12
324.827	0.12
325.195	0.13
325.564	0.15
325.932	0.13
326.3	0.13
326.668	0.14
327.036	0.13
327.404	0.13
327.772	0.14
328.14	0.14
328.508	0.14
328.875	0.14
329.243	0.14
329.611	0.14
329.979	0.14
330.346	0.16
330.714	0.15
331.082	0.14
331.449	0.16
331.817	0.15
332.185	0.16
332.552	0.16
332.92	0.16
333.287	0.17
333.655	0.17
334.022	0.17
334.389	0.17
334.757	0.18
335.124	0.18
335.491	0.19
335.859	0.19
336.226	0.19
336.593	0.2
336.96	0.2
337.327	0.2
337.695	0.21
338.062	0.21
338.429	0.21
338.796	0.22
339.163	0.22
339.53	0.23
339.897	0.22
340.263	0.23
340.63	0.23
340.997	0.24
341.364	0.24
341.731	0.24
342.097	0.25
342.464	0.25
342.831	0.26
343.197	0.26
343.564	0.27
343.931	0.27
344.297	0.27
344.664	0.28
345.03	0.29
345.396	0.29
345.763	0.29
346.129	0.3
346.496	0.3
346.862	0.3
347.228	0.31
347.594	0.31
347.961	0.32
348.327	0.32
348.693	0.33
349.059	0.33
349.425	0.33
349.791	0.33
350.157	0.34
350.523	0.34
350.889	0.36
351.255	0.35
351.621	0.36
351.987	0.36
352.353	0.37
352.719	0.37
353.084	0.38
353.45	0.38
353.816	0.38
354.181	0.39
354.547	0.4
354.913	0.4
355.278	0.4
355.644	0.41
356.009	0.41
356.375	0.42
356.74	0.42
357.106	0.43
357.471	0.44
357.836	0.44
358.202	0.45
358.567	0.45
358.932	0.46
359.297	0.47
359.663	0.48
360.028	0.49
360.393	0.49
360.758	0.5
361.123	0.51
361.488	0.51
361.853	0.52
362.218	0.53
362.583	0.53
362.948	0.54
363.312	0.55
363.677	0.55
364.042	0.56
364.407	0.56
364.772	0.57
365.136	0.58
365.501	0.58
365.865	0.59
366.23	0.59
366.595	0.6
366.959	0.6
367.324	0.61
367.688	0.61
368.052	0.62
368.417	0.63
368.781	0.64
369.145	0.64
369.51	0.64
369.874	0.65
370.238	0.66
370.602	0.66
370.967	0.67
371.331	0.66
371.695	0.67
372.059	0.67
372.423	0.67
372.787	0.67
373.151	0.68
373.515	0.67
373.878	0.67
374.242	0.67
374.606	0.67
374.97	0.66
375.334	0.66
375.697	0.65
376.061	0.65
376.425	0.64
376.788	0.63
377.152	0.63
377.515	0.62
377.879	0.61
378.242	0.62
378.606	0.6
378.969	0.6
379.333	0.59
379.696	0.58
380.059	0.58
380.422	0.58
380.786	0.57
381.149	0.56
381.512	0.56
381.875	0.55
382.238	0.55
382.601	0.54
382.964	0.54
383.327	0.53
383.69	0.53
384.053	0.53
384.416	0.52
384.779	0.52
385.142	0.52
385.504	0.52
385.867	0.52
386.23	0.52
386.593	0.52
386.955	0.52
387.318	0.52
387.68	0.52
388.043	0.52
388.405	0.53
388.768	0.53
389.13	0.53
389.493	0.53
389.855	0.53
390.217	0.53
390.58	0.52
390.942	0.52
391.304	0.51
391.666	0.51
392.028	0.5
392.391	0.5
392.753	0.49
393.115	0.49
393.477	0.49
393.839	0.48
394.201	0.48
394.563	0.47
394.924	0.48
395.286	0.48
395.648	0.48
396.01	0.48
396.371	0.49
396.733	0.5
397.095	0.51
397.456	0.52
397.818	0.53
398.18	0.54
398.541	0.56
398.903	0.57
399.264	0.59
399.625	0.61
399.987	0.62
400.348	0.63
400.709	0.64
401.071	0.64
401.432	0.64
401.793	0.65
402.154	0.64
402.515	0.63
402.876	0.63
403.238	0.62
403.599	0.61
403.96	0.58
404.32	0.56
404.681	0.55
405.042	0.52
405.403	0.49
405.764	0.47
406.125	0.44
406.485	0.42
406.846	0.4
407.207	0.38
407.567	0.35
407.928	0.34
408.288	0.31
408.649	0.3
409.009	0.28
409.37	0.27
409.73	0.25
410.091	0.23
410.451	0.22
410.811	0.21
411.171	0.21
411.532	0.19
411.892	0.18
412.252	0.17
412.612	0.16
412.972	0.16
413.332	0.14
413.692	0.14
414.052	0.14
414.412	0.13
414.772	0.13
415.132	0.12
415.492	0.12
415.851	0.11
416.211	0.11
416.571	0.11
416.931	0.11
417.29	0.1
417.65	0.09
418.009	0.09
418.369	0.09
418.728	0.09
419.088	0.09
419.447	0.08
419.807	0.08
420.166	0.08
420.525	0.08
420.884	0.08
421.244	0.08
421.603	0.08
421.962	0.07
422.321	0.08
422.68	0.07
423.039	0.07
423.398	0.06
423.757	0.07
424.116	0.07
424.475	0.07
424.834	0.07
425.193	0.05
425.551	0.07
425.91	0.06
426.269	0.07
426.628	0.06
426.986	0.06
427.345	0.06
427.703	0.06
428.062	0.06
428.42	0.06
428.779	0.07
429.137	0.06
429.496	0.06
429.854	0.06
430.212	0.06
430.57	0.06
430.929	0.06
431.287	0.05
431.645	0.06
432.003	0.05
432.361	0.05
432.719	0.06
433.077	0.06
433.435	0.05
433.793	0.06
434.151	0.06
434.509	0.05
434.866	0.04
435.224	0.05
435.582	0.05
435.94	0.06
436.297	0.05
436.655	0.05
437.012	0.05
437.37	0.06
437.727	0.05
438.085	0.05
438.442	0.05
438.8	0.05
439.157	0.05
439.514	0.05
439.872	0.05
440.229	0.04
440.586	0.04
440.943	0.05
441.3	0.05
441.657	0.05
442.014	0.05
442.371	0.04
442.728	0.05
443.085	0.05
443.442	0.05
443.799	0.05
444.156	0.05
444.513	0.04
444.869	0.04
445.226	0.05
445.583	0.05
445.939	0.04
446.296	0.05
446.652	0.04
447.009	0.04
447.365	0.05
447.722	0.05
448.078	0.04
448.434	0.05
448.791	0.05
449.147	0.05
449.503	0.04
449.859	0.04
450.215	0.04
450.571	0.04
450.928	0.04
451.284	0.04
451.64	0.04
451.995	0.04
452.351	0.04
452.707	0.03
453.063	0.04
453.419	0.03
453.775	0.02
454.13	0.03
454.486	0.03
454.842	0.03
455.197	0.03
455.553	0.02
455.908	0.02
456.264	0.01
456.619	0.02
456.975	0.02
457.33	0.02
457.685	0.01
458.04	0.01
458.396	0.01
458.751	0.01
459.106	0
459.461	0.01
459.816	-0.01
460.171	-0
460.526	0
460.881	-0.02
461.236	-0.01
461.591	-0
461.946	-0.02
462.301	-0.01
462.655	-0.02
463.01	-0.02
463.365	-0.02
463.719	-0.03
464.074	-0.03
464.428	-0.05
464.783	-0.06
465.137	-0.04
465.492	-0.04
465.846	-0.05
466.201	-0.05
466.555	-0.05
466.909	-0.05
467.263	-0.04
467.618	-0.04
467.972	-0.04
468.326	-0.05
468.68	-0.04
469.034	-0.05
469.388	-0.05
469.742	-0.05
470.096	-0.05
470.45	-0.04
470.804	-0.04
471.157	-0.04
471.511	-0.04
471.865	-0.04
472.218	-0.04
472.572	-0.03
472.926	-0.03
473.279	-0.03
473.633	-0.03
473.986	-0.02
474.34	-0.02
474.693	-0.01
475.046	-0
475.4	0.01
475.753	0.01
476.106	0.01
476.459	0.01
476.812	0.02
477.165	0.03
477.519	0.03
477.872	0.04
478.224	0.04
478.577	0.04
478.93	0.05
479.283	0.05
479.636	0.05
479.989	0.06
480.341	0.06
480.694	0.06
481.047	0.06
481.399	0.07
481.752	0.08
482.104	0.08
482.457	0.08
482.809	0.08
483.162	0.09
483.514	0.09
483.866	0.09
484.219	0.09
484.571	0.09
484.923	0.09
485.275	0.1
485.627	0.09
485.979	0.1
486.331	0.1
486.683	0.1
487.035	0.11
487.387	0.11
487.739	0.12
488.091	0.12
488.443	0.12
488.794	0.12
489.146	0.12
489.498	0.12
489.849	0.12
490.201	0.12
490.552	0.12
490.904	0.12
491.255	0.13
491.607	0.13
491.958	0.13
492.309	0.13
492.661	0.14
493.012	0.14
493.363	0.14
493.714	0.14
494.065	0.14
494.416	0.14
494.767	0.14
495.118	0.14
495.469	0.15
495.82	0.15
496.171	0.16
496.522	0.15
496.872	0.16
497.223	0.15
497.574	0.15
497.924	0.16
498.275	0.16
498.626	0.16
498.976	0.16
499.327	0.16
499.677	0.16
500.027	0.17
500.378	0.17
500.728	0.17
501.078	0.17
501.428	0.17
501.779	0.18
502.129	0.18
502.479	0.18
502.829	0.18
503.179	0.18
503.529	0.18
503.879	0.19
504.229	0.18
504.578	0.19
504.928	0.19
505.278	0.19
505.628	0.19
505.977	0.19
506.327	0.19
506.676	0.2
507.026	0.2
507.375	0.2
507.725	0.2
508.074	0.2
508.424	0.2
508.773	0.2
509.122	0.2
509.471	0.21
509.82	0.2
510.17	0.21
510.519	0.21
510.868	0.21
511.217	0.21
511.566	0.21
511.915	0.21
512.263	0.22
512.612	0.22
512.961	0.22
513.31	0.22
513.659	0.22
514.007	0.22
514.356	0.22
514.704	0.23
515.053	0.22
515.401	0.23
515.75	0.23
516.098	0.23
516.447	0.23
516.795	0.23
517.143	0.23
517.491	0.24
517.839	0.23
518.188	0.24
518.536	0.23
518.884	0.24
519.232	0.24
519.58	0.24
519.928	0.24
520.275	0.24
520.623	0.24
520.971	0.24
521.319	0.24
521.666	0.25
522.014	0.25
522.362	0.25
522.709	0.25
523.057	0.25
523.404	0.25
523.752	0.25
524.099	0.25
524.446	0.25
524.794	0.25
525.141	0.26
525.488	0.26
525.835	0.26
526.182	0.26
526.529	0.25
526.876	0.26
527.223	0.26
527.57	0.26
527.917	0.26
528.264	0.26
528.611	0.26
528.958	0.26
529.304	0.27
529.651	0.27
529.998	0.26
530.344	0.27
530.691	0.27
531.037	0.27
531.384	0.27
531.73	0.27
532.076	0.27
532.423	0.27
532.769	0.27
533.115	0.27
533.461	0.27
533.807	0.27
534.154	0.28
534.5	0.28
534.846	0.28
535.192	0.28
535.537	0.28
535.883	0.28
536.229	0.28
536.575	0.28
536.921	0.28
537.266	0.29
537.612	0.29
537.957	0.28
538.303	0.28
538.649	0.29
538.994	0.29
539.339	0.29
539.685	0.29
540.03	0.29
540.375	0.29
540.721	0.29
541.066	0.3
541.411	0.29
541.756	0.29
542.101	0.3
542.446	0.29
542.791	0.29
543.136	0.29
543.481	0.29
543.825	0.3
544.17	0.3
544.515	0.3
544.86	0.3
545.204	0.3
545.549	0.3
545.893	0.3
546.238	0.3
546.582	0.3
546.927	0.3
547.271	0.3
547.615	0.3
547.96	0.3
548.304	0.31
548.648	0.31
548.992	0.3
549.336	0.3
549.68	0.3
550.024	0.31
550.368	0.31
550.712	0.31
551.056	0.31
551.4	0.31
551.743	0.31
552.087	0.31
552.431	0.31
552.774	0.31
553.118	0.31
553.462	0.31
553.805	0.31
554.148	0.31
554.492	0.31
554.835	0.31
555.178	0.31
555.522	0.31
555.865	0.31
556.208	0.31
556.551	0.31
556.894	0.31
557.237	0.31
557.58	0.31
557.923	0.31
558.266	0.31
558.609	0.31
558.952	0.31
559.294	0.31
559.637	0.31
559.98	0.31
560.322	0.31
560.665	0.31
561.007	0.31
561.35	0.31
561.692	0.31
562.034	0.31
562.377	0.31
562.719	0.31
563.061	0.3
563.403	0.31
563.745	0.31
564.088	0.31
564.43	0.3
564.772	0.31
565.113	0.3
565.455	0.3
565.797	0.3
566.139	0.31
566.481	0.31
566.822	0.3
567.164	0.31
567.506	0.3
567.847	0.31
568.189	0.3
568.53	0.31
568.872	0.31
569.213	0.3
569.554	0.3
569.895	0.3
570.237	0.3
570.578	0.3
570.919	0.3
571.26	0.3
571.601	0.3
571.942	0.3
572.283	0.3
572.624	0.3
572.965	0.3
573.306	0.29
573.646	0.29
573.987	0.29
574.328	0.29
574.668	0.29
575.009	0.29
575.349	0.29
575.69	0.29
576.03	0.29
576.37	0.28
576.711	0.28
577.051	0.28
577.391	0.28
577.731	0.29
578.072	0.29
578.412	0.28
578.752	0.28
579.092	0.28
579.431	0.27
579.771	0.25
580.111	0.25
580.451	0.27
580.791	0.28
581.13	0.28
581.47	0.28
581.81	0.28
582.149	0.28
582.489	0.28
582.828	0.27
583.167	0.24
583.507	0.2
583.846	0.2
584.185	0.24
584.525	0.26
584.864	0.27
585.203	0.28
585.542	0.28
585.881	0.28
586.22	0.28
586.559	0.28
586.898	0.27
587.236	0.26
587.575	0.26
587.914	0.27
588.252	0.27
588.591	0.28
588.93	0.28
589.268	0.27
589.607	0.27
589.945	0.28
590.283	0.28
590.622	0.27
590.96	0.28
591.298	0.28
591.636	0.28
591.974	0.28
592.313	0.28
592.651	0.29
592.989	0.28
593.326	0.28
593.664	0.29
594.002	0.28
594.34	0.28
594.678	0.28
595.015	0.27
595.353	0.27
595.691	0.28
596.028	0.28
596.366	0.29
596.703	0.28
597.04	0.28
597.378	0.29
597.715	0.29
598.052	0.28
598.389	0.29
598.726	0.29
599.064	0.29
599.401	0.29
599.738	0.29
600.074	0.28
600.411	0.28
600.748	0.28
601.085	0.28
601.422	0.28
601.758	0.27
602.095	0.28
602.432	0.28
602.768	0.28
603.105	0.28
603.441	0.29
603.777	0.28
604.114	0.28
604.45	0.29
604.786	0.29
605.122	0.28
605.459	0.28
605.795	0.28
606.131	0.28
606.467	0.28
606.803	0.28
607.139	0.28
607.474	0.28
607.81	0.28
608.146	0.28
608.482	0.28
608.817	0.27
609.153	0.27
609.488	0.27
609.824	0.27
610.159	0.27
610.495	0.27
610.83	0.27
611.165	0.27
611.5	0.27
611.836	0.27
612.171	0.27
612.506	0.27
612.841	0.27
613.176	0.27
613.511	0.27
613.845	0.27
614.18	0.26
614.515	0.26
614.85	0.26
615.184	0.26
615.519	0.26
615.854	0.26
616.188	0.26
616.523	0.26
616.857	0.26
617.191	0.26
617.526	0.26
617.86	0.26
618.194	0.26
618.528	0.26
618.862	0.26
619.196	0.26
619.53	0.26
619.864	0.26
620.198	0.26
620.532	0.25
620.866	0.26
621.2	0.26
621.533	0.25
621.867	0.25
622.201	0.25
622.534	0.25
622.868	0.25
623.201	0.25
623.534	0.25
623.868	0.24
624.201	0.24
624.534	0.24
624.868	0.24
625.201	0.24
625.534	0.24
625.867	0.24
626.2	0.24
626.533	0.23
626.865	0.23
627.198	0.23
627.531	0.23
627.864	0.23
628.196	0.22
628.529	0.23
628.862	0.22
629.194	0.22
629.527	0.22
629.859	0.22
630.191	0.22
630.524	0.22
630.856	0.22
631.188	0.22
631.52	0.22
631.852	0.21
632.184	0.21
632.516	0.21
632.848	0.21
633.18	0.21
633.512	0.21
633.844	0.21
634.175	0.21
634.507	0.21
634.839	0.2
635.17	0.2
635.502	0.2
635.833	0.2
636.165	0.2
636.496	0.2
636.827	0.2
637.159	0.19
637.49	0.19
637.821	0.19
638.152	0.19
638.483	0.19
638.814	0.19
639.145	0.19
639.476	0.19
639.807	0.19
640.137	0.18
640.468	0.18
640.799	0.18
641.129	0.18
641.46	0.18
641.791	0.18
642.121	0.17
642.451	0.17
642.782	0.17
643.112	0.17
643.442	0.17
643.773	0.17
644.103	0.16
644.433	0.17
644.763	0.17
645.093	0.17
645.423	0.17
645.753	0.17
646.082	0.16
646.412	0.17
646.742	0.17
647.072	0.17
647.401	0.16
647.731	0.16
648.06	0.16
648.39	0.16
648.719	0.16
649.048	0.16
649.378	0.16
649.707	0.16
650.036	0.16
650.365	0.16
650.694	0.15
651.023	0.15
651.352	0.15
651.681	0.15
652.01	0.15
652.339	0.15
652.668	0.15
652.996	0.15
653.325	0.15
653.654	0.15
653.982	0.15
654.311	0.15
654.639	0.15
654.967	0.15
655.296	0.15
655.624	0.15
655.952	0.15
656.28	0.15
656.609	0.15
656.937	0.15
657.265	0.14
657.593	0.01
657.92	0
658.248	0
658.576	0
658.904	0.06
659.231	0.13
659.559	0.14
659.887	0.15
660.214	0.14
660.542	0.14
660.869	0.14
661.196	0.14
661.524	0.14
661.851	0.14
662.178	0.14
662.505	0.14
662.832	0.14
663.159	0.14
663.486	0.14
663.813	0.14
664.14	0.14
664.467	0.14
664.794	0.14
665.12	0.14
665.447	0.14
665.774	0.14
666.1	0.14
666.427	0.13
666.753	0.13
667.079	0.13
667.406	0.13
667.732	0.13
668.058	0.13
668.384	0.13
668.71	0.13
669.036	0.13
669.362	0.13
669.688	0.13
670.014	0.13
670.34	0.13
670.666	0.12
670.991	0.12
671.317	0.12
671.643	0.12
671.968	0.12
672.294	0.12
672.619	0.12
672.945	0.12
673.27	0.12
673.595	0.11
673.92	0.11
674.246	0.11
674.571	0.11
674.896	0.11
675.221	0.11
675.546	0.11
675.87	0.11
676.195	0.11
676.52	0.11
676.845	0.11
677.169	0.11
677.494	0.11
677.819	0.1
678.143	0.1
678.468	0.1
678.792	0.1
679.116	0.1
679.44	0.1
679.765	0.1
680.089	0.09
680.413	0.09
680.737	0.09
681.061	0.09
681.385	0.09
681.709	0.09
682.033	0.09
682.356	0.09
682.68	0.09
683.004	0.09
683.327	0.09
683.651	0.08
683.974	0.08
684.298	0.08
684.621	0.08
684.944	0.08
685.268	0.08
685.591	0.08
685.914	0.07
686.237	0.07
686.56	0.07
686.883	0.07
687.206	0.07
687.529	0.07
687.852	0.07
688.175	0.07
688.497	0.07
688.82	0.07
689.142	0.07
689.465	0.07
689.787	0.07
690.11	0.07
690.432	0.07
690.755	0.07
691.077	0.07
691.399	0.06
691.721	0.06
692.043	0.06
692.365	0.06
692.687	0.06
693.009	0.06
693.331	0.05
693.653	0.05
693.974	0.05
694.296	0.05
694.618	0.05
694.939	0.05
695.261	0.05
695.582	0.05
695.904	0.05
696.225	0.05
696.546	0.05
696.868	0.05
697.189	0.05
697.51	0.05
697.831	0.05
698.152	0.05
698.473	0.05
698.794	0.04
699.114	0.04
699.435	0.03
699.756	0.04
700.077	0.04
700.397	0.04
700.718	0.04
701.038	0.04
701.359	0.04
701.679	0.04
701.999	0.04
702.32	0.04
702.64	0.04
702.96	0.04
703.28	0.04
703.6	0.04
703.92	0.04
704.24	0.03
704.56	0.03
704.879	0.03
705.199	0.04
705.519	0.04
705.838	0.04
706.158	0.04
706.478	0.04
706.797	0.04
707.116	0.04
707.436	0.04
707.755	0.04
708.074	0.04
708.393	0.04
708.712	0.03
709.031	0.02
709.35	0.02
709.669	0.02
709.988	0.03
710.307	0.03
710.626	0.03
710.944	0.04
711.263	0.04
711.582	0.04
711.9	0.04
712.219	0.03
712.537	0.03
712.855	0.03
713.174	0.03
713.492	0.03
713.81	0.03
714.128	0.03
714.446	0.03
714.764	0.03
715.082	0.03
715.4	0.03
715.718	0.03
716.035	0.03
716.353	0.03
716.671	0.03
716.988	0.04
717.306	0.03
717.623	0.04
717.941	0.04
718.258	0.04
718.575	0.04
718.893	0.04
719.21	0.04
719.527	0.04
719.844	0.04
720.161	0.04
720.478	0.04
720.795	0.04
721.112	0.04
721.428	0.04
721.745	0.04
722.062	0.04
722.378	0.04
722.695	0.04
723.011	0.04
723.328	0.04
723.644	0.04
723.96	0.04
724.276	0.04
724.593	0.04
724.909	0.04
725.225	0.04
725.541	0.04
725.857	0.04
726.173	0.04
726.488	0.04
726.804	0.04
727.12	0.04
727.435	0.04
727.751	0.04
728.067	0.04
728.382	0.04
728.697	0.04
729.013	0.04
729.328	0.04
729.643	0.04
729.958	0.04
730.273	0.04
730.588	0.04
730.903	0.04
731.218	0.04
731.533	0.03
731.848	0.04
732.163	0.03
732.477	0.03
732.792	0.03
733.107	0.03
733.421	0.03
733.736	0.04
734.05	0.04
734.364	0.04
734.678	0.04
734.993	0.04
735.307	0.04
735.621	0.03
735.935	0.04
736.249	0.03
736.563	0.04
736.877	0.04
737.19	0.04
737.504	0.04
737.818	0.04
738.131	0.04
738.445	0.04
738.758	0.04
739.072	0.04
739.385	0.04
739.698	0.04
740.012	0.04
740.325	0.04
740.638	0.04
740.951	0.04
741.264	0.04
741.577	0.04
741.89	0.04
742.203	0.03
742.515	0.04
742.828	0.03
743.141	0.03
743.453	0.03
743.766	0.03
744.078	0.03
744.391	0.03
744.703	0.03
745.015	0.03
745.327	0.03
745.639	0.03
745.952	0.03
746.264	0.03
746.575	0.03
746.887	0.03
747.199	0.03
747.511	0.03
747.823	0.03
748.134	0.03
748.446	0.03
748.757	0.03
749.069	0.03
749.38	0.02
749.692	0.03
750.003	0.02
750.314	0.02
750.625	0.02
750.936	0.02
751.248	0.02
751.559	0.02
751.869	0.02
752.18	0.02
752.491	0.02
752.802	0.02
753.112	0.02
753.423	0.02
753.734	0.02
754.044	0.02
754.355	0.02
754.665	0.02
754.975	0.02
755.285	0.02
755.596	0.02
755.906	0.02
756.216	0.02
756.526	0.02
756.836	0.02
757.146	0.02
757.455	0.02
757.765	0.01
758.075	0.02
758.385	0.01
758.694	0.02
759.004	0.01
759.313	0.01
759.622	0.02
759.932	0.02
760.241	0.02
760.55	0.02
760.859	0.02
761.168	0.02
761.477	0.02
761.786	0.02
762.095	0.02
762.404	0.01
762.713	0.01
763.021	0.01
763.33	0.01
763.639	0.02
763.947	0.01
764.256	0.01
764.564	0.01
764.872	0.01
765.181	0.01
765.489	0.02
765.797	0.01
766.105	0.01
766.413	0.01
766.721	0.01
767.029	0.01
767.337	0.01
767.644	0.01
767.952	0.01
768.26	0.02
768.567	0.02
768.875	0.02
769.182	0.01
769.49	0.01
769.797	0.02
770.104	0.01
770.411	0.01
770.718	0.01
771.026	0.01
771.333	0.01
771.639	0.01
771.946	0.01
772.253	0.01
772.56	0.01
772.867	0.01
773.173	0.01
773.48	0.01
773.786	0.01
774.093	0.01
774.399	0.01
774.705	0.01
775.012	0.01
775.318	0.01
775.624	0.01
775.93	0.01
776.236	0.01
776.542	0.01
776.848	0.02
777.154	0.01
777.459	0.01
777.765	0.01
778.071	0.01
778.376	0.01
778.682	0.01
778.987	0.02
779.292	0.01
779.598	0.01
779.903	0.01
780.208	0.01
780.513	0.01
780.818	0.01
781.123	0.01
781.428	0.01
781.733	0.01
782.038	0.01
782.343	0.01
782.647	0.01
782.952	0
783.256	0.01
783.561	0.01
783.865	0.01
784.17	0.01
784.474	0.01
784.778	0
785.082	0.01
785.386	0
785.69	0.01
785.994	0.01
786.298	0.01
786.602	0.01
786.906	0.01
787.209	0.01
787.513	0.01
787.817	0.01
788.12	0.01
788.424	0.02
788.727	0.01
789.03	0.01
789.333	0.01
789.637	0.01
789.94	0.01
790.243	0.01
790.546	0.01
790.849	0.02
791.152	0.02
791.454	0.01
791.757	0.01
792.06	0.01
792.362	0.02
792.665	0.01
792.967	0.01
793.27	0.01
793.572	0.02
793.874	0.02
794.177	0.01
794.479	0.01
794.781	0.01
795.083	0.02
795.385	0.01
795.687	0.01
795.989	0.02
796.29	0.02
796.592	0.01
796.894	0.02
797.195	0.02
797.497	0.02
797.798	0.01
798.1	0.01
798.401	0.01
798.702	0.01
799.003	0.01
799.304	0.02
799.605	0.02
799.906	0.02
800.207	0.01
800.508	0.02
800.809	0.02
801.11	0.02
801.41	0.01
801.711	0.01
802.011	0.02
802.312	0.01
802.612	0.01
802.913	0.01
803.213	0.01
803.513	0.01
803.813	0.01
804.113	0.01
804.413	0.02
804.713	0.02
805.013	0.02
805.313	0.02
805.613	0.02
805.912	0.01
806.212	0.02
806.511	0.02
806.811	0.02
807.11	0.02
807.41	0.02
807.709	0.02
808.008	0.02
808.307	0.02
808.606	0.01
808.905	0.02
809.204	0.01
809.503	0.01
809.802	0.02
810.101	0.02
810.399	0.02
810.698	0.02
810.997	0.02
811.295	0.02
811.593	0.02
811.892	0.02
812.19	0.01
812.488	0.02
812.786	0.01
813.084	0.02
813.383	0.02
813.68	0.02
813.978	0.02
814.276	0.02
814.574	0.01
814.872	0.02
815.169	0.02
815.467	0.02
815.764	0.02
816.062	0.02
816.359	0.02
816.656	0.02
816.954	0.02
817.251	0.02
817.548	0.02
817.845	0.02
818.142	0.02
818.439	0.03
818.735	0.02
819.032	0.03
819.329	0.03
819.626	0.03
819.922	0.03
820.219	0.03
820.515	0.03
820.811	0.03
821.108	0.03
821.404	0.03
821.7	0.03
821.996	0.02
822.292	0.03
822.588	0.03
822.884	0.04
823.18	0.03
823.475	0.03
823.771	0.03
824.067	0.03
824.362	0.03
824.658	0.03
824.953	0.03
825.249	0.03
825.544	0.03
825.839	0.03
826.134	0.03
826.429	0.03
826.724	0.02
827.019	0.03
827.314	0.03
827.609	0.03
827.904	0.02
828.198	0.03
828.493	0.03
828.787	0.03
829.082	0.04
829.376	0.04
829.671	0.04
829.965	0.04
830.259	0.04
830.553	0.04
830.847	0.04
831.141	0.04
831.435	0.04
831.729	0.04
832.023	0.03
832.317	0.04
832.61	0.03
832.904	0.04
833.197	0.04
833.491	0.04
833.784	0.04
834.077	0.04
834.371	0.04
834.664	0.04
834.957	0.03
835.25	0.04
835.543	0.03
835.836	0.04
836.129	0.04
836.421	0.04
836.714	0.04
837.007	0.04
837.299	0.04
837.592	0.04
837.884	0.05
838.177	0.04
838.469	0.04
838.761	0.04
839.053	0.04
839.345	0.04
839.637	0.04
839.929	0.04
840.221	0.04
840.513	0.04
840.805	0.05
841.096	0.05
841.388	0.04
841.68	0.04
841.971	0.04
842.262	0.03
842.554	0.04
842.845	0.04
843.136	0.03
843.427	0.04
843.718	0.04
844.009	0.04
844.3	0.04
844.591	0.03
844.882	0.04
845.173	0.05
845.463	0.05
845.754	0.05
846.044	0.05
846.335	0.04
846.625	0.04
846.915	0.04
847.206	0.04
847.496	0.05
847.786	0.05
848.076	0.04
848.366	0.04
848.656	0.04
848.945	0.04
849.235	0.03
849.525	0.03
849.814	0.03
850.104	0.03
850.393	0.04
850.683	0.04
850.972	0.05
851.261	0.04
851.551	0.06
851.84	0.05
852.129	0.04
852.418	0.04
852.707	0.05
852.995	0.04
853.284	0.04
853.573	0.04
853.862	0.03
854.15	0.04
854.439	0.04
854.727	0.03
855.015	0.05
855.304	0.04
855.592	0.04
855.88	0.04
856.168	0.04
856.456	0.04
856.744	0.04
857.032	0.04
857.32	0.04
857.607	0.04
857.895	0.05
858.183	0.05
858.47	0.05
858.757	0.04
859.045	0.06
859.332	0.05
859.619	0.05
859.907	0.05
860.194	0.04
860.481	0.05
860.768	0.06
861.054	0.04
861.341	0.05
861.628	0.06
861.915	0.06
862.201	0.06
862.488	0.05
862.774	0.06
863.061	0.06
863.347	0.05
863.633	0.06
863.919	0.01
864.205	0.04
864.491	0.04
864.777	0.05
865.063	0.03
865.349	0.04
865.635	0.04
865.92	0.06
866.206	0.05
866.492	0.04
866.777	0.08
867.062	0.07
867.348	0.04
867.633	0.03
867.918	0.08
868.203	0.06
868.488	0.07
868.773	0.09
869.058	0.07
869.343	0.07
869.628	0.07
869.912	0.04
870.197	0.04
870.482	0.05
870.766	0.07
871.05	0.04
871.335	0.07
871.619	0.06
871.903	0.05
872.187	0.03
872.471	0.06
872.755	0.11
873.039	0.03
873.323	0.07
873.607	0.09
873.89	0.02
874.174	0.08
874.458	0.1
874.741	0.04
875.024	0.04
875.308	0.05
875.591	0.13
875.874	0.02
876.157	0.04
876.44	-0.03
876.723	0.03
877.006	0.04
877.289	0.03
877.572	0.11
877.854	0
878.137	0.02
878.42	0.08
878.702	0.06
878.984	0.09
879.267	0.07
879.549	0.03
879.831	-0.09
880.113	-0.01
880.395	-0.02
880.677	-0.12
880.959	0.09
