Data from Rubpy_BV_1800_EDTA_Buffered_Absorbance_15-19-50-591.txt Node
Date: Wed Jul 01 15:19:50 BST 2026
User: fpm-admin
Spectrometer: OFX00224
Trigger mode: 0
Integration Time (sec): 7.000000E-2
Scans to average: 3
Nonlinearity correction enabled: false
Boxcar width: 0
Storing dark spectrum: false
XAxis mode: Wavelengths
Number of Pixels in Spectrum: 2136
>>>>>Begin Spectral Data<<<<<
154.91	-0.63
155.289	-0
155.669	-1.24
156.048	-0
156.428	-0
156.807	-0
157.186	-0
157.566	-0
157.945	-0
158.325	-0
158.704	-0
159.083	-0.53
159.462	-0
159.842	-0
160.221	-0.18
160.6	-0
160.979	0.27
161.359	-0
161.738	-0.24
162.117	-0.29
162.496	-0
162.875	0.12
163.254	-0
163.633	-0
164.012	0.7
164.391	-0.83
164.77	-0.24
165.149	-0
165.528	-0.48
165.907	-0
166.286	0.31
166.665	0.9
167.044	-0
167.423	-0.31
167.802	-0.43
168.181	0.7
168.559	-0.87
168.938	-0.81
169.317	-0
169.696	-0
170.074	-0.46
170.453	-0
170.832	-0.64
171.21	-0
171.589	-0.68
171.968	0.63
172.346	-0
172.725	0.38
173.103	0.43
173.482	0.37
173.861	-0
174.239	1.28
174.617	-0
174.996	0.35
175.374	-0
175.753	0.03
176.131	-0
176.51	-0.28
176.888	0.39
177.266	-0
177.645	-0.05
178.023	0.77
178.401	0.09
178.779	-0.5
179.158	-1.15
179.536	-0.43
179.914	-0.12
180.292	-0
180.67	-0
181.048	-0
181.427	-0
181.805	-0
182.183	-0
182.561	-0
182.939	-0.65
183.317	-0
183.695	1.2
184.073	0.08
184.451	0.97
184.829	-0.1
185.206	-0
185.584	-0
185.962	-0
186.34	-0.04
186.718	-0
187.096	-0
187.473	-0
187.851	-0
188.229	-0
188.607	0.61
188.984	0.27
189.362	0.41
189.74	0.33
190.117	0.25
190.495	0.4
190.872	0.39
191.25	0.27
191.627	0.54
192.005	0.3
192.382	0.34
192.76	0.41
193.137	0.63
193.515	0.39
193.892	0.27
194.269	0.49
194.647	0.49
195.024	0.19
195.401	0.63
195.779	0.41
196.156	0.17
196.533	0.43
196.91	0.36
197.288	0.24
197.665	0.33
198.042	0.34
198.419	0.37
198.796	0.13
199.173	0.33
199.55	0.28
199.927	0.48
200.304	0.38
200.681	0.51
201.058	0.33
201.435	0.48
201.812	0.29
202.189	0.56
202.566	0.39
202.943	0.26
203.32	0.43
203.697	0.32
204.073	0.53
204.45	0.48
204.827	0.46
205.204	0.32
205.58	0.43
205.957	0.37
206.334	0.4
206.71	0.46
207.087	0.77
207.464	0.45
207.84	0.37
208.217	0.42
208.593	0.49
208.97	0.47
209.346	0.37
209.723	0.46
210.099	0.43
210.476	0.34
210.852	0.32
211.228	0.3
211.605	0.47
211.981	0.66
212.357	0.27
212.733	0.59
213.11	0.27
213.486	0.42
213.862	0.35
214.238	0.3
214.614	0.42
214.991	0.35
215.367	0.45
215.743	0.52
216.119	0.48
216.495	0.37
216.871	0.4
217.247	0.38
217.623	0.46
217.999	0.52
218.375	0.46
218.751	0.35
219.127	0.53
219.502	0.47
219.878	0.32
220.254	0.5
220.63	0.38
221.006	0.49
221.381	0.28
221.757	0.34
222.133	0.83
222.508	0.76
222.884	0.38
223.26	0.35
223.635	0.46
224.011	0.7
224.386	0.38
224.762	0.47
225.137	0.42
225.513	0.34
225.888	0.31
226.264	0.38
226.639	0.46
227.014	0.38
227.39	0.6
227.765	0.3
228.14	0.53
228.516	0.71
228.891	0.3
229.266	0.4
229.641	0.39
230.017	0.43
230.392	0.44
230.767	0.37
231.142	0.36
231.517	0.38
231.892	0.36
232.267	0.37
232.642	0.46
233.017	0.39
233.392	0.33
233.767	0.35
234.142	0.37
234.517	0.4
234.892	0.36
235.267	0.22
235.641	0.27
236.016	0.4
236.391	0.32
236.766	0.38
237.14	0.46
237.515	0.39
237.89	0.32
238.264	0.35
238.639	0.35
239.014	0.47
239.388	0.37
239.763	0.26
240.137	0.47
240.512	0.44
240.886	0.48
241.261	0.39
241.635	0.39
242.009	0.3
242.384	0.49
242.758	0.36
243.132	0.33
243.507	0.46
243.881	0.23
244.255	0.38
244.629	0.37
245.004	0.39
245.378	0.37
245.752	0.3
246.126	0.41
246.5	0.37
246.874	0.63
247.248	0.57
247.622	0.49
247.996	0.43
248.37	0.29
248.744	0.44
249.118	0.45
249.492	0.66
249.866	0.52
250.24	0.49
250.613	0.57
250.987	0.5
251.361	0.49
251.735	0.4
252.108	0.66
252.482	0.41
252.856	0.54
253.229	0.58
253.603	0.41
253.977	0.53
254.35	0.35
254.724	0.57
255.097	0.41
255.471	0.5
255.844	0.42
256.218	0.33
256.591	0.49
256.964	0.29
257.338	0.36
257.711	0.38
258.084	0.52
258.458	0.48
258.831	0.47
259.204	0.53
259.577	0.49
259.95	0.49
260.323	0.42
260.697	0.44
261.07	0.44
261.443	0.47
261.816	0.31
262.189	0.45
262.562	0.41
262.935	0.57
263.308	0.34
263.68	0.64
264.053	0.34
264.426	0.42
264.799	0.49
265.172	0.44
265.545	0.49
265.917	0.37
266.29	0.35
266.663	0.52
267.035	0.3
267.408	0.41
267.781	0.47
268.153	0.46
268.526	0.4
268.898	0.45
269.271	0.39
269.643	0.57
270.016	0.37
270.388	0.57
270.76	0.46
271.133	0.43
271.505	0.46
271.877	0.57
272.25	0.49
272.622	0.56
272.994	0.58
273.366	0.41
273.739	0.33
274.111	0.45
274.483	0.4
274.855	0.43
275.227	0.29
275.599	0.29
275.971	0.36
276.343	0.37
276.715	0.38
277.087	0.48
277.459	0.46
277.831	0.33
278.203	0.52
278.574	0.38
278.946	0.51
279.318	0.43
279.69	0.46
280.061	0.34
280.433	0.43
280.805	0.38
281.176	0.37
281.548	0.53
281.92	0.39
282.291	0.47
282.663	0.5
283.034	0.39
283.406	0.37
283.777	0.38
284.148	0.47
284.52	0.4
284.891	0.4
285.262	0.34
285.634	0.35
286.005	0.35
286.376	0.4
286.747	0.54
287.119	0.37
287.49	0.53
287.861	0.49
288.232	0.36
288.603	0.37
288.974	0.32
289.345	0.49
289.716	0.41
290.087	0.42
290.458	0.47
290.829	0.46
291.2	0.4
291.571	0.37
291.941	0.37
292.312	0.46
292.683	0.4
293.054	0.41
293.424	0.38
293.795	0.32
294.166	0.44
294.536	0.5
294.907	0.49
295.277	0.39
295.648	0.62
296.018	0.37
296.389	0.32
296.759	0.32
297.13	0.33
297.5	0.36
297.871	0.35
298.241	0.41
298.611	0.46
298.981	0.42
299.352	0.52
299.722	0.59
300.092	0.4
300.462	0.51
300.832	0.45
301.202	0.5
301.573	0.37
301.943	0.38
302.313	0.67
302.683	0.47
303.053	0.36
303.422	0.57
303.792	0.33
304.162	0.43
304.532	0.34
304.902	0.53
305.272	0.38
305.641	0.4
306.011	0.31
306.381	0.42
306.75	0.34
307.12	0.42
307.49	0.41
307.859	0.4
308.229	0.37
308.598	0.37
308.968	0.36
309.337	0.32
309.707	0.32
310.076	0.34
310.445	0.38
310.815	0.34
311.184	0.3
311.553	0.3
311.923	0.3
312.292	0.34
312.661	0.33
313.03	0.31
313.399	0.31
313.768	0.31
314.137	0.32
314.506	0.33
314.875	0.33
315.244	0.35
315.613	0.34
315.982	0.36
316.351	0.38
316.72	0.37
317.089	0.36
317.458	0.39
317.826	0.4
318.195	0.4
318.564	0.39
318.933	0.41
319.301	0.39
319.67	0.42
320.038	0.42
320.407	0.43
320.775	0.42
321.144	0.43
321.512	0.45
321.881	0.44
322.249	0.44
322.618	0.45
322.986	0.46
323.354	0.46
323.723	0.46
324.091	0.48
324.459	0.49
324.827	0.47
325.195	0.5
325.564	0.5
325.932	0.5
326.3	0.5
326.668	0.51
327.036	0.54
327.404	0.54
327.772	0.54
328.14	0.56
328.508	0.56
328.875	0.57
329.243	0.59
329.611	0.59
329.979	0.59
330.346	0.62
330.714	0.62
331.082	0.62
331.449	0.65
331.817	0.64
332.185	0.67
332.552	0.68
332.92	0.69
333.287	0.71
333.655	0.72
334.022	0.73
334.389	0.74
334.757	0.77
335.124	0.77
335.491	0.79
335.859	0.81
336.226	0.81
336.593	0.83
336.96	0.84
337.327	0.84
337.695	0.87
338.062	0.89
338.429	0.9
338.796	0.91
339.163	0.93
339.53	0.94
339.897	0.96
340.263	0.99
340.63	1
340.997	1.01
341.364	1.02
341.731	1.05
342.097	1.08
342.464	1.09
342.831	1.12
343.197	1.14
343.564	1.15
343.931	1.15
344.297	1.18
344.664	1.21
345.03	1.22
345.396	1.23
345.763	1.25
346.129	1.26
346.496	1.29
346.862	1.3
347.228	1.3
347.594	1.32
347.961	1.35
348.327	1.37
348.693	1.38
349.059	1.39
349.425	1.42
349.791	1.42
350.157	1.47
350.523	1.45
350.889	1.47
351.255	1.47
351.621	1.49
351.987	1.51
352.353	1.51
352.719	1.58
353.084	1.55
353.45	1.56
353.816	1.61
354.181	1.57
354.547	1.65
354.913	1.63
355.278	1.63
355.644	1.7
356.009	1.7
356.375	1.71
356.74	1.74
357.106	1.71
357.471	1.73
357.836	1.77
358.202	1.81
358.567	1.79
358.932	1.82
359.297	1.85
359.663	1.87
360.028	1.95
360.393	1.91
360.758	1.92
361.123	1.9
361.488	1.94
361.853	2
362.218	1.98
362.583	2.03
362.948	2.01
363.312	2.04
363.677	2.04
364.042	2.03
364.407	2
364.772	2.03
365.136	2.05
365.501	2.1
365.865	2.09
366.23	2.02
366.595	2.09
366.959	2.17
367.324	2.1
367.688	2.09
368.052	2.15
368.417	2.16
368.781	2.08
369.145	2.07
369.51	2.15
369.874	2.15
370.238	2.17
370.602	2.1
370.967	2.18
371.331	2.08
371.695	2.13
372.059	2.11
372.423	2.08
372.787	2.17
373.151	2.09
373.515	2.12
373.878	2.04
374.242	2.18
374.606	2.24
374.97	2.19
375.334	2.17
375.697	2.09
376.061	2.07
376.425	2.08
376.788	2.05
377.152	2.1
377.515	2.07
377.879	2.06
378.242	2.09
378.606	2.09
378.969	2.03
379.333	2.05
379.696	1.94
380.059	2.06
380.422	2
380.786	2.02
381.149	1.96
381.512	1.96
381.875	1.9
382.238	1.91
382.601	1.9
382.964	1.87
383.327	1.88
383.69	1.81
384.053	1.81
384.416	1.83
384.779	1.78
385.142	1.76
385.504	1.72
385.867	1.72
386.23	1.72
386.593	1.72
386.955	1.71
387.318	1.69
387.68	1.67
388.043	1.67
388.405	1.68
388.768	1.65
389.13	1.65
389.493	1.61
389.855	1.6
390.217	1.6
390.58	1.58
390.942	1.58
391.304	1.58
391.666	1.52
392.028	1.52
392.391	1.5
392.753	1.46
393.115	1.44
393.477	1.43
393.839	1.42
394.201	1.39
394.563	1.4
394.924	1.39
395.286	1.4
395.648	1.39
396.01	1.37
396.371	1.39
396.733	1.4
397.095	1.43
397.456	1.45
397.818	1.45
398.18	1.47
398.541	1.5
398.903	1.55
399.264	1.57
399.625	1.61
399.987	1.62
400.348	1.63
400.709	1.65
401.071	1.66
401.432	1.64
401.793	1.69
402.154	1.66
402.515	1.63
402.876	1.61
403.238	1.58
403.599	1.54
403.96	1.49
404.32	1.44
404.681	1.4
405.042	1.36
405.403	1.3
405.764	1.24
406.125	1.18
406.485	1.13
406.846	1.08
407.207	1.03
407.567	0.98
407.928	0.94
408.288	0.88
408.649	0.84
409.009	0.78
409.37	0.75
409.73	0.71
410.091	0.67
410.451	0.64
410.811	0.62
411.171	0.59
411.532	0.56
411.892	0.53
412.252	0.52
412.612	0.48
412.972	0.47
413.332	0.44
413.692	0.43
414.052	0.41
414.412	0.4
414.772	0.39
415.132	0.37
415.492	0.36
415.851	0.36
416.211	0.33
416.571	0.33
416.931	0.32
417.29	0.31
417.65	0.3
418.009	0.29
418.369	0.29
418.728	0.29
419.088	0.28
419.447	0.27
419.807	0.25
420.166	0.26
420.525	0.25
420.884	0.25
421.244	0.25
421.603	0.25
421.962	0.23
422.321	0.23
422.68	0.23
423.039	0.22
423.398	0.22
423.757	0.22
424.116	0.23
424.475	0.22
424.834	0.21
425.193	0.21
425.551	0.21
425.91	0.2
426.269	0.2
426.628	0.2
426.986	0.21
427.345	0.21
427.703	0.2
428.062	0.2
428.42	0.2
428.779	0.2
429.137	0.19
429.496	0.19
429.854	0.19
430.212	0.2
430.57	0.19
430.929	0.18
431.287	0.18
431.645	0.19
432.003	0.18
432.361	0.19
432.719	0.18
433.077	0.18
433.435	0.18
433.793	0.19
434.151	0.19
434.509	0.18
434.866	0.17
435.224	0.18
435.582	0.18
435.94	0.19
436.297	0.19
436.655	0.19
437.012	0.18
437.37	0.19
437.727	0.19
438.085	0.19
438.442	0.18
438.8	0.19
439.157	0.19
439.514	0.19
439.872	0.19
440.229	0.18
440.586	0.18
440.943	0.19
441.3	0.19
441.657	0.19
442.014	0.19
442.371	0.19
442.728	0.19
443.085	0.19
443.442	0.19
443.799	0.19
444.156	0.19
444.513	0.19
444.869	0.19
445.226	0.2
445.583	0.2
445.939	0.2
446.296	0.2
446.652	0.2
447.009	0.2
447.365	0.19
447.722	0.2
448.078	0.19
448.434	0.2
448.791	0.2
449.147	0.21
449.503	0.2
449.859	0.19
450.215	0.2
450.571	0.2
450.928	0.2
451.284	0.21
451.64	0.2
451.995	0.19
452.351	0.19
452.707	0.21
453.063	0.2
453.419	0.2
453.775	0.2
454.13	0.2
454.486	0.21
454.842	0.2
455.197	0.2
455.553	0.19
455.908	0.2
456.264	0.19
456.619	0.19
456.975	0.19
457.33	0.2
457.685	0.18
458.04	0.19
458.396	0.19
458.751	0.18
459.106	0.18
459.461	0.18
459.816	0.17
460.171	0.17
460.526	0.17
460.881	0.16
461.236	0.16
461.591	0.17
461.946	0.16
462.301	0.16
462.655	0.16
463.01	0.16
463.365	0.16
463.719	0.14
464.074	0.13
464.428	0.13
464.783	0.13
465.137	0.14
465.492	0.13
465.846	0.13
466.201	0.14
466.555	0.14
466.909	0.14
467.263	0.15
467.618	0.15
467.972	0.16
468.326	0.15
468.68	0.14
469.034	0.15
469.388	0.14
469.742	0.14
470.096	0.15
470.45	0.16
470.804	0.16
471.157	0.17
471.511	0.16
471.865	0.16
472.218	0.17
472.572	0.18
472.926	0.18
473.279	0.2
473.633	0.2
473.986	0.22
474.34	0.22
474.693	0.23
475.046	0.24
475.4	0.25
475.753	0.27
476.106	0.27
476.459	0.28
476.812	0.3
477.165	0.31
477.519	0.32
477.872	0.32
478.224	0.33
478.577	0.35
478.93	0.36
479.283	0.36
479.636	0.37
479.989	0.38
480.341	0.39
480.694	0.4
481.047	0.4
481.399	0.42
481.752	0.43
482.104	0.44
482.457	0.44
482.809	0.45
483.162	0.46
483.514	0.47
483.866	0.47
484.219	0.47
484.571	0.47
484.923	0.48
485.275	0.5
485.627	0.5
485.979	0.51
486.331	0.52
486.683	0.53
487.035	0.54
487.387	0.54
487.739	0.55
488.091	0.56
488.443	0.57
488.794	0.57
489.146	0.57
489.498	0.58
489.849	0.58
490.201	0.59
490.552	0.59
490.904	0.6
491.255	0.61
491.607	0.62
491.958	0.62
492.309	0.62
492.661	0.63
493.012	0.63
493.363	0.64
493.714	0.64
494.065	0.64
494.416	0.66
494.767	0.67
495.118	0.67
495.469	0.67
495.82	0.68
496.171	0.69
496.522	0.7
496.872	0.7
497.223	0.7
497.574	0.71
497.924	0.72
498.275	0.72
498.626	0.73
498.976	0.74
499.327	0.74
499.677	0.74
500.027	0.75
500.378	0.75
500.728	0.76
501.078	0.77
501.428	0.77
501.779	0.77
502.129	0.78
502.479	0.79
502.829	0.79
503.179	0.8
503.529	0.8
503.879	0.82
504.229	0.82
504.578	0.82
504.928	0.83
505.278	0.83
505.628	0.84
505.977	0.85
506.327	0.85
506.676	0.86
507.026	0.86
507.375	0.87
507.725	0.87
508.074	0.87
508.424	0.88
508.773	0.88
509.122	0.89
509.471	0.89
509.82	0.9
510.17	0.9
510.519	0.91
510.868	0.92
511.217	0.91
511.566	0.91
511.915	0.93
512.263	0.94
512.612	0.94
512.961	0.95
513.31	0.94
513.659	0.94
514.007	0.96
514.356	0.96
514.704	0.96
515.053	0.97
515.401	0.98
515.75	0.98
516.098	0.99
516.447	0.98
516.795	0.99
517.143	0.99
517.491	1.01
517.839	1
518.188	1
518.536	1.01
518.884	1.02
519.232	1.02
519.58	1.03
519.928	1.02
520.275	1.03
520.623	1.04
520.971	1.04
521.319	1.04
521.666	1.06
522.014	1.04
522.362	1.05
522.709	1.06
523.057	1.07
523.404	1.06
523.752	1.06
524.099	1.07
524.446	1.08
524.794	1.07
525.141	1.07
525.488	1.09
525.835	1.09
526.182	1.09
526.529	1.1
526.876	1.1
527.223	1.1
527.57	1.08
527.917	1.1
528.264	1.11
528.611	1.1
528.958	1.11
529.304	1.12
529.651	1.12
529.998	1.12
530.344	1.12
530.691	1.13
531.037	1.13
531.384	1.14
531.73	1.14
532.076	1.14
532.423	1.13
532.769	1.13
533.115	1.15
533.461	1.13
533.807	1.15
534.154	1.14
534.5	1.14
534.846	1.15
535.192	1.16
535.537	1.15
535.883	1.15
536.229	1.16
536.575	1.16
536.921	1.17
537.266	1.17
537.612	1.17
537.957	1.17
538.303	1.17
538.649	1.18
538.994	1.18
539.339	1.18
539.685	1.18
540.03	1.18
540.375	1.18
540.721	1.18
541.066	1.19
541.411	1.18
541.756	1.19
542.101	1.19
542.446	1.19
542.791	1.2
543.136	1.19
543.481	1.19
543.825	1.19
544.17	1.19
544.515	1.2
544.86	1.2
545.204	1.2
545.549	1.2
545.893	1.2
546.238	1.19
546.582	1.2
546.927	1.2
547.271	1.2
547.615	1.2
547.96	1.2
548.304	1.19
548.648	1.2
548.992	1.2
549.336	1.2
549.68	1.2
550.024	1.21
550.368	1.21
550.712	1.2
551.056	1.2
551.4	1.21
551.743	1.2
552.087	1.2
552.431	1.2
552.774	1.19
553.118	1.21
553.462	1.2
553.805	1.19
554.148	1.2
554.492	1.19
554.835	1.19
555.178	1.2
555.522	1.19
555.865	1.2
556.208	1.2
556.551	1.19
556.894	1.19
557.237	1.2
557.58	1.2
557.923	1.19
558.266	1.18
558.609	1.19
558.952	1.2
559.294	1.18
559.637	1.18
559.98	1.19
560.322	1.19
560.665	1.18
561.007	1.18
561.35	1.18
561.692	1.17
562.034	1.18
562.377	1.17
562.719	1.18
563.061	1.17
563.403	1.17
563.745	1.18
564.088	1.17
564.43	1.17
564.772	1.16
565.113	1.16
565.455	1.16
565.797	1.16
566.139	1.17
566.481	1.16
566.822	1.16
567.164	1.15
567.506	1.15
567.847	1.15
568.189	1.15
568.53	1.15
568.872	1.15
569.213	1.13
569.554	1.14
569.895	1.14
570.237	1.13
570.578	1.13
570.919	1.12
571.26	1.13
571.601	1.12
571.942	1.12
572.283	1.11
572.624	1.11
572.965	1.11
573.306	1.11
573.646	1.11
573.987	1.1
574.328	1.1
574.668	1.1
575.009	1.1
575.349	1.09
575.69	1.09
576.03	1.09
576.37	1.09
576.711	1.08
577.051	1.08
577.391	1.08
577.731	1.08
578.072	1.08
578.412	1.08
578.752	1.07
579.092	1.06
579.431	1.05
579.771	1.03
580.111	1.03
580.451	1.05
580.791	1.06
581.13	1.06
581.47	1.05
581.81	1.05
582.149	1.04
582.489	1.05
582.828	1.03
583.167	1
583.507	0.96
583.846	0.96
584.185	1
584.525	1.02
584.864	1.03
585.203	1.04
585.542	1.04
585.881	1.03
586.22	1.03
586.559	1.01
586.898	1.01
587.236	1
587.575	1.01
587.914	1.01
588.252	1.02
588.591	1.01
588.93	1.01
589.268	1.01
589.607	1.01
589.945	1.01
590.283	1.02
590.622	1.01
590.96	1.01
591.298	1.01
591.636	1.02
591.974	1.01
592.313	1.01
592.651	1.01
592.989	1
593.326	1.01
593.664	1.01
594.002	1
594.34	1
594.678	1
595.015	0.99
595.353	0.98
595.691	1
596.028	1
596.366	1
596.703	0.99
597.04	1
597.378	0.99
597.715	1
598.052	1
598.389	1
598.726	0.99
599.064	0.99
599.401	1
599.738	1
600.074	0.99
600.411	0.99
600.748	0.98
601.085	0.98
601.422	0.97
601.758	0.97
602.095	0.97
602.432	0.97
602.768	0.97
603.105	0.98
603.441	0.97
603.777	0.98
604.114	0.97
604.45	0.97
604.786	0.97
605.122	0.96
605.459	0.96
605.795	0.96
606.131	0.96
606.467	0.96
606.803	0.95
607.139	0.95
607.474	0.95
607.81	0.94
608.146	0.94
608.482	0.94
608.817	0.94
609.153	0.93
609.488	0.92
609.824	0.93
610.159	0.92
610.495	0.92
610.83	0.92
611.165	0.92
611.5	0.91
611.836	0.9
612.171	0.9
612.506	0.9
612.841	0.9
613.176	0.9
613.511	0.89
613.845	0.89
614.18	0.89
614.515	0.89
614.85	0.88
615.184	0.88
615.519	0.88
615.854	0.88
616.188	0.87
616.523	0.87
616.857	0.86
617.191	0.87
617.526	0.86
617.86	0.86
618.194	0.86
618.528	0.85
618.862	0.85
619.196	0.84
619.53	0.84
619.864	0.84
620.198	0.83
620.532	0.83
620.866	0.83
621.2	0.83
621.533	0.83
621.867	0.82
622.201	0.82
622.534	0.81
622.868	0.81
623.201	0.8
623.534	0.79
623.868	0.8
624.201	0.8
624.534	0.79
624.868	0.79
625.201	0.78
625.534	0.79
625.867	0.78
626.2	0.78
626.533	0.78
626.865	0.78
627.198	0.77
627.531	0.76
627.864	0.76
628.196	0.75
628.529	0.75
628.862	0.74
629.194	0.74
629.527	0.74
629.859	0.74
630.191	0.73
630.524	0.73
630.856	0.72
631.188	0.72
631.52	0.72
631.852	0.71
632.184	0.7
632.516	0.7
632.848	0.7
633.18	0.7
633.512	0.69
633.844	0.68
634.175	0.68
634.507	0.68
634.839	0.67
635.17	0.68
635.502	0.66
635.833	0.66
636.165	0.66
636.496	0.65
636.827	0.65
637.159	0.64
637.49	0.64
637.821	0.63
638.152	0.63
638.483	0.63
638.814	0.63
639.145	0.62
639.476	0.61
639.807	0.61
640.137	0.61
640.468	0.6
640.799	0.6
641.129	0.59
641.46	0.59
641.791	0.58
642.121	0.58
642.451	0.58
642.782	0.58
643.112	0.57
643.442	0.57
643.773	0.56
644.103	0.56
644.433	0.56
644.763	0.56
645.093	0.56
645.423	0.55
645.753	0.55
646.082	0.54
646.412	0.55
646.742	0.54
647.072	0.54
647.401	0.53
647.731	0.53
648.06	0.53
648.39	0.53
648.719	0.53
649.048	0.53
649.378	0.52
649.707	0.52
650.036	0.52
650.365	0.51
650.694	0.51
651.023	0.51
651.352	0.5
651.681	0.51
652.01	0.5
652.339	0.5
652.668	0.5
652.996	0.5
653.325	0.49
653.654	0.5
653.982	0.49
654.311	0.49
654.639	0.49
654.967	0.49
655.296	0.49
655.624	0.48
655.952	0.48
656.28	0.48
656.609	0.48
656.937	0.48
657.265	0.45
657.593	0.3
657.92	0.2
658.248	0.18
658.576	0.26
658.904	0.38
659.231	0.46
659.559	0.47
659.887	0.46
660.214	0.45
660.542	0.46
660.869	0.45
661.196	0.45
661.524	0.45
661.851	0.45
662.178	0.45
662.505	0.45
662.832	0.45
663.159	0.44
663.486	0.44
663.813	0.44
664.14	0.43
664.467	0.43
664.794	0.43
665.12	0.43
665.447	0.43
665.774	0.43
666.1	0.43
666.427	0.42
666.753	0.42
667.079	0.42
667.406	0.41
667.732	0.41
668.058	0.41
668.384	0.41
668.71	0.41
669.036	0.41
669.362	0.4
669.688	0.4
670.014	0.4
670.34	0.4
670.666	0.39
670.991	0.39
671.317	0.39
671.643	0.38
671.968	0.38
672.294	0.38
672.619	0.38
672.945	0.37
673.27	0.37
673.595	0.36
673.92	0.36
674.246	0.36
674.571	0.36
674.896	0.35
675.221	0.35
675.546	0.35
675.87	0.35
676.195	0.34
676.52	0.35
676.845	0.34
677.169	0.34
677.494	0.33
677.819	0.33
678.143	0.32
678.468	0.32
678.792	0.32
679.116	0.33
679.44	0.32
679.765	0.32
680.089	0.31
680.413	0.31
680.737	0.3
681.061	0.3
681.385	0.3
681.709	0.29
682.033	0.29
682.356	0.29
682.68	0.29
683.004	0.28
683.327	0.28
683.651	0.28
683.974	0.27
684.298	0.27
684.621	0.27
684.944	0.26
685.268	0.26
685.591	0.26
685.914	0.25
686.237	0.25
686.56	0.25
686.883	0.25
687.206	0.24
687.529	0.24
687.852	0.23
688.175	0.24
688.497	0.24
688.82	0.23
689.142	0.23
689.465	0.23
689.787	0.23
690.11	0.22
690.432	0.22
690.755	0.22
691.077	0.21
691.399	0.21
691.721	0.21
692.043	0.21
692.365	0.2
692.687	0.2
693.009	0.2
693.331	0.19
693.653	0.19
693.974	0.19
694.296	0.19
694.618	0.19
694.939	0.18
695.261	0.18
695.582	0.18
695.904	0.18
696.225	0.18
696.546	0.18
696.868	0.18
697.189	0.17
697.51	0.17
697.831	0.17
698.152	0.17
698.473	0.16
698.794	0.15
699.114	0.15
699.435	0.14
699.756	0.15
700.077	0.15
700.397	0.15
700.718	0.15
701.038	0.15
701.359	0.16
701.679	0.15
701.999	0.15
702.32	0.15
702.64	0.15
702.96	0.15
703.28	0.15
703.6	0.15
703.92	0.14
704.24	0.14
704.56	0.14
704.879	0.14
705.199	0.14
705.519	0.14
705.838	0.14
706.158	0.14
706.478	0.14
706.797	0.14
707.116	0.14
707.436	0.14
707.755	0.14
708.074	0.14
708.393	0.13
708.712	0.12
709.031	0.11
709.35	0.11
709.669	0.11
709.988	0.12
710.307	0.12
710.626	0.13
710.944	0.13
711.263	0.13
711.582	0.13
711.9	0.13
712.219	0.13
712.537	0.13
712.855	0.13
713.174	0.13
713.492	0.13
713.81	0.13
714.128	0.13
714.446	0.13
714.764	0.12
715.082	0.12
715.4	0.12
715.718	0.12
716.035	0.12
716.353	0.13
716.671	0.12
716.988	0.12
717.306	0.12
717.623	0.13
717.941	0.13
718.258	0.14
718.575	0.14
718.893	0.14
719.21	0.13
719.527	0.13
719.844	0.13
720.161	0.13
720.478	0.13
720.795	0.13
721.112	0.13
721.428	0.14
721.745	0.14
722.062	0.14
722.378	0.14
722.695	0.14
723.011	0.14
723.328	0.14
723.644	0.14
723.96	0.14
724.276	0.14
724.593	0.14
724.909	0.14
725.225	0.14
725.541	0.14
725.857	0.14
726.173	0.14
726.488	0.14
726.804	0.13
727.12	0.13
727.435	0.13
727.751	0.13
728.067	0.13
728.382	0.13
728.697	0.13
729.013	0.14
729.328	0.13
729.643	0.13
729.958	0.13
730.273	0.13
730.588	0.13
730.903	0.13
731.218	0.13
731.533	0.13
731.848	0.13
732.163	0.13
732.477	0.13
732.792	0.13
733.107	0.12
733.421	0.13
733.736	0.13
734.05	0.13
734.364	0.12
734.678	0.13
734.993	0.12
735.307	0.13
735.621	0.12
735.935	0.12
736.249	0.12
736.563	0.12
736.877	0.12
737.19	0.13
737.504	0.12
737.818	0.12
738.131	0.12
738.445	0.13
738.758	0.13
739.072	0.12
739.385	0.13
739.698	0.13
740.012	0.13
740.325	0.12
740.638	0.12
740.951	0.12
741.264	0.12
741.577	0.12
741.89	0.12
742.203	0.12
742.515	0.12
742.828	0.12
743.141	0.12
743.453	0.12
743.766	0.12
744.078	0.11
744.391	0.11
744.703	0.11
745.015	0.11
745.327	0.11
745.639	0.11
745.952	0.11
746.264	0.11
746.575	0.11
746.887	0.11
747.199	0.11
747.511	0.11
747.823	0.11
748.134	0.1
748.446	0.1
748.757	0.1
749.069	0.1
749.38	0.1
749.692	0.09
750.003	0.09
750.314	0.08
750.625	0.08
750.936	0.09
751.248	0.09
751.559	0.09
751.869	0.09
752.18	0.09
752.491	0.09
752.802	0.09
753.112	0.09
753.423	0.08
753.734	0.08
754.044	0.08
754.355	0.08
754.665	0.07
754.975	0.07
755.285	0.08
755.596	0.08
755.906	0.08
756.216	0.07
756.526	0.07
756.836	0.07
757.146	0.07
757.455	0.07
757.765	0.07
758.075	0.07
758.385	0.07
758.694	0.07
759.004	0.07
759.313	0.06
759.622	0.07
759.932	0.07
760.241	0.07
760.55	0.07
760.859	0.07
761.168	0.07
761.477	0.07
761.786	0.07
762.095	0.07
762.404	0.07
762.713	0.07
763.021	0.07
763.33	0.07
763.639	0.07
763.947	0.07
764.256	0.07
764.564	0.07
764.872	0.07
765.181	0.07
765.489	0.07
765.797	0.06
766.105	0.06
766.413	0.06
766.721	0.07
767.029	0.07
767.337	0.07
767.644	0.07
767.952	0.07
768.26	0.07
768.567	0.07
768.875	0.07
769.182	0.07
769.49	0.07
769.797	0.07
770.104	0.07
770.411	0.07
770.718	0.06
771.026	0.07
771.333	0.06
771.639	0.06
771.946	0.06
772.253	0.07
772.56	0.07
772.867	0.07
773.173	0.07
773.48	0.07
773.786	0.07
774.093	0.07
774.399	0.07
774.705	0.07
775.012	0.07
775.318	0.07
775.624	0.07
775.93	0.07
776.236	0.07
776.542	0.07
776.848	0.08
777.154	0.08
777.459	0.08
777.765	0.08
778.071	0.07
778.376	0.08
778.682	0.07
778.987	0.07
779.292	0.07
779.598	0.07
779.903	0.07
780.208	0.07
780.513	0.07
780.818	0.07
781.123	0.07
781.428	0.07
781.733	0.07
782.038	0.07
782.343	0.07
782.647	0.07
782.952	0.07
783.256	0.07
783.561	0.06
783.865	0.06
784.17	0.07
784.474	0.07
784.778	0.06
785.082	0.07
785.386	0.07
785.69	0.07
785.994	0.07
786.298	0.07
786.602	0.07
786.906	0.07
787.209	0.07
787.513	0.07
787.817	0.08
788.12	0.08
788.424	0.08
788.727	0.08
789.03	0.08
789.333	0.08
789.637	0.08
789.94	0.08
790.243	0.08
790.546	0.08
790.849	0.08
791.152	0.09
791.454	0.09
791.757	0.08
792.06	0.09
792.362	0.09
792.665	0.08
792.967	0.08
793.27	0.09
793.572	0.09
793.874	0.09
794.177	0.09
794.479	0.09
794.781	0.09
795.083	0.1
795.385	0.09
795.687	0.1
795.989	0.1
796.29	0.1
796.592	0.1
796.894	0.1
797.195	0.09
797.497	0.09
797.798	0.1
798.1	0.09
798.401	0.1
798.702	0.1
799.003	0.09
799.304	0.09
799.605	0.09
799.906	0.09
800.207	0.09
800.508	0.09
800.809	0.1
801.11	0.1
801.41	0.1
801.711	0.1
802.011	0.1
802.312	0.11
802.612	0.1
802.913	0.1
803.213	0.1
803.513	0.1
803.813	0.1
804.113	0.1
804.413	0.1
804.713	0.11
805.013	0.11
805.313	0.11
805.613	0.11
805.912	0.11
806.212	0.11
806.511	0.11
806.811	0.11
807.11	0.11
807.41	0.11
807.709	0.11
808.008	0.11
808.307	0.11
808.606	0.11
808.905	0.11
809.204	0.11
809.503	0.11
809.802	0.11
810.101	0.11
810.399	0.12
810.698	0.12
810.997	0.11
811.295	0.12
811.593	0.12
811.892	0.12
812.19	0.12
812.488	0.12
812.786	0.12
813.084	0.12
813.383	0.12
813.68	0.12
813.978	0.12
814.276	0.12
814.574	0.12
814.872	0.12
815.169	0.12
815.467	0.12
815.764	0.12
816.062	0.12
816.359	0.12
816.656	0.12
816.954	0.12
817.251	0.12
817.548	0.13
817.845	0.12
818.142	0.13
818.439	0.13
818.735	0.13
819.032	0.13
819.329	0.14
819.626	0.14
819.922	0.14
820.219	0.14
820.515	0.14
820.811	0.14
821.108	0.14
821.404	0.14
821.7	0.14
821.996	0.14
822.292	0.14
822.588	0.14
822.884	0.14
823.18	0.14
823.475	0.15
823.771	0.15
824.067	0.15
824.362	0.16
824.658	0.15
824.953	0.15
825.249	0.15
825.544	0.15
825.839	0.15
826.134	0.15
826.429	0.15
826.724	0.15
827.019	0.15
827.314	0.16
827.609	0.15
827.904	0.15
828.198	0.16
828.493	0.15
828.787	0.16
829.082	0.16
829.376	0.16
829.671	0.17
829.965	0.17
830.259	0.17
830.553	0.17
830.847	0.17
831.141	0.17
831.435	0.17
831.729	0.18
832.023	0.17
832.317	0.18
832.61	0.16
832.904	0.17
833.197	0.17
833.491	0.17
833.784	0.18
834.077	0.18
834.371	0.18
834.664	0.18
834.957	0.18
835.25	0.18
835.543	0.17
835.836	0.18
836.129	0.18
836.421	0.18
836.714	0.18
837.007	0.17
837.299	0.18
837.592	0.17
837.884	0.18
838.177	0.17
838.469	0.18
838.761	0.19
839.053	0.18
839.345	0.19
839.637	0.17
839.929	0.19
840.221	0.18
840.513	0.19
840.805	0.19
841.096	0.19
841.388	0.19
841.68	0.19
841.971	0.19
842.262	0.19
842.554	0.19
842.845	0.19
843.136	0.19
843.427	0.2
843.718	0.19
844.009	0.2
844.3	0.19
844.591	0.2
844.882	0.2
845.173	0.2
845.463	0.19
845.754	0.21
846.044	0.19
846.335	0.19
846.625	0.2
846.915	0.19
847.206	0.2
847.496	0.19
847.786	0.2
848.076	0.2
848.366	0.19
848.656	0.19
848.945	0.2
849.235	0.19
849.525	0.19
849.814	0.19
850.104	0.19
850.393	0.2
850.683	0.22
850.972	0.22
851.261	0.21
851.551	0.22
851.84	0.21
852.129	0.21
852.418	0.22
852.707	0.22
852.995	0.22
853.284	0.2
853.573	0.21
853.862	0.2
854.15	0.21
854.439	0.22
854.727	0.21
855.015	0.23
855.304	0.21
855.592	0.22
855.88	0.21
856.168	0.22
856.456	0.22
856.744	0.21
857.032	0.22
857.32	0.21
857.607	0.21
857.895	0.22
858.183	0.23
858.47	0.22
858.757	0.22
859.045	0.24
859.332	0.22
859.619	0.24
859.907	0.23
860.194	0.21
860.481	0.22
860.768	0.23
861.054	0.22
861.341	0.23
861.628	0.23
861.915	0.22
862.201	0.23
862.488	0.22
862.774	0.24
863.061	0.25
863.347	0.24
863.633	0.25
863.919	0.27
864.205	0.23
864.491	0.25
864.777	0.25
865.063	0.23
865.349	0.23
865.635	0.26
865.92	0.24
866.206	0.26
866.492	0.24
866.777	0.28
867.062	0.23
867.348	0.24
867.633	0.23
867.918	0.25
868.203	0.23
868.488	0.24
868.773	0.31
869.058	0.27
869.343	0.26
869.628	0.27
869.912	0.27
870.197	0.24
870.482	0.22
870.766	0.31
871.05	0.25
871.335	0.25
871.619	0.25
871.903	0.27
872.187	0.23
872.471	0.28
872.755	0.33
873.039	0.24
873.323	0.26
873.607	0.24
873.89	0.24
874.174	0.26
874.458	0.27
874.741	0.21
875.024	0.25
875.308	0.3
875.591	0.22
875.874	0.23
876.157	0.14
876.44	0.18
876.723	0.18
877.006	0.34
877.289	0.13
877.572	0.29
877.854	0.23
878.137	0.31
878.42	0.31
878.702	0.26
878.984	0.41
879.267	0.35
879.549	0.26
879.831	0.19
880.113	0.21
880.395	0.29
880.677	0.13
880.959	0.23
