Data from Rubpy_BV_1800_EDTA_Buffered_Absorbance_15-06-15-895.txt Node
Date: Wed Jul 01 15:06:15 BST 2026
User: fpm-admin
Spectrometer: OFX00224
Trigger mode: 0
Integration Time (sec): 7.000000E-2
Scans to average: 3
Nonlinearity correction enabled: false
Boxcar width: 0
Storing dark spectrum: false
XAxis mode: Wavelengths
Number of Pixels in Spectrum: 2136
>>>>>Begin Spectral Data<<<<<
154.91	-0.28
155.289	-0.05
155.669	-0.85
156.048	-0
156.428	-0
156.807	-0
157.186	-0
157.566	-0.66
157.945	0.11
158.325	-0
158.704	-0
159.083	-0.26
159.462	-0
159.842	-0.36
160.221	-0
160.6	-0.24
160.979	0.18
161.359	1.49
161.738	-0.23
162.117	-0.34
162.496	0.08
162.875	-0
163.254	-0
163.633	-0
164.012	0.35
164.391	-0.89
164.77	-0.18
165.149	-0.07
165.528	-1.04
165.907	-0.54
166.286	0.16
166.665	-0.24
167.044	0.65
167.423	0.04
167.802	-0.56
168.181	-0
168.559	-0.7
168.938	-0.76
169.317	-0
169.696	-0
170.074	-0.19
170.453	-0
170.832	-0.86
171.21	-0.59
171.589	0.48
171.968	1.23
172.346	-0
172.725	0.38
173.103	0.15
173.482	1.65
173.861	-0
174.239	0.19
174.617	-0.38
174.996	0.35
175.374	-0.13
175.753	0.1
176.131	-0
176.51	0.3
176.888	-0
177.266	-0
177.645	-0.09
178.023	0.86
178.401	-0.22
178.779	-0.51
179.158	-0
179.536	-0.82
179.914	-0.51
180.292	1.15
180.67	0.19
181.048	-0.64
181.427	-0
181.805	-0
182.183	-1.32
182.561	-0
182.939	-0.41
183.317	-0
183.695	1.03
184.073	-0.02
184.451	0.45
184.829	-0
185.206	0.43
185.584	1.38
185.962	-0
186.34	-0
186.718	-0
187.096	-0.51
187.473	0.02
187.851	-0
188.229	-0
188.607	0.25
188.984	0.26
189.362	0.19
189.74	0.21
190.117	0.14
190.495	0.2
190.872	0.27
191.25	0.26
191.627	0.27
192.005	0.23
192.382	0.03
192.76	0.2
193.137	0.37
193.515	0.23
193.892	0.39
194.269	0.28
194.647	0.23
195.024	0.07
195.401	0.24
195.779	0.32
196.156	0.19
196.533	0.32
196.91	0.16
197.288	0.28
197.665	0.14
198.042	0.41
198.419	0.16
198.796	0.01
199.173	0.25
199.55	0.28
199.927	0.25
200.304	0.29
200.681	0.44
201.058	0.22
201.435	0.22
201.812	0.29
202.189	0.29
202.566	0.35
202.943	0.11
203.32	0.28
203.697	0.19
204.073	0.27
204.45	0.24
204.827	0.27
205.204	0.36
205.58	0.33
205.957	0.21
206.334	0.37
206.71	0.23
207.087	0.31
207.464	0.17
207.84	0.5
208.217	0.35
208.593	0.28
208.97	0.24
209.346	0.37
209.723	0.29
210.099	0.4
210.476	0.28
210.852	0.19
211.228	0.2
211.605	0.31
211.981	0.32
212.357	0.23
212.733	0.45
213.11	0.24
213.486	0.26
213.862	0.35
214.238	0.39
214.614	0.3
214.991	0.25
215.367	0.3
215.743	0.24
216.119	0.23
216.495	0.27
216.871	0.36
217.247	0.2
217.623	0.39
217.999	0.22
218.375	0.34
218.751	0.27
219.127	0.23
219.502	0.21
219.878	0.26
220.254	0.24
220.63	0.31
221.006	0.28
221.381	0.27
221.757	0.27
222.133	0.33
222.508	0.4
222.884	0.21
223.26	0.3
223.635	0.28
224.011	0.29
224.386	0.29
224.762	0.3
225.137	0.44
225.513	0.24
225.888	0.31
226.264	0.34
226.639	0.2
227.014	0.16
227.39	0.35
227.765	0.3
228.14	0.34
228.516	0.34
228.891	0.23
229.266	0.2
229.641	0.3
230.017	0.29
230.392	0.21
230.767	0.39
231.142	0.23
231.517	0.15
231.892	0.26
232.267	0.33
232.642	0.3
233.017	0.41
233.392	0.28
233.767	0.35
234.142	0.15
234.517	0.39
234.892	0.26
235.267	0.17
235.641	0.27
236.016	0.24
236.391	0.33
236.766	0.28
237.14	0.26
237.515	0.29
237.89	0.3
238.264	0.22
238.639	0.25
239.014	0.27
239.388	0.25
239.763	0.42
240.137	0.28
240.512	0.23
240.886	0.27
241.261	0.36
241.635	0.15
242.009	0.29
242.384	0.33
242.758	0.22
243.132	0.36
243.507	0.2
243.881	0.3
244.255	0.26
244.629	0.47
245.004	0.32
245.378	0.24
245.752	0.32
246.126	0.38
246.5	0.32
246.874	0.32
247.248	0.26
247.622	0.44
247.996	0.21
248.37	0.23
248.744	0.29
249.118	0.17
249.492	0.32
249.866	0.33
250.24	0.31
250.613	0.31
250.987	0.23
251.361	0.41
251.735	0.22
252.108	0.31
252.482	0.31
252.856	0.15
253.229	0.34
253.603	0.3
253.977	0.27
254.35	0.33
254.724	0.29
255.097	0.27
255.471	0.24
255.844	0.24
256.218	0.27
256.591	0.21
256.964	0.3
257.338	0.24
257.711	0.2
258.084	0.19
258.458	0.29
258.831	0.3
259.204	0.27
259.577	0.3
259.95	0.29
260.323	0.33
260.697	0.28
261.07	0.29
261.443	0.24
261.816	0.23
262.189	0.37
262.562	0.35
262.935	0.31
263.308	0.4
263.68	0.4
264.053	0.32
264.426	0.26
264.799	0.31
265.172	0.27
265.545	0.31
265.917	0.36
266.29	0.24
266.663	0.42
267.035	0.24
267.408	0.35
267.781	0.3
268.153	0.36
268.526	0.25
268.898	0.29
269.271	0.32
269.643	0.27
270.016	0.28
270.388	0.27
270.76	0.33
271.133	0.34
271.505	0.22
271.877	0.3
272.25	0.33
272.622	0.44
272.994	0.4
273.366	0.31
273.739	0.17
274.111	0.31
274.483	0.28
274.855	0.26
275.227	0.32
275.599	0.21
275.971	0.33
276.343	0.31
276.715	0.27
277.087	0.36
277.459	0.26
277.831	0.5
278.203	0.37
278.574	0.24
278.946	0.23
279.318	0.27
279.69	0.29
280.061	0.28
280.433	0.26
280.805	0.25
281.176	0.27
281.548	0.29
281.92	0.27
282.291	0.28
282.663	0.29
283.034	0.22
283.406	0.27
283.777	0.29
284.148	0.27
284.52	0.38
284.891	0.31
285.262	0.24
285.634	0.27
286.005	0.32
286.376	0.3
286.747	0.47
287.119	0.31
287.49	0.25
287.861	0.28
288.232	0.32
288.603	0.37
288.974	0.32
289.345	0.31
289.716	0.44
290.087	0.28
290.458	0.37
290.829	0.31
291.2	0.18
291.571	0.3
291.941	0.35
292.312	0.34
292.683	0.32
293.054	0.4
293.424	0.47
293.795	0.26
294.166	0.28
294.536	0.26
294.907	0.34
295.277	0.31
295.648	0.27
296.018	0.34
296.389	0.29
296.759	0.31
297.13	0.26
297.5	0.24
297.871	0.28
298.241	0.25
298.611	0.31
298.981	0.25
299.352	0.3
299.722	0.34
300.092	0.32
300.462	0.27
300.832	0.31
301.202	0.33
301.573	0.39
301.943	0.28
302.313	0.31
302.683	0.26
303.053	0.33
303.422	0.31
303.792	0.31
304.162	0.28
304.532	0.24
304.902	0.28
305.272	0.28
305.641	0.27
306.011	0.27
306.381	0.34
306.75	0.24
307.12	0.25
307.49	0.27
307.859	0.3
308.229	0.23
308.598	0.25
308.968	0.23
309.337	0.25
309.707	0.2
310.076	0.24
310.445	0.27
310.815	0.23
311.184	0.24
311.553	0.25
311.923	0.21
312.292	0.24
312.661	0.23
313.03	0.24
313.399	0.19
313.768	0.21
314.137	0.23
314.506	0.23
314.875	0.21
315.244	0.23
315.613	0.23
315.982	0.25
316.351	0.25
316.72	0.26
317.089	0.26
317.458	0.24
317.826	0.24
318.195	0.25
318.564	0.25
318.933	0.24
319.301	0.27
319.67	0.27
320.038	0.27
320.407	0.28
320.775	0.26
321.144	0.28
321.512	0.26
321.881	0.28
322.249	0.28
322.618	0.29
322.986	0.29
323.354	0.29
323.723	0.31
324.091	0.29
324.459	0.31
324.827	0.3
325.195	0.31
325.564	0.33
325.932	0.32
326.3	0.33
326.668	0.32
327.036	0.33
327.404	0.34
327.772	0.34
328.14	0.36
328.508	0.36
328.875	0.35
329.243	0.37
329.611	0.37
329.979	0.37
330.346	0.38
330.714	0.39
331.082	0.39
331.449	0.4
331.817	0.4
332.185	0.41
332.552	0.42
332.92	0.43
333.287	0.43
333.655	0.43
334.022	0.44
334.389	0.46
334.757	0.46
335.124	0.49
335.491	0.49
335.859	0.5
336.226	0.5
336.593	0.5
336.96	0.52
337.327	0.53
337.695	0.54
338.062	0.54
338.429	0.56
338.796	0.57
339.163	0.58
339.53	0.59
339.897	0.59
340.263	0.6
340.63	0.62
340.997	0.63
341.364	0.64
341.731	0.65
342.097	0.66
342.464	0.67
342.831	0.68
343.197	0.7
343.564	0.7
343.931	0.72
344.297	0.73
344.664	0.74
345.03	0.75
345.396	0.76
345.763	0.78
346.129	0.79
346.496	0.8
346.862	0.8
347.228	0.81
347.594	0.81
347.961	0.83
348.327	0.85
348.693	0.86
349.059	0.87
349.425	0.88
349.791	0.89
350.157	0.9
350.523	0.91
350.889	0.93
351.255	0.93
351.621	0.94
351.987	0.95
352.353	0.96
352.719	0.97
353.084	0.99
353.45	1
353.816	1.01
354.181	1.02
354.547	1.03
354.913	1.04
355.278	1.06
355.644	1.07
356.009	1.09
356.375	1.09
356.74	1.09
357.106	1.12
357.471	1.12
357.836	1.14
358.202	1.17
358.567	1.18
358.932	1.18
359.297	1.2
359.663	1.22
360.028	1.24
360.393	1.25
360.758	1.27
361.123	1.3
361.488	1.3
361.853	1.32
362.218	1.33
362.583	1.34
362.948	1.34
363.312	1.36
363.677	1.39
364.042	1.4
364.407	1.42
364.772	1.43
365.136	1.42
365.501	1.44
365.865	1.48
366.23	1.46
366.595	1.49
366.959	1.5
367.324	1.5
367.688	1.49
368.052	1.51
368.417	1.53
368.781	1.54
369.145	1.56
369.51	1.54
369.874	1.58
370.238	1.6
370.602	1.58
370.967	1.61
371.331	1.58
371.695	1.61
372.059	1.58
372.423	1.6
372.787	1.62
373.151	1.58
373.515	1.59
373.878	1.57
374.242	1.59
374.606	1.6
374.97	1.57
375.334	1.55
375.697	1.54
376.061	1.54
376.425	1.51
376.788	1.5
377.152	1.5
377.515	1.49
377.879	1.47
378.242	1.47
378.606	1.48
378.969	1.44
379.333	1.44
379.696	1.38
380.059	1.38
380.422	1.38
380.786	1.35
381.149	1.34
381.512	1.32
381.875	1.33
382.238	1.29
382.601	1.28
382.964	1.27
383.327	1.26
383.69	1.24
384.053	1.23
384.416	1.21
384.779	1.21
385.142	1.19
385.504	1.19
385.867	1.18
386.23	1.19
386.593	1.17
386.955	1.16
387.318	1.17
387.68	1.17
388.043	1.15
388.405	1.15
388.768	1.14
389.13	1.14
389.493	1.12
389.855	1.13
390.217	1.11
390.58	1.12
390.942	1.09
391.304	1.09
391.666	1.08
392.028	1.07
392.391	1.05
392.753	1.02
393.115	1.02
393.477	1.01
393.839	1
394.201	0.99
394.563	0.99
394.924	0.98
395.286	0.98
395.648	0.99
396.01	0.99
396.371	0.99
396.733	1
397.095	1.03
397.456	1.05
397.818	1.06
398.18	1.09
398.541	1.11
398.903	1.14
399.264	1.15
399.625	1.18
399.987	1.21
400.348	1.22
400.709	1.23
401.071	1.25
401.432	1.24
401.793	1.25
402.154	1.25
402.515	1.24
402.876	1.21
403.238	1.17
403.599	1.15
403.96	1.12
404.32	1.08
404.681	1.05
405.042	1
405.403	0.96
405.764	0.92
406.125	0.87
406.485	0.81
406.846	0.79
407.207	0.74
407.567	0.71
407.928	0.67
408.288	0.63
408.649	0.59
409.009	0.57
409.37	0.53
409.73	0.51
410.091	0.48
410.451	0.46
410.811	0.44
411.171	0.42
411.532	0.38
411.892	0.38
412.252	0.36
412.612	0.34
412.972	0.33
413.332	0.31
413.692	0.3
414.052	0.29
414.412	0.28
414.772	0.27
415.132	0.26
415.492	0.25
415.851	0.24
416.211	0.23
416.571	0.23
416.931	0.23
417.29	0.21
417.65	0.2
418.009	0.2
418.369	0.2
418.728	0.2
419.088	0.19
419.447	0.19
419.807	0.17
420.166	0.18
420.525	0.17
420.884	0.17
421.244	0.16
421.603	0.16
421.962	0.16
422.321	0.16
422.68	0.16
423.039	0.16
423.398	0.15
423.757	0.15
424.116	0.15
424.475	0.15
424.834	0.15
425.193	0.13
425.551	0.14
425.91	0.14
426.269	0.14
426.628	0.13
426.986	0.14
427.345	0.14
427.703	0.13
428.062	0.13
428.42	0.13
428.779	0.14
429.137	0.13
429.496	0.12
429.854	0.12
430.212	0.12
430.57	0.12
430.929	0.12
431.287	0.12
431.645	0.12
432.003	0.12
432.361	0.12
432.719	0.13
433.077	0.12
433.435	0.13
433.793	0.12
434.151	0.12
434.509	0.12
434.866	0.11
435.224	0.12
435.582	0.12
435.94	0.12
436.297	0.12
436.655	0.12
437.012	0.12
437.37	0.13
437.727	0.12
438.085	0.11
438.442	0.12
438.8	0.12
439.157	0.13
439.514	0.13
439.872	0.12
440.229	0.11
440.586	0.11
440.943	0.12
441.3	0.12
441.657	0.12
442.014	0.11
442.371	0.12
442.728	0.12
443.085	0.12
443.442	0.12
443.799	0.12
444.156	0.12
444.513	0.12
444.869	0.12
445.226	0.12
445.583	0.12
445.939	0.13
446.296	0.12
446.652	0.12
447.009	0.12
447.365	0.12
447.722	0.12
448.078	0.11
448.434	0.12
448.791	0.12
449.147	0.13
449.503	0.12
449.859	0.12
450.215	0.11
450.571	0.12
450.928	0.12
451.284	0.13
451.64	0.12
451.995	0.12
452.351	0.12
452.707	0.12
453.063	0.11
453.419	0.11
453.775	0.11
454.13	0.11
454.486	0.12
454.842	0.11
455.197	0.11
455.553	0.1
455.908	0.1
456.264	0.1
456.619	0.11
456.975	0.1
457.33	0.11
457.685	0.1
458.04	0.11
458.396	0.1
458.751	0.1
459.106	0.09
459.461	0.1
459.816	0.08
460.171	0.09
460.526	0.09
460.881	0.07
461.236	0.07
461.591	0.08
461.946	0.08
462.301	0.08
462.655	0.07
463.01	0.07
463.365	0.07
463.719	0.06
464.074	0.06
464.428	0.05
464.783	0.05
465.137	0.05
465.492	0.05
465.846	0.04
466.201	0.04
466.555	0.05
466.909	0.05
467.263	0.06
467.618	0.06
467.972	0.06
468.326	0.06
468.68	0.06
469.034	0.06
469.388	0.05
469.742	0.06
470.096	0.06
470.45	0.07
470.804	0.07
471.157	0.06
471.511	0.07
471.865	0.06
472.218	0.07
472.572	0.08
472.926	0.08
473.279	0.09
473.633	0.1
473.986	0.11
474.34	0.11
474.693	0.12
475.046	0.13
475.4	0.14
475.753	0.14
476.106	0.15
476.459	0.16
476.812	0.16
477.165	0.18
477.519	0.19
477.872	0.19
478.224	0.2
478.577	0.2
478.93	0.21
479.283	0.21
479.636	0.22
479.989	0.23
480.341	0.23
480.694	0.24
481.047	0.24
481.399	0.25
481.752	0.25
482.104	0.26
482.457	0.27
482.809	0.27
483.162	0.28
483.514	0.28
483.866	0.28
484.219	0.29
484.571	0.29
484.923	0.29
485.275	0.3
485.627	0.3
485.979	0.3
486.331	0.32
486.683	0.32
487.035	0.32
487.387	0.33
487.739	0.34
488.091	0.34
488.443	0.34
488.794	0.35
489.146	0.35
489.498	0.35
489.849	0.36
490.201	0.35
490.552	0.36
490.904	0.37
491.255	0.37
491.607	0.37
491.958	0.37
492.309	0.38
492.661	0.38
493.012	0.39
493.363	0.39
493.714	0.39
494.065	0.39
494.416	0.4
494.767	0.41
495.118	0.41
495.469	0.41
495.82	0.42
496.171	0.43
496.522	0.42
496.872	0.43
497.223	0.43
497.574	0.43
497.924	0.44
498.275	0.45
498.626	0.45
498.976	0.45
499.327	0.45
499.677	0.46
500.027	0.46
500.378	0.46
500.728	0.47
501.078	0.47
501.428	0.47
501.779	0.48
502.129	0.48
502.479	0.48
502.829	0.49
503.179	0.49
503.529	0.5
503.879	0.5
504.229	0.5
504.578	0.51
504.928	0.51
505.278	0.51
505.628	0.52
505.977	0.52
506.327	0.52
506.676	0.52
507.026	0.53
507.375	0.53
507.725	0.53
508.074	0.54
508.424	0.54
508.773	0.55
509.122	0.55
509.471	0.55
509.82	0.55
510.17	0.56
510.519	0.56
510.868	0.56
511.217	0.56
511.566	0.57
511.915	0.57
512.263	0.58
512.612	0.57
512.961	0.58
513.31	0.59
513.659	0.59
514.007	0.59
514.356	0.6
514.704	0.59
515.053	0.6
515.401	0.6
515.75	0.6
516.098	0.6
516.447	0.61
516.795	0.61
517.143	0.61
517.491	0.61
517.839	0.62
518.188	0.62
518.536	0.63
518.884	0.63
519.232	0.62
519.58	0.63
519.928	0.64
520.275	0.64
520.623	0.64
520.971	0.64
521.319	0.65
521.666	0.65
522.014	0.65
522.362	0.65
522.709	0.65
523.057	0.66
523.404	0.66
523.752	0.67
524.099	0.66
524.446	0.66
524.794	0.67
525.141	0.67
525.488	0.67
525.835	0.67
526.182	0.68
526.529	0.68
526.876	0.68
527.223	0.68
527.57	0.69
527.917	0.69
528.264	0.69
528.611	0.68
528.958	0.69
529.304	0.69
529.651	0.69
529.998	0.7
530.344	0.7
530.691	0.7
531.037	0.7
531.384	0.71
531.73	0.71
532.076	0.7
532.423	0.7
532.769	0.7
533.115	0.71
533.461	0.71
533.807	0.71
534.154	0.72
534.5	0.73
534.846	0.71
535.192	0.71
535.537	0.72
535.883	0.72
536.229	0.72
536.575	0.73
536.921	0.73
537.266	0.73
537.612	0.73
537.957	0.73
538.303	0.73
538.649	0.73
538.994	0.73
539.339	0.74
539.685	0.74
540.03	0.74
540.375	0.74
540.721	0.74
541.066	0.74
541.411	0.75
541.756	0.74
542.101	0.75
542.446	0.75
542.791	0.75
543.136	0.75
543.481	0.75
543.825	0.75
544.17	0.75
544.515	0.75
544.86	0.76
545.204	0.76
545.549	0.75
545.893	0.76
546.238	0.76
546.582	0.76
546.927	0.76
547.271	0.76
547.615	0.76
547.96	0.76
548.304	0.76
548.648	0.76
548.992	0.76
549.336	0.76
549.68	0.76
550.024	0.76
550.368	0.77
550.712	0.76
551.056	0.76
551.4	0.76
551.743	0.76
552.087	0.76
552.431	0.77
552.774	0.76
553.118	0.77
553.462	0.76
553.805	0.76
554.148	0.76
554.492	0.76
554.835	0.76
555.178	0.76
555.522	0.76
555.865	0.76
556.208	0.76
556.551	0.76
556.894	0.77
557.237	0.76
557.58	0.76
557.923	0.76
558.266	0.76
558.609	0.76
558.952	0.76
559.294	0.76
559.637	0.76
559.98	0.76
560.322	0.76
560.665	0.76
561.007	0.76
561.35	0.75
561.692	0.75
562.034	0.76
562.377	0.75
562.719	0.75
563.061	0.75
563.403	0.75
563.745	0.75
564.088	0.75
564.43	0.75
564.772	0.74
565.113	0.75
565.455	0.74
565.797	0.74
566.139	0.74
566.481	0.75
566.822	0.75
567.164	0.74
567.506	0.74
567.847	0.74
568.189	0.74
568.53	0.74
568.872	0.74
569.213	0.74
569.554	0.73
569.895	0.73
570.237	0.73
570.578	0.73
570.919	0.73
571.26	0.73
571.601	0.72
571.942	0.73
572.283	0.72
572.624	0.72
572.965	0.72
573.306	0.71
573.646	0.71
573.987	0.71
574.328	0.71
574.668	0.71
575.009	0.7
575.349	0.7
575.69	0.7
576.03	0.71
576.37	0.69
576.711	0.69
577.051	0.69
577.391	0.7
577.731	0.7
578.072	0.69
578.412	0.69
578.752	0.69
579.092	0.69
579.431	0.67
579.771	0.65
580.111	0.65
580.451	0.67
580.791	0.68
581.13	0.68
581.47	0.68
581.81	0.68
582.149	0.68
582.489	0.68
582.828	0.66
583.167	0.63
583.507	0.59
583.846	0.59
584.185	0.63
584.525	0.66
584.864	0.67
585.203	0.67
585.542	0.68
585.881	0.67
586.22	0.67
586.559	0.66
586.898	0.65
587.236	0.65
587.575	0.65
587.914	0.65
588.252	0.67
588.591	0.66
588.93	0.66
589.268	0.66
589.607	0.66
589.945	0.66
590.283	0.66
590.622	0.66
590.96	0.66
591.298	0.67
591.636	0.67
591.974	0.67
592.313	0.67
592.651	0.67
592.989	0.66
593.326	0.66
593.664	0.67
594.002	0.66
594.34	0.66
594.678	0.66
595.015	0.65
595.353	0.65
595.691	0.66
596.028	0.66
596.366	0.66
596.703	0.66
597.04	0.66
597.378	0.66
597.715	0.67
598.052	0.67
598.389	0.66
598.726	0.66
599.064	0.66
599.401	0.66
599.738	0.66
600.074	0.66
600.411	0.65
600.748	0.65
601.085	0.65
601.422	0.64
601.758	0.64
602.095	0.65
602.432	0.65
602.768	0.65
603.105	0.65
603.441	0.65
603.777	0.65
604.114	0.64
604.45	0.65
604.786	0.65
605.122	0.65
605.459	0.64
605.795	0.64
606.131	0.64
606.467	0.64
606.803	0.64
607.139	0.64
607.474	0.64
607.81	0.63
608.146	0.63
608.482	0.63
608.817	0.63
609.153	0.62
609.488	0.62
609.824	0.62
610.159	0.62
610.495	0.62
610.83	0.62
611.165	0.62
611.5	0.61
611.836	0.61
612.171	0.61
612.506	0.61
612.841	0.61
613.176	0.61
613.511	0.6
613.845	0.6
614.18	0.6
614.515	0.6
614.85	0.59
615.184	0.59
615.519	0.59
615.854	0.59
616.188	0.59
616.523	0.58
616.857	0.58
617.191	0.58
617.526	0.58
617.86	0.58
618.194	0.58
618.528	0.58
618.862	0.58
619.196	0.57
619.53	0.57
619.864	0.57
620.198	0.57
620.532	0.56
620.866	0.57
621.2	0.56
621.533	0.56
621.867	0.56
622.201	0.55
622.534	0.55
622.868	0.55
623.201	0.55
623.534	0.55
623.868	0.54
624.201	0.54
624.534	0.54
624.868	0.54
625.201	0.53
625.534	0.53
625.867	0.53
626.2	0.53
626.533	0.53
626.865	0.53
627.198	0.52
627.531	0.52
627.864	0.52
628.196	0.51
628.529	0.51
628.862	0.51
629.194	0.51
629.527	0.5
629.859	0.5
630.191	0.5
630.524	0.49
630.856	0.49
631.188	0.49
631.52	0.49
631.852	0.48
632.184	0.48
632.516	0.47
632.848	0.47
633.18	0.47
633.512	0.47
633.844	0.46
634.175	0.46
634.507	0.46
634.839	0.45
635.17	0.45
635.502	0.45
635.833	0.45
636.165	0.44
636.496	0.44
636.827	0.44
637.159	0.43
637.49	0.43
637.821	0.43
638.152	0.43
638.483	0.43
638.814	0.43
639.145	0.42
639.476	0.42
639.807	0.41
640.137	0.41
640.468	0.41
640.799	0.4
641.129	0.4
641.46	0.4
641.791	0.4
642.121	0.4
642.451	0.4
642.782	0.39
643.112	0.39
643.442	0.39
643.773	0.38
644.103	0.38
644.433	0.38
644.763	0.38
645.093	0.38
645.423	0.38
645.753	0.37
646.082	0.37
646.412	0.37
646.742	0.37
647.072	0.37
647.401	0.37
647.731	0.36
648.06	0.36
648.39	0.36
648.719	0.36
649.048	0.36
649.378	0.36
649.707	0.35
650.036	0.35
650.365	0.35
650.694	0.35
651.023	0.35
651.352	0.34
651.681	0.34
652.01	0.34
652.339	0.34
652.668	0.34
652.996	0.34
653.325	0.34
653.654	0.34
653.982	0.33
654.311	0.33
654.639	0.33
654.967	0.33
655.296	0.33
655.624	0.33
655.952	0.33
656.28	0.32
656.609	0.33
656.937	0.33
657.265	0.31
657.593	0.16
657.92	0.07
658.248	0.05
658.576	0.11
658.904	0.23
659.231	0.31
659.559	0.32
659.887	0.32
660.214	0.32
660.542	0.32
660.869	0.31
661.196	0.31
661.524	0.31
661.851	0.31
662.178	0.31
662.505	0.31
662.832	0.3
663.159	0.3
663.486	0.3
663.813	0.3
664.14	0.3
664.467	0.3
664.794	0.29
665.12	0.29
665.447	0.29
665.774	0.29
666.1	0.29
666.427	0.29
666.753	0.29
667.079	0.28
667.406	0.28
667.732	0.28
668.058	0.28
668.384	0.28
668.71	0.28
669.036	0.28
669.362	0.28
669.688	0.27
670.014	0.27
670.34	0.27
670.666	0.27
670.991	0.27
671.317	0.27
671.643	0.26
671.968	0.26
672.294	0.26
672.619	0.26
672.945	0.26
673.27	0.25
673.595	0.25
673.92	0.25
674.246	0.25
674.571	0.25
674.896	0.24
675.221	0.24
675.546	0.24
675.87	0.24
676.195	0.23
676.52	0.24
676.845	0.23
677.169	0.23
677.494	0.23
677.819	0.23
678.143	0.22
678.468	0.23
678.792	0.22
679.116	0.23
679.44	0.22
679.765	0.22
680.089	0.21
680.413	0.21
680.737	0.21
681.061	0.21
681.385	0.2
681.709	0.2
682.033	0.2
682.356	0.2
682.68	0.2
683.004	0.19
683.327	0.19
683.651	0.19
683.974	0.19
684.298	0.19
684.621	0.18
684.944	0.18
685.268	0.18
685.591	0.18
685.914	0.17
686.237	0.17
686.56	0.17
686.883	0.16
687.206	0.16
687.529	0.16
687.852	0.16
688.175	0.16
688.497	0.16
688.82	0.16
689.142	0.16
689.465	0.15
689.787	0.15
690.11	0.15
690.432	0.15
690.755	0.15
691.077	0.15
691.399	0.15
691.721	0.14
692.043	0.14
692.365	0.14
692.687	0.13
693.009	0.13
693.331	0.13
693.653	0.13
693.974	0.13
694.296	0.13
694.618	0.13
694.939	0.13
695.261	0.12
695.582	0.12
695.904	0.12
696.225	0.13
696.546	0.13
696.868	0.12
697.189	0.12
697.51	0.11
697.831	0.12
698.152	0.12
698.473	0.11
698.794	0.1
699.114	0.1
699.435	0.09
699.756	0.1
700.077	0.1
700.397	0.1
700.718	0.1
701.038	0.1
701.359	0.11
701.679	0.1
701.999	0.1
702.32	0.1
702.64	0.1
702.96	0.1
703.28	0.1
703.6	0.1
703.92	0.1
704.24	0.09
704.56	0.09
704.879	0.09
705.199	0.09
705.519	0.09
705.838	0.09
706.158	0.09
706.478	0.1
706.797	0.1
707.116	0.09
707.436	0.09
707.755	0.09
708.074	0.09
708.393	0.09
708.712	0.08
709.031	0.07
709.35	0.07
709.669	0.07
709.988	0.08
710.307	0.08
710.626	0.08
710.944	0.09
711.263	0.09
711.582	0.09
711.9	0.09
712.219	0.08
712.537	0.08
712.855	0.08
713.174	0.08
713.492	0.08
713.81	0.09
714.128	0.09
714.446	0.09
714.764	0.08
715.082	0.07
715.4	0.08
715.718	0.08
716.035	0.08
716.353	0.08
716.671	0.09
716.988	0.09
717.306	0.08
717.623	0.09
717.941	0.09
718.258	0.09
718.575	0.09
718.893	0.09
719.21	0.09
719.527	0.09
719.844	0.09
720.161	0.09
720.478	0.09
720.795	0.09
721.112	0.09
721.428	0.09
721.745	0.09
722.062	0.09
722.378	0.1
722.695	0.1
723.011	0.1
723.328	0.1
723.644	0.1
723.96	0.1
724.276	0.1
724.593	0.1
724.909	0.1
725.225	0.1
725.541	0.09
725.857	0.1
726.173	0.1
726.488	0.1
726.804	0.09
727.12	0.09
727.435	0.09
727.751	0.09
728.067	0.09
728.382	0.09
728.697	0.09
729.013	0.1
729.328	0.09
729.643	0.09
729.958	0.09
730.273	0.09
730.588	0.09
730.903	0.09
731.218	0.09
731.533	0.09
731.848	0.09
732.163	0.09
732.477	0.09
732.792	0.09
733.107	0.08
733.421	0.09
733.736	0.08
734.05	0.09
734.364	0.08
734.678	0.08
734.993	0.08
735.307	0.09
735.621	0.08
735.935	0.08
736.249	0.08
736.563	0.08
736.877	0.09
737.19	0.09
737.504	0.08
737.818	0.08
738.131	0.09
738.445	0.09
738.758	0.09
739.072	0.09
739.385	0.09
739.698	0.09
740.012	0.09
740.325	0.09
740.638	0.08
740.951	0.08
741.264	0.08
741.577	0.08
741.89	0.08
742.203	0.08
742.515	0.08
742.828	0.08
743.141	0.08
743.453	0.08
743.766	0.08
744.078	0.08
744.391	0.08
744.703	0.07
745.015	0.08
745.327	0.07
745.639	0.07
745.952	0.07
746.264	0.08
746.575	0.08
746.887	0.08
747.199	0.07
747.511	0.07
747.823	0.07
748.134	0.07
748.446	0.07
748.757	0.07
749.069	0.06
749.38	0.06
749.692	0.06
750.003	0.06
750.314	0.06
750.625	0.06
750.936	0.06
751.248	0.06
751.559	0.06
751.869	0.06
752.18	0.06
752.491	0.06
752.802	0.05
753.112	0.05
753.423	0.05
753.734	0.05
754.044	0.05
754.355	0.05
754.665	0.05
754.975	0.05
755.285	0.05
755.596	0.05
755.906	0.05
756.216	0.05
756.526	0.05
756.836	0.04
757.146	0.05
757.455	0.05
757.765	0.05
758.075	0.04
758.385	0.04
758.694	0.04
759.004	0.04
759.313	0.04
759.622	0.04
759.932	0.04
760.241	0.05
760.55	0.05
760.859	0.04
761.168	0.05
761.477	0.05
761.786	0.05
762.095	0.04
762.404	0.04
762.713	0.05
763.021	0.04
763.33	0.04
763.639	0.05
763.947	0.05
764.256	0.05
764.564	0.05
764.872	0.05
765.181	0.05
765.489	0.04
765.797	0.04
766.105	0.04
766.413	0.04
766.721	0.04
767.029	0.04
767.337	0.04
767.644	0.04
767.952	0.04
768.26	0.05
768.567	0.04
768.875	0.05
769.182	0.04
769.49	0.04
769.797	0.04
770.104	0.04
770.411	0.04
770.718	0.04
771.026	0.04
771.333	0.04
771.639	0.04
771.946	0.04
772.253	0.04
772.56	0.04
772.867	0.04
773.173	0.04
773.48	0.04
773.786	0.05
774.093	0.04
774.399	0.04
774.705	0.04
775.012	0.04
775.318	0.04
775.624	0.05
775.93	0.04
776.236	0.05
776.542	0.05
776.848	0.05
777.154	0.05
777.459	0.05
777.765	0.05
778.071	0.05
778.376	0.05
778.682	0.04
778.987	0.05
779.292	0.04
779.598	0.04
779.903	0.04
780.208	0.04
780.513	0.04
780.818	0.04
781.123	0.04
781.428	0.04
781.733	0.04
782.038	0.04
782.343	0.04
782.647	0.04
782.952	0.04
783.256	0.04
783.561	0.04
783.865	0.04
784.17	0.04
784.474	0.03
784.778	0.03
785.082	0.04
785.386	0.03
785.69	0.04
785.994	0.04
786.298	0.04
786.602	0.04
786.906	0.04
787.209	0.04
787.513	0.04
787.817	0.05
788.12	0.05
788.424	0.05
788.727	0.05
789.03	0.05
789.333	0.05
789.637	0.05
789.94	0.05
790.243	0.05
790.546	0.05
790.849	0.05
791.152	0.05
791.454	0.05
791.757	0.05
792.06	0.05
792.362	0.05
792.665	0.05
792.967	0.05
793.27	0.05
793.572	0.05
793.874	0.05
794.177	0.05
794.479	0.05
794.781	0.05
795.083	0.06
795.385	0.06
795.687	0.06
795.989	0.06
796.29	0.06
796.592	0.06
796.894	0.06
797.195	0.05
797.497	0.06
797.798	0.06
798.1	0.06
798.401	0.06
798.702	0.06
799.003	0.05
799.304	0.05
799.605	0.05
799.906	0.05
800.207	0.05
800.508	0.05
800.809	0.06
801.11	0.05
801.41	0.06
801.711	0.06
802.011	0.06
802.312	0.06
802.612	0.06
802.913	0.06
803.213	0.06
803.513	0.06
803.813	0.06
804.113	0.06
804.413	0.06
804.713	0.06
805.013	0.06
805.313	0.07
805.613	0.06
805.912	0.06
806.212	0.06
806.511	0.06
806.811	0.06
807.11	0.06
807.41	0.06
807.709	0.06
808.008	0.07
808.307	0.07
808.606	0.07
808.905	0.07
809.204	0.07
809.503	0.07
809.802	0.07
810.101	0.07
810.399	0.07
810.698	0.07
810.997	0.07
811.295	0.07
811.593	0.07
811.892	0.07
812.19	0.07
812.488	0.07
812.786	0.06
813.084	0.07
813.383	0.07
813.68	0.07
813.978	0.07
814.276	0.07
814.574	0.07
814.872	0.07
815.169	0.07
815.467	0.07
815.764	0.07
816.062	0.06
816.359	0.07
816.656	0.07
816.954	0.07
817.251	0.07
817.548	0.07
817.845	0.07
818.142	0.08
818.439	0.08
818.735	0.08
819.032	0.08
819.329	0.08
819.626	0.08
819.922	0.08
820.219	0.09
820.515	0.08
820.811	0.09
821.108	0.08
821.404	0.08
821.7	0.08
821.996	0.08
822.292	0.08
822.588	0.08
822.884	0.08
823.18	0.09
823.475	0.09
823.771	0.1
824.067	0.09
824.362	0.09
824.658	0.09
824.953	0.09
825.249	0.09
825.544	0.09
825.839	0.09
826.134	0.08
826.429	0.08
826.724	0.08
827.019	0.09
827.314	0.09
827.609	0.09
827.904	0.09
828.198	0.08
828.493	0.09
828.787	0.09
829.082	0.09
829.376	0.1
829.671	0.1
829.965	0.11
830.259	0.1
830.553	0.1
830.847	0.1
831.141	0.1
831.435	0.1
831.729	0.11
832.023	0.1
832.317	0.1
832.61	0.1
832.904	0.1
833.197	0.1
833.491	0.1
833.784	0.11
834.077	0.11
834.371	0.11
834.664	0.11
834.957	0.11
835.25	0.11
835.543	0.1
835.836	0.11
836.129	0.11
836.421	0.11
836.714	0.11
837.007	0.1
837.299	0.11
837.592	0.1
837.884	0.11
838.177	0.11
838.469	0.11
838.761	0.11
839.053	0.12
839.345	0.12
839.637	0.11
839.929	0.11
840.221	0.11
840.513	0.11
840.805	0.11
841.096	0.12
841.388	0.12
841.68	0.12
841.971	0.12
842.262	0.11
842.554	0.12
842.845	0.12
843.136	0.11
843.427	0.12
843.718	0.11
844.009	0.11
844.3	0.11
844.591	0.12
844.882	0.13
845.173	0.12
845.463	0.12
845.754	0.13
846.044	0.12
846.335	0.12
846.625	0.12
846.915	0.12
847.206	0.12
847.496	0.12
847.786	0.11
848.076	0.11
848.366	0.11
848.656	0.12
848.945	0.11
849.235	0.11
849.525	0.11
849.814	0.11
850.104	0.11
850.393	0.13
850.683	0.13
850.972	0.13
851.261	0.12
851.551	0.13
851.84	0.13
852.129	0.12
852.418	0.13
852.707	0.13
852.995	0.13
853.284	0.13
853.573	0.12
853.862	0.12
854.15	0.12
854.439	0.11
854.727	0.11
855.015	0.12
855.304	0.12
855.592	0.14
855.88	0.12
856.168	0.12
856.456	0.12
856.744	0.12
857.032	0.12
857.32	0.13
857.607	0.13
857.895	0.15
858.183	0.14
858.47	0.13
858.757	0.13
859.045	0.14
859.332	0.13
859.619	0.14
859.907	0.13
860.194	0.12
860.481	0.14
860.768	0.15
861.054	0.12
861.341	0.13
861.628	0.15
861.915	0.13
862.201	0.14
862.488	0.13
862.774	0.15
863.061	0.15
863.347	0.13
863.633	0.15
863.919	0.12
864.205	0.13
864.491	0.15
864.777	0.16
865.063	0.14
865.349	0.14
865.635	0.15
865.92	0.16
866.206	0.13
866.492	0.13
866.777	0.17
867.062	0.16
867.348	0.13
867.633	0.11
867.918	0.18
868.203	0.12
868.488	0.12
868.773	0.16
869.058	0.14
869.343	0.17
869.628	0.13
869.912	0.15
870.197	0.11
870.482	0.16
870.766	0.18
871.05	0.15
871.335	0.13
871.619	0.16
871.903	0.17
872.187	0.17
872.471	0.11
872.755	0.11
873.039	0.09
873.323	0.15
873.607	0.17
873.89	0.13
874.174	0.14
874.458	0.11
874.741	0.08
875.024	0.12
875.308	0.17
875.591	0.11
875.874	0.13
876.157	0.14
876.44	0.05
876.723	0.1
877.006	0.1
877.289	0.07
877.572	0.21
877.854	0.14
878.137	0.13
878.42	0.21
878.702	0.12
878.984	0.27
879.267	0.26
879.549	0.17
879.831	0.11
880.113	0.16
880.395	0.09
880.677	-0.01
880.959	0.07
