Data from Rubpy_BV_1800_EDTA_Buffered_Absorbance_14-50-50-811.txt Node
Date: Wed Jul 01 14:50:50 BST 2026
User: fpm-admin
Spectrometer: OFX00224
Trigger mode: 0
Integration Time (sec): 7.000000E-2
Scans to average: 3
Nonlinearity correction enabled: false
Boxcar width: 0
Storing dark spectrum: false
XAxis mode: Wavelengths
Number of Pixels in Spectrum: 2136
>>>>>Begin Spectral Data<<<<<
154.91	-0.31
155.289	0.56
155.669	-0.48
156.048	-0.53
156.428	-0.15
156.807	-0
157.186	0.07
157.566	0.54
157.945	-0.49
158.325	0.06
158.704	-0
159.083	-0.41
159.462	-0
159.842	-0
160.221	-0
160.6	-0.09
160.979	-0.32
161.359	0.65
161.738	0.44
162.117	0.2
162.496	-0.24
162.875	0.03
163.254	0.27
163.633	-0
164.012	0.52
164.391	-0.18
164.77	-0.65
165.149	-0
165.528	-0
165.907	-0
166.286	-0.1
166.665	0.3
167.044	0.02
167.423	0.14
167.802	-0
168.181	-0
168.559	-0.52
168.938	-0.32
169.317	-0
169.696	-0
170.074	-0.41
170.453	0.72
170.832	0.06
171.21	-0.57
171.589	-0
171.968	0.83
172.346	-0
172.725	0.19
173.103	0.11
173.482	-0.06
173.861	-1.04
174.239	0.26
174.617	-0.45
174.996	0.52
175.374	1.04
175.753	-0
176.131	-0
176.51	-0.16
176.888	-0
177.266	-0
177.645	-0.09
178.023	0.17
178.401	-0.11
178.779	-0.12
179.158	-1.23
179.536	-0.37
179.914	-0.03
180.292	0.07
180.67	0.39
181.048	-0.18
181.427	-0
181.805	-0
182.183	-1.56
182.561	0.07
182.939	-0
183.317	-0.05
183.695	0.39
184.073	0.22
184.451	0.15
184.829	-0.36
185.206	-0.35
185.584	1.38
185.962	-0
186.34	0.29
186.718	-0
187.096	-1.13
187.473	0.37
187.851	-0
188.229	-0
188.607	0.03
188.984	-0.02
189.362	0.03
189.74	0.05
190.117	-0.04
190.495	-0.02
190.872	0.11
191.25	0.05
191.627	0.06
192.005	0
192.382	-0.01
192.76	0.01
193.137	0.06
193.515	0.04
193.892	0.02
194.269	-0.01
194.647	0.07
195.024	0.03
195.401	0.09
195.779	0.16
196.156	0.02
196.533	0.12
196.91	-0
197.288	0.04
197.665	-0
198.042	0.06
198.419	0.12
198.796	-0
199.173	0.09
199.55	0.1
199.927	0.07
200.304	0.11
200.681	0.23
201.058	0.01
201.435	0.11
201.812	-0.01
202.189	0.06
202.566	0.1
202.943	-0.01
203.32	0.12
203.697	0.13
204.073	0.1
204.45	0.14
204.827	0.09
205.204	0.07
205.58	0.04
205.957	0.03
206.334	0.07
206.71	0.12
207.087	0
207.464	0.07
207.84	0.1
208.217	0.13
208.593	0.06
208.97	0.08
209.346	0.09
209.723	0.08
210.099	0.06
210.476	0.02
210.852	0.03
211.228	0.06
211.605	0.13
211.981	0.08
212.357	0.03
212.733	0.1
213.11	0.01
213.486	-0.01
213.862	0.04
214.238	0.11
214.614	0.02
214.991	0.09
215.367	0.05
215.743	0.06
216.119	0.02
216.495	0.13
216.871	0.07
217.247	0.05
217.623	0.07
217.999	0.04
218.375	0.14
218.751	0.04
219.127	0.07
219.502	0.1
219.878	0.12
220.254	0.03
220.63	-0.02
221.006	0.1
221.381	0.03
221.757	-0.02
222.133	0.07
222.508	0.03
222.884	0.03
223.26	-0.03
223.635	0.11
224.011	0.06
224.386	0.06
224.762	0.13
225.137	0.11
225.513	0
225.888	0.01
226.264	-0.02
226.639	-0.01
227.014	0.1
227.39	0.08
227.765	0.07
228.14	0.1
228.516	0.27
228.891	0.08
229.266	0.01
229.641	0.09
230.017	-0.02
230.392	0.11
230.767	0.03
231.142	0.07
231.517	0.01
231.892	0.05
232.267	0.1
232.642	0.07
233.017	0.13
233.392	0.03
233.767	0.03
234.142	0.03
234.517	0.12
234.892	0.1
235.267	0.03
235.641	0.08
236.016	0.08
236.391	0.03
236.766	0.17
237.14	-0
237.515	0.11
237.89	0
238.264	0.07
238.639	-0.04
239.014	0.15
239.388	0.07
239.763	0.03
240.137	0.09
240.512	0.01
240.886	0.12
241.261	0.04
241.635	0.01
242.009	0.09
242.384	0.02
242.758	0.01
243.132	0.09
243.507	0.05
243.881	0.03
244.255	0.09
244.629	0.07
245.004	0.13
245.378	0.11
245.752	0.06
246.126	0.08
246.5	0.05
246.874	0.13
247.248	0.19
247.622	0.1
247.996	0.02
248.37	0
248.744	-0
249.118	0.05
249.492	0.01
249.866	0.13
250.24	0.13
250.613	0.07
250.987	0.05
251.361	0.09
251.735	0.01
252.108	0.04
252.482	0.06
252.856	-0.01
253.229	0.09
253.603	0.04
253.977	0.06
254.35	-0.01
254.724	0.08
255.097	0.07
255.471	-0
255.844	0.02
256.218	0.09
256.591	0.01
256.964	0.07
257.338	0.08
257.711	0.02
258.084	0.05
258.458	0.03
258.831	0.16
259.204	0.07
259.577	0.03
259.95	0.15
260.323	-0.03
260.697	0.12
261.07	0.08
261.443	0.05
261.816	0.04
262.189	0.04
262.562	0.13
262.935	0.08
263.308	-0.02
263.68	0.07
264.053	-0.01
264.426	0.07
264.799	0.12
265.172	0.1
265.545	0.01
265.917	0.05
266.29	0.04
266.663	0.12
267.035	-0.03
267.408	0.06
267.781	0.06
268.153	0.08
268.526	0.05
268.898	0.05
269.271	0.08
269.643	0.11
270.016	0.09
270.388	0.03
270.76	0.08
271.133	0.12
271.505	0.03
271.877	0.07
272.25	0.15
272.622	0.05
272.994	0.14
273.366	0.09
273.739	0.04
274.111	0.01
274.483	0.06
274.855	0.08
275.227	0.04
275.599	-0
275.971	0.11
276.343	0.12
276.715	0.07
277.087	0.09
277.459	0.04
277.831	0.04
278.203	0.05
278.574	0.05
278.946	0.08
279.318	0.11
279.69	0.11
280.061	0.02
280.433	0.04
280.805	0.02
281.176	0.06
281.548	0.05
281.92	-0.01
282.291	0.07
282.663	0.04
283.034	0.03
283.406	0.08
283.777	0.06
284.148	0.06
284.52	0.09
284.891	0.04
285.262	0.12
285.634	0.03
286.005	0.04
286.376	0.05
286.747	0.08
287.119	0.07
287.49	0.03
287.861	0.06
288.232	0.05
288.603	0.07
288.974	0.07
289.345	0.01
289.716	0.06
290.087	0.01
290.458	0.05
290.829	0.06
291.2	0.06
291.571	0.09
291.941	0.12
292.312	0.08
292.683	0.08
293.054	0.12
293.424	0.06
293.795	0.03
294.166	0.06
294.536	0.05
294.907	0.09
295.277	0.04
295.648	0.05
296.018	0.1
296.389	0.05
296.759	0.04
297.13	0.04
297.5	0.05
297.871	0.03
298.241	0.07
298.611	0.08
298.981	0.08
299.352	0.05
299.722	0.06
300.092	0.06
300.462	-0.01
300.832	0.04
301.202	0.07
301.573	0.08
301.943	0.03
302.313	0.04
302.683	0.07
303.053	0.07
303.422	0.05
303.792	0.01
304.162	0.02
304.532	-0.01
304.902	0.04
305.272	0.09
305.641	0.05
306.011	0.09
306.381	0.06
306.75	0.07
307.12	0.07
307.49	0.03
307.859	0.05
308.229	0.03
308.598	0.04
308.968	0.05
309.337	0.02
309.707	0.05
310.076	0.04
310.445	0.06
310.815	0.05
311.184	0.06
311.553	0.05
311.923	0.03
312.292	0.04
312.661	0.04
313.03	0.03
313.399	0.02
313.768	0.01
314.137	0.03
314.506	0.04
314.875	0.02
315.244	0.04
315.613	0.02
315.982	0.04
316.351	0.04
316.72	0.05
317.089	0.05
317.458	0.04
317.826	0.03
318.195	0.06
318.564	0.04
318.933	0.03
319.301	0.05
319.67	0.05
320.038	0.04
320.407	0.04
320.775	0.03
321.144	0.05
321.512	0.04
321.881	0.04
322.249	0.04
322.618	0.04
322.986	0.03
323.354	0.03
323.723	0.05
324.091	0.04
324.459	0.03
324.827	0.04
325.195	0.05
325.564	0.05
325.932	0.05
326.3	0.05
326.668	0.05
327.036	0.04
327.404	0.04
327.772	0.04
328.14	0.05
328.508	0.04
328.875	0.05
329.243	0.05
329.611	0.04
329.979	0.05
330.346	0.05
330.714	0.05
331.082	0.05
331.449	0.05
331.817	0.05
332.185	0.06
332.552	0.05
332.92	0.06
333.287	0.05
333.655	0.05
334.022	0.06
334.389	0.05
334.757	0.05
335.124	0.05
335.491	0.06
335.859	0.06
336.226	0.06
336.593	0.06
336.96	0.06
337.327	0.06
337.695	0.06
338.062	0.07
338.429	0.06
338.796	0.07
339.163	0.07
339.53	0.07
339.897	0.07
340.263	0.07
340.63	0.07
340.997	0.07
341.364	0.08
341.731	0.08
342.097	0.08
342.464	0.08
342.831	0.08
343.197	0.08
343.564	0.09
343.931	0.08
344.297	0.08
344.664	0.08
345.03	0.09
345.396	0.09
345.763	0.09
346.129	0.09
346.496	0.09
346.862	0.09
347.228	0.1
347.594	0.09
347.961	0.09
348.327	0.1
348.693	0.1
349.059	0.1
349.425	0.1
349.791	0.1
350.157	0.1
350.523	0.11
350.889	0.11
351.255	0.11
351.621	0.11
351.987	0.11
352.353	0.11
352.719	0.11
353.084	0.12
353.45	0.12
353.816	0.12
354.181	0.13
354.547	0.13
354.913	0.12
355.278	0.13
355.644	0.13
356.009	0.13
356.375	0.14
356.74	0.13
357.106	0.13
357.471	0.14
357.836	0.14
358.202	0.14
358.567	0.14
358.932	0.14
359.297	0.15
359.663	0.15
360.028	0.16
360.393	0.16
360.758	0.15
361.123	0.16
361.488	0.16
361.853	0.16
362.218	0.17
362.583	0.17
362.948	0.17
363.312	0.18
363.677	0.18
364.042	0.18
364.407	0.18
364.772	0.19
365.136	0.18
365.501	0.19
365.865	0.19
366.23	0.19
366.595	0.19
366.959	0.19
367.324	0.2
367.688	0.2
368.052	0.19
368.417	0.2
368.781	0.21
369.145	0.21
369.51	0.21
369.874	0.21
370.238	0.21
370.602	0.22
370.967	0.22
371.331	0.22
371.695	0.23
372.059	0.23
372.423	0.22
372.787	0.22
373.151	0.23
373.515	0.22
373.878	0.23
374.242	0.23
374.606	0.22
374.97	0.22
375.334	0.22
375.697	0.23
376.061	0.22
376.425	0.22
376.788	0.21
377.152	0.21
377.515	0.21
377.879	0.21
378.242	0.21
378.606	0.21
378.969	0.21
379.333	0.21
379.696	0.21
380.059	0.2
380.422	0.2
380.786	0.2
381.149	0.2
381.512	0.2
381.875	0.2
382.238	0.19
382.601	0.2
382.964	0.2
383.327	0.19
383.69	0.2
384.053	0.2
384.416	0.19
384.779	0.2
385.142	0.2
385.504	0.2
385.867	0.2
386.23	0.2
386.593	0.2
386.955	0.21
387.318	0.21
387.68	0.21
388.043	0.21
388.405	0.21
388.768	0.21
389.13	0.22
389.493	0.22
389.855	0.22
390.217	0.22
390.58	0.22
390.942	0.22
391.304	0.22
391.666	0.21
392.028	0.21
392.391	0.21
392.753	0.21
393.115	0.21
393.477	0.21
393.839	0.21
394.201	0.2
394.563	0.2
394.924	0.21
395.286	0.2
395.648	0.21
396.01	0.21
396.371	0.21
396.733	0.22
397.095	0.22
397.456	0.23
397.818	0.24
398.18	0.24
398.541	0.25
398.903	0.26
399.264	0.27
399.625	0.28
399.987	0.28
400.348	0.29
400.709	0.29
401.071	0.3
401.432	0.3
401.793	0.29
402.154	0.3
402.515	0.29
402.876	0.28
403.238	0.28
403.599	0.28
403.96	0.27
404.32	0.25
404.681	0.25
405.042	0.24
405.403	0.23
405.764	0.22
406.125	0.2
406.485	0.19
406.846	0.18
407.207	0.17
407.567	0.16
407.928	0.15
408.288	0.14
408.649	0.14
409.009	0.13
409.37	0.12
409.73	0.12
410.091	0.1
410.451	0.1
410.811	0.1
411.171	0.09
411.532	0.08
411.892	0.08
412.252	0.07
412.612	0.07
412.972	0.07
413.332	0.06
413.692	0.06
414.052	0.06
414.412	0.06
414.772	0.06
415.132	0.05
415.492	0.05
415.851	0.05
416.211	0.04
416.571	0.05
416.931	0.04
417.29	0.04
417.65	0.04
418.009	0.04
418.369	0.04
418.728	0.04
419.088	0.04
419.447	0.04
419.807	0.03
420.166	0.03
420.525	0.03
420.884	0.04
421.244	0.04
421.603	0.04
421.962	0.03
422.321	0.04
422.68	0.03
423.039	0.03
423.398	0.03
423.757	0.03
424.116	0.03
424.475	0.03
424.834	0.02
425.193	0.02
425.551	0.03
425.91	0.02
426.269	0.02
426.628	0.02
426.986	0.02
427.345	0.02
427.703	0.02
428.062	0.02
428.42	0.02
428.779	0.03
429.137	0.02
429.496	0.02
429.854	0.02
430.212	0.02
430.57	0.03
430.929	0.01
431.287	0.02
431.645	0.02
432.003	0.02
432.361	0.02
432.719	0.02
433.077	0.02
433.435	0.02
433.793	0.02
434.151	0.02
434.509	0.02
434.866	0.01
435.224	0.02
435.582	0.02
435.94	0.02
436.297	0.02
436.655	0.02
437.012	0.02
437.37	0.02
437.727	0.01
438.085	0.01
438.442	0.02
438.8	0.02
439.157	0.02
439.514	0.02
439.872	0.01
440.229	0.02
440.586	0.01
440.943	0.02
441.3	0.01
441.657	0.02
442.014	0
442.371	0.01
442.728	0.01
443.085	0.01
443.442	0.01
443.799	0.01
444.156	0.02
444.513	0.01
444.869	0.01
445.226	0.02
445.583	0.01
445.939	0.02
446.296	0.01
446.652	0.01
447.009	0.01
447.365	0.01
447.722	0.01
448.078	0.01
448.434	0
448.791	0.01
449.147	0.02
449.503	0.01
449.859	0.01
450.215	-0
450.571	0
450.928	0
451.284	0.01
451.64	-0.01
451.995	0
452.351	0
452.707	-0.01
453.063	0
453.419	-0.01
453.775	-0.01
454.13	-0.01
454.486	-0
454.842	-0.01
455.197	-0.01
455.553	-0.02
455.908	-0.02
456.264	-0.02
456.619	-0.02
456.975	-0.02
457.33	-0.02
457.685	-0.03
458.04	-0.03
458.396	-0.02
458.751	-0.03
459.106	-0.03
459.461	-0.04
459.816	-0.04
460.171	-0.04
460.526	-0.04
460.881	-0.06
461.236	-0.06
461.591	-0.05
461.946	-0.05
462.301	-0.06
462.655	-0.06
463.01	-0.06
463.365	-0.07
463.719	-0.07
464.074	-0.08
464.428	-0.08
464.783	-0.08
465.137	-0.08
465.492	-0.08
465.846	-0.09
466.201	-0.09
466.555	-0.09
466.909	-0.08
467.263	-0.08
467.618	-0.09
467.972	-0.08
468.326	-0.08
468.68	-0.09
469.034	-0.09
469.388	-0.1
469.742	-0.09
470.096	-0.09
470.45	-0.09
470.804	-0.1
471.157	-0.08
471.511	-0.09
471.865	-0.09
472.218	-0.09
472.572	-0.08
472.926	-0.08
473.279	-0.09
473.633	-0.08
473.986	-0.06
474.34	-0.07
474.693	-0.06
475.046	-0.06
475.4	-0.06
475.753	-0.05
476.106	-0.04
476.459	-0.04
476.812	-0.04
477.165	-0.03
477.519	-0.03
477.872	-0.03
478.224	-0.03
478.577	-0.03
478.93	-0.02
479.283	-0.02
479.636	-0.02
479.989	-0.01
480.341	-0.01
480.694	-0.01
481.047	-0.01
481.399	-0
481.752	-0
482.104	0
482.457	0
482.809	-0
483.162	0.01
483.514	0
483.866	0.01
484.219	0
484.571	0.01
484.923	0
485.275	0.01
485.627	0.01
485.979	0.01
486.331	0.01
486.683	0.02
487.035	0.01
487.387	0.02
487.739	0.02
488.091	0.02
488.443	0.02
488.794	0.02
489.146	0.02
489.498	0.02
489.849	0.02
490.201	0.02
490.552	0.02
490.904	0.03
491.255	0.02
491.607	0.03
491.958	0.03
492.309	0.03
492.661	0.03
493.012	0.03
493.363	0.04
493.714	0.03
494.065	0.03
494.416	0.03
494.767	0.04
495.118	0.03
495.469	0.03
495.82	0.03
496.171	0.04
496.522	0.04
496.872	0.04
497.223	0.04
497.574	0.04
497.924	0.04
498.275	0.04
498.626	0.04
498.976	0.04
499.327	0.04
499.677	0.05
500.027	0.05
500.378	0.04
500.728	0.05
501.078	0.05
501.428	0.05
501.779	0.05
502.129	0.05
502.479	0.05
502.829	0.05
503.179	0.05
503.529	0.05
503.879	0.06
504.229	0.05
504.578	0.05
504.928	0.05
505.278	0.06
505.628	0.06
505.977	0.06
506.327	0.06
506.676	0.05
507.026	0.06
507.375	0.05
507.725	0.06
508.074	0.05
508.424	0.06
508.773	0.06
509.122	0.06
509.471	0.06
509.82	0.06
510.17	0.06
510.519	0.06
510.868	0.06
511.217	0.06
511.566	0.06
511.915	0.06
512.263	0.07
512.612	0.06
512.961	0.06
513.31	0.07
513.659	0.07
514.007	0.07
514.356	0.07
514.704	0.07
515.053	0.07
515.401	0.07
515.75	0.07
516.098	0.07
516.447	0.07
516.795	0.07
517.143	0.07
517.491	0.07
517.839	0.07
518.188	0.07
518.536	0.07
518.884	0.07
519.232	0.07
519.58	0.07
519.928	0.07
520.275	0.07
520.623	0.07
520.971	0.07
521.319	0.07
521.666	0.08
522.014	0.07
522.362	0.08
522.709	0.08
523.057	0.08
523.404	0.08
523.752	0.08
524.099	0.08
524.446	0.08
524.794	0.08
525.141	0.08
525.488	0.08
525.835	0.08
526.182	0.08
526.529	0.08
526.876	0.08
527.223	0.08
527.57	0.08
527.917	0.08
528.264	0.08
528.611	0.08
528.958	0.08
529.304	0.09
529.651	0.08
529.998	0.08
530.344	0.08
530.691	0.08
531.037	0.09
531.384	0.09
531.73	0.09
532.076	0.09
532.423	0.09
532.769	0.09
533.115	0.09
533.461	0.09
533.807	0.09
534.154	0.09
534.5	0.09
534.846	0.09
535.192	0.09
535.537	0.09
535.883	0.09
536.229	0.09
536.575	0.09
536.921	0.09
537.266	0.09
537.612	0.09
537.957	0.09
538.303	0.09
538.649	0.1
538.994	0.09
539.339	0.1
539.685	0.09
540.03	0.1
540.375	0.09
540.721	0.09
541.066	0.1
541.411	0.1
541.756	0.1
542.101	0.1
542.446	0.1
542.791	0.09
543.136	0.1
543.481	0.1
543.825	0.1
544.17	0.1
544.515	0.1
544.86	0.1
545.204	0.1
545.549	0.1
545.893	0.1
546.238	0.1
546.582	0.1
546.927	0.1
547.271	0.1
547.615	0.1
547.96	0.1
548.304	0.1
548.648	0.1
548.992	0.1
549.336	0.1
549.68	0.1
550.024	0.1
550.368	0.1
550.712	0.1
551.056	0.1
551.4	0.1
551.743	0.1
552.087	0.1
552.431	0.11
552.774	0.1
553.118	0.11
553.462	0.11
553.805	0.1
554.148	0.1
554.492	0.11
554.835	0.1
555.178	0.1
555.522	0.11
555.865	0.11
556.208	0.11
556.551	0.11
556.894	0.11
557.237	0.11
557.58	0.11
557.923	0.11
558.266	0.11
558.609	0.1
558.952	0.11
559.294	0.11
559.637	0.11
559.98	0.11
560.322	0.11
560.665	0.1
561.007	0.1
561.35	0.11
561.692	0.11
562.034	0.1
562.377	0.11
562.719	0.1
563.061	0.1
563.403	0.11
563.745	0.11
564.088	0.11
564.43	0.11
564.772	0.11
565.113	0.11
565.455	0.11
565.797	0.11
566.139	0.11
566.481	0.11
566.822	0.11
567.164	0.11
567.506	0.11
567.847	0.11
568.189	0.11
568.53	0.11
568.872	0.11
569.213	0.11
569.554	0.11
569.895	0.11
570.237	0.11
570.578	0.11
570.919	0.11
571.26	0.1
571.601	0.1
571.942	0.1
572.283	0.1
572.624	0.1
572.965	0.1
573.306	0.1
573.646	0.1
573.987	0.1
574.328	0.1
574.668	0.1
575.009	0.1
575.349	0.1
575.69	0.1
576.03	0.1
576.37	0.1
576.711	0.1
577.051	0.1
577.391	0.1
577.731	0.1
578.072	0.1
578.412	0.1
578.752	0.1
579.092	0.1
579.431	0.09
579.771	0.08
580.111	0.07
580.451	0.09
580.791	0.1
581.13	0.1
581.47	0.1
581.81	0.1
582.149	0.1
582.489	0.1
582.828	0.09
583.167	0.06
583.507	0.03
583.846	0.03
584.185	0.07
584.525	0.09
584.864	0.1
585.203	0.1
585.542	0.1
585.881	0.1
586.22	0.1
586.559	0.1
586.898	0.09
587.236	0.08
587.575	0.09
587.914	0.09
588.252	0.1
588.591	0.1
588.93	0.1
589.268	0.09
589.607	0.1
589.945	0.1
590.283	0.1
590.622	0.1
590.96	0.1
591.298	0.1
591.636	0.1
591.974	0.1
592.313	0.1
592.651	0.11
592.989	0.1
593.326	0.1
593.664	0.11
594.002	0.11
594.34	0.1
594.678	0.1
595.015	0.1
595.353	0.09
595.691	0.1
596.028	0.11
596.366	0.1
596.703	0.11
597.04	0.11
597.378	0.11
597.715	0.11
598.052	0.11
598.389	0.11
598.726	0.11
599.064	0.11
599.401	0.11
599.738	0.11
600.074	0.11
600.411	0.11
600.748	0.1
601.085	0.1
601.422	0.1
601.758	0.1
602.095	0.1
602.432	0.1
602.768	0.1
603.105	0.11
603.441	0.11
603.777	0.11
604.114	0.11
604.45	0.11
604.786	0.11
605.122	0.11
605.459	0.11
605.795	0.11
606.131	0.11
606.467	0.11
606.803	0.11
607.139	0.11
607.474	0.11
607.81	0.11
608.146	0.11
608.482	0.1
608.817	0.11
609.153	0.1
609.488	0.1
609.824	0.1
610.159	0.1
610.495	0.11
610.83	0.1
611.165	0.1
611.5	0.1
611.836	0.1
612.171	0.1
612.506	0.1
612.841	0.1
613.176	0.1
613.511	0.1
613.845	0.1
614.18	0.1
614.515	0.1
614.85	0.1
615.184	0.1
615.519	0.1
615.854	0.1
616.188	0.1
616.523	0.1
616.857	0.1
617.191	0.1
617.526	0.1
617.86	0.1
618.194	0.1
618.528	0.1
618.862	0.1
619.196	0.1
619.53	0.1
619.864	0.1
620.198	0.1
620.532	0.1
620.866	0.1
621.2	0.1
621.533	0.1
621.867	0.1
622.201	0.1
622.534	0.1
622.868	0.1
623.201	0.1
623.534	0.1
623.868	0.09
624.201	0.1
624.534	0.1
624.868	0.09
625.201	0.1
625.534	0.1
625.867	0.09
626.2	0.09
626.533	0.09
626.865	0.09
627.198	0.09
627.531	0.09
627.864	0.09
628.196	0.08
628.529	0.09
628.862	0.09
629.194	0.09
629.527	0.09
629.859	0.09
630.191	0.09
630.524	0.09
630.856	0.08
631.188	0.08
631.52	0.08
631.852	0.08
632.184	0.08
632.516	0.08
632.848	0.08
633.18	0.08
633.512	0.08
633.844	0.08
634.175	0.08
634.507	0.08
634.839	0.08
635.17	0.08
635.502	0.08
635.833	0.08
636.165	0.08
636.496	0.08
636.827	0.08
637.159	0.07
637.49	0.07
637.821	0.07
638.152	0.07
638.483	0.07
638.814	0.07
639.145	0.07
639.476	0.07
639.807	0.07
640.137	0.07
640.468	0.07
640.799	0.07
641.129	0.07
641.46	0.07
641.791	0.07
642.121	0.06
642.451	0.07
642.782	0.06
643.112	0.06
643.442	0.06
643.773	0.06
644.103	0.06
644.433	0.06
644.763	0.06
645.093	0.06
645.423	0.06
645.753	0.06
646.082	0.06
646.412	0.07
646.742	0.07
647.072	0.07
647.401	0.06
647.731	0.06
648.06	0.06
648.39	0.07
648.719	0.06
649.048	0.07
649.378	0.06
649.707	0.06
650.036	0.06
650.365	0.06
650.694	0.06
651.023	0.06
651.352	0.06
651.681	0.06
652.01	0.06
652.339	0.06
652.668	0.06
652.996	0.06
653.325	0.06
653.654	0.06
653.982	0.06
654.311	0.06
654.639	0.06
654.967	0.06
655.296	0.06
655.624	0.06
655.952	0.06
656.28	0.06
656.609	0.06
656.937	0.06
657.265	0.05
657.593	0
657.92	-0
658.248	-0
658.576	0
658.904	0
659.231	0.05
659.559	0.06
659.887	0.06
660.214	0.06
660.542	0.06
660.869	0.06
661.196	0.05
661.524	0.06
661.851	0.05
662.178	0.05
662.505	0.06
662.832	0.05
663.159	0.06
663.486	0.06
663.813	0.06
664.14	0.06
664.467	0.06
664.794	0.05
665.12	0.05
665.447	0.06
665.774	0.05
666.1	0.05
666.427	0.05
666.753	0.05
667.079	0.05
667.406	0.05
667.732	0.05
668.058	0.05
668.384	0.05
668.71	0.05
669.036	0.05
669.362	0.05
669.688	0.05
670.014	0.05
670.34	0.05
670.666	0.05
670.991	0.05
671.317	0.05
671.643	0.05
671.968	0.05
672.294	0.05
672.619	0.05
672.945	0.05
673.27	0.04
673.595	0.05
673.92	0.05
674.246	0.04
674.571	0.05
674.896	0.04
675.221	0.04
675.546	0.04
675.87	0.04
676.195	0.04
676.52	0.04
676.845	0.04
677.169	0.04
677.494	0.04
677.819	0.04
678.143	0.04
678.468	0.04
678.792	0.04
679.116	0.04
679.44	0.04
679.765	0.04
680.089	0.04
680.413	0.04
680.737	0.04
681.061	0.03
681.385	0.03
681.709	0.04
682.033	0.03
682.356	0.03
682.68	0.04
683.004	0.04
683.327	0.04
683.651	0.03
683.974	0.03
684.298	0.03
684.621	0.03
684.944	0.03
685.268	0.03
685.591	0.03
685.914	0.03
686.237	0.03
686.56	0.03
686.883	0.03
687.206	0.03
687.529	0.03
687.852	0.03
688.175	0.03
688.497	0.03
688.82	0.03
689.142	0.03
689.465	0.02
689.787	0.02
690.11	0.02
690.432	0.03
690.755	0.03
691.077	0.03
691.399	0.02
691.721	0.02
692.043	0.02
692.365	0.02
692.687	0.02
693.009	0.02
693.331	0.02
693.653	0.02
693.974	0.02
694.296	0.02
694.618	0.02
694.939	0.02
695.261	0.02
695.582	0.02
695.904	0.02
696.225	0.02
696.546	0.02
696.868	0.02
697.189	0.02
697.51	0.02
697.831	0.02
698.152	0.02
698.473	0.02
698.794	0.01
699.114	0.01
699.435	0.01
699.756	0.01
700.077	0.01
700.397	0.01
700.718	0.01
701.038	0.02
701.359	0.01
701.679	0.02
701.999	0.02
702.32	0.01
702.64	0.01
702.96	0.01
703.28	0.01
703.6	0.01
703.92	0.01
704.24	0.01
704.56	0.01
704.879	0.01
705.199	0.01
705.519	0.01
705.838	0.01
706.158	0.01
706.478	0.02
706.797	0.02
707.116	0.01
707.436	0.01
707.755	0.01
708.074	0.01
708.393	0.01
708.712	0.01
709.031	0
709.35	0
709.669	0
709.988	0.01
710.307	0.01
710.626	0.01
710.944	0.01
711.263	0.01
711.582	0.01
711.9	0.01
712.219	0.01
712.537	0.01
712.855	0.01
713.174	0.01
713.492	0.01
713.81	0.01
714.128	0.01
714.446	0.01
714.764	0.01
715.082	0.01
715.4	0.01
715.718	0.01
716.035	0.01
716.353	0.01
716.671	0.01
716.988	0.01
717.306	0.01
717.623	0.01
717.941	0.01
718.258	0.01
718.575	0.01
718.893	0.01
719.21	0.01
719.527	0.01
719.844	0.01
720.161	0.02
720.478	0.01
720.795	0.01
721.112	0.02
721.428	0.01
721.745	0.01
722.062	0.01
722.378	0.01
722.695	0.01
723.011	0.01
723.328	0.01
723.644	0.01
723.96	0.01
724.276	0.02
724.593	0.01
724.909	0.01
725.225	0.01
725.541	0.01
725.857	0.01
726.173	0.02
726.488	0.01
726.804	0.02
727.12	0.01
727.435	0.01
727.751	0.01
728.067	0.01
728.382	0.02
728.697	0.02
729.013	0.02
729.328	0.01
729.643	0.02
729.958	0.01
730.273	0.01
730.588	0.01
730.903	0.01
731.218	0.01
731.533	0.01
731.848	0.01
732.163	0.01
732.477	0.01
732.792	0.01
733.107	0.01
733.421	0.01
733.736	0.01
734.05	0.01
734.364	0.01
734.678	0.01
734.993	0.01
735.307	0.01
735.621	0.01
735.935	0.01
736.249	0.01
736.563	0.01
736.877	0.02
737.19	0.02
737.504	0.01
737.818	0.02
738.131	0.02
738.445	0.02
738.758	0.02
739.072	0.02
739.385	0.02
739.698	0.02
740.012	0.02
740.325	0.02
740.638	0.02
740.951	0.02
741.264	0.01
741.577	0.01
741.89	0.01
742.203	0.01
742.515	0.01
742.828	0.01
743.141	0.01
743.453	0.01
743.766	0.01
744.078	0.01
744.391	0.01
744.703	0.01
745.015	0.01
745.327	0.01
745.639	0.01
745.952	0.01
746.264	0.01
746.575	0.01
746.887	0.01
747.199	0.01
747.511	0.01
747.823	0.01
748.134	0.01
748.446	0.01
748.757	0.01
749.069	0.01
749.38	0.01
749.692	0.01
750.003	0.01
750.314	0
750.625	0.01
750.936	0
751.248	0
751.559	0
751.869	0.01
752.18	0
752.491	0
752.802	0.01
753.112	0.01
753.423	0
753.734	0.01
754.044	0
754.355	0
754.665	0
754.975	0
755.285	0
755.596	0.01
755.906	0
756.216	0
756.526	0
756.836	0
757.146	0
757.455	0
757.765	0
758.075	0
758.385	0
758.694	0
759.004	0
759.313	0
759.622	0
759.932	0.01
760.241	0.01
760.55	0.01
760.859	0
761.168	0
761.477	0
761.786	0
762.095	0
762.404	0
762.713	0
763.021	0
763.33	0
763.639	0
763.947	0
764.256	0
764.564	0
764.872	0
765.181	0
765.489	0
765.797	0
766.105	0
766.413	0
766.721	0
767.029	0
767.337	0
767.644	0
767.952	0
768.26	0.01
768.567	0
768.875	0.01
769.182	0
769.49	0
769.797	0
770.104	0
770.411	0
770.718	0
771.026	0
771.333	0
771.639	-0
771.946	-0
772.253	-0
772.56	-0
772.867	0
773.173	0
773.48	-0
773.786	0
774.093	0
774.399	0
774.705	0
775.012	0
775.318	0
775.624	0
775.93	-0
776.236	0
776.542	0
776.848	0
777.154	0
777.459	0
777.765	0
778.071	0
778.376	0
778.682	0
778.987	0
779.292	0
779.598	-0
779.903	0
780.208	-0
780.513	-0
780.818	-0
781.123	-0
781.428	-0
781.733	-0
782.038	-0.01
782.343	-0.01
782.647	-0
782.952	-0.01
783.256	-0.01
783.561	-0.01
783.865	-0
784.17	-0.01
784.474	-0.01
784.778	-0.01
785.082	-0.01
785.386	-0.01
785.69	-0
785.994	-0.01
786.298	-0.01
786.602	-0
786.906	-0
787.209	0
787.513	-0
787.817	0
788.12	-0
788.424	0
788.727	0.01
789.03	0
789.333	-0
789.637	0
789.94	0
790.243	-0
790.546	0
790.849	-0
791.152	0
791.454	-0
791.757	0
792.06	0
792.362	0
792.665	-0
792.967	0
793.27	0
793.572	0
793.874	0.01
794.177	0
794.479	-0
794.781	-0
795.083	-0
795.385	-0
795.687	0
795.989	-0
796.29	0
796.592	0
796.894	0
797.195	-0
797.497	0
797.798	0
798.1	-0
798.401	-0
798.702	-0
799.003	-0
799.304	-0
799.605	0
799.906	0
800.207	-0
800.508	-0
800.809	0
801.11	0
801.41	-0
801.711	-0
802.011	-0
802.312	0
802.612	-0.01
802.913	-0.01
803.213	-0
803.513	-0
803.813	-0
804.113	0
804.413	0
804.713	0
805.013	0
805.313	0
805.613	-0
805.912	-0
806.212	-0
806.511	0
806.811	0
807.11	0
807.41	0
807.709	-0
808.008	0
808.307	0
808.606	-0
808.905	-0
809.204	-0
809.503	-0
809.802	-0
810.101	-0
810.399	0
810.698	-0
810.997	-0
811.295	0
811.593	-0
811.892	-0
812.19	-0
812.488	-0
812.786	-0
813.084	-0
813.383	0
813.68	-0
813.978	0
814.276	0
814.574	-0
814.872	-0
815.169	0
815.467	0
815.764	0
816.062	0
816.359	-0
816.656	-0
816.954	-0
817.251	-0
817.548	-0
817.845	-0
818.142	0
818.439	0.01
818.735	0
819.032	0
819.329	0.01
819.626	0
819.922	0.01
820.219	0.01
820.515	0.01
820.811	0.01
821.108	0.01
821.404	0.01
821.7	0.01
821.996	0.01
822.292	0.01
822.588	0.01
822.884	0.01
823.18	0.01
823.475	0.01
823.771	0.01
824.067	0.01
824.362	0.01
824.658	0.01
824.953	0.01
825.249	-0
825.544	0.01
825.839	0.01
826.134	0
826.429	0.01
826.724	0.01
827.019	0
827.314	0.01
827.609	0.01
827.904	0
828.198	0
828.493	0.01
828.787	0.01
829.082	0.01
829.376	0.01
829.671	0.02
829.965	0.01
830.259	0.01
830.553	0.02
830.847	0.02
831.141	0.01
831.435	0.01
831.729	0.01
832.023	0.01
832.317	0.01
832.61	0.01
832.904	0.02
833.197	0.01
833.491	0.01
833.784	0.01
834.077	0.01
834.371	0.01
834.664	0.02
834.957	0.01
835.25	0.01
835.543	0.01
835.836	0.01
836.129	0.01
836.421	0.01
836.714	0.01
837.007	0.01
837.299	0.01
837.592	0.01
837.884	0.01
838.177	0.01
838.469	0.01
838.761	0.01
839.053	0.01
839.345	0.01
839.637	0.01
839.929	0.01
840.221	0.01
840.513	0.01
840.805	0.01
841.096	0.01
841.388	0.02
841.68	0.02
841.971	0.01
842.262	0.01
842.554	0.01
842.845	0
843.136	0
843.427	0.02
843.718	0.01
844.009	0.01
844.3	0.01
844.591	0.01
844.882	0.01
845.173	0.02
845.463	0.01
845.754	0.02
846.044	0.01
846.335	0.01
846.625	0.01
846.915	0.01
847.206	0.02
847.496	0.01
847.786	0.01
848.076	0
848.366	-0
848.656	0
848.945	0.01
849.235	0.01
849.525	0
849.814	-0
850.104	-0
850.393	0
850.683	0.01
850.972	0.01
851.261	0.01
851.551	0.01
851.84	0.02
852.129	0.02
852.418	0.02
852.707	0.03
852.995	0.01
853.284	0.01
853.573	-0
853.862	-0
854.15	0.01
854.439	0.01
854.727	-0
855.015	0.01
855.304	0.01
855.592	0
855.88	-0
856.168	0
856.456	0.01
856.744	-0
857.032	-0
857.32	0
857.607	0.01
857.895	0
858.183	0.01
858.47	0.01
858.757	-0
859.045	0.01
859.332	0.01
859.619	0.02
859.907	0.01
860.194	-0
860.481	0.03
860.768	0.02
861.054	-0
861.341	0.01
861.628	0.01
861.915	0.01
862.201	0.01
862.488	0.01
862.774	0.01
863.061	0.02
863.347	-0
863.633	0.02
863.919	-0.01
864.205	0.01
864.491	0.02
864.777	0.03
865.063	-0.01
865.349	0.02
865.635	0.01
865.92	0.01
866.206	0.02
866.492	0
866.777	0.03
867.062	0.01
867.348	0
867.633	-0.01
867.918	0.04
868.203	-0.02
868.488	0
868.773	0.04
869.058	0.05
869.343	0.01
869.628	0.02
869.912	0.01
870.197	0.03
870.482	0
870.766	0.06
871.05	0.01
871.335	0.06
871.619	0.03
871.903	0.04
872.187	0.02
872.471	-0.01
872.755	-0
873.039	-0
873.323	0.03
873.607	0.04
873.89	0
874.174	0.01
874.458	0.03
874.741	-0.04
875.024	0.03
875.308	-0.02
875.591	0.03
875.874	-0.02
876.157	0.02
876.44	-0.02
876.723	0.05
877.006	-0.06
877.289	-0.03
877.572	0.03
877.854	0
878.137	0.04
878.42	-0.02
878.702	0.06
878.984	0.05
879.267	0.04
879.549	-0.01
879.831	-0.06
880.113	0.02
880.395	-0.04
880.677	-0.01
880.959	-0.05
