Data from Rubpy_BV_1800_EDTA_Buffered_Absorbance_14-50-38-919.txt Node
Date: Wed Jul 01 14:50:38 BST 2026
User: fpm-admin
Spectrometer: OFX00224
Trigger mode: 0
Integration Time (sec): 7.000000E-2
Scans to average: 3
Nonlinearity correction enabled: false
Boxcar width: 0
Storing dark spectrum: false
XAxis mode: Wavelengths
Number of Pixels in Spectrum: 2136
>>>>>Begin Spectral Data<<<<<
154.91	-0.51
155.289	-0
155.669	-1.09
156.048	-0
156.428	-0
156.807	-0
157.186	-0
157.566	-0.3
157.945	0.81
158.325	-0
158.704	0.9
159.083	-0
159.462	-0
159.842	0.24
160.221	-0
160.6	-0.19
160.979	0.06
161.359	1.01
161.738	-0.04
162.117	0.58
162.496	-0.12
162.875	-0.09
163.254	-0
163.633	-0
164.012	-0.16
164.391	-0.18
164.77	-0
165.149	-0
165.528	-1.32
165.907	-0.4
166.286	0.27
166.665	-0.02
167.044	0.91
167.423	0.56
167.802	-0.07
168.181	-0
168.559	-0.87
168.938	-0.43
169.317	-0
169.696	-0
170.074	-0
170.453	0.19
170.832	-0.42
171.21	-0.51
171.589	-0.12
171.968	0.19
172.346	0.22
172.725	0.78
173.103	-0.09
173.482	0.81
173.861	-0
174.239	-0.03
174.617	-0
174.996	0.4
175.374	-0
175.753	0.1
176.131	-0
176.51	-0.25
176.888	-0.09
177.266	0.89
177.645	-0.13
178.023	0.29
178.401	-0.13
178.779	-0.33
179.158	-0.9
179.536	-0.51
179.914	-0
180.292	-0
180.67	-0.27
181.048	-0
181.427	-0
181.805	0.48
182.183	-1.32
182.561	-0.09
182.939	-0.77
183.317	-0
183.695	0.25
184.073	0.12
184.451	-0.04
184.829	-0.04
185.206	0.9
185.584	0.38
185.962	-0
186.34	0.19
186.718	0.22
187.096	-0.18
187.473	-0.1
187.851	-0
188.229	-0
188.607	0.1
188.984	0.03
189.362	0.11
189.74	0.07
190.117	0.01
190.495	0.02
190.872	0.19
191.25	0.08
191.627	0.08
192.005	-0.02
192.382	-0.05
192.76	-0.02
193.137	0.16
193.515	0.16
193.892	0.02
194.269	0.06
194.647	0.04
195.024	-0.06
195.401	0
195.779	0.16
196.156	-0.04
196.533	0.07
196.91	0.07
197.288	0.02
197.665	-0.03
198.042	0.03
198.419	-0
198.796	-0.1
199.173	0.08
199.55	0.07
199.927	0.03
200.304	0.12
200.681	0.16
201.058	-0.07
201.435	0.01
201.812	-0
202.189	0.12
202.566	0.14
202.943	0.02
203.32	0.09
203.697	0.07
204.073	0.06
204.45	0.15
204.827	0.05
205.204	0.1
205.58	0.07
205.957	0.03
206.334	0.03
206.71	0.07
207.087	0.1
207.464	-0.06
207.84	0.03
208.217	0.12
208.593	0.01
208.97	0.08
209.346	0.12
209.723	0.09
210.099	0.13
210.476	-0.02
210.852	0.12
211.228	0.07
211.605	0.15
211.981	0.09
212.357	0.03
212.733	0.08
213.11	0.06
213.486	0.03
213.862	0.06
214.238	0.05
214.614	0.07
214.991	0.12
215.367	0.12
215.743	0.08
216.119	0.05
216.495	0.11
216.871	0.1
217.247	0.06
217.623	0.01
217.999	-0
218.375	0.04
218.751	0.11
219.127	0.06
219.502	0
219.878	0.05
220.254	0.08
220.63	0.09
221.006	0.11
221.381	0.02
221.757	-0.02
222.133	0.18
222.508	-0
222.884	-0.04
223.26	0.05
223.635	0.01
224.011	0.07
224.386	0.02
224.762	0.1
225.137	0.05
225.513	-0.02
225.888	0.03
226.264	-0.06
226.639	-0.01
227.014	0.01
227.39	0.13
227.765	-0.01
228.14	0.01
228.516	0.24
228.891	0.04
229.266	-0.02
229.641	-0
230.017	-0.01
230.392	0.05
230.767	-0.01
231.142	-0.02
231.517	-0.01
231.892	0.03
232.267	0.01
232.642	0.1
233.017	0.09
233.392	0.02
233.767	0.09
234.142	0.03
234.517	0.12
234.892	0.01
235.267	0.06
235.641	0.01
236.016	0.05
236.391	0.05
236.766	0.18
237.14	-0
237.515	0.15
237.89	0.06
238.264	-0.03
238.639	-0.07
239.014	0.09
239.388	0.03
239.763	0.05
240.137	0.08
240.512	-0.02
240.886	0.08
241.261	-0.04
241.635	0.01
242.009	0.03
242.384	0.02
242.758	0.01
243.132	0.14
243.507	-0.02
243.881	0.1
244.255	0.04
244.629	0.14
245.004	0.05
245.378	0.08
245.752	0.03
246.126	0.04
246.5	0.07
246.874	0.06
247.248	0.09
247.622	-0.01
247.996	-0.03
248.37	0.05
248.744	0.12
249.118	0.06
249.492	0.04
249.866	0.04
250.24	0.1
250.613	0.11
250.987	0.01
251.361	0.09
251.735	0.04
252.108	0.03
252.482	0.01
252.856	-0.04
253.229	0.03
253.603	0.05
253.977	-0.01
254.35	0
254.724	0.05
255.097	0.02
255.471	-0
255.844	0.04
256.218	0.01
256.591	0.02
256.964	0.06
257.338	-0.02
257.711	-0.04
258.084	0.04
258.458	0.1
258.831	0.09
259.204	-0.01
259.577	0.07
259.95	0.09
260.323	0.07
260.697	0.1
261.07	0.03
261.443	0.04
261.816	-0.01
262.189	-0.01
262.562	0.06
262.935	0.11
263.308	-0.01
263.68	0.03
264.053	0.01
264.426	0.04
264.799	0.03
265.172	0
265.545	0.01
265.917	0.11
266.29	0.05
266.663	0.1
267.035	-0
267.408	0.04
267.781	0.12
268.153	0.01
268.526	0.04
268.898	0
269.271	0.01
269.643	0.05
270.016	0.03
270.388	0.03
270.76	0.04
271.133	0.01
271.505	0.01
271.877	0.08
272.25	0.1
272.622	-0.02
272.994	0.04
273.366	0.1
273.739	0.02
274.111	-0.06
274.483	0.07
274.855	0.04
275.227	0.02
275.599	-0.02
275.971	0.05
276.343	0.02
276.715	0.05
277.087	0.07
277.459	0.02
277.831	0.08
278.203	0.07
278.574	0.06
278.946	0.02
279.318	0.01
279.69	0.04
280.061	0.06
280.433	0.09
280.805	0.03
281.176	-0.04
281.548	0.05
281.92	0.01
282.291	0.06
282.663	0.03
283.034	0.02
283.406	0
283.777	0.07
284.148	0.04
284.52	0.06
284.891	-0.02
285.262	0.02
285.634	0.03
286.005	0.04
286.376	-0.01
286.747	0.1
287.119	0.06
287.49	0.03
287.861	0.03
288.232	0.07
288.603	0.08
288.974	0.02
289.345	0.02
289.716	-0.01
290.087	0.02
290.458	0.04
290.829	0.02
291.2	0.06
291.571	0.04
291.941	0.15
292.312	0.06
292.683	0.03
293.054	0.04
293.424	0.07
293.795	0.04
294.166	0.02
294.536	0.07
294.907	0.08
295.277	0.03
295.648	0.01
296.018	0.07
296.389	0.07
296.759	-0.01
297.13	0.05
297.5	0.05
297.871	0.02
298.241	0.03
298.611	0.06
298.981	0.06
299.352	0.03
299.722	0.04
300.092	0.04
300.462	0.01
300.832	0.09
301.202	0.08
301.573	0.04
301.943	0
302.313	0.08
302.683	0.04
303.053	0.07
303.422	0.04
303.792	0.02
304.162	0.06
304.532	0.03
304.902	0.06
305.272	0.06
305.641	0.07
306.011	0.06
306.381	0.08
306.75	0.01
307.12	0.05
307.49	0.03
307.859	0.05
308.229	0.01
308.598	0.02
308.968	0.04
309.337	0.02
309.707	0.05
310.076	0.04
310.445	0.03
310.815	0.02
311.184	0.03
311.553	0.03
311.923	0.01
312.292	0.04
312.661	0.03
313.03	0.03
313.399	0.01
313.768	0.02
314.137	0.02
314.506	0.04
314.875	0.03
315.244	0.03
315.613	0.02
315.982	0.04
316.351	0.04
316.72	0.05
317.089	0.01
317.458	0.03
317.826	0.04
318.195	0.04
318.564	0.02
318.933	0.02
319.301	0.03
319.67	0.02
320.038	0.04
320.407	0.02
320.775	0.02
321.144	0.03
321.512	0.03
321.881	0.03
322.249	0.03
322.618	0.02
322.986	0.03
323.354	0.03
323.723	0.04
324.091	0.02
324.459	0.03
324.827	0.03
325.195	0.03
325.564	0.03
325.932	0.03
326.3	0.03
326.668	0.04
327.036	0.03
327.404	0.02
327.772	0.04
328.14	0.04
328.508	0.03
328.875	0.03
329.243	0.04
329.611	0.04
329.979	0.03
330.346	0.03
330.714	0.03
331.082	0.03
331.449	0.04
331.817	0.03
332.185	0.04
332.552	0.04
332.92	0.04
333.287	0.05
333.655	0.04
334.022	0.04
334.389	0.04
334.757	0.05
335.124	0.04
335.491	0.05
335.859	0.05
336.226	0.05
336.593	0.05
336.96	0.05
337.327	0.04
337.695	0.05
338.062	0.04
338.429	0.04
338.796	0.05
339.163	0.05
339.53	0.05
339.897	0.05
340.263	0.05
340.63	0.05
340.997	0.05
341.364	0.05
341.731	0.06
342.097	0.05
342.464	0.06
342.831	0.06
343.197	0.06
343.564	0.06
343.931	0.06
344.297	0.06
344.664	0.06
345.03	0.07
345.396	0.06
345.763	0.07
346.129	0.07
346.496	0.07
346.862	0.07
347.228	0.07
347.594	0.07
347.961	0.07
348.327	0.08
348.693	0.08
349.059	0.07
349.425	0.07
349.791	0.08
350.157	0.07
350.523	0.08
350.889	0.08
351.255	0.08
351.621	0.08
351.987	0.08
352.353	0.08
352.719	0.08
353.084	0.08
353.45	0.09
353.816	0.09
354.181	0.09
354.547	0.09
354.913	0.09
355.278	0.09
355.644	0.09
356.009	0.09
356.375	0.1
356.74	0.1
357.106	0.1
357.471	0.1
357.836	0.1
358.202	0.1
358.567	0.1
358.932	0.11
359.297	0.11
359.663	0.11
360.028	0.11
360.393	0.11
360.758	0.12
361.123	0.12
361.488	0.12
361.853	0.12
362.218	0.13
362.583	0.13
362.948	0.13
363.312	0.13
363.677	0.13
364.042	0.14
364.407	0.14
364.772	0.13
365.136	0.14
365.501	0.13
365.865	0.14
366.23	0.14
366.595	0.15
366.959	0.14
367.324	0.15
367.688	0.15
368.052	0.15
368.417	0.15
368.781	0.15
369.145	0.15
369.51	0.16
369.874	0.16
370.238	0.16
370.602	0.16
370.967	0.17
371.331	0.17
371.695	0.17
372.059	0.17
372.423	0.17
372.787	0.17
373.151	0.18
373.515	0.17
373.878	0.17
374.242	0.17
374.606	0.17
374.97	0.17
375.334	0.17
375.697	0.17
376.061	0.16
376.425	0.16
376.788	0.16
377.152	0.16
377.515	0.16
377.879	0.16
378.242	0.16
378.606	0.16
378.969	0.16
379.333	0.16
379.696	0.15
380.059	0.15
380.422	0.15
380.786	0.15
381.149	0.15
381.512	0.15
381.875	0.15
382.238	0.15
382.601	0.15
382.964	0.15
383.327	0.15
383.69	0.15
384.053	0.15
384.416	0.15
384.779	0.15
385.142	0.16
385.504	0.15
385.867	0.16
386.23	0.16
386.593	0.16
386.955	0.16
387.318	0.16
387.68	0.16
388.043	0.17
388.405	0.17
388.768	0.17
389.13	0.17
389.493	0.17
389.855	0.17
390.217	0.17
390.58	0.17
390.942	0.17
391.304	0.17
391.666	0.17
392.028	0.17
392.391	0.17
392.753	0.17
393.115	0.17
393.477	0.17
393.839	0.16
394.201	0.17
394.563	0.17
394.924	0.17
395.286	0.17
395.648	0.17
396.01	0.17
396.371	0.18
396.733	0.17
397.095	0.18
397.456	0.19
397.818	0.19
398.18	0.19
398.541	0.2
398.903	0.21
399.264	0.21
399.625	0.22
399.987	0.23
400.348	0.23
400.709	0.24
401.071	0.24
401.432	0.24
401.793	0.24
402.154	0.24
402.515	0.24
402.876	0.24
403.238	0.23
403.599	0.23
403.96	0.22
404.32	0.21
404.681	0.2
405.042	0.19
405.403	0.18
405.764	0.17
406.125	0.16
406.485	0.15
406.846	0.14
407.207	0.14
407.567	0.13
407.928	0.13
408.288	0.11
408.649	0.11
409.009	0.1
409.37	0.1
409.73	0.09
410.091	0.09
410.451	0.08
410.811	0.08
411.171	0.07
411.532	0.06
411.892	0.06
412.252	0.06
412.612	0.05
412.972	0.06
413.332	0.05
413.692	0.05
414.052	0.04
414.412	0.04
414.772	0.04
415.132	0.04
415.492	0.04
415.851	0.04
416.211	0.03
416.571	0.04
416.931	0.04
417.29	0.03
417.65	0.03
418.009	0.03
418.369	0.03
418.728	0.04
419.088	0.03
419.447	0.03
419.807	0.02
420.166	0.02
420.525	0.02
420.884	0.02
421.244	0.03
421.603	0.03
421.962	0.02
422.321	0.03
422.68	0.03
423.039	0.02
423.398	0.01
423.757	0.02
424.116	0.03
424.475	0.03
424.834	0.02
425.193	0.01
425.551	0.03
425.91	0.02
426.269	0.03
426.628	0.01
426.986	0.02
427.345	0.02
427.703	0.02
428.062	0.02
428.42	0.02
428.779	0.03
429.137	0.02
429.496	0.02
429.854	0.02
430.212	0.02
430.57	0.02
430.929	0.01
431.287	0.01
431.645	0.02
432.003	0.01
432.361	0.02
432.719	0.02
433.077	0.01
433.435	0.02
433.793	0.02
434.151	0.02
434.509	0.01
434.866	0.01
435.224	0.01
435.582	0.01
435.94	0.02
436.297	0.01
436.655	0.02
437.012	0.02
437.37	0.01
437.727	0.01
438.085	0.01
438.442	0.02
438.8	0.01
439.157	0.02
439.514	0.02
439.872	0.01
440.229	0
440.586	0.01
440.943	0.01
441.3	0.01
441.657	0.01
442.014	0.01
442.371	0.01
442.728	0.01
443.085	0.01
443.442	0
443.799	0.01
444.156	0.01
444.513	0.01
444.869	-0
445.226	0.01
445.583	0.02
445.939	0.01
446.296	0
446.652	0
447.009	0
447.365	0.01
447.722	0
448.078	0
448.434	0
448.791	0.01
449.147	0
449.503	-0
449.859	0
450.215	-0
450.571	-0
450.928	-0
451.284	0.01
451.64	-0.01
451.995	-0
452.351	-0
452.707	-0.01
453.063	-0.01
453.419	-0.01
453.775	-0.02
454.13	-0.01
454.486	-0.01
454.842	-0.02
455.197	-0.02
455.553	-0.02
455.908	-0.02
456.264	-0.03
456.619	-0.02
456.975	-0.03
457.33	-0.02
457.685	-0.03
458.04	-0.03
458.396	-0.03
458.751	-0.04
459.106	-0.04
459.461	-0.05
459.816	-0.05
460.171	-0.05
460.526	-0.04
460.881	-0.06
461.236	-0.07
461.591	-0.05
461.946	-0.06
462.301	-0.06
462.655	-0.07
463.01	-0.07
463.365	-0.07
463.719	-0.08
464.074	-0.08
464.428	-0.09
464.783	-0.09
465.137	-0.09
465.492	-0.09
465.846	-0.1
466.201	-0.09
466.555	-0.1
466.909	-0.1
467.263	-0.09
467.618	-0.09
467.972	-0.09
468.326	-0.09
468.68	-0.1
469.034	-0.1
469.388	-0.11
469.742	-0.1
470.096	-0.1
470.45	-0.09
470.804	-0.1
471.157	-0.09
471.511	-0.09
471.865	-0.1
472.218	-0.1
472.572	-0.09
472.926	-0.09
473.279	-0.09
473.633	-0.09
473.986	-0.07
474.34	-0.07
474.693	-0.07
475.046	-0.06
475.4	-0.07
475.753	-0.06
476.106	-0.06
476.459	-0.06
476.812	-0.05
477.165	-0.04
477.519	-0.04
477.872	-0.04
478.224	-0.04
478.577	-0.03
478.93	-0.02
479.283	-0.03
479.636	-0.02
479.989	-0.02
480.341	-0.02
480.694	-0.01
481.047	-0.02
481.399	-0.02
481.752	-0.01
482.104	-0.01
482.457	-0.01
482.809	-0
483.162	-0
483.514	-0.01
483.866	-0
484.219	-0
484.571	-0
484.923	-0
485.275	0
485.627	0
485.979	0
486.331	0
486.683	0.01
487.035	0
487.387	0.01
487.739	0.02
488.091	0.01
488.443	0.01
488.794	0.01
489.146	0.01
489.498	0.01
489.849	0.01
490.201	0.02
490.552	0.02
490.904	0.01
491.255	0.02
491.607	0.01
491.958	0.01
492.309	0.02
492.661	0.02
493.012	0.02
493.363	0.02
493.714	0.02
494.065	0.02
494.416	0.02
494.767	0.02
495.118	0.02
495.469	0.02
495.82	0.02
496.171	0.03
496.522	0.02
496.872	0.03
497.223	0.03
497.574	0.03
497.924	0.03
498.275	0.03
498.626	0.03
498.976	0.03
499.327	0.03
499.677	0.03
500.027	0.04
500.378	0.03
500.728	0.03
501.078	0.03
501.428	0.03
501.779	0.03
502.129	0.03
502.479	0.03
502.829	0.04
503.179	0.03
503.529	0.03
503.879	0.04
504.229	0.04
504.578	0.04
504.928	0.04
505.278	0.04
505.628	0.04
505.977	0.04
506.327	0.04
506.676	0.04
507.026	0.04
507.375	0.04
507.725	0.04
508.074	0.04
508.424	0.04
508.773	0.04
509.122	0.04
509.471	0.04
509.82	0.04
510.17	0.05
510.519	0.04
510.868	0.05
511.217	0.04
511.566	0.05
511.915	0.04
512.263	0.05
512.612	0.04
512.961	0.05
513.31	0.05
513.659	0.05
514.007	0.05
514.356	0.04
514.704	0.05
515.053	0.05
515.401	0.05
515.75	0.05
516.098	0.05
516.447	0.05
516.795	0.05
517.143	0.05
517.491	0.05
517.839	0.05
518.188	0.05
518.536	0.05
518.884	0.05
519.232	0.06
519.58	0.05
519.928	0.05
520.275	0.05
520.623	0.05
520.971	0.05
521.319	0.05
521.666	0.05
522.014	0.06
522.362	0.05
522.709	0.06
523.057	0.06
523.404	0.05
523.752	0.06
524.099	0.06
524.446	0.06
524.794	0.06
525.141	0.06
525.488	0.06
525.835	0.06
526.182	0.06
526.529	0.06
526.876	0.06
527.223	0.06
527.57	0.06
527.917	0.06
528.264	0.06
528.611	0.06
528.958	0.06
529.304	0.06
529.651	0.06
529.998	0.06
530.344	0.06
530.691	0.06
531.037	0.06
531.384	0.06
531.73	0.06
532.076	0.07
532.423	0.06
532.769	0.06
533.115	0.06
533.461	0.06
533.807	0.06
534.154	0.07
534.5	0.06
534.846	0.07
535.192	0.06
535.537	0.06
535.883	0.07
536.229	0.07
536.575	0.07
536.921	0.07
537.266	0.07
537.612	0.07
537.957	0.07
538.303	0.07
538.649	0.07
538.994	0.07
539.339	0.07
539.685	0.07
540.03	0.07
540.375	0.07
540.721	0.07
541.066	0.07
541.411	0.07
541.756	0.07
542.101	0.07
542.446	0.07
542.791	0.07
543.136	0.07
543.481	0.07
543.825	0.07
544.17	0.07
544.515	0.07
544.86	0.07
545.204	0.07
545.549	0.07
545.893	0.07
546.238	0.07
546.582	0.07
546.927	0.08
547.271	0.07
547.615	0.07
547.96	0.07
548.304	0.08
548.648	0.07
548.992	0.07
549.336	0.07
549.68	0.07
550.024	0.08
550.368	0.08
550.712	0.07
551.056	0.08
551.4	0.08
551.743	0.08
552.087	0.08
552.431	0.08
552.774	0.08
553.118	0.08
553.462	0.08
553.805	0.08
554.148	0.08
554.492	0.08
554.835	0.08
555.178	0.08
555.522	0.08
555.865	0.08
556.208	0.08
556.551	0.08
556.894	0.08
557.237	0.08
557.58	0.08
557.923	0.08
558.266	0.08
558.609	0.08
558.952	0.08
559.294	0.08
559.637	0.08
559.98	0.08
560.322	0.08
560.665	0.08
561.007	0.08
561.35	0.08
561.692	0.08
562.034	0.08
562.377	0.08
562.719	0.08
563.061	0.08
563.403	0.08
563.745	0.08
564.088	0.08
564.43	0.08
564.772	0.08
565.113	0.08
565.455	0.08
565.797	0.08
566.139	0.08
566.481	0.08
566.822	0.08
567.164	0.08
567.506	0.08
567.847	0.08
568.189	0.08
568.53	0.08
568.872	0.08
569.213	0.08
569.554	0.08
569.895	0.08
570.237	0.08
570.578	0.08
570.919	0.08
571.26	0.08
571.601	0.08
571.942	0.08
572.283	0.08
572.624	0.08
572.965	0.08
573.306	0.08
573.646	0.08
573.987	0.08
574.328	0.08
574.668	0.08
575.009	0.07
575.349	0.07
575.69	0.07
576.03	0.08
576.37	0.07
576.711	0.07
577.051	0.07
577.391	0.07
577.731	0.08
578.072	0.08
578.412	0.07
578.752	0.08
579.092	0.07
579.431	0.07
579.771	0.05
580.111	0.05
580.451	0.06
580.791	0.07
581.13	0.07
581.47	0.08
581.81	0.08
582.149	0.07
582.489	0.07
582.828	0.07
583.167	0.04
583.507	0.01
583.846	0.02
584.185	0.05
584.525	0.06
584.864	0.07
585.203	0.08
585.542	0.08
585.881	0.08
586.22	0.08
586.559	0.07
586.898	0.07
587.236	0.06
587.575	0.06
587.914	0.07
588.252	0.07
588.591	0.08
588.93	0.08
589.268	0.07
589.607	0.07
589.945	0.07
590.283	0.08
590.622	0.07
590.96	0.08
591.298	0.08
591.636	0.08
591.974	0.08
592.313	0.08
592.651	0.08
592.989	0.08
593.326	0.08
593.664	0.08
594.002	0.08
594.34	0.08
594.678	0.08
595.015	0.07
595.353	0.07
595.691	0.08
596.028	0.08
596.366	0.08
596.703	0.08
597.04	0.08
597.378	0.08
597.715	0.08
598.052	0.08
598.389	0.08
598.726	0.08
599.064	0.08
599.401	0.08
599.738	0.08
600.074	0.08
600.411	0.08
600.748	0.08
601.085	0.08
601.422	0.08
601.758	0.08
602.095	0.08
602.432	0.08
602.768	0.08
603.105	0.08
603.441	0.08
603.777	0.08
604.114	0.08
604.45	0.09
604.786	0.09
605.122	0.09
605.459	0.08
605.795	0.08
606.131	0.08
606.467	0.08
606.803	0.08
607.139	0.08
607.474	0.08
607.81	0.08
608.146	0.08
608.482	0.08
608.817	0.08
609.153	0.08
609.488	0.08
609.824	0.08
610.159	0.08
610.495	0.08
610.83	0.08
611.165	0.08
611.5	0.08
611.836	0.08
612.171	0.08
612.506	0.08
612.841	0.08
613.176	0.08
613.511	0.08
613.845	0.08
614.18	0.07
614.515	0.08
614.85	0.07
615.184	0.08
615.519	0.08
615.854	0.08
616.188	0.08
616.523	0.08
616.857	0.08
617.191	0.08
617.526	0.08
617.86	0.08
618.194	0.08
618.528	0.08
618.862	0.07
619.196	0.08
619.53	0.08
619.864	0.08
620.198	0.08
620.532	0.08
620.866	0.08
621.2	0.08
621.533	0.08
621.867	0.07
622.201	0.08
622.534	0.08
622.868	0.07
623.201	0.07
623.534	0.07
623.868	0.07
624.201	0.07
624.534	0.07
624.868	0.07
625.201	0.08
625.534	0.07
625.867	0.07
626.2	0.07
626.533	0.07
626.865	0.07
627.198	0.07
627.531	0.07
627.864	0.07
628.196	0.07
628.529	0.07
628.862	0.07
629.194	0.07
629.527	0.07
629.859	0.07
630.191	0.07
630.524	0.07
630.856	0.06
631.188	0.06
631.52	0.06
631.852	0.06
632.184	0.06
632.516	0.06
632.848	0.06
633.18	0.07
633.512	0.06
633.844	0.06
634.175	0.06
634.507	0.06
634.839	0.06
635.17	0.06
635.502	0.06
635.833	0.06
636.165	0.06
636.496	0.06
636.827	0.06
637.159	0.06
637.49	0.06
637.821	0.06
638.152	0.06
638.483	0.05
638.814	0.06
639.145	0.06
639.476	0.06
639.807	0.06
640.137	0.05
640.468	0.05
640.799	0.05
641.129	0.05
641.46	0.05
641.791	0.05
642.121	0.05
642.451	0.05
642.782	0.05
643.112	0.05
643.442	0.05
643.773	0.05
644.103	0.05
644.433	0.05
644.763	0.05
645.093	0.05
645.423	0.05
645.753	0.05
646.082	0.05
646.412	0.05
646.742	0.05
647.072	0.05
647.401	0.05
647.731	0.05
648.06	0.05
648.39	0.05
648.719	0.05
649.048	0.05
649.378	0.05
649.707	0.05
650.036	0.05
650.365	0.05
650.694	0.05
651.023	0.05
651.352	0.04
651.681	0.04
652.01	0.04
652.339	0.04
652.668	0.05
652.996	0.04
653.325	0.04
653.654	0.05
653.982	0.04
654.311	0.05
654.639	0.04
654.967	0.04
655.296	0.05
655.624	0.04
655.952	0.05
656.28	0.04
656.609	0.04
656.937	0.05
657.265	0.04
657.593	-0
657.92	0
658.248	0
658.576	-0
658.904	0
659.231	0.04
659.559	0.04
659.887	0.04
660.214	0.04
660.542	0.04
660.869	0.04
661.196	0.04
661.524	0.04
661.851	0.04
662.178	0.04
662.505	0.04
662.832	0.04
663.159	0.04
663.486	0.04
663.813	0.04
664.14	0.04
664.467	0.04
664.794	0.04
665.12	0.04
665.447	0.04
665.774	0.04
666.1	0.04
666.427	0.04
666.753	0.04
667.079	0.04
667.406	0.04
667.732	0.04
668.058	0.04
668.384	0.04
668.71	0.04
669.036	0.04
669.362	0.04
669.688	0.04
670.014	0.04
670.34	0.04
670.666	0.04
670.991	0.04
671.317	0.04
671.643	0.04
671.968	0.04
672.294	0.04
672.619	0.04
672.945	0.03
673.27	0.03
673.595	0.03
673.92	0.03
674.246	0.03
674.571	0.03
674.896	0.03
675.221	0.03
675.546	0.03
675.87	0.03
676.195	0.03
676.52	0.03
676.845	0.03
677.169	0.03
677.494	0.03
677.819	0.03
678.143	0.03
678.468	0.03
678.792	0.03
679.116	0.03
679.44	0.03
679.765	0.03
680.089	0.03
680.413	0.03
680.737	0.03
681.061	0.03
681.385	0.03
681.709	0.03
682.033	0.03
682.356	0.03
682.68	0.03
683.004	0.03
683.327	0.03
683.651	0.02
683.974	0.02
684.298	0.02
684.621	0.02
684.944	0.02
685.268	0.02
685.591	0.02
685.914	0.02
686.237	0.02
686.56	0.02
686.883	0.02
687.206	0.02
687.529	0.02
687.852	0.02
688.175	0.02
688.497	0.02
688.82	0.02
689.142	0.02
689.465	0.02
689.787	0.02
690.11	0.02
690.432	0.02
690.755	0.02
691.077	0.02
691.399	0.02
691.721	0.02
692.043	0.02
692.365	0.02
692.687	0.02
693.009	0.01
693.331	0.01
693.653	0.01
693.974	0.01
694.296	0.01
694.618	0.01
694.939	0.01
695.261	0.01
695.582	0.01
695.904	0.01
696.225	0.01
696.546	0.01
696.868	0.01
697.189	0.01
697.51	0.01
697.831	0.01
698.152	0.01
698.473	0.01
698.794	0.01
699.114	0.01
699.435	0
699.756	0.01
700.077	0.01
700.397	0.01
700.718	0.01
701.038	0.01
701.359	0.01
701.679	0.01
701.999	0.01
702.32	0.01
702.64	0.01
702.96	0.01
703.28	0.01
703.6	0.01
703.92	0.01
704.24	0.01
704.56	0
704.879	0.01
705.199	0.01
705.519	0.01
705.838	0.01
706.158	0.01
706.478	0.01
706.797	0.01
707.116	0.01
707.436	0.01
707.755	0.01
708.074	0.01
708.393	0.01
708.712	0.01
709.031	0
709.35	0
709.669	0
709.988	0
710.307	0.01
710.626	0
710.944	0.01
711.263	0.01
711.582	0.01
711.9	0.01
712.219	0.01
712.537	0.01
712.855	0.01
713.174	0.01
713.492	0
713.81	0
714.128	0
714.446	0.01
714.764	0
715.082	0
715.4	0.01
715.718	0.01
716.035	0.01
716.353	0.01
716.671	0.01
716.988	0.01
717.306	0.01
717.623	0.01
717.941	0.01
718.258	0.01
718.575	0.01
718.893	0.01
719.21	0.01
719.527	0.01
719.844	0.01
720.161	0.01
720.478	0.01
720.795	0.01
721.112	0.01
721.428	0.01
721.745	0.01
722.062	0.01
722.378	0.01
722.695	0.01
723.011	0.01
723.328	0.01
723.644	0.01
723.96	0.01
724.276	0.01
724.593	0.01
724.909	0.01
725.225	0.01
725.541	0.01
725.857	0.01
726.173	0.01
726.488	0.01
726.804	0.01
727.12	0.01
727.435	0.01
727.751	0.01
728.067	0.01
728.382	0.01
728.697	0.01
729.013	0.01
729.328	0.01
729.643	0.01
729.958	0.01
730.273	0.01
730.588	0.01
730.903	0.01
731.218	0.01
731.533	0.01
731.848	0.01
732.163	0.01
732.477	0.01
732.792	0
733.107	0
733.421	0.01
733.736	0.01
734.05	0.01
734.364	0.01
734.678	0.01
734.993	0.01
735.307	0.01
735.621	0.01
735.935	0.01
736.249	0.01
736.563	0.01
736.877	0.01
737.19	0.01
737.504	0.01
737.818	0.01
738.131	0.01
738.445	0.01
738.758	0.01
739.072	0.01
739.385	0.01
739.698	0.01
740.012	0.02
740.325	0.01
740.638	0.01
740.951	0.01
741.264	0.01
741.577	0.01
741.89	0.01
742.203	0.01
742.515	0.01
742.828	0.01
743.141	0.01
743.453	0
743.766	0.01
744.078	0.01
744.391	0.01
744.703	0.01
745.015	0.01
745.327	0.01
745.639	0.01
745.952	0.01
746.264	0.01
746.575	0.01
746.887	0.01
747.199	0.01
747.511	0.01
747.823	0.01
748.134	0.01
748.446	0.01
748.757	0
749.069	0.01
749.38	0.01
749.692	0
750.003	0
750.314	0
750.625	0
750.936	0
751.248	0
751.559	0
751.869	0
752.18	0
752.491	0
752.802	0
753.112	0
753.423	0
753.734	0
754.044	0
754.355	0
754.665	-0
754.975	0
755.285	0
755.596	0
755.906	0
756.216	-0
756.526	0
756.836	-0
757.146	0
757.455	0
757.765	0
758.075	0
758.385	0
758.694	0
759.004	0
759.313	0
759.622	0
759.932	0
760.241	0
760.55	0
760.859	0
761.168	0
761.477	0
761.786	0
762.095	0
762.404	0
762.713	0
763.021	0
763.33	0
763.639	0
763.947	0
764.256	-0
764.564	0
764.872	-0
765.181	0
765.489	0
765.797	-0
766.105	-0
766.413	-0
766.721	0
767.029	-0
767.337	-0
767.644	-0
767.952	0
768.26	0
768.567	0
768.875	0
769.182	0
769.49	0
769.797	0
770.104	0
770.411	0
770.718	-0
771.026	-0
771.333	0
771.639	-0
771.946	-0
772.253	-0
772.56	-0
772.867	-0
773.173	-0
773.48	-0
773.786	0
774.093	-0
774.399	0
774.705	0
775.012	-0
775.318	-0
775.624	0
775.93	-0
776.236	0
776.542	-0
776.848	0
777.154	0
777.459	-0
777.765	-0
778.071	-0
778.376	-0
778.682	-0
778.987	0
779.292	-0
779.598	-0
779.903	-0
780.208	-0
780.513	-0
780.818	-0
781.123	-0
781.428	-0
781.733	-0.01
782.038	-0.01
782.343	-0.01
782.647	-0.01
782.952	-0.01
783.256	-0.01
783.561	-0.01
783.865	-0.01
784.17	-0.01
784.474	-0.01
784.778	-0.01
785.082	-0.01
785.386	-0.01
785.69	-0.01
785.994	-0.01
786.298	-0.01
786.602	-0.01
786.906	-0
787.209	-0
787.513	-0
787.817	0
788.12	-0
788.424	0
788.727	0
789.03	-0
789.333	-0
789.637	-0
789.94	0
790.243	-0
790.546	-0
790.849	-0
791.152	-0
791.454	-0
791.757	-0
792.06	-0
792.362	0
792.665	-0
792.967	-0
793.27	-0
793.572	-0
793.874	0
794.177	-0
794.479	-0
794.781	-0.01
795.083	-0.01
795.385	-0.01
795.687	-0
795.989	-0
796.29	-0
796.592	-0
796.894	-0
797.195	-0
797.497	-0
797.798	0
798.1	-0
798.401	-0.01
798.702	-0
799.003	-0.01
799.304	-0
799.605	-0
799.906	-0
800.207	-0
800.508	-0.01
800.809	-0
801.11	0
801.41	-0
801.711	-0.01
802.011	-0
802.312	-0
802.612	-0.01
802.913	-0.01
803.213	-0.01
803.513	-0.01
803.813	-0
804.113	-0
804.413	-0
804.713	-0
805.013	-0
805.313	0
805.613	-0
805.912	-0.01
806.212	-0
806.511	-0
806.811	-0
807.11	0
807.41	0
807.709	-0
808.008	-0
808.307	-0
808.606	-0.01
808.905	-0.01
809.204	-0.01
809.503	-0.01
809.802	-0.01
810.101	-0.01
810.399	-0
810.698	-0
810.997	-0.01
811.295	-0
811.593	-0.01
811.892	-0
812.19	-0.01
812.488	-0
812.786	-0
813.084	-0
813.383	-0
813.68	-0
813.978	0
814.276	-0
814.574	-0
814.872	-0
815.169	-0
815.467	-0
815.764	-0
816.062	-0
816.359	-0.01
816.656	-0.01
816.954	-0.01
817.251	-0
817.548	-0
817.845	-0
818.142	0
818.439	-0
818.735	0
819.032	0
819.329	0
819.626	0
819.922	0
820.219	0.01
820.515	0.01
820.811	0.01
821.108	0.01
821.404	0
821.7	0
821.996	0
822.292	0.01
822.588	0.01
822.884	0.01
823.18	0.01
823.475	0.01
823.771	0.01
824.067	0.01
824.362	0.01
824.658	0.01
824.953	0.01
825.249	-0
825.544	-0
825.839	0
826.134	-0
826.429	0
826.724	-0
827.019	0
827.314	0.01
827.609	0
827.904	0.01
828.198	0
828.493	0.01
828.787	0.01
829.082	0.01
829.376	0.01
829.671	0.01
829.965	0.01
830.259	0.01
830.553	0.01
830.847	0.01
831.141	0.01
831.435	0.01
831.729	0.01
832.023	0
832.317	0.01
832.61	0.01
832.904	0.01
833.197	0.01
833.491	0.01
833.784	0.01
834.077	0.01
834.371	0.01
834.664	0.01
834.957	0.01
835.25	0
835.543	0.01
835.836	0.01
836.129	0.01
836.421	0.01
836.714	0.01
837.007	0.01
837.299	0.01
837.592	0.01
837.884	0.01
838.177	0.01
838.469	0.01
838.761	0.01
839.053	0
839.345	0.01
839.637	0
839.929	0.01
840.221	0.01
840.513	0
840.805	0.01
841.096	0.01
841.388	0.01
841.68	0.01
841.971	0
842.262	0
842.554	0
842.845	0.01
843.136	0
843.427	0.01
843.718	0.01
844.009	0
844.3	0
844.591	0.01
844.882	0.01
845.173	0.02
845.463	0.01
845.754	0.03
846.044	0.01
846.335	0
846.625	0
846.915	0
847.206	0
847.496	0.01
847.786	0.01
848.076	0
848.366	0.01
848.656	-0
848.945	-0
849.235	0
849.525	-0
849.814	-0
850.104	-0.01
850.393	0
850.683	0.01
850.972	-0
851.261	0.01
851.551	0.02
851.84	0.01
852.129	0.01
852.418	0.01
852.707	0.01
852.995	0.01
853.284	-0
853.573	-0
853.862	-0.01
854.15	0.01
854.439	0.01
854.727	0
855.015	-0
855.304	0
855.592	-0
855.88	0
856.168	0.01
856.456	0
856.744	-0.01
857.032	-0.01
857.32	-0.01
857.607	-0
857.895	0.01
858.183	0.01
858.47	0.01
858.757	0
859.045	0.01
859.332	0.01
859.619	0.01
859.907	0.01
860.194	-0.01
860.481	0.02
860.768	0
861.054	0
861.341	0
861.628	0.03
861.915	0.01
862.201	0.01
862.488	0.02
862.774	0.01
863.061	0.02
863.347	0
863.633	0.02
863.919	-0
864.205	-0
864.491	0.01
864.777	0.02
865.063	-0.01
865.349	0.01
865.635	-0
865.92	0.03
866.206	0.03
866.492	-0.01
866.777	0.03
867.062	0.02
867.348	0.02
867.633	-0.02
867.918	0
868.203	0
868.488	0.02
868.773	0.04
869.058	0.03
869.343	0
869.628	0.03
869.912	0.02
870.197	0.03
870.482	0.01
870.766	0.07
871.05	0.01
871.335	0.01
871.619	0.01
871.903	0.01
872.187	-0.01
872.471	0.02
872.755	0.02
873.039	0.02
873.323	0.04
873.607	0.05
873.89	-0.01
874.174	-0.02
874.458	0.04
874.741	-0.06
875.024	0.03
875.308	0.01
875.591	0.01
875.874	0.01
876.157	0
876.44	-0.03
876.723	-0.02
877.006	0.01
877.289	-0.05
877.572	0.05
877.854	0.01
878.137	-0.02
878.42	-0.04
878.702	0.02
878.984	0.12
879.267	0.09
879.549	-0.03
879.831	-0.07
880.113	-0.03
880.395	-0.02
880.677	-0.12
880.959	-0.01
