Data from Rubpy_BV_1800_EDTA_Buffered_Absorbance_14-51-03-822.txt Node
Date: Wed Jul 01 14:51:03 BST 2026
User: fpm-admin
Spectrometer: OFX00224
Trigger mode: 0
Integration Time (sec): 7.000000E-2
Scans to average: 3
Nonlinearity correction enabled: false
Boxcar width: 0
Storing dark spectrum: false
XAxis mode: Wavelengths
Number of Pixels in Spectrum: 2136
>>>>>Begin Spectral Data<<<<<
154.91	-0.48
155.289	-0
155.669	-0.36
156.048	0.7
156.428	-0.14
156.807	0.12
157.186	0.12
157.566	0.24
157.945	-0
158.325	-0
158.704	-0
159.083	-0.08
159.462	-0
159.842	-0.55
160.221	-1.29
160.6	-0.12
160.979	-0.46
161.359	1.49
161.738	0.31
162.117	-0
162.496	-0
162.875	0.12
163.254	0.73
163.633	-0
164.012	-0
164.391	-0.65
164.77	-0.99
165.149	-0.48
165.528	-0
165.907	-0
166.286	-0.21
166.665	-0
167.044	0.37
167.423	-0
167.802	0.48
168.181	0.05
168.559	-0.9
168.938	-0.25
169.317	-0
169.696	-0
170.074	-0
170.453	0.51
170.832	-0.71
171.21	-0.1
171.589	-0
171.968	0.33
172.346	-0
172.725	0.95
173.103	0.29
173.482	0.88
173.861	-0
174.239	0.34
174.617	-0
174.996	0.59
175.374	0.74
175.753	-0
176.131	-0
176.51	-0.25
176.888	-0
177.266	-0
177.645	-0.07
178.023	0.28
178.401	-0.04
178.779	-0.33
179.158	-1.18
179.536	-0.43
179.914	-0
180.292	-0
180.67	-0
181.048	-0.7
181.427	0.05
181.805	-0
182.183	-1.48
182.561	-0.21
182.939	-0
183.317	-0.1
183.695	0.46
184.073	-0
184.451	-0
184.829	-0.24
185.206	-0.18
185.584	0.6
185.962	-0
186.34	-0.1
186.718	0.15
187.096	-0.86
187.473	-0.06
187.851	-0
188.229	0.43
188.607	0.12
188.984	-0.06
189.362	0.08
189.74	0.1
190.117	0.01
190.495	0.1
190.872	0.07
191.25	0.1
191.627	0.01
192.005	-0.01
192.382	0.01
192.76	0.01
193.137	0.05
193.515	0.13
193.892	0.12
194.269	0.01
194.647	0.07
195.024	0.01
195.401	-0
195.779	0.04
196.156	-0.03
196.533	0.02
196.91	-0.03
197.288	-0.02
197.665	0.07
198.042	0.03
198.419	0.06
198.796	-0.01
199.173	0.1
199.55	0.03
199.927	0.05
200.304	0.13
200.681	0.23
201.058	0.1
201.435	0.03
201.812	-0.01
202.189	0.06
202.566	0.09
202.943	-0.02
203.32	0.08
203.697	0.06
204.073	0.07
204.45	0.07
204.827	0.07
205.204	0.04
205.58	0.09
205.957	0.1
206.334	-0.03
206.71	0.09
207.087	0.06
207.464	0.03
207.84	0.1
208.217	0.11
208.593	0.04
208.97	0.04
209.346	0.06
209.723	0.1
210.099	0.17
210.476	0.06
210.852	0.03
211.228	0.08
211.605	0.15
211.981	0.06
212.357	-0.04
212.733	0.11
213.11	-0.02
213.486	0.07
213.862	0.06
214.238	0.06
214.614	0.12
214.991	0.09
215.367	-0
215.743	0.16
216.119	0.01
216.495	0.1
216.871	0.08
217.247	0.07
217.623	-0
217.999	0.01
218.375	0.03
218.751	0.08
219.127	0.16
219.502	0.04
219.878	0.05
220.254	0.11
220.63	0.07
221.006	0.08
221.381	0.06
221.757	-0.04
222.133	0.07
222.508	0.03
222.884	0.13
223.26	0.05
223.635	0.05
224.011	0.06
224.386	0.11
224.762	0.07
225.137	-0.01
225.513	0.01
225.888	0.02
226.264	0.02
226.639	0.03
227.014	0.05
227.39	0.19
227.765	0.06
228.14	0.11
228.516	0.14
228.891	0.1
229.266	0.06
229.641	0.06
230.017	0.05
230.392	0.03
230.767	0.06
231.142	-0.05
231.517	0.02
231.892	0.02
232.267	0.05
232.642	0.04
233.017	-0.01
233.392	-0.02
233.767	0.09
234.142	0.08
234.517	0.17
234.892	0.08
235.267	0.07
235.641	-0
236.016	0.05
236.391	0.06
236.766	0.18
237.14	0.01
237.515	0.06
237.89	0.1
238.264	0.01
238.639	-0.07
239.014	0.19
239.388	0.14
239.763	0.06
240.137	0.1
240.512	0.02
240.886	0.06
241.261	0.02
241.635	-0.01
242.009	0.06
242.384	0.07
242.758	-0
243.132	0.08
243.507	0.04
243.881	0.01
244.255	0.1
244.629	0.15
245.004	0.05
245.378	0.07
245.752	-0
246.126	0.01
246.5	0.06
246.874	0.13
247.248	0.1
247.622	-0.02
247.996	0.01
248.37	0.01
248.744	0.02
249.118	0.04
249.492	0.07
249.866	0.08
250.24	0.12
250.613	0.04
250.987	0.07
251.361	0.15
251.735	0
252.108	0.05
252.482	-0.02
252.856	-0.05
253.229	0.08
253.603	0.04
253.977	0.04
254.35	0.02
254.724	0.06
255.097	0.05
255.471	0.07
255.844	0.03
256.218	0.03
256.591	0.04
256.964	0.09
257.338	0.01
257.711	-0.06
258.084	-0.02
258.458	0.13
258.831	0.05
259.204	0.13
259.577	0.09
259.95	0.04
260.323	0.04
260.697	0.05
261.07	0.06
261.443	0.04
261.816	0.04
262.189	0.12
262.562	0.09
262.935	0.09
263.308	-0.03
263.68	0.06
264.053	0.03
264.426	0.09
264.799	0.04
265.172	0.04
265.545	0.08
265.917	0.08
266.29	0.04
266.663	0.09
267.035	0.05
267.408	0.08
267.781	0.09
268.153	0.03
268.526	0.04
268.898	0.08
269.271	0.07
269.643	0.05
270.016	0.12
270.388	0.03
270.76	0.05
271.133	0.07
271.505	0.03
271.877	0.07
272.25	0.08
272.622	0.06
272.994	0.06
273.366	0.07
273.739	0.07
274.111	-0.03
274.483	0.06
274.855	0.01
275.227	0.07
275.599	0.01
275.971	0.09
276.343	0.05
276.715	0.09
277.087	0.07
277.459	0.05
277.831	0.12
278.203	0.12
278.574	0.06
278.946	0.11
279.318	0.04
279.69	0.08
280.061	0.06
280.433	0.05
280.805	0.11
281.176	0.03
281.548	0.05
281.92	0.01
282.291	0.06
282.663	0.04
283.034	0.02
283.406	0.09
283.777	0.11
284.148	0.05
284.52	0.03
284.891	0.01
285.262	0.06
285.634	0.06
286.005	0.03
286.376	-0.03
286.747	0.09
287.119	0.05
287.49	0.07
287.861	0.02
288.232	0.02
288.603	0.06
288.974	0.1
289.345	0.05
289.716	0.05
290.087	0.05
290.458	0.05
290.829	0.01
291.2	0.03
291.571	0.08
291.941	0.17
292.312	0.06
292.683	0.07
293.054	0.12
293.424	0.08
293.795	0.06
294.166	0.04
294.536	0.06
294.907	0.13
295.277	0.07
295.648	0.03
296.018	0.1
296.389	0.05
296.759	0.04
297.13	0.03
297.5	0.07
297.871	0.03
298.241	0.09
298.611	0.1
298.981	0.08
299.352	0.05
299.722	0.04
300.092	0.12
300.462	0
300.832	0.1
301.202	0.06
301.573	0.1
301.943	-0.01
302.313	0.08
302.683	0.09
303.053	0.06
303.422	0.07
303.792	-0
304.162	0.07
304.532	0.08
304.902	0.07
305.272	0.08
305.641	0.1
306.011	0.03
306.381	0.05
306.75	0.05
307.12	0.05
307.49	0
307.859	0.06
308.229	0.04
308.598	0.02
308.968	0.04
309.337	0.03
309.707	0.06
310.076	0.04
310.445	0.08
310.815	0.05
311.184	0.04
311.553	0.03
311.923	0.05
312.292	0.05
312.661	0.05
313.03	0.02
313.399	0.03
313.768	0.04
314.137	0.04
314.506	0.05
314.875	0.05
315.244	0.05
315.613	0.04
315.982	0.05
316.351	0.04
316.72	0.06
317.089	0.04
317.458	0.03
317.826	0.05
318.195	0.06
318.564	0.05
318.933	0.04
319.301	0.06
319.67	0.04
320.038	0.05
320.407	0.06
320.775	0.05
321.144	0.06
321.512	0.05
321.881	0.05
322.249	0.05
322.618	0.05
322.986	0.04
323.354	0.04
323.723	0.05
324.091	0.04
324.459	0.05
324.827	0.05
325.195	0.06
325.564	0.05
325.932	0.05
326.3	0.06
326.668	0.05
327.036	0.05
327.404	0.06
327.772	0.06
328.14	0.06
328.508	0.05
328.875	0.05
329.243	0.06
329.611	0.05
329.979	0.06
330.346	0.06
330.714	0.06
331.082	0.05
331.449	0.06
331.817	0.05
332.185	0.06
332.552	0.06
332.92	0.06
333.287	0.07
333.655	0.07
334.022	0.07
334.389	0.07
334.757	0.07
335.124	0.07
335.491	0.07
335.859	0.08
336.226	0.07
336.593	0.08
336.96	0.08
337.327	0.08
337.695	0.08
338.062	0.08
338.429	0.08
338.796	0.09
339.163	0.09
339.53	0.09
339.897	0.09
340.263	0.09
340.63	0.09
340.997	0.1
341.364	0.1
341.731	0.09
342.097	0.1
342.464	0.1
342.831	0.1
343.197	0.1
343.564	0.1
343.931	0.11
344.297	0.1
344.664	0.11
345.03	0.11
345.396	0.11
345.763	0.12
346.129	0.12
346.496	0.12
346.862	0.12
347.228	0.12
347.594	0.12
347.961	0.13
348.327	0.13
348.693	0.13
349.059	0.13
349.425	0.13
349.791	0.13
350.157	0.13
350.523	0.14
350.889	0.14
351.255	0.14
351.621	0.14
351.987	0.14
352.353	0.15
352.719	0.15
353.084	0.15
353.45	0.15
353.816	0.15
354.181	0.16
354.547	0.16
354.913	0.16
355.278	0.16
355.644	0.16
356.009	0.16
356.375	0.17
356.74	0.17
357.106	0.17
357.471	0.17
357.836	0.17
358.202	0.18
358.567	0.19
358.932	0.19
359.297	0.19
359.663	0.19
360.028	0.19
360.393	0.19
360.758	0.2
361.123	0.21
361.488	0.21
361.853	0.21
362.218	0.22
362.583	0.22
362.948	0.22
363.312	0.23
363.677	0.23
364.042	0.23
364.407	0.24
364.772	0.23
365.136	0.23
365.501	0.24
365.865	0.24
366.23	0.24
366.595	0.24
366.959	0.25
367.324	0.25
367.688	0.25
368.052	0.25
368.417	0.26
368.781	0.27
369.145	0.27
369.51	0.27
369.874	0.27
370.238	0.27
370.602	0.27
370.967	0.28
371.331	0.28
371.695	0.29
372.059	0.29
372.423	0.29
372.787	0.29
373.151	0.29
373.515	0.28
373.878	0.29
374.242	0.28
374.606	0.28
374.97	0.28
375.334	0.28
375.697	0.28
376.061	0.27
376.425	0.27
376.788	0.27
377.152	0.27
377.515	0.27
377.879	0.26
378.242	0.26
378.606	0.26
378.969	0.26
379.333	0.26
379.696	0.26
380.059	0.25
380.422	0.25
380.786	0.25
381.149	0.25
381.512	0.24
381.875	0.25
382.238	0.24
382.601	0.24
382.964	0.24
383.327	0.24
383.69	0.24
384.053	0.24
384.416	0.24
384.779	0.24
385.142	0.24
385.504	0.24
385.867	0.24
386.23	0.25
386.593	0.25
386.955	0.25
387.318	0.25
387.68	0.25
388.043	0.26
388.405	0.26
388.768	0.26
389.13	0.26
389.493	0.26
389.855	0.26
390.217	0.26
390.58	0.26
390.942	0.26
391.304	0.26
391.666	0.26
392.028	0.26
392.391	0.26
392.753	0.25
393.115	0.25
393.477	0.25
393.839	0.25
394.201	0.25
394.563	0.24
394.924	0.25
395.286	0.25
395.648	0.25
396.01	0.26
396.371	0.26
396.733	0.26
397.095	0.27
397.456	0.27
397.818	0.28
398.18	0.29
398.541	0.3
398.903	0.31
399.264	0.32
399.625	0.33
399.987	0.33
400.348	0.34
400.709	0.35
401.071	0.35
401.432	0.35
401.793	0.35
402.154	0.35
402.515	0.35
402.876	0.34
403.238	0.34
403.599	0.33
403.96	0.32
404.32	0.3
404.681	0.3
405.042	0.28
405.403	0.27
405.764	0.25
406.125	0.24
406.485	0.22
406.846	0.21
407.207	0.2
407.567	0.19
407.928	0.18
408.288	0.17
408.649	0.16
409.009	0.15
409.37	0.14
409.73	0.14
410.091	0.13
410.451	0.12
410.811	0.11
411.171	0.11
411.532	0.09
411.892	0.09
412.252	0.09
412.612	0.08
412.972	0.09
413.332	0.08
413.692	0.07
414.052	0.07
414.412	0.07
414.772	0.07
415.132	0.06
415.492	0.06
415.851	0.06
416.211	0.05
416.571	0.05
416.931	0.06
417.29	0.05
417.65	0.05
418.009	0.05
418.369	0.05
418.728	0.05
419.088	0.04
419.447	0.04
419.807	0.04
420.166	0.04
420.525	0.04
420.884	0.04
421.244	0.04
421.603	0.04
421.962	0.04
422.321	0.04
422.68	0.04
423.039	0.04
423.398	0.03
423.757	0.03
424.116	0.04
424.475	0.04
424.834	0.03
425.193	0.02
425.551	0.03
425.91	0.03
426.269	0.03
426.628	0.02
426.986	0.04
427.345	0.03
427.703	0.03
428.062	0.03
428.42	0.03
428.779	0.03
429.137	0.02
429.496	0.03
429.854	0.02
430.212	0.03
430.57	0.03
430.929	0.02
431.287	0.02
431.645	0.03
432.003	0.02
432.361	0.02
432.719	0.03
433.077	0.02
433.435	0.02
433.793	0.03
434.151	0.03
434.509	0.02
434.866	0.02
435.224	0.02
435.582	0.02
435.94	0.02
436.297	0.02
436.655	0.02
437.012	0.02
437.37	0.02
437.727	0.02
438.085	0.01
438.442	0.02
438.8	0.02
439.157	0.02
439.514	0.02
439.872	0.02
440.229	0.02
440.586	0.02
440.943	0.02
441.3	0.02
441.657	0.03
442.014	0.01
442.371	0.01
442.728	0.02
443.085	0.02
443.442	0.01
443.799	0.02
444.156	0.02
444.513	0.02
444.869	0.01
445.226	0.02
445.583	0.03
445.939	0.02
446.296	0.01
446.652	0.02
447.009	0.01
447.365	0.01
447.722	0.01
448.078	0.01
448.434	0.02
448.791	0.02
449.147	0.02
449.503	0.01
449.859	0.01
450.215	0
450.571	0.01
450.928	0
451.284	0.02
451.64	-0
451.995	0.01
452.351	0
452.707	-0
453.063	0.01
453.419	-0
453.775	-0.01
454.13	-0
454.486	0
454.842	-0.01
455.197	-0.01
455.553	-0.01
455.908	-0.01
456.264	-0.02
456.619	-0.01
456.975	-0.01
457.33	-0.01
457.685	-0.02
458.04	-0.02
458.396	-0.02
458.751	-0.03
459.106	-0.04
459.461	-0.02
459.816	-0.04
460.171	-0.04
460.526	-0.03
460.881	-0.05
461.236	-0.06
461.591	-0.05
461.946	-0.05
462.301	-0.05
462.655	-0.06
463.01	-0.05
463.365	-0.07
463.719	-0.06
464.074	-0.07
464.428	-0.08
464.783	-0.08
465.137	-0.08
465.492	-0.07
465.846	-0.08
466.201	-0.09
466.555	-0.08
466.909	-0.08
467.263	-0.07
467.618	-0.08
467.972	-0.08
468.326	-0.08
468.68	-0.09
469.034	-0.08
469.388	-0.09
469.742	-0.09
470.096	-0.09
470.45	-0.08
470.804	-0.09
471.157	-0.08
471.511	-0.08
471.865	-0.09
472.218	-0.09
472.572	-0.07
472.926	-0.08
473.279	-0.07
473.633	-0.07
473.986	-0.06
474.34	-0.06
474.693	-0.06
475.046	-0.05
475.4	-0.05
475.753	-0.04
476.106	-0.04
476.459	-0.03
476.812	-0.03
477.165	-0.03
477.519	-0.02
477.872	-0.02
478.224	-0.02
478.577	-0.02
478.93	-0.01
479.283	-0.01
479.636	-0.01
479.989	-0.01
480.341	0
480.694	0
481.047	-0
481.399	0
481.752	0.01
482.104	0.01
482.457	0.01
482.809	0.01
483.162	0.02
483.514	0.02
483.866	0.02
484.219	0.02
484.571	0.02
484.923	0.02
485.275	0.02
485.627	0.02
485.979	0.02
486.331	0.02
486.683	0.03
487.035	0.03
487.387	0.03
487.739	0.03
488.091	0.03
488.443	0.03
488.794	0.04
489.146	0.03
489.498	0.04
489.849	0.03
490.201	0.04
490.552	0.04
490.904	0.04
491.255	0.04
491.607	0.04
491.958	0.04
492.309	0.04
492.661	0.04
493.012	0.05
493.363	0.05
493.714	0.05
494.065	0.05
494.416	0.05
494.767	0.05
495.118	0.05
495.469	0.05
495.82	0.05
496.171	0.05
496.522	0.05
496.872	0.06
497.223	0.05
497.574	0.05
497.924	0.06
498.275	0.06
498.626	0.06
498.976	0.06
499.327	0.06
499.677	0.06
500.027	0.07
500.378	0.07
500.728	0.07
501.078	0.06
501.428	0.06
501.779	0.06
502.129	0.06
502.479	0.06
502.829	0.07
503.179	0.07
503.529	0.07
503.879	0.07
504.229	0.07
504.578	0.07
504.928	0.07
505.278	0.07
505.628	0.07
505.977	0.07
506.327	0.07
506.676	0.08
507.026	0.08
507.375	0.07
507.725	0.07
508.074	0.08
508.424	0.08
508.773	0.08
509.122	0.08
509.471	0.08
509.82	0.08
510.17	0.08
510.519	0.08
510.868	0.08
511.217	0.08
511.566	0.08
511.915	0.08
512.263	0.08
512.612	0.08
512.961	0.08
513.31	0.09
513.659	0.08
514.007	0.08
514.356	0.09
514.704	0.09
515.053	0.09
515.401	0.09
515.75	0.09
516.098	0.09
516.447	0.09
516.795	0.09
517.143	0.09
517.491	0.09
517.839	0.09
518.188	0.09
518.536	0.09
518.884	0.09
519.232	0.09
519.58	0.09
519.928	0.09
520.275	0.1
520.623	0.09
520.971	0.09
521.319	0.1
521.666	0.1
522.014	0.1
522.362	0.1
522.709	0.1
523.057	0.1
523.404	0.1
523.752	0.1
524.099	0.1
524.446	0.1
524.794	0.1
525.141	0.1
525.488	0.1
525.835	0.1
526.182	0.1
526.529	0.1
526.876	0.1
527.223	0.1
527.57	0.11
527.917	0.11
528.264	0.11
528.611	0.1
528.958	0.1
529.304	0.11
529.651	0.11
529.998	0.11
530.344	0.11
530.691	0.11
531.037	0.11
531.384	0.11
531.73	0.11
532.076	0.11
532.423	0.11
532.769	0.11
533.115	0.11
533.461	0.11
533.807	0.11
534.154	0.11
534.5	0.11
534.846	0.12
535.192	0.11
535.537	0.11
535.883	0.11
536.229	0.11
536.575	0.12
536.921	0.11
537.266	0.12
537.612	0.12
537.957	0.12
538.303	0.12
538.649	0.12
538.994	0.12
539.339	0.12
539.685	0.12
540.03	0.12
540.375	0.11
540.721	0.12
541.066	0.12
541.411	0.12
541.756	0.12
542.101	0.12
542.446	0.12
542.791	0.12
543.136	0.12
543.481	0.12
543.825	0.12
544.17	0.13
544.515	0.13
544.86	0.12
545.204	0.12
545.549	0.13
545.893	0.12
546.238	0.12
546.582	0.13
546.927	0.13
547.271	0.13
547.615	0.13
547.96	0.12
548.304	0.13
548.648	0.13
548.992	0.13
549.336	0.13
549.68	0.13
550.024	0.13
550.368	0.13
550.712	0.13
551.056	0.13
551.4	0.13
551.743	0.13
552.087	0.13
552.431	0.13
552.774	0.13
553.118	0.13
553.462	0.13
553.805	0.13
554.148	0.13
554.492	0.13
554.835	0.13
555.178	0.13
555.522	0.13
555.865	0.13
556.208	0.14
556.551	0.13
556.894	0.14
557.237	0.14
557.58	0.13
557.923	0.13
558.266	0.13
558.609	0.13
558.952	0.14
559.294	0.14
559.637	0.13
559.98	0.14
560.322	0.13
560.665	0.13
561.007	0.13
561.35	0.14
561.692	0.13
562.034	0.13
562.377	0.14
562.719	0.13
563.061	0.13
563.403	0.13
563.745	0.14
564.088	0.14
564.43	0.13
564.772	0.13
565.113	0.14
565.455	0.14
565.797	0.13
566.139	0.14
566.481	0.13
566.822	0.13
567.164	0.13
567.506	0.13
567.847	0.13
568.189	0.13
568.53	0.14
568.872	0.13
569.213	0.13
569.554	0.13
569.895	0.13
570.237	0.13
570.578	0.13
570.919	0.13
571.26	0.13
571.601	0.13
571.942	0.13
572.283	0.13
572.624	0.13
572.965	0.13
573.306	0.13
573.646	0.13
573.987	0.13
574.328	0.13
574.668	0.13
575.009	0.13
575.349	0.12
575.69	0.12
576.03	0.13
576.37	0.12
576.711	0.12
577.051	0.13
577.391	0.13
577.731	0.13
578.072	0.13
578.412	0.12
578.752	0.12
579.092	0.12
579.431	0.11
579.771	0.1
580.111	0.1
580.451	0.11
580.791	0.12
581.13	0.12
581.47	0.13
581.81	0.12
582.149	0.12
582.489	0.12
582.828	0.11
583.167	0.09
583.507	0.06
583.846	0.05
584.185	0.09
584.525	0.11
584.864	0.12
585.203	0.13
585.542	0.13
585.881	0.13
586.22	0.13
586.559	0.12
586.898	0.11
587.236	0.11
587.575	0.11
587.914	0.11
588.252	0.12
588.591	0.12
588.93	0.12
589.268	0.12
589.607	0.12
589.945	0.12
590.283	0.13
590.622	0.12
590.96	0.13
591.298	0.13
591.636	0.13
591.974	0.13
592.313	0.13
592.651	0.13
592.989	0.13
593.326	0.13
593.664	0.13
594.002	0.13
594.34	0.13
594.678	0.12
595.015	0.12
595.353	0.12
595.691	0.12
596.028	0.13
596.366	0.13
596.703	0.13
597.04	0.13
597.378	0.13
597.715	0.13
598.052	0.13
598.389	0.13
598.726	0.13
599.064	0.14
599.401	0.13
599.738	0.14
600.074	0.13
600.411	0.13
600.748	0.13
601.085	0.13
601.422	0.13
601.758	0.13
602.095	0.13
602.432	0.13
602.768	0.13
603.105	0.13
603.441	0.13
603.777	0.13
604.114	0.13
604.45	0.14
604.786	0.13
605.122	0.13
605.459	0.13
605.795	0.13
606.131	0.13
606.467	0.13
606.803	0.13
607.139	0.13
607.474	0.13
607.81	0.13
608.146	0.13
608.482	0.13
608.817	0.13
609.153	0.13
609.488	0.13
609.824	0.13
610.159	0.13
610.495	0.13
610.83	0.13
611.165	0.13
611.5	0.13
611.836	0.13
612.171	0.13
612.506	0.13
612.841	0.13
613.176	0.13
613.511	0.13
613.845	0.12
614.18	0.12
614.515	0.12
614.85	0.12
615.184	0.12
615.519	0.12
615.854	0.12
616.188	0.12
616.523	0.12
616.857	0.12
617.191	0.12
617.526	0.12
617.86	0.12
618.194	0.12
618.528	0.12
618.862	0.12
619.196	0.12
619.53	0.12
619.864	0.12
620.198	0.13
620.532	0.12
620.866	0.12
621.2	0.12
621.533	0.12
621.867	0.12
622.201	0.12
622.534	0.12
622.868	0.12
623.201	0.12
623.534	0.11
623.868	0.12
624.201	0.12
624.534	0.12
624.868	0.12
625.201	0.12
625.534	0.12
625.867	0.11
626.2	0.11
626.533	0.11
626.865	0.11
627.198	0.11
627.531	0.11
627.864	0.11
628.196	0.11
628.529	0.11
628.862	0.11
629.194	0.11
629.527	0.11
629.859	0.1
630.191	0.1
630.524	0.1
630.856	0.1
631.188	0.1
631.52	0.1
631.852	0.1
632.184	0.1
632.516	0.1
632.848	0.1
633.18	0.1
633.512	0.1
633.844	0.1
634.175	0.1
634.507	0.1
634.839	0.1
635.17	0.1
635.502	0.1
635.833	0.1
636.165	0.1
636.496	0.09
636.827	0.09
637.159	0.09
637.49	0.09
637.821	0.09
638.152	0.09
638.483	0.09
638.814	0.09
639.145	0.09
639.476	0.09
639.807	0.09
640.137	0.09
640.468	0.09
640.799	0.08
641.129	0.08
641.46	0.08
641.791	0.08
642.121	0.08
642.451	0.08
642.782	0.08
643.112	0.08
643.442	0.08
643.773	0.08
644.103	0.08
644.433	0.08
644.763	0.08
645.093	0.08
645.423	0.08
645.753	0.08
646.082	0.08
646.412	0.08
646.742	0.08
647.072	0.08
647.401	0.08
647.731	0.08
648.06	0.08
648.39	0.08
648.719	0.08
649.048	0.08
649.378	0.08
649.707	0.08
650.036	0.08
650.365	0.08
650.694	0.08
651.023	0.07
651.352	0.07
651.681	0.07
652.01	0.07
652.339	0.07
652.668	0.08
652.996	0.07
653.325	0.07
653.654	0.07
653.982	0.07
654.311	0.07
654.639	0.07
654.967	0.07
655.296	0.07
655.624	0.07
655.952	0.07
656.28	0.07
656.609	0.07
656.937	0.07
657.265	0.07
657.593	0
657.92	-0
658.248	-0
658.576	-0
658.904	0
659.231	0.06
659.559	0.07
659.887	0.07
660.214	0.07
660.542	0.07
660.869	0.07
661.196	0.07
661.524	0.07
661.851	0.07
662.178	0.07
662.505	0.07
662.832	0.07
663.159	0.07
663.486	0.07
663.813	0.07
664.14	0.07
664.467	0.07
664.794	0.07
665.12	0.07
665.447	0.06
665.774	0.07
666.1	0.07
666.427	0.06
666.753	0.06
667.079	0.06
667.406	0.06
667.732	0.06
668.058	0.06
668.384	0.06
668.71	0.06
669.036	0.06
669.362	0.06
669.688	0.06
670.014	0.06
670.34	0.06
670.666	0.06
670.991	0.06
671.317	0.06
671.643	0.06
671.968	0.06
672.294	0.06
672.619	0.06
672.945	0.06
673.27	0.06
673.595	0.06
673.92	0.06
674.246	0.05
674.571	0.06
674.896	0.05
675.221	0.05
675.546	0.05
675.87	0.05
676.195	0.05
676.52	0.06
676.845	0.05
677.169	0.05
677.494	0.05
677.819	0.05
678.143	0.05
678.468	0.05
678.792	0.05
679.116	0.05
679.44	0.05
679.765	0.05
680.089	0.04
680.413	0.04
680.737	0.04
681.061	0.04
681.385	0.04
681.709	0.04
682.033	0.04
682.356	0.04
682.68	0.04
683.004	0.04
683.327	0.04
683.651	0.04
683.974	0.04
684.298	0.04
684.621	0.04
684.944	0.04
685.268	0.04
685.591	0.04
685.914	0.04
686.237	0.03
686.56	0.04
686.883	0.03
687.206	0.03
687.529	0.03
687.852	0.03
688.175	0.03
688.497	0.04
688.82	0.03
689.142	0.03
689.465	0.03
689.787	0.03
690.11	0.03
690.432	0.03
690.755	0.03
691.077	0.03
691.399	0.03
691.721	0.03
692.043	0.03
692.365	0.03
692.687	0.03
693.009	0.03
693.331	0.02
693.653	0.02
693.974	0.02
694.296	0.02
694.618	0.02
694.939	0.02
695.261	0.02
695.582	0.02
695.904	0.02
696.225	0.02
696.546	0.02
696.868	0.02
697.189	0.02
697.51	0.02
697.831	0.02
698.152	0.02
698.473	0.02
698.794	0.02
699.114	0.02
699.435	0.01
699.756	0.01
700.077	0.02
700.397	0.02
700.718	0.02
701.038	0.02
701.359	0.02
701.679	0.02
701.999	0.02
702.32	0.02
702.64	0.02
702.96	0.02
703.28	0.02
703.6	0.01
703.92	0.01
704.24	0.01
704.56	0.01
704.879	0.01
705.199	0.02
705.519	0.01
705.838	0.01
706.158	0.02
706.478	0.02
706.797	0.02
707.116	0.02
707.436	0.02
707.755	0.02
708.074	0.02
708.393	0.01
708.712	0.01
709.031	0.01
709.35	0.01
709.669	0.01
709.988	0.01
710.307	0.01
710.626	0.01
710.944	0.01
711.263	0.01
711.582	0.02
711.9	0.02
712.219	0.01
712.537	0.01
712.855	0.01
713.174	0.01
713.492	0.01
713.81	0.01
714.128	0.01
714.446	0.01
714.764	0.01
715.082	0.01
715.4	0.01
715.718	0.01
716.035	0.01
716.353	0.01
716.671	0.01
716.988	0.01
717.306	0.01
717.623	0.02
717.941	0.02
718.258	0.02
718.575	0.02
718.893	0.02
719.21	0.02
719.527	0.02
719.844	0.02
720.161	0.02
720.478	0.02
720.795	0.02
721.112	0.02
721.428	0.02
721.745	0.02
722.062	0.02
722.378	0.02
722.695	0.02
723.011	0.02
723.328	0.02
723.644	0.02
723.96	0.02
724.276	0.02
724.593	0.02
724.909	0.02
725.225	0.02
725.541	0.02
725.857	0.02
726.173	0.02
726.488	0.02
726.804	0.02
727.12	0.02
727.435	0.02
727.751	0.02
728.067	0.02
728.382	0.02
728.697	0.02
729.013	0.02
729.328	0.02
729.643	0.02
729.958	0.02
730.273	0.02
730.588	0.02
730.903	0.02
731.218	0.02
731.533	0.01
731.848	0.02
732.163	0.02
732.477	0.01
732.792	0.01
733.107	0.01
733.421	0.01
733.736	0.01
734.05	0.02
734.364	0.02
734.678	0.02
734.993	0.01
735.307	0.02
735.621	0.01
735.935	0.02
736.249	0.02
736.563	0.02
736.877	0.02
737.19	0.02
737.504	0.02
737.818	0.02
738.131	0.02
738.445	0.02
738.758	0.02
739.072	0.02
739.385	0.02
739.698	0.02
740.012	0.02
740.325	0.02
740.638	0.02
740.951	0.02
741.264	0.02
741.577	0.02
741.89	0.02
742.203	0.02
742.515	0.02
742.828	0.01
743.141	0.01
743.453	0.01
743.766	0.02
744.078	0.01
744.391	0.01
744.703	0.02
745.015	0.02
745.327	0.02
745.639	0.02
745.952	0.02
746.264	0.02
746.575	0.02
746.887	0.02
747.199	0.02
747.511	0.01
747.823	0.01
748.134	0.01
748.446	0.01
748.757	0.01
749.069	0.01
749.38	0.01
749.692	0.01
750.003	0.01
750.314	0.01
750.625	0.01
750.936	0.01
751.248	0.01
751.559	0.01
751.869	0.01
752.18	0.01
752.491	0.01
752.802	0.01
753.112	0.01
753.423	0.01
753.734	0.01
754.044	0.01
754.355	0.01
754.665	0
754.975	0.01
755.285	0.01
755.596	0.01
755.906	0.01
756.216	0
756.526	0
756.836	0
757.146	0
757.455	0.01
757.765	0
758.075	0.01
758.385	0
758.694	0
759.004	0
759.313	0
759.622	0.01
759.932	0.01
760.241	0.01
760.55	0.01
760.859	0.01
761.168	0.01
761.477	0.01
761.786	0.01
762.095	0.01
762.404	0
762.713	0.01
763.021	0
763.33	0
763.639	0.01
763.947	0
764.256	0
764.564	0
764.872	0
765.181	0
765.489	0
765.797	0
766.105	0
766.413	0
766.721	0
767.029	0
767.337	0
767.644	0
767.952	0.01
768.26	0.01
768.567	0.01
768.875	0.01
769.182	0
769.49	0.01
769.797	0.01
770.104	0
770.411	0
770.718	0
771.026	0
771.333	0
771.639	0
771.946	-0
772.253	0
772.56	0
772.867	0
773.173	0
773.48	0
773.786	0
774.093	0
774.399	0
774.705	0
775.012	0
775.318	0
775.624	0
775.93	0
776.236	0
776.542	0
776.848	0.01
777.154	0
777.459	0
777.765	0
778.071	0
778.376	0
778.682	0
778.987	0.01
779.292	0
779.598	-0
779.903	0
780.208	-0
780.513	0
780.818	0
781.123	0
781.428	0
781.733	-0
782.038	-0
782.343	-0.01
782.647	-0
782.952	-0.01
783.256	-0.01
783.561	-0.01
783.865	-0
784.17	-0.01
784.474	-0
784.778	-0.01
785.082	-0.01
785.386	-0.01
785.69	-0
785.994	-0.01
786.298	-0.01
786.602	-0
786.906	-0
787.209	-0
787.513	0
787.817	0
788.12	0
788.424	0.01
788.727	0
789.03	0
789.333	0
789.637	0
789.94	0
790.243	0
790.546	0
790.849	0
791.152	0
791.454	0
791.757	0
792.06	0
792.362	0.01
792.665	0
792.967	0
793.27	0
793.572	0
793.874	0.01
794.177	0
794.479	-0
794.781	-0
795.083	-0
795.385	0
795.687	0
795.989	-0
796.29	0
796.592	-0
796.894	0
797.195	0
797.497	0
797.798	0
798.1	0
798.401	-0
798.702	0
799.003	-0
799.304	-0
799.605	0
799.906	0
800.207	0
800.508	0
800.809	0
801.11	0
801.41	0
801.711	-0
802.011	-0
802.312	0.01
802.612	-0
802.913	-0
803.213	-0
803.513	-0
803.813	0
804.113	0
804.413	-0
804.713	-0
805.013	0
805.313	0.01
805.613	-0
805.912	-0
806.212	0.01
806.511	0
806.811	0.01
807.11	0.01
807.41	0.01
807.709	0.01
808.008	0
808.307	0
808.606	0
808.905	-0
809.204	-0
809.503	-0
809.802	-0
810.101	0
810.399	0
810.698	0
810.997	0
811.295	0
811.593	-0
811.892	-0
812.19	-0
812.488	0
812.786	0
813.084	0
813.383	0
813.68	0
813.978	0
814.276	0
814.574	0
814.872	0
815.169	0
815.467	-0
815.764	-0
816.062	0
816.359	-0
816.656	-0
816.954	-0
817.251	-0
817.548	0
817.845	-0
818.142	0
818.439	0.01
818.735	0.01
819.032	0.01
819.329	0.01
819.626	0.01
819.922	0.01
820.219	0.01
820.515	0.01
820.811	0.02
821.108	0.01
821.404	0.01
821.7	0.01
821.996	0.01
822.292	0.01
822.588	0.02
822.884	0.02
823.18	0.02
823.475	0.02
823.771	0.02
824.067	0.01
824.362	0.01
824.658	0.01
824.953	0.01
825.249	0
825.544	0
825.839	0.01
826.134	0.01
826.429	0.01
826.724	0.01
827.019	0.01
827.314	0.01
827.609	0.01
827.904	0.01
828.198	0.01
828.493	0.01
828.787	0.01
829.082	0.01
829.376	0.01
829.671	0.02
829.965	0.01
830.259	0.01
830.553	0.02
830.847	0.02
831.141	0.01
831.435	0.01
831.729	0.02
832.023	0.01
832.317	0.02
832.61	0.01
832.904	0.01
833.197	0.01
833.491	0.01
833.784	0.01
834.077	0.02
834.371	0.01
834.664	0.02
834.957	0.02
835.25	0.01
835.543	0.01
835.836	0.02
836.129	0.01
836.421	0.01
836.714	0.01
837.007	0.02
837.299	0.02
837.592	0.02
837.884	0.02
838.177	0.01
838.469	0.01
838.761	0.02
839.053	0.02
839.345	0.01
839.637	0.01
839.929	0.01
840.221	0.01
840.513	0.01
840.805	0.02
841.096	0.01
841.388	0.02
841.68	0.01
841.971	0.01
842.262	0.01
842.554	0.01
842.845	0.01
843.136	0.01
843.427	0.02
843.718	0.02
844.009	0.01
844.3	0.02
844.591	0.01
844.882	0.02
845.173	0.03
845.463	0.02
845.754	0.03
846.044	0.01
846.335	0.02
846.625	0.02
846.915	0.02
847.206	0.01
847.496	0.02
847.786	0.01
848.076	0.01
848.366	0.01
848.656	0.01
848.945	0.01
849.235	0
849.525	0.01
849.814	0.01
850.104	-0.01
850.393	0.01
850.683	0.02
850.972	0.01
851.261	0.02
851.551	0.02
851.84	0.03
852.129	0.02
852.418	0.02
852.707	0.02
852.995	0.01
853.284	0.01
853.573	0.01
853.862	0.01
854.15	0.02
854.439	0.01
854.727	0.01
855.015	0.02
855.304	0.02
855.592	0.01
855.88	0.01
856.168	0
856.456	0.02
856.744	0.01
857.032	0.01
857.32	0.01
857.607	0.01
857.895	0.01
858.183	0.01
858.47	0.01
858.757	0
859.045	-0
859.332	0.01
859.619	0.02
859.907	0.02
860.194	-0
860.481	0.03
860.768	0.02
861.054	0.01
861.341	-0
861.628	0.02
861.915	0.01
862.201	0.02
862.488	0.02
862.774	0.01
863.061	0.04
863.347	0.02
863.633	0.01
863.919	-0
864.205	0.01
864.491	0
864.777	0.03
865.063	0
865.349	0.01
865.635	0.03
865.92	0.03
866.206	0.03
866.492	0.01
866.777	0.03
867.062	0.03
867.348	0.02
867.633	0
867.918	0.01
868.203	0
868.488	0.01
868.773	0.03
869.058	0.04
869.343	0.02
869.628	0.04
869.912	0.03
870.197	0
870.482	0
870.766	0.07
871.05	0.02
871.335	0.03
871.619	0.02
871.903	0.01
872.187	0
872.471	0.03
872.755	0.02
873.039	-0.02
873.323	0.05
873.607	0.04
873.89	0.03
874.174	0.01
874.458	0.09
874.741	-0.04
875.024	0.02
875.308	0
875.591	0.02
875.874	0.01
876.157	0
876.44	-0.05
876.723	0
877.006	-0.01
877.289	-0.06
877.572	0.08
877.854	-0
878.137	0.03
878.42	-0.03
878.702	-0.02
878.984	0.06
879.267	0.09
879.549	-0
879.831	-0.04
880.113	0.03
880.395	-0.01
880.677	-0.08
880.959	-0.05
