Data from Rubpy_BV_1800_EDTA_Buffered_Absorbance_15-12-53-817.txt Node
Date: Wed Jul 01 15:12:53 BST 2026
User: fpm-admin
Spectrometer: OFX00224
Trigger mode: 0
Integration Time (sec): 7.000000E-2
Scans to average: 3
Nonlinearity correction enabled: false
Boxcar width: 0
Storing dark spectrum: false
XAxis mode: Wavelengths
Number of Pixels in Spectrum: 2136
>>>>>Begin Spectral Data<<<<<
154.91	-0.06
155.289	-0
155.669	-0.67
156.048	0.7
156.428	-0
156.807	-0
157.186	0.12
157.566	-0.41
157.945	-0
158.325	-0
158.704	-0
159.083	-0
159.462	-0
159.842	-0.15
160.221	-0
160.6	0.18
160.979	-0.24
161.359	0.24
161.738	0.31
162.117	-0.02
162.496	-0.18
162.875	-0
163.254	0.73
163.633	-0
164.012	0.3
164.391	-0.68
164.77	-0
165.149	-0
165.528	-0.6
165.907	-0.6
166.286	0.64
166.665	-0.11
167.044	1.69
167.423	-0.29
167.802	-0
168.181	-0
168.559	-0.52
168.938	-0.88
169.317	0.98
169.696	-0
170.074	-0.1
170.453	0.51
170.832	-0.14
171.21	-0
171.589	-0
171.968	0.58
172.346	-0
172.725	-0
173.103	0.53
173.482	0.35
173.861	-0.78
174.239	-0
174.617	-0
174.996	0.3
175.374	-0.13
175.753	0.67
176.131	-0
176.51	-0.03
176.888	-0
177.266	-0
177.645	-0.03
178.023	-0
178.401	-0.11
178.779	-0.38
179.158	-0
179.536	-0.64
179.914	0.1
180.292	0.97
180.67	-0.09
181.048	-0
181.427	-0
181.805	-0
182.183	-0
182.561	-0
182.939	-0.33
183.317	-0
183.695	-0
184.073	0.28
184.451	0.53
184.829	0.09
185.206	-0
185.584	-0
185.962	-0
186.34	0.69
186.718	-0
187.096	-0.35
187.473	0.22
187.851	-0
188.229	-0
188.607	0.28
188.984	0.17
189.362	0.37
189.74	0.45
190.117	0.46
190.495	0.25
190.872	0.36
191.25	0.33
191.627	0.32
192.005	0.33
192.382	0.08
192.76	0.34
193.137	0.59
193.515	0.36
193.892	0.41
194.269	0.37
194.647	0.38
195.024	0.26
195.401	0.37
195.779	0.34
196.156	0.31
196.533	0.26
196.91	0.34
197.288	0.36
197.665	0.31
198.042	0.49
198.419	0.26
198.796	0.2
199.173	0.21
199.55	0.27
199.927	0.25
200.304	0.37
200.681	0.68
201.058	0.45
201.435	0.29
201.812	0.33
202.189	0.54
202.566	0.24
202.943	0.15
203.32	0.28
203.697	0.32
204.073	0.33
204.45	0.25
204.827	0.4
205.204	0.33
205.58	0.29
205.957	0.34
206.334	0.48
206.71	0.4
207.087	0.33
207.464	0.27
207.84	0.38
208.217	0.37
208.593	0.33
208.97	0.28
209.346	0.41
209.723	0.37
210.099	0.38
210.476	0.28
210.852	0.3
211.228	0.4
211.605	0.47
211.981	0.47
212.357	0.3
212.733	0.34
213.11	0.22
213.486	0.51
213.862	0.41
214.238	0.36
214.614	0.31
214.991	0.41
215.367	0.37
215.743	0.36
216.119	0.33
216.495	0.26
216.871	0.31
217.247	0.4
217.623	0.35
217.999	0.27
218.375	0.34
218.751	0.35
219.127	0.36
219.502	0.34
219.878	0.33
220.254	0.27
220.63	0.33
221.006	0.34
221.381	0.36
221.757	0.26
222.133	0.47
222.508	0.39
222.884	0.21
223.26	0.29
223.635	0.47
224.011	0.36
224.386	0.26
224.762	0.44
225.137	0.33
225.513	0.31
225.888	0.34
226.264	0.2
226.639	0.35
227.014	0.18
227.39	0.53
227.765	0.27
228.14	0.45
228.516	0.59
228.891	0.33
229.266	0.21
229.641	0.38
230.017	0.37
230.392	0.43
230.767	0.3
231.142	0.27
231.517	0.28
231.892	0.23
232.267	0.3
232.642	0.4
233.017	0.38
233.392	0.32
233.767	0.4
234.142	0.25
234.517	0.43
234.892	0.31
235.267	0.4
235.641	0.3
236.016	0.34
236.391	0.29
236.766	0.35
237.14	0.37
237.515	0.37
237.89	0.42
238.264	0.37
238.639	0.23
239.014	0.42
239.388	0.3
239.763	0.59
240.137	0.41
240.512	0.29
240.886	0.39
241.261	0.3
241.635	0.31
242.009	0.34
242.384	0.28
242.758	0.33
243.132	0.3
243.507	0.37
243.881	0.25
244.255	0.24
244.629	0.42
245.004	0.36
245.378	0.23
245.752	0.43
246.126	0.4
246.5	0.46
246.874	0.23
247.248	0.44
247.622	0.5
247.996	0.49
248.37	0.31
248.744	0.43
249.118	0.34
249.492	0.46
249.866	0.47
250.24	0.58
250.613	0.54
250.987	0.33
251.361	0.5
251.735	0.32
252.108	0.31
252.482	0.26
252.856	0.4
253.229	0.29
253.603	0.35
253.977	0.38
254.35	0.41
254.724	0.5
255.097	0.44
255.471	0.41
255.844	0.43
256.218	0.28
256.591	0.37
256.964	0.44
257.338	0.29
257.711	0.19
258.084	0.31
258.458	0.42
258.831	0.42
259.204	0.4
259.577	0.29
259.95	0.36
260.323	0.46
260.697	0.35
261.07	0.25
261.443	0.4
261.816	0.35
262.189	0.45
262.562	0.4
262.935	0.4
263.308	0.31
263.68	0.42
264.053	0.46
264.426	0.35
264.799	0.33
265.172	0.45
265.545	0.36
265.917	0.4
266.29	0.28
266.663	0.44
267.035	0.43
267.408	0.4
267.781	0.41
268.153	0.48
268.526	0.24
268.898	0.42
269.271	0.42
269.643	0.46
270.016	0.35
270.388	0.45
270.76	0.38
271.133	0.52
271.505	0.37
271.877	0.4
272.25	0.37
272.622	0.71
272.994	0.53
273.366	0.44
273.739	0.32
274.111	0.36
274.483	0.35
274.855	0.3
275.227	0.38
275.599	0.3
275.971	0.25
276.343	0.41
276.715	0.43
277.087	0.31
277.459	0.35
277.831	0.48
278.203	0.33
278.574	0.42
278.946	0.35
279.318	0.29
279.69	0.31
280.061	0.27
280.433	0.31
280.805	0.29
281.176	0.24
281.548	0.37
281.92	0.28
282.291	0.42
282.663	0.36
283.034	0.27
283.406	0.36
283.777	0.39
284.148	0.3
284.52	0.51
284.891	0.28
285.262	0.3
285.634	0.41
286.005	0.26
286.376	0.34
286.747	0.36
287.119	0.37
287.49	0.35
287.861	0.34
288.232	0.37
288.603	0.34
288.974	0.38
289.345	0.43
289.716	0.33
290.087	0.41
290.458	0.34
290.829	0.38
291.2	0.3
291.571	0.34
291.941	0.41
292.312	0.4
292.683	0.41
293.054	0.34
293.424	0.36
293.795	0.31
294.166	0.32
294.536	0.39
294.907	0.47
295.277	0.45
295.648	0.38
296.018	0.35
296.389	0.35
296.759	0.36
297.13	0.4
297.5	0.31
297.871	0.33
298.241	0.44
298.611	0.47
298.981	0.38
299.352	0.31
299.722	0.37
300.092	0.44
300.462	0.41
300.832	0.41
301.202	0.35
301.573	0.36
301.943	0.37
302.313	0.38
302.683	0.4
303.053	0.37
303.422	0.45
303.792	0.39
304.162	0.38
304.532	0.36
304.902	0.35
305.272	0.3
305.641	0.34
306.011	0.34
306.381	0.33
306.75	0.37
307.12	0.31
307.49	0.32
307.859	0.33
308.229	0.29
308.598	0.31
308.968	0.35
309.337	0.29
309.707	0.29
310.076	0.33
310.445	0.32
310.815	0.3
311.184	0.27
311.553	0.24
311.923	0.28
312.292	0.29
312.661	0.29
313.03	0.28
313.399	0.26
313.768	0.28
314.137	0.28
314.506	0.32
314.875	0.29
315.244	0.3
315.613	0.26
315.982	0.31
316.351	0.31
316.72	0.32
317.089	0.32
317.458	0.32
317.826	0.33
318.195	0.33
318.564	0.32
318.933	0.32
319.301	0.34
319.67	0.34
320.038	0.34
320.407	0.35
320.775	0.36
321.144	0.37
321.512	0.37
321.881	0.36
322.249	0.37
322.618	0.37
322.986	0.37
323.354	0.38
323.723	0.4
324.091	0.39
324.459	0.39
324.827	0.41
325.195	0.42
325.564	0.42
325.932	0.42
326.3	0.43
326.668	0.45
327.036	0.45
327.404	0.46
327.772	0.47
328.14	0.48
328.508	0.48
328.875	0.48
329.243	0.5
329.611	0.5
329.979	0.5
330.346	0.5
330.714	0.52
331.082	0.52
331.449	0.54
331.817	0.53
332.185	0.55
332.552	0.55
332.92	0.58
333.287	0.58
333.655	0.59
334.022	0.6
334.389	0.61
334.757	0.62
335.124	0.65
335.491	0.65
335.859	0.67
336.226	0.67
336.593	0.69
336.96	0.7
337.327	0.7
337.695	0.73
338.062	0.74
338.429	0.76
338.796	0.75
339.163	0.78
339.53	0.79
339.897	0.81
340.263	0.81
340.63	0.84
340.997	0.85
341.364	0.86
341.731	0.88
342.097	0.89
342.464	0.91
342.831	0.92
343.197	0.94
343.564	0.95
343.931	0.96
344.297	0.98
344.664	0.98
345.03	1.02
345.396	1.01
345.763	1.03
346.129	1.05
346.496	1.06
346.862	1.07
347.228	1.1
347.594	1.1
347.961	1.13
348.327	1.14
348.693	1.14
349.059	1.15
349.425	1.18
349.791	1.18
350.157	1.21
350.523	1.22
350.889	1.24
351.255	1.25
351.621	1.25
351.987	1.26
352.353	1.3
352.719	1.3
353.084	1.3
353.45	1.33
353.816	1.36
354.181	1.35
354.547	1.37
354.913	1.39
355.278	1.4
355.644	1.42
356.009	1.43
356.375	1.45
356.74	1.47
357.106	1.47
357.471	1.49
357.836	1.5
358.202	1.54
358.567	1.54
358.932	1.56
359.297	1.58
359.663	1.6
360.028	1.63
360.393	1.62
360.758	1.66
361.123	1.68
361.488	1.68
361.853	1.72
362.218	1.75
362.583	1.77
362.948	1.73
363.312	1.78
363.677	1.85
364.042	1.83
364.407	1.8
364.772	1.85
365.136	1.82
365.501	1.84
365.865	1.86
366.23	1.83
366.595	1.89
366.959	1.86
367.324	1.88
367.688	1.9
368.052	1.91
368.417	1.92
368.781	1.94
369.145	1.92
369.51	1.9
369.874	1.9
370.238	1.93
370.602	1.92
370.967	1.97
371.331	1.89
371.695	1.94
372.059	1.92
372.423	1.94
372.787	1.99
373.151	1.98
373.515	1.93
373.878	1.93
374.242	2.05
374.606	2.02
374.97	1.97
375.334	1.88
375.697	1.86
376.061	1.88
376.425	1.89
376.788	1.87
377.152	1.89
377.515	1.85
377.879	1.87
378.242	1.89
378.606	1.83
378.969	1.82
379.333	1.77
379.696	1.74
380.059	1.81
380.422	1.76
380.786	1.73
381.149	1.71
381.512	1.72
381.875	1.67
382.238	1.66
382.601	1.64
382.964	1.63
383.327	1.59
383.69	1.59
384.053	1.57
384.416	1.55
384.779	1.53
385.142	1.54
385.504	1.52
385.867	1.51
386.23	1.48
386.593	1.5
386.955	1.49
387.318	1.47
387.68	1.45
388.043	1.45
388.405	1.45
388.768	1.43
389.13	1.43
389.493	1.42
389.855	1.4
390.217	1.4
390.58	1.39
390.942	1.36
391.304	1.37
391.666	1.33
392.028	1.34
392.391	1.32
392.753	1.28
393.115	1.27
393.477	1.25
393.839	1.25
394.201	1.23
394.563	1.21
394.924	1.22
395.286	1.22
395.648	1.21
396.01	1.23
396.371	1.23
396.733	1.23
397.095	1.26
397.456	1.28
397.818	1.29
398.18	1.32
398.541	1.34
398.903	1.37
399.264	1.39
399.625	1.42
399.987	1.45
400.348	1.48
400.709	1.48
401.071	1.48
401.432	1.48
401.793	1.5
402.154	1.46
402.515	1.46
402.876	1.44
403.238	1.42
403.599	1.38
403.96	1.32
404.32	1.29
404.681	1.26
405.042	1.2
405.403	1.16
405.764	1.1
406.125	1.05
406.485	0.99
406.846	0.96
407.207	0.91
407.567	0.86
407.928	0.83
408.288	0.78
408.649	0.73
409.009	0.7
409.37	0.66
409.73	0.62
410.091	0.59
410.451	0.56
410.811	0.53
411.171	0.51
411.532	0.48
411.892	0.46
412.252	0.44
412.612	0.42
412.972	0.41
413.332	0.39
413.692	0.37
414.052	0.36
414.412	0.35
414.772	0.33
415.132	0.32
415.492	0.31
415.851	0.3
416.211	0.29
416.571	0.28
416.931	0.27
417.29	0.27
417.65	0.26
418.009	0.25
418.369	0.25
418.728	0.25
419.088	0.24
419.447	0.24
419.807	0.23
420.166	0.23
420.525	0.22
420.884	0.22
421.244	0.21
421.603	0.21
421.962	0.2
422.321	0.2
422.68	0.2
423.039	0.19
423.398	0.19
423.757	0.19
424.116	0.2
424.475	0.19
424.834	0.18
425.193	0.18
425.551	0.18
425.91	0.18
426.269	0.18
426.628	0.17
426.986	0.18
427.345	0.18
427.703	0.17
428.062	0.18
428.42	0.17
428.779	0.18
429.137	0.16
429.496	0.17
429.854	0.16
430.212	0.16
430.57	0.17
430.929	0.16
431.287	0.15
431.645	0.16
432.003	0.16
432.361	0.16
432.719	0.15
433.077	0.16
433.435	0.16
433.793	0.16
434.151	0.16
434.509	0.16
434.866	0.15
435.224	0.16
435.582	0.16
435.94	0.15
436.297	0.16
436.655	0.16
437.012	0.15
437.37	0.16
437.727	0.15
438.085	0.15
438.442	0.16
438.8	0.16
439.157	0.16
439.514	0.16
439.872	0.16
440.229	0.15
440.586	0.15
440.943	0.16
441.3	0.16
441.657	0.16
442.014	0.15
442.371	0.15
442.728	0.16
443.085	0.16
443.442	0.16
443.799	0.15
444.156	0.16
444.513	0.16
444.869	0.15
445.226	0.16
445.583	0.17
445.939	0.17
446.296	0.17
446.652	0.16
447.009	0.17
447.365	0.17
447.722	0.17
448.078	0.16
448.434	0.17
448.791	0.17
449.147	0.17
449.503	0.17
449.859	0.17
450.215	0.16
450.571	0.17
450.928	0.17
451.284	0.17
451.64	0.16
451.995	0.17
452.351	0.17
452.707	0.16
453.063	0.17
453.419	0.16
453.775	0.16
454.13	0.15
454.486	0.16
454.842	0.15
455.197	0.15
455.553	0.16
455.908	0.15
456.264	0.15
456.619	0.16
456.975	0.15
457.33	0.16
457.685	0.16
458.04	0.16
458.396	0.15
458.751	0.15
459.106	0.13
459.461	0.15
459.816	0.14
460.171	0.13
460.526	0.14
460.881	0.13
461.236	0.12
461.591	0.13
461.946	0.13
462.301	0.13
462.655	0.12
463.01	0.12
463.365	0.12
463.719	0.11
464.074	0.11
464.428	0.1
464.783	0.09
465.137	0.1
465.492	0.1
465.846	0.09
466.201	0.1
466.555	0.11
466.909	0.1
467.263	0.12
467.618	0.11
467.972	0.12
468.326	0.11
468.68	0.1
469.034	0.1
469.388	0.1
469.742	0.11
470.096	0.11
470.45	0.12
470.804	0.12
471.157	0.12
471.511	0.12
471.865	0.12
472.218	0.13
472.572	0.14
472.926	0.14
473.279	0.15
473.633	0.16
473.986	0.17
474.34	0.18
474.693	0.18
475.046	0.19
475.4	0.21
475.753	0.22
476.106	0.22
476.459	0.23
476.812	0.24
477.165	0.26
477.519	0.26
477.872	0.27
478.224	0.27
478.577	0.28
478.93	0.29
479.283	0.29
479.636	0.3
479.989	0.31
480.341	0.33
480.694	0.33
481.047	0.34
481.399	0.34
481.752	0.35
482.104	0.37
482.457	0.37
482.809	0.37
483.162	0.38
483.514	0.38
483.866	0.39
484.219	0.39
484.571	0.39
484.923	0.4
485.275	0.42
485.627	0.41
485.979	0.42
486.331	0.43
486.683	0.43
487.035	0.44
487.387	0.45
487.739	0.46
488.091	0.46
488.443	0.47
488.794	0.47
489.146	0.47
489.498	0.48
489.849	0.49
490.201	0.49
490.552	0.49
490.904	0.49
491.255	0.5
491.607	0.5
491.958	0.52
492.309	0.51
492.661	0.52
493.012	0.53
493.363	0.53
493.714	0.53
494.065	0.54
494.416	0.54
494.767	0.55
495.118	0.55
495.469	0.56
495.82	0.56
496.171	0.56
496.522	0.58
496.872	0.58
497.223	0.58
497.574	0.58
497.924	0.59
498.275	0.6
498.626	0.61
498.976	0.61
499.327	0.62
499.677	0.62
500.027	0.62
500.378	0.63
500.728	0.63
501.078	0.63
501.428	0.64
501.779	0.65
502.129	0.65
502.479	0.65
502.829	0.66
503.179	0.66
503.529	0.67
503.879	0.68
504.229	0.67
504.578	0.69
504.928	0.69
505.278	0.69
505.628	0.7
505.977	0.71
506.327	0.71
506.676	0.71
507.026	0.72
507.375	0.71
507.725	0.72
508.074	0.73
508.424	0.73
508.773	0.74
509.122	0.74
509.471	0.74
509.82	0.75
510.17	0.75
510.519	0.76
510.868	0.76
511.217	0.76
511.566	0.76
511.915	0.77
512.263	0.78
512.612	0.78
512.961	0.79
513.31	0.79
513.659	0.79
514.007	0.8
514.356	0.8
514.704	0.8
515.053	0.81
515.401	0.81
515.75	0.81
516.098	0.82
516.447	0.82
516.795	0.82
517.143	0.82
517.491	0.83
517.839	0.83
518.188	0.84
518.536	0.84
518.884	0.84
519.232	0.85
519.58	0.86
519.928	0.85
520.275	0.86
520.623	0.86
520.971	0.87
521.319	0.87
521.666	0.87
522.014	0.87
522.362	0.88
522.709	0.88
523.057	0.88
523.404	0.88
523.752	0.88
524.099	0.89
524.446	0.89
524.794	0.89
525.141	0.9
525.488	0.9
525.835	0.9
526.182	0.91
526.529	0.9
526.876	0.91
527.223	0.92
527.57	0.92
527.917	0.93
528.264	0.91
528.611	0.92
528.958	0.92
529.304	0.93
529.651	0.93
529.998	0.93
530.344	0.93
530.691	0.93
531.037	0.94
531.384	0.94
531.73	0.94
532.076	0.95
532.423	0.95
532.769	0.95
533.115	0.95
533.461	0.96
533.807	0.96
534.154	0.96
534.5	0.95
534.846	0.97
535.192	0.97
535.537	0.96
535.883	0.96
536.229	0.96
536.575	0.97
536.921	0.98
537.266	0.98
537.612	0.98
537.957	0.98
538.303	0.98
538.649	0.99
538.994	0.98
539.339	0.99
539.685	0.98
540.03	0.98
540.375	0.98
540.721	0.99
541.066	0.99
541.411	0.99
541.756	0.99
542.101	0.99
542.446	1
542.791	1
543.136	1
543.481	1
543.825	1
544.17	1
544.515	1
544.86	1
545.204	1
545.549	1
545.893	1
546.238	1.01
546.582	1.01
546.927	1.01
547.271	1.01
547.615	1.01
547.96	1.01
548.304	1.01
548.648	1.01
548.992	1.01
549.336	1
549.68	1
550.024	1.01
550.368	1.01
550.712	1
551.056	1.01
551.4	1.02
551.743	1.01
552.087	1.01
552.431	1.01
552.774	1.01
553.118	1.01
553.462	1.01
553.805	1
554.148	1.01
554.492	1.01
554.835	1
555.178	1.01
555.522	1.01
555.865	1.01
556.208	1.01
556.551	1.01
556.894	1.01
557.237	1
557.58	1
557.923	1.01
558.266	1
558.609	1.01
558.952	1
559.294	1.01
559.637	1
559.98	1
560.322	1
560.665	0.99
561.007	0.99
561.35	0.99
561.692	0.99
562.034	0.99
562.377	0.99
562.719	0.99
563.061	0.98
563.403	0.99
563.745	0.99
564.088	0.99
564.43	0.98
564.772	0.98
565.113	0.98
565.455	0.97
565.797	0.98
566.139	0.98
566.481	0.97
566.822	0.98
567.164	0.97
567.506	0.97
567.847	0.97
568.189	0.97
568.53	0.97
568.872	0.97
569.213	0.96
569.554	0.96
569.895	0.96
570.237	0.96
570.578	0.95
570.919	0.95
571.26	0.95
571.601	0.95
571.942	0.95
572.283	0.95
572.624	0.94
572.965	0.94
573.306	0.93
573.646	0.93
573.987	0.93
574.328	0.93
574.668	0.93
575.009	0.93
575.349	0.92
575.69	0.92
576.03	0.92
576.37	0.92
576.711	0.91
577.051	0.91
577.391	0.92
577.731	0.92
578.072	0.91
578.412	0.9
578.752	0.9
579.092	0.9
579.431	0.88
579.771	0.87
580.111	0.86
580.451	0.88
580.791	0.89
581.13	0.89
581.47	0.89
581.81	0.89
582.149	0.88
582.489	0.89
582.828	0.87
583.167	0.84
583.507	0.8
583.846	0.8
584.185	0.84
584.525	0.86
584.864	0.87
585.203	0.88
585.542	0.88
585.881	0.87
586.22	0.87
586.559	0.86
586.898	0.85
587.236	0.84
587.575	0.85
587.914	0.86
588.252	0.87
588.591	0.87
588.93	0.86
589.268	0.86
589.607	0.85
589.945	0.86
590.283	0.86
590.622	0.86
590.96	0.86
591.298	0.86
591.636	0.86
591.974	0.86
592.313	0.86
592.651	0.86
592.989	0.86
593.326	0.86
593.664	0.86
594.002	0.86
594.34	0.85
594.678	0.85
595.015	0.84
595.353	0.84
595.691	0.84
596.028	0.86
596.366	0.85
596.703	0.85
597.04	0.85
597.378	0.85
597.715	0.85
598.052	0.85
598.389	0.85
598.726	0.85
599.064	0.85
599.401	0.85
599.738	0.85
600.074	0.85
600.411	0.84
600.748	0.83
601.085	0.83
601.422	0.83
601.758	0.83
602.095	0.83
602.432	0.83
602.768	0.83
603.105	0.84
603.441	0.83
603.777	0.84
604.114	0.83
604.45	0.83
604.786	0.83
605.122	0.83
605.459	0.82
605.795	0.82
606.131	0.82
606.467	0.82
606.803	0.82
607.139	0.81
607.474	0.81
607.81	0.8
608.146	0.81
608.482	0.81
608.817	0.8
609.153	0.8
609.488	0.79
609.824	0.79
610.159	0.79
610.495	0.8
610.83	0.79
611.165	0.79
611.5	0.78
611.836	0.78
612.171	0.77
612.506	0.77
612.841	0.77
613.176	0.77
613.511	0.77
613.845	0.77
614.18	0.76
614.515	0.76
614.85	0.76
615.184	0.76
615.519	0.75
615.854	0.75
616.188	0.75
616.523	0.74
616.857	0.74
617.191	0.74
617.526	0.74
617.86	0.74
618.194	0.74
618.528	0.74
618.862	0.73
619.196	0.73
619.53	0.72
619.864	0.72
620.198	0.72
620.532	0.72
620.866	0.72
621.2	0.71
621.533	0.71
621.867	0.71
622.201	0.7
622.534	0.7
622.868	0.7
623.201	0.69
623.534	0.69
623.868	0.68
624.201	0.69
624.534	0.68
624.868	0.68
625.201	0.68
625.534	0.68
625.867	0.67
626.2	0.67
626.533	0.67
626.865	0.67
627.198	0.66
627.531	0.66
627.864	0.66
628.196	0.65
628.529	0.65
628.862	0.64
629.194	0.64
629.527	0.64
629.859	0.64
630.191	0.63
630.524	0.63
630.856	0.62
631.188	0.62
631.52	0.61
631.852	0.61
632.184	0.61
632.516	0.6
632.848	0.6
633.18	0.6
633.512	0.59
633.844	0.59
634.175	0.59
634.507	0.58
634.839	0.58
635.17	0.57
635.502	0.57
635.833	0.57
636.165	0.56
636.496	0.56
636.827	0.56
637.159	0.55
637.49	0.55
637.821	0.55
638.152	0.54
638.483	0.54
638.814	0.54
639.145	0.53
639.476	0.53
639.807	0.53
640.137	0.52
640.468	0.51
640.799	0.51
641.129	0.51
641.46	0.51
641.791	0.5
642.121	0.5
642.451	0.5
642.782	0.5
643.112	0.49
643.442	0.49
643.773	0.49
644.103	0.48
644.433	0.48
644.763	0.48
645.093	0.48
645.423	0.48
645.753	0.47
646.082	0.47
646.412	0.47
646.742	0.47
647.072	0.46
647.401	0.46
647.731	0.46
648.06	0.46
648.39	0.46
648.719	0.46
649.048	0.46
649.378	0.45
649.707	0.45
650.036	0.44
650.365	0.44
650.694	0.44
651.023	0.44
651.352	0.43
651.681	0.44
652.01	0.44
652.339	0.43
652.668	0.43
652.996	0.43
653.325	0.43
653.654	0.43
653.982	0.43
654.311	0.42
654.639	0.42
654.967	0.42
655.296	0.42
655.624	0.42
655.952	0.42
656.28	0.41
656.609	0.41
656.937	0.41
657.265	0.39
657.593	0.23
657.92	0.14
658.248	0.12
658.576	0.19
658.904	0.32
659.231	0.39
659.559	0.4
659.887	0.4
660.214	0.39
660.542	0.39
660.869	0.39
661.196	0.39
661.524	0.39
661.851	0.39
662.178	0.39
662.505	0.39
662.832	0.38
663.159	0.38
663.486	0.38
663.813	0.38
664.14	0.38
664.467	0.38
664.794	0.37
665.12	0.38
665.447	0.37
665.774	0.37
666.1	0.37
666.427	0.36
666.753	0.36
667.079	0.36
667.406	0.35
667.732	0.35
668.058	0.36
668.384	0.35
668.71	0.36
669.036	0.35
669.362	0.35
669.688	0.34
670.014	0.34
670.34	0.34
670.666	0.34
670.991	0.34
671.317	0.33
671.643	0.33
671.968	0.33
672.294	0.33
672.619	0.32
672.945	0.32
673.27	0.32
673.595	0.31
673.92	0.31
674.246	0.31
674.571	0.31
674.896	0.31
675.221	0.3
675.546	0.3
675.87	0.3
676.195	0.3
676.52	0.3
676.845	0.29
677.169	0.29
677.494	0.29
677.819	0.29
678.143	0.28
678.468	0.28
678.792	0.28
679.116	0.28
679.44	0.28
679.765	0.27
680.089	0.27
680.413	0.26
680.737	0.26
681.061	0.26
681.385	0.26
681.709	0.25
682.033	0.25
682.356	0.25
682.68	0.25
683.004	0.24
683.327	0.24
683.651	0.24
683.974	0.23
684.298	0.24
684.621	0.23
684.944	0.23
685.268	0.22
685.591	0.22
685.914	0.22
686.237	0.21
686.56	0.21
686.883	0.21
687.206	0.21
687.529	0.21
687.852	0.2
688.175	0.2
688.497	0.2
688.82	0.2
689.142	0.2
689.465	0.19
689.787	0.19
690.11	0.19
690.432	0.19
690.755	0.19
691.077	0.18
691.399	0.18
691.721	0.18
692.043	0.18
692.365	0.17
692.687	0.17
693.009	0.17
693.331	0.16
693.653	0.16
693.974	0.16
694.296	0.16
694.618	0.16
694.939	0.16
695.261	0.15
695.582	0.15
695.904	0.15
696.225	0.16
696.546	0.16
696.868	0.15
697.189	0.15
697.51	0.14
697.831	0.15
698.152	0.15
698.473	0.14
698.794	0.13
699.114	0.13
699.435	0.12
699.756	0.13
700.077	0.13
700.397	0.13
700.718	0.13
701.038	0.13
701.359	0.13
701.679	0.13
701.999	0.13
702.32	0.13
702.64	0.13
702.96	0.13
703.28	0.13
703.6	0.13
703.92	0.12
704.24	0.12
704.56	0.12
704.879	0.12
705.199	0.12
705.519	0.12
705.838	0.12
706.158	0.12
706.478	0.12
706.797	0.12
707.116	0.12
707.436	0.12
707.755	0.12
708.074	0.12
708.393	0.11
708.712	0.11
709.031	0.09
709.35	0.09
709.669	0.09
709.988	0.1
710.307	0.1
710.626	0.1
710.944	0.11
711.263	0.11
711.582	0.11
711.9	0.11
712.219	0.11
712.537	0.11
712.855	0.11
713.174	0.11
713.492	0.11
713.81	0.11
714.128	0.11
714.446	0.11
714.764	0.1
715.082	0.1
715.4	0.1
715.718	0.1
716.035	0.1
716.353	0.11
716.671	0.11
716.988	0.11
717.306	0.1
717.623	0.11
717.941	0.12
718.258	0.12
718.575	0.12
718.893	0.12
719.21	0.11
719.527	0.11
719.844	0.11
720.161	0.11
720.478	0.11
720.795	0.11
721.112	0.11
721.428	0.12
721.745	0.12
722.062	0.12
722.378	0.12
722.695	0.12
723.011	0.12
723.328	0.12
723.644	0.12
723.96	0.12
724.276	0.12
724.593	0.12
724.909	0.12
725.225	0.12
725.541	0.12
725.857	0.12
726.173	0.12
726.488	0.12
726.804	0.11
727.12	0.11
727.435	0.11
727.751	0.11
728.067	0.11
728.382	0.11
728.697	0.11
729.013	0.12
729.328	0.11
729.643	0.11
729.958	0.11
730.273	0.11
730.588	0.11
730.903	0.11
731.218	0.11
731.533	0.11
731.848	0.11
732.163	0.11
732.477	0.11
732.792	0.11
733.107	0.1
733.421	0.11
733.736	0.11
734.05	0.11
734.364	0.1
734.678	0.11
734.993	0.1
735.307	0.11
735.621	0.1
735.935	0.1
736.249	0.1
736.563	0.1
736.877	0.11
737.19	0.11
737.504	0.11
737.818	0.11
738.131	0.11
738.445	0.11
738.758	0.11
739.072	0.11
739.385	0.11
739.698	0.11
740.012	0.11
740.325	0.11
740.638	0.11
740.951	0.11
741.264	0.1
741.577	0.1
741.89	0.1
742.203	0.1
742.515	0.1
742.828	0.1
743.141	0.1
743.453	0.1
743.766	0.1
744.078	0.09
744.391	0.1
744.703	0.09
745.015	0.1
745.327	0.09
745.639	0.09
745.952	0.09
746.264	0.1
746.575	0.1
746.887	0.09
747.199	0.09
747.511	0.09
747.823	0.09
748.134	0.09
748.446	0.09
748.757	0.09
749.069	0.08
749.38	0.08
749.692	0.08
750.003	0.07
750.314	0.07
750.625	0.07
750.936	0.07
751.248	0.07
751.559	0.08
751.869	0.08
752.18	0.08
752.491	0.08
752.802	0.07
753.112	0.07
753.423	0.07
753.734	0.07
754.044	0.07
754.355	0.06
754.665	0.06
754.975	0.06
755.285	0.06
755.596	0.06
755.906	0.06
756.216	0.06
756.526	0.06
756.836	0.06
757.146	0.06
757.455	0.06
757.765	0.06
758.075	0.06
758.385	0.06
758.694	0.05
759.004	0.05
759.313	0.05
759.622	0.06
759.932	0.06
760.241	0.06
760.55	0.06
760.859	0.06
761.168	0.06
761.477	0.06
761.786	0.06
762.095	0.06
762.404	0.06
762.713	0.06
763.021	0.06
763.33	0.05
763.639	0.06
763.947	0.06
764.256	0.06
764.564	0.06
764.872	0.06
765.181	0.06
765.489	0.06
765.797	0.05
766.105	0.05
766.413	0.05
766.721	0.05
767.029	0.06
767.337	0.06
767.644	0.06
767.952	0.06
768.26	0.06
768.567	0.06
768.875	0.06
769.182	0.06
769.49	0.06
769.797	0.06
770.104	0.05
770.411	0.06
770.718	0.05
771.026	0.05
771.333	0.05
771.639	0.05
771.946	0.05
772.253	0.05
772.56	0.05
772.867	0.06
773.173	0.05
773.48	0.05
773.786	0.06
774.093	0.06
774.399	0.06
774.705	0.06
775.012	0.06
775.318	0.06
775.624	0.06
775.93	0.06
776.236	0.06
776.542	0.06
776.848	0.06
777.154	0.06
777.459	0.06
777.765	0.06
778.071	0.06
778.376	0.06
778.682	0.06
778.987	0.06
779.292	0.06
779.598	0.06
779.903	0.06
780.208	0.06
780.513	0.05
780.818	0.05
781.123	0.05
781.428	0.06
781.733	0.06
782.038	0.05
782.343	0.05
782.647	0.06
782.952	0.05
783.256	0.05
783.561	0.05
783.865	0.05
784.17	0.05
784.474	0.05
784.778	0.05
785.082	0.05
785.386	0.05
785.69	0.06
785.994	0.05
786.298	0.05
786.602	0.06
786.906	0.06
787.209	0.06
787.513	0.06
787.817	0.06
788.12	0.07
788.424	0.07
788.727	0.07
789.03	0.07
789.333	0.06
789.637	0.06
789.94	0.07
790.243	0.07
790.546	0.07
790.849	0.07
791.152	0.07
791.454	0.07
791.757	0.07
792.06	0.07
792.362	0.07
792.665	0.07
792.967	0.07
793.27	0.06
793.572	0.07
793.874	0.07
794.177	0.07
794.479	0.07
794.781	0.07
795.083	0.08
795.385	0.08
795.687	0.08
795.989	0.08
796.29	0.08
796.592	0.08
796.894	0.08
797.195	0.08
797.497	0.07
797.798	0.08
798.1	0.08
798.401	0.08
798.702	0.08
799.003	0.07
799.304	0.07
799.605	0.07
799.906	0.07
800.207	0.07
800.508	0.07
800.809	0.08
801.11	0.08
801.41	0.08
801.711	0.08
802.011	0.09
802.312	0.09
802.612	0.08
802.913	0.08
803.213	0.08
803.513	0.08
803.813	0.08
804.113	0.08
804.413	0.08
804.713	0.08
805.013	0.09
805.313	0.09
805.613	0.09
805.912	0.09
806.212	0.09
806.511	0.09
806.811	0.08
807.11	0.09
807.41	0.08
807.709	0.09
808.008	0.09
808.307	0.09
808.606	0.09
808.905	0.09
809.204	0.08
809.503	0.09
809.802	0.09
810.101	0.09
810.399	0.09
810.698	0.09
810.997	0.09
811.295	0.1
811.593	0.09
811.892	0.1
812.19	0.09
812.488	0.1
812.786	0.1
813.084	0.09
813.383	0.1
813.68	0.1
813.978	0.1
814.276	0.1
814.574	0.1
814.872	0.1
815.169	0.1
815.467	0.1
815.764	0.1
816.062	0.1
816.359	0.09
816.656	0.09
816.954	0.1
817.251	0.1
817.548	0.1
817.845	0.1
818.142	0.11
818.439	0.11
818.735	0.11
819.032	0.11
819.329	0.11
819.626	0.11
819.922	0.11
820.219	0.11
820.515	0.11
820.811	0.12
821.108	0.11
821.404	0.12
821.7	0.11
821.996	0.11
822.292	0.11
822.588	0.12
822.884	0.12
823.18	0.12
823.475	0.12
823.771	0.13
824.067	0.12
824.362	0.12
824.658	0.12
824.953	0.12
825.249	0.12
825.544	0.12
825.839	0.12
826.134	0.12
826.429	0.12
826.724	0.12
827.019	0.12
827.314	0.13
827.609	0.13
827.904	0.13
828.198	0.13
828.493	0.13
828.787	0.13
829.082	0.13
829.376	0.13
829.671	0.14
829.965	0.14
830.259	0.14
830.553	0.15
830.847	0.13
831.141	0.14
831.435	0.14
831.729	0.14
832.023	0.14
832.317	0.15
832.61	0.14
832.904	0.14
833.197	0.15
833.491	0.14
833.784	0.14
834.077	0.14
834.371	0.15
834.664	0.14
834.957	0.14
835.25	0.14
835.543	0.14
835.836	0.15
836.129	0.15
836.421	0.14
836.714	0.15
837.007	0.14
837.299	0.15
837.592	0.14
837.884	0.15
838.177	0.15
838.469	0.15
838.761	0.15
839.053	0.15
839.345	0.14
839.637	0.14
839.929	0.16
840.221	0.15
840.513	0.15
840.805	0.16
841.096	0.15
841.388	0.16
841.68	0.16
841.971	0.16
842.262	0.16
842.554	0.16
842.845	0.16
843.136	0.15
843.427	0.16
843.718	0.16
844.009	0.15
844.3	0.16
844.591	0.15
844.882	0.16
845.173	0.17
845.463	0.16
845.754	0.17
846.044	0.16
846.335	0.16
846.625	0.16
846.915	0.16
847.206	0.16
847.496	0.17
847.786	0.16
848.076	0.16
848.366	0.16
848.656	0.16
848.945	0.16
849.235	0.15
849.525	0.15
849.814	0.16
850.104	0.14
850.393	0.17
850.683	0.17
850.972	0.17
851.261	0.17
851.551	0.18
851.84	0.18
852.129	0.18
852.418	0.18
852.707	0.18
852.995	0.18
853.284	0.17
853.573	0.17
853.862	0.17
854.15	0.17
854.439	0.17
854.727	0.16
855.015	0.17
855.304	0.17
855.592	0.18
855.88	0.18
856.168	0.19
856.456	0.17
856.744	0.17
857.032	0.17
857.32	0.18
857.607	0.18
857.895	0.18
858.183	0.18
858.47	0.18
858.757	0.17
859.045	0.19
859.332	0.18
859.619	0.2
859.907	0.18
860.194	0.17
860.481	0.21
860.768	0.16
861.054	0.19
861.341	0.18
861.628	0.19
861.915	0.18
862.201	0.19
862.488	0.21
862.774	0.19
863.061	0.2
863.347	0.2
863.633	0.21
863.919	0.2
864.205	0.2
864.491	0.21
864.777	0.23
865.063	0.2
865.349	0.2
865.635	0.2
865.92	0.2
866.206	0.19
866.492	0.2
866.777	0.24
867.062	0.22
867.348	0.2
867.633	0.18
867.918	0.2
868.203	0.19
868.488	0.2
868.773	0.25
869.058	0.19
869.343	0.17
869.628	0.19
869.912	0.24
870.197	0.2
870.482	0.22
870.766	0.23
871.05	0.22
871.335	0.23
871.619	0.17
871.903	0.22
872.187	0.17
872.471	0.22
872.755	0.21
873.039	0.24
873.323	0.18
873.607	0.25
873.89	0.21
874.174	0.19
874.458	0.23
874.741	0.16
875.024	0.19
875.308	0.22
875.591	0.16
875.874	0.21
876.157	0.15
876.44	0.19
876.723	0.21
877.006	0.17
877.289	0.14
877.572	0.26
877.854	0.12
878.137	0.18
878.42	0.33
878.702	0.2
878.984	0.3
879.267	0.2
879.549	0.22
879.831	0.22
880.113	0.14
880.395	0.18
880.677	0.14
880.959	0.24
