Data from Rubpy_BV_1800_EDTA_Buffered_Absorbance_15-05-32-921.txt Node
Date: Wed Jul 01 15:05:32 BST 2026
User: fpm-admin
Spectrometer: OFX00224
Trigger mode: 0
Integration Time (sec): 7.000000E-2
Scans to average: 3
Nonlinearity correction enabled: false
Boxcar width: 0
Storing dark spectrum: false
XAxis mode: Wavelengths
Number of Pixels in Spectrum: 2136
>>>>>Begin Spectral Data<<<<<
154.91	-0.48
155.289	0.82
155.669	-0.67
156.048	-0.34
156.428	-0
156.807	-0
157.186	-0
157.566	-0.63
157.945	-0.19
158.325	0.33
158.704	-0
159.083	-0
159.462	-0
159.842	-0.59
160.221	-0.81
160.6	-0.54
160.979	-0.47
161.359	0.08
161.738	0.47
162.117	1.28
162.496	-0.59
162.875	0.05
163.254	0.28
163.633	-0.9
164.012	-0.29
164.391	-0.76
164.77	-0
165.149	-0
165.528	-0
165.907	-1.06
166.286	-0.04
166.665	0.27
167.044	0.28
167.423	-0.04
167.802	-0.12
168.181	0.05
168.559	-0
168.938	-0.28
169.317	-0.1
169.696	-0
170.074	-0.27
170.453	1.62
170.832	-0.57
171.21	-0.74
171.589	-0
171.968	0.04
172.346	-0
172.725	0.41
173.103	-0.03
173.482	-0.09
173.861	-0.81
174.239	0.55
174.617	-0.53
174.996	0.48
175.374	-0.04
175.753	-0.44
176.131	-0
176.51	0.06
176.888	-0
177.266	-0
177.645	-0.07
178.023	0.43
178.401	-0.15
178.779	-0.25
179.158	-1.2
179.536	-0.43
179.914	-0
180.292	0.33
180.67	-0
181.048	-0.37
181.427	-0
181.805	-0
182.183	-1.15
182.561	0.11
182.939	-0.11
183.317	0.4
183.695	0.9
184.073	-0.2
184.451	0.27
184.829	-0.34
185.206	-0.03
185.584	-0
185.962	-0
186.34	-0
186.718	-0
187.096	-0.85
187.473	0.33
187.851	-0
188.229	0.25
188.607	0.25
188.984	0.19
189.362	0.3
189.74	0.15
190.117	0.13
190.495	0.21
190.872	0.38
191.25	0.3
191.627	0.21
192.005	0.16
192.382	0.07
192.76	0.23
193.137	0.54
193.515	0.33
193.892	0.29
194.269	0.21
194.647	0.19
195.024	0.11
195.401	0.34
195.779	0.24
196.156	0.28
196.533	0.32
196.91	0.14
197.288	0.22
197.665	0.16
198.042	0.17
198.419	0.2
198.796	0.1
199.173	0.23
199.55	0.24
199.927	0.2
200.304	0.21
200.681	0.53
201.058	0.07
201.435	0.32
201.812	0.2
202.189	0.35
202.566	0.27
202.943	0.21
203.32	0.29
203.697	0.21
204.073	0.35
204.45	0.36
204.827	0.31
205.204	0.15
205.58	0.35
205.957	0.23
206.334	0.29
206.71	0.2
207.087	0.24
207.464	0.25
207.84	0.26
208.217	0.35
208.593	0.3
208.97	0.38
209.346	0.26
209.723	0.27
210.099	0.32
210.476	0.17
210.852	0.29
211.228	0.33
211.605	0.29
211.981	0.24
212.357	0.26
212.733	0.35
213.11	0.17
213.486	0.19
213.862	0.29
214.238	0.3
214.614	0.38
214.991	0.34
215.367	0.2
215.743	0.34
216.119	0.17
216.495	0.42
216.871	0.34
217.247	0.34
217.623	0.3
217.999	0.28
218.375	0.22
218.751	0.14
219.127	0.31
219.502	0.17
219.878	0.2
220.254	0.26
220.63	0.22
221.006	0.33
221.381	0.29
221.757	0.24
222.133	0.28
222.508	0.2
222.884	0.19
223.26	0.31
223.635	0.38
224.011	0.43
224.386	0.25
224.762	0.28
225.137	0.22
225.513	0.34
225.888	0.33
226.264	0.22
226.639	0.23
227.014	0.22
227.39	0.32
227.765	0.26
228.14	0.46
228.516	0.58
228.891	0.26
229.266	0.2
229.641	0.21
230.017	0.28
230.392	0.29
230.767	0.17
231.142	0.21
231.517	0.17
231.892	0.25
232.267	0.33
232.642	0.36
233.017	0.26
233.392	0.34
233.767	0.29
234.142	0.23
234.517	0.39
234.892	0.18
235.267	0.21
235.641	0.18
236.016	0.18
236.391	0.27
236.766	0.29
237.14	0.39
237.515	0.34
237.89	0.21
238.264	0.21
238.639	0.29
239.014	0.3
239.388	0.25
239.763	0.31
240.137	0.32
240.512	0.18
240.886	0.37
241.261	0.2
241.635	0.22
242.009	0.33
242.384	0.38
242.758	0.24
243.132	0.29
243.507	0.23
243.881	0.23
244.255	0.26
244.629	0.34
245.004	0.25
245.378	0.22
245.752	0.26
246.126	0.31
246.5	0.25
246.874	0.4
247.248	0.31
247.622	0.2
247.996	0.13
248.37	0.23
248.744	0.26
249.118	0.3
249.492	0.17
249.866	0.37
250.24	0.31
250.613	0.26
250.987	0.31
251.361	0.33
251.735	0.31
252.108	0.22
252.482	0.25
252.856	0.42
253.229	0.28
253.603	0.29
253.977	0.25
254.35	0.29
254.724	0.36
255.097	0.28
255.471	0.28
255.844	0.32
256.218	0.31
256.591	0.23
256.964	0.27
257.338	0.23
257.711	0.14
258.084	0.27
258.458	0.26
258.831	0.34
259.204	0.18
259.577	0.27
259.95	0.24
260.323	0.28
260.697	0.29
261.07	0.21
261.443	0.26
261.816	0.18
262.189	0.32
262.562	0.34
262.935	0.32
263.308	0.26
263.68	0.35
264.053	0.2
264.426	0.3
264.799	0.4
265.172	0.32
265.545	0.25
265.917	0.29
266.29	0.37
266.663	0.39
267.035	0.2
267.408	0.21
267.781	0.41
268.153	0.39
268.526	0.19
268.898	0.35
269.271	0.35
269.643	0.32
270.016	0.26
270.388	0.34
270.76	0.36
271.133	0.29
271.505	0.24
271.877	0.28
272.25	0.39
272.622	0.3
272.994	0.38
273.366	0.31
273.739	0.24
274.111	0.23
274.483	0.25
274.855	0.29
275.227	0.26
275.599	0.26
275.971	0.22
276.343	0.31
276.715	0.3
277.087	0.29
277.459	0.14
277.831	0.3
278.203	0.35
278.574	0.29
278.946	0.34
279.318	0.29
279.69	0.24
280.061	0.28
280.433	0.36
280.805	0.33
281.176	0.23
281.548	0.29
281.92	0.18
282.291	0.3
282.663	0.31
283.034	0.22
283.406	0.24
283.777	0.34
284.148	0.26
284.52	0.33
284.891	0.22
285.262	0.27
285.634	0.28
286.005	0.25
286.376	0.37
286.747	0.32
287.119	0.26
287.49	0.3
287.861	0.22
288.232	0.28
288.603	0.33
288.974	0.29
289.345	0.27
289.716	0.25
290.087	0.27
290.458	0.33
290.829	0.28
291.2	0.24
291.571	0.3
291.941	0.34
292.312	0.36
292.683	0.31
293.054	0.27
293.424	0.35
293.795	0.25
294.166	0.3
294.536	0.38
294.907	0.3
295.277	0.25
295.648	0.28
296.018	0.33
296.389	0.31
296.759	0.32
297.13	0.26
297.5	0.2
297.871	0.31
298.241	0.35
298.611	0.31
298.981	0.3
299.352	0.28
299.722	0.31
300.092	0.3
300.462	0.42
300.832	0.4
301.202	0.34
301.573	0.38
301.943	0.21
302.313	0.28
302.683	0.23
303.053	0.28
303.422	0.26
303.792	0.25
304.162	0.28
304.532	0.23
304.902	0.34
305.272	0.3
305.641	0.31
306.011	0.29
306.381	0.28
306.75	0.26
307.12	0.25
307.49	0.23
307.859	0.21
308.229	0.18
308.598	0.24
308.968	0.25
309.337	0.22
309.707	0.22
310.076	0.23
310.445	0.24
310.815	0.23
311.184	0.23
311.553	0.21
311.923	0.2
312.292	0.24
312.661	0.21
313.03	0.2
313.399	0.19
313.768	0.22
314.137	0.22
314.506	0.22
314.875	0.21
315.244	0.23
315.613	0.21
315.982	0.23
316.351	0.24
316.72	0.25
317.089	0.24
317.458	0.23
317.826	0.24
318.195	0.26
318.564	0.24
318.933	0.24
319.301	0.25
319.67	0.25
320.038	0.25
320.407	0.25
320.775	0.28
321.144	0.27
321.512	0.27
321.881	0.27
322.249	0.27
322.618	0.26
322.986	0.28
323.354	0.28
323.723	0.29
324.091	0.29
324.459	0.3
324.827	0.28
325.195	0.31
325.564	0.32
325.932	0.3
326.3	0.31
326.668	0.31
327.036	0.31
327.404	0.32
327.772	0.33
328.14	0.33
328.508	0.33
328.875	0.33
329.243	0.36
329.611	0.35
329.979	0.36
330.346	0.36
330.714	0.36
331.082	0.37
331.449	0.39
331.817	0.37
332.185	0.4
332.552	0.4
332.92	0.41
333.287	0.42
333.655	0.42
334.022	0.43
334.389	0.43
334.757	0.44
335.124	0.45
335.491	0.46
335.859	0.47
336.226	0.48
336.593	0.49
336.96	0.49
337.327	0.51
337.695	0.51
338.062	0.52
338.429	0.53
338.796	0.54
339.163	0.56
339.53	0.57
339.897	0.56
340.263	0.58
340.63	0.59
340.997	0.6
341.364	0.61
341.731	0.62
342.097	0.63
342.464	0.64
342.831	0.65
343.197	0.66
343.564	0.67
343.931	0.68
344.297	0.69
344.664	0.7
345.03	0.72
345.396	0.73
345.763	0.74
346.129	0.75
346.496	0.76
346.862	0.76
347.228	0.79
347.594	0.79
347.961	0.8
348.327	0.81
348.693	0.83
349.059	0.83
349.425	0.83
349.791	0.84
350.157	0.86
350.523	0.87
350.889	0.88
351.255	0.88
351.621	0.9
351.987	0.9
352.353	0.92
352.719	0.92
353.084	0.93
353.45	0.96
353.816	0.96
354.181	0.97
354.547	0.98
354.913	0.99
355.278	1
355.644	1.02
356.009	1.03
356.375	1.04
356.74	1.06
357.106	1.06
357.471	1.08
357.836	1.09
358.202	1.1
358.567	1.12
358.932	1.15
359.297	1.14
359.663	1.16
360.028	1.18
360.393	1.19
360.758	1.21
361.123	1.23
361.488	1.24
361.853	1.26
362.218	1.26
362.583	1.3
362.948	1.28
363.312	1.32
363.677	1.33
364.042	1.34
364.407	1.36
364.772	1.37
365.136	1.37
365.501	1.4
365.865	1.4
366.23	1.41
366.595	1.43
366.959	1.43
367.324	1.44
367.688	1.43
368.052	1.46
368.417	1.48
368.781	1.48
369.145	1.49
369.51	1.49
369.874	1.51
370.238	1.51
370.602	1.52
370.967	1.53
371.331	1.53
371.695	1.52
372.059	1.53
372.423	1.54
372.787	1.54
373.151	1.56
373.515	1.53
373.878	1.5
374.242	1.56
374.606	1.53
374.97	1.51
375.334	1.51
375.697	1.47
376.061	1.48
376.425	1.46
376.788	1.46
377.152	1.46
377.515	1.42
377.879	1.41
378.242	1.42
378.606	1.39
378.969	1.37
379.333	1.36
379.696	1.33
380.059	1.35
380.422	1.33
380.786	1.32
381.149	1.3
381.512	1.27
381.875	1.25
382.238	1.24
382.601	1.23
382.964	1.22
383.327	1.21
383.69	1.19
384.053	1.18
384.416	1.17
384.779	1.17
385.142	1.15
385.504	1.14
385.867	1.13
386.23	1.13
386.593	1.13
386.955	1.13
387.318	1.12
387.68	1.11
388.043	1.11
388.405	1.12
388.768	1.1
389.13	1.11
389.493	1.09
389.855	1.09
390.217	1.08
390.58	1.08
390.942	1.06
391.304	1.05
391.666	1.04
392.028	1.03
392.391	1.02
392.753	1
393.115	0.99
393.477	0.98
393.839	0.97
394.201	0.95
394.563	0.95
394.924	0.95
395.286	0.95
395.648	0.96
396.01	0.95
396.371	0.96
396.733	0.98
397.095	1
397.456	1.01
397.818	1.03
398.18	1.04
398.541	1.05
398.903	1.11
399.264	1.13
399.625	1.16
399.987	1.17
400.348	1.2
400.709	1.2
401.071	1.21
401.432	1.2
401.793	1.2
402.154	1.21
402.515	1.2
402.876	1.17
403.238	1.15
403.599	1.11
403.96	1.08
404.32	1.05
404.681	1.01
405.042	0.97
405.403	0.93
405.764	0.89
406.125	0.85
406.485	0.8
406.846	0.77
407.207	0.72
407.567	0.68
407.928	0.65
408.288	0.61
408.649	0.58
409.009	0.55
409.37	0.52
409.73	0.49
410.091	0.47
410.451	0.44
410.811	0.41
411.171	0.4
411.532	0.38
411.892	0.36
412.252	0.34
412.612	0.32
412.972	0.32
413.332	0.3
413.692	0.29
414.052	0.27
414.412	0.27
414.772	0.26
415.132	0.25
415.492	0.24
415.851	0.24
416.211	0.22
416.571	0.22
416.931	0.21
417.29	0.2
417.65	0.2
418.009	0.2
418.369	0.19
418.728	0.19
419.088	0.18
419.447	0.18
419.807	0.18
420.166	0.17
420.525	0.16
420.884	0.16
421.244	0.16
421.603	0.15
421.962	0.15
422.321	0.16
422.68	0.15
423.039	0.14
423.398	0.14
423.757	0.14
424.116	0.15
424.475	0.14
424.834	0.14
425.193	0.14
425.551	0.14
425.91	0.13
426.269	0.14
426.628	0.13
426.986	0.14
427.345	0.13
427.703	0.13
428.062	0.13
428.42	0.12
428.779	0.13
429.137	0.12
429.496	0.12
429.854	0.12
430.212	0.12
430.57	0.13
430.929	0.12
431.287	0.11
431.645	0.12
432.003	0.12
432.361	0.12
432.719	0.11
433.077	0.12
433.435	0.11
433.793	0.12
434.151	0.11
434.509	0.12
434.866	0.11
435.224	0.11
435.582	0.11
435.94	0.12
436.297	0.12
436.655	0.12
437.012	0.11
437.37	0.11
437.727	0.11
438.085	0.11
438.442	0.12
438.8	0.11
439.157	0.11
439.514	0.12
439.872	0.11
440.229	0.11
440.586	0.11
440.943	0.12
441.3	0.11
441.657	0.12
442.014	0.11
442.371	0.1
442.728	0.11
443.085	0.12
443.442	0.11
443.799	0.11
444.156	0.12
444.513	0.12
444.869	0.1
445.226	0.12
445.583	0.12
445.939	0.13
446.296	0.11
446.652	0.11
447.009	0.11
447.365	0.11
447.722	0.11
448.078	0.11
448.434	0.12
448.791	0.11
449.147	0.12
449.503	0.11
449.859	0.12
450.215	0.11
450.571	0.12
450.928	0.11
451.284	0.12
451.64	0.11
451.995	0.11
452.351	0.11
452.707	0.11
453.063	0.11
453.419	0.11
453.775	0.1
454.13	0.11
454.486	0.11
454.842	0.1
455.197	0.1
455.553	0.1
455.908	0.1
456.264	0.1
456.619	0.1
456.975	0.1
457.33	0.1
457.685	0.1
458.04	0.1
458.396	0.1
458.751	0.09
459.106	0.08
459.461	0.09
459.816	0.08
460.171	0.08
460.526	0.08
460.881	0.07
461.236	0.06
461.591	0.07
461.946	0.07
462.301	0.07
462.655	0.06
463.01	0.07
463.365	0.06
463.719	0.06
464.074	0.05
464.428	0.04
464.783	0.04
465.137	0.05
465.492	0.05
465.846	0.04
466.201	0.04
466.555	0.04
466.909	0.04
467.263	0.05
467.618	0.05
467.972	0.06
468.326	0.06
468.68	0.04
469.034	0.05
469.388	0.04
469.742	0.05
470.096	0.06
470.45	0.05
470.804	0.05
471.157	0.06
471.511	0.06
471.865	0.06
472.218	0.06
472.572	0.08
472.926	0.08
473.279	0.08
473.633	0.09
473.986	0.1
474.34	0.11
474.693	0.11
475.046	0.12
475.4	0.13
475.753	0.13
476.106	0.14
476.459	0.14
476.812	0.16
477.165	0.17
477.519	0.18
477.872	0.17
478.224	0.18
478.577	0.19
478.93	0.19
479.283	0.2
479.636	0.21
479.989	0.21
480.341	0.22
480.694	0.23
481.047	0.23
481.399	0.24
481.752	0.24
482.104	0.25
482.457	0.25
482.809	0.25
483.162	0.26
483.514	0.26
483.866	0.27
484.219	0.27
484.571	0.28
484.923	0.27
485.275	0.28
485.627	0.29
485.979	0.29
486.331	0.3
486.683	0.3
487.035	0.31
487.387	0.31
487.739	0.32
488.091	0.32
488.443	0.33
488.794	0.33
489.146	0.33
489.498	0.33
489.849	0.34
490.201	0.34
490.552	0.34
490.904	0.35
491.255	0.35
491.607	0.35
491.958	0.35
492.309	0.36
492.661	0.36
493.012	0.37
493.363	0.37
493.714	0.37
494.065	0.37
494.416	0.39
494.767	0.39
495.118	0.39
495.469	0.39
495.82	0.4
496.171	0.4
496.522	0.4
496.872	0.41
497.223	0.41
497.574	0.41
497.924	0.42
498.275	0.42
498.626	0.43
498.976	0.43
499.327	0.43
499.677	0.43
500.027	0.44
500.378	0.44
500.728	0.44
501.078	0.45
501.428	0.45
501.779	0.46
502.129	0.45
502.479	0.45
502.829	0.47
503.179	0.47
503.529	0.47
503.879	0.47
504.229	0.48
504.578	0.48
504.928	0.48
505.278	0.49
505.628	0.49
505.977	0.49
506.327	0.5
506.676	0.51
507.026	0.5
507.375	0.51
507.725	0.5
508.074	0.51
508.424	0.51
508.773	0.52
509.122	0.52
509.471	0.53
509.82	0.53
510.17	0.54
510.519	0.53
510.868	0.53
511.217	0.54
511.566	0.54
511.915	0.54
512.263	0.55
512.612	0.55
512.961	0.56
513.31	0.56
513.659	0.56
514.007	0.56
514.356	0.56
514.704	0.57
515.053	0.57
515.401	0.57
515.75	0.57
516.098	0.58
516.447	0.58
516.795	0.59
517.143	0.58
517.491	0.59
517.839	0.59
518.188	0.59
518.536	0.6
518.884	0.6
519.232	0.6
519.58	0.6
519.928	0.6
520.275	0.61
520.623	0.61
520.971	0.62
521.319	0.61
521.666	0.62
522.014	0.62
522.362	0.62
522.709	0.62
523.057	0.62
523.404	0.63
523.752	0.63
524.099	0.63
524.446	0.64
524.794	0.64
525.141	0.65
525.488	0.64
525.835	0.64
526.182	0.65
526.529	0.65
526.876	0.64
527.223	0.65
527.57	0.65
527.917	0.66
528.264	0.66
528.611	0.65
528.958	0.66
529.304	0.66
529.651	0.66
529.998	0.67
530.344	0.67
530.691	0.67
531.037	0.67
531.384	0.67
531.73	0.68
532.076	0.68
532.423	0.68
532.769	0.68
533.115	0.68
533.461	0.69
533.807	0.69
534.154	0.69
534.5	0.69
534.846	0.69
535.192	0.69
535.537	0.69
535.883	0.69
536.229	0.7
536.575	0.69
536.921	0.7
537.266	0.7
537.612	0.7
537.957	0.69
538.303	0.7
538.649	0.7
538.994	0.7
539.339	0.7
539.685	0.7
540.03	0.71
540.375	0.7
540.721	0.71
541.066	0.71
541.411	0.71
541.756	0.71
542.101	0.72
542.446	0.71
542.791	0.72
543.136	0.72
543.481	0.72
543.825	0.73
544.17	0.72
544.515	0.72
544.86	0.72
545.204	0.72
545.549	0.73
545.893	0.72
546.238	0.72
546.582	0.73
546.927	0.72
547.271	0.72
547.615	0.72
547.96	0.72
548.304	0.73
548.648	0.73
548.992	0.72
549.336	0.73
549.68	0.73
550.024	0.74
550.368	0.73
550.712	0.73
551.056	0.73
551.4	0.73
551.743	0.73
552.087	0.73
552.431	0.73
552.774	0.74
553.118	0.73
553.462	0.73
553.805	0.73
554.148	0.73
554.492	0.73
554.835	0.72
555.178	0.73
555.522	0.73
555.865	0.73
556.208	0.73
556.551	0.73
556.894	0.73
557.237	0.73
557.58	0.73
557.923	0.72
558.266	0.73
558.609	0.72
558.952	0.73
559.294	0.73
559.637	0.73
559.98	0.73
560.322	0.73
560.665	0.72
561.007	0.72
561.35	0.73
561.692	0.73
562.034	0.72
562.377	0.72
562.719	0.72
563.061	0.72
563.403	0.72
563.745	0.72
564.088	0.72
564.43	0.72
564.772	0.72
565.113	0.71
565.455	0.71
565.797	0.71
566.139	0.71
566.481	0.72
566.822	0.72
567.164	0.71
567.506	0.71
567.847	0.71
568.189	0.71
568.53	0.71
568.872	0.71
569.213	0.71
569.554	0.7
569.895	0.7
570.237	0.7
570.578	0.7
570.919	0.7
571.26	0.69
571.601	0.69
571.942	0.7
572.283	0.69
572.624	0.69
572.965	0.69
573.306	0.68
573.646	0.68
573.987	0.68
574.328	0.68
574.668	0.68
575.009	0.68
575.349	0.67
575.69	0.67
576.03	0.67
576.37	0.67
576.711	0.66
577.051	0.67
577.391	0.67
577.731	0.67
578.072	0.67
578.412	0.66
578.752	0.66
579.092	0.66
579.431	0.64
579.771	0.63
580.111	0.62
580.451	0.64
580.791	0.65
581.13	0.65
581.47	0.65
581.81	0.65
582.149	0.65
582.489	0.65
582.828	0.63
583.167	0.6
583.507	0.57
583.846	0.56
584.185	0.61
584.525	0.63
584.864	0.64
585.203	0.64
585.542	0.64
585.881	0.65
586.22	0.64
586.559	0.64
586.898	0.62
587.236	0.62
587.575	0.62
587.914	0.63
588.252	0.64
588.591	0.64
588.93	0.64
589.268	0.63
589.607	0.63
589.945	0.63
590.283	0.64
590.622	0.64
590.96	0.64
591.298	0.64
591.636	0.64
591.974	0.64
592.313	0.64
592.651	0.64
592.989	0.64
593.326	0.64
593.664	0.64
594.002	0.64
594.34	0.63
594.678	0.63
595.015	0.63
595.353	0.62
595.691	0.63
596.028	0.64
596.366	0.63
596.703	0.64
597.04	0.63
597.378	0.64
597.715	0.64
598.052	0.64
598.389	0.64
598.726	0.63
599.064	0.63
599.401	0.64
599.738	0.64
600.074	0.63
600.411	0.63
600.748	0.62
601.085	0.62
601.422	0.62
601.758	0.62
602.095	0.62
602.432	0.62
602.768	0.62
603.105	0.63
603.441	0.62
603.777	0.63
604.114	0.63
604.45	0.63
604.786	0.62
605.122	0.62
605.459	0.62
605.795	0.62
606.131	0.62
606.467	0.62
606.803	0.62
607.139	0.62
607.474	0.61
607.81	0.61
608.146	0.61
608.482	0.61
608.817	0.6
609.153	0.6
609.488	0.6
609.824	0.6
610.159	0.6
610.495	0.6
610.83	0.6
611.165	0.6
611.5	0.59
611.836	0.59
612.171	0.58
612.506	0.58
612.841	0.58
613.176	0.58
613.511	0.58
613.845	0.58
614.18	0.58
614.515	0.58
614.85	0.57
615.184	0.57
615.519	0.57
615.854	0.57
616.188	0.56
616.523	0.56
616.857	0.56
617.191	0.56
617.526	0.56
617.86	0.56
618.194	0.55
618.528	0.56
618.862	0.55
619.196	0.55
619.53	0.55
619.864	0.55
620.198	0.55
620.532	0.54
620.866	0.54
621.2	0.54
621.533	0.54
621.867	0.54
622.201	0.53
622.534	0.53
622.868	0.53
623.201	0.53
623.534	0.53
623.868	0.52
624.201	0.52
624.534	0.52
624.868	0.52
625.201	0.51
625.534	0.51
625.867	0.51
626.2	0.51
626.533	0.51
626.865	0.51
627.198	0.5
627.531	0.5
627.864	0.49
628.196	0.49
628.529	0.49
628.862	0.49
629.194	0.49
629.527	0.49
629.859	0.48
630.191	0.48
630.524	0.48
630.856	0.47
631.188	0.47
631.52	0.47
631.852	0.46
632.184	0.46
632.516	0.46
632.848	0.45
633.18	0.45
633.512	0.45
633.844	0.45
634.175	0.45
634.507	0.44
634.839	0.43
635.17	0.44
635.502	0.43
635.833	0.43
636.165	0.43
636.496	0.42
636.827	0.42
637.159	0.42
637.49	0.42
637.821	0.42
638.152	0.41
638.483	0.41
638.814	0.41
639.145	0.41
639.476	0.4
639.807	0.4
640.137	0.39
640.468	0.39
640.799	0.39
641.129	0.39
641.46	0.39
641.791	0.39
642.121	0.38
642.451	0.38
642.782	0.37
643.112	0.38
643.442	0.37
643.773	0.37
644.103	0.37
644.433	0.37
644.763	0.37
645.093	0.37
645.423	0.36
645.753	0.36
646.082	0.36
646.412	0.36
646.742	0.35
647.072	0.35
647.401	0.35
647.731	0.35
648.06	0.34
648.39	0.35
648.719	0.35
649.048	0.35
649.378	0.34
649.707	0.34
650.036	0.34
650.365	0.34
650.694	0.34
651.023	0.33
651.352	0.33
651.681	0.33
652.01	0.33
652.339	0.32
652.668	0.33
652.996	0.32
653.325	0.32
653.654	0.33
653.982	0.32
654.311	0.32
654.639	0.32
654.967	0.32
655.296	0.32
655.624	0.32
655.952	0.32
656.28	0.32
656.609	0.32
656.937	0.32
657.265	0.3
657.593	0.15
657.92	0.06
658.248	0.03
658.576	0.1
658.904	0.22
659.231	0.3
659.559	0.3
659.887	0.3
660.214	0.3
660.542	0.3
660.869	0.3
661.196	0.3
661.524	0.3
661.851	0.3
662.178	0.3
662.505	0.3
662.832	0.29
663.159	0.29
663.486	0.29
663.813	0.29
664.14	0.29
664.467	0.29
664.794	0.28
665.12	0.28
665.447	0.28
665.774	0.28
666.1	0.28
666.427	0.28
666.753	0.28
667.079	0.27
667.406	0.27
667.732	0.27
668.058	0.27
668.384	0.27
668.71	0.27
669.036	0.27
669.362	0.27
669.688	0.26
670.014	0.26
670.34	0.26
670.666	0.26
670.991	0.26
671.317	0.26
671.643	0.25
671.968	0.25
672.294	0.25
672.619	0.25
672.945	0.25
673.27	0.25
673.595	0.24
673.92	0.24
674.246	0.24
674.571	0.24
674.896	0.23
675.221	0.23
675.546	0.23
675.87	0.23
676.195	0.22
676.52	0.23
676.845	0.23
677.169	0.22
677.494	0.22
677.819	0.22
678.143	0.22
678.468	0.22
678.792	0.21
679.116	0.21
679.44	0.21
679.765	0.21
680.089	0.2
680.413	0.2
680.737	0.2
681.061	0.2
681.385	0.2
681.709	0.19
682.033	0.19
682.356	0.19
682.68	0.19
683.004	0.19
683.327	0.19
683.651	0.18
683.974	0.18
684.298	0.18
684.621	0.18
684.944	0.17
685.268	0.17
685.591	0.17
685.914	0.16
686.237	0.16
686.56	0.16
686.883	0.16
687.206	0.16
687.529	0.16
687.852	0.15
688.175	0.15
688.497	0.16
688.82	0.16
689.142	0.15
689.465	0.15
689.787	0.15
690.11	0.15
690.432	0.14
690.755	0.15
691.077	0.14
691.399	0.14
691.721	0.14
692.043	0.13
692.365	0.13
692.687	0.13
693.009	0.13
693.331	0.12
693.653	0.12
693.974	0.12
694.296	0.12
694.618	0.12
694.939	0.12
695.261	0.12
695.582	0.12
695.904	0.12
696.225	0.12
696.546	0.12
696.868	0.11
697.189	0.11
697.51	0.11
697.831	0.11
698.152	0.11
698.473	0.11
698.794	0.1
699.114	0.1
699.435	0.09
699.756	0.1
700.077	0.1
700.397	0.1
700.718	0.1
701.038	0.1
701.359	0.1
701.679	0.1
701.999	0.1
702.32	0.09
702.64	0.09
702.96	0.1
703.28	0.1
703.6	0.09
703.92	0.09
704.24	0.09
704.56	0.09
704.879	0.09
705.199	0.09
705.519	0.09
705.838	0.09
706.158	0.09
706.478	0.09
706.797	0.09
707.116	0.09
707.436	0.09
707.755	0.09
708.074	0.09
708.393	0.08
708.712	0.08
709.031	0.07
709.35	0.07
709.669	0.07
709.988	0.07
710.307	0.07
710.626	0.08
710.944	0.08
711.263	0.08
711.582	0.08
711.9	0.09
712.219	0.08
712.537	0.08
712.855	0.08
713.174	0.08
713.492	0.08
713.81	0.08
714.128	0.08
714.446	0.08
714.764	0.08
715.082	0.07
715.4	0.08
715.718	0.07
716.035	0.08
716.353	0.08
716.671	0.08
716.988	0.08
717.306	0.08
717.623	0.08
717.941	0.09
718.258	0.09
718.575	0.09
718.893	0.09
719.21	0.09
719.527	0.08
719.844	0.08
720.161	0.08
720.478	0.08
720.795	0.09
721.112	0.09
721.428	0.09
721.745	0.09
722.062	0.09
722.378	0.09
722.695	0.09
723.011	0.09
723.328	0.09
723.644	0.09
723.96	0.09
724.276	0.09
724.593	0.09
724.909	0.09
725.225	0.09
725.541	0.09
725.857	0.09
726.173	0.09
726.488	0.09
726.804	0.09
727.12	0.09
727.435	0.08
727.751	0.09
728.067	0.09
728.382	0.09
728.697	0.09
729.013	0.09
729.328	0.09
729.643	0.09
729.958	0.09
730.273	0.09
730.588	0.09
730.903	0.09
731.218	0.09
731.533	0.09
731.848	0.08
732.163	0.09
732.477	0.08
732.792	0.08
733.107	0.07
733.421	0.08
733.736	0.08
734.05	0.08
734.364	0.08
734.678	0.08
734.993	0.08
735.307	0.08
735.621	0.08
735.935	0.08
736.249	0.08
736.563	0.08
736.877	0.08
737.19	0.08
737.504	0.08
737.818	0.08
738.131	0.08
738.445	0.09
738.758	0.08
739.072	0.08
739.385	0.09
739.698	0.09
740.012	0.09
740.325	0.08
740.638	0.08
740.951	0.08
741.264	0.08
741.577	0.08
741.89	0.08
742.203	0.08
742.515	0.08
742.828	0.08
743.141	0.08
743.453	0.08
743.766	0.08
744.078	0.07
744.391	0.07
744.703	0.07
745.015	0.07
745.327	0.07
745.639	0.07
745.952	0.07
746.264	0.07
746.575	0.08
746.887	0.07
747.199	0.07
747.511	0.07
747.823	0.07
748.134	0.06
748.446	0.06
748.757	0.06
749.069	0.06
749.38	0.06
749.692	0.06
750.003	0.06
750.314	0.05
750.625	0.05
750.936	0.05
751.248	0.05
751.559	0.05
751.869	0.05
752.18	0.05
752.491	0.05
752.802	0.05
753.112	0.05
753.423	0.05
753.734	0.05
754.044	0.05
754.355	0.05
754.665	0.04
754.975	0.04
755.285	0.04
755.596	0.04
755.906	0.04
756.216	0.04
756.526	0.04
756.836	0.04
757.146	0.04
757.455	0.04
757.765	0.04
758.075	0.04
758.385	0.04
758.694	0.04
759.004	0.04
759.313	0.04
759.622	0.04
759.932	0.04
760.241	0.04
760.55	0.04
760.859	0.04
761.168	0.04
761.477	0.04
761.786	0.04
762.095	0.04
762.404	0.04
762.713	0.04
763.021	0.04
763.33	0.04
763.639	0.05
763.947	0.04
764.256	0.04
764.564	0.04
764.872	0.04
765.181	0.04
765.489	0.04
765.797	0.04
766.105	0.04
766.413	0.04
766.721	0.04
767.029	0.04
767.337	0.04
767.644	0.04
767.952	0.04
768.26	0.04
768.567	0.04
768.875	0.04
769.182	0.04
769.49	0.04
769.797	0.04
770.104	0.04
770.411	0.04
770.718	0.04
771.026	0.04
771.333	0.04
771.639	0.03
771.946	0.03
772.253	0.04
772.56	0.04
772.867	0.04
773.173	0.04
773.48	0.04
773.786	0.04
774.093	0.04
774.399	0.04
774.705	0.04
775.012	0.04
775.318	0.04
775.624	0.04
775.93	0.04
776.236	0.05
776.542	0.04
776.848	0.05
777.154	0.05
777.459	0.05
777.765	0.05
778.071	0.04
778.376	0.04
778.682	0.04
778.987	0.04
779.292	0.04
779.598	0.04
779.903	0.04
780.208	0.04
780.513	0.04
780.818	0.04
781.123	0.04
781.428	0.04
781.733	0.04
782.038	0.04
782.343	0.03
782.647	0.03
782.952	0.03
783.256	0.03
783.561	0.03
783.865	0.03
784.17	0.03
784.474	0.03
784.778	0.03
785.082	0.03
785.386	0.03
785.69	0.03
785.994	0.03
786.298	0.04
786.602	0.04
786.906	0.04
787.209	0.04
787.513	0.04
787.817	0.04
788.12	0.04
788.424	0.05
788.727	0.05
789.03	0.05
789.333	0.04
789.637	0.05
789.94	0.04
790.243	0.05
790.546	0.05
790.849	0.05
791.152	0.05
791.454	0.05
791.757	0.05
792.06	0.05
792.362	0.05
792.665	0.05
792.967	0.04
793.27	0.04
793.572	0.05
793.874	0.05
794.177	0.05
794.479	0.05
794.781	0.05
795.083	0.06
795.385	0.05
795.687	0.05
795.989	0.05
796.29	0.05
796.592	0.05
796.894	0.05
797.195	0.05
797.497	0.05
797.798	0.05
798.1	0.05
798.401	0.05
798.702	0.05
799.003	0.05
799.304	0.05
799.605	0.05
799.906	0.05
800.207	0.05
800.508	0.05
800.809	0.05
801.11	0.05
801.41	0.05
801.711	0.05
802.011	0.05
802.312	0.06
802.612	0.05
802.913	0.06
803.213	0.05
803.513	0.05
803.813	0.05
804.113	0.05
804.413	0.06
804.713	0.06
805.013	0.06
805.313	0.06
805.613	0.06
805.912	0.06
806.212	0.06
806.511	0.06
806.811	0.06
807.11	0.06
807.41	0.06
807.709	0.06
808.008	0.06
808.307	0.06
808.606	0.06
808.905	0.06
809.204	0.06
809.503	0.06
809.802	0.06
810.101	0.06
810.399	0.06
810.698	0.07
810.997	0.06
811.295	0.07
811.593	0.06
811.892	0.06
812.19	0.07
812.488	0.06
812.786	0.06
813.084	0.06
813.383	0.07
813.68	0.06
813.978	0.07
814.276	0.07
814.574	0.07
814.872	0.07
815.169	0.07
815.467	0.06
815.764	0.06
816.062	0.06
816.359	0.06
816.656	0.06
816.954	0.07
817.251	0.07
817.548	0.07
817.845	0.07
818.142	0.07
818.439	0.08
818.735	0.07
819.032	0.07
819.329	0.08
819.626	0.07
819.922	0.08
820.219	0.08
820.515	0.08
820.811	0.09
821.108	0.08
821.404	0.07
821.7	0.08
821.996	0.07
822.292	0.08
822.588	0.08
822.884	0.08
823.18	0.09
823.475	0.09
823.771	0.09
824.067	0.09
824.362	0.09
824.658	0.09
824.953	0.09
825.249	0.08
825.544	0.08
825.839	0.09
826.134	0.08
826.429	0.08
826.724	0.08
827.019	0.09
827.314	0.09
827.609	0.09
827.904	0.08
828.198	0.09
828.493	0.09
828.787	0.09
829.082	0.09
829.376	0.09
829.671	0.1
829.965	0.1
830.259	0.09
830.553	0.1
830.847	0.09
831.141	0.1
831.435	0.1
831.729	0.1
832.023	0.09
832.317	0.1
832.61	0.1
832.904	0.1
833.197	0.1
833.491	0.09
833.784	0.1
834.077	0.1
834.371	0.1
834.664	0.1
834.957	0.1
835.25	0.1
835.543	0.09
835.836	0.1
836.129	0.1
836.421	0.1
836.714	0.1
837.007	0.1
837.299	0.1
837.592	0.1
837.884	0.1
838.177	0.1
838.469	0.11
838.761	0.1
839.053	0.11
839.345	0.11
839.637	0.1
839.929	0.1
840.221	0.11
840.513	0.1
840.805	0.12
841.096	0.12
841.388	0.11
841.68	0.11
841.971	0.11
842.262	0.11
842.554	0.11
842.845	0.1
843.136	0.11
843.427	0.11
843.718	0.11
844.009	0.1
844.3	0.11
844.591	0.11
844.882	0.12
845.173	0.11
845.463	0.11
845.754	0.12
846.044	0.12
846.335	0.11
846.625	0.11
846.915	0.11
847.206	0.11
847.496	0.11
847.786	0.11
848.076	0.11
848.366	0.12
848.656	0.11
848.945	0.11
849.235	0.1
849.525	0.11
849.814	0.1
850.104	0.11
850.393	0.12
850.683	0.13
850.972	0.11
851.261	0.12
851.551	0.12
851.84	0.14
852.129	0.13
852.418	0.12
852.707	0.12
852.995	0.12
853.284	0.11
853.573	0.12
853.862	0.11
854.15	0.12
854.439	0.11
854.727	0.11
855.015	0.12
855.304	0.11
855.592	0.11
855.88	0.13
856.168	0.11
856.456	0.11
856.744	0.12
857.032	0.13
857.32	0.12
857.607	0.12
857.895	0.12
858.183	0.13
858.47	0.13
858.757	0.13
859.045	0.13
859.332	0.12
859.619	0.12
859.907	0.12
860.194	0.11
860.481	0.14
860.768	0.14
861.054	0.11
861.341	0.12
861.628	0.13
861.915	0.12
862.201	0.14
862.488	0.11
862.774	0.12
863.061	0.14
863.347	0.13
863.633	0.13
863.919	0.11
864.205	0.12
864.491	0.14
864.777	0.14
865.063	0.12
865.349	0.14
865.635	0.11
865.92	0.12
866.206	0.15
866.492	0.14
866.777	0.15
867.062	0.15
867.348	0.14
867.633	0.11
867.918	0.15
868.203	0.11
868.488	0.15
868.773	0.19
869.058	0.16
869.343	0.13
869.628	0.13
869.912	0.12
870.197	0.11
870.482	0.09
870.766	0.14
871.05	0.13
871.335	0.13
871.619	0.12
871.903	0.12
872.187	0.11
872.471	0.23
872.755	0.12
873.039	0.08
873.323	0.15
873.607	0.17
873.89	0.08
874.174	0.12
874.458	0.16
874.741	0.1
875.024	0.12
875.308	0.17
875.591	0.12
875.874	0.18
876.157	0.11
876.44	0.04
876.723	0.11
877.006	0.11
877.289	0.08
877.572	0.19
877.854	0.11
878.137	0.11
878.42	0.13
878.702	0.1
878.984	0.23
879.267	0.12
879.549	0.12
879.831	0.18
880.113	0.06
880.395	0.12
880.677	0.03
880.959	0.1
