Data from Rubpy_BV_1800_EDTA_Buffered_Absorbance_14-53-42-805.txt Node
Date: Wed Jul 01 14:53:42 BST 2026
User: fpm-admin
Spectrometer: OFX00224
Trigger mode: 0
Integration Time (sec): 7.000000E-2
Scans to average: 3
Nonlinearity correction enabled: false
Boxcar width: 0
Storing dark spectrum: false
XAxis mode: Wavelengths
Number of Pixels in Spectrum: 2136
>>>>>Begin Spectral Data<<<<<
154.91	-0.53
155.289	-0
155.669	-0.98
156.048	-0
156.428	-0
156.807	-0
157.186	-0
157.566	0.54
157.945	0.27
158.325	0.13
158.704	0.6
159.083	-0.08
159.462	-0
159.842	-0
160.221	-0.4
160.6	-0.28
160.979	-0.1
161.359	-0
161.738	-0
162.117	-0
162.496	-0.24
162.875	-0
163.254	-0
163.633	-0
164.012	-0.02
164.391	-0.97
164.77	-0
165.149	0.3
165.528	-0
165.907	-0.81
166.286	-0.11
166.665	-0.12
167.044	0.79
167.423	-0.18
167.802	-0
168.181	-0
168.559	-0.67
168.938	-0.85
169.317	-0
169.696	-0
170.074	-0.24
170.453	0.06
170.832	-0
171.21	-0
171.589	-0
171.968	-0
172.346	-0.34
172.725	-0
173.103	0.29
173.482	0.29
173.861	-1.22
174.239	0.22
174.617	-0
174.996	0.73
175.374	0.44
175.753	-0.32
176.131	-0
176.51	0.18
176.888	-0
177.266	-0
177.645	-0.06
178.023	-0
178.401	-0.12
178.779	-0.1
179.158	-0
179.536	-0.48
179.914	-0.37
180.292	-0
180.67	-0.17
181.048	0.18
181.427	-0
181.805	-0
182.183	-1.11
182.561	-0.21
182.939	-0.27
183.317	-0
183.695	0.9
184.073	0.8
184.451	-0
184.829	-0
185.206	0.43
185.584	0.04
185.962	-0.44
186.34	0.23
186.718	0.3
187.096	-0.8
187.473	0.07
187.851	-0
188.229	-0
188.607	0.13
188.984	0.06
189.362	0.24
189.74	0.14
190.117	0.09
190.495	0.11
190.872	0.18
191.25	0.18
191.627	0.2
192.005	0.07
192.382	0.04
192.76	0.21
193.137	0.23
193.515	0.15
193.892	0.08
194.269	0.18
194.647	0.19
195.024	0.01
195.401	0.14
195.779	0.17
196.156	0.08
196.533	0.18
196.91	0.1
197.288	0.12
197.665	0.11
198.042	0.16
198.419	0.15
198.796	0.02
199.173	0.13
199.55	0.14
199.927	0.12
200.304	0.16
200.681	0.21
201.058	0.13
201.435	0.16
201.812	0.2
202.189	0.21
202.566	0.14
202.943	0.14
203.32	0.16
203.697	0.14
204.073	0.25
204.45	0.26
204.827	0.25
205.204	0.15
205.58	0.14
205.957	0.2
206.334	0.12
206.71	0.2
207.087	0.16
207.464	0.11
207.84	0.23
208.217	0.19
208.593	0.24
208.97	0.23
209.346	0.24
209.723	0.11
210.099	0.1
210.476	0.17
210.852	0.12
211.228	0.23
211.605	0.26
211.981	0.16
212.357	0.14
212.733	0.31
213.11	0.21
213.486	0.12
213.862	0.22
214.238	0.27
214.614	0.2
214.991	0.15
215.367	0.27
215.743	0.15
216.119	0.2
216.495	0.21
216.871	0.17
217.247	0.13
217.623	0.06
217.999	0.17
218.375	0.16
218.751	0.24
219.127	0.12
219.502	0.17
219.878	0.13
220.254	0.05
220.63	0.12
221.006	0.23
221.381	0.16
221.757	0.11
222.133	0.2
222.508	0.09
222.884	0.13
223.26	0.03
223.635	0.27
224.011	0.24
224.386	0.12
224.762	0.26
225.137	0.19
225.513	0.1
225.888	0.23
226.264	0.12
226.639	0.07
227.014	0.19
227.39	0.23
227.765	0.16
228.14	0.19
228.516	0.32
228.891	0.17
229.266	0.17
229.641	0.15
230.017	0.08
230.392	0.18
230.767	0.2
231.142	0.11
231.517	0.11
231.892	0.2
232.267	0.2
232.642	0.16
233.017	0.21
233.392	0.05
233.767	0.23
234.142	0.11
234.517	0.24
234.892	0.11
235.267	0.03
235.641	0.15
236.016	0.12
236.391	0.16
236.766	0.2
237.14	0.15
237.515	0.16
237.89	0.08
238.264	0.19
238.639	-0.01
239.014	0.21
239.388	0.09
239.763	0.19
240.137	0.12
240.512	0.13
240.886	0.24
241.261	0.06
241.635	0.04
242.009	0.1
242.384	0.11
242.758	0.08
243.132	0.22
243.507	0.09
243.881	0.1
244.255	0.13
244.629	0.16
245.004	0.15
245.378	0.16
245.752	0.1
246.126	0.18
246.5	0.2
246.874	0.18
247.248	0.32
247.622	0.24
247.996	0.17
248.37	0.09
248.744	0.22
249.118	0.07
249.492	0.14
249.866	0.23
250.24	0.16
250.613	0.16
250.987	0.23
251.361	0.25
251.735	0.16
252.108	0.16
252.482	0.14
252.856	0.2
253.229	0.19
253.603	0.16
253.977	0.16
254.35	0.08
254.724	0.2
255.097	0.22
255.471	0.15
255.844	0.21
256.218	0.18
256.591	0.12
256.964	0.16
257.338	0.11
257.711	0.12
258.084	0.17
258.458	0.18
258.831	0.26
259.204	0.17
259.577	0.24
259.95	0.19
260.323	0.19
260.697	0.14
261.07	0.13
261.443	0.19
261.816	0.07
262.189	0.28
262.562	0.19
262.935	0.12
263.308	0.1
263.68	0.18
264.053	0.09
264.426	0.18
264.799	0.15
265.172	0.15
265.545	0.09
265.917	0.15
266.29	0.21
266.663	0.25
267.035	0.09
267.408	0.15
267.781	0.25
268.153	0.07
268.526	0.16
268.898	0.21
269.271	0.16
269.643	0.24
270.016	0.12
270.388	0.13
270.76	0.14
271.133	0.24
271.505	0.17
271.877	0.18
272.25	0.22
272.622	0.11
272.994	0.12
273.366	0.17
273.739	0.11
274.111	0.15
274.483	0.22
274.855	0.15
275.227	0.12
275.599	0.12
275.971	0.14
276.343	0.1
276.715	0.16
277.087	0.12
277.459	0.12
277.831	0.14
278.203	0.2
278.574	0.08
278.946	0.17
279.318	0.14
279.69	0.22
280.061	0.12
280.433	0.15
280.805	0.14
281.176	0.13
281.548	0.11
281.92	0.12
282.291	0.21
282.663	0.19
283.034	0.19
283.406	0.12
283.777	0.24
284.148	0.15
284.52	0.16
284.891	0.2
285.262	0.13
285.634	0.15
286.005	0.13
286.376	0.15
286.747	0.18
287.119	0.24
287.49	0.17
287.861	0.2
288.232	0.17
288.603	0.21
288.974	0.18
289.345	0.1
289.716	0.12
290.087	0.2
290.458	0.11
290.829	0.17
291.2	0.12
291.571	0.17
291.941	0.23
292.312	0.27
292.683	0.23
293.054	0.24
293.424	0.22
293.795	0.16
294.166	0.23
294.536	0.24
294.907	0.23
295.277	0.21
295.648	0.14
296.018	0.18
296.389	0.19
296.759	0.18
297.13	0.17
297.5	0.17
297.871	0.2
298.241	0.17
298.611	0.22
298.981	0.18
299.352	0.13
299.722	0.24
300.092	0.22
300.462	0.11
300.832	0.19
301.202	0.13
301.573	0.19
301.943	0.1
302.313	0.19
302.683	0.22
303.053	0.15
303.422	0.22
303.792	0.1
304.162	0.18
304.532	0.15
304.902	0.15
305.272	0.2
305.641	0.17
306.011	0.16
306.381	0.15
306.75	0.19
307.12	0.16
307.49	0.11
307.859	0.19
308.229	0.17
308.598	0.14
308.968	0.19
309.337	0.13
309.707	0.17
310.076	0.14
310.445	0.15
310.815	0.15
311.184	0.14
311.553	0.12
311.923	0.09
312.292	0.13
312.661	0.12
313.03	0.14
313.399	0.11
313.768	0.13
314.137	0.14
314.506	0.13
314.875	0.12
315.244	0.13
315.613	0.12
315.982	0.14
316.351	0.13
316.72	0.14
317.089	0.15
317.458	0.14
317.826	0.13
318.195	0.13
318.564	0.15
318.933	0.13
319.301	0.15
319.67	0.15
320.038	0.14
320.407	0.15
320.775	0.13
321.144	0.15
321.512	0.14
321.881	0.15
322.249	0.16
322.618	0.15
322.986	0.15
323.354	0.14
323.723	0.16
324.091	0.15
324.459	0.18
324.827	0.16
325.195	0.16
325.564	0.18
325.932	0.17
326.3	0.18
326.668	0.18
327.036	0.17
327.404	0.18
327.772	0.17
328.14	0.18
328.508	0.18
328.875	0.19
329.243	0.2
329.611	0.18
329.979	0.2
330.346	0.2
330.714	0.2
331.082	0.21
331.449	0.2
331.817	0.21
332.185	0.21
332.552	0.21
332.92	0.22
333.287	0.23
333.655	0.22
334.022	0.23
334.389	0.23
334.757	0.23
335.124	0.24
335.491	0.25
335.859	0.26
336.226	0.26
336.593	0.26
336.96	0.27
337.327	0.26
337.695	0.27
338.062	0.28
338.429	0.28
338.796	0.29
339.163	0.29
339.53	0.29
339.897	0.3
340.263	0.31
340.63	0.31
340.997	0.31
341.364	0.32
341.731	0.32
342.097	0.33
342.464	0.34
342.831	0.35
343.197	0.35
343.564	0.36
343.931	0.35
344.297	0.37
344.664	0.37
345.03	0.37
345.396	0.38
345.763	0.39
346.129	0.39
346.496	0.4
346.862	0.41
347.228	0.41
347.594	0.41
347.961	0.42
348.327	0.43
348.693	0.43
349.059	0.44
349.425	0.44
349.791	0.45
350.157	0.45
350.523	0.46
350.889	0.47
351.255	0.47
351.621	0.47
351.987	0.48
352.353	0.49
352.719	0.49
353.084	0.5
353.45	0.51
353.816	0.51
354.181	0.52
354.547	0.53
354.913	0.53
355.278	0.53
355.644	0.54
356.009	0.55
356.375	0.56
356.74	0.57
357.106	0.57
357.471	0.58
357.836	0.59
358.202	0.59
358.567	0.6
358.932	0.6
359.297	0.61
359.663	0.62
360.028	0.64
360.393	0.64
360.758	0.66
361.123	0.66
361.488	0.67
361.853	0.68
362.218	0.69
362.583	0.7
362.948	0.7
363.312	0.72
363.677	0.72
364.042	0.73
364.407	0.74
364.772	0.75
365.136	0.75
365.501	0.75
365.865	0.77
366.23	0.77
366.595	0.8
366.959	0.79
367.324	0.8
367.688	0.8
368.052	0.81
368.417	0.82
368.781	0.83
369.145	0.83
369.51	0.84
369.874	0.85
370.238	0.85
370.602	0.86
370.967	0.86
371.331	0.86
371.695	0.87
372.059	0.88
372.423	0.87
372.787	0.88
373.151	0.88
373.515	0.87
373.878	0.87
374.242	0.87
374.606	0.86
374.97	0.86
375.334	0.86
375.697	0.84
376.061	0.84
376.425	0.83
376.788	0.82
377.152	0.81
377.515	0.81
377.879	0.8
378.242	0.78
378.606	0.78
378.969	0.77
379.333	0.76
379.696	0.76
380.059	0.75
380.422	0.74
380.786	0.74
381.149	0.73
381.512	0.71
381.875	0.7
382.238	0.7
382.601	0.69
382.964	0.69
383.327	0.68
383.69	0.68
384.053	0.68
384.416	0.67
384.779	0.66
385.142	0.67
385.504	0.66
385.867	0.65
386.23	0.66
386.593	0.66
386.955	0.66
387.318	0.66
387.68	0.66
388.043	0.65
388.405	0.66
388.768	0.66
389.13	0.65
389.493	0.66
389.855	0.66
390.217	0.65
390.58	0.65
390.942	0.64
391.304	0.64
391.666	0.63
392.028	0.63
392.391	0.62
392.753	0.61
393.115	0.61
393.477	0.6
393.839	0.6
394.201	0.59
394.563	0.59
394.924	0.59
395.286	0.59
395.648	0.59
396.01	0.59
396.371	0.6
396.733	0.61
397.095	0.62
397.456	0.63
397.818	0.64
398.18	0.66
398.541	0.69
398.903	0.7
399.264	0.72
399.625	0.73
399.987	0.75
400.348	0.77
400.709	0.77
401.071	0.78
401.432	0.78
401.793	0.78
402.154	0.78
402.515	0.78
402.876	0.76
403.238	0.74
403.599	0.72
403.96	0.7
404.32	0.68
404.681	0.65
405.042	0.63
405.403	0.6
405.764	0.57
406.125	0.53
406.485	0.51
406.846	0.48
407.207	0.46
407.567	0.43
407.928	0.41
408.288	0.38
408.649	0.36
409.009	0.35
409.37	0.32
409.73	0.31
410.091	0.29
410.451	0.28
410.811	0.26
411.171	0.25
411.532	0.23
411.892	0.23
412.252	0.21
412.612	0.2
412.972	0.19
413.332	0.18
413.692	0.18
414.052	0.17
414.412	0.16
414.772	0.16
415.132	0.15
415.492	0.15
415.851	0.14
416.211	0.13
416.571	0.13
416.931	0.13
417.29	0.12
417.65	0.12
418.009	0.12
418.369	0.12
418.728	0.12
419.088	0.11
419.447	0.1
419.807	0.1
420.166	0.1
420.525	0.1
420.884	0.1
421.244	0.1
421.603	0.1
421.962	0.09
422.321	0.09
422.68	0.1
423.039	0.09
423.398	0.08
423.757	0.08
424.116	0.09
424.475	0.08
424.834	0.08
425.193	0.08
425.551	0.08
425.91	0.08
426.269	0.07
426.628	0.07
426.986	0.08
427.345	0.08
427.703	0.07
428.062	0.07
428.42	0.08
428.779	0.07
429.137	0.07
429.496	0.07
429.854	0.07
430.212	0.07
430.57	0.07
430.929	0.07
431.287	0.06
431.645	0.07
432.003	0.06
432.361	0.07
432.719	0.07
433.077	0.06
433.435	0.06
433.793	0.07
434.151	0.07
434.509	0.06
434.866	0.06
435.224	0.06
435.582	0.07
435.94	0.06
436.297	0.06
436.655	0.07
437.012	0.06
437.37	0.07
437.727	0.06
438.085	0.06
438.442	0.06
438.8	0.07
439.157	0.07
439.514	0.07
439.872	0.06
440.229	0.06
440.586	0.06
440.943	0.06
441.3	0.06
441.657	0.07
442.014	0.05
442.371	0.06
442.728	0.06
443.085	0.06
443.442	0.06
443.799	0.06
444.156	0.06
444.513	0.06
444.869	0.05
445.226	0.06
445.583	0.06
445.939	0.06
446.296	0.07
446.652	0.06
447.009	0.06
447.365	0.05
447.722	0.06
448.078	0.05
448.434	0.06
448.791	0.06
449.147	0.07
449.503	0.06
449.859	0.06
450.215	0.05
450.571	0.06
450.928	0.05
451.284	0.06
451.64	0.05
451.995	0.05
452.351	0.05
452.707	0.05
453.063	0.05
453.419	0.05
453.775	0.04
454.13	0.04
454.486	0.05
454.842	0.04
455.197	0.04
455.553	0.04
455.908	0.04
456.264	0.03
456.619	0.03
456.975	0.03
457.33	0.03
457.685	0.03
458.04	0.03
458.396	0.03
458.751	0.03
459.106	0.02
459.461	0.02
459.816	0.02
460.171	0.02
460.526	0.02
460.881	0
461.236	-0
461.591	0.01
461.946	0
462.301	0
462.655	-0.01
463.01	-0
463.365	-0.01
463.719	-0.01
464.074	-0.01
464.428	-0.03
464.783	-0.03
465.137	-0.02
465.492	-0.02
465.846	-0.03
466.201	-0.03
466.555	-0.03
466.909	-0.02
467.263	-0.02
467.618	-0.02
467.972	-0.02
468.326	-0.02
468.68	-0.03
469.034	-0.02
469.388	-0.03
469.742	-0.03
470.096	-0.03
470.45	-0.02
470.804	-0.02
471.157	-0.02
471.511	-0.02
471.865	-0.02
472.218	-0.02
472.572	-0.01
472.926	-0.01
473.279	-0.01
473.633	-0
473.986	0.01
474.34	0.01
474.693	0.01
475.046	0.02
475.4	0.03
475.753	0.04
476.106	0.04
476.459	0.05
476.812	0.05
477.165	0.06
477.519	0.07
477.872	0.07
478.224	0.07
478.577	0.07
478.93	0.08
479.283	0.08
479.636	0.09
479.989	0.09
480.341	0.1
480.694	0.1
481.047	0.1
481.399	0.1
481.752	0.11
482.104	0.11
482.457	0.12
482.809	0.12
483.162	0.12
483.514	0.12
483.866	0.13
484.219	0.13
484.571	0.13
484.923	0.13
485.275	0.14
485.627	0.13
485.979	0.14
486.331	0.15
486.683	0.15
487.035	0.15
487.387	0.16
487.739	0.16
488.091	0.16
488.443	0.16
488.794	0.16
489.146	0.16
489.498	0.16
489.849	0.17
490.201	0.17
490.552	0.17
490.904	0.17
491.255	0.18
491.607	0.18
491.958	0.18
492.309	0.18
492.661	0.19
493.012	0.19
493.363	0.19
493.714	0.19
494.065	0.19
494.416	0.19
494.767	0.2
495.118	0.2
495.469	0.2
495.82	0.2
496.171	0.21
496.522	0.2
496.872	0.21
497.223	0.21
497.574	0.21
497.924	0.21
498.275	0.21
498.626	0.22
498.976	0.22
499.327	0.22
499.677	0.22
500.027	0.23
500.378	0.22
500.728	0.23
501.078	0.23
501.428	0.24
501.779	0.23
502.129	0.23
502.479	0.24
502.829	0.24
503.179	0.24
503.529	0.24
503.879	0.25
504.229	0.25
504.578	0.25
504.928	0.25
505.278	0.25
505.628	0.26
505.977	0.26
506.327	0.26
506.676	0.26
507.026	0.26
507.375	0.26
507.725	0.26
508.074	0.27
508.424	0.27
508.773	0.27
509.122	0.27
509.471	0.28
509.82	0.28
510.17	0.28
510.519	0.28
510.868	0.28
511.217	0.28
511.566	0.29
511.915	0.28
512.263	0.29
512.612	0.29
512.961	0.29
513.31	0.3
513.659	0.29
514.007	0.29
514.356	0.3
514.704	0.3
515.053	0.3
515.401	0.3
515.75	0.3
516.098	0.31
516.447	0.31
516.795	0.31
517.143	0.3
517.491	0.31
517.839	0.31
518.188	0.31
518.536	0.31
518.884	0.32
519.232	0.32
519.58	0.32
519.928	0.32
520.275	0.32
520.623	0.32
520.971	0.32
521.319	0.32
521.666	0.33
522.014	0.33
522.362	0.33
522.709	0.33
523.057	0.33
523.404	0.33
523.752	0.34
524.099	0.33
524.446	0.33
524.794	0.34
525.141	0.34
525.488	0.34
525.835	0.34
526.182	0.34
526.529	0.34
526.876	0.35
527.223	0.34
527.57	0.35
527.917	0.35
528.264	0.35
528.611	0.35
528.958	0.35
529.304	0.35
529.651	0.35
529.998	0.35
530.344	0.35
530.691	0.36
531.037	0.36
531.384	0.36
531.73	0.36
532.076	0.36
532.423	0.36
532.769	0.36
533.115	0.36
533.461	0.36
533.807	0.36
534.154	0.37
534.5	0.37
534.846	0.37
535.192	0.37
535.537	0.37
535.883	0.37
536.229	0.37
536.575	0.37
536.921	0.37
537.266	0.37
537.612	0.37
537.957	0.37
538.303	0.37
538.649	0.38
538.994	0.37
539.339	0.38
539.685	0.38
540.03	0.38
540.375	0.38
540.721	0.38
541.066	0.38
541.411	0.38
541.756	0.38
542.101	0.39
542.446	0.39
542.791	0.39
543.136	0.39
543.481	0.39
543.825	0.39
544.17	0.39
544.515	0.39
544.86	0.39
545.204	0.39
545.549	0.39
545.893	0.39
546.238	0.39
546.582	0.39
546.927	0.39
547.271	0.39
547.615	0.4
547.96	0.4
548.304	0.4
548.648	0.39
548.992	0.39
549.336	0.39
549.68	0.4
550.024	0.4
550.368	0.4
550.712	0.4
551.056	0.4
551.4	0.4
551.743	0.4
552.087	0.4
552.431	0.4
552.774	0.4
553.118	0.4
553.462	0.4
553.805	0.4
554.148	0.4
554.492	0.4
554.835	0.4
555.178	0.4
555.522	0.4
555.865	0.4
556.208	0.4
556.551	0.4
556.894	0.41
557.237	0.4
557.58	0.4
557.923	0.4
558.266	0.4
558.609	0.4
558.952	0.4
559.294	0.41
559.637	0.4
559.98	0.4
560.322	0.4
560.665	0.4
561.007	0.4
561.35	0.4
561.692	0.4
562.034	0.4
562.377	0.4
562.719	0.4
563.061	0.4
563.403	0.4
563.745	0.4
564.088	0.4
564.43	0.4
564.772	0.4
565.113	0.4
565.455	0.4
565.797	0.4
566.139	0.4
566.481	0.4
566.822	0.4
567.164	0.39
567.506	0.39
567.847	0.4
568.189	0.39
568.53	0.39
568.872	0.39
569.213	0.39
569.554	0.39
569.895	0.39
570.237	0.39
570.578	0.39
570.919	0.39
571.26	0.39
571.601	0.39
571.942	0.38
572.283	0.38
572.624	0.38
572.965	0.38
573.306	0.38
573.646	0.38
573.987	0.38
574.328	0.38
574.668	0.38
575.009	0.37
575.349	0.37
575.69	0.37
576.03	0.37
576.37	0.37
576.711	0.36
577.051	0.37
577.391	0.37
577.731	0.37
578.072	0.37
578.412	0.37
578.752	0.37
579.092	0.36
579.431	0.35
579.771	0.34
580.111	0.33
580.451	0.35
580.791	0.36
581.13	0.36
581.47	0.36
581.81	0.36
582.149	0.36
582.489	0.36
582.828	0.35
583.167	0.32
583.507	0.28
583.846	0.28
584.185	0.32
584.525	0.34
584.864	0.35
585.203	0.36
585.542	0.36
585.881	0.36
586.22	0.36
586.559	0.35
586.898	0.34
587.236	0.34
587.575	0.34
587.914	0.35
588.252	0.36
588.591	0.36
588.93	0.36
589.268	0.35
589.607	0.35
589.945	0.35
590.283	0.36
590.622	0.35
590.96	0.36
591.298	0.36
591.636	0.36
591.974	0.36
592.313	0.36
592.651	0.37
592.989	0.36
593.326	0.36
593.664	0.36
594.002	0.36
594.34	0.36
594.678	0.35
595.015	0.35
595.353	0.35
595.691	0.36
596.028	0.36
596.366	0.36
596.703	0.36
597.04	0.36
597.378	0.36
597.715	0.37
598.052	0.36
598.389	0.36
598.726	0.36
599.064	0.37
599.401	0.36
599.738	0.36
600.074	0.36
600.411	0.36
600.748	0.36
601.085	0.35
601.422	0.36
601.758	0.35
602.095	0.35
602.432	0.35
602.768	0.36
603.105	0.36
603.441	0.36
603.777	0.36
604.114	0.36
604.45	0.36
604.786	0.36
605.122	0.36
605.459	0.36
605.795	0.36
606.131	0.36
606.467	0.36
606.803	0.36
607.139	0.35
607.474	0.35
607.81	0.35
608.146	0.35
608.482	0.35
608.817	0.35
609.153	0.34
609.488	0.34
609.824	0.34
610.159	0.35
610.495	0.34
610.83	0.34
611.165	0.34
611.5	0.35
611.836	0.34
612.171	0.34
612.506	0.34
612.841	0.34
613.176	0.34
613.511	0.34
613.845	0.34
614.18	0.33
614.515	0.33
614.85	0.33
615.184	0.33
615.519	0.33
615.854	0.33
616.188	0.33
616.523	0.32
616.857	0.32
617.191	0.32
617.526	0.32
617.86	0.32
618.194	0.32
618.528	0.32
618.862	0.32
619.196	0.32
619.53	0.32
619.864	0.33
620.198	0.32
620.532	0.32
620.866	0.32
621.2	0.32
621.533	0.32
621.867	0.31
622.201	0.31
622.534	0.31
622.868	0.31
623.201	0.31
623.534	0.31
623.868	0.31
624.201	0.31
624.534	0.3
624.868	0.3
625.201	0.3
625.534	0.3
625.867	0.3
626.2	0.3
626.533	0.3
626.865	0.3
627.198	0.29
627.531	0.29
627.864	0.29
628.196	0.28
628.529	0.29
628.862	0.29
629.194	0.28
629.527	0.28
629.859	0.28
630.191	0.28
630.524	0.28
630.856	0.28
631.188	0.27
631.52	0.28
631.852	0.27
632.184	0.27
632.516	0.27
632.848	0.27
633.18	0.27
633.512	0.26
633.844	0.26
634.175	0.26
634.507	0.26
634.839	0.25
635.17	0.26
635.502	0.25
635.833	0.25
636.165	0.25
636.496	0.25
636.827	0.25
637.159	0.24
637.49	0.25
637.821	0.24
638.152	0.24
638.483	0.24
638.814	0.24
639.145	0.24
639.476	0.23
639.807	0.23
640.137	0.23
640.468	0.23
640.799	0.23
641.129	0.22
641.46	0.22
641.791	0.22
642.121	0.22
642.451	0.22
642.782	0.22
643.112	0.22
643.442	0.21
643.773	0.21
644.103	0.21
644.433	0.21
644.763	0.21
645.093	0.21
645.423	0.21
645.753	0.21
646.082	0.21
646.412	0.21
646.742	0.21
647.072	0.21
647.401	0.21
647.731	0.2
648.06	0.2
648.39	0.2
648.719	0.2
649.048	0.2
649.378	0.2
649.707	0.2
650.036	0.2
650.365	0.2
650.694	0.2
651.023	0.19
651.352	0.19
651.681	0.19
652.01	0.19
652.339	0.19
652.668	0.19
652.996	0.19
653.325	0.19
653.654	0.19
653.982	0.19
654.311	0.19
654.639	0.19
654.967	0.19
655.296	0.19
655.624	0.18
655.952	0.19
656.28	0.18
656.609	0.18
656.937	0.19
657.265	0.18
657.593	0.04
657.92	0
658.248	0
658.576	0
658.904	0.09
659.231	0.17
659.559	0.18
659.887	0.18
660.214	0.18
660.542	0.18
660.869	0.18
661.196	0.18
661.524	0.18
661.851	0.18
662.178	0.18
662.505	0.18
662.832	0.17
663.159	0.18
663.486	0.18
663.813	0.17
664.14	0.17
664.467	0.17
664.794	0.17
665.12	0.17
665.447	0.17
665.774	0.17
666.1	0.17
666.427	0.17
666.753	0.16
667.079	0.16
667.406	0.16
667.732	0.16
668.058	0.16
668.384	0.16
668.71	0.16
669.036	0.16
669.362	0.16
669.688	0.16
670.014	0.16
670.34	0.16
670.666	0.15
670.991	0.15
671.317	0.15
671.643	0.15
671.968	0.15
672.294	0.15
672.619	0.15
672.945	0.15
673.27	0.14
673.595	0.14
673.92	0.14
674.246	0.14
674.571	0.14
674.896	0.14
675.221	0.14
675.546	0.14
675.87	0.14
676.195	0.13
676.52	0.14
676.845	0.13
677.169	0.13
677.494	0.13
677.819	0.13
678.143	0.13
678.468	0.13
678.792	0.13
679.116	0.13
679.44	0.13
679.765	0.12
680.089	0.12
680.413	0.12
680.737	0.12
681.061	0.12
681.385	0.11
681.709	0.11
682.033	0.11
682.356	0.11
682.68	0.11
683.004	0.11
683.327	0.11
683.651	0.11
683.974	0.1
684.298	0.11
684.621	0.1
684.944	0.1
685.268	0.1
685.591	0.1
685.914	0.1
686.237	0.09
686.56	0.09
686.883	0.09
687.206	0.09
687.529	0.09
687.852	0.09
688.175	0.09
688.497	0.09
688.82	0.09
689.142	0.09
689.465	0.08
689.787	0.08
690.11	0.08
690.432	0.08
690.755	0.08
691.077	0.08
691.399	0.08
691.721	0.08
692.043	0.08
692.365	0.08
692.687	0.07
693.009	0.07
693.331	0.07
693.653	0.07
693.974	0.07
694.296	0.07
694.618	0.07
694.939	0.06
695.261	0.06
695.582	0.06
695.904	0.06
696.225	0.07
696.546	0.07
696.868	0.06
697.189	0.06
697.51	0.06
697.831	0.06
698.152	0.06
698.473	0.06
698.794	0.05
699.114	0.05
699.435	0.04
699.756	0.05
700.077	0.05
700.397	0.06
700.718	0.05
701.038	0.05
701.359	0.05
701.679	0.06
701.999	0.06
702.32	0.05
702.64	0.05
702.96	0.05
703.28	0.05
703.6	0.05
703.92	0.05
704.24	0.05
704.56	0.04
704.879	0.04
705.199	0.05
705.519	0.05
705.838	0.05
706.158	0.05
706.478	0.05
706.797	0.05
707.116	0.05
707.436	0.05
707.755	0.05
708.074	0.05
708.393	0.05
708.712	0.04
709.031	0.03
709.35	0.03
709.669	0.03
709.988	0.03
710.307	0.04
710.626	0.04
710.944	0.05
711.263	0.05
711.582	0.05
711.9	0.05
712.219	0.04
712.537	0.04
712.855	0.04
713.174	0.04
713.492	0.04
713.81	0.04
714.128	0.04
714.446	0.04
714.764	0.04
715.082	0.04
715.4	0.04
715.718	0.04
716.035	0.04
716.353	0.04
716.671	0.04
716.988	0.05
717.306	0.04
717.623	0.05
717.941	0.05
718.258	0.05
718.575	0.05
718.893	0.05
719.21	0.05
719.527	0.05
719.844	0.05
720.161	0.05
720.478	0.05
720.795	0.05
721.112	0.05
721.428	0.05
721.745	0.05
722.062	0.05
722.378	0.05
722.695	0.05
723.011	0.05
723.328	0.05
723.644	0.05
723.96	0.05
724.276	0.05
724.593	0.05
724.909	0.05
725.225	0.05
725.541	0.05
725.857	0.05
726.173	0.05
726.488	0.05
726.804	0.05
727.12	0.05
727.435	0.05
727.751	0.05
728.067	0.05
728.382	0.05
728.697	0.05
729.013	0.05
729.328	0.05
729.643	0.05
729.958	0.05
730.273	0.05
730.588	0.05
730.903	0.05
731.218	0.05
731.533	0.05
731.848	0.04
732.163	0.05
732.477	0.04
732.792	0.04
733.107	0.04
733.421	0.04
733.736	0.04
734.05	0.05
734.364	0.05
734.678	0.05
734.993	0.04
735.307	0.05
735.621	0.04
735.935	0.05
736.249	0.04
736.563	0.05
736.877	0.05
737.19	0.05
737.504	0.05
737.818	0.05
738.131	0.05
738.445	0.05
738.758	0.05
739.072	0.05
739.385	0.05
739.698	0.05
740.012	0.05
740.325	0.05
740.638	0.05
740.951	0.05
741.264	0.04
741.577	0.05
741.89	0.05
742.203	0.04
742.515	0.04
742.828	0.04
743.141	0.04
743.453	0.04
743.766	0.04
744.078	0.04
744.391	0.04
744.703	0.04
745.015	0.04
745.327	0.04
745.639	0.04
745.952	0.04
746.264	0.04
746.575	0.04
746.887	0.04
747.199	0.04
747.511	0.04
747.823	0.04
748.134	0.04
748.446	0.03
748.757	0.03
749.069	0.03
749.38	0.03
749.692	0.03
750.003	0.03
750.314	0.03
750.625	0.03
750.936	0.03
751.248	0.03
751.559	0.03
751.869	0.03
752.18	0.03
752.491	0.03
752.802	0.03
753.112	0.03
753.423	0.03
753.734	0.03
754.044	0.03
754.355	0.03
754.665	0.02
754.975	0.02
755.285	0.02
755.596	0.02
755.906	0.02
756.216	0.02
756.526	0.02
756.836	0.02
757.146	0.02
757.455	0.02
757.765	0.02
758.075	0.02
758.385	0.02
758.694	0.02
759.004	0.02
759.313	0.02
759.622	0.02
759.932	0.02
760.241	0.02
760.55	0.02
760.859	0.02
761.168	0.02
761.477	0.02
761.786	0.02
762.095	0.02
762.404	0.02
762.713	0.02
763.021	0.02
763.33	0.02
763.639	0.02
763.947	0.02
764.256	0.02
764.564	0.02
764.872	0.02
765.181	0.02
765.489	0.02
765.797	0.02
766.105	0.02
766.413	0.02
766.721	0.02
767.029	0.02
767.337	0.02
767.644	0.02
767.952	0.02
768.26	0.02
768.567	0.02
768.875	0.02
769.182	0.02
769.49	0.02
769.797	0.02
770.104	0.02
770.411	0.02
770.718	0.02
771.026	0.02
771.333	0.02
771.639	0.01
771.946	0.01
772.253	0.02
772.56	0.02
772.867	0.02
773.173	0.02
773.48	0.02
773.786	0.02
774.093	0.02
774.399	0.02
774.705	0.02
775.012	0.02
775.318	0.02
775.624	0.02
775.93	0.02
776.236	0.02
776.542	0.02
776.848	0.02
777.154	0.02
777.459	0.02
777.765	0.02
778.071	0.02
778.376	0.02
778.682	0.02
778.987	0.02
779.292	0.02
779.598	0.02
779.903	0.02
780.208	0.02
780.513	0.02
780.818	0.02
781.123	0.02
781.428	0.02
781.733	0.01
782.038	0.01
782.343	0.01
782.647	0.01
782.952	0.01
783.256	0.01
783.561	0.01
783.865	0.01
784.17	0.01
784.474	0.01
784.778	0.01
785.082	0.01
785.386	0.01
785.69	0.01
785.994	0.01
786.298	0.01
786.602	0.02
786.906	0.01
787.209	0.02
787.513	0.02
787.817	0.02
788.12	0.02
788.424	0.02
788.727	0.02
789.03	0.02
789.333	0.02
789.637	0.02
789.94	0.02
790.243	0.02
790.546	0.02
790.849	0.02
791.152	0.02
791.454	0.02
791.757	0.02
792.06	0.02
792.362	0.02
792.665	0.02
792.967	0.02
793.27	0.02
793.572	0.02
793.874	0.03
794.177	0.02
794.479	0.02
794.781	0.02
795.083	0.02
795.385	0.02
795.687	0.02
795.989	0.02
796.29	0.02
796.592	0.02
796.894	0.02
797.195	0.02
797.497	0.02
797.798	0.02
798.1	0.02
798.401	0.02
798.702	0.02
799.003	0.02
799.304	0.02
799.605	0.03
799.906	0.02
800.207	0.02
800.508	0.02
800.809	0.03
801.11	0.02
801.41	0.02
801.711	0.02
802.011	0.02
802.312	0.02
802.612	0.02
802.913	0.02
803.213	0.02
803.513	0.02
803.813	0.02
804.113	0.02
804.413	0.02
804.713	0.02
805.013	0.02
805.313	0.03
805.613	0.02
805.912	0.02
806.212	0.02
806.511	0.03
806.811	0.03
807.11	0.02
807.41	0.03
807.709	0.03
808.008	0.03
808.307	0.02
808.606	0.02
808.905	0.02
809.204	0.02
809.503	0.02
809.802	0.03
810.101	0.03
810.399	0.02
810.698	0.03
810.997	0.02
811.295	0.03
811.593	0.02
811.892	0.03
812.19	0.02
812.488	0.03
812.786	0.03
813.084	0.02
813.383	0.03
813.68	0.03
813.978	0.03
814.276	0.03
814.574	0.03
814.872	0.03
815.169	0.02
815.467	0.03
815.764	0.03
816.062	0.03
816.359	0.03
816.656	0.02
816.954	0.03
817.251	0.03
817.548	0.03
817.845	0.03
818.142	0.03
818.439	0.03
818.735	0.03
819.032	0.04
819.329	0.04
819.626	0.04
819.922	0.04
820.219	0.04
820.515	0.03
820.811	0.04
821.108	0.04
821.404	0.04
821.7	0.04
821.996	0.04
822.292	0.04
822.588	0.05
822.884	0.04
823.18	0.04
823.475	0.04
823.771	0.05
824.067	0.04
824.362	0.04
824.658	0.04
824.953	0.04
825.249	0.04
825.544	0.04
825.839	0.04
826.134	0.04
826.429	0.04
826.724	0.04
827.019	0.04
827.314	0.04
827.609	0.04
827.904	0.04
828.198	0.04
828.493	0.04
828.787	0.04
829.082	0.04
829.376	0.05
829.671	0.05
829.965	0.05
830.259	0.05
830.553	0.05
830.847	0.05
831.141	0.05
831.435	0.05
831.729	0.05
832.023	0.05
832.317	0.05
832.61	0.04
832.904	0.05
833.197	0.05
833.491	0.05
833.784	0.05
834.077	0.05
834.371	0.05
834.664	0.05
834.957	0.05
835.25	0.04
835.543	0.04
835.836	0.05
836.129	0.05
836.421	0.05
836.714	0.05
837.007	0.05
837.299	0.05
837.592	0.06
837.884	0.06
838.177	0.05
838.469	0.05
838.761	0.05
839.053	0.05
839.345	0.05
839.637	0.04
839.929	0.05
840.221	0.05
840.513	0.05
840.805	0.06
841.096	0.06
841.388	0.06
841.68	0.05
841.971	0.05
842.262	0.05
842.554	0.05
842.845	0.05
843.136	0.05
843.427	0.05
843.718	0.06
844.009	0.05
844.3	0.05
844.591	0.05
844.882	0.06
845.173	0.07
845.463	0.06
845.754	0.06
846.044	0.06
846.335	0.06
846.625	0.06
846.915	0.05
847.206	0.06
847.496	0.06
847.786	0.06
848.076	0.05
848.366	0.05
848.656	0.06
848.945	0.05
849.235	0.05
849.525	0.05
849.814	0.04
850.104	0.04
850.393	0.05
850.683	0.06
850.972	0.06
851.261	0.06
851.551	0.06
851.84	0.07
852.129	0.07
852.418	0.06
852.707	0.07
852.995	0.05
853.284	0.05
853.573	0.05
853.862	0.05
854.15	0.07
854.439	0.05
854.727	0.07
855.015	0.05
855.304	0.06
855.592	0.05
855.88	0.06
856.168	0.06
856.456	0.05
856.744	0.05
857.032	0.05
857.32	0.06
857.607	0.06
857.895	0.06
858.183	0.06
858.47	0.06
858.757	0.06
859.045	0.07
859.332	0.06
859.619	0.07
859.907	0.07
860.194	0.05
860.481	0.07
860.768	0.06
861.054	0.04
861.341	0.06
861.628	0.09
861.915	0.05
862.201	0.06
862.488	0.06
862.774	0.06
863.061	0.07
863.347	0.05
863.633	0.07
863.919	0.05
864.205	0.05
864.491	0.06
864.777	0.07
865.063	0.06
865.349	0.06
865.635	0.08
865.92	0.07
866.206	0.07
866.492	0.05
866.777	0.1
867.062	0.08
867.348	0.05
867.633	0.05
867.918	0.06
868.203	0.04
868.488	0.07
868.773	0.09
869.058	0.08
869.343	0.07
869.628	0.08
869.912	0.07
870.197	0.05
870.482	0.04
870.766	0.08
871.05	0.06
871.335	0.08
871.619	0.08
871.903	0.06
872.187	0.03
872.471	0.04
872.755	0.06
873.039	0.06
873.323	0.08
873.607	0.09
873.89	0.06
874.174	0.04
874.458	0.08
874.741	-0.03
875.024	0.07
875.308	0.11
875.591	0.13
875.874	0.09
876.157	-0.01
876.44	0.03
876.723	0.07
877.006	0
877.289	0.02
877.572	0.04
877.854	0.09
878.137	0.04
878.42	0.01
878.702	0.03
878.984	0.19
879.267	0.09
879.549	0.02
879.831	-0.01
880.113	-0
880.395	0.01
880.677	-0.05
880.959	0.02
