Data from Rubpy_BV_1800_EDTA_Buffered_Absorbance_14-53-06-954.txt Node
Date: Wed Jul 01 14:53:06 BST 2026
User: fpm-admin
Spectrometer: OFX00224
Trigger mode: 0
Integration Time (sec): 7.000000E-2
Scans to average: 3
Nonlinearity correction enabled: false
Boxcar width: 0
Storing dark spectrum: false
XAxis mode: Wavelengths
Number of Pixels in Spectrum: 2136
>>>>>Begin Spectral Data<<<<<
154.91	-0.2
155.289	-0
155.669	-0.55
156.048	-0.68
156.428	-0
156.807	-0
157.186	0.1
157.566	-0.66
157.945	0.51
158.325	-0
158.704	-0
159.083	-0
159.462	-0
159.842	-0
160.221	-0.18
160.6	-0.45
160.979	-0.39
161.359	-0
161.738	0.17
162.117	0.68
162.496	0.08
162.875	0.12
163.254	0.23
163.633	-0
164.012	-0.13
164.391	-0.57
164.77	-0
165.149	-0
165.528	-1.32
165.907	-0
166.286	0.13
166.665	-0.23
167.044	0.85
167.423	-0.13
167.802	-0.07
168.181	-0.56
168.559	-0.52
168.938	-0.69
169.317	-0
169.696	-0
170.074	-0.2
170.453	-0
170.832	-0
171.21	-0.49
171.589	0.48
171.968	0.49
172.346	-0
172.725	0.04
173.103	0.41
173.482	0.21
173.861	-0
174.239	0.02
174.617	-0.7
174.996	0.48
175.374	-0.48
175.753	0.37
176.131	-0
176.51	0.02
176.888	-0
177.266	-0
177.645	-0.09
178.023	-0
178.401	-0.13
178.779	0.09
179.158	-0
179.536	-0.48
179.914	-0.12
180.292	-0
180.67	-0.18
181.048	-0
181.427	0.95
181.805	-0
182.183	-1.26
182.561	0.11
182.939	-0
183.317	-0
183.695	0.39
184.073	-0
184.451	0.72
184.829	-0.54
185.206	0.25
185.584	-0.45
185.962	-0
186.34	-0.03
186.718	-0
187.096	-0.78
187.473	0.05
187.851	-0
188.229	-0
188.607	0.13
188.984	0.18
189.362	0.11
189.74	0.09
190.117	0.26
190.495	0.07
190.872	0.13
191.25	0.17
191.627	0.09
192.005	0.08
192.382	-0.06
192.76	0.07
193.137	0.09
193.515	0.13
193.892	0.24
194.269	-0
194.647	0.14
195.024	0
195.401	0.24
195.779	0.19
196.156	0.01
196.533	0.16
196.91	0.04
197.288	0.15
197.665	0.03
198.042	0.07
198.419	0.13
198.796	0.01
199.173	0.07
199.55	0.12
199.927	0.08
200.304	0.18
200.681	0.34
201.058	0.13
201.435	0.14
201.812	0.11
202.189	0.12
202.566	0.17
202.943	0.09
203.32	0.12
203.697	0.18
204.073	0.16
204.45	0.22
204.827	0.16
205.204	0.11
205.58	0.12
205.957	0.14
206.334	0.19
206.71	0.16
207.087	0.11
207.464	0.1
207.84	0.14
208.217	0.1
208.593	0.27
208.97	0.1
209.346	0.1
209.723	0.24
210.099	0.22
210.476	0.22
210.852	0.19
211.228	0.1
211.605	0.26
211.981	0.15
212.357	0.11
212.733	0.19
213.11	0.14
213.486	0.14
213.862	0.18
214.238	0.21
214.614	0.15
214.991	0.17
215.367	0.15
215.743	0.27
216.119	0.12
216.495	0.22
216.871	0.11
217.247	0.13
217.623	0.19
217.999	0.15
218.375	0.08
218.751	0.13
219.127	0.16
219.502	0.15
219.878	0.13
220.254	0.23
220.63	0.18
221.006	0.18
221.381	0.14
221.757	0.12
222.133	0.16
222.508	0.07
222.884	0.14
223.26	0.12
223.635	0.19
224.011	0.16
224.386	0.15
224.762	0.23
225.137	0.18
225.513	0.11
225.888	0.2
226.264	0.1
226.639	0.12
227.014	0.13
227.39	0.25
227.765	0.15
228.14	0.29
228.516	0.2
228.891	0.13
229.266	0.12
229.641	0.14
230.017	0.21
230.392	0.3
230.767	0.01
231.142	0.09
231.517	0.17
231.892	0.08
232.267	0.18
232.642	0.28
233.017	0.16
233.392	0.17
233.767	0.23
234.142	0.15
234.517	0.29
234.892	0.11
235.267	0.08
235.641	0.14
236.016	0.1
236.391	0.13
236.766	0.2
237.14	0.21
237.515	0.19
237.89	0.13
238.264	0.16
238.639	-0
239.014	0.18
239.388	0.14
239.763	0.1
240.137	0.11
240.512	0.12
240.886	0.22
241.261	0.13
241.635	0.12
242.009	0.14
242.384	0.15
242.758	0.09
243.132	0.12
243.507	0.15
243.881	0.04
244.255	0.17
244.629	0.23
245.004	0.23
245.378	0.11
245.752	0.1
246.126	0.18
246.5	0.12
246.874	0.23
247.248	0.21
247.622	0.2
247.996	0.1
248.37	0.07
248.744	0.13
249.118	0.19
249.492	0.18
249.866	0.2
250.24	0.25
250.613	0.23
250.987	0.15
251.361	0.15
251.735	0.18
252.108	0.18
252.482	0.11
252.856	0.19
253.229	0.16
253.603	0.21
253.977	0.16
254.35	0.11
254.724	0.16
255.097	0.13
255.471	0.25
255.844	0.08
256.218	0.14
256.591	0.17
256.964	0.15
257.338	0.12
257.711	0.13
258.084	0.11
258.458	0.21
258.831	0.2
259.204	0.16
259.577	0.14
259.95	0.14
260.323	0.14
260.697	0.25
261.07	0.19
261.443	0.13
261.816	0.09
262.189	0.12
262.562	0.24
262.935	0.2
263.308	0.13
263.68	0.18
264.053	0.09
264.426	0.08
264.799	0.19
265.172	0.16
265.545	0.17
265.917	0.13
266.29	0.2
266.663	0.25
267.035	0.09
267.408	0.14
267.781	0.31
268.153	0.14
268.526	0.17
268.898	0.13
269.271	0.1
269.643	0.19
270.016	0.16
270.388	0.11
270.76	0.13
271.133	0.16
271.505	0.12
271.877	0.16
272.25	0.19
272.622	0.13
272.994	0.31
273.366	0.18
273.739	0.11
274.111	0.13
274.483	0.1
274.855	0.16
275.227	0.08
275.599	0.1
275.971	0.18
276.343	0.17
276.715	0.11
277.087	0.21
277.459	0.07
277.831	0.16
278.203	0.2
278.574	0.17
278.946	0.16
279.318	0.14
279.69	0.2
280.061	0.13
280.433	0.14
280.805	0.14
281.176	0.12
281.548	0.16
281.92	0.11
282.291	0.17
282.663	0.14
283.034	0.1
283.406	0.13
283.777	0.21
284.148	0.19
284.52	0.17
284.891	0.1
285.262	0.17
285.634	0.14
286.005	0.18
286.376	0.11
286.747	0.15
287.119	0.14
287.49	0.06
287.861	0.15
288.232	0.15
288.603	0.2
288.974	0.11
289.345	0.12
289.716	0.1
290.087	0.12
290.458	0.1
290.829	0.11
291.2	0.13
291.571	0.12
291.941	0.2
292.312	0.19
292.683	0.17
293.054	0.14
293.424	0.13
293.795	0.15
294.166	0.15
294.536	0.22
294.907	0.25
295.277	0.15
295.648	0.11
296.018	0.15
296.389	0.18
296.759	0.11
297.13	0.14
297.5	0.17
297.871	0.13
298.241	0.16
298.611	0.2
298.981	0.22
299.352	0.15
299.722	0.19
300.092	0.17
300.462	0.05
300.832	0.16
301.202	0.18
301.573	0.19
301.943	0.12
302.313	0.18
302.683	0.21
303.053	0.17
303.422	0.15
303.792	0.15
304.162	0.15
304.532	0.13
304.902	0.15
305.272	0.16
305.641	0.17
306.011	0.17
306.381	0.14
306.75	0.17
307.12	0.16
307.49	0.18
307.859	0.11
308.229	0.09
308.598	0.17
308.968	0.12
309.337	0.12
309.707	0.17
310.076	0.16
310.445	0.15
310.815	0.09
311.184	0.11
311.553	0.1
311.923	0.1
312.292	0.11
312.661	0.12
313.03	0.11
313.399	0.1
313.768	0.11
314.137	0.12
314.506	0.11
314.875	0.09
315.244	0.13
315.613	0.1
315.982	0.1
316.351	0.12
316.72	0.14
317.089	0.13
317.458	0.11
317.826	0.12
318.195	0.14
318.564	0.13
318.933	0.12
319.301	0.13
319.67	0.12
320.038	0.12
320.407	0.12
320.775	0.11
321.144	0.15
321.512	0.13
321.881	0.14
322.249	0.14
322.618	0.13
322.986	0.13
323.354	0.14
323.723	0.14
324.091	0.15
324.459	0.14
324.827	0.14
325.195	0.15
325.564	0.15
325.932	0.15
326.3	0.16
326.668	0.16
327.036	0.15
327.404	0.15
327.772	0.16
328.14	0.17
328.508	0.16
328.875	0.16
329.243	0.16
329.611	0.18
329.979	0.16
330.346	0.18
330.714	0.17
331.082	0.18
331.449	0.19
331.817	0.18
332.185	0.19
332.552	0.19
332.92	0.2
333.287	0.2
333.655	0.2
334.022	0.2
334.389	0.2
334.757	0.21
335.124	0.21
335.491	0.22
335.859	0.23
336.226	0.22
336.593	0.23
336.96	0.23
337.327	0.24
337.695	0.24
338.062	0.25
338.429	0.25
338.796	0.25
339.163	0.27
339.53	0.26
339.897	0.26
340.263	0.27
340.63	0.27
340.997	0.28
341.364	0.28
341.731	0.29
342.097	0.29
342.464	0.3
342.831	0.31
343.197	0.31
343.564	0.31
343.931	0.32
344.297	0.32
344.664	0.33
345.03	0.34
345.396	0.33
345.763	0.34
346.129	0.35
346.496	0.35
346.862	0.35
347.228	0.36
347.594	0.36
347.961	0.37
348.327	0.38
348.693	0.38
349.059	0.39
349.425	0.39
349.791	0.4
350.157	0.4
350.523	0.4
350.889	0.41
351.255	0.41
351.621	0.42
351.987	0.42
352.353	0.43
352.719	0.43
353.084	0.44
353.45	0.45
353.816	0.45
354.181	0.45
354.547	0.46
354.913	0.47
355.278	0.47
355.644	0.48
356.009	0.49
356.375	0.49
356.74	0.5
357.106	0.5
357.471	0.51
357.836	0.51
358.202	0.53
358.567	0.53
358.932	0.54
359.297	0.55
359.663	0.55
360.028	0.57
360.393	0.57
360.758	0.58
361.123	0.59
361.488	0.6
361.853	0.6
362.218	0.62
362.583	0.62
362.948	0.62
363.312	0.64
363.677	0.64
364.042	0.65
364.407	0.66
364.772	0.67
365.136	0.67
365.501	0.67
365.865	0.68
366.23	0.69
366.595	0.7
366.959	0.71
367.324	0.71
367.688	0.71
368.052	0.72
368.417	0.73
368.781	0.73
369.145	0.75
369.51	0.75
369.874	0.75
370.238	0.75
370.602	0.76
370.967	0.78
371.331	0.77
371.695	0.78
372.059	0.78
372.423	0.77
372.787	0.77
373.151	0.78
373.515	0.77
373.878	0.77
374.242	0.77
374.606	0.77
374.97	0.77
375.334	0.76
375.697	0.75
376.061	0.74
376.425	0.74
376.788	0.73
377.152	0.72
377.515	0.71
377.879	0.71
378.242	0.7
378.606	0.7
378.969	0.68
379.333	0.68
379.696	0.68
380.059	0.67
380.422	0.67
380.786	0.66
381.149	0.65
381.512	0.64
381.875	0.63
382.238	0.62
382.601	0.63
382.964	0.62
383.327	0.61
383.69	0.62
384.053	0.6
384.416	0.6
384.779	0.6
385.142	0.6
385.504	0.59
385.867	0.59
386.23	0.59
386.593	0.59
386.955	0.6
387.318	0.6
387.68	0.59
388.043	0.59
388.405	0.59
388.768	0.59
389.13	0.61
389.493	0.59
389.855	0.6
390.217	0.59
390.58	0.59
390.942	0.59
391.304	0.58
391.666	0.58
392.028	0.57
392.391	0.56
392.753	0.55
393.115	0.56
393.477	0.55
393.839	0.54
394.201	0.53
394.563	0.53
394.924	0.53
395.286	0.54
395.648	0.53
396.01	0.54
396.371	0.55
396.733	0.56
397.095	0.57
397.456	0.58
397.818	0.59
398.18	0.61
398.541	0.62
398.903	0.64
399.264	0.66
399.625	0.68
399.987	0.69
400.348	0.71
400.709	0.71
401.071	0.72
401.432	0.72
401.793	0.71
402.154	0.71
402.515	0.71
402.876	0.69
403.238	0.69
403.599	0.67
403.96	0.64
404.32	0.62
404.681	0.6
405.042	0.57
405.403	0.55
405.764	0.52
406.125	0.49
406.485	0.47
406.846	0.44
407.207	0.42
407.567	0.4
407.928	0.38
408.288	0.35
408.649	0.34
409.009	0.32
409.37	0.29
409.73	0.28
410.091	0.26
410.451	0.25
410.811	0.23
411.171	0.23
411.532	0.21
411.892	0.2
412.252	0.19
412.612	0.18
412.972	0.18
413.332	0.16
413.692	0.16
414.052	0.15
414.412	0.15
414.772	0.15
415.132	0.14
415.492	0.13
415.851	0.13
416.211	0.11
416.571	0.12
416.931	0.12
417.29	0.11
417.65	0.1
418.009	0.11
418.369	0.11
418.728	0.11
419.088	0.1
419.447	0.1
419.807	0.09
420.166	0.09
420.525	0.09
420.884	0.09
421.244	0.09
421.603	0.09
421.962	0.08
422.321	0.08
422.68	0.09
423.039	0.08
423.398	0.07
423.757	0.07
424.116	0.08
424.475	0.07
424.834	0.07
425.193	0.06
425.551	0.07
425.91	0.07
426.269	0.08
426.628	0.07
426.986	0.07
427.345	0.06
427.703	0.07
428.062	0.07
428.42	0.07
428.779	0.07
429.137	0.06
429.496	0.06
429.854	0.06
430.212	0.07
430.57	0.07
430.929	0.06
431.287	0.06
431.645	0.06
432.003	0.06
432.361	0.06
432.719	0.06
433.077	0.06
433.435	0.06
433.793	0.06
434.151	0.06
434.509	0.06
434.866	0.06
435.224	0.06
435.582	0.06
435.94	0.06
436.297	0.06
436.655	0.06
437.012	0.06
437.37	0.06
437.727	0.05
438.085	0.05
438.442	0.05
438.8	0.06
439.157	0.05
439.514	0.06
439.872	0.06
440.229	0.05
440.586	0.05
440.943	0.06
441.3	0.05
441.657	0.06
442.014	0.05
442.371	0.05
442.728	0.06
443.085	0.06
443.442	0.05
443.799	0.05
444.156	0.05
444.513	0.05
444.869	0.04
445.226	0.06
445.583	0.06
445.939	0.06
446.296	0.05
446.652	0.05
447.009	0.05
447.365	0.05
447.722	0.05
448.078	0.05
448.434	0.06
448.791	0.05
449.147	0.06
449.503	0.04
449.859	0.05
450.215	0.04
450.571	0.04
450.928	0.05
451.284	0.06
451.64	0.05
451.995	0.05
452.351	0.04
452.707	0.04
453.063	0.04
453.419	0.04
453.775	0.04
454.13	0.04
454.486	0.04
454.842	0.04
455.197	0.04
455.553	0.03
455.908	0.03
456.264	0.03
456.619	0.03
456.975	0.03
457.33	0.03
457.685	0.02
458.04	0.02
458.396	0.02
458.751	0.02
459.106	0.02
459.461	0.01
459.816	0
460.171	0.01
460.526	0.01
460.881	-0.01
461.236	-0.01
461.591	0
461.946	-0.01
462.301	-0.01
462.655	-0.02
463.01	-0.01
463.365	-0.01
463.719	-0.03
464.074	-0.03
464.428	-0.03
464.783	-0.04
465.137	-0.03
465.492	-0.03
465.846	-0.04
466.201	-0.04
466.555	-0.04
466.909	-0.03
467.263	-0.02
467.618	-0.03
467.972	-0.03
468.326	-0.03
468.68	-0.04
469.034	-0.03
469.388	-0.04
469.742	-0.04
470.096	-0.04
470.45	-0.03
470.804	-0.03
471.157	-0.03
471.511	-0.03
471.865	-0.03
472.218	-0.03
472.572	-0.02
472.926	-0.02
473.279	-0.02
473.633	-0.01
473.986	-0
474.34	0
474.693	0
475.046	0.01
475.4	0.01
475.753	0.02
476.106	0.03
476.459	0.03
476.812	0.04
477.165	0.04
477.519	0.05
477.872	0.05
478.224	0.06
478.577	0.06
478.93	0.06
479.283	0.06
479.636	0.07
479.989	0.07
480.341	0.08
480.694	0.09
481.047	0.08
481.399	0.09
481.752	0.09
482.104	0.1
482.457	0.1
482.809	0.1
483.162	0.11
483.514	0.11
483.866	0.11
484.219	0.11
484.571	0.11
484.923	0.11
485.275	0.12
485.627	0.12
485.979	0.12
486.331	0.12
486.683	0.13
487.035	0.13
487.387	0.14
487.739	0.14
488.091	0.14
488.443	0.14
488.794	0.14
489.146	0.14
489.498	0.15
489.849	0.14
490.201	0.14
490.552	0.15
490.904	0.15
491.255	0.15
491.607	0.15
491.958	0.16
492.309	0.16
492.661	0.16
493.012	0.16
493.363	0.17
493.714	0.17
494.065	0.17
494.416	0.17
494.767	0.17
495.118	0.17
495.469	0.17
495.82	0.18
496.171	0.18
496.522	0.18
496.872	0.18
497.223	0.18
497.574	0.18
497.924	0.19
498.275	0.19
498.626	0.19
498.976	0.19
499.327	0.2
499.677	0.2
500.027	0.2
500.378	0.2
500.728	0.2
501.078	0.2
501.428	0.21
501.779	0.21
502.129	0.21
502.479	0.21
502.829	0.21
503.179	0.21
503.529	0.21
503.879	0.21
504.229	0.22
504.578	0.22
504.928	0.22
505.278	0.22
505.628	0.22
505.977	0.23
506.327	0.23
506.676	0.23
507.026	0.23
507.375	0.23
507.725	0.23
508.074	0.24
508.424	0.23
508.773	0.24
509.122	0.24
509.471	0.24
509.82	0.24
510.17	0.24
510.519	0.25
510.868	0.25
511.217	0.25
511.566	0.25
511.915	0.25
512.263	0.26
512.612	0.25
512.961	0.26
513.31	0.26
513.659	0.26
514.007	0.26
514.356	0.26
514.704	0.27
515.053	0.26
515.401	0.26
515.75	0.27
516.098	0.27
516.447	0.27
516.795	0.27
517.143	0.27
517.491	0.27
517.839	0.27
518.188	0.27
518.536	0.27
518.884	0.28
519.232	0.28
519.58	0.28
519.928	0.28
520.275	0.28
520.623	0.28
520.971	0.29
521.319	0.28
521.666	0.29
522.014	0.29
522.362	0.29
522.709	0.3
523.057	0.29
523.404	0.29
523.752	0.3
524.099	0.29
524.446	0.3
524.794	0.3
525.141	0.3
525.488	0.3
525.835	0.3
526.182	0.3
526.529	0.3
526.876	0.3
527.223	0.3
527.57	0.31
527.917	0.31
528.264	0.31
528.611	0.3
528.958	0.3
529.304	0.31
529.651	0.31
529.998	0.31
530.344	0.31
530.691	0.32
531.037	0.32
531.384	0.32
531.73	0.32
532.076	0.32
532.423	0.32
532.769	0.32
533.115	0.32
533.461	0.32
533.807	0.32
534.154	0.33
534.5	0.33
534.846	0.33
535.192	0.33
535.537	0.32
535.883	0.33
536.229	0.33
536.575	0.33
536.921	0.33
537.266	0.33
537.612	0.33
537.957	0.33
538.303	0.33
538.649	0.34
538.994	0.33
539.339	0.34
539.685	0.34
540.03	0.34
540.375	0.33
540.721	0.34
541.066	0.34
541.411	0.34
541.756	0.34
542.101	0.34
542.446	0.34
542.791	0.34
543.136	0.34
543.481	0.34
543.825	0.35
544.17	0.34
544.515	0.35
544.86	0.35
545.204	0.35
545.549	0.35
545.893	0.35
546.238	0.34
546.582	0.35
546.927	0.35
547.271	0.35
547.615	0.35
547.96	0.35
548.304	0.35
548.648	0.35
548.992	0.35
549.336	0.35
549.68	0.35
550.024	0.36
550.368	0.36
550.712	0.35
551.056	0.36
551.4	0.36
551.743	0.36
552.087	0.35
552.431	0.36
552.774	0.35
553.118	0.35
553.462	0.36
553.805	0.36
554.148	0.35
554.492	0.36
554.835	0.36
555.178	0.36
555.522	0.36
555.865	0.36
556.208	0.36
556.551	0.36
556.894	0.36
557.237	0.36
557.58	0.36
557.923	0.36
558.266	0.36
558.609	0.35
558.952	0.36
559.294	0.36
559.637	0.36
559.98	0.36
560.322	0.35
560.665	0.35
561.007	0.36
561.35	0.36
561.692	0.35
562.034	0.35
562.377	0.36
562.719	0.35
563.061	0.35
563.403	0.35
563.745	0.36
564.088	0.36
564.43	0.36
564.772	0.35
565.113	0.35
565.455	0.35
565.797	0.35
566.139	0.35
566.481	0.35
566.822	0.36
567.164	0.35
567.506	0.35
567.847	0.35
568.189	0.35
568.53	0.35
568.872	0.35
569.213	0.35
569.554	0.35
569.895	0.35
570.237	0.35
570.578	0.35
570.919	0.35
571.26	0.34
571.601	0.34
571.942	0.34
572.283	0.34
572.624	0.34
572.965	0.34
573.306	0.34
573.646	0.34
573.987	0.34
574.328	0.34
574.668	0.34
575.009	0.33
575.349	0.33
575.69	0.33
576.03	0.33
576.37	0.33
576.711	0.33
577.051	0.33
577.391	0.33
577.731	0.33
578.072	0.33
578.412	0.33
578.752	0.33
579.092	0.33
579.431	0.31
579.771	0.3
580.111	0.29
580.451	0.31
580.791	0.32
581.13	0.33
581.47	0.33
581.81	0.33
582.149	0.32
582.489	0.32
582.828	0.31
583.167	0.28
583.507	0.25
583.846	0.24
584.185	0.28
584.525	0.31
584.864	0.32
585.203	0.32
585.542	0.33
585.881	0.33
586.22	0.32
586.559	0.32
586.898	0.31
587.236	0.3
587.575	0.3
587.914	0.31
588.252	0.32
588.591	0.32
588.93	0.32
589.268	0.32
589.607	0.31
589.945	0.31
590.283	0.32
590.622	0.32
590.96	0.32
591.298	0.33
591.636	0.33
591.974	0.32
592.313	0.33
592.651	0.33
592.989	0.32
593.326	0.33
593.664	0.33
594.002	0.33
594.34	0.32
594.678	0.32
595.015	0.31
595.353	0.31
595.691	0.32
596.028	0.33
596.366	0.32
596.703	0.32
597.04	0.32
597.378	0.32
597.715	0.33
598.052	0.33
598.389	0.33
598.726	0.33
599.064	0.33
599.401	0.33
599.738	0.33
600.074	0.33
600.411	0.33
600.748	0.32
601.085	0.32
601.422	0.32
601.758	0.32
602.095	0.32
602.432	0.32
602.768	0.32
603.105	0.32
603.441	0.33
603.777	0.33
604.114	0.32
604.45	0.33
604.786	0.32
605.122	0.32
605.459	0.32
605.795	0.32
606.131	0.32
606.467	0.32
606.803	0.32
607.139	0.32
607.474	0.32
607.81	0.31
608.146	0.31
608.482	0.31
608.817	0.31
609.153	0.31
609.488	0.31
609.824	0.31
610.159	0.31
610.495	0.31
610.83	0.31
611.165	0.31
611.5	0.31
611.836	0.31
612.171	0.31
612.506	0.31
612.841	0.31
613.176	0.31
613.511	0.31
613.845	0.3
614.18	0.3
614.515	0.3
614.85	0.3
615.184	0.3
615.519	0.3
615.854	0.3
616.188	0.3
616.523	0.3
616.857	0.29
617.191	0.29
617.526	0.3
617.86	0.29
618.194	0.29
618.528	0.3
618.862	0.29
619.196	0.29
619.53	0.29
619.864	0.29
620.198	0.29
620.532	0.29
620.866	0.29
621.2	0.29
621.533	0.29
621.867	0.29
622.201	0.28
622.534	0.28
622.868	0.28
623.201	0.28
623.534	0.28
623.868	0.27
624.201	0.28
624.534	0.27
624.868	0.27
625.201	0.28
625.534	0.27
625.867	0.27
626.2	0.27
626.533	0.27
626.865	0.27
627.198	0.26
627.531	0.26
627.864	0.26
628.196	0.26
628.529	0.26
628.862	0.26
629.194	0.26
629.527	0.25
629.859	0.25
630.191	0.25
630.524	0.25
630.856	0.25
631.188	0.25
631.52	0.25
631.852	0.24
632.184	0.24
632.516	0.24
632.848	0.24
633.18	0.24
633.512	0.24
633.844	0.23
634.175	0.23
634.507	0.23
634.839	0.23
635.17	0.23
635.502	0.23
635.833	0.23
636.165	0.23
636.496	0.22
636.827	0.22
637.159	0.22
637.49	0.22
637.821	0.22
638.152	0.22
638.483	0.21
638.814	0.21
639.145	0.21
639.476	0.21
639.807	0.21
640.137	0.21
640.468	0.21
640.799	0.21
641.129	0.2
641.46	0.2
641.791	0.2
642.121	0.19
642.451	0.2
642.782	0.19
643.112	0.19
643.442	0.19
643.773	0.19
644.103	0.19
644.433	0.19
644.763	0.19
645.093	0.19
645.423	0.19
645.753	0.19
646.082	0.19
646.412	0.19
646.742	0.19
647.072	0.19
647.401	0.19
647.731	0.18
648.06	0.18
648.39	0.18
648.719	0.18
649.048	0.18
649.378	0.18
649.707	0.18
650.036	0.18
650.365	0.18
650.694	0.18
651.023	0.18
651.352	0.17
651.681	0.17
652.01	0.17
652.339	0.17
652.668	0.17
652.996	0.17
653.325	0.17
653.654	0.17
653.982	0.17
654.311	0.17
654.639	0.17
654.967	0.17
655.296	0.17
655.624	0.17
655.952	0.17
656.28	0.17
656.609	0.17
656.937	0.17
657.265	0.16
657.593	0.02
657.92	0
658.248	0
658.576	0
658.904	0.08
659.231	0.15
659.559	0.16
659.887	0.16
660.214	0.16
660.542	0.16
660.869	0.16
661.196	0.16
661.524	0.16
661.851	0.16
662.178	0.16
662.505	0.16
662.832	0.16
663.159	0.16
663.486	0.16
663.813	0.16
664.14	0.16
664.467	0.15
664.794	0.15
665.12	0.16
665.447	0.15
665.774	0.15
666.1	0.15
666.427	0.15
666.753	0.15
667.079	0.15
667.406	0.14
667.732	0.14
668.058	0.15
668.384	0.15
668.71	0.15
669.036	0.14
669.362	0.14
669.688	0.14
670.014	0.14
670.34	0.14
670.666	0.14
670.991	0.14
671.317	0.14
671.643	0.14
671.968	0.14
672.294	0.13
672.619	0.13
672.945	0.13
673.27	0.13
673.595	0.13
673.92	0.13
674.246	0.13
674.571	0.13
674.896	0.12
675.221	0.12
675.546	0.12
675.87	0.13
676.195	0.12
676.52	0.12
676.845	0.12
677.169	0.12
677.494	0.12
677.819	0.12
678.143	0.12
678.468	0.12
678.792	0.11
679.116	0.12
679.44	0.11
679.765	0.11
680.089	0.1
680.413	0.11
680.737	0.1
681.061	0.1
681.385	0.1
681.709	0.1
682.033	0.1
682.356	0.1
682.68	0.1
683.004	0.1
683.327	0.1
683.651	0.1
683.974	0.09
684.298	0.09
684.621	0.09
684.944	0.09
685.268	0.09
685.591	0.09
685.914	0.08
686.237	0.08
686.56	0.08
686.883	0.08
687.206	0.08
687.529	0.08
687.852	0.08
688.175	0.08
688.497	0.08
688.82	0.08
689.142	0.08
689.465	0.08
689.787	0.07
690.11	0.08
690.432	0.07
690.755	0.08
691.077	0.07
691.399	0.07
691.721	0.07
692.043	0.07
692.365	0.07
692.687	0.07
693.009	0.06
693.331	0.06
693.653	0.06
693.974	0.06
694.296	0.06
694.618	0.06
694.939	0.06
695.261	0.06
695.582	0.06
695.904	0.06
696.225	0.06
696.546	0.06
696.868	0.06
697.189	0.06
697.51	0.06
697.831	0.06
698.152	0.06
698.473	0.05
698.794	0.05
699.114	0.05
699.435	0.04
699.756	0.05
700.077	0.05
700.397	0.05
700.718	0.05
701.038	0.05
701.359	0.05
701.679	0.05
701.999	0.05
702.32	0.05
702.64	0.05
702.96	0.05
703.28	0.05
703.6	0.04
703.92	0.04
704.24	0.04
704.56	0.04
704.879	0.04
705.199	0.04
705.519	0.04
705.838	0.04
706.158	0.05
706.478	0.05
706.797	0.05
707.116	0.04
707.436	0.04
707.755	0.04
708.074	0.04
708.393	0.04
708.712	0.03
709.031	0.03
709.35	0.03
709.669	0.03
709.988	0.03
710.307	0.03
710.626	0.03
710.944	0.04
711.263	0.04
711.582	0.04
711.9	0.04
712.219	0.04
712.537	0.04
712.855	0.04
713.174	0.04
713.492	0.04
713.81	0.04
714.128	0.04
714.446	0.04
714.764	0.03
715.082	0.03
715.4	0.03
715.718	0.03
716.035	0.04
716.353	0.04
716.671	0.04
716.988	0.04
717.306	0.04
717.623	0.04
717.941	0.04
718.258	0.05
718.575	0.05
718.893	0.05
719.21	0.04
719.527	0.04
719.844	0.04
720.161	0.04
720.478	0.04
720.795	0.04
721.112	0.04
721.428	0.05
721.745	0.05
722.062	0.05
722.378	0.05
722.695	0.04
723.011	0.04
723.328	0.04
723.644	0.05
723.96	0.05
724.276	0.05
724.593	0.05
724.909	0.05
725.225	0.05
725.541	0.05
725.857	0.05
726.173	0.05
726.488	0.05
726.804	0.05
727.12	0.05
727.435	0.04
727.751	0.04
728.067	0.04
728.382	0.05
728.697	0.05
729.013	0.05
729.328	0.05
729.643	0.04
729.958	0.05
730.273	0.04
730.588	0.04
730.903	0.04
731.218	0.04
731.533	0.04
731.848	0.04
732.163	0.04
732.477	0.04
732.792	0.04
733.107	0.03
733.421	0.04
733.736	0.04
734.05	0.04
734.364	0.04
734.678	0.04
734.993	0.04
735.307	0.04
735.621	0.04
735.935	0.04
736.249	0.04
736.563	0.04
736.877	0.04
737.19	0.04
737.504	0.04
737.818	0.04
738.131	0.04
738.445	0.04
738.758	0.04
739.072	0.04
739.385	0.04
739.698	0.05
740.012	0.05
740.325	0.05
740.638	0.04
740.951	0.04
741.264	0.04
741.577	0.04
741.89	0.04
742.203	0.04
742.515	0.04
742.828	0.04
743.141	0.04
743.453	0.04
743.766	0.04
744.078	0.04
744.391	0.04
744.703	0.04
745.015	0.04
745.327	0.04
745.639	0.04
745.952	0.04
746.264	0.04
746.575	0.04
746.887	0.04
747.199	0.04
747.511	0.03
747.823	0.03
748.134	0.03
748.446	0.03
748.757	0.03
749.069	0.03
749.38	0.03
749.692	0.03
750.003	0.03
750.314	0.02
750.625	0.03
750.936	0.02
751.248	0.02
751.559	0.02
751.869	0.02
752.18	0.02
752.491	0.02
752.802	0.02
753.112	0.02
753.423	0.02
753.734	0.03
754.044	0.02
754.355	0.02
754.665	0.02
754.975	0.02
755.285	0.02
755.596	0.02
755.906	0.02
756.216	0.02
756.526	0.02
756.836	0.02
757.146	0.02
757.455	0.02
757.765	0.02
758.075	0.02
758.385	0.02
758.694	0.02
759.004	0.02
759.313	0.02
759.622	0.02
759.932	0.02
760.241	0.02
760.55	0.02
760.859	0.02
761.168	0.02
761.477	0.02
761.786	0.02
762.095	0.02
762.404	0.02
762.713	0.02
763.021	0.02
763.33	0.02
763.639	0.02
763.947	0.02
764.256	0.02
764.564	0.02
764.872	0.01
765.181	0.02
765.489	0.02
765.797	0.02
766.105	0.02
766.413	0.01
766.721	0.01
767.029	0.02
767.337	0.02
767.644	0.02
767.952	0.02
768.26	0.02
768.567	0.02
768.875	0.02
769.182	0.02
769.49	0.02
769.797	0.02
770.104	0.01
770.411	0.02
770.718	0.01
771.026	0.02
771.333	0.02
771.639	0.01
771.946	0.01
772.253	0.01
772.56	0.01
772.867	0.02
773.173	0.01
773.48	0.01
773.786	0.02
774.093	0.02
774.399	0.01
774.705	0.01
775.012	0.01
775.318	0.01
775.624	0.02
775.93	0.02
776.236	0.02
776.542	0.02
776.848	0.02
777.154	0.02
777.459	0.02
777.765	0.02
778.071	0.01
778.376	0.02
778.682	0.01
778.987	0.02
779.292	0.02
779.598	0.01
779.903	0.01
780.208	0.01
780.513	0.01
780.818	0.01
781.123	0.01
781.428	0.01
781.733	0.01
782.038	0.01
782.343	0.01
782.647	0.01
782.952	0.01
783.256	0.01
783.561	0.01
783.865	0.01
784.17	0.01
784.474	0.01
784.778	0.01
785.082	0.01
785.386	0.01
785.69	0.01
785.994	0.01
786.298	0.01
786.602	0.01
786.906	0.01
787.209	0.01
787.513	0.02
787.817	0.02
788.12	0.01
788.424	0.02
788.727	0.02
789.03	0.02
789.333	0.02
789.637	0.02
789.94	0.02
790.243	0.02
790.546	0.02
790.849	0.02
791.152	0.02
791.454	0.02
791.757	0.02
792.06	0.02
792.362	0.02
792.665	0.02
792.967	0.02
793.27	0.02
793.572	0.02
793.874	0.02
794.177	0.02
794.479	0.02
794.781	0.02
795.083	0.02
795.385	0.02
795.687	0.02
795.989	0.02
796.29	0.02
796.592	0.02
796.894	0.02
797.195	0.02
797.497	0.02
797.798	0.02
798.1	0.02
798.401	0.01
798.702	0.02
799.003	0.02
799.304	0.02
799.605	0.02
799.906	0.02
800.207	0.02
800.508	0.02
800.809	0.02
801.11	0.02
801.41	0.02
801.711	0.02
802.011	0.02
802.312	0.02
802.612	0.01
802.913	0.02
803.213	0.02
803.513	0.01
803.813	0.02
804.113	0.02
804.413	0.02
804.713	0.02
805.013	0.02
805.313	0.02
805.613	0.02
805.912	0.02
806.212	0.02
806.511	0.02
806.811	0.02
807.11	0.03
807.41	0.02
807.709	0.02
808.008	0.02
808.307	0.02
808.606	0.02
808.905	0.02
809.204	0.02
809.503	0.02
809.802	0.02
810.101	0.02
810.399	0.03
810.698	0.02
810.997	0.02
811.295	0.02
811.593	0.02
811.892	0.02
812.19	0.02
812.488	0.02
812.786	0.02
813.084	0.02
813.383	0.03
813.68	0.02
813.978	0.03
814.276	0.02
814.574	0.02
814.872	0.02
815.169	0.02
815.467	0.02
815.764	0.02
816.062	0.02
816.359	0.02
816.656	0.02
816.954	0.02
817.251	0.02
817.548	0.03
817.845	0.02
818.142	0.03
818.439	0.03
818.735	0.03
819.032	0.03
819.329	0.03
819.626	0.03
819.922	0.03
820.219	0.04
820.515	0.04
820.811	0.04
821.108	0.03
821.404	0.03
821.7	0.03
821.996	0.04
822.292	0.03
822.588	0.04
822.884	0.04
823.18	0.04
823.475	0.04
823.771	0.04
824.067	0.03
824.362	0.04
824.658	0.03
824.953	0.03
825.249	0.03
825.544	0.03
825.839	0.04
826.134	0.03
826.429	0.03
826.724	0.03
827.019	0.03
827.314	0.03
827.609	0.04
827.904	0.03
828.198	0.03
828.493	0.04
828.787	0.04
829.082	0.04
829.376	0.04
829.671	0.04
829.965	0.04
830.259	0.05
830.553	0.05
830.847	0.04
831.141	0.05
831.435	0.04
831.729	0.04
832.023	0.04
832.317	0.05
832.61	0.04
832.904	0.05
833.197	0.05
833.491	0.04
833.784	0.05
834.077	0.05
834.371	0.05
834.664	0.05
834.957	0.05
835.25	0.04
835.543	0.04
835.836	0.05
836.129	0.04
836.421	0.05
836.714	0.05
837.007	0.05
837.299	0.04
837.592	0.04
837.884	0.05
838.177	0.04
838.469	0.05
838.761	0.05
839.053	0.04
839.345	0.04
839.637	0.04
839.929	0.04
840.221	0.04
840.513	0.04
840.805	0.05
841.096	0.05
841.388	0.05
841.68	0.05
841.971	0.05
842.262	0.05
842.554	0.05
842.845	0.03
843.136	0.03
843.427	0.04
843.718	0.04
844.009	0.04
844.3	0.05
844.591	0.04
844.882	0.05
845.173	0.05
845.463	0.05
845.754	0.05
846.044	0.05
846.335	0.05
846.625	0.05
846.915	0.05
847.206	0.05
847.496	0.05
847.786	0.05
848.076	0.04
848.366	0.04
848.656	0.04
848.945	0.04
849.235	0.04
849.525	0.03
849.814	0.04
850.104	0.04
850.393	0.05
850.683	0.06
850.972	0.06
851.261	0.05
851.551	0.05
851.84	0.05
852.129	0.06
852.418	0.05
852.707	0.06
852.995	0.06
853.284	0.05
853.573	0.04
853.862	0.04
854.15	0.03
854.439	0.05
854.727	0.05
855.015	0.06
855.304	0.04
855.592	0.05
855.88	0.05
856.168	0.04
856.456	0.05
856.744	0.04
857.032	0.04
857.32	0.04
857.607	0.05
857.895	0.04
858.183	0.05
858.47	0.05
858.757	0.04
859.045	0.05
859.332	0.05
859.619	0.06
859.907	0.06
860.194	0.04
860.481	0.07
860.768	0.05
861.054	0.04
861.341	0.04
861.628	0.06
861.915	0.06
862.201	0.05
862.488	0.07
862.774	0.06
863.061	0.05
863.347	0.06
863.633	0.06
863.919	0.03
864.205	0.05
864.491	0.06
864.777	0.07
865.063	0.03
865.349	0.06
865.635	0.06
865.92	0.08
866.206	0.06
866.492	0.05
866.777	0.1
867.062	0.08
867.348	0.04
867.633	0.06
867.918	0.08
868.203	0.03
868.488	0.05
868.773	0.09
869.058	0.08
869.343	0.06
869.628	0.05
869.912	0.04
870.197	0.07
870.482	0.06
870.766	0.07
871.05	0.04
871.335	0.06
871.619	0.06
871.903	0.05
872.187	0.04
872.471	0.07
872.755	0.05
873.039	0.02
873.323	0.07
873.607	0.09
873.89	0.04
874.174	0.05
874.458	0.11
874.741	0.02
875.024	0.06
875.308	0.02
875.591	0.06
875.874	0.12
876.157	-0.01
876.44	-0.01
876.723	-0
877.006	0.04
877.289	-0.01
877.572	0.06
877.854	0.05
878.137	-0
878.42	0.02
878.702	-0.01
878.984	0.07
879.267	0.11
879.549	0.02
879.831	-0
880.113	0.01
880.395	0.02
880.677	0.01
880.959	0.11
