Data from Rubpy_BV_1800_EDTA_Buffered_Absorbance_15-04-14-798.txt Node
Date: Wed Jul 01 15:04:14 BST 2026
User: fpm-admin
Spectrometer: OFX00224
Trigger mode: 0
Integration Time (sec): 7.000000E-2
Scans to average: 3
Nonlinearity correction enabled: false
Boxcar width: 0
Storing dark spectrum: false
XAxis mode: Wavelengths
Number of Pixels in Spectrum: 2136
>>>>>Begin Spectral Data<<<<<
154.91	-0.41
155.289	0.56
155.669	-0.91
156.048	-0
156.428	0.58
156.807	-0
157.186	-0.02
157.566	-0.11
157.945	-0.21
158.325	-0
158.704	0.73
159.083	-0.82
159.462	-0
159.842	-0.33
160.221	-1.19
160.6	-0.43
160.979	0.48
161.359	0.59
161.738	0.09
162.117	-0.3
162.496	-0.3
162.875	-0
163.254	-0
163.633	-0
164.012	-0
164.391	-0.85
164.77	0.6
165.149	-0.45
165.528	-0
165.907	-0.74
166.286	0.59
166.665	1.38
167.044	-0
167.423	-0.45
167.802	-0
168.181	-0.36
168.559	-1.26
168.938	-0.66
169.317	-0
169.696	-0
170.074	-0.08
170.453	-0
170.832	0.3
171.21	-0.1
171.589	-0
171.968	0.13
172.346	-0
172.725	-0
173.103	0.48
173.482	-0
173.861	-0
174.239	1.15
174.617	-0
174.996	0.2
175.374	-0
175.753	-0.33
176.131	-0
176.51	-0.3
176.888	-0
177.266	-0
177.645	-0.13
178.023	-0
178.401	-0.14
178.779	-0.07
179.158	-1.6
179.536	-0.63
179.914	-0.27
180.292	0.1
180.67	-0.11
181.048	-0.12
181.427	-0
181.805	-0
182.183	-1.32
182.561	-0
182.939	0.85
183.317	1.18
183.695	0.9
184.073	0.1
184.451	0.12
184.829	1.04
185.206	0.6
185.584	0.06
185.962	-0
186.34	-0
186.718	-0
187.096	-0
187.473	0.09
187.851	-0
188.229	-0
188.607	0.22
188.984	0.21
189.362	0.3
189.74	0.31
190.117	0.25
190.495	0.22
190.872	0.29
191.25	0.29
191.627	0.16
192.005	0.17
192.382	0.06
192.76	0.24
193.137	0.3
193.515	0.21
193.892	0.31
194.269	0.37
194.647	0.3
195.024	0.11
195.401	0.26
195.779	0.32
196.156	0.18
196.533	0.26
196.91	0.07
197.288	0.2
197.665	0.19
198.042	0.28
198.419	0.31
198.796	0.04
199.173	0.27
199.55	0.26
199.927	0.24
200.304	0.25
200.681	0.25
201.058	0.22
201.435	0.25
201.812	0.27
202.189	0.31
202.566	0.32
202.943	0.16
203.32	0.33
203.697	0.25
204.073	0.34
204.45	0.2
204.827	0.33
205.204	0.2
205.58	0.25
205.957	0.28
206.334	0.26
206.71	0.25
207.087	0.24
207.464	0.34
207.84	0.28
208.217	0.33
208.593	0.32
208.97	0.18
209.346	0.24
209.723	0.28
210.099	0.28
210.476	0.22
210.852	0.15
211.228	0.31
211.605	0.39
211.981	0.48
212.357	0.24
212.733	0.27
213.11	0.2
213.486	0.33
213.862	0.4
214.238	0.28
214.614	0.36
214.991	0.38
215.367	0.23
215.743	0.25
216.119	0.32
216.495	0.22
216.871	0.28
217.247	0.21
217.623	0.22
217.999	0.13
218.375	0.26
218.751	0.18
219.127	0.26
219.502	0.29
219.878	0.31
220.254	0.24
220.63	0.2
221.006	0.28
221.381	0.27
221.757	0.2
222.133	0.39
222.508	0.18
222.884	0.24
223.26	0.29
223.635	0.26
224.011	0.3
224.386	0.29
224.762	0.23
225.137	0.34
225.513	0.26
225.888	0.2
226.264	0.2
226.639	0.17
227.014	0.13
227.39	0.26
227.765	0.28
228.14	0.35
228.516	0.37
228.891	0.34
229.266	0.23
229.641	0.21
230.017	0.18
230.392	0.3
230.767	0.2
231.142	0.24
231.517	0.22
231.892	0.12
232.267	0.28
232.642	0.26
233.017	0.27
233.392	0.15
233.767	0.23
234.142	0.2
234.517	0.24
234.892	0.2
235.267	0.13
235.641	0.25
236.016	0.2
236.391	0.2
236.766	0.3
237.14	0.26
237.515	0.41
237.89	0.24
238.264	0.31
238.639	0.18
239.014	0.26
239.388	0.14
239.763	0.22
240.137	0.27
240.512	0.26
240.886	0.26
241.261	0.29
241.635	0.29
242.009	0.19
242.384	0.3
242.758	0.2
243.132	0.25
243.507	0.34
243.881	0.2
244.255	0.18
244.629	0.31
245.004	0.26
245.378	0.25
245.752	0.21
246.126	0.29
246.5	0.31
246.874	0.26
247.248	0.33
247.622	0.33
247.996	0.24
248.37	0.24
248.744	0.18
249.118	0.31
249.492	0.23
249.866	0.29
250.24	0.28
250.613	0.28
250.987	0.26
251.361	0.35
251.735	0.31
252.108	0.23
252.482	0.26
252.856	0.16
253.229	0.33
253.603	0.29
253.977	0.25
254.35	0.25
254.724	0.32
255.097	0.21
255.471	0.26
255.844	0.27
256.218	0.19
256.591	0.29
256.964	0.24
257.338	0.25
257.711	0.19
258.084	0.23
258.458	0.26
258.831	0.33
259.204	0.39
259.577	0.35
259.95	0.3
260.323	0.24
260.697	0.2
261.07	0.23
261.443	0.26
261.816	0.15
262.189	0.26
262.562	0.31
262.935	0.24
263.308	0.28
263.68	0.43
264.053	0.22
264.426	0.24
264.799	0.31
265.172	0.29
265.545	0.26
265.917	0.24
266.29	0.23
266.663	0.33
267.035	0.2
267.408	0.23
267.781	0.32
268.153	0.29
268.526	0.29
268.898	0.28
269.271	0.21
269.643	0.38
270.016	0.23
270.388	0.2
270.76	0.3
271.133	0.34
271.505	0.21
271.877	0.27
272.25	0.33
272.622	0.29
272.994	0.39
273.366	0.28
273.739	0.23
274.111	0.21
274.483	0.32
274.855	0.22
275.227	0.24
275.599	0.28
275.971	0.15
276.343	0.24
276.715	0.31
277.087	0.34
277.459	0.13
277.831	0.3
278.203	0.31
278.574	0.3
278.946	0.21
279.318	0.27
279.69	0.32
280.061	0.27
280.433	0.3
280.805	0.31
281.176	0.25
281.548	0.32
281.92	0.21
282.291	0.32
282.663	0.36
283.034	0.23
283.406	0.29
283.777	0.26
284.148	0.27
284.52	0.31
284.891	0.27
285.262	0.21
285.634	0.27
286.005	0.2
286.376	0.32
286.747	0.25
287.119	0.36
287.49	0.18
287.861	0.2
288.232	0.24
288.603	0.33
288.974	0.26
289.345	0.31
289.716	0.25
290.087	0.24
290.458	0.2
290.829	0.32
291.2	0.22
291.571	0.36
291.941	0.33
292.312	0.24
292.683	0.35
293.054	0.3
293.424	0.28
293.795	0.23
294.166	0.25
294.536	0.3
294.907	0.32
295.277	0.32
295.648	0.27
296.018	0.36
296.389	0.29
296.759	0.31
297.13	0.3
297.5	0.26
297.871	0.27
298.241	0.31
298.611	0.28
298.981	0.29
299.352	0.31
299.722	0.32
300.092	0.24
300.462	0.3
300.832	0.27
301.202	0.28
301.573	0.29
301.943	0.24
302.313	0.32
302.683	0.25
303.053	0.21
303.422	0.27
303.792	0.28
304.162	0.29
304.532	0.26
304.902	0.27
305.272	0.3
305.641	0.35
306.011	0.24
306.381	0.27
306.75	0.26
307.12	0.25
307.49	0.23
307.859	0.2
308.229	0.2
308.598	0.21
308.968	0.2
309.337	0.21
309.707	0.21
310.076	0.24
310.445	0.23
310.815	0.19
311.184	0.22
311.553	0.19
311.923	0.17
312.292	0.23
312.661	0.21
313.03	0.19
313.399	0.17
313.768	0.2
314.137	0.2
314.506	0.21
314.875	0.2
315.244	0.2
315.613	0.2
315.982	0.23
316.351	0.24
316.72	0.22
317.089	0.23
317.458	0.21
317.826	0.24
318.195	0.23
318.564	0.22
318.933	0.23
319.301	0.23
319.67	0.24
320.038	0.24
320.407	0.26
320.775	0.24
321.144	0.25
321.512	0.25
321.881	0.25
322.249	0.27
322.618	0.26
322.986	0.26
323.354	0.26
323.723	0.27
324.091	0.27
324.459	0.27
324.827	0.28
325.195	0.28
325.564	0.29
325.932	0.29
326.3	0.29
326.668	0.31
327.036	0.29
327.404	0.3
327.772	0.31
328.14	0.32
328.508	0.32
328.875	0.32
329.243	0.32
329.611	0.33
329.979	0.33
330.346	0.34
330.714	0.34
331.082	0.35
331.449	0.36
331.817	0.36
332.185	0.38
332.552	0.39
332.92	0.38
333.287	0.39
333.655	0.4
334.022	0.4
334.389	0.41
334.757	0.42
335.124	0.43
335.491	0.43
335.859	0.45
336.226	0.44
336.593	0.45
336.96	0.47
337.327	0.47
337.695	0.48
338.062	0.48
338.429	0.5
338.796	0.5
339.163	0.52
339.53	0.52
339.897	0.53
340.263	0.55
340.63	0.56
340.997	0.56
341.364	0.57
341.731	0.58
342.097	0.58
342.464	0.6
342.831	0.62
343.197	0.62
343.564	0.64
343.931	0.63
344.297	0.65
344.664	0.66
345.03	0.67
345.396	0.68
345.763	0.69
346.129	0.7
346.496	0.71
346.862	0.72
347.228	0.73
347.594	0.73
347.961	0.74
348.327	0.76
348.693	0.77
349.059	0.78
349.425	0.78
349.791	0.79
350.157	0.8
350.523	0.81
350.889	0.83
351.255	0.83
351.621	0.84
351.987	0.85
352.353	0.86
352.719	0.86
353.084	0.88
353.45	0.89
353.816	0.91
354.181	0.91
354.547	0.93
354.913	0.93
355.278	0.94
355.644	0.96
356.009	0.97
356.375	0.97
356.74	0.98
357.106	1.01
357.471	1.01
357.836	1.03
358.202	1.05
358.567	1.05
358.932	1.07
359.297	1.08
359.663	1.09
360.028	1.12
360.393	1.13
360.758	1.14
361.123	1.16
361.488	1.18
361.853	1.19
362.218	1.21
362.583	1.22
362.948	1.24
363.312	1.24
363.677	1.26
364.042	1.28
364.407	1.29
364.772	1.29
365.136	1.29
365.501	1.31
365.865	1.32
366.23	1.33
366.595	1.33
366.959	1.34
367.324	1.36
367.688	1.37
368.052	1.37
368.417	1.39
368.781	1.41
369.145	1.4
369.51	1.42
369.874	1.43
370.238	1.45
370.602	1.44
370.967	1.47
371.331	1.45
371.695	1.45
372.059	1.47
372.423	1.45
372.787	1.46
373.151	1.47
373.515	1.45
373.878	1.46
374.242	1.44
374.606	1.45
374.97	1.45
375.334	1.43
375.697	1.4
376.061	1.39
376.425	1.38
376.788	1.39
377.152	1.38
377.515	1.34
377.879	1.33
378.242	1.34
378.606	1.31
378.969	1.29
379.333	1.3
379.696	1.27
380.059	1.26
380.422	1.26
380.786	1.23
381.149	1.22
381.512	1.2
381.875	1.2
382.238	1.18
382.601	1.16
382.964	1.15
383.327	1.15
383.69	1.13
384.053	1.12
384.416	1.11
384.779	1.09
385.142	1.09
385.504	1.08
385.867	1.07
386.23	1.08
386.593	1.07
386.955	1.06
387.318	1.05
387.68	1.05
388.043	1.05
388.405	1.06
388.768	1.05
389.13	1.06
389.493	1.04
389.855	1.04
390.217	1.03
390.58	1.03
390.942	1.02
391.304	1.01
391.666	0.98
392.028	0.98
392.391	0.97
392.753	0.95
393.115	0.94
393.477	0.93
393.839	0.92
394.201	0.91
394.563	0.92
394.924	0.91
395.286	0.91
395.648	0.92
396.01	0.92
396.371	0.93
396.733	0.93
397.095	0.95
397.456	0.97
397.818	0.99
398.18	1
398.541	1.03
398.903	1.06
399.264	1.09
399.625	1.11
399.987	1.12
400.348	1.13
400.709	1.16
401.071	1.16
401.432	1.17
401.793	1.16
402.154	1.16
402.515	1.15
402.876	1.12
403.238	1.1
403.599	1.08
403.96	1.05
404.32	1
404.681	0.97
405.042	0.93
405.403	0.89
405.764	0.85
406.125	0.81
406.485	0.77
406.846	0.73
407.207	0.69
407.567	0.66
407.928	0.63
408.288	0.59
408.649	0.56
409.009	0.52
409.37	0.49
409.73	0.47
410.091	0.44
410.451	0.42
410.811	0.4
411.171	0.38
411.532	0.36
411.892	0.35
412.252	0.32
412.612	0.32
412.972	0.3
413.332	0.28
413.692	0.28
414.052	0.26
414.412	0.25
414.772	0.25
415.132	0.24
415.492	0.23
415.851	0.22
416.211	0.21
416.571	0.21
416.931	0.2
417.29	0.19
417.65	0.19
418.009	0.19
418.369	0.18
418.728	0.18
419.088	0.17
419.447	0.17
419.807	0.16
420.166	0.16
420.525	0.16
420.884	0.15
421.244	0.15
421.603	0.15
421.962	0.14
422.321	0.15
422.68	0.14
423.039	0.14
423.398	0.14
423.757	0.14
424.116	0.14
424.475	0.13
424.834	0.14
425.193	0.13
425.551	0.13
425.91	0.13
426.269	0.13
426.628	0.12
426.986	0.12
427.345	0.12
427.703	0.12
428.062	0.12
428.42	0.12
428.779	0.13
429.137	0.12
429.496	0.12
429.854	0.11
430.212	0.12
430.57	0.12
430.929	0.11
431.287	0.11
431.645	0.11
432.003	0.11
432.361	0.12
432.719	0.11
433.077	0.11
433.435	0.11
433.793	0.12
434.151	0.1
434.509	0.11
434.866	0.1
435.224	0.11
435.582	0.11
435.94	0.11
436.297	0.11
436.655	0.11
437.012	0.11
437.37	0.11
437.727	0.1
438.085	0.1
438.442	0.11
438.8	0.1
439.157	0.1
439.514	0.1
439.872	0.11
440.229	0.11
440.586	0.11
440.943	0.1
441.3	0.1
441.657	0.11
442.014	0.1
442.371	0.1
442.728	0.1
443.085	0.11
443.442	0.1
443.799	0.11
444.156	0.11
444.513	0.11
444.869	0.1
445.226	0.11
445.583	0.11
445.939	0.11
446.296	0.1
446.652	0.11
447.009	0.1
447.365	0.11
447.722	0.11
448.078	0.1
448.434	0.11
448.791	0.11
449.147	0.11
449.503	0.11
449.859	0.1
450.215	0.11
450.571	0.11
450.928	0.11
451.284	0.12
451.64	0.11
451.995	0.1
452.351	0.11
452.707	0.1
453.063	0.1
453.419	0.1
453.775	0.1
454.13	0.09
454.486	0.1
454.842	0.1
455.197	0.09
455.553	0.09
455.908	0.09
456.264	0.09
456.619	0.09
456.975	0.09
457.33	0.1
457.685	0.09
458.04	0.09
458.396	0.08
458.751	0.09
459.106	0.07
459.461	0.08
459.816	0.07
460.171	0.08
460.526	0.08
460.881	0.06
461.236	0.05
461.591	0.07
461.946	0.06
462.301	0.06
462.655	0.05
463.01	0.06
463.365	0.05
463.719	0.04
464.074	0.04
464.428	0.03
464.783	0.03
465.137	0.03
465.492	0.04
465.846	0.03
466.201	0.03
466.555	0.04
466.909	0.03
467.263	0.05
467.618	0.04
467.972	0.05
468.326	0.05
468.68	0.04
469.034	0.04
469.388	0.03
469.742	0.04
470.096	0.04
470.45	0.05
470.804	0.05
471.157	0.05
471.511	0.05
471.865	0.05
472.218	0.05
472.572	0.06
472.926	0.07
473.279	0.07
473.633	0.08
473.986	0.09
474.34	0.09
474.693	0.09
475.046	0.1
475.4	0.12
475.753	0.12
476.106	0.13
476.459	0.13
476.812	0.14
477.165	0.15
477.519	0.16
477.872	0.17
478.224	0.17
478.577	0.18
478.93	0.18
479.283	0.18
479.636	0.19
479.989	0.2
480.341	0.2
480.694	0.21
481.047	0.21
481.399	0.22
481.752	0.22
482.104	0.23
482.457	0.23
482.809	0.24
483.162	0.25
483.514	0.24
483.866	0.25
484.219	0.25
484.571	0.26
484.923	0.26
485.275	0.26
485.627	0.27
485.979	0.27
486.331	0.28
486.683	0.28
487.035	0.29
487.387	0.29
487.739	0.3
488.091	0.3
488.443	0.31
488.794	0.31
489.146	0.31
489.498	0.31
489.849	0.32
490.201	0.32
490.552	0.32
490.904	0.32
491.255	0.33
491.607	0.33
491.958	0.33
492.309	0.33
492.661	0.34
493.012	0.35
493.363	0.35
493.714	0.35
494.065	0.35
494.416	0.36
494.767	0.36
495.118	0.37
495.469	0.37
495.82	0.37
496.171	0.38
496.522	0.37
496.872	0.38
497.223	0.38
497.574	0.38
497.924	0.39
498.275	0.39
498.626	0.4
498.976	0.4
499.327	0.4
499.677	0.4
500.027	0.41
500.378	0.41
500.728	0.41
501.078	0.41
501.428	0.42
501.779	0.42
502.129	0.43
502.479	0.43
502.829	0.44
503.179	0.44
503.529	0.44
503.879	0.44
504.229	0.45
504.578	0.45
504.928	0.45
505.278	0.46
505.628	0.46
505.977	0.46
506.327	0.47
506.676	0.47
507.026	0.48
507.375	0.47
507.725	0.47
508.074	0.48
508.424	0.48
508.773	0.49
509.122	0.48
509.471	0.49
509.82	0.49
510.17	0.5
510.519	0.5
510.868	0.5
511.217	0.5
511.566	0.51
511.915	0.51
512.263	0.52
512.612	0.52
512.961	0.52
513.31	0.52
513.659	0.52
514.007	0.53
514.356	0.53
514.704	0.53
515.053	0.53
515.401	0.54
515.75	0.54
516.098	0.54
516.447	0.54
516.795	0.55
517.143	0.55
517.491	0.55
517.839	0.56
518.188	0.56
518.536	0.55
518.884	0.56
519.232	0.56
519.58	0.57
519.928	0.56
520.275	0.57
520.623	0.57
520.971	0.57
521.319	0.57
521.666	0.58
522.014	0.58
522.362	0.58
522.709	0.58
523.057	0.58
523.404	0.59
523.752	0.59
524.099	0.59
524.446	0.59
524.794	0.6
525.141	0.6
525.488	0.6
525.835	0.6
526.182	0.6
526.529	0.6
526.876	0.6
527.223	0.61
527.57	0.61
527.917	0.62
528.264	0.62
528.611	0.61
528.958	0.62
529.304	0.63
529.651	0.62
529.998	0.62
530.344	0.63
530.691	0.63
531.037	0.63
531.384	0.63
531.73	0.63
532.076	0.64
532.423	0.63
532.769	0.63
533.115	0.63
533.461	0.64
533.807	0.64
534.154	0.64
534.5	0.64
534.846	0.65
535.192	0.65
535.537	0.64
535.883	0.65
536.229	0.65
536.575	0.65
536.921	0.65
537.266	0.66
537.612	0.66
537.957	0.65
538.303	0.65
538.649	0.66
538.994	0.65
539.339	0.67
539.685	0.67
540.03	0.67
540.375	0.66
540.721	0.66
541.066	0.67
541.411	0.67
541.756	0.66
542.101	0.67
542.446	0.67
542.791	0.67
543.136	0.67
543.481	0.67
543.825	0.67
544.17	0.67
544.515	0.68
544.86	0.68
545.204	0.68
545.549	0.68
545.893	0.68
546.238	0.68
546.582	0.68
546.927	0.68
547.271	0.68
547.615	0.68
547.96	0.68
548.304	0.68
548.648	0.68
548.992	0.68
549.336	0.69
549.68	0.69
550.024	0.69
550.368	0.69
550.712	0.69
551.056	0.69
551.4	0.69
551.743	0.69
552.087	0.68
552.431	0.69
552.774	0.69
553.118	0.69
553.462	0.69
553.805	0.69
554.148	0.69
554.492	0.69
554.835	0.68
555.178	0.69
555.522	0.69
555.865	0.69
556.208	0.69
556.551	0.68
556.894	0.69
557.237	0.69
557.58	0.69
557.923	0.69
558.266	0.68
558.609	0.68
558.952	0.69
559.294	0.69
559.637	0.68
559.98	0.69
560.322	0.69
560.665	0.68
561.007	0.68
561.35	0.68
561.692	0.68
562.034	0.68
562.377	0.68
562.719	0.68
563.061	0.68
563.403	0.68
563.745	0.68
564.088	0.68
564.43	0.67
564.772	0.67
565.113	0.68
565.455	0.68
565.797	0.67
566.139	0.67
566.481	0.67
566.822	0.68
567.164	0.67
567.506	0.67
567.847	0.67
568.189	0.67
568.53	0.67
568.872	0.67
569.213	0.66
569.554	0.66
569.895	0.67
570.237	0.65
570.578	0.66
570.919	0.66
571.26	0.66
571.601	0.65
571.942	0.65
572.283	0.65
572.624	0.65
572.965	0.65
573.306	0.65
573.646	0.64
573.987	0.65
574.328	0.64
574.668	0.64
575.009	0.64
575.349	0.63
575.69	0.63
576.03	0.64
576.37	0.63
576.711	0.62
577.051	0.63
577.391	0.63
577.731	0.63
578.072	0.63
578.412	0.62
578.752	0.63
579.092	0.62
579.431	0.61
579.771	0.59
580.111	0.59
580.451	0.6
580.791	0.62
581.13	0.62
581.47	0.61
581.81	0.61
582.149	0.61
582.489	0.61
582.828	0.6
583.167	0.57
583.507	0.53
583.846	0.53
584.185	0.57
584.525	0.6
584.864	0.6
585.203	0.61
585.542	0.61
585.881	0.61
586.22	0.6
586.559	0.6
586.898	0.58
587.236	0.58
587.575	0.59
587.914	0.59
588.252	0.6
588.591	0.6
588.93	0.6
589.268	0.59
589.607	0.6
589.945	0.6
590.283	0.6
590.622	0.6
590.96	0.6
591.298	0.61
591.636	0.61
591.974	0.6
592.313	0.61
592.651	0.6
592.989	0.61
593.326	0.61
593.664	0.61
594.002	0.6
594.34	0.6
594.678	0.59
595.015	0.59
595.353	0.59
595.691	0.6
596.028	0.6
596.366	0.6
596.703	0.6
597.04	0.6
597.378	0.6
597.715	0.6
598.052	0.6
598.389	0.6
598.726	0.6
599.064	0.6
599.401	0.6
599.738	0.61
600.074	0.6
600.411	0.6
600.748	0.59
601.085	0.59
601.422	0.59
601.758	0.59
602.095	0.59
602.432	0.59
602.768	0.59
603.105	0.59
603.441	0.59
603.777	0.6
604.114	0.59
604.45	0.6
604.786	0.59
605.122	0.59
605.459	0.58
605.795	0.58
606.131	0.58
606.467	0.58
606.803	0.58
607.139	0.58
607.474	0.58
607.81	0.58
608.146	0.58
608.482	0.58
608.817	0.57
609.153	0.57
609.488	0.56
609.824	0.57
610.159	0.57
610.495	0.57
610.83	0.57
611.165	0.57
611.5	0.56
611.836	0.55
612.171	0.56
612.506	0.56
612.841	0.55
613.176	0.55
613.511	0.55
613.845	0.55
614.18	0.54
614.515	0.55
614.85	0.54
615.184	0.54
615.519	0.54
615.854	0.54
616.188	0.53
616.523	0.53
616.857	0.53
617.191	0.53
617.526	0.53
617.86	0.53
618.194	0.53
618.528	0.53
618.862	0.53
619.196	0.53
619.53	0.53
619.864	0.52
620.198	0.52
620.532	0.52
620.866	0.52
621.2	0.52
621.533	0.51
621.867	0.51
622.201	0.51
622.534	0.51
622.868	0.51
623.201	0.5
623.534	0.5
623.868	0.5
624.201	0.49
624.534	0.49
624.868	0.49
625.201	0.49
625.534	0.49
625.867	0.48
626.2	0.48
626.533	0.48
626.865	0.48
627.198	0.48
627.531	0.47
627.864	0.47
628.196	0.47
628.529	0.47
628.862	0.46
629.194	0.46
629.527	0.46
629.859	0.46
630.191	0.46
630.524	0.45
630.856	0.45
631.188	0.45
631.52	0.44
631.852	0.44
632.184	0.44
632.516	0.43
632.848	0.43
633.18	0.43
633.512	0.43
633.844	0.42
634.175	0.43
634.507	0.42
634.839	0.41
635.17	0.42
635.502	0.41
635.833	0.41
636.165	0.41
636.496	0.4
636.827	0.4
637.159	0.4
637.49	0.4
637.821	0.39
638.152	0.39
638.483	0.39
638.814	0.39
639.145	0.39
639.476	0.38
639.807	0.38
640.137	0.37
640.468	0.37
640.799	0.37
641.129	0.37
641.46	0.36
641.791	0.36
642.121	0.36
642.451	0.36
642.782	0.36
643.112	0.36
643.442	0.35
643.773	0.35
644.103	0.35
644.433	0.35
644.763	0.35
645.093	0.35
645.423	0.35
645.753	0.34
646.082	0.34
646.412	0.34
646.742	0.34
647.072	0.34
647.401	0.34
647.731	0.33
648.06	0.33
648.39	0.33
648.719	0.33
649.048	0.33
649.378	0.33
649.707	0.32
650.036	0.32
650.365	0.32
650.694	0.32
651.023	0.32
651.352	0.31
651.681	0.31
652.01	0.31
652.339	0.31
652.668	0.31
652.996	0.31
653.325	0.31
653.654	0.31
653.982	0.31
654.311	0.31
654.639	0.3
654.967	0.31
655.296	0.31
655.624	0.3
655.952	0.3
656.28	0.3
656.609	0.3
656.937	0.3
657.265	0.29
657.593	0.13
657.92	0.05
658.248	0.02
658.576	0.08
658.904	0.2
659.231	0.28
659.559	0.29
659.887	0.29
660.214	0.29
660.542	0.29
660.869	0.29
661.196	0.28
661.524	0.29
661.851	0.28
662.178	0.28
662.505	0.29
662.832	0.28
663.159	0.28
663.486	0.28
663.813	0.28
664.14	0.27
664.467	0.27
664.794	0.27
665.12	0.27
665.447	0.27
665.774	0.27
666.1	0.27
666.427	0.27
666.753	0.26
667.079	0.26
667.406	0.26
667.732	0.26
668.058	0.26
668.384	0.26
668.71	0.25
669.036	0.25
669.362	0.25
669.688	0.25
670.014	0.25
670.34	0.25
670.666	0.25
670.991	0.24
671.317	0.24
671.643	0.24
671.968	0.24
672.294	0.24
672.619	0.24
672.945	0.24
673.27	0.23
673.595	0.23
673.92	0.23
674.246	0.23
674.571	0.23
674.896	0.23
675.221	0.22
675.546	0.22
675.87	0.22
676.195	0.22
676.52	0.22
676.845	0.22
677.169	0.21
677.494	0.21
677.819	0.21
678.143	0.21
678.468	0.2
678.792	0.2
679.116	0.2
679.44	0.2
679.765	0.2
680.089	0.19
680.413	0.19
680.737	0.19
681.061	0.19
681.385	0.19
681.709	0.18
682.033	0.19
682.356	0.18
682.68	0.18
683.004	0.18
683.327	0.18
683.651	0.17
683.974	0.17
684.298	0.17
684.621	0.17
684.944	0.17
685.268	0.16
685.591	0.16
685.914	0.16
686.237	0.16
686.56	0.15
686.883	0.15
687.206	0.15
687.529	0.15
687.852	0.15
688.175	0.15
688.497	0.15
688.82	0.15
689.142	0.15
689.465	0.14
689.787	0.14
690.11	0.14
690.432	0.14
690.755	0.14
691.077	0.14
691.399	0.13
691.721	0.13
692.043	0.13
692.365	0.13
692.687	0.12
693.009	0.12
693.331	0.12
693.653	0.12
693.974	0.12
694.296	0.12
694.618	0.12
694.939	0.12
695.261	0.11
695.582	0.11
695.904	0.11
696.225	0.11
696.546	0.11
696.868	0.11
697.189	0.11
697.51	0.1
697.831	0.11
698.152	0.11
698.473	0.1
698.794	0.09
699.114	0.09
699.435	0.08
699.756	0.09
700.077	0.09
700.397	0.09
700.718	0.09
701.038	0.09
701.359	0.1
701.679	0.09
701.999	0.09
702.32	0.09
702.64	0.09
702.96	0.09
703.28	0.09
703.6	0.09
703.92	0.09
704.24	0.08
704.56	0.08
704.879	0.08
705.199	0.08
705.519	0.09
705.838	0.08
706.158	0.09
706.478	0.09
706.797	0.09
707.116	0.09
707.436	0.09
707.755	0.08
708.074	0.08
708.393	0.08
708.712	0.07
709.031	0.06
709.35	0.06
709.669	0.07
709.988	0.07
710.307	0.07
710.626	0.07
710.944	0.08
711.263	0.08
711.582	0.08
711.9	0.08
712.219	0.08
712.537	0.08
712.855	0.07
713.174	0.08
713.492	0.07
713.81	0.08
714.128	0.07
714.446	0.08
714.764	0.07
715.082	0.07
715.4	0.07
715.718	0.07
716.035	0.07
716.353	0.08
716.671	0.08
716.988	0.08
717.306	0.07
717.623	0.08
717.941	0.08
718.258	0.08
718.575	0.08
718.893	0.08
719.21	0.08
719.527	0.08
719.844	0.08
720.161	0.08
720.478	0.08
720.795	0.08
721.112	0.08
721.428	0.08
721.745	0.08
722.062	0.08
722.378	0.09
722.695	0.09
723.011	0.09
723.328	0.09
723.644	0.09
723.96	0.09
724.276	0.09
724.593	0.09
724.909	0.09
725.225	0.09
725.541	0.09
725.857	0.09
726.173	0.09
726.488	0.09
726.804	0.09
727.12	0.08
727.435	0.08
727.751	0.08
728.067	0.08
728.382	0.09
728.697	0.09
729.013	0.09
729.328	0.08
729.643	0.08
729.958	0.08
730.273	0.08
730.588	0.08
730.903	0.08
731.218	0.08
731.533	0.08
731.848	0.08
732.163	0.08
732.477	0.08
732.792	0.08
733.107	0.07
733.421	0.08
733.736	0.08
734.05	0.08
734.364	0.07
734.678	0.08
734.993	0.08
735.307	0.08
735.621	0.07
735.935	0.08
736.249	0.07
736.563	0.08
736.877	0.08
737.19	0.08
737.504	0.08
737.818	0.08
738.131	0.08
738.445	0.08
738.758	0.08
739.072	0.08
739.385	0.08
739.698	0.08
740.012	0.08
740.325	0.08
740.638	0.08
740.951	0.08
741.264	0.07
741.577	0.08
741.89	0.08
742.203	0.08
742.515	0.08
742.828	0.07
743.141	0.07
743.453	0.07
743.766	0.08
744.078	0.07
744.391	0.07
744.703	0.07
745.015	0.07
745.327	0.07
745.639	0.07
745.952	0.07
746.264	0.07
746.575	0.07
746.887	0.07
747.199	0.07
747.511	0.07
747.823	0.07
748.134	0.06
748.446	0.06
748.757	0.06
749.069	0.06
749.38	0.06
749.692	0.06
750.003	0.05
750.314	0.05
750.625	0.05
750.936	0.05
751.248	0.05
751.559	0.05
751.869	0.05
752.18	0.05
752.491	0.05
752.802	0.05
753.112	0.05
753.423	0.04
753.734	0.04
754.044	0.04
754.355	0.04
754.665	0.04
754.975	0.04
755.285	0.04
755.596	0.04
755.906	0.04
756.216	0.04
756.526	0.04
756.836	0.04
757.146	0.04
757.455	0.04
757.765	0.04
758.075	0.04
758.385	0.04
758.694	0.04
759.004	0.04
759.313	0.03
759.622	0.04
759.932	0.04
760.241	0.04
760.55	0.04
760.859	0.04
761.168	0.04
761.477	0.04
761.786	0.04
762.095	0.04
762.404	0.04
762.713	0.04
763.021	0.04
763.33	0.04
763.639	0.04
763.947	0.04
764.256	0.04
764.564	0.04
764.872	0.04
765.181	0.04
765.489	0.04
765.797	0.03
766.105	0.03
766.413	0.03
766.721	0.03
767.029	0.04
767.337	0.03
767.644	0.04
767.952	0.04
768.26	0.04
768.567	0.04
768.875	0.04
769.182	0.04
769.49	0.04
769.797	0.04
770.104	0.04
770.411	0.04
770.718	0.04
771.026	0.04
771.333	0.04
771.639	0.03
771.946	0.03
772.253	0.03
772.56	0.03
772.867	0.04
773.173	0.04
773.48	0.04
773.786	0.04
774.093	0.04
774.399	0.04
774.705	0.04
775.012	0.04
775.318	0.03
775.624	0.04
775.93	0.04
776.236	0.04
776.542	0.04
776.848	0.05
777.154	0.04
777.459	0.04
777.765	0.04
778.071	0.04
778.376	0.04
778.682	0.04
778.987	0.04
779.292	0.04
779.598	0.04
779.903	0.04
780.208	0.03
780.513	0.03
780.818	0.04
781.123	0.04
781.428	0.04
781.733	0.04
782.038	0.03
782.343	0.03
782.647	0.03
782.952	0.03
783.256	0.03
783.561	0.03
783.865	0.03
784.17	0.03
784.474	0.03
784.778	0.03
785.082	0.03
785.386	0.03
785.69	0.03
785.994	0.03
786.298	0.03
786.602	0.04
786.906	0.04
787.209	0.04
787.513	0.04
787.817	0.04
788.12	0.04
788.424	0.04
788.727	0.04
789.03	0.04
789.333	0.04
789.637	0.04
789.94	0.04
790.243	0.04
790.546	0.04
790.849	0.05
791.152	0.05
791.454	0.05
791.757	0.04
792.06	0.05
792.362	0.05
792.665	0.04
792.967	0.04
793.27	0.04
793.572	0.04
793.874	0.05
794.177	0.05
794.479	0.05
794.781	0.05
795.083	0.05
795.385	0.05
795.687	0.05
795.989	0.05
796.29	0.05
796.592	0.05
796.894	0.05
797.195	0.05
797.497	0.04
797.798	0.05
798.1	0.05
798.401	0.05
798.702	0.05
799.003	0.05
799.304	0.05
799.605	0.05
799.906	0.05
800.207	0.04
800.508	0.04
800.809	0.05
801.11	0.05
801.41	0.05
801.711	0.05
802.011	0.05
802.312	0.05
802.612	0.05
802.913	0.05
803.213	0.05
803.513	0.05
803.813	0.05
804.113	0.05
804.413	0.05
804.713	0.05
805.013	0.06
805.313	0.06
805.613	0.05
805.912	0.05
806.212	0.06
806.511	0.05
806.811	0.05
807.11	0.05
807.41	0.05
807.709	0.05
808.008	0.06
808.307	0.06
808.606	0.06
808.905	0.06
809.204	0.06
809.503	0.05
809.802	0.06
810.101	0.05
810.399	0.06
810.698	0.06
810.997	0.06
811.295	0.06
811.593	0.06
811.892	0.06
812.19	0.06
812.488	0.06
812.786	0.06
813.084	0.06
813.383	0.06
813.68	0.06
813.978	0.06
814.276	0.06
814.574	0.06
814.872	0.06
815.169	0.06
815.467	0.06
815.764	0.06
816.062	0.06
816.359	0.05
816.656	0.05
816.954	0.06
817.251	0.06
817.548	0.06
817.845	0.06
818.142	0.06
818.439	0.07
818.735	0.07
819.032	0.07
819.329	0.07
819.626	0.07
819.922	0.07
820.219	0.07
820.515	0.07
820.811	0.08
821.108	0.07
821.404	0.07
821.7	0.07
821.996	0.07
822.292	0.07
822.588	0.07
822.884	0.08
823.18	0.08
823.475	0.09
823.771	0.09
824.067	0.08
824.362	0.08
824.658	0.08
824.953	0.08
825.249	0.07
825.544	0.08
825.839	0.08
826.134	0.07
826.429	0.08
826.724	0.08
827.019	0.08
827.314	0.08
827.609	0.08
827.904	0.08
828.198	0.08
828.493	0.08
828.787	0.08
829.082	0.08
829.376	0.09
829.671	0.09
829.965	0.08
830.259	0.09
830.553	0.09
830.847	0.09
831.141	0.08
831.435	0.09
831.729	0.09
832.023	0.09
832.317	0.09
832.61	0.09
832.904	0.09
833.197	0.09
833.491	0.09
833.784	0.1
834.077	0.1
834.371	0.09
834.664	0.1
834.957	0.1
835.25	0.09
835.543	0.1
835.836	0.1
836.129	0.1
836.421	0.1
836.714	0.1
837.007	0.09
837.299	0.1
837.592	0.09
837.884	0.1
838.177	0.09
838.469	0.1
838.761	0.1
839.053	0.1
839.345	0.1
839.637	0.1
839.929	0.1
840.221	0.1
840.513	0.1
840.805	0.11
841.096	0.1
841.388	0.11
841.68	0.1
841.971	0.1
842.262	0.1
842.554	0.1
842.845	0.1
843.136	0.1
843.427	0.11
843.718	0.1
844.009	0.1
844.3	0.1
844.591	0.1
844.882	0.11
845.173	0.11
845.463	0.1
845.754	0.11
846.044	0.11
846.335	0.11
846.625	0.11
846.915	0.11
847.206	0.1
847.496	0.11
847.786	0.11
848.076	0.1
848.366	0.11
848.656	0.1
848.945	0.11
849.235	0.09
849.525	0.1
849.814	0.1
850.104	0.1
850.393	0.11
850.683	0.11
850.972	0.11
851.261	0.11
851.551	0.12
851.84	0.13
852.129	0.12
852.418	0.11
852.707	0.12
852.995	0.11
853.284	0.12
853.573	0.11
853.862	0.09
854.15	0.11
854.439	0.11
854.727	0.11
855.015	0.11
855.304	0.11
855.592	0.11
855.88	0.11
856.168	0.11
856.456	0.1
856.744	0.11
857.032	0.11
857.32	0.1
857.607	0.1
857.895	0.11
858.183	0.11
858.47	0.12
858.757	0.11
859.045	0.11
859.332	0.11
859.619	0.13
859.907	0.11
860.194	0.1
860.481	0.13
860.768	0.12
861.054	0.11
861.341	0.12
861.628	0.14
861.915	0.11
862.201	0.12
862.488	0.12
862.774	0.11
863.061	0.15
863.347	0.11
863.633	0.13
863.919	0.12
864.205	0.11
864.491	0.13
864.777	0.14
865.063	0.12
865.349	0.14
865.635	0.11
865.92	0.13
866.206	0.12
866.492	0.11
866.777	0.13
867.062	0.14
867.348	0.13
867.633	0.11
867.918	0.12
868.203	0.12
868.488	0.14
868.773	0.17
869.058	0.12
869.343	0.12
869.628	0.13
869.912	0.16
870.197	0.11
870.482	0.1
870.766	0.12
871.05	0.13
871.335	0.16
871.619	0.11
871.903	0.09
872.187	0.07
872.471	0.19
872.755	0.17
873.039	0.11
873.323	0.14
873.607	0.14
873.89	0.08
874.174	0.14
874.458	0.2
874.741	0.11
875.024	0.09
875.308	0.09
875.591	0.12
875.874	0.13
876.157	0.04
876.44	0.03
876.723	0.13
877.006	0.14
877.289	0.09
877.572	0.07
877.854	0.14
878.137	0.08
878.42	0.05
878.702	0.09
878.984	0.17
879.267	0.24
879.549	0.17
879.831	0.09
880.113	0.23
880.395	0.14
880.677	0.08
880.959	0.08
