Data from Rubpy_BV_1800_EDTA_Buffered_Absorbance_14-54-04-827.txt Node
Date: Wed Jul 01 14:54:04 BST 2026
User: fpm-admin
Spectrometer: OFX00224
Trigger mode: 0
Integration Time (sec): 7.000000E-2
Scans to average: 3
Nonlinearity correction enabled: false
Boxcar width: 0
Storing dark spectrum: false
XAxis mode: Wavelengths
Number of Pixels in Spectrum: 2136
>>>>>Begin Spectral Data<<<<<
154.91	-0.2
155.289	0.22
155.669	-0.2
156.048	-0.3
156.428	0.2
156.807	-0
157.186	-0
157.566	-0.52
157.945	-0.4
158.325	-0
158.704	-0
159.083	0.1
159.462	-0
159.842	-0
160.221	-0
160.6	0.26
160.979	0.33
161.359	0.65
161.738	0.11
162.117	0.13
162.496	-0.48
162.875	-0
163.254	0.08
163.633	-0
164.012	1.3
164.391	-0.63
164.77	0.6
165.149	-0.48
165.528	-0
165.907	-0.48
166.286	0.16
166.665	0.18
167.044	0.43
167.423	0.39
167.802	0.78
168.181	0.22
168.559	-0
168.938	-0.44
169.317	-0
169.696	-0
170.074	-0.1
170.453	0.28
170.832	-0.05
171.21	-0
171.589	0.48
171.968	0.28
172.346	-0
172.725	-0
173.103	0.26
173.482	-0
173.861	-0
174.239	0.28
174.617	-0.38
174.996	0.43
175.374	-0.55
175.753	-0.22
176.131	-0
176.51	-0.04
176.888	-0
177.266	-0
177.645	-0.16
178.023	0.37
178.401	-0.04
178.779	-0.42
179.158	-1.28
179.536	-0.64
179.914	1.18
180.292	-0.1
180.67	-0.34
181.048	-0.5
181.427	-0
181.805	-0.88
182.183	-1.45
182.561	-0.09
182.939	-0.39
183.317	-0
183.695	0.43
184.073	1.4
184.451	-0
184.829	-0.21
185.206	-0.05
185.584	0.3
185.962	-0
186.34	0.39
186.718	-0.23
187.096	-0.7
187.473	-0.1
187.851	-0
188.229	-0
188.607	0.19
188.984	0.11
189.362	0.27
189.74	0.15
190.117	0.11
190.495	0.11
190.872	0.15
191.25	0.2
191.627	0.12
192.005	0.17
192.382	0.03
192.76	0.18
193.137	0.24
193.515	0.2
193.892	0.44
194.269	0.16
194.647	0.18
195.024	0.21
195.401	0.14
195.779	0.14
196.156	0.14
196.533	0.15
196.91	0.08
197.288	0.09
197.665	0.18
198.042	0.33
198.419	0.13
198.796	0.09
199.173	0.23
199.55	0.15
199.927	0.16
200.304	0.22
200.681	0.24
201.058	0.12
201.435	0.24
201.812	0.1
202.189	0.21
202.566	0.21
202.943	0.15
203.32	0.21
203.697	0.23
204.073	0.13
204.45	0.16
204.827	0.15
205.204	0.18
205.58	0.18
205.957	0.17
206.334	0.24
206.71	0.19
207.087	0.15
207.464	0.14
207.84	0.22
208.217	0.21
208.593	0.21
208.97	0.19
209.346	0.19
209.723	0.19
210.099	0.21
210.476	0.21
210.852	0.14
211.228	0.18
211.605	0.23
211.981	0.23
212.357	0.2
212.733	0.22
213.11	0.12
213.486	0.12
213.862	0.22
214.238	0.12
214.614	0.2
214.991	0.2
215.367	0.23
215.743	0.11
216.119	0.13
216.495	0.15
216.871	0.2
217.247	0.1
217.623	0.24
217.999	0.12
218.375	0.17
218.751	0.07
219.127	0.24
219.502	0.33
219.878	0.23
220.254	0.19
220.63	0.12
221.006	0.2
221.381	0.16
221.757	0.14
222.133	0.14
222.508	0.09
222.884	0.15
223.26	0.14
223.635	0.12
224.011	0.21
224.386	0.16
224.762	0.22
225.137	0.19
225.513	0.13
225.888	0.11
226.264	0.15
226.639	0.29
227.014	0.12
227.39	0.24
227.765	0.1
228.14	0.22
228.516	0.3
228.891	0.2
229.266	0.14
229.641	0.15
230.017	0.12
230.392	0.21
230.767	0.12
231.142	0.09
231.517	0.15
231.892	0.23
232.267	0.17
232.642	0.24
233.017	0.15
233.392	0.09
233.767	0.16
234.142	0.15
234.517	0.21
234.892	0.23
235.267	0.1
235.641	0.15
236.016	0.13
236.391	0.25
236.766	0.2
237.14	0.14
237.515	0.27
237.89	0.13
238.264	0.15
238.639	0.06
239.014	0.25
239.388	0.13
239.763	0.12
240.137	0.23
240.512	0.08
240.886	0.21
241.261	0.14
241.635	0.17
242.009	0.16
242.384	0.24
242.758	0.17
243.132	0.18
243.507	0.16
243.881	0.14
244.255	0.2
244.629	0.26
245.004	0.2
245.378	0.27
245.752	0.11
246.126	0.16
246.5	0.17
246.874	0.28
247.248	0.15
247.622	0.16
247.996	0.15
248.37	0.21
248.744	0.19
249.118	0.13
249.492	0.08
249.866	0.19
250.24	0.25
250.613	0.15
250.987	0.13
251.361	0.36
251.735	0.17
252.108	0.18
252.482	0.2
252.856	0.29
253.229	0.25
253.603	0.12
253.977	0.21
254.35	0.14
254.724	0.15
255.097	0.12
255.471	0.27
255.844	0.2
256.218	0.18
256.591	0.21
256.964	0.21
257.338	0.15
257.711	0.11
258.084	0.14
258.458	0.21
258.831	0.21
259.204	0.23
259.577	0.18
259.95	0.17
260.323	0.21
260.697	0.15
261.07	0.16
261.443	0.17
261.816	0.1
262.189	0.16
262.562	0.26
262.935	0.29
263.308	0.14
263.68	0.21
264.053	0.16
264.426	0.17
264.799	0.22
265.172	0.15
265.545	0.17
265.917	0.22
266.29	0.2
266.663	0.24
267.035	0.11
267.408	0.3
267.781	0.25
268.153	0.19
268.526	0.19
268.898	0.16
269.271	0.18
269.643	0.25
270.016	0.13
270.388	0.2
270.76	0.17
271.133	0.26
271.505	0.17
271.877	0.23
272.25	0.2
272.622	0.22
272.994	0.31
273.366	0.21
273.739	0.12
274.111	0.17
274.483	0.13
274.855	0.22
275.227	0.15
275.599	0.1
275.971	0.2
276.343	0.13
276.715	0.18
277.087	0.22
277.459	0.17
277.831	0.14
278.203	0.17
278.574	0.16
278.946	0.21
279.318	0.14
279.69	0.18
280.061	0.14
280.433	0.16
280.805	0.14
281.176	0.15
281.548	0.19
281.92	0.16
282.291	0.18
282.663	0.12
283.034	0.15
283.406	0.18
283.777	0.22
284.148	0.2
284.52	0.18
284.891	0.17
285.262	0.21
285.634	0.19
286.005	0.17
286.376	0.17
286.747	0.27
287.119	0.19
287.49	0.16
287.861	0.18
288.232	0.14
288.603	0.21
288.974	0.2
289.345	0.15
289.716	0.12
290.087	0.18
290.458	0.1
290.829	0.11
291.2	0.14
291.571	0.18
291.941	0.3
292.312	0.2
292.683	0.2
293.054	0.18
293.424	0.25
293.795	0.19
294.166	0.29
294.536	0.17
294.907	0.18
295.277	0.16
295.648	0.2
296.018	0.15
296.389	0.17
296.759	0.14
297.13	0.16
297.5	0.2
297.871	0.18
298.241	0.24
298.611	0.3
298.981	0.21
299.352	0.15
299.722	0.21
300.092	0.2
300.462	0.16
300.832	0.21
301.202	0.24
301.573	0.18
301.943	0.17
302.313	0.19
302.683	0.18
303.053	0.18
303.422	0.21
303.792	0.11
304.162	0.18
304.532	0.17
304.902	0.16
305.272	0.19
305.641	0.21
306.011	0.19
306.381	0.19
306.75	0.15
307.12	0.19
307.49	0.17
307.859	0.21
308.229	0.12
308.598	0.17
308.968	0.17
309.337	0.14
309.707	0.15
310.076	0.13
310.445	0.15
310.815	0.16
311.184	0.13
311.553	0.1
311.923	0.12
312.292	0.12
312.661	0.15
313.03	0.14
313.399	0.11
313.768	0.12
314.137	0.14
314.506	0.12
314.875	0.12
315.244	0.12
315.613	0.13
315.982	0.14
316.351	0.14
316.72	0.15
317.089	0.14
317.458	0.14
317.826	0.15
318.195	0.14
318.564	0.14
318.933	0.14
319.301	0.15
319.67	0.14
320.038	0.15
320.407	0.15
320.775	0.14
321.144	0.16
321.512	0.16
321.881	0.16
322.249	0.17
322.618	0.15
322.986	0.15
323.354	0.17
323.723	0.16
324.091	0.16
324.459	0.17
324.827	0.17
325.195	0.18
325.564	0.17
325.932	0.17
326.3	0.19
326.668	0.18
327.036	0.18
327.404	0.17
327.772	0.19
328.14	0.19
328.508	0.2
328.875	0.19
329.243	0.2
329.611	0.2
329.979	0.19
330.346	0.2
330.714	0.21
331.082	0.21
331.449	0.22
331.817	0.21
332.185	0.22
332.552	0.23
332.92	0.22
333.287	0.23
333.655	0.24
334.022	0.24
334.389	0.24
334.757	0.25
335.124	0.26
335.491	0.26
335.859	0.27
336.226	0.26
336.593	0.27
336.96	0.28
337.327	0.28
337.695	0.28
338.062	0.29
338.429	0.29
338.796	0.3
339.163	0.31
339.53	0.31
339.897	0.31
340.263	0.32
340.63	0.33
340.997	0.34
341.364	0.34
341.731	0.34
342.097	0.36
342.464	0.36
342.831	0.36
343.197	0.37
343.564	0.37
343.931	0.38
344.297	0.39
344.664	0.39
345.03	0.4
345.396	0.4
345.763	0.41
346.129	0.42
346.496	0.42
346.862	0.42
347.228	0.44
347.594	0.43
347.961	0.45
348.327	0.45
348.693	0.46
349.059	0.46
349.425	0.47
349.791	0.48
350.157	0.48
350.523	0.48
350.889	0.49
351.255	0.49
351.621	0.5
351.987	0.51
352.353	0.52
352.719	0.52
353.084	0.53
353.45	0.54
353.816	0.54
354.181	0.55
354.547	0.56
354.913	0.56
355.278	0.56
355.644	0.58
356.009	0.58
356.375	0.59
356.74	0.6
357.106	0.61
357.471	0.61
357.836	0.62
358.202	0.63
358.567	0.64
358.932	0.65
359.297	0.65
359.663	0.66
360.028	0.68
360.393	0.69
360.758	0.69
361.123	0.7
361.488	0.71
361.853	0.73
362.218	0.73
362.583	0.74
362.948	0.74
363.312	0.76
363.677	0.76
364.042	0.77
364.407	0.78
364.772	0.79
365.136	0.8
365.501	0.8
365.865	0.82
366.23	0.82
366.595	0.83
366.959	0.83
367.324	0.85
367.688	0.84
368.052	0.85
368.417	0.87
368.781	0.88
369.145	0.88
369.51	0.88
369.874	0.9
370.238	0.9
370.602	0.9
370.967	0.92
371.331	0.92
371.695	0.92
372.059	0.92
372.423	0.92
372.787	0.92
373.151	0.93
373.515	0.92
373.878	0.92
374.242	0.91
374.606	0.92
374.97	0.91
375.334	0.9
375.697	0.89
376.061	0.88
376.425	0.87
376.788	0.87
377.152	0.86
377.515	0.85
377.879	0.83
378.242	0.83
378.606	0.82
378.969	0.82
379.333	0.82
379.696	0.79
380.059	0.79
380.422	0.78
380.786	0.78
381.149	0.76
381.512	0.76
381.875	0.75
382.238	0.74
382.601	0.73
382.964	0.72
383.327	0.73
383.69	0.72
384.053	0.71
384.416	0.7
384.779	0.7
385.142	0.7
385.504	0.69
385.867	0.69
386.23	0.69
386.593	0.7
386.955	0.69
387.318	0.68
387.68	0.68
388.043	0.69
388.405	0.69
388.768	0.69
389.13	0.69
389.493	0.69
389.855	0.69
390.217	0.68
390.58	0.68
390.942	0.67
391.304	0.67
391.666	0.66
392.028	0.65
392.391	0.65
392.753	0.64
393.115	0.63
393.477	0.62
393.839	0.62
394.201	0.61
394.563	0.61
394.924	0.61
395.286	0.61
395.648	0.61
396.01	0.62
396.371	0.63
396.733	0.64
397.095	0.65
397.456	0.66
397.818	0.67
398.18	0.69
398.541	0.71
398.903	0.74
399.264	0.75
399.625	0.77
399.987	0.78
400.348	0.79
400.709	0.81
401.071	0.81
401.432	0.81
401.793	0.81
402.154	0.81
402.515	0.81
402.876	0.79
403.238	0.77
403.599	0.75
403.96	0.72
404.32	0.7
404.681	0.68
405.042	0.65
405.403	0.62
405.764	0.59
406.125	0.56
406.485	0.53
406.846	0.5
407.207	0.47
407.567	0.45
407.928	0.44
408.288	0.4
408.649	0.38
409.009	0.36
409.37	0.34
409.73	0.32
410.091	0.29
410.451	0.29
410.811	0.27
411.171	0.26
411.532	0.24
411.892	0.24
412.252	0.22
412.612	0.21
412.972	0.2
413.332	0.18
413.692	0.18
414.052	0.17
414.412	0.17
414.772	0.17
415.132	0.16
415.492	0.15
415.851	0.14
416.211	0.14
416.571	0.14
416.931	0.13
417.29	0.13
417.65	0.12
418.009	0.12
418.369	0.12
418.728	0.12
419.088	0.12
419.447	0.11
419.807	0.11
420.166	0.11
420.525	0.1
420.884	0.11
421.244	0.1
421.603	0.09
421.962	0.09
422.321	0.1
422.68	0.1
423.039	0.1
423.398	0.08
423.757	0.09
424.116	0.09
424.475	0.08
424.834	0.09
425.193	0.08
425.551	0.08
425.91	0.08
426.269	0.09
426.628	0.08
426.986	0.08
427.345	0.08
427.703	0.08
428.062	0.08
428.42	0.07
428.779	0.08
429.137	0.07
429.496	0.07
429.854	0.07
430.212	0.07
430.57	0.07
430.929	0.07
431.287	0.07
431.645	0.08
432.003	0.08
432.361	0.06
432.719	0.07
433.077	0.07
433.435	0.07
433.793	0.07
434.151	0.07
434.509	0.06
434.866	0.06
435.224	0.07
435.582	0.07
435.94	0.08
436.297	0.07
436.655	0.07
437.012	0.07
437.37	0.07
437.727	0.07
438.085	0.06
438.442	0.07
438.8	0.06
439.157	0.07
439.514	0.07
439.872	0.07
440.229	0.06
440.586	0.05
440.943	0.06
441.3	0.06
441.657	0.07
442.014	0.06
442.371	0.06
442.728	0.07
443.085	0.07
443.442	0.06
443.799	0.06
444.156	0.06
444.513	0.07
444.869	0.06
445.226	0.07
445.583	0.07
445.939	0.07
446.296	0.07
446.652	0.07
447.009	0.06
447.365	0.06
447.722	0.06
448.078	0.06
448.434	0.07
448.791	0.07
449.147	0.06
449.503	0.06
449.859	0.06
450.215	0.06
450.571	0.06
450.928	0.06
451.284	0.06
451.64	0.05
451.995	0.06
452.351	0.05
452.707	0.05
453.063	0.05
453.419	0.06
453.775	0.05
454.13	0.05
454.486	0.05
454.842	0.05
455.197	0.04
455.553	0.05
455.908	0.05
456.264	0.04
456.619	0.04
456.975	0.04
457.33	0.05
457.685	0.03
458.04	0.04
458.396	0.03
458.751	0.03
459.106	0.02
459.461	0.02
459.816	0.02
460.171	0.02
460.526	0.02
460.881	0
461.236	-0
461.591	0.01
461.946	0
462.301	0.01
462.655	-0
463.01	0
463.365	0
463.719	-0.01
464.074	-0.01
464.428	-0.02
464.783	-0.02
465.137	-0.01
465.492	-0.02
465.846	-0.02
466.201	-0.02
466.555	-0.02
466.909	-0.02
467.263	-0.01
467.618	-0.01
467.972	-0.01
468.326	-0.02
468.68	-0.02
469.034	-0.02
469.388	-0.03
469.742	-0.03
470.096	-0.02
470.45	-0.02
470.804	-0.02
471.157	-0.01
471.511	-0.01
471.865	-0.02
472.218	-0.01
472.572	-0
472.926	-0.01
473.279	-0
473.633	0.01
473.986	0.02
474.34	0.02
474.693	0.02
475.046	0.03
475.4	0.04
475.753	0.04
476.106	0.05
476.459	0.05
476.812	0.06
477.165	0.07
477.519	0.07
477.872	0.08
478.224	0.08
478.577	0.08
478.93	0.09
479.283	0.09
479.636	0.09
479.989	0.1
480.341	0.11
480.694	0.11
481.047	0.11
481.399	0.11
481.752	0.12
482.104	0.13
482.457	0.12
482.809	0.13
483.162	0.13
483.514	0.13
483.866	0.14
484.219	0.14
484.571	0.14
484.923	0.14
485.275	0.15
485.627	0.15
485.979	0.15
486.331	0.15
486.683	0.16
487.035	0.16
487.387	0.17
487.739	0.17
488.091	0.17
488.443	0.17
488.794	0.18
489.146	0.18
489.498	0.18
489.849	0.18
490.201	0.18
490.552	0.18
490.904	0.19
491.255	0.19
491.607	0.19
491.958	0.19
492.309	0.19
492.661	0.2
493.012	0.2
493.363	0.2
493.714	0.2
494.065	0.21
494.416	0.21
494.767	0.21
495.118	0.21
495.469	0.21
495.82	0.21
496.171	0.22
496.522	0.22
496.872	0.23
497.223	0.22
497.574	0.22
497.924	0.23
498.275	0.23
498.626	0.24
498.976	0.23
499.327	0.24
499.677	0.24
500.027	0.24
500.378	0.24
500.728	0.24
501.078	0.24
501.428	0.25
501.779	0.25
502.129	0.25
502.479	0.25
502.829	0.26
503.179	0.26
503.529	0.25
503.879	0.26
504.229	0.27
504.578	0.27
504.928	0.26
505.278	0.27
505.628	0.27
505.977	0.28
506.327	0.27
506.676	0.28
507.026	0.28
507.375	0.28
507.725	0.28
508.074	0.28
508.424	0.29
508.773	0.29
509.122	0.28
509.471	0.29
509.82	0.3
510.17	0.3
510.519	0.3
510.868	0.3
511.217	0.3
511.566	0.3
511.915	0.3
512.263	0.31
512.612	0.3
512.961	0.31
513.31	0.31
513.659	0.31
514.007	0.32
514.356	0.31
514.704	0.31
515.053	0.32
515.401	0.32
515.75	0.32
516.098	0.32
516.447	0.32
516.795	0.33
517.143	0.33
517.491	0.33
517.839	0.33
518.188	0.33
518.536	0.33
518.884	0.33
519.232	0.34
519.58	0.34
519.928	0.34
520.275	0.34
520.623	0.34
520.971	0.34
521.319	0.34
521.666	0.35
522.014	0.34
522.362	0.35
522.709	0.35
523.057	0.36
523.404	0.35
523.752	0.35
524.099	0.36
524.446	0.35
524.794	0.36
525.141	0.36
525.488	0.36
525.835	0.36
526.182	0.37
526.529	0.36
526.876	0.36
527.223	0.36
527.57	0.36
527.917	0.36
528.264	0.37
528.611	0.36
528.958	0.36
529.304	0.38
529.651	0.37
529.998	0.37
530.344	0.38
530.691	0.38
531.037	0.38
531.384	0.38
531.73	0.38
532.076	0.38
532.423	0.38
532.769	0.39
533.115	0.38
533.461	0.39
533.807	0.39
534.154	0.39
534.5	0.39
534.846	0.39
535.192	0.39
535.537	0.39
535.883	0.39
536.229	0.39
536.575	0.39
536.921	0.39
537.266	0.39
537.612	0.4
537.957	0.4
538.303	0.39
538.649	0.4
538.994	0.4
539.339	0.4
539.685	0.41
540.03	0.4
540.375	0.4
540.721	0.4
541.066	0.41
541.411	0.4
541.756	0.4
542.101	0.41
542.446	0.41
542.791	0.41
543.136	0.41
543.481	0.41
543.825	0.41
544.17	0.41
544.515	0.41
544.86	0.41
545.204	0.41
545.549	0.41
545.893	0.41
546.238	0.41
546.582	0.42
546.927	0.42
547.271	0.41
547.615	0.42
547.96	0.41
548.304	0.42
548.648	0.42
548.992	0.42
549.336	0.42
549.68	0.42
550.024	0.42
550.368	0.42
550.712	0.42
551.056	0.42
551.4	0.42
551.743	0.43
552.087	0.42
552.431	0.43
552.774	0.42
553.118	0.43
553.462	0.42
553.805	0.42
554.148	0.42
554.492	0.42
554.835	0.42
555.178	0.42
555.522	0.42
555.865	0.42
556.208	0.42
556.551	0.42
556.894	0.43
557.237	0.43
557.58	0.43
557.923	0.42
558.266	0.42
558.609	0.42
558.952	0.42
559.294	0.43
559.637	0.42
559.98	0.42
560.322	0.42
560.665	0.42
561.007	0.42
561.35	0.42
561.692	0.42
562.034	0.42
562.377	0.42
562.719	0.42
563.061	0.42
563.403	0.42
563.745	0.42
564.088	0.42
564.43	0.42
564.772	0.42
565.113	0.42
565.455	0.42
565.797	0.42
566.139	0.42
566.481	0.42
566.822	0.42
567.164	0.41
567.506	0.42
567.847	0.42
568.189	0.42
568.53	0.42
568.872	0.42
569.213	0.41
569.554	0.41
569.895	0.41
570.237	0.41
570.578	0.41
570.919	0.41
571.26	0.41
571.601	0.41
571.942	0.41
572.283	0.41
572.624	0.4
572.965	0.4
573.306	0.4
573.646	0.4
573.987	0.4
574.328	0.4
574.668	0.4
575.009	0.39
575.349	0.39
575.69	0.39
576.03	0.39
576.37	0.39
576.711	0.38
577.051	0.39
577.391	0.39
577.731	0.39
578.072	0.39
578.412	0.39
578.752	0.39
579.092	0.38
579.431	0.37
579.771	0.35
580.111	0.35
580.451	0.37
580.791	0.38
581.13	0.38
581.47	0.38
581.81	0.38
582.149	0.38
582.489	0.38
582.828	0.37
583.167	0.34
583.507	0.3
583.846	0.3
584.185	0.34
584.525	0.36
584.864	0.37
585.203	0.38
585.542	0.38
585.881	0.38
586.22	0.38
586.559	0.37
586.898	0.36
587.236	0.35
587.575	0.36
587.914	0.36
588.252	0.37
588.591	0.37
588.93	0.38
589.268	0.37
589.607	0.37
589.945	0.37
590.283	0.37
590.622	0.37
590.96	0.38
591.298	0.38
591.636	0.38
591.974	0.38
592.313	0.38
592.651	0.38
592.989	0.38
593.326	0.38
593.664	0.38
594.002	0.38
594.34	0.38
594.678	0.37
595.015	0.37
595.353	0.37
595.691	0.38
596.028	0.38
596.366	0.38
596.703	0.38
597.04	0.38
597.378	0.38
597.715	0.38
598.052	0.38
598.389	0.38
598.726	0.38
599.064	0.38
599.401	0.38
599.738	0.38
600.074	0.38
600.411	0.38
600.748	0.37
601.085	0.37
601.422	0.37
601.758	0.37
602.095	0.37
602.432	0.37
602.768	0.37
603.105	0.38
603.441	0.38
603.777	0.38
604.114	0.38
604.45	0.38
604.786	0.38
605.122	0.38
605.459	0.37
605.795	0.37
606.131	0.37
606.467	0.37
606.803	0.37
607.139	0.37
607.474	0.37
607.81	0.37
608.146	0.37
608.482	0.37
608.817	0.37
609.153	0.36
609.488	0.36
609.824	0.36
610.159	0.36
610.495	0.36
610.83	0.36
611.165	0.36
611.5	0.36
611.836	0.36
612.171	0.36
612.506	0.36
612.841	0.36
613.176	0.36
613.511	0.35
613.845	0.35
614.18	0.35
614.515	0.35
614.85	0.35
615.184	0.35
615.519	0.35
615.854	0.35
616.188	0.34
616.523	0.34
616.857	0.34
617.191	0.34
617.526	0.34
617.86	0.34
618.194	0.34
618.528	0.34
618.862	0.34
619.196	0.34
619.53	0.34
619.864	0.34
620.198	0.34
620.532	0.33
620.866	0.34
621.2	0.33
621.533	0.34
621.867	0.33
622.201	0.33
622.534	0.33
622.868	0.33
623.201	0.33
623.534	0.32
623.868	0.32
624.201	0.32
624.534	0.32
624.868	0.32
625.201	0.32
625.534	0.32
625.867	0.32
626.2	0.31
626.533	0.31
626.865	0.31
627.198	0.31
627.531	0.31
627.864	0.3
628.196	0.3
628.529	0.3
628.862	0.3
629.194	0.3
629.527	0.29
629.859	0.29
630.191	0.29
630.524	0.29
630.856	0.29
631.188	0.29
631.52	0.29
631.852	0.28
632.184	0.28
632.516	0.28
632.848	0.28
633.18	0.28
633.512	0.28
633.844	0.27
634.175	0.27
634.507	0.27
634.839	0.26
635.17	0.27
635.502	0.27
635.833	0.27
636.165	0.27
636.496	0.26
636.827	0.26
637.159	0.26
637.49	0.26
637.821	0.25
638.152	0.25
638.483	0.25
638.814	0.25
639.145	0.25
639.476	0.24
639.807	0.24
640.137	0.24
640.468	0.24
640.799	0.24
641.129	0.23
641.46	0.23
641.791	0.23
642.121	0.23
642.451	0.23
642.782	0.23
643.112	0.23
643.442	0.23
643.773	0.22
644.103	0.22
644.433	0.22
644.763	0.22
645.093	0.22
645.423	0.22
645.753	0.22
646.082	0.22
646.412	0.22
646.742	0.22
647.072	0.22
647.401	0.21
647.731	0.21
648.06	0.21
648.39	0.21
648.719	0.21
649.048	0.21
649.378	0.21
649.707	0.21
650.036	0.21
650.365	0.21
650.694	0.2
651.023	0.2
651.352	0.2
651.681	0.2
652.01	0.2
652.339	0.2
652.668	0.2
652.996	0.2
653.325	0.2
653.654	0.2
653.982	0.2
654.311	0.2
654.639	0.2
654.967	0.2
655.296	0.2
655.624	0.2
655.952	0.2
656.28	0.2
656.609	0.19
656.937	0.19
657.265	0.19
657.593	0.04
657.92	0
658.248	0
658.576	0.01
658.904	0.1
659.231	0.18
659.559	0.19
659.887	0.19
660.214	0.19
660.542	0.19
660.869	0.18
661.196	0.18
661.524	0.18
661.851	0.18
662.178	0.18
662.505	0.19
662.832	0.18
663.159	0.18
663.486	0.18
663.813	0.18
664.14	0.18
664.467	0.18
664.794	0.18
665.12	0.18
665.447	0.18
665.774	0.17
666.1	0.18
666.427	0.17
666.753	0.17
667.079	0.17
667.406	0.17
667.732	0.17
668.058	0.17
668.384	0.17
668.71	0.17
669.036	0.16
669.362	0.16
669.688	0.16
670.014	0.16
670.34	0.17
670.666	0.16
670.991	0.16
671.317	0.16
671.643	0.16
671.968	0.16
672.294	0.15
672.619	0.16
672.945	0.15
673.27	0.15
673.595	0.15
673.92	0.15
674.246	0.15
674.571	0.15
674.896	0.14
675.221	0.14
675.546	0.14
675.87	0.14
676.195	0.14
676.52	0.14
676.845	0.14
677.169	0.14
677.494	0.14
677.819	0.14
678.143	0.13
678.468	0.13
678.792	0.13
679.116	0.13
679.44	0.13
679.765	0.13
680.089	0.12
680.413	0.12
680.737	0.12
681.061	0.12
681.385	0.12
681.709	0.12
682.033	0.12
682.356	0.11
682.68	0.12
683.004	0.11
683.327	0.11
683.651	0.11
683.974	0.11
684.298	0.11
684.621	0.11
684.944	0.11
685.268	0.1
685.591	0.1
685.914	0.1
686.237	0.1
686.56	0.1
686.883	0.09
687.206	0.09
687.529	0.09
687.852	0.09
688.175	0.09
688.497	0.09
688.82	0.09
689.142	0.09
689.465	0.09
689.787	0.09
690.11	0.09
690.432	0.09
690.755	0.09
691.077	0.09
691.399	0.08
691.721	0.08
692.043	0.08
692.365	0.08
692.687	0.08
693.009	0.07
693.331	0.07
693.653	0.07
693.974	0.07
694.296	0.07
694.618	0.07
694.939	0.07
695.261	0.07
695.582	0.07
695.904	0.07
696.225	0.07
696.546	0.07
696.868	0.07
697.189	0.07
697.51	0.07
697.831	0.06
698.152	0.07
698.473	0.06
698.794	0.06
699.114	0.06
699.435	0.05
699.756	0.05
700.077	0.06
700.397	0.06
700.718	0.06
701.038	0.06
701.359	0.06
701.679	0.06
701.999	0.06
702.32	0.06
702.64	0.05
702.96	0.06
703.28	0.05
703.6	0.05
703.92	0.05
704.24	0.05
704.56	0.05
704.879	0.05
705.199	0.05
705.519	0.05
705.838	0.05
706.158	0.05
706.478	0.06
706.797	0.05
707.116	0.05
707.436	0.05
707.755	0.05
708.074	0.05
708.393	0.05
708.712	0.04
709.031	0.03
709.35	0.03
709.669	0.03
709.988	0.04
710.307	0.04
710.626	0.04
710.944	0.05
711.263	0.05
711.582	0.05
711.9	0.05
712.219	0.04
712.537	0.04
712.855	0.04
713.174	0.04
713.492	0.04
713.81	0.05
714.128	0.04
714.446	0.05
714.764	0.04
715.082	0.04
715.4	0.04
715.718	0.04
716.035	0.04
716.353	0.05
716.671	0.04
716.988	0.05
717.306	0.04
717.623	0.05
717.941	0.05
718.258	0.05
718.575	0.05
718.893	0.05
719.21	0.05
719.527	0.05
719.844	0.05
720.161	0.05
720.478	0.05
720.795	0.05
721.112	0.05
721.428	0.05
721.745	0.05
722.062	0.05
722.378	0.05
722.695	0.05
723.011	0.05
723.328	0.05
723.644	0.05
723.96	0.05
724.276	0.05
724.593	0.05
724.909	0.05
725.225	0.05
725.541	0.05
725.857	0.05
726.173	0.05
726.488	0.06
726.804	0.05
727.12	0.05
727.435	0.05
727.751	0.05
728.067	0.05
728.382	0.05
728.697	0.06
729.013	0.06
729.328	0.05
729.643	0.05
729.958	0.05
730.273	0.05
730.588	0.05
730.903	0.05
731.218	0.05
731.533	0.05
731.848	0.05
732.163	0.05
732.477	0.04
732.792	0.04
733.107	0.04
733.421	0.04
733.736	0.05
734.05	0.05
734.364	0.05
734.678	0.05
734.993	0.05
735.307	0.05
735.621	0.04
735.935	0.05
736.249	0.05
736.563	0.05
736.877	0.05
737.19	0.05
737.504	0.05
737.818	0.05
738.131	0.05
738.445	0.05
738.758	0.05
739.072	0.05
739.385	0.05
739.698	0.05
740.012	0.05
740.325	0.05
740.638	0.05
740.951	0.05
741.264	0.05
741.577	0.05
741.89	0.05
742.203	0.04
742.515	0.05
742.828	0.04
743.141	0.04
743.453	0.04
743.766	0.05
744.078	0.04
744.391	0.04
744.703	0.04
745.015	0.04
745.327	0.05
745.639	0.04
745.952	0.04
746.264	0.04
746.575	0.04
746.887	0.04
747.199	0.04
747.511	0.04
747.823	0.04
748.134	0.04
748.446	0.04
748.757	0.03
749.069	0.04
749.38	0.03
749.692	0.03
750.003	0.03
750.314	0.03
750.625	0.03
750.936	0.03
751.248	0.03
751.559	0.03
751.869	0.03
752.18	0.03
752.491	0.03
752.802	0.03
753.112	0.03
753.423	0.03
753.734	0.03
754.044	0.03
754.355	0.03
754.665	0.02
754.975	0.02
755.285	0.02
755.596	0.03
755.906	0.02
756.216	0.02
756.526	0.02
756.836	0.02
757.146	0.02
757.455	0.02
757.765	0.02
758.075	0.02
758.385	0.02
758.694	0.02
759.004	0.02
759.313	0.02
759.622	0.02
759.932	0.02
760.241	0.03
760.55	0.02
760.859	0.02
761.168	0.03
761.477	0.02
761.786	0.02
762.095	0.02
762.404	0.02
762.713	0.02
763.021	0.02
763.33	0.02
763.639	0.02
763.947	0.02
764.256	0.02
764.564	0.02
764.872	0.02
765.181	0.02
765.489	0.02
765.797	0.02
766.105	0.02
766.413	0.02
766.721	0.02
767.029	0.02
767.337	0.02
767.644	0.02
767.952	0.02
768.26	0.02
768.567	0.02
768.875	0.02
769.182	0.02
769.49	0.02
769.797	0.02
770.104	0.02
770.411	0.02
770.718	0.02
771.026	0.02
771.333	0.02
771.639	0.02
771.946	0.01
772.253	0.02
772.56	0.02
772.867	0.02
773.173	0.02
773.48	0.02
773.786	0.02
774.093	0.02
774.399	0.02
774.705	0.02
775.012	0.02
775.318	0.02
775.624	0.02
775.93	0.02
776.236	0.02
776.542	0.02
776.848	0.02
777.154	0.02
777.459	0.02
777.765	0.02
778.071	0.02
778.376	0.02
778.682	0.02
778.987	0.02
779.292	0.02
779.598	0.02
779.903	0.02
780.208	0.02
780.513	0.02
780.818	0.02
781.123	0.02
781.428	0.02
781.733	0.02
782.038	0.01
782.343	0.01
782.647	0.01
782.952	0.01
783.256	0.01
783.561	0.01
783.865	0.01
784.17	0.01
784.474	0.01
784.778	0.01
785.082	0.01
785.386	0.01
785.69	0.01
785.994	0.01
786.298	0.01
786.602	0.01
786.906	0.02
787.209	0.02
787.513	0.02
787.817	0.02
788.12	0.02
788.424	0.02
788.727	0.02
789.03	0.02
789.333	0.02
789.637	0.02
789.94	0.02
790.243	0.02
790.546	0.02
790.849	0.02
791.152	0.02
791.454	0.02
791.757	0.02
792.06	0.02
792.362	0.02
792.665	0.02
792.967	0.02
793.27	0.02
793.572	0.02
793.874	0.02
794.177	0.02
794.479	0.02
794.781	0.02
795.083	0.02
795.385	0.02
795.687	0.02
795.989	0.02
796.29	0.02
796.592	0.02
796.894	0.03
797.195	0.02
797.497	0.02
797.798	0.03
798.1	0.02
798.401	0.02
798.702	0.02
799.003	0.02
799.304	0.02
799.605	0.03
799.906	0.03
800.207	0.02
800.508	0.02
800.809	0.02
801.11	0.03
801.41	0.03
801.711	0.02
802.011	0.03
802.312	0.03
802.612	0.02
802.913	0.02
803.213	0.02
803.513	0.02
803.813	0.02
804.113	0.02
804.413	0.02
804.713	0.02
805.013	0.03
805.313	0.03
805.613	0.03
805.912	0.03
806.212	0.02
806.511	0.03
806.811	0.03
807.11	0.03
807.41	0.03
807.709	0.03
808.008	0.03
808.307	0.03
808.606	0.03
808.905	0.02
809.204	0.03
809.503	0.02
809.802	0.02
810.101	0.03
810.399	0.03
810.698	0.03
810.997	0.03
811.295	0.03
811.593	0.03
811.892	0.03
812.19	0.03
812.488	0.03
812.786	0.03
813.084	0.03
813.383	0.03
813.68	0.03
813.978	0.03
814.276	0.03
814.574	0.03
814.872	0.03
815.169	0.03
815.467	0.03
815.764	0.03
816.062	0.03
816.359	0.03
816.656	0.03
816.954	0.03
817.251	0.03
817.548	0.03
817.845	0.03
818.142	0.03
818.439	0.03
818.735	0.04
819.032	0.04
819.329	0.04
819.626	0.04
819.922	0.04
820.219	0.04
820.515	0.04
820.811	0.04
821.108	0.04
821.404	0.04
821.7	0.04
821.996	0.04
822.292	0.04
822.588	0.05
822.884	0.05
823.18	0.05
823.475	0.05
823.771	0.05
824.067	0.04
824.362	0.05
824.658	0.04
824.953	0.04
825.249	0.04
825.544	0.04
825.839	0.04
826.134	0.04
826.429	0.04
826.724	0.04
827.019	0.04
827.314	0.04
827.609	0.04
827.904	0.04
828.198	0.04
828.493	0.04
828.787	0.05
829.082	0.05
829.376	0.05
829.671	0.06
829.965	0.05
830.259	0.05
830.553	0.05
830.847	0.05
831.141	0.05
831.435	0.05
831.729	0.05
832.023	0.05
832.317	0.05
832.61	0.05
832.904	0.05
833.197	0.05
833.491	0.05
833.784	0.06
834.077	0.05
834.371	0.05
834.664	0.06
834.957	0.06
835.25	0.05
835.543	0.05
835.836	0.06
836.129	0.05
836.421	0.05
836.714	0.06
837.007	0.05
837.299	0.06
837.592	0.06
837.884	0.06
838.177	0.05
838.469	0.05
838.761	0.06
839.053	0.05
839.345	0.05
839.637	0.05
839.929	0.06
840.221	0.06
840.513	0.05
840.805	0.06
841.096	0.06
841.388	0.06
841.68	0.05
841.971	0.06
842.262	0.05
842.554	0.05
842.845	0.05
843.136	0.05
843.427	0.06
843.718	0.05
844.009	0.05
844.3	0.05
844.591	0.06
844.882	0.06
845.173	0.07
845.463	0.06
845.754	0.07
846.044	0.06
846.335	0.06
846.625	0.06
846.915	0.06
847.206	0.07
847.496	0.06
847.786	0.06
848.076	0.04
848.366	0.06
848.656	0.05
848.945	0.05
849.235	0.06
849.525	0.06
849.814	0.06
850.104	0.04
850.393	0.05
850.683	0.07
850.972	0.05
851.261	0.07
851.551	0.07
851.84	0.07
852.129	0.06
852.418	0.07
852.707	0.08
852.995	0.06
853.284	0.06
853.573	0.05
853.862	0.05
854.15	0.07
854.439	0.06
854.727	0.06
855.015	0.06
855.304	0.07
855.592	0.07
855.88	0.06
856.168	0.06
856.456	0.05
856.744	0.04
857.032	0.05
857.32	0.06
857.607	0.06
857.895	0.07
858.183	0.07
858.47	0.06
858.757	0.05
859.045	0.07
859.332	0.06
859.619	0.07
859.907	0.08
860.194	0.06
860.481	0.08
860.768	0.07
861.054	0.08
861.341	0.06
861.628	0.08
861.915	0.07
862.201	0.08
862.488	0.08
862.774	0.08
863.061	0.08
863.347	0.07
863.633	0.07
863.919	0.06
864.205	0.07
864.491	0.06
864.777	0.09
865.063	0.05
865.349	0.07
865.635	0.07
865.92	0.08
866.206	0.08
866.492	0.05
866.777	0.1
867.062	0.08
867.348	0.06
867.633	0.06
867.918	0.06
868.203	0.06
868.488	0.05
868.773	0.09
869.058	0.1
869.343	0.06
869.628	0.09
869.912	0.07
870.197	0.05
870.482	0.05
870.766	0.12
871.05	0.05
871.335	0.08
871.619	0.08
871.903	0.12
872.187	0.04
872.471	0.04
872.755	0.07
873.039	0.03
873.323	0.09
873.607	0.09
873.89	0.07
874.174	0.07
874.458	0.12
874.741	-0.01
875.024	0.06
875.308	0.08
875.591	0.04
875.874	0.06
876.157	0.05
876.44	-0.07
876.723	0.05
877.006	-0.01
877.289	0.04
877.572	0.1
877.854	0.03
878.137	0.01
878.42	-0
878.702	0.06
878.984	0.11
879.267	0.15
879.549	0.04
879.831	-0.05
880.113	0.1
880.395	0.04
880.677	-0.03
880.959	0.12
