Data from Rubpy_BV_1800_EDTA_Buffered_Absorbance_15-16-46-495.txt Node
Date: Wed Jul 01 15:16:46 BST 2026
User: fpm-admin
Spectrometer: OFX00224
Trigger mode: 0
Integration Time (sec): 7.000000E-2
Scans to average: 3
Nonlinearity correction enabled: false
Boxcar width: 0
Storing dark spectrum: false
XAxis mode: Wavelengths
Number of Pixels in Spectrum: 2136
>>>>>Begin Spectral Data<<<<<
154.91	-0.34
155.289	0.4
155.669	-0.66
156.048	-0
156.428	-0
156.807	-0
157.186	-0
157.566	-0.41
157.945	-0
158.325	-0
158.704	1.03
159.083	-0
159.462	-0
159.842	-0
160.221	-0.48
160.6	0.78
160.979	0.27
161.359	0.35
161.738	-0.09
162.117	-0.2
162.496	-0.07
162.875	-0
163.254	1.08
163.633	-0
164.012	-0.08
164.391	-0
164.77	-0
165.149	-0.5
165.528	-1.38
165.907	-0
166.286	0.43
166.665	0.2
167.044	0.23
167.423	0.14
167.802	0.78
168.181	1
168.559	-0.7
168.938	-0.58
169.317	0.38
169.696	-0
170.074	-0.49
170.453	-0
170.832	-0.54
171.21	-0.18
171.589	0.3
171.968	-0
172.346	-0
172.725	-0
173.103	0.19
173.482	0.7
173.861	-0
174.239	0.16
174.617	-0
174.996	0.46
175.374	-0
175.753	-0.46
176.131	-0
176.51	-0.18
176.888	-0
177.266	-0
177.645	0.08
178.023	-0
178.401	-0.08
178.779	0.14
179.158	-0
179.536	-0.66
179.914	-0.36
180.292	-0
180.67	-0.17
181.048	-0
181.427	-0
181.805	-0
182.183	-0.48
182.561	-0
182.939	-0.52
183.317	-0
183.695	-0
184.073	0.55
184.451	-0
184.829	-0
185.206	0.12
185.584	-0.07
185.962	-0.35
186.34	0.27
186.718	-0.53
187.096	-0.7
187.473	0.03
187.851	-0
188.229	-0
188.607	0.23
188.984	0.2
189.362	0.27
189.74	0.27
190.117	0.23
190.495	0.3
190.872	0.32
191.25	0.44
191.627	0.35
192.005	0.32
192.382	0.16
192.76	0.34
193.137	0.41
193.515	0.44
193.892	0.42
194.269	0.42
194.647	0.48
195.024	0.26
195.401	0.46
195.779	0.47
196.156	0.23
196.533	0.41
196.91	0.28
197.288	0.34
197.665	0.29
198.042	0.43
198.419	0.38
198.796	0.28
199.173	0.34
199.55	0.35
199.927	0.41
200.304	0.25
200.681	0.49
201.058	0.46
201.435	0.38
201.812	0.29
202.189	0.31
202.566	0.39
202.943	0.23
203.32	0.29
203.697	0.31
204.073	0.32
204.45	0.31
204.827	0.34
205.204	0.26
205.58	0.4
205.957	0.36
206.334	0.33
206.71	0.34
207.087	0.39
207.464	0.33
207.84	0.37
208.217	0.41
208.593	0.33
208.97	0.52
209.346	0.49
209.723	0.35
210.099	0.28
210.476	0.31
210.852	0.42
211.228	0.26
211.605	0.39
211.981	0.24
212.357	0.38
212.733	0.45
213.11	0.23
213.486	0.39
213.862	0.38
214.238	0.42
214.614	0.5
214.991	0.41
215.367	0.37
215.743	0.22
216.119	0.38
216.495	0.23
216.871	0.52
217.247	0.27
217.623	0.39
217.999	0.55
218.375	0.24
218.751	0.28
219.127	0.41
219.502	0.31
219.878	0.39
220.254	0.32
220.63	0.36
221.006	0.43
221.381	0.25
221.757	0.33
222.133	0.41
222.508	0.45
222.884	0.33
223.26	0.27
223.635	0.42
224.011	0.45
224.386	0.35
224.762	0.37
225.137	0.44
225.513	0.38
225.888	0.5
226.264	0.33
226.639	0.59
227.014	0.24
227.39	0.36
227.765	0.33
228.14	0.5
228.516	0.74
228.891	0.39
229.266	0.37
229.641	0.42
230.017	0.36
230.392	0.43
230.767	0.37
231.142	0.44
231.517	0.4
231.892	0.33
232.267	0.47
232.642	0.63
233.017	0.31
233.392	0.47
233.767	0.41
234.142	0.52
234.517	0.41
234.892	0.28
235.267	0.47
235.641	0.44
236.016	0.34
236.391	0.41
236.766	0.31
237.14	0.62
237.515	0.37
237.89	0.36
238.264	0.42
238.639	0.17
239.014	0.47
239.388	0.43
239.763	0.31
240.137	0.34
240.512	0.27
240.886	0.54
241.261	0.43
241.635	0.3
242.009	0.46
242.384	0.38
242.758	0.2
243.132	0.31
243.507	0.41
243.881	0.28
244.255	0.5
244.629	0.43
245.004	0.38
245.378	0.46
245.752	0.47
246.126	0.4
246.5	0.31
246.874	0.5
247.248	0.61
247.622	0.37
247.996	0.35
248.37	0.35
248.744	0.45
249.118	0.28
249.492	0.55
249.866	0.6
250.24	0.5
250.613	0.5
250.987	0.41
251.361	0.47
251.735	0.33
252.108	0.31
252.482	0.28
252.856	0.46
253.229	0.39
253.603	0.42
253.977	0.25
254.35	0.33
254.724	0.57
255.097	0.39
255.471	0.51
255.844	0.44
256.218	0.33
256.591	0.39
256.964	0.43
257.338	0.37
257.711	0.26
258.084	0.42
258.458	0.46
258.831	0.4
259.204	0.66
259.577	0.38
259.95	0.38
260.323	0.36
260.697	0.46
261.07	0.4
261.443	0.3
261.816	0.36
262.189	0.37
262.562	0.46
262.935	0.63
263.308	0.39
263.68	0.34
264.053	0.33
264.426	0.44
264.799	0.59
265.172	0.39
265.545	0.32
265.917	0.44
266.29	0.35
266.663	0.52
267.035	0.26
267.408	0.4
267.781	0.45
268.153	0.37
268.526	0.46
268.898	0.38
269.271	0.44
269.643	0.34
270.016	0.41
270.388	0.42
270.76	0.37
271.133	0.42
271.505	0.39
271.877	0.32
272.25	0.43
272.622	0.52
272.994	0.46
273.366	0.46
273.739	0.43
274.111	0.37
274.483	0.4
274.855	0.33
275.227	0.37
275.599	0.33
275.971	0.3
276.343	0.37
276.715	0.38
277.087	0.38
277.459	0.37
277.831	0.49
278.203	0.5
278.574	0.44
278.946	0.37
279.318	0.48
279.69	0.44
280.061	0.33
280.433	0.36
280.805	0.38
281.176	0.37
281.548	0.3
281.92	0.34
282.291	0.37
282.663	0.46
283.034	0.35
283.406	0.36
283.777	0.44
284.148	0.32
284.52	0.43
284.891	0.39
285.262	0.28
285.634	0.43
286.005	0.39
286.376	0.55
286.747	0.37
287.119	0.44
287.49	0.35
287.861	0.34
288.232	0.42
288.603	0.41
288.974	0.35
289.345	0.4
289.716	0.33
290.087	0.39
290.458	0.41
290.829	0.38
291.2	0.35
291.571	0.27
291.941	0.45
292.312	0.45
292.683	0.37
293.054	0.44
293.424	0.43
293.795	0.46
294.166	0.43
294.536	0.38
294.907	0.39
295.277	0.49
295.648	0.35
296.018	0.39
296.389	0.32
296.759	0.45
297.13	0.4
297.5	0.37
297.871	0.3
298.241	0.41
298.611	0.39
298.981	0.47
299.352	0.39
299.722	0.41
300.092	0.49
300.462	0.44
300.832	0.4
301.202	0.41
301.573	0.46
301.943	0.36
302.313	0.48
302.683	0.46
303.053	0.39
303.422	0.46
303.792	0.43
304.162	0.35
304.532	0.36
304.902	0.46
305.272	0.42
305.641	0.38
306.011	0.35
306.381	0.43
306.75	0.39
307.12	0.31
307.49	0.38
307.859	0.34
308.229	0.33
308.598	0.36
308.968	0.33
309.337	0.3
309.707	0.33
310.076	0.36
310.445	0.33
310.815	0.32
311.184	0.3
311.553	0.29
311.923	0.3
312.292	0.33
312.661	0.34
313.03	0.32
313.399	0.3
313.768	0.3
314.137	0.33
314.506	0.33
314.875	0.32
315.244	0.32
315.613	0.31
315.982	0.34
316.351	0.35
316.72	0.35
317.089	0.36
317.458	0.34
317.826	0.35
318.195	0.37
318.564	0.37
318.933	0.36
319.301	0.36
319.67	0.37
320.038	0.37
320.407	0.38
320.775	0.4
321.144	0.41
321.512	0.42
321.881	0.41
322.249	0.4
322.618	0.42
322.986	0.42
323.354	0.43
323.723	0.45
324.091	0.44
324.459	0.45
324.827	0.45
325.195	0.46
325.564	0.47
325.932	0.48
326.3	0.48
326.668	0.49
327.036	0.5
327.404	0.5
327.772	0.51
328.14	0.52
328.508	0.52
328.875	0.54
329.243	0.54
329.611	0.54
329.979	0.55
330.346	0.57
330.714	0.58
331.082	0.6
331.449	0.59
331.817	0.59
332.185	0.63
332.552	0.62
332.92	0.63
333.287	0.66
333.655	0.66
334.022	0.66
334.389	0.69
334.757	0.7
335.124	0.7
335.491	0.72
335.859	0.75
336.226	0.76
336.593	0.76
336.96	0.77
337.327	0.79
337.695	0.81
338.062	0.82
338.429	0.83
338.796	0.85
339.163	0.85
339.53	0.87
339.897	0.89
340.263	0.92
340.63	0.93
340.997	0.95
341.364	0.96
341.731	0.97
342.097	1
342.464	1.02
342.831	1.04
343.197	1.05
343.564	1.06
343.931	1.06
344.297	1.09
344.664	1.1
345.03	1.12
345.396	1.14
345.763	1.15
346.129	1.17
346.496	1.18
346.862	1.2
347.228	1.21
347.594	1.22
347.961	1.25
348.327	1.26
348.693	1.28
349.059	1.28
349.425	1.29
349.791	1.31
350.157	1.34
350.523	1.34
350.889	1.34
351.255	1.37
351.621	1.37
351.987	1.42
352.353	1.42
352.719	1.44
353.084	1.42
353.45	1.45
353.816	1.5
354.181	1.49
354.547	1.53
354.913	1.54
355.278	1.54
355.644	1.58
356.009	1.6
356.375	1.59
356.74	1.63
357.106	1.61
357.471	1.64
357.836	1.65
358.202	1.7
358.567	1.68
358.932	1.7
359.297	1.71
359.663	1.76
360.028	1.81
360.393	1.76
360.758	1.82
361.123	1.8
361.488	1.85
361.853	1.85
362.218	1.86
362.583	1.9
362.948	1.84
363.312	1.91
363.677	1.95
364.042	1.89
364.407	1.94
364.772	1.94
365.136	1.94
365.501	2.01
365.865	1.98
366.23	2.02
366.595	1.95
366.959	2.01
367.324	2.05
367.688	2.01
368.052	2
368.417	2.05
368.781	2.11
369.145	2.01
369.51	2.09
369.874	2.04
370.238	2.09
370.602	2.14
370.967	2.1
371.331	2.07
371.695	2.04
372.059	2.06
372.423	2
372.787	2.07
373.151	2.06
373.515	2.04
373.878	2.04
374.242	2.08
374.606	2.13
374.97	2.1
375.334	2.05
375.697	2.01
376.061	2.03
376.425	2.02
376.788	1.99
377.152	2.03
377.515	1.98
377.879	1.91
378.242	2
378.606	1.95
378.969	1.94
379.333	1.96
379.696	1.85
380.059	1.92
380.422	1.91
380.786	1.94
381.149	1.87
381.512	1.86
381.875	1.79
382.238	1.77
382.601	1.76
382.964	1.79
383.327	1.78
383.69	1.73
384.053	1.7
384.416	1.67
384.779	1.69
385.142	1.65
385.504	1.65
385.867	1.62
386.23	1.64
386.593	1.63
386.955	1.63
387.318	1.59
387.68	1.58
388.043	1.58
388.405	1.57
388.768	1.56
389.13	1.55
389.493	1.53
389.855	1.53
390.217	1.52
390.58	1.49
390.942	1.47
391.304	1.46
391.666	1.45
392.028	1.44
392.391	1.41
392.753	1.37
393.115	1.37
393.477	1.36
393.839	1.33
394.201	1.32
394.563	1.33
394.924	1.3
395.286	1.32
395.648	1.31
396.01	1.31
396.371	1.33
396.733	1.33
397.095	1.35
397.456	1.37
397.818	1.39
398.18	1.41
398.541	1.43
398.903	1.48
399.264	1.49
399.625	1.53
399.987	1.55
400.348	1.56
400.709	1.58
401.071	1.57
401.432	1.57
401.793	1.6
402.154	1.57
402.515	1.57
402.876	1.53
403.238	1.51
403.599	1.45
403.96	1.42
404.32	1.38
404.681	1.34
405.042	1.29
405.403	1.24
405.764	1.18
406.125	1.14
406.485	1.07
406.846	1.03
407.207	0.98
407.567	0.93
407.928	0.88
408.288	0.85
408.649	0.8
409.009	0.75
409.37	0.71
409.73	0.68
410.091	0.64
410.451	0.61
410.811	0.58
411.171	0.56
411.532	0.52
411.892	0.51
412.252	0.47
412.612	0.46
412.972	0.45
413.332	0.42
413.692	0.41
414.052	0.38
414.412	0.37
414.772	0.37
415.132	0.36
415.492	0.35
415.851	0.33
416.211	0.31
416.571	0.31
416.931	0.3
417.29	0.29
417.65	0.28
418.009	0.28
418.369	0.27
418.728	0.27
419.088	0.26
419.447	0.26
419.807	0.24
420.166	0.25
420.525	0.23
420.884	0.23
421.244	0.23
421.603	0.23
421.962	0.22
422.321	0.23
422.68	0.22
423.039	0.21
423.398	0.2
423.757	0.21
424.116	0.21
424.475	0.2
424.834	0.19
425.193	0.2
425.551	0.2
425.91	0.19
426.269	0.2
426.628	0.18
426.986	0.19
427.345	0.19
427.703	0.19
428.062	0.18
428.42	0.18
428.779	0.19
429.137	0.18
429.496	0.18
429.854	0.18
430.212	0.18
430.57	0.18
430.929	0.17
431.287	0.17
431.645	0.17
432.003	0.17
432.361	0.17
432.719	0.18
433.077	0.17
433.435	0.18
433.793	0.18
434.151	0.17
434.509	0.18
434.866	0.16
435.224	0.18
435.582	0.17
435.94	0.17
436.297	0.18
436.655	0.17
437.012	0.17
437.37	0.17
437.727	0.17
438.085	0.17
438.442	0.17
438.8	0.17
439.157	0.17
439.514	0.18
439.872	0.18
440.229	0.17
440.586	0.17
440.943	0.18
441.3	0.18
441.657	0.18
442.014	0.16
442.371	0.17
442.728	0.18
443.085	0.18
443.442	0.17
443.799	0.18
444.156	0.18
444.513	0.18
444.869	0.18
445.226	0.19
445.583	0.19
445.939	0.18
446.296	0.19
446.652	0.18
447.009	0.18
447.365	0.18
447.722	0.18
448.078	0.18
448.434	0.19
448.791	0.19
449.147	0.19
449.503	0.18
449.859	0.19
450.215	0.19
450.571	0.18
450.928	0.19
451.284	0.19
451.64	0.19
451.995	0.19
452.351	0.19
452.707	0.18
453.063	0.19
453.419	0.18
453.775	0.18
454.13	0.18
454.486	0.18
454.842	0.18
455.197	0.18
455.553	0.17
455.908	0.18
456.264	0.18
456.619	0.18
456.975	0.17
457.33	0.18
457.685	0.17
458.04	0.17
458.396	0.17
458.751	0.17
459.106	0.16
459.461	0.16
459.816	0.16
460.171	0.16
460.526	0.16
460.881	0.14
461.236	0.14
461.591	0.16
461.946	0.15
462.301	0.15
462.655	0.14
463.01	0.15
463.365	0.14
463.719	0.13
464.074	0.12
464.428	0.11
464.783	0.11
465.137	0.12
465.492	0.12
465.846	0.11
466.201	0.12
466.555	0.12
466.909	0.13
467.263	0.14
467.618	0.14
467.972	0.14
468.326	0.14
468.68	0.13
469.034	0.13
469.388	0.12
469.742	0.13
470.096	0.14
470.45	0.14
470.804	0.14
471.157	0.14
471.511	0.14
471.865	0.14
472.218	0.15
472.572	0.16
472.926	0.16
473.279	0.17
473.633	0.18
473.986	0.2
474.34	0.2
474.693	0.21
475.046	0.22
475.4	0.23
475.753	0.25
476.106	0.25
476.459	0.26
476.812	0.28
477.165	0.29
477.519	0.3
477.872	0.3
478.224	0.31
478.577	0.32
478.93	0.32
479.283	0.33
479.636	0.34
479.989	0.35
480.341	0.36
480.694	0.37
481.047	0.38
481.399	0.39
481.752	0.4
482.104	0.4
482.457	0.41
482.809	0.42
483.162	0.43
483.514	0.43
483.866	0.43
484.219	0.44
484.571	0.44
484.923	0.45
485.275	0.46
485.627	0.47
485.979	0.47
486.331	0.48
486.683	0.49
487.035	0.49
487.387	0.5
487.739	0.51
488.091	0.52
488.443	0.52
488.794	0.53
489.146	0.53
489.498	0.53
489.849	0.53
490.201	0.55
490.552	0.54
490.904	0.55
491.255	0.56
491.607	0.56
491.958	0.57
492.309	0.57
492.661	0.58
493.012	0.59
493.363	0.59
493.714	0.6
494.065	0.6
494.416	0.62
494.767	0.62
495.118	0.62
495.469	0.62
495.82	0.63
496.171	0.64
496.522	0.64
496.872	0.65
497.223	0.65
497.574	0.65
497.924	0.65
498.275	0.66
498.626	0.68
498.976	0.68
499.327	0.68
499.677	0.68
500.027	0.69
500.378	0.69
500.728	0.7
501.078	0.71
501.428	0.72
501.779	0.72
502.129	0.72
502.479	0.73
502.829	0.73
503.179	0.74
503.529	0.75
503.879	0.76
504.229	0.76
504.578	0.77
504.928	0.77
505.278	0.77
505.628	0.77
505.977	0.78
506.327	0.78
506.676	0.79
507.026	0.8
507.375	0.8
507.725	0.79
508.074	0.81
508.424	0.82
508.773	0.82
509.122	0.82
509.471	0.83
509.82	0.83
510.17	0.84
510.519	0.83
510.868	0.84
511.217	0.85
511.566	0.85
511.915	0.85
512.263	0.87
512.612	0.87
512.961	0.87
513.31	0.88
513.659	0.88
514.007	0.88
514.356	0.89
514.704	0.9
515.053	0.89
515.401	0.9
515.75	0.9
516.098	0.91
516.447	0.91
516.795	0.91
517.143	0.92
517.491	0.92
517.839	0.93
518.188	0.94
518.536	0.93
518.884	0.95
519.232	0.95
519.58	0.94
519.928	0.95
520.275	0.95
520.623	0.96
520.971	0.97
521.319	0.97
521.666	0.97
522.014	0.97
522.362	0.97
522.709	0.97
523.057	0.98
523.404	0.98
523.752	0.98
524.099	0.99
524.446	1
524.794	0.99
525.141	1
525.488	1.01
525.835	1
526.182	1.01
526.529	1
526.876	1.02
527.223	1.02
527.57	1.02
527.917	1.02
528.264	1.02
528.611	1.02
528.958	1.02
529.304	1.04
529.651	1.03
529.998	1.04
530.344	1.04
530.691	1.04
531.037	1.05
531.384	1.05
531.73	1.05
532.076	1.05
532.423	1.06
532.769	1.06
533.115	1.05
533.461	1.07
533.807	1.06
534.154	1.07
534.5	1.08
534.846	1.07
535.192	1.07
535.537	1.07
535.883	1.07
536.229	1.07
536.575	1.07
536.921	1.08
537.266	1.09
537.612	1.09
537.957	1.08
538.303	1.08
538.649	1.08
538.994	1.08
539.339	1.09
539.685	1.09
540.03	1.1
540.375	1.09
540.721	1.1
541.066	1.1
541.411	1.09
541.756	1.1
542.101	1.11
542.446	1.1
542.791	1.1
543.136	1.1
543.481	1.11
543.825	1.1
544.17	1.1
544.515	1.11
544.86	1.11
545.204	1.12
545.549	1.12
545.893	1.12
546.238	1.11
546.582	1.12
546.927	1.12
547.271	1.12
547.615	1.11
547.96	1.12
548.304	1.11
548.648	1.11
548.992	1.12
549.336	1.12
549.68	1.12
550.024	1.12
550.368	1.12
550.712	1.11
551.056	1.11
551.4	1.12
551.743	1.12
552.087	1.12
552.431	1.11
552.774	1.12
553.118	1.12
553.462	1.12
553.805	1.11
554.148	1.11
554.492	1.11
554.835	1.11
555.178	1.12
555.522	1.12
555.865	1.11
556.208	1.11
556.551	1.1
556.894	1.12
557.237	1.12
557.58	1.11
557.923	1.11
558.266	1.11
558.609	1.1
558.952	1.11
559.294	1.11
559.637	1.1
559.98	1.1
560.322	1.11
560.665	1.11
561.007	1.1
561.35	1.1
561.692	1.1
562.034	1.09
562.377	1.1
562.719	1.1
563.061	1.08
563.403	1.09
563.745	1.09
564.088	1.09
564.43	1.08
564.772	1.08
565.113	1.08
565.455	1.08
565.797	1.08
566.139	1.09
566.481	1.07
566.822	1.08
567.164	1.07
567.506	1.07
567.847	1.07
568.189	1.07
568.53	1.07
568.872	1.07
569.213	1.05
569.554	1.06
569.895	1.06
570.237	1.05
570.578	1.06
570.919	1.05
571.26	1.05
571.601	1.05
571.942	1.05
572.283	1.04
572.624	1.04
572.965	1.03
573.306	1.03
573.646	1.03
573.987	1.03
574.328	1.03
574.668	1.03
575.009	1.02
575.349	1.01
575.69	1.01
576.03	1.01
576.37	1.01
576.711	1.01
577.051	1.01
577.391	1.01
577.731	1.01
578.072	1
578.412	1
578.752	1
579.092	0.99
579.431	0.97
579.771	0.96
580.111	0.95
580.451	0.97
580.791	0.99
581.13	0.98
581.47	0.98
581.81	0.98
582.149	0.98
582.489	0.98
582.828	0.96
583.167	0.93
583.507	0.89
583.846	0.89
584.185	0.93
584.525	0.95
584.864	0.96
585.203	0.97
585.542	0.97
585.881	0.97
586.22	0.96
586.559	0.95
586.898	0.94
587.236	0.93
587.575	0.94
587.914	0.94
588.252	0.95
588.591	0.95
588.93	0.95
589.268	0.94
589.607	0.95
589.945	0.94
590.283	0.95
590.622	0.95
590.96	0.95
591.298	0.95
591.636	0.95
591.974	0.94
592.313	0.94
592.651	0.95
592.989	0.94
593.326	0.94
593.664	0.94
594.002	0.94
594.34	0.94
594.678	0.93
595.015	0.93
595.353	0.92
595.691	0.93
596.028	0.93
596.366	0.94
596.703	0.93
597.04	0.93
597.378	0.94
597.715	0.93
598.052	0.94
598.389	0.93
598.726	0.93
599.064	0.94
599.401	0.93
599.738	0.93
600.074	0.93
600.411	0.92
600.748	0.92
601.085	0.91
601.422	0.91
601.758	0.91
602.095	0.91
602.432	0.91
602.768	0.91
603.105	0.91
603.441	0.91
603.777	0.91
604.114	0.91
604.45	0.91
604.786	0.9
605.122	0.9
605.459	0.9
605.795	0.89
606.131	0.9
606.467	0.89
606.803	0.89
607.139	0.89
607.474	0.89
607.81	0.88
608.146	0.88
608.482	0.88
608.817	0.88
609.153	0.87
609.488	0.87
609.824	0.87
610.159	0.87
610.495	0.87
610.83	0.86
611.165	0.86
611.5	0.86
611.836	0.85
612.171	0.84
612.506	0.85
612.841	0.84
613.176	0.84
613.511	0.84
613.845	0.83
614.18	0.83
614.515	0.83
614.85	0.82
615.184	0.83
615.519	0.83
615.854	0.82
616.188	0.81
616.523	0.81
616.857	0.81
617.191	0.81
617.526	0.81
617.86	0.81
618.194	0.8
618.528	0.8
618.862	0.8
619.196	0.8
619.53	0.79
619.864	0.79
620.198	0.79
620.532	0.78
620.866	0.78
621.2	0.77
621.533	0.77
621.867	0.77
622.201	0.76
622.534	0.76
622.868	0.76
623.201	0.76
623.534	0.75
623.868	0.74
624.201	0.75
624.534	0.75
624.868	0.74
625.201	0.74
625.534	0.73
625.867	0.73
626.2	0.73
626.533	0.73
626.865	0.73
627.198	0.72
627.531	0.72
627.864	0.71
628.196	0.7
628.529	0.71
628.862	0.7
629.194	0.7
629.527	0.69
629.859	0.69
630.191	0.69
630.524	0.68
630.856	0.68
631.188	0.67
631.52	0.67
631.852	0.67
632.184	0.66
632.516	0.66
632.848	0.65
633.18	0.65
633.512	0.65
633.844	0.64
634.175	0.64
634.507	0.64
634.839	0.63
635.17	0.63
635.502	0.62
635.833	0.62
636.165	0.62
636.496	0.61
636.827	0.61
637.159	0.6
637.49	0.6
637.821	0.59
638.152	0.59
638.483	0.59
638.814	0.58
639.145	0.59
639.476	0.58
639.807	0.57
640.137	0.57
640.468	0.56
640.799	0.56
641.129	0.56
641.46	0.55
641.791	0.55
642.121	0.55
642.451	0.55
642.782	0.54
643.112	0.54
643.442	0.53
643.773	0.53
644.103	0.53
644.433	0.52
644.763	0.52
645.093	0.52
645.423	0.52
645.753	0.51
646.082	0.52
646.412	0.51
646.742	0.51
647.072	0.5
647.401	0.5
647.731	0.5
648.06	0.5
648.39	0.5
648.719	0.5
649.048	0.5
649.378	0.49
649.707	0.49
650.036	0.48
650.365	0.48
650.694	0.48
651.023	0.48
651.352	0.47
651.681	0.48
652.01	0.47
652.339	0.47
652.668	0.47
652.996	0.46
653.325	0.47
653.654	0.47
653.982	0.46
654.311	0.46
654.639	0.46
654.967	0.46
655.296	0.46
655.624	0.45
655.952	0.45
656.28	0.45
656.609	0.45
656.937	0.45
657.265	0.43
657.593	0.27
657.92	0.18
658.248	0.15
658.576	0.23
658.904	0.35
659.231	0.43
659.559	0.44
659.887	0.43
660.214	0.43
660.542	0.43
660.869	0.42
661.196	0.42
661.524	0.42
661.851	0.42
662.178	0.42
662.505	0.42
662.832	0.42
663.159	0.42
663.486	0.42
663.813	0.41
664.14	0.41
664.467	0.41
664.794	0.41
665.12	0.41
665.447	0.4
665.774	0.4
666.1	0.4
666.427	0.4
666.753	0.39
667.079	0.39
667.406	0.39
667.732	0.39
668.058	0.39
668.384	0.39
668.71	0.39
669.036	0.38
669.362	0.38
669.688	0.38
670.014	0.37
670.34	0.37
670.666	0.37
670.991	0.37
671.317	0.36
671.643	0.36
671.968	0.36
672.294	0.35
672.619	0.36
672.945	0.35
673.27	0.35
673.595	0.34
673.92	0.34
674.246	0.34
674.571	0.34
674.896	0.34
675.221	0.33
675.546	0.33
675.87	0.33
676.195	0.32
676.52	0.33
676.845	0.32
677.169	0.32
677.494	0.32
677.819	0.31
678.143	0.3
678.468	0.31
678.792	0.3
679.116	0.3
679.44	0.3
679.765	0.3
680.089	0.29
680.413	0.29
680.737	0.29
681.061	0.28
681.385	0.28
681.709	0.28
682.033	0.27
682.356	0.27
682.68	0.27
683.004	0.27
683.327	0.26
683.651	0.26
683.974	0.26
684.298	0.25
684.621	0.25
684.944	0.25
685.268	0.24
685.591	0.24
685.914	0.24
686.237	0.24
686.56	0.23
686.883	0.23
687.206	0.23
687.529	0.22
687.852	0.22
688.175	0.22
688.497	0.22
688.82	0.22
689.142	0.22
689.465	0.21
689.787	0.21
690.11	0.21
690.432	0.21
690.755	0.2
691.077	0.2
691.399	0.2
691.721	0.19
692.043	0.19
692.365	0.19
692.687	0.19
693.009	0.18
693.331	0.18
693.653	0.18
693.974	0.18
694.296	0.18
694.618	0.17
694.939	0.17
695.261	0.17
695.582	0.17
695.904	0.17
696.225	0.17
696.546	0.17
696.868	0.16
697.189	0.16
697.51	0.16
697.831	0.16
698.152	0.16
698.473	0.15
698.794	0.15
699.114	0.14
699.435	0.13
699.756	0.14
700.077	0.14
700.397	0.14
700.718	0.14
701.038	0.14
701.359	0.15
701.679	0.14
701.999	0.14
702.32	0.14
702.64	0.14
702.96	0.14
703.28	0.14
703.6	0.14
703.92	0.13
704.24	0.13
704.56	0.13
704.879	0.13
705.199	0.13
705.519	0.13
705.838	0.13
706.158	0.13
706.478	0.13
706.797	0.13
707.116	0.13
707.436	0.13
707.755	0.13
708.074	0.13
708.393	0.12
708.712	0.12
709.031	0.1
709.35	0.11
709.669	0.11
709.988	0.11
710.307	0.11
710.626	0.12
710.944	0.12
711.263	0.12
711.582	0.12
711.9	0.12
712.219	0.12
712.537	0.12
712.855	0.12
713.174	0.12
713.492	0.12
713.81	0.12
714.128	0.12
714.446	0.12
714.764	0.11
715.082	0.11
715.4	0.12
715.718	0.11
716.035	0.11
716.353	0.12
716.671	0.12
716.988	0.12
717.306	0.11
717.623	0.12
717.941	0.13
718.258	0.13
718.575	0.13
718.893	0.13
719.21	0.12
719.527	0.12
719.844	0.12
720.161	0.12
720.478	0.12
720.795	0.12
721.112	0.13
721.428	0.13
721.745	0.13
722.062	0.13
722.378	0.13
722.695	0.13
723.011	0.13
723.328	0.13
723.644	0.13
723.96	0.13
724.276	0.13
724.593	0.13
724.909	0.13
725.225	0.13
725.541	0.13
725.857	0.13
726.173	0.13
726.488	0.13
726.804	0.13
727.12	0.12
727.435	0.12
727.751	0.12
728.067	0.12
728.382	0.13
728.697	0.12
729.013	0.13
729.328	0.12
729.643	0.12
729.958	0.12
730.273	0.12
730.588	0.12
730.903	0.12
731.218	0.12
731.533	0.12
731.848	0.12
732.163	0.12
732.477	0.12
732.792	0.12
733.107	0.11
733.421	0.12
733.736	0.12
734.05	0.12
734.364	0.11
734.678	0.12
734.993	0.11
735.307	0.12
735.621	0.11
735.935	0.11
736.249	0.11
736.563	0.11
736.877	0.12
737.19	0.12
737.504	0.12
737.818	0.11
738.131	0.12
738.445	0.12
738.758	0.12
739.072	0.12
739.385	0.12
739.698	0.12
740.012	0.12
740.325	0.12
740.638	0.11
740.951	0.11
741.264	0.11
741.577	0.11
741.89	0.11
742.203	0.11
742.515	0.11
742.828	0.11
743.141	0.11
743.453	0.11
743.766	0.11
744.078	0.1
744.391	0.1
744.703	0.1
745.015	0.1
745.327	0.1
745.639	0.1
745.952	0.1
746.264	0.1
746.575	0.1
746.887	0.1
747.199	0.1
747.511	0.1
747.823	0.1
748.134	0.1
748.446	0.09
748.757	0.09
749.069	0.09
749.38	0.09
749.692	0.09
750.003	0.08
750.314	0.08
750.625	0.08
750.936	0.08
751.248	0.08
751.559	0.09
751.869	0.09
752.18	0.09
752.491	0.08
752.802	0.08
753.112	0.08
753.423	0.08
753.734	0.08
754.044	0.07
754.355	0.07
754.665	0.07
754.975	0.07
755.285	0.07
755.596	0.07
755.906	0.07
756.216	0.07
756.526	0.07
756.836	0.07
757.146	0.07
757.455	0.07
757.765	0.07
758.075	0.07
758.385	0.06
758.694	0.06
759.004	0.06
759.313	0.06
759.622	0.06
759.932	0.06
760.241	0.07
760.55	0.07
760.859	0.07
761.168	0.07
761.477	0.07
761.786	0.07
762.095	0.06
762.404	0.06
762.713	0.06
763.021	0.06
763.33	0.06
763.639	0.07
763.947	0.06
764.256	0.06
764.564	0.06
764.872	0.07
765.181	0.07
765.489	0.06
765.797	0.06
766.105	0.06
766.413	0.06
766.721	0.06
767.029	0.06
767.337	0.06
767.644	0.06
767.952	0.06
768.26	0.06
768.567	0.06
768.875	0.07
769.182	0.06
769.49	0.06
769.797	0.06
770.104	0.06
770.411	0.06
770.718	0.06
771.026	0.06
771.333	0.06
771.639	0.06
771.946	0.06
772.253	0.06
772.56	0.06
772.867	0.06
773.173	0.06
773.48	0.06
773.786	0.06
774.093	0.06
774.399	0.06
774.705	0.06
775.012	0.06
775.318	0.07
775.624	0.07
775.93	0.06
776.236	0.07
776.542	0.07
776.848	0.07
777.154	0.07
777.459	0.07
777.765	0.07
778.071	0.07
778.376	0.07
778.682	0.07
778.987	0.07
779.292	0.07
779.598	0.06
779.903	0.06
780.208	0.06
780.513	0.06
780.818	0.06
781.123	0.06
781.428	0.06
781.733	0.06
782.038	0.06
782.343	0.06
782.647	0.06
782.952	0.06
783.256	0.06
783.561	0.06
783.865	0.06
784.17	0.06
784.474	0.06
784.778	0.06
785.082	0.06
785.386	0.06
785.69	0.06
785.994	0.06
786.298	0.06
786.602	0.06
786.906	0.06
787.209	0.07
787.513	0.07
787.817	0.07
788.12	0.07
788.424	0.08
788.727	0.07
789.03	0.07
789.333	0.07
789.637	0.08
789.94	0.07
790.243	0.08
790.546	0.08
790.849	0.08
791.152	0.08
791.454	0.08
791.757	0.08
792.06	0.08
792.362	0.08
792.665	0.08
792.967	0.08
793.27	0.08
793.572	0.08
793.874	0.08
794.177	0.08
794.479	0.08
794.781	0.08
795.083	0.09
795.385	0.09
795.687	0.09
795.989	0.09
796.29	0.09
796.592	0.09
796.894	0.09
797.195	0.09
797.497	0.08
797.798	0.09
798.1	0.09
798.401	0.09
798.702	0.09
799.003	0.08
799.304	0.08
799.605	0.08
799.906	0.08
800.207	0.08
800.508	0.08
800.809	0.09
801.11	0.09
801.41	0.09
801.711	0.09
802.011	0.09
802.312	0.1
802.612	0.09
802.913	0.09
803.213	0.09
803.513	0.09
803.813	0.1
804.113	0.09
804.413	0.09
804.713	0.1
805.013	0.1
805.313	0.1
805.613	0.1
805.912	0.1
806.212	0.1
806.511	0.1
806.811	0.1
807.11	0.1
807.41	0.1
807.709	0.1
808.008	0.1
808.307	0.1
808.606	0.1
808.905	0.1
809.204	0.1
809.503	0.1
809.802	0.1
810.101	0.1
810.399	0.11
810.698	0.1
810.997	0.1
811.295	0.11
811.593	0.1
811.892	0.11
812.19	0.11
812.488	0.11
812.786	0.11
813.084	0.11
813.383	0.11
813.68	0.11
813.978	0.11
814.276	0.12
814.574	0.11
814.872	0.11
815.169	0.11
815.467	0.11
815.764	0.11
816.062	0.11
816.359	0.11
816.656	0.1
816.954	0.11
817.251	0.11
817.548	0.12
817.845	0.12
818.142	0.12
818.439	0.12
818.735	0.12
819.032	0.12
819.329	0.12
819.626	0.12
819.922	0.13
820.219	0.13
820.515	0.13
820.811	0.14
821.108	0.13
821.404	0.13
821.7	0.13
821.996	0.12
822.292	0.12
822.588	0.13
822.884	0.13
823.18	0.14
823.475	0.14
823.771	0.14
824.067	0.14
824.362	0.14
824.658	0.14
824.953	0.14
825.249	0.13
825.544	0.14
825.839	0.14
826.134	0.13
826.429	0.14
826.724	0.14
827.019	0.14
827.314	0.14
827.609	0.15
827.904	0.14
828.198	0.14
828.493	0.14
828.787	0.15
829.082	0.14
829.376	0.15
829.671	0.16
829.965	0.16
830.259	0.15
830.553	0.16
830.847	0.15
831.141	0.16
831.435	0.16
831.729	0.16
832.023	0.15
832.317	0.16
832.61	0.15
832.904	0.16
833.197	0.16
833.491	0.16
833.784	0.16
834.077	0.16
834.371	0.16
834.664	0.16
834.957	0.17
835.25	0.16
835.543	0.16
835.836	0.17
836.129	0.16
836.421	0.17
836.714	0.16
837.007	0.16
837.299	0.16
837.592	0.16
837.884	0.17
838.177	0.16
838.469	0.16
838.761	0.17
839.053	0.16
839.345	0.17
839.637	0.16
839.929	0.17
840.221	0.17
840.513	0.17
840.805	0.17
841.096	0.18
841.388	0.18
841.68	0.17
841.971	0.18
842.262	0.18
842.554	0.18
842.845	0.17
843.136	0.17
843.427	0.18
843.718	0.17
844.009	0.18
844.3	0.17
844.591	0.18
844.882	0.19
845.173	0.18
845.463	0.18
845.754	0.19
846.044	0.18
846.335	0.18
846.625	0.18
846.915	0.18
847.206	0.18
847.496	0.19
847.786	0.19
848.076	0.17
848.366	0.18
848.656	0.18
848.945	0.19
849.235	0.18
849.525	0.17
849.814	0.17
850.104	0.18
850.393	0.19
850.683	0.19
850.972	0.19
851.261	0.2
851.551	0.2
851.84	0.2
852.129	0.19
852.418	0.2
852.707	0.2
852.995	0.2
853.284	0.19
853.573	0.19
853.862	0.19
854.15	0.2
854.439	0.2
854.727	0.19
855.015	0.2
855.304	0.21
855.592	0.2
855.88	0.2
856.168	0.2
856.456	0.2
856.744	0.19
857.032	0.21
857.32	0.2
857.607	0.2
857.895	0.21
858.183	0.23
858.47	0.21
858.757	0.21
859.045	0.22
859.332	0.22
859.619	0.21
859.907	0.21
860.194	0.19
860.481	0.21
860.768	0.2
861.054	0.22
861.341	0.22
861.628	0.22
861.915	0.21
862.201	0.21
862.488	0.23
862.774	0.22
863.061	0.23
863.347	0.23
863.633	0.22
863.919	0.2
864.205	0.22
864.491	0.21
864.777	0.25
865.063	0.2
865.349	0.22
865.635	0.25
865.92	0.22
866.206	0.22
866.492	0.21
866.777	0.21
867.062	0.25
867.348	0.22
867.633	0.19
867.918	0.26
868.203	0.22
868.488	0.2
868.773	0.26
869.058	0.24
869.343	0.21
869.628	0.23
869.912	0.21
870.197	0.22
870.482	0.23
870.766	0.27
871.05	0.26
871.335	0.25
871.619	0.21
871.903	0.26
872.187	0.22
872.471	0.27
872.755	0.24
873.039	0.18
873.323	0.24
873.607	0.28
873.89	0.17
874.174	0.22
874.458	0.23
874.741	0.18
875.024	0.3
875.308	0.23
875.591	0.23
875.874	0.24
876.157	0.24
876.44	0.16
876.723	0.21
877.006	0.18
877.289	0.2
877.572	0.25
877.854	0.21
878.137	0.21
878.42	0.22
878.702	0.26
878.984	0.27
879.267	0.36
879.549	0.14
879.831	0.33
880.113	0.17
880.395	0.16
880.677	0.04
880.959	0.21
