Data from Rubpy_BV_1800_EDTA_Buffered_Absorbance_14-52-54-795.txt Node
Date: Wed Jul 01 14:52:54 BST 2026
User: fpm-admin
Spectrometer: OFX00224
Trigger mode: 0
Integration Time (sec): 7.000000E-2
Scans to average: 3
Nonlinearity correction enabled: false
Boxcar width: 0
Storing dark spectrum: false
XAxis mode: Wavelengths
Number of Pixels in Spectrum: 2136
>>>>>Begin Spectral Data<<<<<
154.91	-0.27
155.289	-0
155.669	-1.01
156.048	-0
156.428	0.24
156.807	-0
157.186	-0
157.566	-0.5
157.945	0.07
158.325	0.7
158.704	0.9
159.083	-0.2
159.462	-0
159.842	-0
160.221	0.3
160.6	-0
160.979	-0.22
161.359	-0
161.738	0.23
162.117	-0.32
162.496	0.48
162.875	-0
163.254	-0
163.633	-0
164.012	-0
164.391	-0.54
164.77	-0
165.149	-0
165.528	-1.46
165.907	-0
166.286	0.1
166.665	0.68
167.044	-0
167.423	-0.04
167.802	-0
168.181	-0
168.559	-0
168.938	0.05
169.317	-0.02
169.696	-0
170.074	-0.46
170.453	-0
170.832	-0.72
171.21	-0.24
171.589	-0.34
171.968	0.75
172.346	-0
172.725	0.21
173.103	0.86
173.482	0.45
173.861	-0
174.239	1.15
174.617	-0.48
174.996	0.24
175.374	0.2
175.753	-0.42
176.131	-0
176.51	-0.23
176.888	-0
177.266	-0
177.645	-0.16
178.023	0.83
178.401	-0.03
178.779	0.11
179.158	-0
179.536	-0.09
179.914	-0.03
180.292	0.03
180.67	-0
181.048	-0.18
181.427	-0
181.805	-0
182.183	-1.49
182.561	-0
182.939	0.37
183.317	-0
183.695	-0
184.073	-0.16
184.451	-0
184.829	0.2
185.206	-0
185.584	0.38
185.962	-0
186.34	0.34
186.718	-0.4
187.096	-0.72
187.473	-0
187.851	-0
188.229	-0
188.607	0.16
188.984	0.12
189.362	0.22
189.74	0.15
190.117	-0.02
190.495	0.14
190.872	0.23
191.25	0.15
191.627	0.22
192.005	0.18
192.382	0.11
192.76	0.09
193.137	0.2
193.515	0.1
193.892	0.33
194.269	0.14
194.647	0.18
195.024	0.05
195.401	0.22
195.779	0.36
196.156	0.1
196.533	0.23
196.91	0.1
197.288	0.15
197.665	0.16
198.042	0.15
198.419	0.11
198.796	0.02
199.173	0.23
199.55	0.17
199.927	0.08
200.304	0.18
200.681	0.33
201.058	0.07
201.435	0.2
201.812	0.1
202.189	0.21
202.566	0.25
202.943	0.22
203.32	0.2
203.697	0.24
204.073	0.24
204.45	0.18
204.827	0.2
205.204	0.14
205.58	0.26
205.957	0.18
206.334	0.24
206.71	0.1
207.087	0.22
207.464	0.07
207.84	0.15
208.217	0.15
208.593	0.13
208.97	0.22
209.346	0.2
209.723	0.1
210.099	0.13
210.476	0.08
210.852	0.04
211.228	0.13
211.605	0.17
211.981	0.16
212.357	0.13
212.733	0.23
213.11	0.08
213.486	0.17
213.862	0.14
214.238	0.17
214.614	0.15
214.991	0.16
215.367	0.14
215.743	0.17
216.119	0.22
216.495	0.22
216.871	0.18
217.247	0.13
217.623	0.24
217.999	0.17
218.375	0.09
218.751	0.08
219.127	0.14
219.502	0.21
219.878	0.1
220.254	0.13
220.63	0.17
221.006	0.23
221.381	0.13
221.757	0.07
222.133	0.19
222.508	0.11
222.884	0.07
223.26	0.09
223.635	0.14
224.011	0.19
224.386	0.1
224.762	0.2
225.137	0.24
225.513	0.08
225.888	0.13
226.264	0.15
226.639	0.12
227.014	0.09
227.39	0.23
227.765	0.18
228.14	0.15
228.516	0.24
228.891	0.21
229.266	0.09
229.641	0.08
230.017	0.11
230.392	0.23
230.767	0.06
231.142	0.11
231.517	0.11
231.892	0.16
232.267	0.14
232.642	0.22
233.017	0.18
233.392	0.08
233.767	0.18
234.142	0.15
234.517	0.21
234.892	0.1
235.267	0.09
235.641	0.1
236.016	0.04
236.391	0.08
236.766	0.19
237.14	0.07
237.515	0.18
237.89	0.1
238.264	0.1
238.639	0.1
239.014	0.15
239.388	0.1
239.763	0.15
240.137	0.13
240.512	0.06
240.886	0.14
241.261	0.09
241.635	0.13
242.009	0.26
242.384	0.14
242.758	0.17
243.132	0.12
243.507	0.09
243.881	0.11
244.255	0.18
244.629	0.14
245.004	0.15
245.378	0.22
245.752	0.15
246.126	0.04
246.5	0.15
246.874	0.23
247.248	0.2
247.622	0.23
247.996	0.09
248.37	0.13
248.744	0.04
249.118	0.24
249.492	0.21
249.866	0.21
250.24	0.27
250.613	0.15
250.987	0.14
251.361	0.25
251.735	0.09
252.108	0.11
252.482	0.13
252.856	0.08
253.229	0.21
253.603	0.05
253.977	0.2
254.35	0.17
254.724	0.17
255.097	0.26
255.471	0.1
255.844	0.12
256.218	0.11
256.591	0.15
256.964	0.13
257.338	0.17
257.711	0.07
258.084	0.19
258.458	0.16
258.831	0.2
259.204	0.23
259.577	0.12
259.95	0.2
260.323	0.13
260.697	0.2
261.07	0.17
261.443	0.21
261.816	0.02
262.189	0.27
262.562	0.24
262.935	0.17
263.308	0.09
263.68	0.19
264.053	0.21
264.426	0.14
264.799	0.17
265.172	0.15
265.545	0.14
265.917	0.18
266.29	0.16
266.663	0.27
267.035	0.16
267.408	0.16
267.781	0.21
268.153	0.18
268.526	0.15
268.898	0.16
269.271	0.18
269.643	0.25
270.016	0.15
270.388	0.17
270.76	0.2
271.133	0.18
271.505	0.16
271.877	0.19
272.25	0.18
272.622	0.22
272.994	0.18
273.366	0.18
273.739	0.16
274.111	0.09
274.483	0.16
274.855	0.14
275.227	0.18
275.599	0.07
275.971	0.19
276.343	0.14
276.715	0.19
277.087	0.15
277.459	0.03
277.831	0.21
278.203	0.17
278.574	0.14
278.946	0.15
279.318	0.11
279.69	0.17
280.061	0.13
280.433	0.14
280.805	0.17
281.176	0.07
281.548	0.18
281.92	0.1
282.291	0.17
282.663	0.13
283.034	0.09
283.406	0.18
283.777	0.18
284.148	0.15
284.52	0.19
284.891	0.13
285.262	0.18
285.634	0.13
286.005	0.17
286.376	0.12
286.747	0.2
287.119	0.18
287.49	0.12
287.861	0.16
288.232	0.1
288.603	0.2
288.974	0.12
289.345	0.14
289.716	0.11
290.087	0.14
290.458	0.16
290.829	0.05
291.2	0.12
291.571	0.17
291.941	0.19
292.312	0.19
292.683	0.22
293.054	0.15
293.424	0.2
293.795	0.15
294.166	0.23
294.536	0.16
294.907	0.23
295.277	0.19
295.648	0.22
296.018	0.17
296.389	0.15
296.759	0.11
297.13	0.11
297.5	0.19
297.871	0.2
298.241	0.2
298.611	0.12
298.981	0.23
299.352	0.11
299.722	0.21
300.092	0.17
300.462	0.09
300.832	0.2
301.202	0.2
301.573	0.2
301.943	0.11
302.313	0.16
302.683	0.17
303.053	0.16
303.422	0.17
303.792	0.13
304.162	0.13
304.532	0.11
304.902	0.17
305.272	0.14
305.641	0.13
306.011	0.16
306.381	0.17
306.75	0.16
307.12	0.17
307.49	0.17
307.859	0.13
308.229	0.1
308.598	0.13
308.968	0.12
309.337	0.14
309.707	0.12
310.076	0.1
310.445	0.13
310.815	0.11
311.184	0.09
311.553	0.09
311.923	0.09
312.292	0.12
312.661	0.1
313.03	0.09
313.399	0.1
313.768	0.1
314.137	0.11
314.506	0.11
314.875	0.12
315.244	0.1
315.613	0.1
315.982	0.1
316.351	0.14
316.72	0.11
317.089	0.11
317.458	0.11
317.826	0.13
318.195	0.13
318.564	0.12
318.933	0.12
319.301	0.12
319.67	0.11
320.038	0.11
320.407	0.12
320.775	0.13
321.144	0.13
321.512	0.13
321.881	0.13
322.249	0.12
322.618	0.11
322.986	0.11
323.354	0.12
323.723	0.13
324.091	0.13
324.459	0.14
324.827	0.13
325.195	0.15
325.564	0.14
325.932	0.14
326.3	0.15
326.668	0.15
327.036	0.15
327.404	0.14
327.772	0.15
328.14	0.16
328.508	0.15
328.875	0.15
329.243	0.17
329.611	0.16
329.979	0.16
330.346	0.16
330.714	0.17
331.082	0.17
331.449	0.17
331.817	0.17
332.185	0.18
332.552	0.18
332.92	0.19
333.287	0.19
333.655	0.19
334.022	0.19
334.389	0.2
334.757	0.2
335.124	0.2
335.491	0.21
335.859	0.21
336.226	0.21
336.593	0.22
336.96	0.22
337.327	0.22
337.695	0.23
338.062	0.23
338.429	0.23
338.796	0.24
339.163	0.24
339.53	0.25
339.897	0.25
340.263	0.26
340.63	0.26
340.997	0.27
341.364	0.27
341.731	0.27
342.097	0.28
342.464	0.28
342.831	0.29
343.197	0.29
343.564	0.3
343.931	0.3
344.297	0.3
344.664	0.31
345.03	0.32
345.396	0.32
345.763	0.33
346.129	0.33
346.496	0.33
346.862	0.34
347.228	0.34
347.594	0.35
347.961	0.35
348.327	0.35
348.693	0.36
349.059	0.37
349.425	0.37
349.791	0.37
350.157	0.38
350.523	0.38
350.889	0.39
351.255	0.39
351.621	0.39
351.987	0.4
352.353	0.41
352.719	0.42
353.084	0.42
353.45	0.43
353.816	0.43
354.181	0.43
354.547	0.44
354.913	0.44
355.278	0.44
355.644	0.46
356.009	0.46
356.375	0.47
356.74	0.48
357.106	0.48
357.471	0.49
357.836	0.49
358.202	0.5
358.567	0.5
358.932	0.51
359.297	0.52
359.663	0.52
360.028	0.54
360.393	0.54
360.758	0.55
361.123	0.56
361.488	0.57
361.853	0.58
362.218	0.59
362.583	0.6
362.948	0.6
363.312	0.6
363.677	0.61
364.042	0.62
364.407	0.62
364.772	0.64
365.136	0.63
365.501	0.64
365.865	0.65
366.23	0.65
366.595	0.67
366.959	0.67
367.324	0.67
367.688	0.68
368.052	0.69
368.417	0.7
368.781	0.7
369.145	0.7
369.51	0.71
369.874	0.72
370.238	0.72
370.602	0.72
370.967	0.73
371.331	0.74
371.695	0.74
372.059	0.74
372.423	0.73
372.787	0.74
373.151	0.75
373.515	0.74
373.878	0.73
374.242	0.73
374.606	0.73
374.97	0.73
375.334	0.72
375.697	0.72
376.061	0.72
376.425	0.7
376.788	0.7
377.152	0.69
377.515	0.69
377.879	0.68
378.242	0.67
378.606	0.67
378.969	0.66
379.333	0.65
379.696	0.64
380.059	0.63
380.422	0.64
380.786	0.63
381.149	0.62
381.512	0.61
381.875	0.62
382.238	0.6
382.601	0.6
382.964	0.59
383.327	0.59
383.69	0.58
384.053	0.58
384.416	0.57
384.779	0.58
385.142	0.57
385.504	0.57
385.867	0.57
386.23	0.57
386.593	0.57
386.955	0.57
387.318	0.57
387.68	0.57
388.043	0.57
388.405	0.58
388.768	0.57
389.13	0.58
389.493	0.57
389.855	0.57
390.217	0.57
390.58	0.57
390.942	0.56
391.304	0.55
391.666	0.55
392.028	0.55
392.391	0.54
392.753	0.53
393.115	0.53
393.477	0.52
393.839	0.52
394.201	0.51
394.563	0.52
394.924	0.51
395.286	0.52
395.648	0.52
396.01	0.52
396.371	0.53
396.733	0.53
397.095	0.55
397.456	0.56
397.818	0.57
398.18	0.59
398.541	0.61
398.903	0.62
399.264	0.64
399.625	0.65
399.987	0.66
400.348	0.68
400.709	0.69
401.071	0.69
401.432	0.7
401.793	0.7
402.154	0.69
402.515	0.68
402.876	0.67
403.238	0.66
403.599	0.65
403.96	0.62
404.32	0.6
404.681	0.58
405.042	0.56
405.403	0.54
405.764	0.5
406.125	0.47
406.485	0.45
406.846	0.43
407.207	0.4
407.567	0.38
407.928	0.36
408.288	0.34
408.649	0.32
409.009	0.31
409.37	0.28
409.73	0.27
410.091	0.26
410.451	0.24
410.811	0.23
411.171	0.22
411.532	0.2
411.892	0.2
412.252	0.19
412.612	0.17
412.972	0.17
413.332	0.16
413.692	0.16
414.052	0.14
414.412	0.14
414.772	0.14
415.132	0.13
415.492	0.13
415.851	0.12
416.211	0.11
416.571	0.11
416.931	0.12
417.29	0.1
417.65	0.1
418.009	0.11
418.369	0.1
418.728	0.1
419.088	0.1
419.447	0.1
419.807	0.09
420.166	0.09
420.525	0.08
420.884	0.08
421.244	0.09
421.603	0.08
421.962	0.07
422.321	0.09
422.68	0.08
423.039	0.08
423.398	0.07
423.757	0.07
424.116	0.08
424.475	0.07
424.834	0.08
425.193	0.06
425.551	0.07
425.91	0.06
426.269	0.07
426.628	0.06
426.986	0.07
427.345	0.07
427.703	0.07
428.062	0.07
428.42	0.07
428.779	0.07
429.137	0.06
429.496	0.06
429.854	0.06
430.212	0.06
430.57	0.06
430.929	0.06
431.287	0.05
431.645	0.06
432.003	0.05
432.361	0.06
432.719	0.06
433.077	0.06
433.435	0.05
433.793	0.06
434.151	0.06
434.509	0.06
434.866	0.04
435.224	0.06
435.582	0.06
435.94	0.06
436.297	0.06
436.655	0.05
437.012	0.05
437.37	0.06
437.727	0.05
438.085	0.05
438.442	0.05
438.8	0.05
439.157	0.06
439.514	0.06
439.872	0.05
440.229	0.05
440.586	0.05
440.943	0.05
441.3	0.05
441.657	0.05
442.014	0.05
442.371	0.05
442.728	0.05
443.085	0.05
443.442	0.05
443.799	0.05
444.156	0.05
444.513	0.05
444.869	0.05
445.226	0.05
445.583	0.05
445.939	0.05
446.296	0.05
446.652	0.05
447.009	0.05
447.365	0.05
447.722	0.05
448.078	0.04
448.434	0.05
448.791	0.05
449.147	0.05
449.503	0.05
449.859	0.05
450.215	0.04
450.571	0.05
450.928	0.04
451.284	0.05
451.64	0.04
451.995	0.04
452.351	0.04
452.707	0.04
453.063	0.04
453.419	0.04
453.775	0.03
454.13	0.03
454.486	0.03
454.842	0.03
455.197	0.03
455.553	0.02
455.908	0.02
456.264	0.01
456.619	0.03
456.975	0.02
457.33	0.03
457.685	0.01
458.04	0.03
458.396	0.02
458.751	0.01
459.106	0
459.461	0
459.816	0
460.171	-0
460.526	0.01
460.881	-0.01
461.236	-0.01
461.591	-0.01
461.946	-0
462.301	-0.01
462.655	-0.02
463.01	-0.01
463.365	-0.02
463.719	-0.03
464.074	-0.04
464.428	-0.04
464.783	-0.04
465.137	-0.03
465.492	-0.03
465.846	-0.05
466.201	-0.04
466.555	-0.04
466.909	-0.04
467.263	-0.03
467.618	-0.03
467.972	-0.03
468.326	-0.03
468.68	-0.04
469.034	-0.04
469.388	-0.05
469.742	-0.05
470.096	-0.04
470.45	-0.04
470.804	-0.04
471.157	-0.03
471.511	-0.03
471.865	-0.04
472.218	-0.03
472.572	-0.02
472.926	-0.02
473.279	-0.02
473.633	-0.01
473.986	-0
474.34	-0
474.693	-0
475.046	0
475.4	0.01
475.753	0.02
476.106	0.03
476.459	0.03
476.812	0.03
477.165	0.04
477.519	0.05
477.872	0.05
478.224	0.05
478.577	0.05
478.93	0.06
479.283	0.05
479.636	0.06
479.989	0.07
480.341	0.07
480.694	0.08
481.047	0.08
481.399	0.08
481.752	0.09
482.104	0.09
482.457	0.09
482.809	0.09
483.162	0.1
483.514	0.1
483.866	0.1
484.219	0.1
484.571	0.1
484.923	0.1
485.275	0.11
485.627	0.11
485.979	0.11
486.331	0.12
486.683	0.12
487.035	0.12
487.387	0.12
487.739	0.13
488.091	0.13
488.443	0.13
488.794	0.14
489.146	0.13
489.498	0.13
489.849	0.14
490.201	0.14
490.552	0.14
490.904	0.14
491.255	0.14
491.607	0.15
491.958	0.15
492.309	0.15
492.661	0.15
493.012	0.15
493.363	0.16
493.714	0.16
494.065	0.15
494.416	0.16
494.767	0.16
495.118	0.16
495.469	0.16
495.82	0.16
496.171	0.17
496.522	0.17
496.872	0.17
497.223	0.18
497.574	0.17
497.924	0.18
498.275	0.18
498.626	0.18
498.976	0.18
499.327	0.18
499.677	0.19
500.027	0.19
500.378	0.19
500.728	0.19
501.078	0.19
501.428	0.19
501.779	0.2
502.129	0.19
502.479	0.19
502.829	0.21
503.179	0.2
503.529	0.2
503.879	0.21
504.229	0.21
504.578	0.21
504.928	0.21
505.278	0.21
505.628	0.21
505.977	0.22
506.327	0.21
506.676	0.22
507.026	0.22
507.375	0.22
507.725	0.22
508.074	0.22
508.424	0.22
508.773	0.23
509.122	0.23
509.471	0.23
509.82	0.23
510.17	0.23
510.519	0.23
510.868	0.24
511.217	0.23
511.566	0.24
511.915	0.24
512.263	0.24
512.612	0.24
512.961	0.24
513.31	0.25
513.659	0.25
514.007	0.25
514.356	0.25
514.704	0.25
515.053	0.25
515.401	0.25
515.75	0.25
516.098	0.25
516.447	0.25
516.795	0.26
517.143	0.26
517.491	0.26
517.839	0.26
518.188	0.26
518.536	0.26
518.884	0.27
519.232	0.27
519.58	0.27
519.928	0.27
520.275	0.27
520.623	0.27
520.971	0.27
521.319	0.27
521.666	0.27
522.014	0.27
522.362	0.27
522.709	0.28
523.057	0.28
523.404	0.28
523.752	0.28
524.099	0.28
524.446	0.28
524.794	0.28
525.141	0.28
525.488	0.28
525.835	0.29
526.182	0.29
526.529	0.29
526.876	0.29
527.223	0.29
527.57	0.29
527.917	0.29
528.264	0.29
528.611	0.29
528.958	0.29
529.304	0.3
529.651	0.29
529.998	0.3
530.344	0.3
530.691	0.3
531.037	0.3
531.384	0.3
531.73	0.3
532.076	0.31
532.423	0.3
532.769	0.3
533.115	0.3
533.461	0.3
533.807	0.31
534.154	0.31
534.5	0.31
534.846	0.31
535.192	0.31
535.537	0.31
535.883	0.31
536.229	0.31
536.575	0.31
536.921	0.31
537.266	0.32
537.612	0.32
537.957	0.31
538.303	0.31
538.649	0.32
538.994	0.32
539.339	0.32
539.685	0.32
540.03	0.32
540.375	0.32
540.721	0.32
541.066	0.32
541.411	0.32
541.756	0.32
542.101	0.33
542.446	0.32
542.791	0.32
543.136	0.33
543.481	0.33
543.825	0.33
544.17	0.33
544.515	0.33
544.86	0.33
545.204	0.33
545.549	0.33
545.893	0.33
546.238	0.33
546.582	0.33
546.927	0.33
547.271	0.33
547.615	0.34
547.96	0.34
548.304	0.33
548.648	0.33
548.992	0.33
549.336	0.33
549.68	0.34
550.024	0.34
550.368	0.34
550.712	0.34
551.056	0.34
551.4	0.34
551.743	0.34
552.087	0.34
552.431	0.34
552.774	0.34
553.118	0.34
553.462	0.34
553.805	0.34
554.148	0.34
554.492	0.34
554.835	0.34
555.178	0.34
555.522	0.34
555.865	0.34
556.208	0.34
556.551	0.34
556.894	0.34
557.237	0.34
557.58	0.34
557.923	0.34
558.266	0.34
558.609	0.34
558.952	0.34
559.294	0.34
559.637	0.34
559.98	0.34
560.322	0.34
560.665	0.34
561.007	0.34
561.35	0.34
561.692	0.34
562.034	0.33
562.377	0.34
562.719	0.34
563.061	0.34
563.403	0.34
563.745	0.34
564.088	0.34
564.43	0.34
564.772	0.34
565.113	0.34
565.455	0.34
565.797	0.34
566.139	0.34
566.481	0.34
566.822	0.34
567.164	0.34
567.506	0.34
567.847	0.34
568.189	0.33
568.53	0.34
568.872	0.33
569.213	0.33
569.554	0.33
569.895	0.33
570.237	0.33
570.578	0.33
570.919	0.33
571.26	0.33
571.601	0.33
571.942	0.33
572.283	0.33
572.624	0.33
572.965	0.32
573.306	0.32
573.646	0.32
573.987	0.32
574.328	0.32
574.668	0.32
575.009	0.32
575.349	0.32
575.69	0.32
576.03	0.31
576.37	0.31
576.711	0.31
577.051	0.31
577.391	0.32
577.731	0.32
578.072	0.32
578.412	0.31
578.752	0.31
579.092	0.31
579.431	0.3
579.771	0.28
580.111	0.28
580.451	0.29
580.791	0.31
581.13	0.31
581.47	0.31
581.81	0.31
582.149	0.31
582.489	0.31
582.828	0.29
583.167	0.27
583.507	0.23
583.846	0.23
584.185	0.27
584.525	0.29
584.864	0.3
585.203	0.31
585.542	0.31
585.881	0.31
586.22	0.31
586.559	0.3
586.898	0.29
587.236	0.28
587.575	0.29
587.914	0.29
588.252	0.3
588.591	0.3
588.93	0.31
589.268	0.3
589.607	0.3
589.945	0.3
590.283	0.3
590.622	0.3
590.96	0.31
591.298	0.31
591.636	0.31
591.974	0.31
592.313	0.31
592.651	0.31
592.989	0.31
593.326	0.31
593.664	0.31
594.002	0.31
594.34	0.31
594.678	0.3
595.015	0.3
595.353	0.3
595.691	0.3
596.028	0.31
596.366	0.31
596.703	0.31
597.04	0.31
597.378	0.31
597.715	0.31
598.052	0.31
598.389	0.31
598.726	0.31
599.064	0.32
599.401	0.31
599.738	0.32
600.074	0.31
600.411	0.31
600.748	0.31
601.085	0.31
601.422	0.3
601.758	0.3
602.095	0.3
602.432	0.3
602.768	0.31
603.105	0.31
603.441	0.31
603.777	0.31
604.114	0.31
604.45	0.31
604.786	0.31
605.122	0.31
605.459	0.31
605.795	0.31
606.131	0.31
606.467	0.31
606.803	0.31
607.139	0.31
607.474	0.3
607.81	0.3
608.146	0.3
608.482	0.3
608.817	0.3
609.153	0.3
609.488	0.3
609.824	0.3
610.159	0.3
610.495	0.3
610.83	0.3
611.165	0.3
611.5	0.3
611.836	0.3
612.171	0.29
612.506	0.29
612.841	0.29
613.176	0.3
613.511	0.29
613.845	0.29
614.18	0.29
614.515	0.29
614.85	0.28
615.184	0.28
615.519	0.28
615.854	0.29
616.188	0.28
616.523	0.28
616.857	0.28
617.191	0.28
617.526	0.28
617.86	0.28
618.194	0.28
618.528	0.28
618.862	0.28
619.196	0.28
619.53	0.28
619.864	0.28
620.198	0.28
620.532	0.28
620.866	0.28
621.2	0.27
621.533	0.28
621.867	0.27
622.201	0.27
622.534	0.27
622.868	0.27
623.201	0.27
623.534	0.27
623.868	0.27
624.201	0.27
624.534	0.26
624.868	0.26
625.201	0.26
625.534	0.26
625.867	0.26
626.2	0.26
626.533	0.26
626.865	0.25
627.198	0.25
627.531	0.25
627.864	0.25
628.196	0.25
628.529	0.25
628.862	0.25
629.194	0.25
629.527	0.24
629.859	0.24
630.191	0.24
630.524	0.24
630.856	0.24
631.188	0.24
631.52	0.23
631.852	0.24
632.184	0.23
632.516	0.23
632.848	0.23
633.18	0.23
633.512	0.23
633.844	0.22
634.175	0.22
634.507	0.22
634.839	0.22
635.17	0.22
635.502	0.22
635.833	0.22
636.165	0.22
636.496	0.21
636.827	0.21
637.159	0.21
637.49	0.21
637.821	0.21
638.152	0.21
638.483	0.2
638.814	0.2
639.145	0.21
639.476	0.2
639.807	0.2
640.137	0.2
640.468	0.2
640.799	0.2
641.129	0.19
641.46	0.19
641.791	0.19
642.121	0.19
642.451	0.19
642.782	0.18
643.112	0.18
643.442	0.19
643.773	0.18
644.103	0.18
644.433	0.18
644.763	0.18
645.093	0.18
645.423	0.18
645.753	0.18
646.082	0.18
646.412	0.18
646.742	0.18
647.072	0.18
647.401	0.18
647.731	0.17
648.06	0.17
648.39	0.18
648.719	0.17
649.048	0.18
649.378	0.17
649.707	0.17
650.036	0.17
650.365	0.17
650.694	0.17
651.023	0.17
651.352	0.17
651.681	0.17
652.01	0.17
652.339	0.17
652.668	0.17
652.996	0.16
653.325	0.17
653.654	0.17
653.982	0.16
654.311	0.16
654.639	0.16
654.967	0.16
655.296	0.16
655.624	0.16
655.952	0.16
656.28	0.16
656.609	0.16
656.937	0.16
657.265	0.15
657.593	0.02
657.92	0
658.248	-0
658.576	0
658.904	0.07
659.231	0.15
659.559	0.16
659.887	0.16
660.214	0.16
660.542	0.16
660.869	0.15
661.196	0.15
661.524	0.15
661.851	0.15
662.178	0.15
662.505	0.15
662.832	0.15
663.159	0.15
663.486	0.15
663.813	0.15
664.14	0.15
664.467	0.15
664.794	0.15
665.12	0.15
665.447	0.15
665.774	0.14
666.1	0.15
666.427	0.14
666.753	0.14
667.079	0.14
667.406	0.14
667.732	0.14
668.058	0.14
668.384	0.14
668.71	0.14
669.036	0.14
669.362	0.14
669.688	0.14
670.014	0.14
670.34	0.14
670.666	0.13
670.991	0.13
671.317	0.13
671.643	0.13
671.968	0.13
672.294	0.13
672.619	0.13
672.945	0.13
673.27	0.12
673.595	0.12
673.92	0.12
674.246	0.12
674.571	0.12
674.896	0.12
675.221	0.12
675.546	0.12
675.87	0.12
676.195	0.12
676.52	0.12
676.845	0.12
677.169	0.12
677.494	0.11
677.819	0.11
678.143	0.11
678.468	0.11
678.792	0.11
679.116	0.11
679.44	0.11
679.765	0.1
680.089	0.1
680.413	0.1
680.737	0.1
681.061	0.1
681.385	0.1
681.709	0.1
682.033	0.1
682.356	0.09
682.68	0.1
683.004	0.1
683.327	0.09
683.651	0.09
683.974	0.09
684.298	0.09
684.621	0.09
684.944	0.09
685.268	0.09
685.591	0.09
685.914	0.08
686.237	0.08
686.56	0.08
686.883	0.08
687.206	0.08
687.529	0.08
687.852	0.08
688.175	0.08
688.497	0.08
688.82	0.08
689.142	0.07
689.465	0.07
689.787	0.07
690.11	0.07
690.432	0.07
690.755	0.07
691.077	0.07
691.399	0.07
691.721	0.07
692.043	0.07
692.365	0.07
692.687	0.06
693.009	0.06
693.331	0.06
693.653	0.06
693.974	0.06
694.296	0.06
694.618	0.06
694.939	0.05
695.261	0.06
695.582	0.05
695.904	0.05
696.225	0.05
696.546	0.06
696.868	0.05
697.189	0.05
697.51	0.05
697.831	0.05
698.152	0.06
698.473	0.05
698.794	0.04
699.114	0.04
699.435	0.04
699.756	0.04
700.077	0.05
700.397	0.05
700.718	0.05
701.038	0.05
701.359	0.05
701.679	0.05
701.999	0.05
702.32	0.05
702.64	0.04
702.96	0.04
703.28	0.05
703.6	0.04
703.92	0.04
704.24	0.04
704.56	0.04
704.879	0.04
705.199	0.04
705.519	0.04
705.838	0.04
706.158	0.04
706.478	0.05
706.797	0.04
707.116	0.04
707.436	0.04
707.755	0.04
708.074	0.04
708.393	0.04
708.712	0.03
709.031	0.02
709.35	0.02
709.669	0.03
709.988	0.03
710.307	0.03
710.626	0.03
710.944	0.04
711.263	0.04
711.582	0.04
711.9	0.04
712.219	0.03
712.537	0.04
712.855	0.04
713.174	0.04
713.492	0.03
713.81	0.03
714.128	0.03
714.446	0.04
714.764	0.03
715.082	0.03
715.4	0.03
715.718	0.03
716.035	0.03
716.353	0.04
716.671	0.04
716.988	0.04
717.306	0.03
717.623	0.04
717.941	0.04
718.258	0.04
718.575	0.04
718.893	0.04
719.21	0.04
719.527	0.04
719.844	0.04
720.161	0.04
720.478	0.04
720.795	0.04
721.112	0.04
721.428	0.04
721.745	0.04
722.062	0.04
722.378	0.05
722.695	0.04
723.011	0.04
723.328	0.04
723.644	0.04
723.96	0.04
724.276	0.04
724.593	0.04
724.909	0.05
725.225	0.04
725.541	0.04
725.857	0.04
726.173	0.05
726.488	0.05
726.804	0.05
727.12	0.04
727.435	0.04
727.751	0.04
728.067	0.04
728.382	0.04
728.697	0.05
729.013	0.05
729.328	0.04
729.643	0.04
729.958	0.04
730.273	0.04
730.588	0.04
730.903	0.04
731.218	0.04
731.533	0.04
731.848	0.04
732.163	0.04
732.477	0.03
732.792	0.03
733.107	0.03
733.421	0.04
733.736	0.04
734.05	0.04
734.364	0.04
734.678	0.04
734.993	0.04
735.307	0.04
735.621	0.04
735.935	0.04
736.249	0.04
736.563	0.04
736.877	0.04
737.19	0.04
737.504	0.04
737.818	0.04
738.131	0.04
738.445	0.04
738.758	0.04
739.072	0.04
739.385	0.04
739.698	0.04
740.012	0.04
740.325	0.04
740.638	0.04
740.951	0.04
741.264	0.04
741.577	0.04
741.89	0.04
742.203	0.04
742.515	0.04
742.828	0.03
743.141	0.03
743.453	0.03
743.766	0.04
744.078	0.03
744.391	0.03
744.703	0.03
745.015	0.04
745.327	0.04
745.639	0.03
745.952	0.04
746.264	0.03
746.575	0.04
746.887	0.04
747.199	0.03
747.511	0.03
747.823	0.03
748.134	0.03
748.446	0.03
748.757	0.03
749.069	0.03
749.38	0.03
749.692	0.03
750.003	0.02
750.314	0.02
750.625	0.02
750.936	0.02
751.248	0.02
751.559	0.02
751.869	0.02
752.18	0.02
752.491	0.02
752.802	0.02
753.112	0.02
753.423	0.02
753.734	0.02
754.044	0.02
754.355	0.02
754.665	0.02
754.975	0.02
755.285	0.02
755.596	0.02
755.906	0.02
756.216	0.02
756.526	0.02
756.836	0.02
757.146	0.02
757.455	0.02
757.765	0.02
758.075	0.02
758.385	0.02
758.694	0.02
759.004	0.01
759.313	0.01
759.622	0.02
759.932	0.02
760.241	0.02
760.55	0.02
760.859	0.02
761.168	0.02
761.477	0.02
761.786	0.02
762.095	0.02
762.404	0.02
762.713	0.02
763.021	0.01
763.33	0.02
763.639	0.02
763.947	0.02
764.256	0.01
764.564	0.02
764.872	0.02
765.181	0.02
765.489	0.01
765.797	0.01
766.105	0.01
766.413	0.01
766.721	0.01
767.029	0.01
767.337	0.01
767.644	0.02
767.952	0.02
768.26	0.02
768.567	0.02
768.875	0.02
769.182	0.02
769.49	0.01
769.797	0.01
770.104	0.01
770.411	0.01
770.718	0.01
771.026	0.02
771.333	0.01
771.639	0.01
771.946	0.01
772.253	0.01
772.56	0.01
772.867	0.01
773.173	0.01
773.48	0.01
773.786	0.01
774.093	0.01
774.399	0.01
774.705	0.01
775.012	0.01
775.318	0.01
775.624	0.01
775.93	0.01
776.236	0.01
776.542	0.02
776.848	0.02
777.154	0.02
777.459	0.01
777.765	0.01
778.071	0.01
778.376	0.01
778.682	0.01
778.987	0.02
779.292	0.01
779.598	0.01
779.903	0.01
780.208	0.01
780.513	0.01
780.818	0.01
781.123	0.01
781.428	0.01
781.733	0.01
782.038	0.01
782.343	0.01
782.647	0.01
782.952	0.01
783.256	0.01
783.561	0.01
783.865	0.01
784.17	0.01
784.474	0.01
784.778	0
785.082	0.01
785.386	0.01
785.69	0.01
785.994	0.01
786.298	0.01
786.602	0.01
786.906	0.01
787.209	0.01
787.513	0.01
787.817	0.02
788.12	0.01
788.424	0.02
788.727	0.02
789.03	0.02
789.333	0.02
789.637	0.02
789.94	0.02
790.243	0.02
790.546	0.02
790.849	0.02
791.152	0.02
791.454	0.02
791.757	0.02
792.06	0.02
792.362	0.02
792.665	0.02
792.967	0.02
793.27	0.02
793.572	0.02
793.874	0.02
794.177	0.01
794.479	0.02
794.781	0.01
795.083	0.02
795.385	0.01
795.687	0.02
795.989	0.02
796.29	0.02
796.592	0.02
796.894	0.02
797.195	0.02
797.497	0.02
797.798	0.02
798.1	0.01
798.401	0.01
798.702	0.02
799.003	0.01
799.304	0.02
799.605	0.02
799.906	0.02
800.207	0.02
800.508	0.02
800.809	0.02
801.11	0.02
801.41	0.02
801.711	0.01
802.011	0.02
802.312	0.02
802.612	0.01
802.913	0.01
803.213	0.01
803.513	0.01
803.813	0.02
804.113	0.02
804.413	0.02
804.713	0.02
805.013	0.02
805.313	0.02
805.613	0.02
805.912	0.02
806.212	0.02
806.511	0.02
806.811	0.02
807.11	0.02
807.41	0.02
807.709	0.02
808.008	0.02
808.307	0.02
808.606	0.02
808.905	0.01
809.204	0.01
809.503	0.02
809.802	0.02
810.101	0.02
810.399	0.02
810.698	0.02
810.997	0.02
811.295	0.02
811.593	0.02
811.892	0.02
812.19	0.02
812.488	0.02
812.786	0.02
813.084	0.02
813.383	0.03
813.68	0.02
813.978	0.02
814.276	0.02
814.574	0.02
814.872	0.02
815.169	0.02
815.467	0.02
815.764	0.02
816.062	0.02
816.359	0.02
816.656	0.02
816.954	0.02
817.251	0.02
817.548	0.02
817.845	0.03
818.142	0.03
818.439	0.03
818.735	0.03
819.032	0.03
819.329	0.03
819.626	0.03
819.922	0.03
820.219	0.03
820.515	0.03
820.811	0.03
821.108	0.03
821.404	0.03
821.7	0.03
821.996	0.03
822.292	0.04
822.588	0.04
822.884	0.04
823.18	0.04
823.475	0.04
823.771	0.04
824.067	0.03
824.362	0.03
824.658	0.03
824.953	0.03
825.249	0.03
825.544	0.03
825.839	0.04
826.134	0.03
826.429	0.03
826.724	0.03
827.019	0.03
827.314	0.03
827.609	0.03
827.904	0.03
828.198	0.03
828.493	0.03
828.787	0.03
829.082	0.03
829.376	0.04
829.671	0.04
829.965	0.04
830.259	0.04
830.553	0.04
830.847	0.04
831.141	0.04
831.435	0.04
831.729	0.05
832.023	0.04
832.317	0.04
832.61	0.04
832.904	0.05
833.197	0.04
833.491	0.04
833.784	0.04
834.077	0.04
834.371	0.05
834.664	0.04
834.957	0.04
835.25	0.04
835.543	0.04
835.836	0.04
836.129	0.04
836.421	0.04
836.714	0.04
837.007	0.04
837.299	0.05
837.592	0.05
837.884	0.05
838.177	0.04
838.469	0.05
838.761	0.04
839.053	0.04
839.345	0.04
839.637	0.04
839.929	0.04
840.221	0.04
840.513	0.04
840.805	0.04
841.096	0.05
841.388	0.05
841.68	0.04
841.971	0.04
842.262	0.04
842.554	0.04
842.845	0.04
843.136	0.04
843.427	0.04
843.718	0.04
844.009	0.03
844.3	0.04
844.591	0.04
844.882	0.05
845.173	0.05
845.463	0.05
845.754	0.05
846.044	0.05
846.335	0.04
846.625	0.05
846.915	0.05
847.206	0.05
847.496	0.05
847.786	0.05
848.076	0.04
848.366	0.05
848.656	0.03
848.945	0.04
849.235	0.04
849.525	0.05
849.814	0.04
850.104	0.03
850.393	0.04
850.683	0.05
850.972	0.04
851.261	0.05
851.551	0.06
851.84	0.06
852.129	0.05
852.418	0.05
852.707	0.06
852.995	0.05
853.284	0.04
853.573	0.04
853.862	0.03
854.15	0.06
854.439	0.04
854.727	0.04
855.015	0.05
855.304	0.06
855.592	0.05
855.88	0.05
856.168	0.05
856.456	0.03
856.744	0.04
857.032	0.05
857.32	0.04
857.607	0.04
857.895	0.06
858.183	0.06
858.47	0.04
858.757	0.03
859.045	0.04
859.332	0.04
859.619	0.06
859.907	0.06
860.194	0.03
860.481	0.06
860.768	0.05
861.054	0.04
861.341	0.06
861.628	0.05
861.915	0.04
862.201	0.07
862.488	0.07
862.774	0.05
863.061	0.05
863.347	0.06
863.633	0.06
863.919	0.03
864.205	0.03
864.491	0.05
864.777	0.07
865.063	0.05
865.349	0.06
865.635	0.08
865.92	0.09
866.206	0.06
866.492	0.07
866.777	0.08
867.062	0.08
867.348	0.05
867.633	0.04
867.918	0.11
868.203	0.03
868.488	0.06
868.773	0.08
869.058	0.07
869.343	0.07
869.628	0.06
869.912	0.05
870.197	0.07
870.482	0.06
870.766	0.07
871.05	0.05
871.335	0.08
871.619	0.05
871.903	0.08
872.187	0.05
872.471	0.03
872.755	0.09
873.039	0.06
873.323	0.06
873.607	0.05
873.89	0.07
874.174	0.07
874.458	0.1
874.741	0.01
875.024	0.08
875.308	0.04
875.591	0.05
875.874	0.08
876.157	0.02
876.44	-0.02
876.723	-0.03
877.006	0.02
877.289	0.02
877.572	0.07
877.854	0.04
878.137	0
878.42	-0.01
878.702	0.07
878.984	0.12
879.267	0.13
879.549	0.02
879.831	0.04
880.113	0.05
880.395	0.01
880.677	-0.03
880.959	0.01
