Data from Rubpy_BV_1800_EDTA_Buffered_Absorbance_14-57-54-978.txt Node
Date: Wed Jul 01 14:57:54 BST 2026
User: fpm-admin
Spectrometer: OFX00224
Trigger mode: 0
Integration Time (sec): 7.000000E-2
Scans to average: 3
Nonlinearity correction enabled: false
Boxcar width: 0
Storing dark spectrum: false
XAxis mode: Wavelengths
Number of Pixels in Spectrum: 2136
>>>>>Begin Spectral Data<<<<<
154.91	0.05
155.289	0.01
155.669	-0.8
156.048	-0
156.428	-0
156.807	-0
157.186	-0
157.566	-0.2
157.945	-0.19
158.325	1.18
158.704	1.03
159.083	-0
159.462	-0
159.842	-0
160.221	-1.1
160.6	-0.25
160.979	-0.12
161.359	-0
161.738	0.27
162.117	-0
162.496	-0.22
162.875	-0.07
163.254	0.54
163.633	-0
164.012	-0
164.391	-0.85
164.77	-0.44
165.149	-0
165.528	-0.3
165.907	-0.98
166.286	-0
166.665	-0.31
167.044	0.31
167.423	-0.27
167.802	-0
168.181	-0
168.559	-0
168.938	-0.32
169.317	-0
169.696	-0
170.074	0.48
170.453	1.32
170.832	-0.57
171.21	-0
171.589	-0
171.968	0.1
172.346	-0
172.725	-0
173.103	0.25
173.482	0.18
173.861	-0
174.239	0.5
174.617	-0.41
174.996	0.64
175.374	-0
175.753	0.15
176.131	-0
176.51	0.09
176.888	-0
177.266	-0
177.645	-0.09
178.023	1.27
178.401	-0.04
178.779	-0.18
179.158	-1.46
179.536	-0.59
179.914	-0.08
180.292	1.45
180.67	-0.11
181.048	-0.26
181.427	0.05
181.805	-0.85
182.183	-1.54
182.561	0.07
182.939	0.07
183.317	-0
183.695	-0
184.073	0.22
184.451	0.36
184.829	-0.39
185.206	-0.46
185.584	-0.03
185.962	-0
186.34	0.34
186.718	-0.11
187.096	0.3
187.473	0.19
187.851	-0
188.229	-0
188.607	0.16
188.984	0.23
189.362	0.29
189.74	0.1
190.117	0.31
190.495	0.2
190.872	0.32
191.25	0.23
191.627	0.17
192.005	0.15
192.382	0.05
192.76	0.09
193.137	0.27
193.515	0.37
193.892	0.32
194.269	0.23
194.647	0.2
195.024	0.07
195.401	0.26
195.779	0.27
196.156	0.06
196.533	0.23
196.91	0.07
197.288	0.12
197.665	0.21
198.042	0.19
198.419	0.17
198.796	0.07
199.173	0.22
199.55	0.33
199.927	0.21
200.304	0.19
200.681	0.27
201.058	0.21
201.435	0.27
201.812	0.2
202.189	0.2
202.566	0.22
202.943	0.26
203.32	0.2
203.697	0.28
204.073	0.28
204.45	0.28
204.827	0.21
205.204	0.24
205.58	0.35
205.957	0.23
206.334	0.27
206.71	0.21
207.087	0.2
207.464	0.21
207.84	0.25
208.217	0.32
208.593	0.33
208.97	0.24
209.346	0.11
209.723	0.23
210.099	0.22
210.476	0.2
210.852	0.29
211.228	0.22
211.605	0.28
211.981	0.32
212.357	0.14
212.733	0.26
213.11	0.21
213.486	0.22
213.862	0.28
214.238	0.32
214.614	0.29
214.991	0.19
215.367	0.2
215.743	0.22
216.119	0.32
216.495	0.22
216.871	0.33
217.247	0.24
217.623	0.24
217.999	0.17
218.375	0.27
218.751	0.37
219.127	0.35
219.502	0.23
219.878	0.33
220.254	0.4
220.63	0.25
221.006	0.28
221.381	0.15
221.757	0.26
222.133	0.26
222.508	0.07
222.884	0.19
223.26	0.18
223.635	0.31
224.011	0.2
224.386	0.22
224.762	0.26
225.137	0.24
225.513	0.18
225.888	0.17
226.264	0.14
226.639	0.17
227.014	0.2
227.39	0.24
227.765	0.2
228.14	0.35
228.516	0.35
228.891	0.28
229.266	0.15
229.641	0.14
230.017	0.25
230.392	0.29
230.767	0.28
231.142	0.18
231.517	0.1
231.892	0.23
232.267	0.21
232.642	0.23
233.017	0.22
233.392	0.21
233.767	0.25
234.142	0.11
234.517	0.29
234.892	0.2
235.267	0.32
235.641	0.09
236.016	0.17
236.391	0.29
236.766	0.23
237.14	0.31
237.515	0.23
237.89	0.24
238.264	0.21
238.639	0.06
239.014	0.35
239.388	0.3
239.763	0.21
240.137	0.24
240.512	0.15
240.886	0.23
241.261	0.18
241.635	0.17
242.009	0.26
242.384	0.2
242.758	0.19
243.132	0.2
243.507	0.17
243.881	0.2
244.255	0.16
244.629	0.2
245.004	0.23
245.378	0.25
245.752	0.17
246.126	0.27
246.5	0.29
246.874	0.41
247.248	0.4
247.622	0.29
247.996	0.19
248.37	0.25
248.744	0.15
249.118	0.21
249.492	0.29
249.866	0.26
250.24	0.26
250.613	0.26
250.987	0.23
251.361	0.35
251.735	0.19
252.108	0.25
252.482	0.12
252.856	0.22
253.229	0.2
253.603	0.2
253.977	0.24
254.35	0.19
254.724	0.28
255.097	0.22
255.471	0.21
255.844	0.24
256.218	0.22
256.591	0.25
256.964	0.19
257.338	0.2
257.711	0.18
258.084	0.21
258.458	0.28
258.831	0.29
259.204	0.28
259.577	0.15
259.95	0.26
260.323	0.25
260.697	0.32
261.07	0.19
261.443	0.2
261.816	0.15
262.189	0.28
262.562	0.28
262.935	0.26
263.308	0.19
263.68	0.27
264.053	0.2
264.426	0.31
264.799	0.38
265.172	0.3
265.545	0.28
265.917	0.32
266.29	0.35
266.663	0.3
267.035	0.15
267.408	0.33
267.781	0.27
268.153	0.24
268.526	0.25
268.898	0.22
269.271	0.17
269.643	0.2
270.016	0.15
270.388	0.21
270.76	0.23
271.133	0.27
271.505	0.26
271.877	0.24
272.25	0.26
272.622	0.2
272.994	0.34
273.366	0.22
273.739	0.17
274.111	0.18
274.483	0.2
274.855	0.23
275.227	0.24
275.599	0.22
275.971	0.25
276.343	0.27
276.715	0.2
277.087	0.27
277.459	0.1
277.831	0.29
278.203	0.29
278.574	0.21
278.946	0.19
279.318	0.34
279.69	0.21
280.061	0.18
280.433	0.3
280.805	0.27
281.176	0.24
281.548	0.27
281.92	0.15
282.291	0.27
282.663	0.23
283.034	0.18
283.406	0.2
283.777	0.29
284.148	0.27
284.52	0.23
284.891	0.26
285.262	0.27
285.634	0.28
286.005	0.17
286.376	0.25
286.747	0.33
287.119	0.29
287.49	0.19
287.861	0.19
288.232	0.27
288.603	0.3
288.974	0.29
289.345	0.18
289.716	0.21
290.087	0.2
290.458	0.27
290.829	0.26
291.2	0.22
291.571	0.27
291.941	0.31
292.312	0.24
292.683	0.27
293.054	0.21
293.424	0.21
293.795	0.21
294.166	0.21
294.536	0.23
294.907	0.24
295.277	0.2
295.648	0.17
296.018	0.23
296.389	0.33
296.759	0.18
297.13	0.25
297.5	0.22
297.871	0.17
298.241	0.22
298.611	0.24
298.981	0.24
299.352	0.3
299.722	0.28
300.092	0.24
300.462	0.24
300.832	0.25
301.202	0.24
301.573	0.21
301.943	0.19
302.313	0.24
302.683	0.24
303.053	0.21
303.422	0.28
303.792	0.25
304.162	0.26
304.532	0.18
304.902	0.21
305.272	0.24
305.641	0.21
306.011	0.22
306.381	0.23
306.75	0.26
307.12	0.21
307.49	0.25
307.859	0.19
308.229	0.23
308.598	0.2
308.968	0.19
309.337	0.18
309.707	0.18
310.076	0.19
310.445	0.2
310.815	0.16
311.184	0.2
311.553	0.16
311.923	0.16
312.292	0.2
312.661	0.2
313.03	0.16
313.399	0.15
313.768	0.16
314.137	0.15
314.506	0.19
314.875	0.15
315.244	0.18
315.613	0.15
315.982	0.18
316.351	0.19
316.72	0.2
317.089	0.19
317.458	0.17
317.826	0.18
318.195	0.19
318.564	0.18
318.933	0.19
319.301	0.18
319.67	0.2
320.038	0.19
320.407	0.19
320.775	0.2
321.144	0.2
321.512	0.2
321.881	0.21
322.249	0.2
322.618	0.21
322.986	0.2
323.354	0.22
323.723	0.22
324.091	0.2
324.459	0.22
324.827	0.22
325.195	0.23
325.564	0.23
325.932	0.24
326.3	0.25
326.668	0.23
327.036	0.24
327.404	0.25
327.772	0.25
328.14	0.26
328.508	0.25
328.875	0.26
329.243	0.26
329.611	0.26
329.979	0.26
330.346	0.27
330.714	0.28
331.082	0.28
331.449	0.29
331.817	0.28
332.185	0.29
332.552	0.3
332.92	0.3
333.287	0.31
333.655	0.31
334.022	0.33
334.389	0.33
334.757	0.33
335.124	0.33
335.491	0.34
335.859	0.36
336.226	0.36
336.593	0.36
336.96	0.37
337.327	0.37
337.695	0.38
338.062	0.38
338.429	0.39
338.796	0.4
339.163	0.41
339.53	0.42
339.897	0.43
340.263	0.43
340.63	0.44
340.997	0.45
341.364	0.45
341.731	0.46
342.097	0.47
342.464	0.47
342.831	0.48
343.197	0.49
343.564	0.5
343.931	0.51
344.297	0.52
344.664	0.52
345.03	0.53
345.396	0.54
345.763	0.55
346.129	0.56
346.496	0.56
346.862	0.56
347.228	0.58
347.594	0.58
347.961	0.6
348.327	0.6
348.693	0.61
349.059	0.61
349.425	0.62
349.791	0.63
350.157	0.64
350.523	0.64
350.889	0.66
351.255	0.66
351.621	0.67
351.987	0.68
352.353	0.68
352.719	0.69
353.084	0.7
353.45	0.71
353.816	0.72
354.181	0.72
354.547	0.74
354.913	0.74
355.278	0.75
355.644	0.76
356.009	0.76
356.375	0.78
356.74	0.8
357.106	0.81
357.471	0.81
357.836	0.82
358.202	0.83
358.567	0.85
358.932	0.85
359.297	0.86
359.663	0.87
360.028	0.89
360.393	0.9
360.758	0.92
361.123	0.92
361.488	0.93
361.853	0.95
362.218	0.96
362.583	0.98
362.948	0.97
363.312	1
363.677	1.01
364.042	1.02
364.407	1.03
364.772	1.05
365.136	1.05
365.501	1.06
365.865	1.07
366.23	1.08
366.595	1.09
366.959	1.09
367.324	1.1
367.688	1.11
368.052	1.12
368.417	1.14
368.781	1.13
369.145	1.14
369.51	1.14
369.874	1.16
370.238	1.17
370.602	1.19
370.967	1.18
371.331	1.18
371.695	1.19
372.059	1.19
372.423	1.17
372.787	1.18
373.151	1.2
373.515	1.21
373.878	1.18
374.242	1.2
374.606	1.17
374.97	1.16
375.334	1.16
375.697	1.15
376.061	1.13
376.425	1.14
376.788	1.12
377.152	1.13
377.515	1.09
377.879	1.09
378.242	1.08
378.606	1.07
378.969	1.05
379.333	1.05
379.696	1.02
380.059	1.02
380.422	1.02
380.786	1
381.149	1
381.512	0.97
381.875	0.98
382.238	0.96
382.601	0.95
382.964	0.94
383.327	0.92
383.69	0.92
384.053	0.91
384.416	0.91
384.779	0.9
385.142	0.89
385.504	0.88
385.867	0.89
386.23	0.88
386.593	0.88
386.955	0.87
387.318	0.87
387.68	0.87
388.043	0.88
388.405	0.87
388.768	0.87
389.13	0.87
389.493	0.87
389.855	0.87
390.217	0.86
390.58	0.85
390.942	0.85
391.304	0.84
391.666	0.82
392.028	0.82
392.391	0.8
392.753	0.79
393.115	0.78
393.477	0.79
393.839	0.77
394.201	0.76
394.563	0.76
394.924	0.77
395.286	0.77
395.648	0.76
396.01	0.77
396.371	0.77
396.733	0.79
397.095	0.8
397.456	0.82
397.818	0.83
398.18	0.86
398.541	0.86
398.903	0.9
399.264	0.92
399.625	0.94
399.987	0.95
400.348	0.97
400.709	0.98
401.071	0.99
401.432	0.99
401.793	0.99
402.154	0.98
402.515	0.98
402.876	0.95
403.238	0.93
403.599	0.92
403.96	0.88
404.32	0.85
404.681	0.83
405.042	0.79
405.403	0.76
405.764	0.72
406.125	0.69
406.485	0.65
406.846	0.62
407.207	0.59
407.567	0.55
407.928	0.53
408.288	0.5
408.649	0.47
409.009	0.45
409.37	0.42
409.73	0.4
410.091	0.37
410.451	0.36
410.811	0.34
411.171	0.32
411.532	0.3
411.892	0.29
412.252	0.28
412.612	0.26
412.972	0.25
413.332	0.24
413.692	0.23
414.052	0.22
414.412	0.21
414.772	0.21
415.132	0.2
415.492	0.2
415.851	0.19
416.211	0.18
416.571	0.18
416.931	0.17
417.29	0.16
417.65	0.16
418.009	0.16
418.369	0.15
418.728	0.15
419.088	0.15
419.447	0.14
419.807	0.14
420.166	0.13
420.525	0.13
420.884	0.13
421.244	0.13
421.603	0.12
421.962	0.12
422.321	0.12
422.68	0.11
423.039	0.11
423.398	0.11
423.757	0.11
424.116	0.11
424.475	0.11
424.834	0.11
425.193	0.1
425.551	0.11
425.91	0.1
426.269	0.1
426.628	0.1
426.986	0.1
427.345	0.1
427.703	0.1
428.062	0.09
428.42	0.1
428.779	0.11
429.137	0.09
429.496	0.1
429.854	0.09
430.212	0.1
430.57	0.1
430.929	0.09
431.287	0.09
431.645	0.09
432.003	0.09
432.361	0.09
432.719	0.09
433.077	0.09
433.435	0.09
433.793	0.09
434.151	0.09
434.509	0.09
434.866	0.08
435.224	0.09
435.582	0.09
435.94	0.09
436.297	0.1
436.655	0.09
437.012	0.09
437.37	0.09
437.727	0.08
438.085	0.08
438.442	0.09
438.8	0.08
439.157	0.08
439.514	0.09
439.872	0.09
440.229	0.08
440.586	0.09
440.943	0.09
441.3	0.09
441.657	0.09
442.014	0.08
442.371	0.08
442.728	0.09
443.085	0.09
443.442	0.09
443.799	0.08
444.156	0.09
444.513	0.09
444.869	0.08
445.226	0.09
445.583	0.09
445.939	0.09
446.296	0.09
446.652	0.08
447.009	0.09
447.365	0.09
447.722	0.09
448.078	0.09
448.434	0.08
448.791	0.09
449.147	0.09
449.503	0.08
449.859	0.08
450.215	0.09
450.571	0.08
450.928	0.09
451.284	0.09
451.64	0.08
451.995	0.08
452.351	0.08
452.707	0.08
453.063	0.07
453.419	0.07
453.775	0.07
454.13	0.08
454.486	0.08
454.842	0.08
455.197	0.07
455.553	0.07
455.908	0.07
456.264	0.07
456.619	0.06
456.975	0.07
457.33	0.07
457.685	0.06
458.04	0.06
458.396	0.06
458.751	0.05
459.106	0.05
459.461	0.05
459.816	0.05
460.171	0.04
460.526	0.05
460.881	0.04
461.236	0.03
461.591	0.04
461.946	0.03
462.301	0.03
462.655	0.02
463.01	0.03
463.365	0.02
463.719	0.02
464.074	0.02
464.428	0.01
464.783	0
465.137	0.01
465.492	0.01
465.846	0
466.201	0.01
466.555	0
466.909	0.01
467.263	0.02
467.618	0.02
467.972	0.02
468.326	0.02
468.68	0.01
469.034	0.01
469.388	0
469.742	0.01
470.096	0.01
470.45	0.02
470.804	0.01
471.157	0.02
471.511	0.02
471.865	0.01
472.218	0.01
472.572	0.03
472.926	0.03
473.279	0.03
473.633	0.04
473.986	0.05
474.34	0.06
474.693	0.07
475.046	0.07
475.4	0.08
475.753	0.08
476.106	0.09
476.459	0.1
476.812	0.1
477.165	0.11
477.519	0.11
477.872	0.12
478.224	0.12
478.577	0.13
478.93	0.14
479.283	0.14
479.636	0.14
479.989	0.14
480.341	0.15
480.694	0.16
481.047	0.16
481.399	0.16
481.752	0.17
482.104	0.18
482.457	0.18
482.809	0.19
483.162	0.19
483.514	0.19
483.866	0.19
484.219	0.2
484.571	0.2
484.923	0.2
485.275	0.21
485.627	0.21
485.979	0.21
486.331	0.22
486.683	0.22
487.035	0.22
487.387	0.23
487.739	0.24
488.091	0.24
488.443	0.24
488.794	0.24
489.146	0.24
489.498	0.24
489.849	0.25
490.201	0.25
490.552	0.25
490.904	0.25
491.255	0.26
491.607	0.26
491.958	0.26
492.309	0.26
492.661	0.27
493.012	0.27
493.363	0.27
493.714	0.27
494.065	0.28
494.416	0.28
494.767	0.28
495.118	0.29
495.469	0.29
495.82	0.29
496.171	0.3
496.522	0.3
496.872	0.3
497.223	0.31
497.574	0.31
497.924	0.31
498.275	0.31
498.626	0.32
498.976	0.32
499.327	0.32
499.677	0.32
500.027	0.33
500.378	0.32
500.728	0.33
501.078	0.33
501.428	0.34
501.779	0.34
502.129	0.34
502.479	0.34
502.829	0.34
503.179	0.35
503.529	0.35
503.879	0.35
504.229	0.35
504.578	0.36
504.928	0.36
505.278	0.36
505.628	0.36
505.977	0.37
506.327	0.37
506.676	0.37
507.026	0.37
507.375	0.37
507.725	0.38
508.074	0.39
508.424	0.38
508.773	0.38
509.122	0.39
509.471	0.39
509.82	0.39
510.17	0.39
510.519	0.4
510.868	0.4
511.217	0.4
511.566	0.4
511.915	0.4
512.263	0.41
512.612	0.41
512.961	0.41
513.31	0.41
513.659	0.42
514.007	0.42
514.356	0.42
514.704	0.43
515.053	0.43
515.401	0.43
515.75	0.43
516.098	0.43
516.447	0.43
516.795	0.44
517.143	0.44
517.491	0.44
517.839	0.44
518.188	0.44
518.536	0.44
518.884	0.45
519.232	0.45
519.58	0.45
519.928	0.45
520.275	0.46
520.623	0.45
520.971	0.46
521.319	0.46
521.666	0.47
522.014	0.47
522.362	0.47
522.709	0.46
523.057	0.46
523.404	0.47
523.752	0.47
524.099	0.47
524.446	0.48
524.794	0.47
525.141	0.48
525.488	0.48
525.835	0.48
526.182	0.48
526.529	0.48
526.876	0.49
527.223	0.49
527.57	0.49
527.917	0.49
528.264	0.49
528.611	0.49
528.958	0.49
529.304	0.49
529.651	0.5
529.998	0.49
530.344	0.5
530.691	0.5
531.037	0.5
531.384	0.51
531.73	0.51
532.076	0.51
532.423	0.5
532.769	0.51
533.115	0.5
533.461	0.51
533.807	0.51
534.154	0.51
534.5	0.52
534.846	0.52
535.192	0.52
535.537	0.52
535.883	0.52
536.229	0.52
536.575	0.52
536.921	0.53
537.266	0.53
537.612	0.53
537.957	0.52
538.303	0.53
538.649	0.53
538.994	0.53
539.339	0.53
539.685	0.54
540.03	0.53
540.375	0.53
540.721	0.53
541.066	0.54
541.411	0.53
541.756	0.53
542.101	0.54
542.446	0.54
542.791	0.54
543.136	0.54
543.481	0.54
543.825	0.54
544.17	0.55
544.515	0.55
544.86	0.55
545.204	0.55
545.549	0.55
545.893	0.55
546.238	0.55
546.582	0.55
546.927	0.55
547.271	0.55
547.615	0.55
547.96	0.55
548.304	0.55
548.648	0.55
548.992	0.55
549.336	0.55
549.68	0.55
550.024	0.56
550.368	0.56
550.712	0.55
551.056	0.55
551.4	0.56
551.743	0.56
552.087	0.56
552.431	0.55
552.774	0.56
553.118	0.56
553.462	0.56
553.805	0.55
554.148	0.55
554.492	0.55
554.835	0.55
555.178	0.56
555.522	0.55
555.865	0.56
556.208	0.56
556.551	0.55
556.894	0.56
557.237	0.56
557.58	0.56
557.923	0.56
558.266	0.56
558.609	0.56
558.952	0.56
559.294	0.56
559.637	0.55
559.98	0.55
560.322	0.55
560.665	0.55
561.007	0.55
561.35	0.55
561.692	0.55
562.034	0.55
562.377	0.55
562.719	0.55
563.061	0.55
563.403	0.55
563.745	0.54
564.088	0.55
564.43	0.55
564.772	0.55
565.113	0.55
565.455	0.55
565.797	0.55
566.139	0.54
566.481	0.54
566.822	0.55
567.164	0.54
567.506	0.54
567.847	0.54
568.189	0.54
568.53	0.54
568.872	0.54
569.213	0.54
569.554	0.54
569.895	0.54
570.237	0.53
570.578	0.53
570.919	0.53
571.26	0.53
571.601	0.53
571.942	0.53
572.283	0.53
572.624	0.53
572.965	0.52
573.306	0.53
573.646	0.52
573.987	0.52
574.328	0.52
574.668	0.52
575.009	0.52
575.349	0.51
575.69	0.51
576.03	0.51
576.37	0.51
576.711	0.5
577.051	0.51
577.391	0.51
577.731	0.51
578.072	0.51
578.412	0.51
578.752	0.51
579.092	0.5
579.431	0.49
579.771	0.47
580.111	0.47
580.451	0.48
580.791	0.5
581.13	0.5
581.47	0.5
581.81	0.5
582.149	0.5
582.489	0.5
582.828	0.48
583.167	0.45
583.507	0.42
583.846	0.41
584.185	0.46
584.525	0.48
584.864	0.49
585.203	0.5
585.542	0.5
585.881	0.5
586.22	0.5
586.559	0.49
586.898	0.48
587.236	0.47
587.575	0.48
587.914	0.48
588.252	0.49
588.591	0.49
588.93	0.49
589.268	0.48
589.607	0.48
589.945	0.49
590.283	0.49
590.622	0.49
590.96	0.49
591.298	0.49
591.636	0.49
591.974	0.5
592.313	0.49
592.651	0.5
592.989	0.49
593.326	0.5
593.664	0.5
594.002	0.49
594.34	0.49
594.678	0.49
595.015	0.48
595.353	0.48
595.691	0.49
596.028	0.49
596.366	0.49
596.703	0.49
597.04	0.49
597.378	0.5
597.715	0.5
598.052	0.5
598.389	0.5
598.726	0.49
599.064	0.49
599.401	0.49
599.738	0.49
600.074	0.49
600.411	0.49
600.748	0.48
601.085	0.48
601.422	0.48
601.758	0.48
602.095	0.48
602.432	0.48
602.768	0.49
603.105	0.48
603.441	0.49
603.777	0.49
604.114	0.49
604.45	0.49
604.786	0.49
605.122	0.48
605.459	0.48
605.795	0.48
606.131	0.48
606.467	0.48
606.803	0.48
607.139	0.48
607.474	0.47
607.81	0.47
608.146	0.47
608.482	0.47
608.817	0.47
609.153	0.46
609.488	0.47
609.824	0.47
610.159	0.47
610.495	0.47
610.83	0.47
611.165	0.47
611.5	0.46
611.836	0.46
612.171	0.46
612.506	0.46
612.841	0.46
613.176	0.46
613.511	0.45
613.845	0.46
614.18	0.45
614.515	0.45
614.85	0.44
615.184	0.45
615.519	0.45
615.854	0.45
616.188	0.44
616.523	0.44
616.857	0.44
617.191	0.44
617.526	0.43
617.86	0.44
618.194	0.43
618.528	0.44
618.862	0.44
619.196	0.44
619.53	0.43
619.864	0.43
620.198	0.43
620.532	0.43
620.866	0.43
621.2	0.43
621.533	0.42
621.867	0.42
622.201	0.42
622.534	0.42
622.868	0.42
623.201	0.41
623.534	0.41
623.868	0.41
624.201	0.41
624.534	0.41
624.868	0.41
625.201	0.41
625.534	0.41
625.867	0.4
626.2	0.4
626.533	0.4
626.865	0.4
627.198	0.39
627.531	0.39
627.864	0.39
628.196	0.38
628.529	0.39
628.862	0.38
629.194	0.38
629.527	0.38
629.859	0.38
630.191	0.38
630.524	0.37
630.856	0.37
631.188	0.37
631.52	0.37
631.852	0.36
632.184	0.36
632.516	0.36
632.848	0.36
633.18	0.36
633.512	0.36
633.844	0.35
634.175	0.35
634.507	0.34
634.839	0.34
635.17	0.34
635.502	0.34
635.833	0.34
636.165	0.34
636.496	0.33
636.827	0.34
637.159	0.33
637.49	0.33
637.821	0.32
638.152	0.32
638.483	0.32
638.814	0.32
639.145	0.32
639.476	0.31
639.807	0.31
640.137	0.31
640.468	0.31
640.799	0.31
641.129	0.3
641.46	0.3
641.791	0.3
642.121	0.3
642.451	0.3
642.782	0.29
643.112	0.29
643.442	0.29
643.773	0.29
644.103	0.29
644.433	0.28
644.763	0.28
645.093	0.29
645.423	0.28
645.753	0.28
646.082	0.28
646.412	0.28
646.742	0.28
647.072	0.28
647.401	0.28
647.731	0.27
648.06	0.27
648.39	0.27
648.719	0.27
649.048	0.27
649.378	0.27
649.707	0.27
650.036	0.26
650.365	0.26
650.694	0.26
651.023	0.26
651.352	0.26
651.681	0.26
652.01	0.26
652.339	0.26
652.668	0.26
652.996	0.26
653.325	0.26
653.654	0.26
653.982	0.25
654.311	0.26
654.639	0.25
654.967	0.25
655.296	0.25
655.624	0.25
655.952	0.25
656.28	0.25
656.609	0.25
656.937	0.25
657.265	0.24
657.593	0.09
657.92	0.01
658.248	0
658.576	0.04
658.904	0.15
659.231	0.23
659.559	0.24
659.887	0.24
660.214	0.24
660.542	0.24
660.869	0.24
661.196	0.23
661.524	0.24
661.851	0.24
662.178	0.23
662.505	0.23
662.832	0.23
663.159	0.23
663.486	0.23
663.813	0.23
664.14	0.23
664.467	0.23
664.794	0.23
665.12	0.23
665.447	0.23
665.774	0.22
666.1	0.22
666.427	0.22
666.753	0.22
667.079	0.22
667.406	0.22
667.732	0.22
668.058	0.22
668.384	0.22
668.71	0.21
669.036	0.21
669.362	0.21
669.688	0.21
670.014	0.21
670.34	0.21
670.666	0.21
670.991	0.21
671.317	0.21
671.643	0.2
671.968	0.2
672.294	0.2
672.619	0.2
672.945	0.2
673.27	0.19
673.595	0.19
673.92	0.19
674.246	0.19
674.571	0.19
674.896	0.18
675.221	0.18
675.546	0.19
675.87	0.19
676.195	0.18
676.52	0.18
676.845	0.18
677.169	0.18
677.494	0.17
677.819	0.17
678.143	0.17
678.468	0.17
678.792	0.17
679.116	0.17
679.44	0.17
679.765	0.17
680.089	0.16
680.413	0.16
680.737	0.16
681.061	0.15
681.385	0.15
681.709	0.15
682.033	0.15
682.356	0.15
682.68	0.15
683.004	0.15
683.327	0.14
683.651	0.14
683.974	0.14
684.298	0.14
684.621	0.14
684.944	0.14
685.268	0.13
685.591	0.13
685.914	0.13
686.237	0.13
686.56	0.13
686.883	0.12
687.206	0.12
687.529	0.12
687.852	0.12
688.175	0.12
688.497	0.12
688.82	0.12
689.142	0.12
689.465	0.11
689.787	0.11
690.11	0.11
690.432	0.11
690.755	0.11
691.077	0.11
691.399	0.11
691.721	0.11
692.043	0.11
692.365	0.1
692.687	0.1
693.009	0.1
693.331	0.1
693.653	0.09
693.974	0.1
694.296	0.09
694.618	0.09
694.939	0.09
695.261	0.09
695.582	0.09
695.904	0.09
696.225	0.09
696.546	0.09
696.868	0.09
697.189	0.09
697.51	0.09
697.831	0.09
698.152	0.09
698.473	0.08
698.794	0.08
699.114	0.08
699.435	0.07
699.756	0.07
700.077	0.08
700.397	0.08
700.718	0.08
701.038	0.08
701.359	0.08
701.679	0.08
701.999	0.08
702.32	0.07
702.64	0.07
702.96	0.07
703.28	0.07
703.6	0.07
703.92	0.07
704.24	0.07
704.56	0.07
704.879	0.07
705.199	0.07
705.519	0.07
705.838	0.07
706.158	0.07
706.478	0.07
706.797	0.07
707.116	0.07
707.436	0.07
707.755	0.07
708.074	0.07
708.393	0.06
708.712	0.06
709.031	0.05
709.35	0.05
709.669	0.05
709.988	0.05
710.307	0.06
710.626	0.06
710.944	0.06
711.263	0.06
711.582	0.07
711.9	0.07
712.219	0.06
712.537	0.06
712.855	0.06
713.174	0.06
713.492	0.06
713.81	0.06
714.128	0.06
714.446	0.06
714.764	0.06
715.082	0.05
715.4	0.06
715.718	0.06
716.035	0.06
716.353	0.06
716.671	0.06
716.988	0.06
717.306	0.06
717.623	0.06
717.941	0.07
718.258	0.07
718.575	0.07
718.893	0.07
719.21	0.07
719.527	0.07
719.844	0.06
720.161	0.07
720.478	0.06
720.795	0.07
721.112	0.07
721.428	0.07
721.745	0.07
722.062	0.07
722.378	0.07
722.695	0.07
723.011	0.07
723.328	0.07
723.644	0.07
723.96	0.07
724.276	0.07
724.593	0.07
724.909	0.07
725.225	0.07
725.541	0.07
725.857	0.07
726.173	0.07
726.488	0.07
726.804	0.07
727.12	0.07
727.435	0.07
727.751	0.07
728.067	0.07
728.382	0.07
728.697	0.07
729.013	0.07
729.328	0.07
729.643	0.07
729.958	0.07
730.273	0.07
730.588	0.07
730.903	0.07
731.218	0.07
731.533	0.07
731.848	0.07
732.163	0.07
732.477	0.06
732.792	0.06
733.107	0.05
733.421	0.06
733.736	0.06
734.05	0.06
734.364	0.06
734.678	0.07
734.993	0.06
735.307	0.06
735.621	0.06
735.935	0.06
736.249	0.06
736.563	0.07
736.877	0.07
737.19	0.07
737.504	0.07
737.818	0.06
738.131	0.06
738.445	0.07
738.758	0.07
739.072	0.06
739.385	0.07
739.698	0.07
740.012	0.07
740.325	0.06
740.638	0.07
740.951	0.06
741.264	0.06
741.577	0.06
741.89	0.06
742.203	0.06
742.515	0.06
742.828	0.06
743.141	0.06
743.453	0.06
743.766	0.06
744.078	0.06
744.391	0.06
744.703	0.06
745.015	0.06
745.327	0.06
745.639	0.06
745.952	0.05
746.264	0.06
746.575	0.06
746.887	0.05
747.199	0.05
747.511	0.05
747.823	0.05
748.134	0.05
748.446	0.05
748.757	0.05
749.069	0.05
749.38	0.05
749.692	0.04
750.003	0.04
750.314	0.04
750.625	0.04
750.936	0.04
751.248	0.04
751.559	0.04
751.869	0.04
752.18	0.04
752.491	0.04
752.802	0.04
753.112	0.04
753.423	0.04
753.734	0.04
754.044	0.04
754.355	0.04
754.665	0.04
754.975	0.03
755.285	0.03
755.596	0.03
755.906	0.03
756.216	0.03
756.526	0.03
756.836	0.03
757.146	0.03
757.455	0.03
757.765	0.03
758.075	0.03
758.385	0.03
758.694	0.03
759.004	0.03
759.313	0.03
759.622	0.03
759.932	0.03
760.241	0.03
760.55	0.03
760.859	0.03
761.168	0.03
761.477	0.03
761.786	0.03
762.095	0.03
762.404	0.03
762.713	0.03
763.021	0.03
763.33	0.03
763.639	0.03
763.947	0.03
764.256	0.03
764.564	0.03
764.872	0.03
765.181	0.03
765.489	0.03
765.797	0.03
766.105	0.03
766.413	0.03
766.721	0.03
767.029	0.03
767.337	0.03
767.644	0.03
767.952	0.03
768.26	0.03
768.567	0.03
768.875	0.03
769.182	0.03
769.49	0.03
769.797	0.03
770.104	0.03
770.411	0.03
770.718	0.03
771.026	0.03
771.333	0.03
771.639	0.03
771.946	0.02
772.253	0.03
772.56	0.02
772.867	0.03
773.173	0.03
773.48	0.03
773.786	0.03
774.093	0.03
774.399	0.03
774.705	0.03
775.012	0.03
775.318	0.03
775.624	0.03
775.93	0.03
776.236	0.03
776.542	0.03
776.848	0.03
777.154	0.03
777.459	0.03
777.765	0.03
778.071	0.03
778.376	0.03
778.682	0.03
778.987	0.03
779.292	0.03
779.598	0.03
779.903	0.03
780.208	0.03
780.513	0.03
780.818	0.03
781.123	0.03
781.428	0.03
781.733	0.02
782.038	0.02
782.343	0.02
782.647	0.02
782.952	0.02
783.256	0.02
783.561	0.02
783.865	0.02
784.17	0.02
784.474	0.02
784.778	0.02
785.082	0.02
785.386	0.02
785.69	0.02
785.994	0.02
786.298	0.02
786.602	0.03
786.906	0.03
787.209	0.03
787.513	0.03
787.817	0.03
788.12	0.03
788.424	0.03
788.727	0.03
789.03	0.03
789.333	0.03
789.637	0.03
789.94	0.03
790.243	0.03
790.546	0.03
790.849	0.03
791.152	0.04
791.454	0.04
791.757	0.03
792.06	0.03
792.362	0.04
792.665	0.03
792.967	0.03
793.27	0.03
793.572	0.03
793.874	0.04
794.177	0.03
794.479	0.03
794.781	0.03
795.083	0.03
795.385	0.03
795.687	0.03
795.989	0.04
796.29	0.04
796.592	0.04
796.894	0.04
797.195	0.04
797.497	0.04
797.798	0.04
798.1	0.04
798.401	0.04
798.702	0.04
799.003	0.03
799.304	0.04
799.605	0.04
799.906	0.04
800.207	0.04
800.508	0.04
800.809	0.04
801.11	0.04
801.41	0.04
801.711	0.04
802.011	0.04
802.312	0.04
802.612	0.04
802.913	0.03
803.213	0.03
803.513	0.03
803.813	0.04
804.113	0.04
804.413	0.04
804.713	0.04
805.013	0.04
805.313	0.05
805.613	0.04
805.912	0.04
806.212	0.05
806.511	0.04
806.811	0.05
807.11	0.04
807.41	0.04
807.709	0.04
808.008	0.04
808.307	0.04
808.606	0.04
808.905	0.04
809.204	0.04
809.503	0.04
809.802	0.04
810.101	0.04
810.399	0.04
810.698	0.04
810.997	0.04
811.295	0.05
811.593	0.04
811.892	0.05
812.19	0.04
812.488	0.05
812.786	0.04
813.084	0.05
813.383	0.05
813.68	0.04
813.978	0.05
814.276	0.05
814.574	0.05
814.872	0.05
815.169	0.05
815.467	0.05
815.764	0.05
816.062	0.05
816.359	0.05
816.656	0.05
816.954	0.05
817.251	0.05
817.548	0.05
817.845	0.05
818.142	0.06
818.439	0.05
818.735	0.06
819.032	0.06
819.329	0.06
819.626	0.06
819.922	0.06
820.219	0.06
820.515	0.06
820.811	0.06
821.108	0.06
821.404	0.06
821.7	0.06
821.996	0.05
822.292	0.06
822.588	0.06
822.884	0.07
823.18	0.06
823.475	0.06
823.771	0.06
824.067	0.06
824.362	0.07
824.658	0.06
824.953	0.06
825.249	0.06
825.544	0.06
825.839	0.06
826.134	0.06
826.429	0.06
826.724	0.06
827.019	0.06
827.314	0.06
827.609	0.06
827.904	0.06
828.198	0.06
828.493	0.07
828.787	0.06
829.082	0.06
829.376	0.07
829.671	0.07
829.965	0.08
830.259	0.07
830.553	0.07
830.847	0.07
831.141	0.07
831.435	0.07
831.729	0.07
832.023	0.07
832.317	0.07
832.61	0.07
832.904	0.07
833.197	0.07
833.491	0.07
833.784	0.08
834.077	0.07
834.371	0.08
834.664	0.08
834.957	0.08
835.25	0.07
835.543	0.08
835.836	0.08
836.129	0.08
836.421	0.08
836.714	0.07
837.007	0.08
837.299	0.08
837.592	0.08
837.884	0.08
838.177	0.07
838.469	0.08
838.761	0.08
839.053	0.07
839.345	0.08
839.637	0.07
839.929	0.07
840.221	0.08
840.513	0.08
840.805	0.09
841.096	0.08
841.388	0.08
841.68	0.08
841.971	0.08
842.262	0.08
842.554	0.08
842.845	0.07
843.136	0.07
843.427	0.08
843.718	0.09
844.009	0.08
844.3	0.08
844.591	0.08
844.882	0.09
845.173	0.08
845.463	0.08
845.754	0.09
846.044	0.08
846.335	0.08
846.625	0.08
846.915	0.09
847.206	0.09
847.496	0.09
847.786	0.09
848.076	0.07
848.366	0.08
848.656	0.08
848.945	0.08
849.235	0.08
849.525	0.08
849.814	0.08
850.104	0.08
850.393	0.08
850.683	0.09
850.972	0.09
851.261	0.09
851.551	0.1
851.84	0.1
852.129	0.1
852.418	0.08
852.707	0.09
852.995	0.09
853.284	0.08
853.573	0.1
853.862	0.07
854.15	0.09
854.439	0.08
854.727	0.09
855.015	0.09
855.304	0.09
855.592	0.09
855.88	0.09
856.168	0.09
856.456	0.09
856.744	0.09
857.032	0.08
857.32	0.09
857.607	0.09
857.895	0.09
858.183	0.11
858.47	0.09
858.757	0.09
859.045	0.12
859.332	0.1
859.619	0.12
859.907	0.11
860.194	0.09
860.481	0.11
860.768	0.09
861.054	0.08
861.341	0.09
861.628	0.11
861.915	0.11
862.201	0.11
862.488	0.1
862.774	0.1
863.061	0.12
863.347	0.1
863.633	0.12
863.919	0.06
864.205	0.09
864.491	0.1
864.777	0.12
865.063	0.1
865.349	0.09
865.635	0.1
865.92	0.1
866.206	0.1
866.492	0.09
866.777	0.14
867.062	0.1
867.348	0.11
867.633	0.08
867.918	0.11
868.203	0.09
868.488	0.14
868.773	0.12
869.058	0.12
869.343	0.09
869.628	0.09
869.912	0.08
870.197	0.07
870.482	0.1
870.766	0.14
871.05	0.1
871.335	0.13
871.619	0.1
871.903	0.09
872.187	0.12
872.471	0.12
872.755	0.11
873.039	0.06
873.323	0.09
873.607	0.14
873.89	0.08
874.174	0.08
874.458	0.13
874.741	0.04
875.024	0.13
875.308	0.08
875.591	0.12
875.874	0.12
876.157	0.12
876.44	0.04
876.723	0.05
877.006	0.03
877.289	0.02
877.572	0.06
877.854	0.05
878.137	0.07
878.42	0.06
878.702	0.07
878.984	0.13
879.267	0.17
879.549	0.09
879.831	0.09
880.113	0.1
880.395	0.08
880.677	0.02
880.959	0.09
