Data from Rubpy_BV_1800_EDTA_Buffered_Absorbance_15-01-47-848.txt Node
Date: Wed Jul 01 15:01:47 BST 2026
User: fpm-admin
Spectrometer: OFX00224
Trigger mode: 0
Integration Time (sec): 7.000000E-2
Scans to average: 3
Nonlinearity correction enabled: false
Boxcar width: 0
Storing dark spectrum: false
XAxis mode: Wavelengths
Number of Pixels in Spectrum: 2136
>>>>>Begin Spectral Data<<<<<
154.91	-0.54
155.289	-0
155.669	-1.02
156.048	-0.34
156.428	-0
156.807	-0
157.186	-0
157.566	-0
157.945	0.51
158.325	-0
158.704	-0
159.083	-0
159.462	-0
159.842	0.54
160.221	-0
160.6	0.02
160.979	-0.24
161.359	-0
161.738	0.09
162.117	-0
162.496	0.18
162.875	0.63
163.254	-0
163.633	-0
164.012	-0
164.391	-1.06
164.77	-0.48
165.149	-0.3
165.528	-0
165.907	-0
166.286	-0.05
166.665	0.12
167.044	0.37
167.423	-0.15
167.802	-0
168.181	-0
168.559	-0
168.938	-0.98
169.317	-0
169.696	-0
170.074	-0.15
170.453	-0
170.832	-0.18
171.21	-0.72
171.589	0.78
171.968	0.39
172.346	-0
172.725	0.38
173.103	0.56
173.482	0.27
173.861	-0
174.239	0.38
174.617	-0.34
174.996	0.23
175.374	0.2
175.753	-0.32
176.131	-0
176.51	-0.01
176.888	-0
177.266	-0
177.645	-0.07
178.023	0.97
178.401	-0.18
178.779	-0.15
179.158	-0
179.536	-0.63
179.914	-0
180.292	0.24
180.67	0.53
181.048	-0
181.427	-0
181.805	-0
182.183	-0.95
182.561	-0.19
182.939	-0.52
183.317	-0
183.695	-0
184.073	-0.12
184.451	0.31
184.829	0.14
185.206	-0
185.584	-0
185.962	-0
186.34	-0
186.718	-0
187.096	-0.63
187.473	0.33
187.851	-0
188.229	-0
188.607	0.22
188.984	0.22
189.362	0.35
189.74	0.24
190.117	0.23
190.495	0.2
190.872	0.31
191.25	0.29
191.627	0.24
192.005	0.23
192.382	0.1
192.76	0.26
193.137	0.34
193.515	0.21
193.892	0.19
194.269	0.26
194.647	0.23
195.024	0.2
195.401	0.17
195.779	0.23
196.156	0.19
196.533	0.3
196.91	0.2
197.288	0.3
197.665	0.25
198.042	0.4
198.419	0.3
198.796	0.08
199.173	0.23
199.55	0.27
199.927	0.12
200.304	0.22
200.681	0.34
201.058	0.25
201.435	0.2
201.812	0.3
202.189	0.36
202.566	0.41
202.943	0.16
203.32	0.27
203.697	0.25
204.073	0.27
204.45	0.24
204.827	0.25
205.204	0.12
205.58	0.31
205.957	0.26
206.334	0.28
206.71	0.21
207.087	0.33
207.464	0.16
207.84	0.3
208.217	0.38
208.593	0.35
208.97	0.27
209.346	0.27
209.723	0.18
210.099	0.27
210.476	0.27
210.852	0.23
211.228	0.19
211.605	0.3
211.981	0.35
212.357	0.28
212.733	0.48
213.11	0.27
213.486	0.24
213.862	0.29
214.238	0.19
214.614	0.26
214.991	0.26
215.367	0.18
215.743	0.28
216.119	0.33
216.495	0.33
216.871	0.29
217.247	0.18
217.623	0.27
217.999	0.2
218.375	0.27
218.751	0.24
219.127	0.34
219.502	0.26
219.878	0.19
220.254	0.32
220.63	0.27
221.006	0.35
221.381	0.24
221.757	0.22
222.133	0.34
222.508	0.3
222.884	0.21
223.26	0.24
223.635	0.28
224.011	0.27
224.386	0.24
224.762	0.17
225.137	0.27
225.513	0.21
225.888	0.36
226.264	0.32
226.639	0.31
227.014	0.2
227.39	0.31
227.765	0.28
228.14	0.33
228.516	0.55
228.891	0.14
229.266	0.17
229.641	0.26
230.017	0.23
230.392	0.23
230.767	0.24
231.142	0.18
231.517	0.18
231.892	0.24
232.267	0.17
232.642	0.33
233.017	0.19
233.392	0.42
233.767	0.24
234.142	0.2
234.517	0.26
234.892	0.18
235.267	0.16
235.641	0.24
236.016	0.15
236.391	0.28
236.766	0.38
237.14	0.32
237.515	0.31
237.89	0.09
238.264	0.17
238.639	0.17
239.014	0.24
239.388	0.25
239.763	0.27
240.137	0.2
240.512	0.3
240.886	0.23
241.261	0.26
241.635	0.16
242.009	0.3
242.384	0.29
242.758	0.19
243.132	0.23
243.507	0.21
243.881	0.16
244.255	0.25
244.629	0.31
245.004	0.2
245.378	0.27
245.752	0.22
246.126	0.18
246.5	0.34
246.874	0.35
247.248	0.24
247.622	0.25
247.996	0.23
248.37	0.19
248.744	0.25
249.118	0.19
249.492	0.24
249.866	0.34
250.24	0.35
250.613	0.34
250.987	0.24
251.361	0.3
251.735	0.28
252.108	0.25
252.482	0.2
252.856	0.3
253.229	0.22
253.603	0.18
253.977	0.15
254.35	0.26
254.724	0.29
255.097	0.18
255.471	0.24
255.844	0.25
256.218	0.27
256.591	0.27
256.964	0.2
257.338	0.3
257.711	0.2
258.084	0.28
258.458	0.27
258.831	0.27
259.204	0.29
259.577	0.27
259.95	0.22
260.323	0.2
260.697	0.18
261.07	0.25
261.443	0.24
261.816	0.16
262.189	0.33
262.562	0.34
262.935	0.38
263.308	0.26
263.68	0.32
264.053	0.19
264.426	0.23
264.799	0.25
265.172	0.31
265.545	0.24
265.917	0.26
266.29	0.34
266.663	0.31
267.035	0.2
267.408	0.26
267.781	0.31
268.153	0.38
268.526	0.29
268.898	0.33
269.271	0.24
269.643	0.24
270.016	0.22
270.388	0.35
270.76	0.29
271.133	0.28
271.505	0.21
271.877	0.3
272.25	0.37
272.622	0.27
272.994	0.37
273.366	0.29
273.739	0.23
274.111	0.24
274.483	0.29
274.855	0.27
275.227	0.23
275.599	0.22
275.971	0.26
276.343	0.24
276.715	0.3
277.087	0.21
277.459	0.24
277.831	0.25
278.203	0.31
278.574	0.26
278.946	0.19
279.318	0.27
279.69	0.24
280.061	0.14
280.433	0.2
280.805	0.24
281.176	0.19
281.548	0.29
281.92	0.23
282.291	0.27
282.663	0.27
283.034	0.23
283.406	0.23
283.777	0.28
284.148	0.24
284.52	0.25
284.891	0.31
285.262	0.23
285.634	0.32
286.005	0.25
286.376	0.2
286.747	0.24
287.119	0.23
287.49	0.17
287.861	0.21
288.232	0.15
288.603	0.36
288.974	0.26
289.345	0.23
289.716	0.25
290.087	0.28
290.458	0.27
290.829	0.22
291.2	0.25
291.571	0.27
291.941	0.33
292.312	0.28
292.683	0.27
293.054	0.23
293.424	0.33
293.795	0.29
294.166	0.24
294.536	0.3
294.907	0.28
295.277	0.36
295.648	0.26
296.018	0.26
296.389	0.22
296.759	0.22
297.13	0.25
297.5	0.3
297.871	0.25
298.241	0.27
298.611	0.27
298.981	0.22
299.352	0.27
299.722	0.34
300.092	0.31
300.462	0.28
300.832	0.3
301.202	0.34
301.573	0.28
301.943	0.25
302.313	0.22
302.683	0.23
303.053	0.21
303.422	0.28
303.792	0.19
304.162	0.21
304.532	0.28
304.902	0.22
305.272	0.26
305.641	0.25
306.011	0.27
306.381	0.23
306.75	0.16
307.12	0.21
307.49	0.21
307.859	0.25
308.229	0.15
308.598	0.24
308.968	0.23
309.337	0.16
309.707	0.19
310.076	0.2
310.445	0.22
310.815	0.19
311.184	0.2
311.553	0.16
311.923	0.18
312.292	0.2
312.661	0.2
313.03	0.17
313.399	0.16
313.768	0.18
314.137	0.19
314.506	0.2
314.875	0.19
315.244	0.19
315.613	0.19
315.982	0.21
316.351	0.18
316.72	0.21
317.089	0.2
317.458	0.2
317.826	0.21
318.195	0.22
318.564	0.22
318.933	0.2
319.301	0.22
319.67	0.21
320.038	0.22
320.407	0.23
320.775	0.22
321.144	0.23
321.512	0.25
321.881	0.22
322.249	0.23
322.618	0.24
322.986	0.22
323.354	0.24
323.723	0.25
324.091	0.24
324.459	0.25
324.827	0.25
325.195	0.26
325.564	0.26
325.932	0.26
326.3	0.27
326.668	0.27
327.036	0.26
327.404	0.27
327.772	0.28
328.14	0.28
328.508	0.28
328.875	0.28
329.243	0.29
329.611	0.3
329.979	0.3
330.346	0.3
330.714	0.31
331.082	0.31
331.449	0.32
331.817	0.33
332.185	0.33
332.552	0.34
332.92	0.34
333.287	0.35
333.655	0.36
334.022	0.36
334.389	0.37
334.757	0.38
335.124	0.38
335.491	0.39
335.859	0.4
336.226	0.4
336.593	0.41
336.96	0.42
337.327	0.42
337.695	0.43
338.062	0.44
338.429	0.44
338.796	0.45
339.163	0.46
339.53	0.47
339.897	0.48
340.263	0.49
340.63	0.49
340.997	0.51
341.364	0.51
341.731	0.52
342.097	0.54
342.464	0.53
342.831	0.55
343.197	0.56
343.564	0.57
343.931	0.57
344.297	0.58
344.664	0.59
345.03	0.61
345.396	0.61
345.763	0.63
346.129	0.64
346.496	0.64
346.862	0.65
347.228	0.65
347.594	0.67
347.961	0.68
348.327	0.68
348.693	0.7
349.059	0.7
349.425	0.71
349.791	0.71
350.157	0.72
350.523	0.73
350.889	0.75
351.255	0.75
351.621	0.75
351.987	0.77
352.353	0.77
352.719	0.78
353.084	0.78
353.45	0.81
353.816	0.82
354.181	0.83
354.547	0.83
354.913	0.84
355.278	0.84
355.644	0.87
356.009	0.87
356.375	0.89
356.74	0.89
357.106	0.9
357.471	0.92
357.836	0.92
358.202	0.94
358.567	0.95
358.932	0.96
359.297	0.98
359.663	0.99
360.028	1.01
360.393	1.01
360.758	1.03
361.123	1.04
361.488	1.06
361.853	1.07
362.218	1.09
362.583	1.11
362.948	1.1
363.312	1.13
363.677	1.15
364.042	1.15
364.407	1.16
364.772	1.17
365.136	1.16
365.501	1.2
365.865	1.2
366.23	1.21
366.595	1.23
366.959	1.23
367.324	1.24
367.688	1.25
368.052	1.26
368.417	1.28
368.781	1.29
369.145	1.27
369.51	1.3
369.874	1.3
370.238	1.31
370.602	1.34
370.967	1.32
371.331	1.33
371.695	1.33
372.059	1.32
372.423	1.33
372.787	1.33
373.151	1.34
373.515	1.33
373.878	1.32
374.242	1.33
374.606	1.32
374.97	1.33
375.334	1.31
375.697	1.28
376.061	1.26
376.425	1.28
376.788	1.26
377.152	1.25
377.515	1.23
377.879	1.22
378.242	1.2
378.606	1.2
378.969	1.17
379.333	1.17
379.696	1.15
380.059	1.14
380.422	1.14
380.786	1.12
381.149	1.11
381.512	1.09
381.875	1.08
382.238	1.08
382.601	1.06
382.964	1.05
383.327	1.04
383.69	1.03
384.053	1.02
384.416	1.01
384.779	1
385.142	1
385.504	0.99
385.867	0.99
386.23	0.99
386.593	0.98
386.955	0.98
387.318	0.97
387.68	0.97
388.043	0.96
388.405	0.97
388.768	0.96
389.13	0.97
389.493	0.96
389.855	0.96
390.217	0.94
390.58	0.94
390.942	0.93
391.304	0.92
391.666	0.91
392.028	0.91
392.391	0.9
392.753	0.88
393.115	0.87
393.477	0.86
393.839	0.85
394.201	0.84
394.563	0.84
394.924	0.84
395.286	0.85
395.648	0.84
396.01	0.85
396.371	0.86
396.733	0.86
397.095	0.88
397.456	0.9
397.818	0.91
398.18	0.93
398.541	0.96
398.903	0.98
399.264	1.01
399.625	1.03
399.987	1.05
400.348	1.07
400.709	1.07
401.071	1.09
401.432	1.08
401.793	1.09
402.154	1.08
402.515	1.08
402.876	1.04
403.238	1.03
403.599	0.99
403.96	0.96
404.32	0.94
404.681	0.9
405.042	0.87
405.403	0.83
405.764	0.8
406.125	0.76
406.485	0.72
406.846	0.68
407.207	0.65
407.567	0.61
407.928	0.58
408.288	0.54
408.649	0.52
409.009	0.49
409.37	0.46
409.73	0.43
410.091	0.41
410.451	0.39
410.811	0.37
411.171	0.36
411.532	0.33
411.892	0.32
412.252	0.3
412.612	0.29
412.972	0.28
413.332	0.26
413.692	0.25
414.052	0.24
414.412	0.23
414.772	0.23
415.132	0.22
415.492	0.21
415.851	0.21
416.211	0.19
416.571	0.2
416.931	0.19
417.29	0.18
417.65	0.17
418.009	0.17
418.369	0.17
418.728	0.17
419.088	0.16
419.447	0.16
419.807	0.15
420.166	0.15
420.525	0.14
420.884	0.14
421.244	0.14
421.603	0.14
421.962	0.14
422.321	0.14
422.68	0.13
423.039	0.13
423.398	0.12
423.757	0.12
424.116	0.13
424.475	0.11
424.834	0.12
425.193	0.11
425.551	0.12
425.91	0.11
426.269	0.11
426.628	0.11
426.986	0.11
427.345	0.11
427.703	0.11
428.062	0.11
428.42	0.11
428.779	0.11
429.137	0.11
429.496	0.11
429.854	0.1
430.212	0.1
430.57	0.11
430.929	0.11
431.287	0.09
431.645	0.1
432.003	0.1
432.361	0.1
432.719	0.1
433.077	0.1
433.435	0.1
433.793	0.1
434.151	0.1
434.509	0.11
434.866	0.09
435.224	0.1
435.582	0.1
435.94	0.1
436.297	0.1
436.655	0.1
437.012	0.1
437.37	0.1
437.727	0.1
438.085	0.09
438.442	0.09
438.8	0.1
439.157	0.09
439.514	0.1
439.872	0.1
440.229	0.1
440.586	0.09
440.943	0.1
441.3	0.09
441.657	0.1
442.014	0.09
442.371	0.09
442.728	0.1
443.085	0.1
443.442	0.1
443.799	0.09
444.156	0.1
444.513	0.1
444.869	0.09
445.226	0.09
445.583	0.1
445.939	0.11
446.296	0.1
446.652	0.09
447.009	0.1
447.365	0.1
447.722	0.1
448.078	0.1
448.434	0.1
448.791	0.1
449.147	0.1
449.503	0.08
449.859	0.09
450.215	0.09
450.571	0.1
450.928	0.09
451.284	0.1
451.64	0.1
451.995	0.09
452.351	0.1
452.707	0.09
453.063	0.09
453.419	0.08
453.775	0.08
454.13	0.09
454.486	0.09
454.842	0.09
455.197	0.09
455.553	0.08
455.908	0.08
456.264	0.08
456.619	0.08
456.975	0.07
457.33	0.09
457.685	0.08
458.04	0.08
458.396	0.07
458.751	0.08
459.106	0.06
459.461	0.06
459.816	0.06
460.171	0.06
460.526	0.06
460.881	0.05
461.236	0.04
461.591	0.06
461.946	0.05
462.301	0.04
462.655	0.04
463.01	0.05
463.365	0.04
463.719	0.03
464.074	0.03
464.428	0.02
464.783	0.02
465.137	0.02
465.492	0.03
465.846	0.01
466.201	0.03
466.555	0.02
466.909	0.02
467.263	0.03
467.618	0.03
467.972	0.03
468.326	0.03
468.68	0.02
469.034	0.03
469.388	0.02
469.742	0.02
470.096	0.03
470.45	0.03
470.804	0.04
471.157	0.04
471.511	0.03
471.865	0.03
472.218	0.03
472.572	0.05
472.926	0.05
473.279	0.05
473.633	0.06
473.986	0.07
474.34	0.08
474.693	0.08
475.046	0.09
475.4	0.09
475.753	0.11
476.106	0.11
476.459	0.12
476.812	0.12
477.165	0.13
477.519	0.14
477.872	0.14
478.224	0.15
478.577	0.15
478.93	0.16
479.283	0.16
479.636	0.17
479.989	0.18
480.341	0.19
480.694	0.18
481.047	0.19
481.399	0.19
481.752	0.2
482.104	0.21
482.457	0.2
482.809	0.21
483.162	0.22
483.514	0.22
483.866	0.22
484.219	0.23
484.571	0.23
484.923	0.23
485.275	0.24
485.627	0.24
485.979	0.25
486.331	0.25
486.683	0.25
487.035	0.25
487.387	0.26
487.739	0.27
488.091	0.27
488.443	0.27
488.794	0.28
489.146	0.28
489.498	0.28
489.849	0.28
490.201	0.28
490.552	0.29
490.904	0.29
491.255	0.29
491.607	0.29
491.958	0.3
492.309	0.3
492.661	0.3
493.012	0.31
493.363	0.31
493.714	0.31
494.065	0.32
494.416	0.32
494.767	0.32
495.118	0.33
495.469	0.33
495.82	0.33
496.171	0.34
496.522	0.34
496.872	0.35
497.223	0.33
497.574	0.34
497.924	0.35
498.275	0.36
498.626	0.35
498.976	0.36
499.327	0.36
499.677	0.36
500.027	0.37
500.378	0.37
500.728	0.37
501.078	0.37
501.428	0.38
501.779	0.38
502.129	0.38
502.479	0.39
502.829	0.39
503.179	0.39
503.529	0.39
503.879	0.41
504.229	0.4
504.578	0.4
504.928	0.41
505.278	0.41
505.628	0.41
505.977	0.41
506.327	0.42
506.676	0.42
507.026	0.42
507.375	0.42
507.725	0.43
508.074	0.44
508.424	0.44
508.773	0.43
509.122	0.44
509.471	0.45
509.82	0.44
510.17	0.45
510.519	0.45
510.868	0.45
511.217	0.45
511.566	0.46
511.915	0.46
512.263	0.46
512.612	0.46
512.961	0.47
513.31	0.47
513.659	0.47
514.007	0.47
514.356	0.48
514.704	0.48
515.053	0.48
515.401	0.49
515.75	0.48
516.098	0.49
516.447	0.49
516.795	0.5
517.143	0.49
517.491	0.5
517.839	0.5
518.188	0.5
518.536	0.5
518.884	0.5
519.232	0.51
519.58	0.51
519.928	0.51
520.275	0.51
520.623	0.52
520.971	0.52
521.319	0.52
521.666	0.53
522.014	0.52
522.362	0.52
522.709	0.53
523.057	0.53
523.404	0.53
523.752	0.53
524.099	0.53
524.446	0.54
524.794	0.54
525.141	0.54
525.488	0.55
525.835	0.55
526.182	0.55
526.529	0.55
526.876	0.54
527.223	0.55
527.57	0.55
527.917	0.55
528.264	0.55
528.611	0.55
528.958	0.55
529.304	0.56
529.651	0.56
529.998	0.56
530.344	0.57
530.691	0.56
531.037	0.57
531.384	0.57
531.73	0.57
532.076	0.58
532.423	0.57
532.769	0.57
533.115	0.57
533.461	0.58
533.807	0.58
534.154	0.58
534.5	0.58
534.846	0.59
535.192	0.58
535.537	0.58
535.883	0.59
536.229	0.59
536.575	0.59
536.921	0.59
537.266	0.59
537.612	0.6
537.957	0.59
538.303	0.59
538.649	0.6
538.994	0.6
539.339	0.6
539.685	0.6
540.03	0.6
540.375	0.6
540.721	0.61
541.066	0.61
541.411	0.61
541.756	0.6
542.101	0.6
542.446	0.6
542.791	0.61
543.136	0.61
543.481	0.61
543.825	0.61
544.17	0.61
544.515	0.61
544.86	0.61
545.204	0.61
545.549	0.61
545.893	0.61
546.238	0.61
546.582	0.61
546.927	0.62
547.271	0.62
547.615	0.61
547.96	0.62
548.304	0.62
548.648	0.62
548.992	0.62
549.336	0.62
549.68	0.62
550.024	0.62
550.368	0.62
550.712	0.62
551.056	0.62
551.4	0.63
551.743	0.62
552.087	0.62
552.431	0.63
552.774	0.62
553.118	0.62
553.462	0.62
553.805	0.62
554.148	0.62
554.492	0.62
554.835	0.62
555.178	0.62
555.522	0.63
555.865	0.63
556.208	0.62
556.551	0.62
556.894	0.62
557.237	0.63
557.58	0.62
557.923	0.62
558.266	0.62
558.609	0.62
558.952	0.62
559.294	0.62
559.637	0.62
559.98	0.62
560.322	0.62
560.665	0.62
561.007	0.62
561.35	0.62
561.692	0.61
562.034	0.62
562.377	0.62
562.719	0.62
563.061	0.61
563.403	0.61
563.745	0.62
564.088	0.62
564.43	0.61
564.772	0.61
565.113	0.62
565.455	0.61
565.797	0.61
566.139	0.61
566.481	0.61
566.822	0.61
567.164	0.61
567.506	0.61
567.847	0.61
568.189	0.61
568.53	0.61
568.872	0.61
569.213	0.6
569.554	0.6
569.895	0.6
570.237	0.6
570.578	0.6
570.919	0.6
571.26	0.59
571.601	0.6
571.942	0.6
572.283	0.6
572.624	0.59
572.965	0.59
573.306	0.59
573.646	0.59
573.987	0.58
574.328	0.58
574.668	0.58
575.009	0.58
575.349	0.58
575.69	0.58
576.03	0.57
576.37	0.57
576.711	0.57
577.051	0.57
577.391	0.57
577.731	0.57
578.072	0.57
578.412	0.57
578.752	0.57
579.092	0.57
579.431	0.55
579.771	0.54
580.111	0.53
580.451	0.55
580.791	0.56
581.13	0.56
581.47	0.56
581.81	0.56
582.149	0.56
582.489	0.56
582.828	0.54
583.167	0.51
583.507	0.48
583.846	0.48
584.185	0.52
584.525	0.54
584.864	0.55
585.203	0.56
585.542	0.56
585.881	0.56
586.22	0.55
586.559	0.55
586.898	0.53
587.236	0.53
587.575	0.53
587.914	0.54
588.252	0.55
588.591	0.55
588.93	0.55
589.268	0.54
589.607	0.54
589.945	0.54
590.283	0.54
590.622	0.55
590.96	0.55
591.298	0.55
591.636	0.55
591.974	0.55
592.313	0.55
592.651	0.55
592.989	0.55
593.326	0.55
593.664	0.55
594.002	0.55
594.34	0.54
594.678	0.54
595.015	0.54
595.353	0.53
595.691	0.55
596.028	0.55
596.366	0.55
596.703	0.55
597.04	0.55
597.378	0.55
597.715	0.55
598.052	0.55
598.389	0.55
598.726	0.55
599.064	0.55
599.401	0.55
599.738	0.55
600.074	0.55
600.411	0.55
600.748	0.54
601.085	0.54
601.422	0.54
601.758	0.53
602.095	0.53
602.432	0.54
602.768	0.54
603.105	0.54
603.441	0.54
603.777	0.54
604.114	0.54
604.45	0.54
604.786	0.54
605.122	0.54
605.459	0.53
605.795	0.54
606.131	0.54
606.467	0.53
606.803	0.53
607.139	0.53
607.474	0.52
607.81	0.53
608.146	0.53
608.482	0.53
608.817	0.52
609.153	0.52
609.488	0.52
609.824	0.52
610.159	0.52
610.495	0.52
610.83	0.52
611.165	0.52
611.5	0.51
611.836	0.51
612.171	0.51
612.506	0.51
612.841	0.51
613.176	0.51
613.511	0.5
613.845	0.5
614.18	0.5
614.515	0.5
614.85	0.49
615.184	0.5
615.519	0.5
615.854	0.5
616.188	0.49
616.523	0.49
616.857	0.49
617.191	0.49
617.526	0.49
617.86	0.49
618.194	0.48
618.528	0.48
618.862	0.49
619.196	0.48
619.53	0.48
619.864	0.48
620.198	0.48
620.532	0.47
620.866	0.48
621.2	0.47
621.533	0.47
621.867	0.47
622.201	0.46
622.534	0.46
622.868	0.46
623.201	0.46
623.534	0.46
623.868	0.45
624.201	0.45
624.534	0.45
624.868	0.45
625.201	0.45
625.534	0.45
625.867	0.44
626.2	0.44
626.533	0.44
626.865	0.45
627.198	0.44
627.531	0.44
627.864	0.43
628.196	0.43
628.529	0.43
628.862	0.42
629.194	0.42
629.527	0.42
629.859	0.42
630.191	0.42
630.524	0.41
630.856	0.41
631.188	0.41
631.52	0.41
631.852	0.4
632.184	0.4
632.516	0.4
632.848	0.39
633.18	0.4
633.512	0.4
633.844	0.39
634.175	0.39
634.507	0.39
634.839	0.38
635.17	0.38
635.502	0.38
635.833	0.38
636.165	0.38
636.496	0.37
636.827	0.37
637.159	0.37
637.49	0.37
637.821	0.36
638.152	0.36
638.483	0.36
638.814	0.36
639.145	0.36
639.476	0.35
639.807	0.35
640.137	0.34
640.468	0.34
640.799	0.34
641.129	0.34
641.46	0.33
641.791	0.33
642.121	0.33
642.451	0.33
642.782	0.33
643.112	0.33
643.442	0.32
643.773	0.32
644.103	0.32
644.433	0.32
644.763	0.32
645.093	0.32
645.423	0.32
645.753	0.32
646.082	0.31
646.412	0.31
646.742	0.31
647.072	0.31
647.401	0.3
647.731	0.3
648.06	0.3
648.39	0.3
648.719	0.3
649.048	0.3
649.378	0.3
649.707	0.3
650.036	0.29
650.365	0.29
650.694	0.29
651.023	0.29
651.352	0.29
651.681	0.29
652.01	0.29
652.339	0.28
652.668	0.28
652.996	0.28
653.325	0.28
653.654	0.28
653.982	0.28
654.311	0.28
654.639	0.28
654.967	0.28
655.296	0.28
655.624	0.28
655.952	0.28
656.28	0.28
656.609	0.28
656.937	0.28
657.265	0.27
657.593	0.11
657.92	0.03
658.248	0.01
658.576	0.06
658.904	0.18
659.231	0.26
659.559	0.27
659.887	0.27
660.214	0.26
660.542	0.26
660.869	0.27
661.196	0.26
661.524	0.26
661.851	0.26
662.178	0.26
662.505	0.26
662.832	0.26
663.159	0.26
663.486	0.26
663.813	0.25
664.14	0.25
664.467	0.25
664.794	0.25
665.12	0.25
665.447	0.25
665.774	0.25
666.1	0.25
666.427	0.25
666.753	0.24
667.079	0.24
667.406	0.24
667.732	0.24
668.058	0.24
668.384	0.24
668.71	0.24
669.036	0.23
669.362	0.23
669.688	0.23
670.014	0.23
670.34	0.23
670.666	0.23
670.991	0.23
671.317	0.22
671.643	0.22
671.968	0.22
672.294	0.22
672.619	0.22
672.945	0.22
673.27	0.22
673.595	0.21
673.92	0.21
674.246	0.21
674.571	0.21
674.896	0.2
675.221	0.2
675.546	0.2
675.87	0.2
676.195	0.2
676.52	0.2
676.845	0.2
677.169	0.2
677.494	0.19
677.819	0.19
678.143	0.19
678.468	0.19
678.792	0.19
679.116	0.19
679.44	0.19
679.765	0.18
680.089	0.18
680.413	0.18
680.737	0.18
681.061	0.17
681.385	0.17
681.709	0.17
682.033	0.17
682.356	0.17
682.68	0.17
683.004	0.17
683.327	0.16
683.651	0.16
683.974	0.16
684.298	0.16
684.621	0.16
684.944	0.15
685.268	0.15
685.591	0.15
685.914	0.14
686.237	0.14
686.56	0.14
686.883	0.14
687.206	0.14
687.529	0.14
687.852	0.13
688.175	0.14
688.497	0.14
688.82	0.14
689.142	0.13
689.465	0.13
689.787	0.13
690.11	0.13
690.432	0.13
690.755	0.13
691.077	0.12
691.399	0.12
691.721	0.12
692.043	0.12
692.365	0.12
692.687	0.11
693.009	0.11
693.331	0.11
693.653	0.11
693.974	0.11
694.296	0.11
694.618	0.11
694.939	0.11
695.261	0.11
695.582	0.1
695.904	0.1
696.225	0.1
696.546	0.1
696.868	0.1
697.189	0.1
697.51	0.1
697.831	0.1
698.152	0.1
698.473	0.09
698.794	0.08
699.114	0.08
699.435	0.07
699.756	0.08
700.077	0.08
700.397	0.08
700.718	0.08
701.038	0.08
701.359	0.09
701.679	0.08
701.999	0.08
702.32	0.08
702.64	0.08
702.96	0.08
703.28	0.09
703.6	0.08
703.92	0.08
704.24	0.08
704.56	0.07
704.879	0.07
705.199	0.08
705.519	0.08
705.838	0.08
706.158	0.08
706.478	0.08
706.797	0.08
707.116	0.08
707.436	0.08
707.755	0.07
708.074	0.08
708.393	0.07
708.712	0.07
709.031	0.06
709.35	0.06
709.669	0.06
709.988	0.06
710.307	0.06
710.626	0.07
710.944	0.07
711.263	0.07
711.582	0.07
711.9	0.07
712.219	0.07
712.537	0.07
712.855	0.07
713.174	0.07
713.492	0.07
713.81	0.07
714.128	0.07
714.446	0.07
714.764	0.07
715.082	0.06
715.4	0.07
715.718	0.06
716.035	0.06
716.353	0.07
716.671	0.07
716.988	0.07
717.306	0.07
717.623	0.07
717.941	0.07
718.258	0.08
718.575	0.08
718.893	0.08
719.21	0.07
719.527	0.07
719.844	0.07
720.161	0.07
720.478	0.07
720.795	0.07
721.112	0.08
721.428	0.08
721.745	0.08
722.062	0.08
722.378	0.08
722.695	0.08
723.011	0.08
723.328	0.08
723.644	0.08
723.96	0.08
724.276	0.08
724.593	0.08
724.909	0.08
725.225	0.08
725.541	0.08
725.857	0.08
726.173	0.08
726.488	0.08
726.804	0.08
727.12	0.08
727.435	0.08
727.751	0.07
728.067	0.08
728.382	0.08
728.697	0.08
729.013	0.08
729.328	0.08
729.643	0.08
729.958	0.07
730.273	0.08
730.588	0.08
730.903	0.08
731.218	0.08
731.533	0.08
731.848	0.08
732.163	0.08
732.477	0.07
732.792	0.07
733.107	0.06
733.421	0.07
733.736	0.07
734.05	0.07
734.364	0.07
734.678	0.07
734.993	0.07
735.307	0.07
735.621	0.07
735.935	0.07
736.249	0.07
736.563	0.07
736.877	0.07
737.19	0.07
737.504	0.07
737.818	0.07
738.131	0.07
738.445	0.08
738.758	0.08
739.072	0.08
739.385	0.08
739.698	0.08
740.012	0.08
740.325	0.07
740.638	0.07
740.951	0.07
741.264	0.06
741.577	0.07
741.89	0.07
742.203	0.07
742.515	0.07
742.828	0.07
743.141	0.07
743.453	0.07
743.766	0.07
744.078	0.07
744.391	0.06
744.703	0.06
745.015	0.06
745.327	0.06
745.639	0.06
745.952	0.06
746.264	0.06
746.575	0.07
746.887	0.06
747.199	0.06
747.511	0.06
747.823	0.06
748.134	0.06
748.446	0.06
748.757	0.05
749.069	0.05
749.38	0.05
749.692	0.05
750.003	0.05
750.314	0.04
750.625	0.05
750.936	0.05
751.248	0.05
751.559	0.05
751.869	0.05
752.18	0.05
752.491	0.05
752.802	0.04
753.112	0.05
753.423	0.04
753.734	0.04
754.044	0.04
754.355	0.04
754.665	0.04
754.975	0.04
755.285	0.04
755.596	0.04
755.906	0.04
756.216	0.04
756.526	0.04
756.836	0.04
757.146	0.04
757.455	0.04
757.765	0.04
758.075	0.04
758.385	0.03
758.694	0.03
759.004	0.03
759.313	0.03
759.622	0.03
759.932	0.04
760.241	0.04
760.55	0.04
760.859	0.04
761.168	0.04
761.477	0.04
761.786	0.04
762.095	0.04
762.404	0.04
762.713	0.04
763.021	0.04
763.33	0.04
763.639	0.04
763.947	0.04
764.256	0.04
764.564	0.04
764.872	0.04
765.181	0.04
765.489	0.03
765.797	0.03
766.105	0.03
766.413	0.03
766.721	0.03
767.029	0.03
767.337	0.03
767.644	0.04
767.952	0.04
768.26	0.04
768.567	0.04
768.875	0.04
769.182	0.04
769.49	0.04
769.797	0.04
770.104	0.04
770.411	0.03
770.718	0.03
771.026	0.03
771.333	0.03
771.639	0.03
771.946	0.03
772.253	0.03
772.56	0.03
772.867	0.03
773.173	0.03
773.48	0.03
773.786	0.03
774.093	0.03
774.399	0.03
774.705	0.03
775.012	0.03
775.318	0.03
775.624	0.04
775.93	0.03
776.236	0.04
776.542	0.04
776.848	0.04
777.154	0.04
777.459	0.04
777.765	0.04
778.071	0.04
778.376	0.03
778.682	0.03
778.987	0.04
779.292	0.03
779.598	0.03
779.903	0.03
780.208	0.03
780.513	0.03
780.818	0.03
781.123	0.03
781.428	0.03
781.733	0.03
782.038	0.03
782.343	0.03
782.647	0.03
782.952	0.02
783.256	0.03
783.561	0.03
783.865	0.02
784.17	0.02
784.474	0.02
784.778	0.02
785.082	0.03
785.386	0.02
785.69	0.03
785.994	0.03
786.298	0.03
786.602	0.03
786.906	0.03
787.209	0.03
787.513	0.03
787.817	0.04
788.12	0.04
788.424	0.04
788.727	0.04
789.03	0.04
789.333	0.04
789.637	0.03
789.94	0.03
790.243	0.04
790.546	0.04
790.849	0.04
791.152	0.04
791.454	0.04
791.757	0.04
792.06	0.04
792.362	0.04
792.665	0.04
792.967	0.04
793.27	0.04
793.572	0.04
793.874	0.04
794.177	0.04
794.479	0.04
794.781	0.04
795.083	0.04
795.385	0.05
795.687	0.04
795.989	0.04
796.29	0.04
796.592	0.04
796.894	0.04
797.195	0.04
797.497	0.04
797.798	0.04
798.1	0.04
798.401	0.04
798.702	0.04
799.003	0.04
799.304	0.04
799.605	0.04
799.906	0.04
800.207	0.04
800.508	0.04
800.809	0.05
801.11	0.04
801.41	0.04
801.711	0.04
802.011	0.05
802.312	0.05
802.612	0.04
802.913	0.04
803.213	0.05
803.513	0.04
803.813	0.04
804.113	0.04
804.413	0.05
804.713	0.05
805.013	0.05
805.313	0.05
805.613	0.05
805.912	0.05
806.212	0.05
806.511	0.05
806.811	0.05
807.11	0.05
807.41	0.05
807.709	0.05
808.008	0.05
808.307	0.05
808.606	0.05
808.905	0.05
809.204	0.05
809.503	0.05
809.802	0.05
810.101	0.05
810.399	0.05
810.698	0.05
810.997	0.05
811.295	0.05
811.593	0.05
811.892	0.05
812.19	0.05
812.488	0.05
812.786	0.05
813.084	0.05
813.383	0.05
813.68	0.06
813.978	0.06
814.276	0.06
814.574	0.06
814.872	0.06
815.169	0.06
815.467	0.05
815.764	0.05
816.062	0.06
816.359	0.05
816.656	0.05
816.954	0.05
817.251	0.05
817.548	0.05
817.845	0.06
818.142	0.06
818.439	0.06
818.735	0.06
819.032	0.06
819.329	0.06
819.626	0.06
819.922	0.06
820.219	0.07
820.515	0.07
820.811	0.07
821.108	0.07
821.404	0.06
821.7	0.06
821.996	0.06
822.292	0.06
822.588	0.06
822.884	0.07
823.18	0.07
823.475	0.08
823.771	0.08
824.067	0.07
824.362	0.07
824.658	0.07
824.953	0.07
825.249	0.07
825.544	0.07
825.839	0.07
826.134	0.06
826.429	0.07
826.724	0.06
827.019	0.07
827.314	0.07
827.609	0.08
827.904	0.07
828.198	0.07
828.493	0.07
828.787	0.07
829.082	0.07
829.376	0.07
829.671	0.08
829.965	0.08
830.259	0.08
830.553	0.08
830.847	0.08
831.141	0.08
831.435	0.08
831.729	0.08
832.023	0.08
832.317	0.08
832.61	0.08
832.904	0.08
833.197	0.08
833.491	0.08
833.784	0.08
834.077	0.08
834.371	0.08
834.664	0.09
834.957	0.09
835.25	0.08
835.543	0.08
835.836	0.09
836.129	0.09
836.421	0.09
836.714	0.08
837.007	0.09
837.299	0.08
837.592	0.08
837.884	0.09
838.177	0.08
838.469	0.08
838.761	0.09
839.053	0.09
839.345	0.09
839.637	0.08
839.929	0.09
840.221	0.09
840.513	0.09
840.805	0.09
841.096	0.09
841.388	0.09
841.68	0.09
841.971	0.1
842.262	0.09
842.554	0.09
842.845	0.09
843.136	0.08
843.427	0.09
843.718	0.09
844.009	0.09
844.3	0.09
844.591	0.09
844.882	0.09
845.173	0.1
845.463	0.09
845.754	0.1
846.044	0.09
846.335	0.09
846.625	0.09
846.915	0.09
847.206	0.1
847.496	0.1
847.786	0.1
848.076	0.09
848.366	0.1
848.656	0.09
848.945	0.09
849.235	0.08
849.525	0.08
849.814	0.08
850.104	0.08
850.393	0.1
850.683	0.1
850.972	0.1
851.261	0.1
851.551	0.11
851.84	0.1
852.129	0.1
852.418	0.09
852.707	0.11
852.995	0.1
853.284	0.1
853.573	0.1
853.862	0.09
854.15	0.1
854.439	0.09
854.727	0.09
855.015	0.09
855.304	0.11
855.592	0.1
855.88	0.09
856.168	0.09
856.456	0.1
856.744	0.1
857.032	0.1
857.32	0.09
857.607	0.1
857.895	0.1
858.183	0.1
858.47	0.09
858.757	0.11
859.045	0.11
859.332	0.12
859.619	0.1
859.907	0.1
860.194	0.09
860.481	0.11
860.768	0.11
861.054	0.1
861.341	0.09
861.628	0.11
861.915	0.09
862.201	0.11
862.488	0.11
862.774	0.12
863.061	0.12
863.347	0.11
863.633	0.12
863.919	0.08
864.205	0.1
864.491	0.11
864.777	0.14
865.063	0.1
865.349	0.1
865.635	0.11
865.92	0.09
866.206	0.13
866.492	0.12
866.777	0.13
867.062	0.12
867.348	0.1
867.633	0.07
867.918	0.12
868.203	0.09
868.488	0.1
868.773	0.13
869.058	0.11
869.343	0.1
869.628	0.1
869.912	0.09
870.197	0.09
870.482	0.11
870.766	0.13
871.05	0.13
871.335	0.12
871.619	0.12
871.903	0.08
872.187	0.11
872.471	0.15
872.755	0.17
873.039	0.1
873.323	0.13
873.607	0.15
873.89	0.12
874.174	0.08
874.458	0.18
874.741	0.11
875.024	0.15
875.308	0.06
875.591	0.05
875.874	0.14
876.157	0.09
876.44	0.08
876.723	0.05
877.006	0.07
877.289	0.16
877.572	0.18
877.854	0.17
878.137	0.06
878.42	0.13
878.702	0.05
878.984	0.21
879.267	0.18
879.549	0.01
879.831	0.1
880.113	0.09
880.395	0.19
880.677	-0.02
880.959	0.08
