Data from Rubpy_BV_1800_EDTA_Buffered_Absorbance_15-06-35-888.txt Node
Date: Wed Jul 01 15:06:35 BST 2026
User: fpm-admin
Spectrometer: OFX00224
Trigger mode: 0
Integration Time (sec): 7.000000E-2
Scans to average: 3
Nonlinearity correction enabled: false
Boxcar width: 0
Storing dark spectrum: false
XAxis mode: Wavelengths
Number of Pixels in Spectrum: 2136
>>>>>Begin Spectral Data<<<<<
154.91	-0.52
155.289	-0
155.669	-1.07
156.048	-0
156.428	0.07
156.807	-0
157.186	0.05
157.566	0.15
157.945	-0
158.325	0.18
158.704	-0
159.083	-0
159.462	-0
159.842	0.54
160.221	-0
160.6	0.21
160.979	-0
161.359	-0
161.738	0.15
162.117	0.16
162.496	-0.26
162.875	-0
163.254	0.4
163.633	-0
164.012	1.3
164.391	-0.6
164.77	-0.9
165.149	-0
165.528	-0
165.907	-0
166.286	0.18
166.665	0.34
167.044	1.09
167.423	0.3
167.802	0.08
168.181	-0
168.559	-0
168.938	-0.91
169.317	-0.18
169.696	-0
170.074	-0.08
170.453	-0
170.832	-0.72
171.21	-0
171.589	-0.34
171.968	-0
172.346	-0
172.725	1.08
173.103	0.2
173.482	0.11
173.861	-0.81
174.239	1.06
174.617	-0
174.996	0.48
175.374	-0
175.753	1.15
176.131	-0
176.51	-0.08
176.888	-0
177.266	-0
177.645	-0.02
178.023	-0
178.401	-0.12
178.779	-0.37
179.158	-0
179.536	-0.44
179.914	-0.26
180.292	-0
180.67	0.53
181.048	-0.48
181.427	-0
181.805	-0
182.183	-1.36
182.561	0.81
182.939	-0.33
183.317	0.06
183.695	-0
184.073	0.49
184.451	0.27
184.829	-0
185.206	-0.18
185.584	0.38
185.962	-0
186.34	0.41
186.718	-0.36
187.096	-0
187.473	0.54
187.851	-0
188.229	-0
188.607	0.17
188.984	0.2
189.362	0.21
189.74	0.24
190.117	0.11
190.495	0.11
190.872	0.34
191.25	0.31
191.627	0.28
192.005	0.1
192.382	0.13
192.76	0.15
193.137	0.34
193.515	0.16
193.892	0.21
194.269	0.45
194.647	0.31
195.024	0.1
195.401	0.37
195.779	0.39
196.156	0.21
196.533	0.45
196.91	0.16
197.288	0.28
197.665	0.19
198.042	0.23
198.419	0.25
198.796	0.05
199.173	0.31
199.55	0.36
199.927	0.17
200.304	0.21
200.681	0.41
201.058	0.2
201.435	0.27
201.812	0.23
202.189	0.38
202.566	0.29
202.943	0.1
203.32	0.27
203.697	0.27
204.073	0.18
204.45	0.29
204.827	0.31
205.204	0.23
205.58	0.27
205.957	0.25
206.334	0.18
206.71	0.28
207.087	0.32
207.464	0.21
207.84	0.37
208.217	0.34
208.593	0.4
208.97	0.47
209.346	0.29
209.723	0.32
210.099	0.22
210.476	0.3
210.852	0.21
211.228	0.22
211.605	0.29
211.981	0.37
212.357	0.23
212.733	0.45
213.11	0.22
213.486	0.22
213.862	0.31
214.238	0.25
214.614	0.27
214.991	0.21
215.367	0.24
215.743	0.27
216.119	0.39
216.495	0.22
216.871	0.21
217.247	0.15
217.623	0.34
217.999	0.34
218.375	0.29
218.751	0.3
219.127	0.28
219.502	0.19
219.878	0.27
220.254	0.2
220.63	0.3
221.006	0.31
221.381	0.26
221.757	0.15
222.133	0.32
222.508	0.19
222.884	0.22
223.26	0.32
223.635	0.3
224.011	0.32
224.386	0.33
224.762	0.19
225.137	0.43
225.513	0.18
225.888	0.29
226.264	0.16
226.639	0.28
227.014	0.23
227.39	0.27
227.765	0.27
228.14	0.47
228.516	0.32
228.891	0.19
229.266	0.24
229.641	0.26
230.017	0.25
230.392	0.25
230.767	0.28
231.142	0.08
231.517	0.13
231.892	0.37
232.267	0.33
232.642	0.29
233.017	0.4
233.392	0.22
233.767	0.34
234.142	0.19
234.517	0.32
234.892	0.25
235.267	0.21
235.641	0.15
236.016	0.25
236.391	0.15
236.766	0.21
237.14	0.24
237.515	0.41
237.89	0.2
238.264	0.12
238.639	0.2
239.014	0.28
239.388	0.2
239.763	0.26
240.137	0.34
240.512	0.23
240.886	0.33
241.261	0.23
241.635	0.14
242.009	0.26
242.384	0.27
242.758	0.24
243.132	0.32
243.507	0.25
243.881	0.28
244.255	0.26
244.629	0.24
245.004	0.26
245.378	0.29
245.752	0.27
246.126	0.24
246.5	0.25
246.874	0.29
247.248	0.36
247.622	0.36
247.996	0.22
248.37	0.21
248.744	0.35
249.118	0.22
249.492	0.24
249.866	0.33
250.24	0.37
250.613	0.26
250.987	0.29
251.361	0.34
251.735	0.27
252.108	0.26
252.482	0.19
252.856	0.22
253.229	0.22
253.603	0.3
253.977	0.34
254.35	0.24
254.724	0.25
255.097	0.29
255.471	0.36
255.844	0.24
256.218	0.31
256.591	0.28
256.964	0.23
257.338	0.3
257.711	0.14
258.084	0.23
258.458	0.36
258.831	0.34
259.204	0.28
259.577	0.2
259.95	0.3
260.323	0.28
260.697	0.4
261.07	0.23
261.443	0.26
261.816	0.23
262.189	0.22
262.562	0.29
262.935	0.31
263.308	0.25
263.68	0.38
264.053	0.23
264.426	0.37
264.799	0.26
265.172	0.21
265.545	0.2
265.917	0.31
266.29	0.24
266.663	0.34
267.035	0.21
267.408	0.27
267.781	0.32
268.153	0.28
268.526	0.25
268.898	0.34
269.271	0.22
269.643	0.38
270.016	0.24
270.388	0.36
270.76	0.27
271.133	0.27
271.505	0.25
271.877	0.24
272.25	0.3
272.622	0.3
272.994	0.35
273.366	0.34
273.739	0.21
274.111	0.18
274.483	0.29
274.855	0.29
275.227	0.3
275.599	0.23
275.971	0.21
276.343	0.27
276.715	0.24
277.087	0.26
277.459	0.18
277.831	0.37
278.203	0.32
278.574	0.28
278.946	0.18
279.318	0.28
279.69	0.36
280.061	0.26
280.433	0.27
280.805	0.27
281.176	0.22
281.548	0.31
281.92	0.15
282.291	0.28
282.663	0.32
283.034	0.24
283.406	0.28
283.777	0.36
284.148	0.3
284.52	0.26
284.891	0.22
285.262	0.32
285.634	0.29
286.005	0.3
286.376	0.26
286.747	0.24
287.119	0.31
287.49	0.29
287.861	0.25
288.232	0.25
288.603	0.32
288.974	0.28
289.345	0.28
289.716	0.29
290.087	0.22
290.458	0.18
290.829	0.18
291.2	0.23
291.571	0.27
291.941	0.26
292.312	0.28
292.683	0.25
293.054	0.3
293.424	0.28
293.795	0.21
294.166	0.3
294.536	0.3
294.907	0.29
295.277	0.3
295.648	0.25
296.018	0.24
296.389	0.28
296.759	0.23
297.13	0.22
297.5	0.27
297.871	0.27
298.241	0.28
298.611	0.28
298.981	0.33
299.352	0.31
299.722	0.32
300.092	0.24
300.462	0.25
300.832	0.3
301.202	0.36
301.573	0.32
301.943	0.28
302.313	0.36
302.683	0.27
303.053	0.23
303.422	0.34
303.792	0.21
304.162	0.32
304.532	0.27
304.902	0.25
305.272	0.34
305.641	0.26
306.011	0.27
306.381	0.27
306.75	0.22
307.12	0.26
307.49	0.32
307.859	0.23
308.229	0.28
308.598	0.26
308.968	0.25
309.337	0.19
309.707	0.24
310.076	0.22
310.445	0.24
310.815	0.21
311.184	0.24
311.553	0.21
311.923	0.22
312.292	0.21
312.661	0.25
313.03	0.24
313.399	0.22
313.768	0.21
314.137	0.22
314.506	0.22
314.875	0.22
315.244	0.22
315.613	0.23
315.982	0.24
316.351	0.26
316.72	0.25
317.089	0.25
317.458	0.24
317.826	0.25
318.195	0.27
318.564	0.25
318.933	0.26
319.301	0.26
319.67	0.25
320.038	0.26
320.407	0.28
320.775	0.28
321.144	0.27
321.512	0.28
321.881	0.29
322.249	0.29
322.618	0.29
322.986	0.28
323.354	0.28
323.723	0.31
324.091	0.3
324.459	0.31
324.827	0.31
325.195	0.33
325.564	0.33
325.932	0.33
326.3	0.34
326.668	0.34
327.036	0.34
327.404	0.34
327.772	0.36
328.14	0.36
328.508	0.35
328.875	0.35
329.243	0.38
329.611	0.38
329.979	0.38
330.346	0.39
330.714	0.39
331.082	0.4
331.449	0.4
331.817	0.41
332.185	0.42
332.552	0.43
332.92	0.44
333.287	0.44
333.655	0.45
334.022	0.46
334.389	0.47
334.757	0.48
335.124	0.48
335.491	0.5
335.859	0.5
336.226	0.51
336.593	0.52
336.96	0.52
337.327	0.53
337.695	0.55
338.062	0.56
338.429	0.57
338.796	0.58
339.163	0.59
339.53	0.6
339.897	0.6
340.263	0.61
340.63	0.63
340.997	0.64
341.364	0.65
341.731	0.66
342.097	0.67
342.464	0.68
342.831	0.7
343.197	0.71
343.564	0.73
343.931	0.74
344.297	0.74
344.664	0.75
345.03	0.77
345.396	0.76
345.763	0.79
346.129	0.8
346.496	0.81
346.862	0.82
347.228	0.83
347.594	0.84
347.961	0.84
348.327	0.86
348.693	0.88
349.059	0.89
349.425	0.89
349.791	0.9
350.157	0.92
350.523	0.93
350.889	0.94
351.255	0.94
351.621	0.96
351.987	0.96
352.353	0.97
352.719	1
353.084	0.99
353.45	1.02
353.816	1.03
354.181	1.04
354.547	1.06
354.913	1.06
355.278	1.07
355.644	1.09
356.009	1.1
356.375	1.1
356.74	1.12
357.106	1.14
357.471	1.15
357.836	1.18
358.202	1.18
358.567	1.2
358.932	1.21
359.297	1.23
359.663	1.24
360.028	1.27
360.393	1.28
360.758	1.3
361.123	1.3
361.488	1.33
361.853	1.35
362.218	1.36
362.583	1.37
362.948	1.36
363.312	1.4
363.677	1.43
364.042	1.43
364.407	1.44
364.772	1.46
365.136	1.46
365.501	1.47
365.865	1.49
366.23	1.49
366.595	1.53
366.959	1.52
367.324	1.52
367.688	1.53
368.052	1.55
368.417	1.57
368.781	1.57
369.145	1.61
369.51	1.58
369.874	1.58
370.238	1.6
370.602	1.62
370.967	1.62
371.331	1.62
371.695	1.63
372.059	1.63
372.423	1.61
372.787	1.64
373.151	1.62
373.515	1.6
373.878	1.6
374.242	1.63
374.606	1.62
374.97	1.59
375.334	1.59
375.697	1.57
376.061	1.55
376.425	1.54
376.788	1.55
377.152	1.51
377.515	1.51
377.879	1.48
378.242	1.49
378.606	1.48
378.969	1.45
379.333	1.44
379.696	1.42
380.059	1.41
380.422	1.42
380.786	1.38
381.149	1.37
381.512	1.34
381.875	1.34
382.238	1.31
382.601	1.29
382.964	1.29
383.327	1.28
383.69	1.26
384.053	1.24
384.416	1.23
384.779	1.23
385.142	1.22
385.504	1.21
385.867	1.2
386.23	1.2
386.593	1.19
386.955	1.2
387.318	1.17
387.68	1.18
388.043	1.17
388.405	1.16
388.768	1.16
389.13	1.16
389.493	1.14
389.855	1.14
390.217	1.14
390.58	1.12
390.942	1.12
391.304	1.1
391.666	1.09
392.028	1.08
392.391	1.07
392.753	1.06
393.115	1.03
393.477	1.03
393.839	1.02
394.201	1.01
394.563	1
394.924	0.99
395.286	1
395.648	1
396.01	1.01
396.371	1.02
396.733	1.02
397.095	1.03
397.456	1.06
397.818	1.08
398.18	1.1
398.541	1.12
398.903	1.16
399.264	1.18
399.625	1.2
399.987	1.23
400.348	1.23
400.709	1.25
401.071	1.25
401.432	1.26
401.793	1.27
402.154	1.24
402.515	1.24
402.876	1.22
403.238	1.19
403.599	1.17
403.96	1.14
404.32	1.09
404.681	1.06
405.042	1.01
405.403	0.97
405.764	0.93
406.125	0.88
406.485	0.84
406.846	0.8
407.207	0.75
407.567	0.72
407.928	0.68
408.288	0.64
408.649	0.61
409.009	0.58
409.37	0.55
409.73	0.52
410.091	0.49
410.451	0.46
410.811	0.43
411.171	0.42
411.532	0.4
411.892	0.38
412.252	0.36
412.612	0.35
412.972	0.33
413.332	0.31
413.692	0.31
414.052	0.29
414.412	0.28
414.772	0.27
415.132	0.26
415.492	0.25
415.851	0.25
416.211	0.23
416.571	0.23
416.931	0.22
417.29	0.21
417.65	0.21
418.009	0.21
418.369	0.2
418.728	0.2
419.088	0.19
419.447	0.19
419.807	0.18
420.166	0.18
420.525	0.17
420.884	0.17
421.244	0.17
421.603	0.17
421.962	0.16
422.321	0.17
422.68	0.16
423.039	0.14
423.398	0.15
423.757	0.15
424.116	0.15
424.475	0.15
424.834	0.15
425.193	0.13
425.551	0.15
425.91	0.14
426.269	0.14
426.628	0.14
426.986	0.15
427.345	0.14
427.703	0.13
428.062	0.13
428.42	0.13
428.779	0.14
429.137	0.13
429.496	0.13
429.854	0.13
430.212	0.12
430.57	0.13
430.929	0.12
431.287	0.12
431.645	0.12
432.003	0.12
432.361	0.13
432.719	0.12
433.077	0.12
433.435	0.13
433.793	0.13
434.151	0.13
434.509	0.12
434.866	0.11
435.224	0.12
435.582	0.12
435.94	0.12
436.297	0.12
436.655	0.12
437.012	0.12
437.37	0.13
437.727	0.12
438.085	0.12
438.442	0.12
438.8	0.11
439.157	0.13
439.514	0.12
439.872	0.12
440.229	0.12
440.586	0.11
440.943	0.12
441.3	0.12
441.657	0.13
442.014	0.12
442.371	0.12
442.728	0.12
443.085	0.13
443.442	0.12
443.799	0.12
444.156	0.12
444.513	0.12
444.869	0.12
445.226	0.13
445.583	0.13
445.939	0.13
446.296	0.12
446.652	0.13
447.009	0.12
447.365	0.12
447.722	0.12
448.078	0.11
448.434	0.13
448.791	0.13
449.147	0.12
449.503	0.12
449.859	0.13
450.215	0.12
450.571	0.12
450.928	0.13
451.284	0.13
451.64	0.12
451.995	0.12
452.351	0.12
452.707	0.12
453.063	0.12
453.419	0.12
453.775	0.11
454.13	0.12
454.486	0.12
454.842	0.12
455.197	0.12
455.553	0.11
455.908	0.12
456.264	0.11
456.619	0.11
456.975	0.11
457.33	0.11
457.685	0.11
458.04	0.11
458.396	0.1
458.751	0.1
459.106	0.1
459.461	0.09
459.816	0.09
460.171	0.09
460.526	0.1
460.881	0.08
461.236	0.07
461.591	0.08
461.946	0.08
462.301	0.08
462.655	0.07
463.01	0.07
463.365	0.07
463.719	0.06
464.074	0.06
464.428	0.05
464.783	0.05
465.137	0.05
465.492	0.06
465.846	0.05
466.201	0.05
466.555	0.05
466.909	0.05
467.263	0.06
467.618	0.06
467.972	0.06
468.326	0.07
468.68	0.05
469.034	0.06
469.388	0.05
469.742	0.06
470.096	0.06
470.45	0.07
470.804	0.06
471.157	0.07
471.511	0.07
471.865	0.07
472.218	0.07
472.572	0.09
472.926	0.09
473.279	0.09
473.633	0.1
473.986	0.12
474.34	0.12
474.693	0.12
475.046	0.13
475.4	0.14
475.753	0.15
476.106	0.16
476.459	0.16
476.812	0.17
477.165	0.19
477.519	0.19
477.872	0.19
478.224	0.19
478.577	0.21
478.93	0.21
479.283	0.21
479.636	0.23
479.989	0.23
480.341	0.24
480.694	0.24
481.047	0.25
481.399	0.26
481.752	0.26
482.104	0.27
482.457	0.27
482.809	0.28
483.162	0.28
483.514	0.29
483.866	0.29
484.219	0.3
484.571	0.29
484.923	0.29
485.275	0.31
485.627	0.31
485.979	0.32
486.331	0.32
486.683	0.33
487.035	0.32
487.387	0.34
487.739	0.35
488.091	0.34
488.443	0.35
488.794	0.36
489.146	0.36
489.498	0.36
489.849	0.36
490.201	0.37
490.552	0.37
490.904	0.37
491.255	0.38
491.607	0.38
491.958	0.39
492.309	0.39
492.661	0.39
493.012	0.39
493.363	0.4
493.714	0.4
494.065	0.4
494.416	0.41
494.767	0.41
495.118	0.42
495.469	0.42
495.82	0.43
496.171	0.43
496.522	0.44
496.872	0.44
497.223	0.44
497.574	0.44
497.924	0.45
498.275	0.45
498.626	0.45
498.976	0.46
499.327	0.46
499.677	0.46
500.027	0.47
500.378	0.48
500.728	0.48
501.078	0.48
501.428	0.48
501.779	0.49
502.129	0.49
502.479	0.49
502.829	0.5
503.179	0.5
503.529	0.51
503.879	0.51
504.229	0.51
504.578	0.52
504.928	0.51
505.278	0.52
505.628	0.52
505.977	0.53
506.327	0.54
506.676	0.54
507.026	0.54
507.375	0.54
507.725	0.55
508.074	0.55
508.424	0.55
508.773	0.56
509.122	0.56
509.471	0.57
509.82	0.57
510.17	0.56
510.519	0.57
510.868	0.58
511.217	0.58
511.566	0.58
511.915	0.58
512.263	0.59
512.612	0.59
512.961	0.6
513.31	0.6
513.659	0.6
514.007	0.61
514.356	0.61
514.704	0.61
515.053	0.61
515.401	0.62
515.75	0.62
516.098	0.62
516.447	0.63
516.795	0.63
517.143	0.63
517.491	0.63
517.839	0.64
518.188	0.64
518.536	0.64
518.884	0.64
519.232	0.64
519.58	0.65
519.928	0.64
520.275	0.65
520.623	0.65
520.971	0.66
521.319	0.65
521.666	0.66
522.014	0.67
522.362	0.67
522.709	0.67
523.057	0.67
523.404	0.68
523.752	0.67
524.099	0.67
524.446	0.68
524.794	0.69
525.141	0.69
525.488	0.68
525.835	0.69
526.182	0.69
526.529	0.69
526.876	0.7
527.223	0.69
527.57	0.7
527.917	0.7
528.264	0.7
528.611	0.7
528.958	0.71
529.304	0.71
529.651	0.71
529.998	0.71
530.344	0.71
530.691	0.71
531.037	0.72
531.384	0.72
531.73	0.73
532.076	0.72
532.423	0.72
532.769	0.72
533.115	0.73
533.461	0.73
533.807	0.73
534.154	0.73
534.5	0.74
534.846	0.73
535.192	0.74
535.537	0.74
535.883	0.74
536.229	0.74
536.575	0.74
536.921	0.74
537.266	0.75
537.612	0.75
537.957	0.75
538.303	0.74
538.649	0.75
538.994	0.75
539.339	0.75
539.685	0.76
540.03	0.75
540.375	0.75
540.721	0.75
541.066	0.76
541.411	0.76
541.756	0.76
542.101	0.77
542.446	0.76
542.791	0.76
543.136	0.76
543.481	0.77
543.825	0.76
544.17	0.77
544.515	0.77
544.86	0.77
545.204	0.77
545.549	0.77
545.893	0.77
546.238	0.77
546.582	0.77
546.927	0.78
547.271	0.77
547.615	0.77
547.96	0.78
548.304	0.78
548.648	0.78
548.992	0.77
549.336	0.77
549.68	0.78
550.024	0.78
550.368	0.78
550.712	0.78
551.056	0.78
551.4	0.78
551.743	0.78
552.087	0.77
552.431	0.78
552.774	0.78
553.118	0.78
553.462	0.78
553.805	0.78
554.148	0.78
554.492	0.78
554.835	0.78
555.178	0.78
555.522	0.78
555.865	0.78
556.208	0.78
556.551	0.78
556.894	0.78
557.237	0.78
557.58	0.77
557.923	0.78
558.266	0.78
558.609	0.78
558.952	0.77
559.294	0.78
559.637	0.78
559.98	0.77
560.322	0.78
560.665	0.77
561.007	0.77
561.35	0.77
561.692	0.76
562.034	0.77
562.377	0.77
562.719	0.76
563.061	0.77
563.403	0.77
563.745	0.77
564.088	0.77
564.43	0.76
564.772	0.76
565.113	0.76
565.455	0.76
565.797	0.76
566.139	0.76
566.481	0.76
566.822	0.76
567.164	0.76
567.506	0.76
567.847	0.76
568.189	0.75
568.53	0.75
568.872	0.76
569.213	0.75
569.554	0.74
569.895	0.74
570.237	0.74
570.578	0.75
570.919	0.75
571.26	0.74
571.601	0.74
571.942	0.74
572.283	0.74
572.624	0.74
572.965	0.73
573.306	0.73
573.646	0.72
573.987	0.72
574.328	0.73
574.668	0.72
575.009	0.72
575.349	0.72
575.69	0.71
576.03	0.72
576.37	0.71
576.711	0.7
577.051	0.71
577.391	0.71
577.731	0.71
578.072	0.71
578.412	0.71
578.752	0.7
579.092	0.7
579.431	0.69
579.771	0.67
580.111	0.67
580.451	0.68
580.791	0.7
581.13	0.7
581.47	0.7
581.81	0.7
582.149	0.69
582.489	0.69
582.828	0.67
583.167	0.65
583.507	0.61
583.846	0.61
584.185	0.65
584.525	0.67
584.864	0.68
585.203	0.69
585.542	0.69
585.881	0.69
586.22	0.68
586.559	0.68
586.898	0.67
587.236	0.66
587.575	0.66
587.914	0.67
588.252	0.68
588.591	0.68
588.93	0.68
589.268	0.67
589.607	0.67
589.945	0.67
590.283	0.68
590.622	0.67
590.96	0.68
591.298	0.68
591.636	0.68
591.974	0.68
592.313	0.68
592.651	0.68
592.989	0.68
593.326	0.68
593.664	0.68
594.002	0.68
594.34	0.67
594.678	0.67
595.015	0.66
595.353	0.66
595.691	0.67
596.028	0.68
596.366	0.67
596.703	0.68
597.04	0.67
597.378	0.67
597.715	0.68
598.052	0.68
598.389	0.68
598.726	0.67
599.064	0.67
599.401	0.67
599.738	0.67
600.074	0.67
600.411	0.66
600.748	0.67
601.085	0.66
601.422	0.66
601.758	0.66
602.095	0.66
602.432	0.66
602.768	0.66
603.105	0.66
603.441	0.66
603.777	0.66
604.114	0.66
604.45	0.66
604.786	0.66
605.122	0.66
605.459	0.65
605.795	0.65
606.131	0.65
606.467	0.65
606.803	0.65
607.139	0.65
607.474	0.65
607.81	0.64
608.146	0.64
608.482	0.64
608.817	0.64
609.153	0.64
609.488	0.63
609.824	0.63
610.159	0.63
610.495	0.63
610.83	0.63
611.165	0.63
611.5	0.62
611.836	0.62
612.171	0.62
612.506	0.62
612.841	0.62
613.176	0.61
613.511	0.61
613.845	0.61
614.18	0.61
614.515	0.61
614.85	0.6
615.184	0.61
615.519	0.61
615.854	0.6
616.188	0.6
616.523	0.6
616.857	0.59
617.191	0.59
617.526	0.59
617.86	0.59
618.194	0.59
618.528	0.59
618.862	0.59
619.196	0.59
619.53	0.59
619.864	0.58
620.198	0.58
620.532	0.57
620.866	0.58
621.2	0.57
621.533	0.57
621.867	0.57
622.201	0.56
622.534	0.56
622.868	0.56
623.201	0.56
623.534	0.55
623.868	0.55
624.201	0.55
624.534	0.55
624.868	0.55
625.201	0.55
625.534	0.55
625.867	0.54
626.2	0.54
626.533	0.54
626.865	0.54
627.198	0.53
627.531	0.53
627.864	0.52
628.196	0.52
628.529	0.52
628.862	0.52
629.194	0.52
629.527	0.51
629.859	0.51
630.191	0.51
630.524	0.51
630.856	0.5
631.188	0.5
631.52	0.5
631.852	0.49
632.184	0.49
632.516	0.48
632.848	0.48
633.18	0.48
633.512	0.48
633.844	0.47
634.175	0.47
634.507	0.47
634.839	0.46
635.17	0.46
635.502	0.46
635.833	0.46
636.165	0.45
636.496	0.45
636.827	0.45
637.159	0.44
637.49	0.44
637.821	0.44
638.152	0.44
638.483	0.43
638.814	0.43
639.145	0.43
639.476	0.42
639.807	0.42
640.137	0.42
640.468	0.42
640.799	0.41
641.129	0.41
641.46	0.41
641.791	0.41
642.121	0.4
642.451	0.4
642.782	0.4
643.112	0.39
643.442	0.39
643.773	0.39
644.103	0.39
644.433	0.39
644.763	0.39
645.093	0.38
645.423	0.38
645.753	0.38
646.082	0.37
646.412	0.38
646.742	0.38
647.072	0.37
647.401	0.37
647.731	0.37
648.06	0.37
648.39	0.37
648.719	0.37
649.048	0.37
649.378	0.36
649.707	0.36
650.036	0.35
650.365	0.36
650.694	0.35
651.023	0.35
651.352	0.35
651.681	0.35
652.01	0.35
652.339	0.34
652.668	0.35
652.996	0.34
653.325	0.34
653.654	0.35
653.982	0.34
654.311	0.34
654.639	0.34
654.967	0.34
655.296	0.34
655.624	0.34
655.952	0.33
656.28	0.33
656.609	0.33
656.937	0.33
657.265	0.32
657.593	0.16
657.92	0.07
658.248	0.05
658.576	0.11
658.904	0.24
659.231	0.32
659.559	0.32
659.887	0.32
660.214	0.32
660.542	0.32
660.869	0.32
661.196	0.32
661.524	0.32
661.851	0.31
662.178	0.31
662.505	0.31
662.832	0.31
663.159	0.31
663.486	0.31
663.813	0.31
664.14	0.3
664.467	0.3
664.794	0.3
665.12	0.3
665.447	0.3
665.774	0.3
666.1	0.3
666.427	0.29
666.753	0.29
667.079	0.29
667.406	0.29
667.732	0.29
668.058	0.29
668.384	0.29
668.71	0.29
669.036	0.28
669.362	0.28
669.688	0.28
670.014	0.28
670.34	0.27
670.666	0.27
670.991	0.27
671.317	0.27
671.643	0.27
671.968	0.27
672.294	0.26
672.619	0.26
672.945	0.26
673.27	0.26
673.595	0.26
673.92	0.25
674.246	0.25
674.571	0.25
674.896	0.25
675.221	0.24
675.546	0.24
675.87	0.24
676.195	0.24
676.52	0.24
676.845	0.24
677.169	0.24
677.494	0.23
677.819	0.23
678.143	0.23
678.468	0.23
678.792	0.23
679.116	0.23
679.44	0.23
679.765	0.22
680.089	0.22
680.413	0.21
680.737	0.21
681.061	0.21
681.385	0.2
681.709	0.2
682.033	0.2
682.356	0.2
682.68	0.2
683.004	0.2
683.327	0.2
683.651	0.19
683.974	0.19
684.298	0.19
684.621	0.19
684.944	0.18
685.268	0.18
685.591	0.18
685.914	0.18
686.237	0.17
686.56	0.17
686.883	0.17
687.206	0.17
687.529	0.17
687.852	0.16
688.175	0.17
688.497	0.17
688.82	0.16
689.142	0.16
689.465	0.16
689.787	0.16
690.11	0.16
690.432	0.15
690.755	0.15
691.077	0.15
691.399	0.14
691.721	0.14
692.043	0.14
692.365	0.14
692.687	0.14
693.009	0.14
693.331	0.13
693.653	0.13
693.974	0.13
694.296	0.13
694.618	0.13
694.939	0.13
695.261	0.13
695.582	0.13
695.904	0.13
696.225	0.13
696.546	0.13
696.868	0.12
697.189	0.12
697.51	0.12
697.831	0.12
698.152	0.12
698.473	0.11
698.794	0.1
699.114	0.1
699.435	0.09
699.756	0.1
700.077	0.1
700.397	0.1
700.718	0.1
701.038	0.11
701.359	0.11
701.679	0.11
701.999	0.1
702.32	0.1
702.64	0.1
702.96	0.1
703.28	0.1
703.6	0.1
703.92	0.1
704.24	0.1
704.56	0.09
704.879	0.09
705.199	0.09
705.519	0.1
705.838	0.09
706.158	0.1
706.478	0.1
706.797	0.1
707.116	0.1
707.436	0.1
707.755	0.09
708.074	0.09
708.393	0.09
708.712	0.08
709.031	0.07
709.35	0.07
709.669	0.07
709.988	0.08
710.307	0.08
710.626	0.08
710.944	0.09
711.263	0.09
711.582	0.09
711.9	0.09
712.219	0.09
712.537	0.09
712.855	0.08
713.174	0.08
713.492	0.08
713.81	0.09
714.128	0.09
714.446	0.09
714.764	0.08
715.082	0.08
715.4	0.08
715.718	0.08
716.035	0.08
716.353	0.09
716.671	0.09
716.988	0.09
717.306	0.08
717.623	0.09
717.941	0.09
718.258	0.1
718.575	0.09
718.893	0.09
719.21	0.09
719.527	0.09
719.844	0.09
720.161	0.09
720.478	0.09
720.795	0.09
721.112	0.09
721.428	0.09
721.745	0.09
722.062	0.09
722.378	0.1
722.695	0.1
723.011	0.1
723.328	0.1
723.644	0.1
723.96	0.1
724.276	0.1
724.593	0.1
724.909	0.1
725.225	0.1
725.541	0.1
725.857	0.1
726.173	0.1
726.488	0.1
726.804	0.09
727.12	0.09
727.435	0.09
727.751	0.09
728.067	0.09
728.382	0.09
728.697	0.1
729.013	0.1
729.328	0.09
729.643	0.09
729.958	0.09
730.273	0.09
730.588	0.09
730.903	0.09
731.218	0.09
731.533	0.09
731.848	0.09
732.163	0.09
732.477	0.09
732.792	0.09
733.107	0.08
733.421	0.09
733.736	0.09
734.05	0.09
734.364	0.08
734.678	0.09
734.993	0.08
735.307	0.09
735.621	0.08
735.935	0.08
736.249	0.08
736.563	0.08
736.877	0.09
737.19	0.09
737.504	0.09
737.818	0.09
738.131	0.09
738.445	0.09
738.758	0.09
739.072	0.09
739.385	0.09
739.698	0.09
740.012	0.09
740.325	0.09
740.638	0.08
740.951	0.08
741.264	0.08
741.577	0.08
741.89	0.08
742.203	0.08
742.515	0.08
742.828	0.08
743.141	0.08
743.453	0.08
743.766	0.08
744.078	0.08
744.391	0.08
744.703	0.08
745.015	0.08
745.327	0.08
745.639	0.07
745.952	0.07
746.264	0.08
746.575	0.08
746.887	0.08
747.199	0.08
747.511	0.07
747.823	0.07
748.134	0.07
748.446	0.07
748.757	0.07
749.069	0.06
749.38	0.06
749.692	0.06
750.003	0.06
750.314	0.06
750.625	0.06
750.936	0.06
751.248	0.06
751.559	0.06
751.869	0.06
752.18	0.06
752.491	0.06
752.802	0.06
753.112	0.06
753.423	0.05
753.734	0.06
754.044	0.05
754.355	0.05
754.665	0.05
754.975	0.05
755.285	0.05
755.596	0.05
755.906	0.05
756.216	0.05
756.526	0.05
756.836	0.05
757.146	0.05
757.455	0.05
757.765	0.05
758.075	0.05
758.385	0.04
758.694	0.04
759.004	0.04
759.313	0.04
759.622	0.04
759.932	0.04
760.241	0.05
760.55	0.05
760.859	0.05
761.168	0.05
761.477	0.05
761.786	0.05
762.095	0.05
762.404	0.04
762.713	0.05
763.021	0.04
763.33	0.05
763.639	0.05
763.947	0.05
764.256	0.05
764.564	0.05
764.872	0.05
765.181	0.05
765.489	0.04
765.797	0.04
766.105	0.04
766.413	0.04
766.721	0.04
767.029	0.04
767.337	0.04
767.644	0.05
767.952	0.05
768.26	0.04
768.567	0.04
768.875	0.04
769.182	0.04
769.49	0.04
769.797	0.04
770.104	0.04
770.411	0.04
770.718	0.04
771.026	0.04
771.333	0.04
771.639	0.04
771.946	0.04
772.253	0.04
772.56	0.04
772.867	0.04
773.173	0.04
773.48	0.04
773.786	0.04
774.093	0.04
774.399	0.04
774.705	0.04
775.012	0.05
775.318	0.04
775.624	0.05
775.93	0.04
776.236	0.05
776.542	0.05
776.848	0.05
777.154	0.05
777.459	0.05
777.765	0.05
778.071	0.05
778.376	0.05
778.682	0.04
778.987	0.05
779.292	0.05
779.598	0.04
779.903	0.04
780.208	0.04
780.513	0.04
780.818	0.04
781.123	0.04
781.428	0.04
781.733	0.04
782.038	0.04
782.343	0.04
782.647	0.04
782.952	0.04
783.256	0.04
783.561	0.04
783.865	0.04
784.17	0.04
784.474	0.04
784.778	0.04
785.082	0.04
785.386	0.04
785.69	0.04
785.994	0.04
786.298	0.04
786.602	0.04
786.906	0.04
787.209	0.04
787.513	0.04
787.817	0.05
788.12	0.05
788.424	0.05
788.727	0.05
789.03	0.05
789.333	0.05
789.637	0.05
789.94	0.05
790.243	0.05
790.546	0.05
790.849	0.05
791.152	0.06
791.454	0.05
791.757	0.06
792.06	0.05
792.362	0.05
792.665	0.05
792.967	0.05
793.27	0.05
793.572	0.05
793.874	0.05
794.177	0.05
794.479	0.05
794.781	0.06
795.083	0.06
795.385	0.06
795.687	0.06
795.989	0.06
796.29	0.06
796.592	0.06
796.894	0.06
797.195	0.06
797.497	0.06
797.798	0.06
798.1	0.06
798.401	0.06
798.702	0.06
799.003	0.06
799.304	0.05
799.605	0.05
799.906	0.06
800.207	0.05
800.508	0.05
800.809	0.06
801.11	0.06
801.41	0.06
801.711	0.06
802.011	0.06
802.312	0.06
802.612	0.06
802.913	0.06
803.213	0.06
803.513	0.06
803.813	0.06
804.113	0.06
804.413	0.06
804.713	0.06
805.013	0.07
805.313	0.07
805.613	0.07
805.912	0.07
806.212	0.06
806.511	0.06
806.811	0.06
807.11	0.06
807.41	0.06
807.709	0.06
808.008	0.07
808.307	0.07
808.606	0.07
808.905	0.07
809.204	0.07
809.503	0.07
809.802	0.07
810.101	0.07
810.399	0.07
810.698	0.07
810.997	0.07
811.295	0.07
811.593	0.07
811.892	0.07
812.19	0.07
812.488	0.07
812.786	0.07
813.084	0.07
813.383	0.07
813.68	0.07
813.978	0.08
814.276	0.07
814.574	0.08
814.872	0.08
815.169	0.07
815.467	0.07
815.764	0.07
816.062	0.07
816.359	0.07
816.656	0.07
816.954	0.07
817.251	0.07
817.548	0.07
817.845	0.07
818.142	0.08
818.439	0.08
818.735	0.08
819.032	0.08
819.329	0.08
819.626	0.08
819.922	0.08
820.219	0.08
820.515	0.08
820.811	0.09
821.108	0.08
821.404	0.08
821.7	0.08
821.996	0.08
822.292	0.08
822.588	0.09
822.884	0.09
823.18	0.1
823.475	0.09
823.771	0.1
824.067	0.09
824.362	0.1
824.658	0.09
824.953	0.09
825.249	0.09
825.544	0.09
825.839	0.09
826.134	0.09
826.429	0.08
826.724	0.09
827.019	0.09
827.314	0.1
827.609	0.1
827.904	0.09
828.198	0.09
828.493	0.09
828.787	0.09
829.082	0.09
829.376	0.1
829.671	0.1
829.965	0.1
830.259	0.11
830.553	0.11
830.847	0.1
831.141	0.11
831.435	0.11
831.729	0.11
832.023	0.1
832.317	0.11
832.61	0.1
832.904	0.1
833.197	0.1
833.491	0.1
833.784	0.11
834.077	0.11
834.371	0.11
834.664	0.12
834.957	0.11
835.25	0.1
835.543	0.11
835.836	0.11
836.129	0.11
836.421	0.11
836.714	0.11
837.007	0.11
837.299	0.11
837.592	0.11
837.884	0.11
838.177	0.1
838.469	0.11
838.761	0.11
839.053	0.12
839.345	0.11
839.637	0.11
839.929	0.12
840.221	0.11
840.513	0.11
840.805	0.12
841.096	0.12
841.388	0.12
841.68	0.12
841.971	0.12
842.262	0.11
842.554	0.12
842.845	0.12
843.136	0.11
843.427	0.12
843.718	0.12
844.009	0.11
844.3	0.11
844.591	0.12
844.882	0.12
845.173	0.13
845.463	0.13
845.754	0.13
846.044	0.12
846.335	0.12
846.625	0.12
846.915	0.12
847.206	0.12
847.496	0.13
847.786	0.12
848.076	0.12
848.366	0.13
848.656	0.11
848.945	0.12
849.235	0.11
849.525	0.1
849.814	0.11
850.104	0.11
850.393	0.12
850.683	0.13
850.972	0.12
851.261	0.13
851.551	0.12
851.84	0.14
852.129	0.13
852.418	0.13
852.707	0.13
852.995	0.13
853.284	0.13
853.573	0.12
853.862	0.12
854.15	0.13
854.439	0.12
854.727	0.12
855.015	0.13
855.304	0.13
855.592	0.13
855.88	0.14
856.168	0.13
856.456	0.14
856.744	0.13
857.032	0.12
857.32	0.12
857.607	0.12
857.895	0.14
858.183	0.15
858.47	0.14
858.757	0.14
859.045	0.14
859.332	0.14
859.619	0.14
859.907	0.14
860.194	0.11
860.481	0.14
860.768	0.12
861.054	0.11
861.341	0.11
861.628	0.14
861.915	0.14
862.201	0.13
862.488	0.13
862.774	0.15
863.061	0.15
863.347	0.13
863.633	0.13
863.919	0.14
864.205	0.13
864.491	0.15
864.777	0.16
865.063	0.12
865.349	0.14
865.635	0.15
865.92	0.16
866.206	0.15
866.492	0.12
866.777	0.17
867.062	0.16
867.348	0.11
867.633	0.1
867.918	0.13
868.203	0.14
868.488	0.13
868.773	0.19
869.058	0.13
869.343	0.13
869.628	0.15
869.912	0.17
870.197	0.12
870.482	0.12
870.766	0.16
871.05	0.17
871.335	0.14
871.619	0.13
871.903	0.1
872.187	0.11
872.471	0.15
872.755	0.15
873.039	0.11
873.323	0.17
873.607	0.16
873.89	0.13
874.174	0.12
874.458	0.14
874.741	0.08
875.024	0.12
875.308	0.19
875.591	0.17
875.874	0.14
876.157	0.17
876.44	0.04
876.723	0.15
877.006	0.05
877.289	0.03
877.572	0.11
877.854	0.07
878.137	0.08
878.42	0.09
878.702	0.11
878.984	0.23
879.267	0.17
879.549	0.05
879.831	0.05
880.113	0.08
880.395	0.08
880.677	-0.03
880.959	0.04
