Data from Rubpy_BV_1800_EDTA_Buffered_Absorbance_15-08-17-984.txt Node
Date: Wed Jul 01 15:08:17 BST 2026
User: fpm-admin
Spectrometer: OFX00224
Trigger mode: 0
Integration Time (sec): 7.000000E-2
Scans to average: 3
Nonlinearity correction enabled: false
Boxcar width: 0
Storing dark spectrum: false
XAxis mode: Wavelengths
Number of Pixels in Spectrum: 2136
>>>>>Begin Spectral Data<<<<<
154.91	-0.08
155.289	-0
155.669	-0.95
156.048	-0.3
156.428	0.02
156.807	-0
157.186	-0
157.566	-0.3
157.945	-0.21
158.325	0.48
158.704	0.25
159.083	-0
159.462	-0
159.842	-0
160.221	-1.34
160.6	0.41
160.979	-0.24
161.359	0.06
161.738	0.44
162.117	-0.02
162.496	-0.3
162.875	-0
163.254	0.45
163.633	-0
164.012	-0
164.391	-0.35
164.77	-0.83
165.149	-0
165.528	-1.04
165.907	-0
166.286	0.16
166.665	-0.2
167.044	-0.04
167.423	-0.18
167.802	-0
168.181	-0
168.559	-0
168.938	-0.56
169.317	-0
169.696	-0
170.074	-0.19
170.453	0.45
170.832	-0.67
171.21	0.9
171.589	0.48
171.968	0.28
172.346	-0
172.725	0.71
173.103	0.48
173.482	1.65
173.861	-0
174.239	0.04
174.617	-0
174.996	0.31
175.374	-0.42
175.753	-0
176.131	-0
176.51	-0
176.888	-0
177.266	-0
177.645	-0.01
178.023	0.69
178.401	-0.2
178.779	-0.3
179.158	-0
179.536	-0.12
179.914	0.13
180.292	-0
180.67	0.93
181.048	-0.52
181.427	-0
181.805	-0
182.183	-0.3
182.561	1.11
182.939	0.85
183.317	-0
183.695	0.9
184.073	-0.15
184.451	0.11
184.829	-0
185.206	-0
185.584	-0.21
185.962	-0
186.34	-0
186.718	-0
187.096	-0.48
187.473	-0
187.851	-0
188.229	-0
188.607	0.21
188.984	0.15
189.362	0.24
189.74	0.35
190.117	0.14
190.495	0.26
190.872	0.22
191.25	0.38
191.627	0.18
192.005	0.19
192.382	0.16
192.76	0.11
193.137	0.28
193.515	0.22
193.892	0.29
194.269	0.37
194.647	0.34
195.024	0.18
195.401	0.22
195.779	0.3
196.156	0.25
196.533	0.29
196.91	0.23
197.288	0.28
197.665	0.25
198.042	0.26
198.419	0.22
198.796	0.13
199.173	0.22
199.55	0.24
199.927	0.21
200.304	0.25
200.681	0.28
201.058	0.19
201.435	0.35
201.812	0.42
202.189	0.27
202.566	0.28
202.943	0.22
203.32	0.32
203.697	0.33
204.073	0.22
204.45	0.35
204.827	0.36
205.204	0.29
205.58	0.22
205.957	0.2
206.334	0.41
206.71	0.26
207.087	0.37
207.464	0.24
207.84	0.29
208.217	0.34
208.593	0.35
208.97	0.36
209.346	0.31
209.723	0.28
210.099	0.26
210.476	0.26
210.852	0.28
211.228	0.33
211.605	0.26
211.981	0.28
212.357	0.21
212.733	0.43
213.11	0.25
213.486	0.34
213.862	0.25
214.238	0.35
214.614	0.41
214.991	0.26
215.367	0.32
215.743	0.33
216.119	0.38
216.495	0.34
216.871	0.27
217.247	0.24
217.623	0.22
217.999	0.29
218.375	0.38
218.751	0.31
219.127	0.32
219.502	0.35
219.878	0.31
220.254	0.33
220.63	0.2
221.006	0.42
221.381	0.26
221.757	0.25
222.133	0.31
222.508	0.41
222.884	0.24
223.26	0.25
223.635	0.33
224.011	0.4
224.386	0.27
224.762	0.33
225.137	0.3
225.513	0.2
225.888	0.29
226.264	0.29
226.639	0.24
227.014	0.16
227.39	0.31
227.765	0.19
228.14	0.51
228.516	0.46
228.891	0.21
229.266	0.18
229.641	0.17
230.017	0.32
230.392	0.25
230.767	0.18
231.142	0.13
231.517	0.19
231.892	0.21
232.267	0.21
232.642	0.35
233.017	0.23
233.392	0.19
233.767	0.32
234.142	0.31
234.517	0.34
234.892	0.16
235.267	0.13
235.641	0.18
236.016	0.22
236.391	0.17
236.766	0.33
237.14	0.3
237.515	0.28
237.89	0.18
238.264	0.22
238.639	0.23
239.014	0.3
239.388	0.28
239.763	0.31
240.137	0.36
240.512	0.28
240.886	0.32
241.261	0.23
241.635	0.24
242.009	0.24
242.384	0.42
242.758	0.36
243.132	0.23
243.507	0.23
243.881	0.26
244.255	0.3
244.629	0.2
245.004	0.25
245.378	0.29
245.752	0.26
246.126	0.4
246.5	0.27
246.874	0.39
247.248	0.34
247.622	0.23
247.996	0.26
248.37	0.23
248.744	0.38
249.118	0.26
249.492	0.24
249.866	0.34
250.24	0.37
250.613	0.3
250.987	0.32
251.361	0.45
251.735	0.27
252.108	0.25
252.482	0.22
252.856	0.25
253.229	0.29
253.603	0.3
253.977	0.25
254.35	0.25
254.724	0.25
255.097	0.27
255.471	0.28
255.844	0.29
256.218	0.28
256.591	0.29
256.964	0.3
257.338	0.31
257.711	0.17
258.084	0.24
258.458	0.27
258.831	0.38
259.204	0.31
259.577	0.32
259.95	0.32
260.323	0.24
260.697	0.24
261.07	0.31
261.443	0.28
261.816	0.17
262.189	0.36
262.562	0.3
262.935	0.3
263.308	0.32
263.68	0.27
264.053	0.2
264.426	0.35
264.799	0.3
265.172	0.25
265.545	0.23
265.917	0.28
266.29	0.35
266.663	0.33
267.035	0.26
267.408	0.42
267.781	0.38
268.153	0.33
268.526	0.22
268.898	0.28
269.271	0.34
269.643	0.35
270.016	0.26
270.388	0.31
270.76	0.28
271.133	0.31
271.505	0.31
271.877	0.38
272.25	0.33
272.622	0.24
272.994	0.38
273.366	0.35
273.739	0.28
274.111	0.24
274.483	0.36
274.855	0.33
275.227	0.28
275.599	0.28
275.971	0.35
276.343	0.29
276.715	0.31
277.087	0.26
277.459	0.29
277.831	0.31
278.203	0.32
278.574	0.22
278.946	0.22
279.318	0.31
279.69	0.33
280.061	0.27
280.433	0.27
280.805	0.32
281.176	0.25
281.548	0.3
281.92	0.28
282.291	0.25
282.663	0.4
283.034	0.28
283.406	0.28
283.777	0.35
284.148	0.25
284.52	0.34
284.891	0.25
285.262	0.29
285.634	0.3
286.005	0.31
286.376	0.32
286.747	0.34
287.119	0.33
287.49	0.28
287.861	0.34
288.232	0.25
288.603	0.25
288.974	0.28
289.345	0.3
289.716	0.28
290.087	0.31
290.458	0.26
290.829	0.29
291.2	0.17
291.571	0.26
291.941	0.4
292.312	0.34
292.683	0.34
293.054	0.32
293.424	0.28
293.795	0.31
294.166	0.24
294.536	0.3
294.907	0.35
295.277	0.35
295.648	0.21
296.018	0.36
296.389	0.36
296.759	0.27
297.13	0.36
297.5	0.32
297.871	0.28
298.241	0.34
298.611	0.32
298.981	0.29
299.352	0.31
299.722	0.31
300.092	0.31
300.462	0.23
300.832	0.36
301.202	0.32
301.573	0.42
301.943	0.32
302.313	0.31
302.683	0.28
303.053	0.25
303.422	0.35
303.792	0.31
304.162	0.29
304.532	0.27
304.902	0.29
305.272	0.33
305.641	0.27
306.011	0.3
306.381	0.29
306.75	0.24
307.12	0.23
307.49	0.29
307.859	0.33
308.229	0.29
308.598	0.27
308.968	0.28
309.337	0.23
309.707	0.25
310.076	0.27
310.445	0.26
310.815	0.25
311.184	0.26
311.553	0.21
311.923	0.24
312.292	0.25
312.661	0.28
313.03	0.23
313.399	0.24
313.768	0.23
314.137	0.25
314.506	0.26
314.875	0.25
315.244	0.25
315.613	0.24
315.982	0.27
316.351	0.27
316.72	0.26
317.089	0.27
317.458	0.27
317.826	0.29
318.195	0.3
318.564	0.28
318.933	0.27
319.301	0.29
319.67	0.29
320.038	0.29
320.407	0.3
320.775	0.3
321.144	0.31
321.512	0.31
321.881	0.32
322.249	0.32
322.618	0.32
322.986	0.32
323.354	0.32
323.723	0.33
324.091	0.35
324.459	0.34
324.827	0.35
325.195	0.35
325.564	0.37
325.932	0.36
326.3	0.37
326.668	0.39
327.036	0.38
327.404	0.39
327.772	0.4
328.14	0.4
328.508	0.39
328.875	0.4
329.243	0.41
329.611	0.42
329.979	0.42
330.346	0.44
330.714	0.43
331.082	0.45
331.449	0.45
331.817	0.45
332.185	0.47
332.552	0.47
332.92	0.47
333.287	0.49
333.655	0.5
334.022	0.51
334.389	0.53
334.757	0.52
335.124	0.54
335.491	0.56
335.859	0.57
336.226	0.56
336.593	0.59
336.96	0.59
337.327	0.6
337.695	0.61
338.062	0.62
338.429	0.63
338.796	0.64
339.163	0.66
339.53	0.67
339.897	0.68
340.263	0.69
340.63	0.71
340.997	0.72
341.364	0.73
341.731	0.75
342.097	0.75
342.464	0.77
342.831	0.78
343.197	0.79
343.564	0.8
343.931	0.82
344.297	0.82
344.664	0.84
345.03	0.85
345.396	0.86
345.763	0.87
346.129	0.89
346.496	0.91
346.862	0.91
347.228	0.92
347.594	0.93
347.961	0.96
348.327	0.96
348.693	0.99
349.059	0.99
349.425	1
349.791	1
350.157	1.04
350.523	1.03
350.889	1.04
351.255	1.05
351.621	1.06
351.987	1.08
352.353	1.09
352.719	1.11
353.084	1.11
353.45	1.13
353.816	1.14
354.181	1.16
354.547	1.17
354.913	1.18
355.278	1.19
355.644	1.22
356.009	1.24
356.375	1.24
356.74	1.26
357.106	1.26
357.471	1.29
357.836	1.28
358.202	1.34
358.567	1.32
358.932	1.33
359.297	1.35
359.663	1.37
360.028	1.4
360.393	1.4
360.758	1.45
361.123	1.45
361.488	1.45
361.853	1.49
362.218	1.48
362.583	1.54
362.948	1.51
363.312	1.55
363.677	1.56
364.042	1.54
364.407	1.57
364.772	1.6
365.136	1.59
365.501	1.66
365.865	1.64
366.23	1.65
366.595	1.66
366.959	1.68
367.324	1.68
367.688	1.68
368.052	1.7
368.417	1.76
368.781	1.72
369.145	1.71
369.51	1.75
369.874	1.72
370.238	1.73
370.602	1.72
370.967	1.75
371.331	1.71
371.695	1.75
372.059	1.76
372.423	1.76
372.787	1.76
373.151	1.74
373.515	1.74
373.878	1.74
374.242	1.75
374.606	1.75
374.97	1.72
375.334	1.72
375.697	1.73
376.061	1.69
376.425	1.68
376.788	1.67
377.152	1.65
377.515	1.65
377.879	1.62
378.242	1.63
378.606	1.63
378.969	1.57
379.333	1.58
379.696	1.55
380.059	1.57
380.422	1.53
380.786	1.51
381.149	1.52
381.512	1.48
381.875	1.47
382.238	1.45
382.601	1.43
382.964	1.43
383.327	1.41
383.69	1.39
384.053	1.37
384.416	1.36
384.779	1.34
385.142	1.32
385.504	1.3
385.867	1.31
386.23	1.3
386.593	1.29
386.955	1.3
387.318	1.29
387.68	1.26
388.043	1.28
388.405	1.27
388.768	1.27
389.13	1.27
389.493	1.25
389.855	1.24
390.217	1.24
390.58	1.23
390.942	1.21
391.304	1.2
391.666	1.18
392.028	1.17
392.391	1.15
392.753	1.13
393.115	1.13
393.477	1.12
393.839	1.1
394.201	1.09
394.563	1.07
394.924	1.07
395.286	1.07
395.648	1.09
396.01	1.08
396.371	1.09
396.733	1.11
397.095	1.11
397.456	1.15
397.818	1.17
398.18	1.19
398.541	1.2
398.903	1.24
399.264	1.24
399.625	1.28
399.987	1.3
400.348	1.31
400.709	1.34
401.071	1.35
401.432	1.34
401.793	1.34
402.154	1.35
402.515	1.33
402.876	1.3
403.238	1.27
403.599	1.24
403.96	1.21
404.32	1.15
404.681	1.12
405.042	1.08
405.403	1.05
405.764	0.99
406.125	0.95
406.485	0.89
406.846	0.86
407.207	0.81
407.567	0.77
407.928	0.73
408.288	0.69
408.649	0.65
409.009	0.62
409.37	0.59
409.73	0.55
410.091	0.53
410.451	0.51
410.811	0.48
411.171	0.46
411.532	0.43
411.892	0.41
412.252	0.39
412.612	0.38
412.972	0.37
413.332	0.34
413.692	0.33
414.052	0.32
414.412	0.3
414.772	0.3
415.132	0.29
415.492	0.28
415.851	0.27
416.211	0.26
416.571	0.25
416.931	0.25
417.29	0.23
417.65	0.23
418.009	0.23
418.369	0.22
418.728	0.22
419.088	0.21
419.447	0.21
419.807	0.2
420.166	0.2
420.525	0.19
420.884	0.19
421.244	0.18
421.603	0.19
421.962	0.17
422.321	0.17
422.68	0.17
423.039	0.17
423.398	0.16
423.757	0.17
424.116	0.16
424.475	0.16
424.834	0.16
425.193	0.15
425.551	0.16
425.91	0.16
426.269	0.15
426.628	0.14
426.986	0.16
427.345	0.15
427.703	0.15
428.062	0.14
428.42	0.15
428.779	0.15
429.137	0.14
429.496	0.13
429.854	0.14
430.212	0.14
430.57	0.14
430.929	0.14
431.287	0.13
431.645	0.14
432.003	0.13
432.361	0.14
432.719	0.14
433.077	0.14
433.435	0.14
433.793	0.15
434.151	0.13
434.509	0.14
434.866	0.13
435.224	0.14
435.582	0.15
435.94	0.13
436.297	0.14
436.655	0.14
437.012	0.13
437.37	0.14
437.727	0.13
438.085	0.13
438.442	0.14
438.8	0.13
439.157	0.13
439.514	0.13
439.872	0.14
440.229	0.13
440.586	0.13
440.943	0.14
441.3	0.13
441.657	0.14
442.014	0.13
442.371	0.12
442.728	0.14
443.085	0.14
443.442	0.13
443.799	0.14
444.156	0.14
444.513	0.14
444.869	0.13
445.226	0.14
445.583	0.15
445.939	0.14
446.296	0.13
446.652	0.15
447.009	0.14
447.365	0.14
447.722	0.14
448.078	0.14
448.434	0.14
448.791	0.14
449.147	0.14
449.503	0.14
449.859	0.14
450.215	0.14
450.571	0.13
450.928	0.14
451.284	0.15
451.64	0.14
451.995	0.14
452.351	0.14
452.707	0.14
453.063	0.14
453.419	0.14
453.775	0.13
454.13	0.14
454.486	0.14
454.842	0.14
455.197	0.13
455.553	0.13
455.908	0.12
456.264	0.12
456.619	0.13
456.975	0.13
457.33	0.13
457.685	0.12
458.04	0.12
458.396	0.12
458.751	0.12
459.106	0.11
459.461	0.11
459.816	0.1
460.171	0.1
460.526	0.11
460.881	0.09
461.236	0.09
461.591	0.1
461.946	0.09
462.301	0.09
462.655	0.09
463.01	0.1
463.365	0.09
463.719	0.08
464.074	0.07
464.428	0.06
464.783	0.07
465.137	0.07
465.492	0.07
465.846	0.07
466.201	0.07
466.555	0.08
466.909	0.08
467.263	0.08
467.618	0.09
467.972	0.09
468.326	0.08
468.68	0.08
469.034	0.08
469.388	0.07
469.742	0.08
470.096	0.08
470.45	0.08
470.804	0.09
471.157	0.09
471.511	0.08
471.865	0.08
472.218	0.09
472.572	0.11
472.926	0.11
473.279	0.11
473.633	0.12
473.986	0.14
474.34	0.14
474.693	0.15
475.046	0.16
475.4	0.16
475.753	0.17
476.106	0.18
476.459	0.19
476.812	0.19
477.165	0.21
477.519	0.22
477.872	0.22
478.224	0.22
478.577	0.23
478.93	0.24
479.283	0.24
479.636	0.25
479.989	0.26
480.341	0.27
480.694	0.28
481.047	0.28
481.399	0.29
481.752	0.3
482.104	0.3
482.457	0.31
482.809	0.31
483.162	0.32
483.514	0.33
483.866	0.33
484.219	0.33
484.571	0.33
484.923	0.34
485.275	0.35
485.627	0.35
485.979	0.35
486.331	0.36
486.683	0.37
487.035	0.37
487.387	0.38
487.739	0.38
488.091	0.39
488.443	0.39
488.794	0.4
489.146	0.4
489.498	0.4
489.849	0.41
490.201	0.42
490.552	0.41
490.904	0.42
491.255	0.42
491.607	0.43
491.958	0.43
492.309	0.44
492.661	0.43
493.012	0.45
493.363	0.45
493.714	0.45
494.065	0.45
494.416	0.46
494.767	0.46
495.118	0.47
495.469	0.47
495.82	0.47
496.171	0.48
496.522	0.48
496.872	0.49
497.223	0.49
497.574	0.49
497.924	0.5
498.275	0.5
498.626	0.51
498.976	0.51
499.327	0.52
499.677	0.52
500.027	0.53
500.378	0.53
500.728	0.53
501.078	0.54
501.428	0.54
501.779	0.55
502.129	0.54
502.479	0.55
502.829	0.56
503.179	0.56
503.529	0.57
503.879	0.57
504.229	0.58
504.578	0.58
504.928	0.58
505.278	0.59
505.628	0.58
505.977	0.6
506.327	0.59
506.676	0.6
507.026	0.61
507.375	0.61
507.725	0.61
508.074	0.62
508.424	0.61
508.773	0.62
509.122	0.62
509.471	0.63
509.82	0.63
510.17	0.64
510.519	0.64
510.868	0.64
511.217	0.64
511.566	0.64
511.915	0.66
512.263	0.66
512.612	0.66
512.961	0.67
513.31	0.66
513.659	0.68
514.007	0.68
514.356	0.68
514.704	0.68
515.053	0.68
515.401	0.69
515.75	0.68
516.098	0.69
516.447	0.7
516.795	0.7
517.143	0.7
517.491	0.7
517.839	0.71
518.188	0.71
518.536	0.71
518.884	0.71
519.232	0.72
519.58	0.72
519.928	0.72
520.275	0.72
520.623	0.73
520.971	0.73
521.319	0.74
521.666	0.74
522.014	0.74
522.362	0.74
522.709	0.74
523.057	0.75
523.404	0.74
523.752	0.75
524.099	0.76
524.446	0.75
524.794	0.76
525.141	0.76
525.488	0.77
525.835	0.77
526.182	0.77
526.529	0.77
526.876	0.78
527.223	0.78
527.57	0.78
527.917	0.78
528.264	0.77
528.611	0.78
528.958	0.78
529.304	0.79
529.651	0.79
529.998	0.79
530.344	0.79
530.691	0.8
531.037	0.8
531.384	0.8
531.73	0.8
532.076	0.8
532.423	0.81
532.769	0.8
533.115	0.8
533.461	0.81
533.807	0.81
534.154	0.82
534.5	0.81
534.846	0.82
535.192	0.82
535.537	0.81
535.883	0.82
536.229	0.83
536.575	0.83
536.921	0.82
537.266	0.83
537.612	0.83
537.957	0.83
538.303	0.83
538.649	0.83
538.994	0.83
539.339	0.84
539.685	0.84
540.03	0.84
540.375	0.83
540.721	0.84
541.066	0.84
541.411	0.85
541.756	0.84
542.101	0.85
542.446	0.84
542.791	0.85
543.136	0.85
543.481	0.85
543.825	0.85
544.17	0.85
544.515	0.85
544.86	0.85
545.204	0.85
545.549	0.86
545.893	0.86
546.238	0.86
546.582	0.86
546.927	0.86
547.271	0.86
547.615	0.86
547.96	0.86
548.304	0.86
548.648	0.86
548.992	0.87
549.336	0.85
549.68	0.86
550.024	0.87
550.368	0.87
550.712	0.86
551.056	0.86
551.4	0.86
551.743	0.87
552.087	0.86
552.431	0.87
552.774	0.87
553.118	0.87
553.462	0.87
553.805	0.86
554.148	0.87
554.492	0.86
554.835	0.86
555.178	0.86
555.522	0.86
555.865	0.87
556.208	0.86
556.551	0.86
556.894	0.86
557.237	0.87
557.58	0.86
557.923	0.86
558.266	0.86
558.609	0.86
558.952	0.86
559.294	0.86
559.637	0.86
559.98	0.86
560.322	0.86
560.665	0.85
561.007	0.85
561.35	0.85
561.692	0.85
562.034	0.85
562.377	0.85
562.719	0.85
563.061	0.84
563.403	0.85
563.745	0.85
564.088	0.85
564.43	0.85
564.772	0.84
565.113	0.84
565.455	0.84
565.797	0.85
566.139	0.84
566.481	0.84
566.822	0.84
567.164	0.84
567.506	0.83
567.847	0.84
568.189	0.84
568.53	0.83
568.872	0.84
569.213	0.83
569.554	0.82
569.895	0.82
570.237	0.82
570.578	0.82
570.919	0.82
571.26	0.82
571.601	0.82
571.942	0.81
572.283	0.82
572.624	0.81
572.965	0.81
573.306	0.8
573.646	0.81
573.987	0.8
574.328	0.8
574.668	0.8
575.009	0.79
575.349	0.79
575.69	0.79
576.03	0.79
576.37	0.78
576.711	0.78
577.051	0.78
577.391	0.78
577.731	0.79
578.072	0.78
578.412	0.78
578.752	0.78
579.092	0.77
579.431	0.76
579.771	0.74
580.111	0.74
580.451	0.76
580.791	0.77
581.13	0.77
581.47	0.77
581.81	0.77
582.149	0.76
582.489	0.76
582.828	0.75
583.167	0.71
583.507	0.68
583.846	0.68
584.185	0.72
584.525	0.74
584.864	0.75
585.203	0.76
585.542	0.76
585.881	0.75
586.22	0.75
586.559	0.74
586.898	0.73
587.236	0.72
587.575	0.73
587.914	0.74
588.252	0.75
588.591	0.75
588.93	0.75
589.268	0.74
589.607	0.74
589.945	0.74
590.283	0.74
590.622	0.74
590.96	0.75
591.298	0.75
591.636	0.75
591.974	0.75
592.313	0.75
592.651	0.75
592.989	0.74
593.326	0.74
593.664	0.75
594.002	0.75
594.34	0.74
594.678	0.73
595.015	0.73
595.353	0.73
595.691	0.74
596.028	0.74
596.366	0.74
596.703	0.74
597.04	0.74
597.378	0.74
597.715	0.74
598.052	0.74
598.389	0.74
598.726	0.74
599.064	0.74
599.401	0.74
599.738	0.74
600.074	0.73
600.411	0.73
600.748	0.73
601.085	0.72
601.422	0.72
601.758	0.72
602.095	0.72
602.432	0.72
602.768	0.72
603.105	0.73
603.441	0.72
603.777	0.73
604.114	0.72
604.45	0.73
604.786	0.72
605.122	0.72
605.459	0.72
605.795	0.71
606.131	0.72
606.467	0.71
606.803	0.71
607.139	0.71
607.474	0.71
607.81	0.7
608.146	0.7
608.482	0.7
608.817	0.7
609.153	0.69
609.488	0.69
609.824	0.7
610.159	0.69
610.495	0.69
610.83	0.69
611.165	0.69
611.5	0.68
611.836	0.68
612.171	0.68
612.506	0.68
612.841	0.68
613.176	0.67
613.511	0.67
613.845	0.67
614.18	0.66
614.515	0.67
614.85	0.66
615.184	0.66
615.519	0.66
615.854	0.66
616.188	0.65
616.523	0.65
616.857	0.64
617.191	0.65
617.526	0.65
617.86	0.64
618.194	0.64
618.528	0.64
618.862	0.64
619.196	0.64
619.53	0.63
619.864	0.63
620.198	0.63
620.532	0.63
620.866	0.63
621.2	0.63
621.533	0.63
621.867	0.62
622.201	0.61
622.534	0.62
622.868	0.61
623.201	0.61
623.534	0.6
623.868	0.6
624.201	0.6
624.534	0.6
624.868	0.6
625.201	0.6
625.534	0.59
625.867	0.59
626.2	0.59
626.533	0.58
626.865	0.58
627.198	0.58
627.531	0.58
627.864	0.57
628.196	0.56
628.529	0.57
628.862	0.56
629.194	0.56
629.527	0.56
629.859	0.56
630.191	0.56
630.524	0.55
630.856	0.55
631.188	0.54
631.52	0.54
631.852	0.53
632.184	0.53
632.516	0.53
632.848	0.52
633.18	0.52
633.512	0.52
633.844	0.52
634.175	0.51
634.507	0.51
634.839	0.51
635.17	0.5
635.502	0.5
635.833	0.5
636.165	0.5
636.496	0.49
636.827	0.49
637.159	0.48
637.49	0.48
637.821	0.48
638.152	0.48
638.483	0.47
638.814	0.48
639.145	0.47
639.476	0.46
639.807	0.46
640.137	0.46
640.468	0.45
640.799	0.45
641.129	0.45
641.46	0.44
641.791	0.44
642.121	0.44
642.451	0.44
642.782	0.43
643.112	0.43
643.442	0.43
643.773	0.43
644.103	0.42
644.433	0.42
644.763	0.42
645.093	0.42
645.423	0.42
645.753	0.42
646.082	0.41
646.412	0.41
646.742	0.41
647.072	0.41
647.401	0.4
647.731	0.4
648.06	0.4
648.39	0.4
648.719	0.4
649.048	0.4
649.378	0.39
649.707	0.39
650.036	0.39
650.365	0.39
650.694	0.38
651.023	0.39
651.352	0.38
651.681	0.38
652.01	0.38
652.339	0.38
652.668	0.38
652.996	0.37
653.325	0.38
653.654	0.38
653.982	0.37
654.311	0.37
654.639	0.37
654.967	0.37
655.296	0.37
655.624	0.37
655.952	0.37
656.28	0.36
656.609	0.36
656.937	0.36
657.265	0.34
657.593	0.19
657.92	0.1
658.248	0.07
658.576	0.14
658.904	0.26
659.231	0.34
659.559	0.35
659.887	0.35
660.214	0.35
660.542	0.35
660.869	0.35
661.196	0.34
661.524	0.34
661.851	0.34
662.178	0.34
662.505	0.34
662.832	0.34
663.159	0.34
663.486	0.34
663.813	0.33
664.14	0.33
664.467	0.33
664.794	0.33
665.12	0.33
665.447	0.33
665.774	0.32
666.1	0.33
666.427	0.32
666.753	0.32
667.079	0.32
667.406	0.31
667.732	0.32
668.058	0.31
668.384	0.31
668.71	0.31
669.036	0.31
669.362	0.31
669.688	0.3
670.014	0.3
670.34	0.3
670.666	0.3
670.991	0.3
671.317	0.29
671.643	0.29
671.968	0.29
672.294	0.29
672.619	0.29
672.945	0.29
673.27	0.28
673.595	0.28
673.92	0.27
674.246	0.28
674.571	0.28
674.896	0.27
675.221	0.27
675.546	0.27
675.87	0.26
676.195	0.26
676.52	0.26
676.845	0.26
677.169	0.26
677.494	0.26
677.819	0.25
678.143	0.25
678.468	0.25
678.792	0.25
679.116	0.25
679.44	0.25
679.765	0.24
680.089	0.24
680.413	0.23
680.737	0.23
681.061	0.23
681.385	0.23
681.709	0.22
682.033	0.22
682.356	0.22
682.68	0.22
683.004	0.22
683.327	0.21
683.651	0.21
683.974	0.21
684.298	0.21
684.621	0.2
684.944	0.2
685.268	0.2
685.591	0.2
685.914	0.19
686.237	0.19
686.56	0.19
686.883	0.18
687.206	0.18
687.529	0.18
687.852	0.18
688.175	0.18
688.497	0.18
688.82	0.18
689.142	0.18
689.465	0.17
689.787	0.17
690.11	0.17
690.432	0.17
690.755	0.17
691.077	0.16
691.399	0.16
691.721	0.16
692.043	0.16
692.365	0.15
692.687	0.15
693.009	0.15
693.331	0.14
693.653	0.14
693.974	0.14
694.296	0.14
694.618	0.14
694.939	0.14
695.261	0.14
695.582	0.14
695.904	0.14
696.225	0.14
696.546	0.14
696.868	0.13
697.189	0.13
697.51	0.13
697.831	0.13
698.152	0.13
698.473	0.12
698.794	0.12
699.114	0.11
699.435	0.1
699.756	0.11
700.077	0.11
700.397	0.11
700.718	0.11
701.038	0.11
701.359	0.12
701.679	0.12
701.999	0.12
702.32	0.11
702.64	0.11
702.96	0.11
703.28	0.11
703.6	0.11
703.92	0.11
704.24	0.1
704.56	0.1
704.879	0.1
705.199	0.11
705.519	0.1
705.838	0.1
706.158	0.1
706.478	0.11
706.797	0.11
707.116	0.11
707.436	0.1
707.755	0.1
708.074	0.1
708.393	0.1
708.712	0.09
709.031	0.08
709.35	0.08
709.669	0.08
709.988	0.09
710.307	0.09
710.626	0.09
710.944	0.1
711.263	0.1
711.582	0.1
711.9	0.1
712.219	0.09
712.537	0.09
712.855	0.09
713.174	0.09
713.492	0.09
713.81	0.1
714.128	0.1
714.446	0.1
714.764	0.09
715.082	0.09
715.4	0.09
715.718	0.09
716.035	0.09
716.353	0.09
716.671	0.09
716.988	0.1
717.306	0.09
717.623	0.1
717.941	0.1
718.258	0.1
718.575	0.1
718.893	0.1
719.21	0.1
719.527	0.1
719.844	0.1
720.161	0.1
720.478	0.1
720.795	0.1
721.112	0.1
721.428	0.1
721.745	0.1
722.062	0.1
722.378	0.11
722.695	0.11
723.011	0.11
723.328	0.11
723.644	0.11
723.96	0.11
724.276	0.11
724.593	0.11
724.909	0.11
725.225	0.11
725.541	0.1
725.857	0.11
726.173	0.11
726.488	0.11
726.804	0.1
727.12	0.1
727.435	0.1
727.751	0.1
728.067	0.1
728.382	0.1
728.697	0.1
729.013	0.11
729.328	0.1
729.643	0.1
729.958	0.1
730.273	0.1
730.588	0.1
730.903	0.1
731.218	0.1
731.533	0.1
731.848	0.1
732.163	0.1
732.477	0.1
732.792	0.09
733.107	0.09
733.421	0.1
733.736	0.09
734.05	0.09
734.364	0.09
734.678	0.09
734.993	0.09
735.307	0.1
735.621	0.09
735.935	0.09
736.249	0.09
736.563	0.09
736.877	0.09
737.19	0.1
737.504	0.09
737.818	0.09
738.131	0.09
738.445	0.1
738.758	0.1
739.072	0.1
739.385	0.1
739.698	0.1
740.012	0.1
740.325	0.1
740.638	0.09
740.951	0.09
741.264	0.09
741.577	0.09
741.89	0.09
742.203	0.09
742.515	0.09
742.828	0.09
743.141	0.09
743.453	0.09
743.766	0.09
744.078	0.09
744.391	0.08
744.703	0.08
745.015	0.08
745.327	0.09
745.639	0.08
745.952	0.08
746.264	0.08
746.575	0.09
746.887	0.08
747.199	0.08
747.511	0.08
747.823	0.08
748.134	0.08
748.446	0.08
748.757	0.08
749.069	0.07
749.38	0.07
749.692	0.07
750.003	0.07
750.314	0.06
750.625	0.06
750.936	0.06
751.248	0.06
751.559	0.07
751.869	0.07
752.18	0.07
752.491	0.06
752.802	0.06
753.112	0.06
753.423	0.06
753.734	0.06
754.044	0.06
754.355	0.06
754.665	0.05
754.975	0.05
755.285	0.05
755.596	0.06
755.906	0.05
756.216	0.05
756.526	0.05
756.836	0.05
757.146	0.05
757.455	0.05
757.765	0.05
758.075	0.05
758.385	0.05
758.694	0.05
759.004	0.05
759.313	0.04
759.622	0.05
759.932	0.05
760.241	0.05
760.55	0.05
760.859	0.05
761.168	0.05
761.477	0.05
761.786	0.05
762.095	0.05
762.404	0.05
762.713	0.05
763.021	0.05
763.33	0.05
763.639	0.05
763.947	0.05
764.256	0.05
764.564	0.05
764.872	0.05
765.181	0.05
765.489	0.05
765.797	0.05
766.105	0.04
766.413	0.04
766.721	0.05
767.029	0.05
767.337	0.05
767.644	0.05
767.952	0.05
768.26	0.05
768.567	0.05
768.875	0.05
769.182	0.05
769.49	0.05
769.797	0.05
770.104	0.05
770.411	0.05
770.718	0.04
771.026	0.04
771.333	0.04
771.639	0.04
771.946	0.04
772.253	0.05
772.56	0.05
772.867	0.05
773.173	0.05
773.48	0.05
773.786	0.05
774.093	0.05
774.399	0.05
774.705	0.05
775.012	0.05
775.318	0.05
775.624	0.05
775.93	0.05
776.236	0.05
776.542	0.05
776.848	0.06
777.154	0.06
777.459	0.06
777.765	0.05
778.071	0.05
778.376	0.05
778.682	0.05
778.987	0.05
779.292	0.05
779.598	0.05
779.903	0.05
780.208	0.04
780.513	0.05
780.818	0.04
781.123	0.05
781.428	0.05
781.733	0.05
782.038	0.05
782.343	0.05
782.647	0.05
782.952	0.04
783.256	0.04
783.561	0.04
783.865	0.04
784.17	0.04
784.474	0.04
784.778	0.04
785.082	0.04
785.386	0.04
785.69	0.04
785.994	0.04
786.298	0.05
786.602	0.05
786.906	0.05
787.209	0.05
787.513	0.05
787.817	0.05
788.12	0.06
788.424	0.06
788.727	0.06
789.03	0.06
789.333	0.05
789.637	0.05
789.94	0.05
790.243	0.06
790.546	0.06
790.849	0.06
791.152	0.06
791.454	0.06
791.757	0.06
792.06	0.06
792.362	0.06
792.665	0.06
792.967	0.06
793.27	0.06
793.572	0.06
793.874	0.06
794.177	0.06
794.479	0.06
794.781	0.06
795.083	0.07
795.385	0.07
795.687	0.07
795.989	0.07
796.29	0.07
796.592	0.07
796.894	0.07
797.195	0.07
797.497	0.06
797.798	0.07
798.1	0.07
798.401	0.06
798.702	0.07
799.003	0.06
799.304	0.06
799.605	0.06
799.906	0.06
800.207	0.06
800.508	0.06
800.809	0.06
801.11	0.07
801.41	0.07
801.711	0.07
802.011	0.07
802.312	0.07
802.612	0.07
802.913	0.07
803.213	0.07
803.513	0.07
803.813	0.07
804.113	0.07
804.413	0.07
804.713	0.07
805.013	0.08
805.313	0.08
805.613	0.08
805.912	0.07
806.212	0.07
806.511	0.07
806.811	0.07
807.11	0.07
807.41	0.07
807.709	0.07
808.008	0.08
808.307	0.08
808.606	0.08
808.905	0.08
809.204	0.07
809.503	0.07
809.802	0.07
810.101	0.08
810.399	0.08
810.698	0.08
810.997	0.08
811.295	0.08
811.593	0.08
811.892	0.08
812.19	0.08
812.488	0.08
812.786	0.08
813.084	0.08
813.383	0.08
813.68	0.08
813.978	0.08
814.276	0.09
814.574	0.08
814.872	0.08
815.169	0.08
815.467	0.08
815.764	0.08
816.062	0.08
816.359	0.08
816.656	0.08
816.954	0.08
817.251	0.09
817.548	0.09
817.845	0.09
818.142	0.09
818.439	0.09
818.735	0.09
819.032	0.09
819.329	0.09
819.626	0.09
819.922	0.09
820.219	0.1
820.515	0.1
820.811	0.1
821.108	0.1
821.404	0.09
821.7	0.09
821.996	0.09
822.292	0.1
822.588	0.1
822.884	0.1
823.18	0.1
823.475	0.1
823.771	0.11
824.067	0.11
824.362	0.11
824.658	0.1
824.953	0.11
825.249	0.1
825.544	0.1
825.839	0.1
826.134	0.1
826.429	0.1
826.724	0.1
827.019	0.1
827.314	0.1
827.609	0.11
827.904	0.11
828.198	0.1
828.493	0.1
828.787	0.11
829.082	0.1
829.376	0.12
829.671	0.12
829.965	0.12
830.259	0.12
830.553	0.12
830.847	0.11
831.141	0.12
831.435	0.12
831.729	0.12
832.023	0.12
832.317	0.12
832.61	0.12
832.904	0.12
833.197	0.12
833.491	0.11
833.784	0.12
834.077	0.12
834.371	0.13
834.664	0.13
834.957	0.13
835.25	0.12
835.543	0.12
835.836	0.12
836.129	0.12
836.421	0.12
836.714	0.12
837.007	0.11
837.299	0.12
837.592	0.12
837.884	0.12
838.177	0.11
838.469	0.12
838.761	0.13
839.053	0.12
839.345	0.13
839.637	0.12
839.929	0.12
840.221	0.13
840.513	0.12
840.805	0.14
841.096	0.14
841.388	0.13
841.68	0.14
841.971	0.14
842.262	0.13
842.554	0.13
842.845	0.13
843.136	0.12
843.427	0.13
843.718	0.14
844.009	0.13
844.3	0.13
844.591	0.13
844.882	0.13
845.173	0.15
845.463	0.13
845.754	0.15
846.044	0.13
846.335	0.14
846.625	0.14
846.915	0.13
847.206	0.13
847.496	0.13
847.786	0.14
848.076	0.13
848.366	0.13
848.656	0.12
848.945	0.13
849.235	0.14
849.525	0.12
849.814	0.13
850.104	0.13
850.393	0.14
850.683	0.14
850.972	0.14
851.261	0.14
851.551	0.15
851.84	0.16
852.129	0.14
852.418	0.15
852.707	0.16
852.995	0.15
853.284	0.15
853.573	0.14
853.862	0.13
854.15	0.15
854.439	0.14
854.727	0.14
855.015	0.15
855.304	0.15
855.592	0.14
855.88	0.15
856.168	0.14
856.456	0.14
856.744	0.14
857.032	0.14
857.32	0.14
857.607	0.16
857.895	0.14
858.183	0.15
858.47	0.15
858.757	0.15
859.045	0.15
859.332	0.16
859.619	0.16
859.907	0.15
860.194	0.14
860.481	0.15
860.768	0.16
861.054	0.16
861.341	0.16
861.628	0.16
861.915	0.16
862.201	0.15
862.488	0.18
862.774	0.15
863.061	0.17
863.347	0.16
863.633	0.17
863.919	0.16
864.205	0.14
864.491	0.15
864.777	0.16
865.063	0.15
865.349	0.15
865.635	0.18
865.92	0.14
866.206	0.17
866.492	0.17
866.777	0.18
867.062	0.15
867.348	0.15
867.633	0.14
867.918	0.17
868.203	0.15
868.488	0.16
868.773	0.18
869.058	0.17
869.343	0.14
869.628	0.19
869.912	0.14
870.197	0.14
870.482	0.14
870.766	0.18
871.05	0.13
871.335	0.14
871.619	0.18
871.903	0.18
872.187	0.1
872.471	0.24
872.755	0.2
873.039	0.11
873.323	0.16
873.607	0.15
873.89	0.11
874.174	0.16
874.458	0.2
874.741	0.13
875.024	0.15
875.308	0.12
875.591	0.13
875.874	0.22
876.157	0.13
876.44	0.09
876.723	0.13
877.006	0.13
877.289	0.11
877.572	0.19
877.854	0.09
878.137	0.12
878.42	0.09
878.702	0.09
878.984	0.28
879.267	0.17
879.549	0.16
879.831	0.08
880.113	0.04
880.395	0.11
880.677	-0.01
880.959	0.12
