Data from Rubpy_BV_1800_EDTA_Buffered_Absorbance_15-16-41-558.txt Node
Date: Wed Jul 01 15:16:41 BST 2026
User: fpm-admin
Spectrometer: OFX00224
Trigger mode: 0
Integration Time (sec): 7.000000E-2
Scans to average: 3
Nonlinearity correction enabled: false
Boxcar width: 0
Storing dark spectrum: false
XAxis mode: Wavelengths
Number of Pixels in Spectrum: 2136
>>>>>Begin Spectral Data<<<<<
154.91	-0.35
155.289	0.4
155.669	-1.06
156.048	-0.75
156.428	-0
156.807	-0
157.186	0.22
157.566	-0
157.945	-0.27
158.325	-0
158.704	-0
159.083	-0.68
159.462	-0
159.842	-0
160.221	-1.06
160.6	-0.38
160.979	-0.17
161.359	0.06
161.738	0.31
162.117	-0
162.496	-0.43
162.875	-0.07
163.254	0.23
163.633	-0
164.012	0.6
164.391	-0.8
164.77	-0
165.149	0.18
165.528	-1.11
165.907	-0
166.286	-0
166.665	0.6
167.044	-0
167.423	-0
167.802	-0
168.181	-0
168.559	-0.82
168.938	-0
169.317	-0
169.696	-0
170.074	0.03
170.453	0.72
170.832	-0.86
171.21	-0
171.589	-0.6
171.968	0.93
172.346	-0
172.725	0.26
173.103	0.39
173.482	-0
173.861	-0.4
174.239	1.15
174.617	-0
174.996	0.07
175.374	-0
175.753	-0.42
176.131	-0
176.51	0.04
176.888	-0
177.266	-0
177.645	-0.04
178.023	0.74
178.401	-0.03
178.779	-0.31
179.158	-0
179.536	-0.55
179.914	-0
180.292	0.33
180.67	-0.13
181.048	-0
181.427	-0
181.805	-0
182.183	-1.11
182.561	-0
182.939	-0.59
183.317	-0
183.695	0.81
184.073	0.14
184.451	-0.03
184.829	-0
185.206	-0.1
185.584	0.15
185.962	0.6
186.34	0.14
186.718	-0
187.096	-0.74
187.473	-0.14
187.851	-0
188.229	-0
188.607	0.25
188.984	0.23
189.362	0.23
189.74	0.52
190.117	0.3
190.495	0.28
190.872	0.37
191.25	0.25
191.627	0.24
192.005	0.24
192.382	0.18
192.76	0.44
193.137	0.37
193.515	0.47
193.892	0.51
194.269	0.4
194.647	0.35
195.024	0.37
195.401	0.33
195.779	0.24
196.156	0.29
196.533	0.21
196.91	0.24
197.288	0.32
197.665	0.23
198.042	0.44
198.419	0.19
198.796	0.17
199.173	0.39
199.55	0.25
199.927	0.28
200.304	0.3
200.681	0.4
201.058	0.25
201.435	0.45
201.812	0.31
202.189	0.45
202.566	0.29
202.943	0.23
203.32	0.35
203.697	0.24
204.073	0.4
204.45	0.33
204.827	0.33
205.204	0.32
205.58	0.44
205.957	0.28
206.334	0.39
206.71	0.32
207.087	0.46
207.464	0.29
207.84	0.47
208.217	0.37
208.593	0.26
208.97	0.4
209.346	0.31
209.723	0.37
210.099	0.33
210.476	0.25
210.852	0.29
211.228	0.3
211.605	0.42
211.981	0.46
212.357	0.25
212.733	0.49
213.11	0.2
213.486	0.44
213.862	0.33
214.238	0.29
214.614	0.36
214.991	0.3
215.367	0.33
215.743	0.31
216.119	0.28
216.495	0.3
216.871	0.38
217.247	0.16
217.623	0.3
217.999	0.32
218.375	0.25
218.751	0.29
219.127	0.3
219.502	0.31
219.878	0.3
220.254	0.27
220.63	0.3
221.006	0.31
221.381	0.34
221.757	0.23
222.133	0.34
222.508	0.58
222.884	0.22
223.26	0.33
223.635	0.36
224.011	0.27
224.386	0.25
224.762	0.36
225.137	0.37
225.513	0.27
225.888	0.34
226.264	0.28
226.639	0.48
227.014	0.29
227.39	0.34
227.765	0.3
228.14	0.34
228.516	0.56
228.891	0.3
229.266	0.25
229.641	0.35
230.017	0.29
230.392	0.43
230.767	0.39
231.142	0.24
231.517	0.24
231.892	0.33
232.267	0.36
232.642	0.52
233.017	0.36
233.392	0.33
233.767	0.33
234.142	0.21
234.517	0.4
234.892	0.22
235.267	0.31
235.641	0.3
236.016	0.35
236.391	0.34
236.766	0.41
237.14	0.38
237.515	0.36
237.89	0.32
238.264	0.2
238.639	0.23
239.014	0.38
239.388	0.39
239.763	0.31
240.137	0.34
240.512	0.37
240.886	0.26
241.261	0.35
241.635	0.26
242.009	0.42
242.384	0.25
242.758	0.33
243.132	0.45
243.507	0.27
243.881	0.33
244.255	0.32
244.629	0.44
245.004	0.29
245.378	0.34
245.752	0.32
246.126	0.38
246.5	0.26
246.874	0.45
247.248	0.46
247.622	0.35
247.996	0.39
248.37	0.28
248.744	0.29
249.118	0.52
249.492	0.44
249.866	0.44
250.24	0.44
250.613	0.37
250.987	0.42
251.361	0.55
251.735	0.37
252.108	0.38
252.482	0.26
252.856	0.55
253.229	0.4
253.603	0.35
253.977	0.33
254.35	0.33
254.724	0.5
255.097	0.39
255.471	0.46
255.844	0.4
256.218	0.28
256.591	0.39
256.964	0.37
257.338	0.33
257.711	0.32
258.084	0.4
258.458	0.43
258.831	0.36
259.204	0.42
259.577	0.33
259.95	0.32
260.323	0.37
260.697	0.4
261.07	0.33
261.443	0.38
261.816	0.29
262.189	0.44
262.562	0.45
262.935	0.39
263.308	0.37
263.68	0.41
264.053	0.33
264.426	0.33
264.799	0.45
265.172	0.41
265.545	0.36
265.917	0.33
266.29	0.31
266.663	0.44
267.035	0.25
267.408	0.39
267.781	0.49
268.153	0.37
268.526	0.32
268.898	0.37
269.271	0.3
269.643	0.27
270.016	0.32
270.388	0.38
270.76	0.36
271.133	0.52
271.505	0.43
271.877	0.42
272.25	0.37
272.622	0.48
272.994	0.58
273.366	0.37
273.739	0.29
274.111	0.3
274.483	0.31
274.855	0.31
275.227	0.32
275.599	0.3
275.971	0.24
276.343	0.26
276.715	0.4
277.087	0.43
277.459	0.44
277.831	0.4
278.203	0.36
278.574	0.35
278.946	0.34
279.318	0.4
279.69	0.33
280.061	0.33
280.433	0.31
280.805	0.28
281.176	0.27
281.548	0.41
281.92	0.32
282.291	0.41
282.663	0.31
283.034	0.29
283.406	0.3
283.777	0.37
284.148	0.34
284.52	0.51
284.891	0.4
285.262	0.31
285.634	0.4
286.005	0.34
286.376	0.42
286.747	0.38
287.119	0.41
287.49	0.31
287.861	0.32
288.232	0.32
288.603	0.34
288.974	0.36
289.345	0.42
289.716	0.37
290.087	0.37
290.458	0.4
290.829	0.35
291.2	0.35
291.571	0.32
291.941	0.4
292.312	0.41
292.683	0.35
293.054	0.42
293.424	0.49
293.795	0.3
294.166	0.36
294.536	0.38
294.907	0.4
295.277	0.37
295.648	0.32
296.018	0.38
296.389	0.4
296.759	0.34
297.13	0.36
297.5	0.31
297.871	0.39
298.241	0.44
298.611	0.46
298.981	0.38
299.352	0.37
299.722	0.4
300.092	0.4
300.462	0.25
300.832	0.4
301.202	0.46
301.573	0.42
301.943	0.3
302.313	0.33
302.683	0.34
303.053	0.34
303.422	0.31
303.792	0.32
304.162	0.37
304.532	0.37
304.902	0.29
305.272	0.36
305.641	0.4
306.011	0.34
306.381	0.36
306.75	0.27
307.12	0.3
307.49	0.32
307.859	0.28
308.229	0.27
308.598	0.34
308.968	0.33
309.337	0.28
309.707	0.29
310.076	0.3
310.445	0.29
310.815	0.32
311.184	0.29
311.553	0.31
311.923	0.26
312.292	0.3
312.661	0.31
313.03	0.3
313.399	0.3
313.768	0.3
314.137	0.32
314.506	0.3
314.875	0.28
315.244	0.33
315.613	0.32
315.982	0.34
316.351	0.35
316.72	0.35
317.089	0.35
317.458	0.34
317.826	0.35
318.195	0.39
318.564	0.35
318.933	0.36
319.301	0.39
319.67	0.37
320.038	0.37
320.407	0.39
320.775	0.38
321.144	0.41
321.512	0.41
321.881	0.4
322.249	0.4
322.618	0.41
322.986	0.42
323.354	0.43
323.723	0.43
324.091	0.44
324.459	0.44
324.827	0.45
325.195	0.45
325.564	0.46
325.932	0.46
326.3	0.48
326.668	0.47
327.036	0.48
327.404	0.49
327.772	0.51
328.14	0.52
328.508	0.52
328.875	0.53
329.243	0.55
329.611	0.54
329.979	0.55
330.346	0.56
330.714	0.56
331.082	0.58
331.449	0.58
331.817	0.58
332.185	0.62
332.552	0.62
332.92	0.63
333.287	0.65
333.655	0.66
334.022	0.67
334.389	0.68
334.757	0.69
335.124	0.71
335.491	0.72
335.859	0.74
336.226	0.75
336.593	0.76
336.96	0.77
337.327	0.78
337.695	0.8
338.062	0.82
338.429	0.81
338.796	0.85
339.163	0.86
339.53	0.88
339.897	0.88
340.263	0.9
340.63	0.93
340.997	0.93
341.364	0.95
341.731	0.97
342.097	1
342.464	1
342.831	1.03
343.197	1.05
343.564	1.06
343.931	1.07
344.297	1.07
344.664	1.1
345.03	1.12
345.396	1.12
345.763	1.13
346.129	1.17
346.496	1.18
346.862	1.19
347.228	1.19
347.594	1.22
347.961	1.25
348.327	1.25
348.693	1.28
349.059	1.28
349.425	1.31
349.791	1.3
350.157	1.34
350.523	1.34
350.889	1.36
351.255	1.38
351.621	1.38
351.987	1.4
352.353	1.4
352.719	1.44
353.084	1.42
353.45	1.48
353.816	1.47
354.181	1.49
354.547	1.5
354.913	1.51
355.278	1.54
355.644	1.54
356.009	1.55
356.375	1.6
356.74	1.61
357.106	1.61
357.471	1.64
357.836	1.66
358.202	1.67
358.567	1.68
358.932	1.69
359.297	1.71
359.663	1.72
360.028	1.79
360.393	1.76
360.758	1.81
361.123	1.81
361.488	1.78
361.853	1.85
362.218	1.86
362.583	1.84
362.948	1.87
363.312	1.92
363.677	1.91
364.042	1.92
364.407	1.92
364.772	1.94
365.136	1.91
365.501	1.99
365.865	1.96
366.23	1.91
366.595	1.98
366.959	1.98
367.324	1.98
367.688	1.93
368.052	1.98
368.417	2.04
368.781	2.07
369.145	1.99
369.51	2.01
369.874	2.06
370.238	2.04
370.602	2
370.967	2.05
371.331	2.02
371.695	2.08
372.059	2.02
372.423	2.07
372.787	2.12
373.151	2.03
373.515	2.02
373.878	2.03
374.242	2.06
374.606	2.1
374.97	2.06
375.334	2.08
375.697	2.01
376.061	2.01
376.425	1.94
376.788	1.98
377.152	2.04
377.515	1.94
377.879	1.96
378.242	1.97
378.606	1.96
378.969	1.89
379.333	1.91
379.696	1.86
380.059	1.95
380.422	1.91
380.786	1.87
381.149	1.84
381.512	1.83
381.875	1.81
382.238	1.77
382.601	1.75
382.964	1.74
383.327	1.74
383.69	1.73
384.053	1.73
384.416	1.68
384.779	1.66
385.142	1.66
385.504	1.62
385.867	1.61
386.23	1.63
386.593	1.6
386.955	1.62
387.318	1.59
387.68	1.57
388.043	1.56
388.405	1.55
388.768	1.54
389.13	1.55
389.493	1.53
389.855	1.51
390.217	1.49
390.58	1.49
390.942	1.48
391.304	1.46
391.666	1.43
392.028	1.43
392.391	1.4
392.753	1.38
393.115	1.36
393.477	1.37
393.839	1.32
394.201	1.32
394.563	1.31
394.924	1.3
395.286	1.3
395.648	1.31
396.01	1.31
396.371	1.33
396.733	1.32
397.095	1.34
397.456	1.36
397.818	1.39
398.18	1.42
398.541	1.41
398.903	1.46
399.264	1.5
399.625	1.52
399.987	1.54
400.348	1.56
400.709	1.56
401.071	1.59
401.432	1.57
401.793	1.58
402.154	1.56
402.515	1.56
402.876	1.52
403.238	1.48
403.599	1.47
403.96	1.41
404.32	1.37
404.681	1.33
405.042	1.27
405.403	1.23
405.764	1.18
406.125	1.12
406.485	1.07
406.846	1.02
407.207	0.97
407.567	0.92
407.928	0.89
408.288	0.83
408.649	0.79
409.009	0.75
409.37	0.71
409.73	0.68
410.091	0.64
410.451	0.61
410.811	0.57
411.171	0.55
411.532	0.52
411.892	0.5
412.252	0.48
412.612	0.45
412.972	0.44
413.332	0.42
413.692	0.4
414.052	0.39
414.412	0.38
414.772	0.36
415.132	0.35
415.492	0.34
415.851	0.33
416.211	0.31
416.571	0.31
416.931	0.3
417.29	0.29
417.65	0.28
418.009	0.27
418.369	0.27
418.728	0.27
419.088	0.26
419.447	0.26
419.807	0.25
420.166	0.24
420.525	0.23
420.884	0.24
421.244	0.22
421.603	0.22
421.962	0.22
422.321	0.22
422.68	0.21
423.039	0.21
423.398	0.2
423.757	0.2
424.116	0.21
424.475	0.2
424.834	0.2
425.193	0.19
425.551	0.2
425.91	0.19
426.269	0.19
426.628	0.19
426.986	0.19
427.345	0.19
427.703	0.19
428.062	0.19
428.42	0.18
428.779	0.19
429.137	0.18
429.496	0.17
429.854	0.18
430.212	0.17
430.57	0.18
430.929	0.17
431.287	0.17
431.645	0.17
432.003	0.17
432.361	0.17
432.719	0.17
433.077	0.17
433.435	0.17
433.793	0.18
434.151	0.17
434.509	0.17
434.866	0.17
435.224	0.17
435.582	0.18
435.94	0.17
436.297	0.17
436.655	0.17
437.012	0.17
437.37	0.17
437.727	0.17
438.085	0.16
438.442	0.17
438.8	0.17
439.157	0.17
439.514	0.17
439.872	0.17
440.229	0.16
440.586	0.17
440.943	0.17
441.3	0.17
441.657	0.18
442.014	0.17
442.371	0.17
442.728	0.17
443.085	0.17
443.442	0.17
443.799	0.18
444.156	0.18
444.513	0.17
444.869	0.17
445.226	0.18
445.583	0.19
445.939	0.18
446.296	0.17
446.652	0.18
447.009	0.18
447.365	0.19
447.722	0.19
448.078	0.18
448.434	0.19
448.791	0.18
449.147	0.18
449.503	0.19
449.859	0.18
450.215	0.18
450.571	0.19
450.928	0.18
451.284	0.19
451.64	0.18
451.995	0.19
452.351	0.18
452.707	0.18
453.063	0.18
453.419	0.18
453.775	0.17
454.13	0.18
454.486	0.18
454.842	0.18
455.197	0.18
455.553	0.18
455.908	0.17
456.264	0.17
456.619	0.18
456.975	0.17
457.33	0.17
457.685	0.17
458.04	0.17
458.396	0.17
458.751	0.17
459.106	0.16
459.461	0.17
459.816	0.16
460.171	0.16
460.526	0.16
460.881	0.14
461.236	0.14
461.591	0.15
461.946	0.15
462.301	0.14
462.655	0.14
463.01	0.14
463.365	0.14
463.719	0.12
464.074	0.14
464.428	0.11
464.783	0.11
465.137	0.12
465.492	0.12
465.846	0.11
466.201	0.12
466.555	0.12
466.909	0.12
467.263	0.14
467.618	0.13
467.972	0.14
468.326	0.14
468.68	0.12
469.034	0.13
469.388	0.12
469.742	0.13
470.096	0.14
470.45	0.14
470.804	0.14
471.157	0.14
471.511	0.15
471.865	0.14
472.218	0.15
472.572	0.16
472.926	0.17
473.279	0.17
473.633	0.18
473.986	0.2
474.34	0.2
474.693	0.21
475.046	0.22
475.4	0.23
475.753	0.24
476.106	0.25
476.459	0.26
476.812	0.27
477.165	0.29
477.519	0.3
477.872	0.3
478.224	0.31
478.577	0.31
478.93	0.33
479.283	0.33
479.636	0.34
479.989	0.35
480.341	0.36
480.694	0.37
481.047	0.37
481.399	0.39
481.752	0.39
482.104	0.4
482.457	0.41
482.809	0.41
483.162	0.43
483.514	0.43
483.866	0.43
484.219	0.43
484.571	0.44
484.923	0.44
485.275	0.46
485.627	0.46
485.979	0.47
486.331	0.47
486.683	0.48
487.035	0.49
487.387	0.5
487.739	0.52
488.091	0.52
488.443	0.52
488.794	0.52
489.146	0.53
489.498	0.54
489.849	0.54
490.201	0.54
490.552	0.54
490.904	0.55
491.255	0.56
491.607	0.56
491.958	0.57
492.309	0.57
492.661	0.58
493.012	0.58
493.363	0.59
493.714	0.59
494.065	0.6
494.416	0.6
494.767	0.61
495.118	0.61
495.469	0.62
495.82	0.63
496.171	0.64
496.522	0.64
496.872	0.65
497.223	0.64
497.574	0.65
497.924	0.66
498.275	0.66
498.626	0.67
498.976	0.68
499.327	0.68
499.677	0.68
500.027	0.69
500.378	0.7
500.728	0.7
501.078	0.7
501.428	0.71
501.779	0.72
502.129	0.72
502.479	0.72
502.829	0.73
503.179	0.74
503.529	0.74
503.879	0.75
504.229	0.75
504.578	0.75
504.928	0.76
505.278	0.76
505.628	0.77
505.977	0.78
506.327	0.78
506.676	0.79
507.026	0.79
507.375	0.79
507.725	0.8
508.074	0.81
508.424	0.81
508.773	0.82
509.122	0.81
509.471	0.83
509.82	0.83
510.17	0.84
510.519	0.83
510.868	0.85
511.217	0.84
511.566	0.84
511.915	0.86
512.263	0.86
512.612	0.87
512.961	0.86
513.31	0.87
513.659	0.87
514.007	0.88
514.356	0.89
514.704	0.89
515.053	0.89
515.401	0.9
515.75	0.9
516.098	0.9
516.447	0.91
516.795	0.91
517.143	0.91
517.491	0.93
517.839	0.92
518.188	0.93
518.536	0.93
518.884	0.93
519.232	0.95
519.58	0.94
519.928	0.95
520.275	0.96
520.623	0.96
520.971	0.96
521.319	0.95
521.666	0.97
522.014	0.97
522.362	0.97
522.709	0.98
523.057	0.98
523.404	0.98
523.752	0.98
524.099	0.99
524.446	1
524.794	0.99
525.141	0.99
525.488	1
525.835	1.01
526.182	1
526.529	1
526.876	1
527.223	1.02
527.57	1.02
527.917	1.02
528.264	1.02
528.611	1.02
528.958	1.02
529.304	1.04
529.651	1.02
529.998	1.03
530.344	1.04
530.691	1.05
531.037	1.04
531.384	1.05
531.73	1.05
532.076	1.04
532.423	1.05
532.769	1.05
533.115	1.05
533.461	1.06
533.807	1.06
534.154	1.06
534.5	1.06
534.846	1.06
535.192	1.06
535.537	1.07
535.883	1.07
536.229	1.07
536.575	1.07
536.921	1.08
537.266	1.08
537.612	1.08
537.957	1.08
538.303	1.07
538.649	1.08
538.994	1.08
539.339	1.09
539.685	1.09
540.03	1.09
540.375	1.09
540.721	1.09
541.066	1.1
541.411	1.1
541.756	1.1
542.101	1.1
542.446	1.09
542.791	1.1
543.136	1.11
543.481	1.1
543.825	1.11
544.17	1.1
544.515	1.11
544.86	1.11
545.204	1.11
545.549	1.11
545.893	1.11
546.238	1.11
546.582	1.11
546.927	1.11
547.271	1.1
547.615	1.11
547.96	1.11
548.304	1.12
548.648	1.11
548.992	1.11
549.336	1.11
549.68	1.11
550.024	1.12
550.368	1.11
550.712	1.11
551.056	1.11
551.4	1.11
551.743	1.12
552.087	1.11
552.431	1.11
552.774	1.12
553.118	1.12
553.462	1.11
553.805	1.11
554.148	1.11
554.492	1.1
554.835	1.11
555.178	1.11
555.522	1.12
555.865	1.11
556.208	1.11
556.551	1.11
556.894	1.11
557.237	1.11
557.58	1.11
557.923	1.1
558.266	1.1
558.609	1.11
558.952	1.1
559.294	1.11
559.637	1.1
559.98	1.1
560.322	1.11
560.665	1.1
561.007	1.09
561.35	1.09
561.692	1.09
562.034	1.09
562.377	1.09
562.719	1.09
563.061	1.09
563.403	1.09
563.745	1.08
564.088	1.09
564.43	1.08
564.772	1.08
565.113	1.08
565.455	1.08
565.797	1.08
566.139	1.08
566.481	1.08
566.822	1.07
567.164	1.07
567.506	1.07
567.847	1.07
568.189	1.07
568.53	1.06
568.872	1.07
569.213	1.05
569.554	1.06
569.895	1.06
570.237	1.05
570.578	1.05
570.919	1.05
571.26	1.04
571.601	1.05
571.942	1.05
572.283	1.04
572.624	1.03
572.965	1.04
573.306	1.03
573.646	1.02
573.987	1.03
574.328	1.03
574.668	1.02
575.009	1.02
575.349	1.01
575.69	1.01
576.03	1.01
576.37	1
576.711	1
577.051	1.01
577.391	1.01
577.731	1
578.072	1
578.412	1
578.752	1
579.092	0.99
579.431	0.97
579.771	0.96
580.111	0.95
580.451	0.97
580.791	0.98
581.13	0.98
581.47	0.98
581.81	0.98
582.149	0.98
582.489	0.97
582.828	0.95
583.167	0.92
583.507	0.89
583.846	0.89
584.185	0.93
584.525	0.95
584.864	0.96
585.203	0.96
585.542	0.97
585.881	0.96
586.22	0.95
586.559	0.95
586.898	0.93
587.236	0.93
587.575	0.94
587.914	0.94
588.252	0.95
588.591	0.95
588.93	0.94
589.268	0.93
589.607	0.94
589.945	0.94
590.283	0.94
590.622	0.94
590.96	0.95
591.298	0.94
591.636	0.94
591.974	0.94
592.313	0.94
592.651	0.94
592.989	0.94
593.326	0.94
593.664	0.94
594.002	0.94
594.34	0.93
594.678	0.93
595.015	0.92
595.353	0.92
595.691	0.93
596.028	0.94
596.366	0.93
596.703	0.93
597.04	0.93
597.378	0.93
597.715	0.93
598.052	0.93
598.389	0.93
598.726	0.93
599.064	0.93
599.401	0.92
599.738	0.93
600.074	0.92
600.411	0.92
600.748	0.91
601.085	0.91
601.422	0.91
601.758	0.91
602.095	0.91
602.432	0.91
602.768	0.91
603.105	0.91
603.441	0.92
603.777	0.92
604.114	0.91
604.45	0.91
604.786	0.91
605.122	0.9
605.459	0.89
605.795	0.89
606.131	0.89
606.467	0.89
606.803	0.89
607.139	0.89
607.474	0.89
607.81	0.88
608.146	0.88
608.482	0.88
608.817	0.88
609.153	0.87
609.488	0.87
609.824	0.87
610.159	0.87
610.495	0.87
610.83	0.86
611.165	0.86
611.5	0.85
611.836	0.85
612.171	0.84
612.506	0.85
612.841	0.84
613.176	0.84
613.511	0.83
613.845	0.83
614.18	0.83
614.515	0.83
614.85	0.83
615.184	0.83
615.519	0.82
615.854	0.82
616.188	0.81
616.523	0.81
616.857	0.8
617.191	0.81
617.526	0.81
617.86	0.8
618.194	0.8
618.528	0.8
618.862	0.79
619.196	0.79
619.53	0.79
619.864	0.79
620.198	0.78
620.532	0.78
620.866	0.78
621.2	0.77
621.533	0.77
621.867	0.77
622.201	0.76
622.534	0.76
622.868	0.76
623.201	0.75
623.534	0.75
623.868	0.75
624.201	0.74
624.534	0.74
624.868	0.74
625.201	0.74
625.534	0.73
625.867	0.73
626.2	0.73
626.533	0.73
626.865	0.73
627.198	0.72
627.531	0.72
627.864	0.71
628.196	0.7
628.529	0.7
628.862	0.7
629.194	0.7
629.527	0.69
629.859	0.69
630.191	0.68
630.524	0.68
630.856	0.67
631.188	0.67
631.52	0.67
631.852	0.67
632.184	0.66
632.516	0.65
632.848	0.65
633.18	0.65
633.512	0.65
633.844	0.64
634.175	0.64
634.507	0.63
634.839	0.62
635.17	0.63
635.502	0.62
635.833	0.62
636.165	0.62
636.496	0.61
636.827	0.6
637.159	0.6
637.49	0.6
637.821	0.59
638.152	0.59
638.483	0.58
638.814	0.59
639.145	0.58
639.476	0.57
639.807	0.57
640.137	0.57
640.468	0.56
640.799	0.56
641.129	0.56
641.46	0.55
641.791	0.55
642.121	0.55
642.451	0.55
642.782	0.54
643.112	0.54
643.442	0.53
643.773	0.53
644.103	0.53
644.433	0.52
644.763	0.52
645.093	0.52
645.423	0.52
645.753	0.51
646.082	0.51
646.412	0.51
646.742	0.51
647.072	0.5
647.401	0.5
647.731	0.5
648.06	0.5
648.39	0.5
648.719	0.49
649.048	0.5
649.378	0.49
649.707	0.49
650.036	0.48
650.365	0.48
650.694	0.48
651.023	0.48
651.352	0.48
651.681	0.48
652.01	0.47
652.339	0.47
652.668	0.47
652.996	0.46
653.325	0.46
653.654	0.47
653.982	0.46
654.311	0.46
654.639	0.46
654.967	0.46
655.296	0.46
655.624	0.45
655.952	0.45
656.28	0.45
656.609	0.45
656.937	0.45
657.265	0.42
657.593	0.27
657.92	0.18
658.248	0.15
658.576	0.23
658.904	0.35
659.231	0.43
659.559	0.43
659.887	0.43
660.214	0.43
660.542	0.43
660.869	0.42
661.196	0.42
661.524	0.42
661.851	0.42
662.178	0.42
662.505	0.42
662.832	0.42
663.159	0.42
663.486	0.41
663.813	0.41
664.14	0.41
664.467	0.41
664.794	0.4
665.12	0.4
665.447	0.4
665.774	0.4
666.1	0.4
666.427	0.4
666.753	0.39
667.079	0.39
667.406	0.39
667.732	0.39
668.058	0.38
668.384	0.38
668.71	0.38
669.036	0.38
669.362	0.38
669.688	0.37
670.014	0.37
670.34	0.37
670.666	0.37
670.991	0.36
671.317	0.36
671.643	0.36
671.968	0.36
672.294	0.35
672.619	0.35
672.945	0.35
673.27	0.34
673.595	0.34
673.92	0.34
674.246	0.33
674.571	0.34
674.896	0.33
675.221	0.33
675.546	0.33
675.87	0.32
676.195	0.32
676.52	0.32
676.845	0.32
677.169	0.32
677.494	0.32
677.819	0.31
678.143	0.3
678.468	0.3
678.792	0.3
679.116	0.3
679.44	0.3
679.765	0.3
680.089	0.29
680.413	0.28
680.737	0.28
681.061	0.28
681.385	0.28
681.709	0.27
682.033	0.27
682.356	0.27
682.68	0.27
683.004	0.26
683.327	0.26
683.651	0.25
683.974	0.25
684.298	0.25
684.621	0.25
684.944	0.25
685.268	0.24
685.591	0.24
685.914	0.24
686.237	0.23
686.56	0.23
686.883	0.23
687.206	0.23
687.529	0.22
687.852	0.22
688.175	0.22
688.497	0.22
688.82	0.22
689.142	0.21
689.465	0.21
689.787	0.21
690.11	0.21
690.432	0.21
690.755	0.2
691.077	0.2
691.399	0.2
691.721	0.2
692.043	0.19
692.365	0.19
692.687	0.18
693.009	0.18
693.331	0.18
693.653	0.18
693.974	0.18
694.296	0.18
694.618	0.18
694.939	0.17
695.261	0.17
695.582	0.17
695.904	0.17
696.225	0.17
696.546	0.17
696.868	0.16
697.189	0.16
697.51	0.16
697.831	0.16
698.152	0.16
698.473	0.15
698.794	0.14
699.114	0.14
699.435	0.13
699.756	0.14
700.077	0.14
700.397	0.14
700.718	0.14
701.038	0.14
701.359	0.14
701.679	0.14
701.999	0.14
702.32	0.14
702.64	0.14
702.96	0.14
703.28	0.14
703.6	0.14
703.92	0.13
704.24	0.13
704.56	0.13
704.879	0.13
705.199	0.13
705.519	0.13
705.838	0.13
706.158	0.13
706.478	0.13
706.797	0.13
707.116	0.13
707.436	0.13
707.755	0.13
708.074	0.13
708.393	0.12
708.712	0.12
709.031	0.1
709.35	0.11
709.669	0.1
709.988	0.11
710.307	0.11
710.626	0.12
710.944	0.12
711.263	0.12
711.582	0.12
711.9	0.12
712.219	0.12
712.537	0.12
712.855	0.12
713.174	0.12
713.492	0.12
713.81	0.12
714.128	0.12
714.446	0.12
714.764	0.11
715.082	0.11
715.4	0.11
715.718	0.11
716.035	0.11
716.353	0.12
716.671	0.12
716.988	0.12
717.306	0.11
717.623	0.12
717.941	0.13
718.258	0.13
718.575	0.13
718.893	0.13
719.21	0.12
719.527	0.12
719.844	0.12
720.161	0.12
720.478	0.12
720.795	0.12
721.112	0.12
721.428	0.13
721.745	0.13
722.062	0.13
722.378	0.13
722.695	0.13
723.011	0.13
723.328	0.13
723.644	0.13
723.96	0.13
724.276	0.13
724.593	0.13
724.909	0.13
725.225	0.13
725.541	0.13
725.857	0.13
726.173	0.13
726.488	0.13
726.804	0.12
727.12	0.12
727.435	0.12
727.751	0.12
728.067	0.12
728.382	0.12
728.697	0.12
729.013	0.13
729.328	0.12
729.643	0.12
729.958	0.12
730.273	0.12
730.588	0.12
730.903	0.12
731.218	0.12
731.533	0.12
731.848	0.12
732.163	0.12
732.477	0.12
732.792	0.12
733.107	0.11
733.421	0.12
733.736	0.12
734.05	0.12
734.364	0.11
734.678	0.12
734.993	0.11
735.307	0.12
735.621	0.11
735.935	0.11
736.249	0.11
736.563	0.11
736.877	0.11
737.19	0.12
737.504	0.12
737.818	0.12
738.131	0.12
738.445	0.12
738.758	0.12
739.072	0.12
739.385	0.12
739.698	0.12
740.012	0.12
740.325	0.12
740.638	0.11
740.951	0.11
741.264	0.11
741.577	0.11
741.89	0.11
742.203	0.11
742.515	0.11
742.828	0.11
743.141	0.11
743.453	0.11
743.766	0.11
744.078	0.1
744.391	0.1
744.703	0.1
745.015	0.1
745.327	0.1
745.639	0.1
745.952	0.1
746.264	0.1
746.575	0.1
746.887	0.1
747.199	0.1
747.511	0.1
747.823	0.1
748.134	0.09
748.446	0.09
748.757	0.09
749.069	0.09
749.38	0.09
749.692	0.09
750.003	0.08
750.314	0.08
750.625	0.08
750.936	0.08
751.248	0.08
751.559	0.09
751.869	0.09
752.18	0.09
752.491	0.08
752.802	0.08
753.112	0.08
753.423	0.08
753.734	0.08
754.044	0.07
754.355	0.07
754.665	0.07
754.975	0.07
755.285	0.07
755.596	0.07
755.906	0.07
756.216	0.07
756.526	0.07
756.836	0.07
757.146	0.07
757.455	0.07
757.765	0.07
758.075	0.07
758.385	0.06
758.694	0.06
759.004	0.06
759.313	0.06
759.622	0.06
759.932	0.06
760.241	0.07
760.55	0.06
760.859	0.07
761.168	0.07
761.477	0.07
761.786	0.06
762.095	0.06
762.404	0.06
762.713	0.06
763.021	0.06
763.33	0.06
763.639	0.07
763.947	0.06
764.256	0.06
764.564	0.07
764.872	0.06
765.181	0.06
765.489	0.06
765.797	0.06
766.105	0.06
766.413	0.06
766.721	0.06
767.029	0.06
767.337	0.06
767.644	0.06
767.952	0.06
768.26	0.06
768.567	0.06
768.875	0.06
769.182	0.06
769.49	0.06
769.797	0.06
770.104	0.06
770.411	0.06
770.718	0.06
771.026	0.06
771.333	0.06
771.639	0.06
771.946	0.06
772.253	0.06
772.56	0.06
772.867	0.06
773.173	0.06
773.48	0.06
773.786	0.06
774.093	0.06
774.399	0.06
774.705	0.06
775.012	0.06
775.318	0.07
775.624	0.07
775.93	0.06
776.236	0.07
776.542	0.07
776.848	0.07
777.154	0.07
777.459	0.07
777.765	0.07
778.071	0.07
778.376	0.07
778.682	0.06
778.987	0.07
779.292	0.06
779.598	0.06
779.903	0.06
780.208	0.06
780.513	0.06
780.818	0.06
781.123	0.06
781.428	0.07
781.733	0.07
782.038	0.06
782.343	0.06
782.647	0.06
782.952	0.06
783.256	0.06
783.561	0.06
783.865	0.06
784.17	0.06
784.474	0.06
784.778	0.06
785.082	0.06
785.386	0.06
785.69	0.06
785.994	0.06
786.298	0.06
786.602	0.06
786.906	0.06
787.209	0.07
787.513	0.06
787.817	0.07
788.12	0.07
788.424	0.08
788.727	0.08
789.03	0.07
789.333	0.07
789.637	0.07
789.94	0.07
790.243	0.07
790.546	0.08
790.849	0.08
791.152	0.08
791.454	0.08
791.757	0.08
792.06	0.08
792.362	0.08
792.665	0.08
792.967	0.08
793.27	0.08
793.572	0.08
793.874	0.08
794.177	0.08
794.479	0.08
794.781	0.08
795.083	0.09
795.385	0.09
795.687	0.09
795.989	0.09
796.29	0.09
796.592	0.09
796.894	0.09
797.195	0.09
797.497	0.08
797.798	0.09
798.1	0.09
798.401	0.09
798.702	0.09
799.003	0.08
799.304	0.08
799.605	0.08
799.906	0.08
800.207	0.08
800.508	0.08
800.809	0.09
801.11	0.09
801.41	0.09
801.711	0.09
802.011	0.09
802.312	0.09
802.612	0.09
802.913	0.09
803.213	0.09
803.513	0.09
803.813	0.09
804.113	0.09
804.413	0.09
804.713	0.1
805.013	0.1
805.313	0.1
805.613	0.1
805.912	0.1
806.212	0.1
806.511	0.1
806.811	0.1
807.11	0.1
807.41	0.1
807.709	0.1
808.008	0.1
808.307	0.1
808.606	0.1
808.905	0.1
809.204	0.1
809.503	0.1
809.802	0.1
810.101	0.1
810.399	0.11
810.698	0.1
810.997	0.1
811.295	0.1
811.593	0.11
811.892	0.11
812.19	0.11
812.488	0.11
812.786	0.11
813.084	0.11
813.383	0.11
813.68	0.11
813.978	0.11
814.276	0.11
814.574	0.11
814.872	0.11
815.169	0.11
815.467	0.11
815.764	0.11
816.062	0.11
816.359	0.11
816.656	0.1
816.954	0.11
817.251	0.11
817.548	0.12
817.845	0.11
818.142	0.12
818.439	0.12
818.735	0.12
819.032	0.12
819.329	0.12
819.626	0.12
819.922	0.13
820.219	0.13
820.515	0.13
820.811	0.13
821.108	0.13
821.404	0.13
821.7	0.13
821.996	0.12
822.292	0.12
822.588	0.13
822.884	0.13
823.18	0.14
823.475	0.14
823.771	0.14
824.067	0.14
824.362	0.14
824.658	0.14
824.953	0.14
825.249	0.13
825.544	0.14
825.839	0.14
826.134	0.13
826.429	0.13
826.724	0.13
827.019	0.14
827.314	0.14
827.609	0.14
827.904	0.14
828.198	0.14
828.493	0.15
828.787	0.15
829.082	0.14
829.376	0.15
829.671	0.15
829.965	0.15
830.259	0.15
830.553	0.16
830.847	0.15
831.141	0.15
831.435	0.16
831.729	0.16
832.023	0.15
832.317	0.16
832.61	0.15
832.904	0.16
833.197	0.16
833.491	0.15
833.784	0.16
834.077	0.16
834.371	0.16
834.664	0.16
834.957	0.16
835.25	0.16
835.543	0.16
835.836	0.16
836.129	0.17
836.421	0.16
836.714	0.16
837.007	0.16
837.299	0.16
837.592	0.16
837.884	0.16
838.177	0.16
838.469	0.16
838.761	0.17
839.053	0.17
839.345	0.17
839.637	0.16
839.929	0.17
840.221	0.16
840.513	0.17
840.805	0.18
841.096	0.17
841.388	0.18
841.68	0.18
841.971	0.18
842.262	0.18
842.554	0.17
842.845	0.17
843.136	0.17
843.427	0.18
843.718	0.18
844.009	0.18
844.3	0.18
844.591	0.18
844.882	0.19
845.173	0.18
845.463	0.18
845.754	0.19
846.044	0.19
846.335	0.18
846.625	0.18
846.915	0.18
847.206	0.18
847.496	0.19
847.786	0.18
848.076	0.17
848.366	0.19
848.656	0.18
848.945	0.18
849.235	0.17
849.525	0.16
849.814	0.17
850.104	0.17
850.393	0.18
850.683	0.19
850.972	0.19
851.261	0.19
851.551	0.2
851.84	0.2
852.129	0.19
852.418	0.19
852.707	0.2
852.995	0.2
853.284	0.19
853.573	0.19
853.862	0.19
854.15	0.18
854.439	0.18
854.727	0.19
855.015	0.2
855.304	0.21
855.592	0.19
855.88	0.2
856.168	0.2
856.456	0.2
856.744	0.2
857.032	0.2
857.32	0.2
857.607	0.18
857.895	0.19
858.183	0.21
858.47	0.19
858.757	0.2
859.045	0.21
859.332	0.2
859.619	0.22
859.907	0.21
860.194	0.19
860.481	0.21
860.768	0.2
861.054	0.21
861.341	0.21
861.628	0.23
861.915	0.2
862.201	0.2
862.488	0.22
862.774	0.21
863.061	0.23
863.347	0.22
863.633	0.25
863.919	0.21
864.205	0.19
864.491	0.21
864.777	0.24
865.063	0.21
865.349	0.24
865.635	0.2
865.92	0.2
866.206	0.2
866.492	0.22
866.777	0.23
867.062	0.22
867.348	0.22
867.633	0.18
867.918	0.23
868.203	0.21
868.488	0.2
868.773	0.26
869.058	0.22
869.343	0.22
869.628	0.24
869.912	0.23
870.197	0.2
870.482	0.19
870.766	0.26
871.05	0.22
871.335	0.25
871.619	0.19
871.903	0.25
872.187	0.17
872.471	0.19
872.755	0.19
873.039	0.19
873.323	0.21
873.607	0.2
873.89	0.2
874.174	0.17
874.458	0.2
874.741	0.17
875.024	0.23
875.308	0.3
875.591	0.22
875.874	0.27
876.157	0.23
876.44	0.14
876.723	0.16
877.006	0.12
877.289	0.19
877.572	0.25
877.854	0.23
878.137	0.15
878.42	0.2
878.702	0.17
878.984	0.28
879.267	0.25
879.549	0.13
879.831	0.3
880.113	0.19
880.395	0.15
880.677	0.08
880.959	0.25
