Data from Rubpy_BV_1800_EDTA_Buffered_Absorbance_15-04-41-976.txt Node
Date: Wed Jul 01 15:04:41 BST 2026
User: fpm-admin
Spectrometer: OFX00224
Trigger mode: 0
Integration Time (sec): 7.000000E-2
Scans to average: 3
Nonlinearity correction enabled: false
Boxcar width: 0
Storing dark spectrum: false
XAxis mode: Wavelengths
Number of Pixels in Spectrum: 2136
>>>>>Begin Spectral Data<<<<<
154.91	-0.45
155.289	0.31
155.669	-0.3
156.048	0.4
156.428	0.1
156.807	-0
157.186	-0
157.566	-0.43
157.945	-0.38
158.325	-0
158.704	1.51
159.083	-0
159.462	0.3
159.842	-0
160.221	-0
160.6	-0
160.979	-0.17
161.359	0.41
161.738	0.41
162.117	-0.31
162.496	-0.34
162.875	-0.09
163.254	0.48
163.633	-0
164.012	-0
164.391	-0.81
164.77	-0.57
165.149	-0
165.528	-1.08
165.907	-0.6
166.286	0.54
166.665	0.02
167.044	0.26
167.423	0.06
167.802	-0
168.181	-0
168.559	-0.37
168.938	-0.63
169.317	-0
169.696	-0
170.074	-0
170.453	-0
170.832	-0.14
171.21	-0.35
171.589	-0.56
171.968	-0
172.346	-0
172.725	0.6
173.103	0.93
173.482	-0
173.861	-0.18
174.239	0.41
174.617	-0
174.996	0.23
175.374	-0
175.753	-0.25
176.131	-0
176.51	-0.03
176.888	-0
177.266	-0
177.645	-0.06
178.023	1.97
178.401	-0.2
178.779	-0.16
179.158	-1.28
179.536	-0.09
179.914	-0.36
180.292	0.75
180.67	-0.29
181.048	-0
181.427	-0
181.805	-0.56
182.183	-1.36
182.561	0.07
182.939	0.07
183.317	-0
183.695	-0
184.073	0.14
184.451	0.17
184.829	-0.04
185.206	0.09
185.584	-0
185.962	-0
186.34	1.11
186.718	-0.08
187.096	-0.74
187.473	0.19
187.851	0.42
188.229	-0
188.607	0.29
188.984	0.16
189.362	0.19
189.74	0.21
190.117	0.13
190.495	0.14
190.872	0.36
191.25	0.27
191.627	0.09
192.005	0.18
192.382	0.04
192.76	0.23
193.137	0.29
193.515	0.13
193.892	0.38
194.269	0.4
194.647	0.22
195.024	0.17
195.401	0.2
195.779	0.37
196.156	0.14
196.533	0.24
196.91	0.09
197.288	0.23
197.665	0.23
198.042	0.23
198.419	0.19
198.796	0.1
199.173	0.2
199.55	0.22
199.927	0.12
200.304	0.25
200.681	0.41
201.058	0.15
201.435	0.17
201.812	0.17
202.189	0.45
202.566	0.24
202.943	0.11
203.32	0.37
203.697	0.2
204.073	0.18
204.45	0.29
204.827	0.27
205.204	0.39
205.58	0.18
205.957	0.33
206.334	0.27
206.71	0.21
207.087	0.18
207.464	0.05
207.84	0.27
208.217	0.23
208.593	0.16
208.97	0.19
209.346	0.25
209.723	0.22
210.099	0.39
210.476	0.21
210.852	0.13
211.228	0.29
211.605	0.2
211.981	0.24
212.357	0.27
212.733	0.22
213.11	0.21
213.486	0.15
213.862	0.31
214.238	0.23
214.614	0.35
214.991	0.31
215.367	0.21
215.743	0.14
216.119	0.25
216.495	0.27
216.871	0.19
217.247	0.21
217.623	0.29
217.999	0.12
218.375	0.17
218.751	0.36
219.127	0.23
219.502	0.25
219.878	0.17
220.254	0.21
220.63	0.29
221.006	0.21
221.381	0.18
221.757	0.17
222.133	0.33
222.508	0.18
222.884	0.16
223.26	0.27
223.635	0.27
224.011	0.31
224.386	0.25
224.762	0.24
225.137	0.37
225.513	0.14
225.888	0.24
226.264	0.2
226.639	0.18
227.014	0.13
227.39	0.29
227.765	0.16
228.14	0.25
228.516	0.3
228.891	0.24
229.266	0.18
229.641	0.19
230.017	0.16
230.392	0.23
230.767	0.2
231.142	0.18
231.517	0.22
231.892	0.19
232.267	0.19
232.642	0.3
233.017	0.22
233.392	0.26
233.767	0.28
234.142	0.16
234.517	0.35
234.892	0.23
235.267	0.16
235.641	0.2
236.016	0.15
236.391	0.17
236.766	0.22
237.14	0.23
237.515	0.35
237.89	0.19
238.264	0.21
238.639	0.27
239.014	0.34
239.388	0.23
239.763	0.3
240.137	0.25
240.512	0.2
240.886	0.22
241.261	0.23
241.635	0.2
242.009	0.26
242.384	0.29
242.758	0.25
243.132	0.19
243.507	0.22
243.881	0.27
244.255	0.28
244.629	0.33
245.004	0.24
245.378	0.26
245.752	0.23
246.126	0.25
246.5	0.39
246.874	0.37
247.248	0.35
247.622	0.26
247.996	0.26
248.37	0.27
248.744	0.23
249.118	0.12
249.492	0.64
249.866	0.36
250.24	0.37
250.613	0.32
250.987	0.41
251.361	0.34
251.735	0.23
252.108	0.26
252.482	0.19
252.856	0.21
253.229	0.18
253.603	0.27
253.977	0.11
254.35	0.15
254.724	0.24
255.097	0.21
255.471	0.27
255.844	0.35
256.218	0.24
256.591	0.29
256.964	0.28
257.338	0.26
257.711	0.18
258.084	0.16
258.458	0.27
258.831	0.32
259.204	0.28
259.577	0.28
259.95	0.25
260.323	0.29
260.697	0.24
261.07	0.3
261.443	0.2
261.816	0.2
262.189	0.28
262.562	0.28
262.935	0.32
263.308	0.26
263.68	0.22
264.053	0.19
264.426	0.26
264.799	0.32
265.172	0.24
265.545	0.18
265.917	0.26
266.29	0.27
266.663	0.37
267.035	0.24
267.408	0.3
267.781	0.35
268.153	0.27
268.526	0.26
268.898	0.25
269.271	0.22
269.643	0.27
270.016	0.22
270.388	0.22
270.76	0.35
271.133	0.31
271.505	0.3
271.877	0.32
272.25	0.33
272.622	0.25
272.994	0.34
273.366	0.36
273.739	0.18
274.111	0.24
274.483	0.24
274.855	0.3
275.227	0.23
275.599	0.22
275.971	0.3
276.343	0.2
276.715	0.29
277.087	0.36
277.459	0.22
277.831	0.19
278.203	0.25
278.574	0.27
278.946	0.26
279.318	0.14
279.69	0.26
280.061	0.22
280.433	0.24
280.805	0.24
281.176	0.26
281.548	0.29
281.92	0.25
282.291	0.3
282.663	0.3
283.034	0.18
283.406	0.28
283.777	0.25
284.148	0.28
284.52	0.26
284.891	0.24
285.262	0.22
285.634	0.23
286.005	0.2
286.376	0.23
286.747	0.25
287.119	0.33
287.49	0.2
287.861	0.22
288.232	0.23
288.603	0.24
288.974	0.26
289.345	0.24
289.716	0.21
290.087	0.22
290.458	0.31
290.829	0.27
291.2	0.24
291.571	0.26
291.941	0.27
292.312	0.29
292.683	0.27
293.054	0.22
293.424	0.11
293.795	0.24
294.166	0.32
294.536	0.35
294.907	0.32
295.277	0.27
295.648	0.28
296.018	0.24
296.389	0.3
296.759	0.22
297.13	0.32
297.5	0.25
297.871	0.18
298.241	0.27
298.611	0.39
298.981	0.31
299.352	0.32
299.722	0.32
300.092	0.26
300.462	0.23
300.832	0.27
301.202	0.31
301.573	0.24
301.943	0.29
302.313	0.3
302.683	0.24
303.053	0.19
303.422	0.24
303.792	0.24
304.162	0.26
304.532	0.24
304.902	0.25
305.272	0.3
305.641	0.21
306.011	0.23
306.381	0.25
306.75	0.24
307.12	0.23
307.49	0.28
307.859	0.24
308.229	0.18
308.598	0.26
308.968	0.21
309.337	0.19
309.707	0.27
310.076	0.19
310.445	0.23
310.815	0.19
311.184	0.24
311.553	0.15
311.923	0.19
312.292	0.24
312.661	0.21
313.03	0.18
313.399	0.18
313.768	0.18
314.137	0.19
314.506	0.23
314.875	0.21
315.244	0.21
315.613	0.21
315.982	0.22
316.351	0.25
316.72	0.23
317.089	0.23
317.458	0.23
317.826	0.24
318.195	0.23
318.564	0.22
318.933	0.22
319.301	0.24
319.67	0.24
320.038	0.24
320.407	0.24
320.775	0.25
321.144	0.26
321.512	0.26
321.881	0.25
322.249	0.27
322.618	0.27
322.986	0.26
323.354	0.27
323.723	0.27
324.091	0.27
324.459	0.29
324.827	0.29
325.195	0.29
325.564	0.3
325.932	0.29
326.3	0.3
326.668	0.31
327.036	0.32
327.404	0.32
327.772	0.32
328.14	0.32
328.508	0.32
328.875	0.32
329.243	0.33
329.611	0.33
329.979	0.34
330.346	0.34
330.714	0.35
331.082	0.35
331.449	0.36
331.817	0.37
332.185	0.38
332.552	0.38
332.92	0.39
333.287	0.4
333.655	0.4
334.022	0.41
334.389	0.41
334.757	0.42
335.124	0.43
335.491	0.45
335.859	0.46
336.226	0.45
336.593	0.47
336.96	0.48
337.327	0.48
337.695	0.49
338.062	0.5
338.429	0.5
338.796	0.51
339.163	0.53
339.53	0.53
339.897	0.54
340.263	0.55
340.63	0.57
340.997	0.58
341.364	0.59
341.731	0.58
342.097	0.6
342.464	0.61
342.831	0.61
343.197	0.64
343.564	0.65
343.931	0.65
344.297	0.66
344.664	0.67
345.03	0.68
345.396	0.69
345.763	0.7
346.129	0.71
346.496	0.72
346.862	0.73
347.228	0.74
347.594	0.75
347.961	0.77
348.327	0.77
348.693	0.79
349.059	0.79
349.425	0.8
349.791	0.81
350.157	0.82
350.523	0.83
350.889	0.84
351.255	0.85
351.621	0.85
351.987	0.87
352.353	0.88
352.719	0.89
353.084	0.89
353.45	0.91
353.816	0.92
354.181	0.92
354.547	0.95
354.913	0.95
355.278	0.96
355.644	0.98
356.009	0.98
356.375	1
356.74	1.01
357.106	1.02
357.471	1.03
357.836	1.04
358.202	1.06
358.567	1.08
358.932	1.08
359.297	1.09
359.663	1.11
360.028	1.15
360.393	1.14
360.758	1.17
361.123	1.17
361.488	1.2
361.853	1.2
362.218	1.21
362.583	1.25
362.948	1.24
363.312	1.27
363.677	1.28
364.042	1.28
364.407	1.3
364.772	1.31
365.136	1.32
365.501	1.33
365.865	1.36
366.23	1.35
366.595	1.38
366.959	1.36
367.324	1.39
367.688	1.4
368.052	1.42
368.417	1.42
368.781	1.45
369.145	1.44
369.51	1.43
369.874	1.46
370.238	1.47
370.602	1.45
370.967	1.48
371.331	1.45
371.695	1.49
372.059	1.46
372.423	1.46
372.787	1.49
373.151	1.45
373.515	1.48
373.878	1.47
374.242	1.48
374.606	1.48
374.97	1.46
375.334	1.47
375.697	1.43
376.061	1.44
376.425	1.42
376.788	1.4
377.152	1.4
377.515	1.37
377.879	1.36
378.242	1.35
378.606	1.35
378.969	1.32
379.333	1.3
379.696	1.29
380.059	1.29
380.422	1.27
380.786	1.25
381.149	1.23
381.512	1.21
381.875	1.21
382.238	1.19
382.601	1.18
382.964	1.17
383.327	1.16
383.69	1.15
384.053	1.14
384.416	1.14
384.779	1.12
385.142	1.11
385.504	1.1
385.867	1.09
386.23	1.09
386.593	1.09
386.955	1.09
387.318	1.08
387.68	1.08
388.043	1.07
388.405	1.06
388.768	1.07
389.13	1.07
389.493	1.04
389.855	1.05
390.217	1.05
390.58	1.03
390.942	1.03
391.304	1.02
391.666	1
392.028	0.98
392.391	0.98
392.753	0.97
393.115	0.96
393.477	0.96
393.839	0.93
394.201	0.94
394.563	0.92
394.924	0.92
395.286	0.92
395.648	0.93
396.01	0.93
396.371	0.94
396.733	0.95
397.095	0.96
397.456	0.99
397.818	0.99
398.18	1.02
398.541	1.04
398.903	1.07
399.264	1.09
399.625	1.11
399.987	1.13
400.348	1.16
400.709	1.16
401.071	1.18
401.432	1.18
401.793	1.18
402.154	1.17
402.515	1.16
402.876	1.15
403.238	1.1
403.599	1.08
403.96	1.04
404.32	1.02
404.681	0.98
405.042	0.94
405.403	0.91
405.764	0.86
406.125	0.83
406.485	0.77
406.846	0.74
407.207	0.71
407.567	0.66
407.928	0.64
408.288	0.6
408.649	0.56
409.009	0.53
409.37	0.5
409.73	0.48
410.091	0.45
410.451	0.43
410.811	0.4
411.171	0.38
411.532	0.36
411.892	0.35
412.252	0.33
412.612	0.31
412.972	0.31
413.332	0.29
413.692	0.28
414.052	0.27
414.412	0.26
414.772	0.25
415.132	0.24
415.492	0.23
415.851	0.22
416.211	0.21
416.571	0.21
416.931	0.21
417.29	0.19
417.65	0.19
418.009	0.19
418.369	0.19
418.728	0.18
419.088	0.18
419.447	0.17
419.807	0.17
420.166	0.16
420.525	0.16
420.884	0.16
421.244	0.16
421.603	0.15
421.962	0.15
422.321	0.14
422.68	0.14
423.039	0.14
423.398	0.13
423.757	0.14
424.116	0.15
424.475	0.13
424.834	0.14
425.193	0.13
425.551	0.13
425.91	0.13
426.269	0.12
426.628	0.12
426.986	0.13
427.345	0.12
427.703	0.13
428.062	0.12
428.42	0.12
428.779	0.13
429.137	0.12
429.496	0.12
429.854	0.12
430.212	0.11
430.57	0.12
430.929	0.11
431.287	0.11
431.645	0.12
432.003	0.11
432.361	0.11
432.719	0.11
433.077	0.11
433.435	0.12
433.793	0.11
434.151	0.11
434.509	0.12
434.866	0.1
435.224	0.11
435.582	0.11
435.94	0.11
436.297	0.11
436.655	0.11
437.012	0.11
437.37	0.12
437.727	0.11
438.085	0.1
438.442	0.11
438.8	0.11
439.157	0.11
439.514	0.11
439.872	0.11
440.229	0.11
440.586	0.11
440.943	0.11
441.3	0.11
441.657	0.11
442.014	0.1
442.371	0.11
442.728	0.11
443.085	0.11
443.442	0.1
443.799	0.1
444.156	0.11
444.513	0.11
444.869	0.1
445.226	0.12
445.583	0.11
445.939	0.11
446.296	0.11
446.652	0.11
447.009	0.11
447.365	0.11
447.722	0.11
448.078	0.11
448.434	0.12
448.791	0.11
449.147	0.11
449.503	0.11
449.859	0.11
450.215	0.1
450.571	0.11
450.928	0.11
451.284	0.11
451.64	0.11
451.995	0.11
452.351	0.11
452.707	0.11
453.063	0.11
453.419	0.1
453.775	0.1
454.13	0.11
454.486	0.11
454.842	0.1
455.197	0.09
455.553	0.09
455.908	0.09
456.264	0.09
456.619	0.1
456.975	0.1
457.33	0.1
457.685	0.09
458.04	0.09
458.396	0.09
458.751	0.09
459.106	0.08
459.461	0.08
459.816	0.07
460.171	0.07
460.526	0.08
460.881	0.07
461.236	0.06
461.591	0.07
461.946	0.06
462.301	0.06
462.655	0.06
463.01	0.06
463.365	0.06
463.719	0.05
464.074	0.04
464.428	0.04
464.783	0.04
465.137	0.04
465.492	0.04
465.846	0.03
466.201	0.04
466.555	0.04
466.909	0.04
467.263	0.05
467.618	0.05
467.972	0.05
468.326	0.05
468.68	0.04
469.034	0.04
469.388	0.04
469.742	0.04
470.096	0.04
470.45	0.05
470.804	0.05
471.157	0.05
471.511	0.05
471.865	0.05
472.218	0.05
472.572	0.07
472.926	0.07
473.279	0.07
473.633	0.08
473.986	0.09
474.34	0.1
474.693	0.1
475.046	0.11
475.4	0.12
475.753	0.12
476.106	0.13
476.459	0.14
476.812	0.15
477.165	0.16
477.519	0.17
477.872	0.17
478.224	0.17
478.577	0.18
478.93	0.18
479.283	0.18
479.636	0.19
479.989	0.2
480.341	0.2
480.694	0.22
481.047	0.21
481.399	0.23
481.752	0.23
482.104	0.24
482.457	0.24
482.809	0.24
483.162	0.25
483.514	0.25
483.866	0.26
484.219	0.26
484.571	0.26
484.923	0.26
485.275	0.27
485.627	0.27
485.979	0.28
486.331	0.28
486.683	0.29
487.035	0.29
487.387	0.3
487.739	0.31
488.091	0.31
488.443	0.31
488.794	0.32
489.146	0.32
489.498	0.32
489.849	0.32
490.201	0.32
490.552	0.33
490.904	0.33
491.255	0.33
491.607	0.33
491.958	0.34
492.309	0.34
492.661	0.34
493.012	0.35
493.363	0.36
493.714	0.36
494.065	0.36
494.416	0.36
494.767	0.37
495.118	0.37
495.469	0.38
495.82	0.38
496.171	0.38
496.522	0.39
496.872	0.4
497.223	0.39
497.574	0.39
497.924	0.39
498.275	0.4
498.626	0.41
498.976	0.41
499.327	0.41
499.677	0.41
500.027	0.42
500.378	0.42
500.728	0.42
501.078	0.43
501.428	0.43
501.779	0.44
502.129	0.43
502.479	0.44
502.829	0.45
503.179	0.45
503.529	0.45
503.879	0.46
504.229	0.46
504.578	0.46
504.928	0.46
505.278	0.47
505.628	0.47
505.977	0.48
506.327	0.47
506.676	0.48
507.026	0.48
507.375	0.49
507.725	0.48
508.074	0.49
508.424	0.49
508.773	0.49
509.122	0.5
509.471	0.51
509.82	0.5
510.17	0.51
510.519	0.5
510.868	0.51
511.217	0.51
511.566	0.51
511.915	0.52
512.263	0.53
512.612	0.53
512.961	0.53
513.31	0.53
513.659	0.53
514.007	0.54
514.356	0.54
514.704	0.55
515.053	0.54
515.401	0.55
515.75	0.55
516.098	0.55
516.447	0.55
516.795	0.56
517.143	0.56
517.491	0.56
517.839	0.56
518.188	0.57
518.536	0.57
518.884	0.57
519.232	0.58
519.58	0.58
519.928	0.58
520.275	0.58
520.623	0.58
520.971	0.59
521.319	0.59
521.666	0.59
522.014	0.59
522.362	0.59
522.709	0.6
523.057	0.6
523.404	0.6
523.752	0.6
524.099	0.6
524.446	0.61
524.794	0.61
525.141	0.61
525.488	0.62
525.835	0.62
526.182	0.62
526.529	0.62
526.876	0.62
527.223	0.62
527.57	0.62
527.917	0.62
528.264	0.62
528.611	0.62
528.958	0.62
529.304	0.64
529.651	0.64
529.998	0.64
530.344	0.64
530.691	0.64
531.037	0.65
531.384	0.65
531.73	0.65
532.076	0.65
532.423	0.65
532.769	0.65
533.115	0.65
533.461	0.65
533.807	0.65
534.154	0.66
534.5	0.66
534.846	0.66
535.192	0.66
535.537	0.66
535.883	0.66
536.229	0.66
536.575	0.66
536.921	0.66
537.266	0.67
537.612	0.67
537.957	0.67
538.303	0.67
538.649	0.67
538.994	0.67
539.339	0.67
539.685	0.68
540.03	0.68
540.375	0.67
540.721	0.68
541.066	0.68
541.411	0.69
541.756	0.68
542.101	0.68
542.446	0.68
542.791	0.69
543.136	0.69
543.481	0.69
543.825	0.69
544.17	0.69
544.515	0.69
544.86	0.69
545.204	0.69
545.549	0.69
545.893	0.69
546.238	0.69
546.582	0.69
546.927	0.69
547.271	0.69
547.615	0.69
547.96	0.7
548.304	0.7
548.648	0.7
548.992	0.69
549.336	0.7
549.68	0.7
550.024	0.7
550.368	0.7
550.712	0.7
551.056	0.7
551.4	0.7
551.743	0.7
552.087	0.7
552.431	0.71
552.774	0.7
553.118	0.7
553.462	0.7
553.805	0.7
554.148	0.7
554.492	0.7
554.835	0.7
555.178	0.7
555.522	0.7
555.865	0.7
556.208	0.7
556.551	0.7
556.894	0.7
557.237	0.7
557.58	0.7
557.923	0.7
558.266	0.69
558.609	0.7
558.952	0.7
559.294	0.7
559.637	0.7
559.98	0.7
560.322	0.7
560.665	0.7
561.007	0.7
561.35	0.69
561.692	0.69
562.034	0.69
562.377	0.7
562.719	0.69
563.061	0.69
563.403	0.69
563.745	0.69
564.088	0.69
564.43	0.69
564.772	0.69
565.113	0.68
565.455	0.68
565.797	0.68
566.139	0.68
566.481	0.68
566.822	0.69
567.164	0.69
567.506	0.68
567.847	0.69
568.189	0.68
568.53	0.68
568.872	0.67
569.213	0.67
569.554	0.67
569.895	0.67
570.237	0.67
570.578	0.67
570.919	0.67
571.26	0.67
571.601	0.67
571.942	0.67
572.283	0.67
572.624	0.66
572.965	0.66
573.306	0.66
573.646	0.66
573.987	0.66
574.328	0.66
574.668	0.65
575.009	0.65
575.349	0.64
575.69	0.65
576.03	0.65
576.37	0.64
576.711	0.64
577.051	0.64
577.391	0.64
577.731	0.64
578.072	0.64
578.412	0.64
578.752	0.64
579.092	0.63
579.431	0.62
579.771	0.6
580.111	0.6
580.451	0.61
580.791	0.63
581.13	0.63
581.47	0.63
581.81	0.62
582.149	0.63
582.489	0.62
582.828	0.61
583.167	0.58
583.507	0.54
583.846	0.54
584.185	0.58
584.525	0.61
584.864	0.62
585.203	0.62
585.542	0.62
585.881	0.62
586.22	0.62
586.559	0.61
586.898	0.6
587.236	0.59
587.575	0.6
587.914	0.6
588.252	0.61
588.591	0.61
588.93	0.62
589.268	0.61
589.607	0.61
589.945	0.61
590.283	0.61
590.622	0.61
590.96	0.62
591.298	0.61
591.636	0.62
591.974	0.62
592.313	0.62
592.651	0.62
592.989	0.61
593.326	0.62
593.664	0.62
594.002	0.61
594.34	0.61
594.678	0.6
595.015	0.6
595.353	0.6
595.691	0.61
596.028	0.61
596.366	0.61
596.703	0.61
597.04	0.61
597.378	0.61
597.715	0.62
598.052	0.62
598.389	0.62
598.726	0.61
599.064	0.61
599.401	0.62
599.738	0.61
600.074	0.61
600.411	0.61
600.748	0.61
601.085	0.6
601.422	0.6
601.758	0.6
602.095	0.6
602.432	0.6
602.768	0.6
603.105	0.6
603.441	0.6
603.777	0.6
604.114	0.6
604.45	0.6
604.786	0.6
605.122	0.6
605.459	0.6
605.795	0.59
606.131	0.6
606.467	0.59
606.803	0.6
607.139	0.6
607.474	0.59
607.81	0.59
608.146	0.59
608.482	0.59
608.817	0.58
609.153	0.58
609.488	0.58
609.824	0.58
610.159	0.58
610.495	0.58
610.83	0.58
611.165	0.57
611.5	0.57
611.836	0.57
612.171	0.56
612.506	0.56
612.841	0.56
613.176	0.56
613.511	0.56
613.845	0.56
614.18	0.56
614.515	0.56
614.85	0.55
615.184	0.55
615.519	0.55
615.854	0.55
616.188	0.55
616.523	0.54
616.857	0.54
617.191	0.54
617.526	0.54
617.86	0.54
618.194	0.54
618.528	0.54
618.862	0.54
619.196	0.53
619.53	0.53
619.864	0.53
620.198	0.52
620.532	0.52
620.866	0.53
621.2	0.52
621.533	0.52
621.867	0.52
622.201	0.52
622.534	0.51
622.868	0.51
623.201	0.51
623.534	0.51
623.868	0.5
624.201	0.5
624.534	0.5
624.868	0.5
625.201	0.5
625.534	0.5
625.867	0.49
626.2	0.49
626.533	0.49
626.865	0.49
627.198	0.48
627.531	0.48
627.864	0.48
628.196	0.47
628.529	0.47
628.862	0.47
629.194	0.47
629.527	0.47
629.859	0.47
630.191	0.47
630.524	0.46
630.856	0.46
631.188	0.45
631.52	0.45
631.852	0.45
632.184	0.45
632.516	0.44
632.848	0.44
633.18	0.44
633.512	0.44
633.844	0.43
634.175	0.43
634.507	0.43
634.839	0.42
635.17	0.42
635.502	0.42
635.833	0.42
636.165	0.41
636.496	0.41
636.827	0.41
637.159	0.4
637.49	0.4
637.821	0.4
638.152	0.4
638.483	0.39
638.814	0.39
639.145	0.39
639.476	0.39
639.807	0.39
640.137	0.38
640.468	0.38
640.799	0.38
641.129	0.37
641.46	0.37
641.791	0.37
642.121	0.36
642.451	0.36
642.782	0.36
643.112	0.36
643.442	0.36
643.773	0.36
644.103	0.35
644.433	0.36
644.763	0.35
645.093	0.35
645.423	0.35
645.753	0.35
646.082	0.34
646.412	0.35
646.742	0.34
647.072	0.34
647.401	0.34
647.731	0.34
648.06	0.33
648.39	0.33
648.719	0.33
649.048	0.34
649.378	0.33
649.707	0.33
650.036	0.32
650.365	0.32
650.694	0.32
651.023	0.32
651.352	0.32
651.681	0.32
652.01	0.32
652.339	0.31
652.668	0.32
652.996	0.31
653.325	0.31
653.654	0.31
653.982	0.31
654.311	0.31
654.639	0.31
654.967	0.31
655.296	0.31
655.624	0.31
655.952	0.31
656.28	0.31
656.609	0.3
656.937	0.3
657.265	0.29
657.593	0.14
657.92	0.05
658.248	0.03
658.576	0.09
658.904	0.21
659.231	0.29
659.559	0.3
659.887	0.29
660.214	0.29
660.542	0.29
660.869	0.29
661.196	0.29
661.524	0.29
661.851	0.29
662.178	0.29
662.505	0.29
662.832	0.29
663.159	0.28
663.486	0.28
663.813	0.28
664.14	0.28
664.467	0.27
664.794	0.27
665.12	0.28
665.447	0.27
665.774	0.27
666.1	0.27
666.427	0.27
666.753	0.27
667.079	0.26
667.406	0.26
667.732	0.26
668.058	0.26
668.384	0.26
668.71	0.26
669.036	0.26
669.362	0.26
669.688	0.25
670.014	0.26
670.34	0.25
670.666	0.25
670.991	0.25
671.317	0.25
671.643	0.24
671.968	0.24
672.294	0.24
672.619	0.24
672.945	0.24
673.27	0.24
673.595	0.23
673.92	0.23
674.246	0.23
674.571	0.23
674.896	0.23
675.221	0.22
675.546	0.22
675.87	0.22
676.195	0.22
676.52	0.23
676.845	0.22
677.169	0.22
677.494	0.22
677.819	0.21
678.143	0.21
678.468	0.21
678.792	0.21
679.116	0.21
679.44	0.21
679.765	0.2
680.089	0.2
680.413	0.19
680.737	0.19
681.061	0.19
681.385	0.19
681.709	0.19
682.033	0.19
682.356	0.18
682.68	0.18
683.004	0.18
683.327	0.18
683.651	0.17
683.974	0.17
684.298	0.18
684.621	0.17
684.944	0.17
685.268	0.17
685.591	0.17
685.914	0.16
686.237	0.16
686.56	0.16
686.883	0.15
687.206	0.15
687.529	0.15
687.852	0.15
688.175	0.15
688.497	0.15
688.82	0.15
689.142	0.15
689.465	0.14
689.787	0.14
690.11	0.14
690.432	0.14
690.755	0.14
691.077	0.14
691.399	0.13
691.721	0.13
692.043	0.13
692.365	0.13
692.687	0.12
693.009	0.12
693.331	0.12
693.653	0.12
693.974	0.12
694.296	0.12
694.618	0.12
694.939	0.12
695.261	0.12
695.582	0.11
695.904	0.11
696.225	0.12
696.546	0.11
696.868	0.11
697.189	0.11
697.51	0.11
697.831	0.11
698.152	0.11
698.473	0.1
698.794	0.1
699.114	0.09
699.435	0.08
699.756	0.09
700.077	0.09
700.397	0.09
700.718	0.09
701.038	0.1
701.359	0.1
701.679	0.1
701.999	0.1
702.32	0.09
702.64	0.09
702.96	0.09
703.28	0.09
703.6	0.09
703.92	0.09
704.24	0.08
704.56	0.08
704.879	0.08
705.199	0.09
705.519	0.08
705.838	0.08
706.158	0.09
706.478	0.09
706.797	0.09
707.116	0.09
707.436	0.09
707.755	0.09
708.074	0.09
708.393	0.08
708.712	0.07
709.031	0.06
709.35	0.07
709.669	0.07
709.988	0.07
710.307	0.07
710.626	0.07
710.944	0.08
711.263	0.08
711.582	0.08
711.9	0.08
712.219	0.08
712.537	0.08
712.855	0.08
713.174	0.08
713.492	0.08
713.81	0.08
714.128	0.08
714.446	0.08
714.764	0.07
715.082	0.07
715.4	0.07
715.718	0.07
716.035	0.07
716.353	0.08
716.671	0.08
716.988	0.08
717.306	0.08
717.623	0.08
717.941	0.08
718.258	0.08
718.575	0.09
718.893	0.08
719.21	0.08
719.527	0.08
719.844	0.08
720.161	0.08
720.478	0.08
720.795	0.08
721.112	0.08
721.428	0.08
721.745	0.08
722.062	0.09
722.378	0.09
722.695	0.09
723.011	0.09
723.328	0.09
723.644	0.09
723.96	0.09
724.276	0.09
724.593	0.09
724.909	0.09
725.225	0.09
725.541	0.09
725.857	0.09
726.173	0.09
726.488	0.09
726.804	0.09
727.12	0.08
727.435	0.08
727.751	0.08
728.067	0.08
728.382	0.09
728.697	0.09
729.013	0.09
729.328	0.08
729.643	0.09
729.958	0.08
730.273	0.08
730.588	0.08
730.903	0.08
731.218	0.08
731.533	0.09
731.848	0.08
732.163	0.08
732.477	0.08
732.792	0.08
733.107	0.07
733.421	0.08
733.736	0.08
734.05	0.08
734.364	0.08
734.678	0.08
734.993	0.08
735.307	0.08
735.621	0.08
735.935	0.08
736.249	0.08
736.563	0.08
736.877	0.08
737.19	0.08
737.504	0.08
737.818	0.08
738.131	0.08
738.445	0.08
738.758	0.08
739.072	0.08
739.385	0.08
739.698	0.09
740.012	0.08
740.325	0.08
740.638	0.08
740.951	0.08
741.264	0.07
741.577	0.08
741.89	0.08
742.203	0.08
742.515	0.08
742.828	0.08
743.141	0.08
743.453	0.07
743.766	0.08
744.078	0.07
744.391	0.07
744.703	0.07
745.015	0.07
745.327	0.07
745.639	0.07
745.952	0.07
746.264	0.07
746.575	0.07
746.887	0.07
747.199	0.07
747.511	0.07
747.823	0.06
748.134	0.06
748.446	0.06
748.757	0.06
749.069	0.06
749.38	0.06
749.692	0.06
750.003	0.05
750.314	0.05
750.625	0.05
750.936	0.05
751.248	0.05
751.559	0.05
751.869	0.05
752.18	0.05
752.491	0.05
752.802	0.05
753.112	0.05
753.423	0.05
753.734	0.05
754.044	0.04
754.355	0.04
754.665	0.04
754.975	0.04
755.285	0.04
755.596	0.04
755.906	0.04
756.216	0.04
756.526	0.04
756.836	0.04
757.146	0.04
757.455	0.04
757.765	0.04
758.075	0.04
758.385	0.04
758.694	0.04
759.004	0.04
759.313	0.03
759.622	0.04
759.932	0.04
760.241	0.04
760.55	0.04
760.859	0.04
761.168	0.04
761.477	0.04
761.786	0.04
762.095	0.04
762.404	0.04
762.713	0.04
763.021	0.04
763.33	0.04
763.639	0.04
763.947	0.04
764.256	0.04
764.564	0.04
764.872	0.04
765.181	0.04
765.489	0.04
765.797	0.03
766.105	0.03
766.413	0.03
766.721	0.03
767.029	0.04
767.337	0.04
767.644	0.04
767.952	0.04
768.26	0.04
768.567	0.04
768.875	0.04
769.182	0.04
769.49	0.04
769.797	0.04
770.104	0.04
770.411	0.04
770.718	0.04
771.026	0.04
771.333	0.04
771.639	0.03
771.946	0.03
772.253	0.03
772.56	0.03
772.867	0.04
773.173	0.04
773.48	0.04
773.786	0.04
774.093	0.04
774.399	0.04
774.705	0.04
775.012	0.04
775.318	0.04
775.624	0.04
775.93	0.04
776.236	0.04
776.542	0.04
776.848	0.04
777.154	0.05
777.459	0.04
777.765	0.04
778.071	0.04
778.376	0.04
778.682	0.04
778.987	0.04
779.292	0.04
779.598	0.04
779.903	0.04
780.208	0.03
780.513	0.04
780.818	0.04
781.123	0.04
781.428	0.04
781.733	0.04
782.038	0.03
782.343	0.03
782.647	0.03
782.952	0.03
783.256	0.03
783.561	0.03
783.865	0.03
784.17	0.03
784.474	0.03
784.778	0.03
785.082	0.03
785.386	0.03
785.69	0.03
785.994	0.03
786.298	0.03
786.602	0.04
786.906	0.04
787.209	0.04
787.513	0.04
787.817	0.04
788.12	0.04
788.424	0.04
788.727	0.04
789.03	0.04
789.333	0.04
789.637	0.04
789.94	0.04
790.243	0.04
790.546	0.05
790.849	0.05
791.152	0.05
791.454	0.05
791.757	0.04
792.06	0.05
792.362	0.05
792.665	0.04
792.967	0.04
793.27	0.04
793.572	0.04
793.874	0.05
794.177	0.05
794.479	0.05
794.781	0.05
795.083	0.05
795.385	0.05
795.687	0.05
795.989	0.05
796.29	0.05
796.592	0.05
796.894	0.05
797.195	0.05
797.497	0.05
797.798	0.05
798.1	0.05
798.401	0.05
798.702	0.05
799.003	0.05
799.304	0.05
799.605	0.05
799.906	0.04
800.207	0.04
800.508	0.04
800.809	0.05
801.11	0.05
801.41	0.05
801.711	0.05
802.011	0.05
802.312	0.05
802.612	0.05
802.913	0.05
803.213	0.05
803.513	0.05
803.813	0.05
804.113	0.05
804.413	0.05
804.713	0.06
805.013	0.06
805.313	0.06
805.613	0.06
805.912	0.06
806.212	0.06
806.511	0.06
806.811	0.06
807.11	0.05
807.41	0.06
807.709	0.05
808.008	0.06
808.307	0.06
808.606	0.06
808.905	0.06
809.204	0.06
809.503	0.06
809.802	0.06
810.101	0.06
810.399	0.06
810.698	0.06
810.997	0.06
811.295	0.06
811.593	0.06
811.892	0.06
812.19	0.06
812.488	0.06
812.786	0.06
813.084	0.06
813.383	0.06
813.68	0.06
813.978	0.06
814.276	0.06
814.574	0.06
814.872	0.06
815.169	0.06
815.467	0.06
815.764	0.06
816.062	0.05
816.359	0.06
816.656	0.05
816.954	0.06
817.251	0.06
817.548	0.07
817.845	0.07
818.142	0.07
818.439	0.07
818.735	0.07
819.032	0.07
819.329	0.07
819.626	0.07
819.922	0.07
820.219	0.07
820.515	0.08
820.811	0.08
821.108	0.08
821.404	0.07
821.7	0.07
821.996	0.07
822.292	0.07
822.588	0.08
822.884	0.08
823.18	0.09
823.475	0.09
823.771	0.09
824.067	0.08
824.362	0.08
824.658	0.08
824.953	0.08
825.249	0.07
825.544	0.08
825.839	0.08
826.134	0.07
826.429	0.08
826.724	0.08
827.019	0.08
827.314	0.08
827.609	0.09
827.904	0.08
828.198	0.08
828.493	0.08
828.787	0.08
829.082	0.08
829.376	0.09
829.671	0.09
829.965	0.09
830.259	0.09
830.553	0.1
830.847	0.09
831.141	0.09
831.435	0.09
831.729	0.1
832.023	0.09
832.317	0.1
832.61	0.09
832.904	0.1
833.197	0.09
833.491	0.09
833.784	0.1
834.077	0.1
834.371	0.1
834.664	0.1
834.957	0.1
835.25	0.09
835.543	0.1
835.836	0.1
836.129	0.1
836.421	0.1
836.714	0.09
837.007	0.1
837.299	0.1
837.592	0.09
837.884	0.11
838.177	0.1
838.469	0.1
838.761	0.1
839.053	0.1
839.345	0.11
839.637	0.09
839.929	0.1
840.221	0.1
840.513	0.1
840.805	0.1
841.096	0.1
841.388	0.1
841.68	0.1
841.971	0.1
842.262	0.1
842.554	0.11
842.845	0.1
843.136	0.1
843.427	0.11
843.718	0.11
844.009	0.11
844.3	0.1
844.591	0.1
844.882	0.1
845.173	0.11
845.463	0.11
845.754	0.11
846.044	0.1
846.335	0.11
846.625	0.11
846.915	0.1
847.206	0.1
847.496	0.11
847.786	0.11
848.076	0.1
848.366	0.11
848.656	0.1
848.945	0.11
849.235	0.1
849.525	0.09
849.814	0.1
850.104	0.09
850.393	0.1
850.683	0.12
850.972	0.11
851.261	0.11
851.551	0.13
851.84	0.12
852.129	0.12
852.418	0.11
852.707	0.12
852.995	0.11
853.284	0.11
853.573	0.11
853.862	0.1
854.15	0.11
854.439	0.11
854.727	0.1
855.015	0.12
855.304	0.11
855.592	0.12
855.88	0.11
856.168	0.12
856.456	0.11
856.744	0.11
857.032	0.1
857.32	0.1
857.607	0.1
857.895	0.11
858.183	0.13
858.47	0.11
858.757	0.1
859.045	0.12
859.332	0.13
859.619	0.12
859.907	0.12
860.194	0.1
860.481	0.13
860.768	0.12
861.054	0.12
861.341	0.11
861.628	0.12
861.915	0.11
862.201	0.11
862.488	0.12
862.774	0.1
863.061	0.13
863.347	0.11
863.633	0.12
863.919	0.13
864.205	0.11
864.491	0.12
864.777	0.13
865.063	0.1
865.349	0.14
865.635	0.13
865.92	0.13
866.206	0.12
866.492	0.1
866.777	0.13
867.062	0.14
867.348	0.11
867.633	0.13
867.918	0.14
868.203	0.12
868.488	0.12
868.773	0.14
869.058	0.15
869.343	0.1
869.628	0.11
869.912	0.11
870.197	0.09
870.482	0.1
870.766	0.17
871.05	0.11
871.335	0.13
871.619	0.1
871.903	0.12
872.187	0.09
872.471	0.15
872.755	0.17
873.039	0.1
873.323	0.16
873.607	0.14
873.89	0.13
874.174	0.13
874.458	0.11
874.741	0.04
875.024	0.12
875.308	0.15
875.591	0.12
875.874	0.11
876.157	0.04
876.44	0.04
876.723	0.1
877.006	0.04
877.289	0.06
877.572	0.11
877.854	0.08
878.137	0.06
878.42	0.1
878.702	0.18
878.984	0.13
879.267	0.17
879.549	0.08
879.831	-0
880.113	0.05
880.395	-0
880.677	0.05
880.959	0.11
