Data from Rubpy_BV_1800_EDTA_Buffered_Absorbance_15-17-05-590.txt Node
Date: Wed Jul 01 15:17:05 BST 2026
User: fpm-admin
Spectrometer: OFX00224
Trigger mode: 0
Integration Time (sec): 7.000000E-2
Scans to average: 3
Nonlinearity correction enabled: false
Boxcar width: 0
Storing dark spectrum: false
XAxis mode: Wavelengths
Number of Pixels in Spectrum: 2136
>>>>>Begin Spectral Data<<<<<
154.91	-0.5
155.289	-0
155.669	-1.01
156.048	-0
156.428	-0
156.807	-0
157.186	0.3
157.566	-0.11
157.945	-0.14
158.325	-0
158.704	0.51
159.083	-0.45
159.462	-0
159.842	-0.79
160.221	-0
160.6	0.41
160.979	-0
161.359	-0
161.738	-0.03
162.117	-0.31
162.496	0.23
162.875	-0
163.254	0.73
163.633	-0
164.012	-0
164.391	-0.93
164.77	-0
165.149	-0.4
165.528	-1.32
165.907	-0
166.286	0.13
166.665	-0.02
167.044	0.91
167.423	0.87
167.802	-0
168.181	-0
168.559	-1
168.938	-0.74
169.317	-0
169.696	-0
170.074	-0.17
170.453	-0
170.832	-0.46
171.21	0.3
171.589	-0
171.968	-0
172.346	-0
172.725	0.35
173.103	1.41
173.482	0.88
173.861	-0
174.239	0.58
174.617	-0
174.996	0.29
175.374	-0.19
175.753	0.67
176.131	-0
176.51	-0.1
176.888	-0
177.266	-0
177.645	-0.05
178.023	1.27
178.401	0.02
178.779	-0.36
179.158	-1.36
179.536	-0.37
179.914	-0.51
180.292	0.6
180.67	0.28
181.048	-0.22
181.427	-0
181.805	-0
182.183	-0
182.561	-0
182.939	-0.36
183.317	-0
183.695	-0
184.073	0.02
184.451	-0
184.829	-0
185.206	-0
185.584	-0
185.962	-0
186.34	0.44
186.718	-0
187.096	-0
187.473	0.49
187.851	-0
188.229	-0
188.607	0.29
188.984	0.4
189.362	0.43
189.74	0.33
190.117	0.22
190.495	0.29
190.872	0.35
191.25	0.38
191.627	0.4
192.005	0.17
192.382	0.17
192.76	0.29
193.137	0.41
193.515	0.45
193.892	0.5
194.269	0.31
194.647	0.3
195.024	0.26
195.401	0.32
195.779	0.48
196.156	0.35
196.533	0.35
196.91	0.31
197.288	0.35
197.665	0.3
198.042	0.28
198.419	0.31
198.796	0.16
199.173	0.26
199.55	0.27
199.927	0.26
200.304	0.43
200.681	0.42
201.058	0.32
201.435	0.34
201.812	0.31
202.189	0.49
202.566	0.31
202.943	0.29
203.32	0.32
203.697	0.33
204.073	0.29
204.45	0.31
204.827	0.31
205.204	0.26
205.58	0.37
205.957	0.42
206.334	0.43
206.71	0.32
207.087	0.46
207.464	0.36
207.84	0.3
208.217	0.3
208.593	0.34
208.97	0.47
209.346	0.28
209.723	0.34
210.099	0.44
210.476	0.37
210.852	0.2
211.228	0.35
211.605	0.32
211.981	0.35
212.357	0.37
212.733	0.35
213.11	0.29
213.486	0.3
213.862	0.49
214.238	0.47
214.614	0.34
214.991	0.42
215.367	0.52
215.743	0.23
216.119	0.44
216.495	0.29
216.871	0.32
217.247	0.35
217.623	0.26
217.999	0.32
218.375	0.36
218.751	0.47
219.127	0.38
219.502	0.35
219.878	0.36
220.254	0.3
220.63	0.4
221.006	0.49
221.381	0.33
221.757	0.26
222.133	0.39
222.508	0.28
222.884	0.19
223.26	0.29
223.635	0.49
224.011	0.65
224.386	0.28
224.762	0.32
225.137	0.42
225.513	0.37
225.888	0.38
226.264	0.25
226.639	0.39
227.014	0.18
227.39	0.45
227.765	0.41
228.14	0.51
228.516	0.47
228.891	0.35
229.266	0.41
229.641	0.32
230.017	0.34
230.392	0.23
230.767	0.25
231.142	0.32
231.517	0.32
231.892	0.45
232.267	0.41
232.642	0.47
233.017	0.38
233.392	0.23
233.767	0.43
234.142	0.28
234.517	0.39
234.892	0.26
235.267	0.31
235.641	0.39
236.016	0.31
236.391	0.33
236.766	0.37
237.14	0.41
237.515	0.37
237.89	0.29
238.264	0.29
238.639	0.32
239.014	0.36
239.388	0.36
239.763	0.51
240.137	0.3
240.512	0.39
240.886	0.45
241.261	0.3
241.635	0.22
242.009	0.32
242.384	0.3
242.758	0.34
243.132	0.29
243.507	0.42
243.881	0.32
244.255	0.31
244.629	0.5
245.004	0.41
245.378	0.35
245.752	0.44
246.126	0.39
246.5	0.34
246.874	0.36
247.248	0.35
247.622	0.49
247.996	0.51
248.37	0.2
248.744	0.47
249.118	0.32
249.492	0.39
249.866	0.47
250.24	0.37
250.613	0.44
250.987	0.36
251.361	0.44
251.735	0.33
252.108	0.33
252.482	0.31
252.856	0.33
253.229	0.37
253.603	0.3
253.977	0.42
254.35	0.3
254.724	0.44
255.097	0.29
255.471	0.31
255.844	0.45
256.218	0.34
256.591	0.38
256.964	0.34
257.338	0.41
257.711	0.22
258.084	0.25
258.458	0.45
258.831	0.49
259.204	0.44
259.577	0.36
259.95	0.31
260.323	0.28
260.697	0.55
261.07	0.38
261.443	0.27
261.816	0.31
262.189	0.49
262.562	0.41
262.935	0.38
263.308	0.35
263.68	0.45
264.053	0.47
264.426	0.36
264.799	0.3
265.172	0.44
265.545	0.35
265.917	0.4
266.29	0.35
266.663	0.52
267.035	0.29
267.408	0.4
267.781	0.4
268.153	0.31
268.526	0.33
268.898	0.3
269.271	0.31
269.643	0.37
270.016	0.28
270.388	0.4
270.76	0.43
271.133	0.33
271.505	0.36
271.877	0.38
272.25	0.4
272.622	0.3
272.994	0.43
273.366	0.32
273.739	0.34
274.111	0.31
274.483	0.39
274.855	0.36
275.227	0.37
275.599	0.36
275.971	0.45
276.343	0.31
276.715	0.36
277.087	0.43
277.459	0.3
277.831	0.5
278.203	0.38
278.574	0.48
278.946	0.36
279.318	0.42
279.69	0.36
280.061	0.38
280.433	0.42
280.805	0.4
281.176	0.2
281.548	0.46
281.92	0.4
282.291	0.35
282.663	0.45
283.034	0.36
283.406	0.32
283.777	0.37
284.148	0.34
284.52	0.51
284.891	0.34
285.262	0.33
285.634	0.45
286.005	0.46
286.376	0.43
286.747	0.43
287.119	0.4
287.49	0.37
287.861	0.27
288.232	0.31
288.603	0.4
288.974	0.35
289.345	0.34
289.716	0.34
290.087	0.36
290.458	0.32
290.829	0.24
291.2	0.38
291.571	0.29
291.941	0.45
292.312	0.47
292.683	0.47
293.054	0.36
293.424	0.49
293.795	0.29
294.166	0.42
294.536	0.4
294.907	0.44
295.277	0.39
295.648	0.36
296.018	0.33
296.389	0.42
296.759	0.3
297.13	0.4
297.5	0.33
297.871	0.37
298.241	0.39
298.611	0.41
298.981	0.38
299.352	0.34
299.722	0.48
300.092	0.39
300.462	0.28
300.832	0.42
301.202	0.46
301.573	0.38
301.943	0.41
302.313	0.35
302.683	0.38
303.053	0.39
303.422	0.41
303.792	0.4
304.162	0.41
304.532	0.41
304.902	0.36
305.272	0.45
305.641	0.34
306.011	0.38
306.381	0.35
306.75	0.3
307.12	0.33
307.49	0.35
307.859	0.34
308.229	0.34
308.598	0.37
308.968	0.33
309.337	0.32
309.707	0.29
310.076	0.34
310.445	0.32
310.815	0.28
311.184	0.29
311.553	0.28
311.923	0.29
312.292	0.32
312.661	0.33
313.03	0.29
313.399	0.27
313.768	0.31
314.137	0.31
314.506	0.33
314.875	0.3
315.244	0.34
315.613	0.31
315.982	0.35
316.351	0.34
316.72	0.35
317.089	0.33
317.458	0.34
317.826	0.35
318.195	0.36
318.564	0.37
318.933	0.35
319.301	0.38
319.67	0.38
320.038	0.38
320.407	0.4
320.775	0.39
321.144	0.41
321.512	0.42
321.881	0.4
322.249	0.4
322.618	0.41
322.986	0.44
323.354	0.43
323.723	0.46
324.091	0.44
324.459	0.46
324.827	0.45
325.195	0.46
325.564	0.47
325.932	0.49
326.3	0.49
326.668	0.5
327.036	0.5
327.404	0.5
327.772	0.51
328.14	0.53
328.508	0.52
328.875	0.53
329.243	0.56
329.611	0.55
329.979	0.55
330.346	0.58
330.714	0.58
331.082	0.58
331.449	0.6
331.817	0.59
332.185	0.62
332.552	0.63
332.92	0.64
333.287	0.65
333.655	0.66
334.022	0.66
334.389	0.7
334.757	0.7
335.124	0.71
335.491	0.73
335.859	0.76
336.226	0.77
336.593	0.77
336.96	0.79
337.327	0.8
337.695	0.81
338.062	0.82
338.429	0.85
338.796	0.86
339.163	0.88
339.53	0.89
339.897	0.9
340.263	0.91
340.63	0.94
340.997	0.96
341.364	0.97
341.731	0.98
342.097	1.01
342.464	1.02
342.831	1.03
343.197	1.05
343.564	1.08
343.931	1.07
344.297	1.11
344.664	1.12
345.03	1.13
345.396	1.14
345.763	1.17
346.129	1.19
346.496	1.19
346.862	1.21
347.228	1.23
347.594	1.25
347.961	1.26
348.327	1.28
348.693	1.29
349.059	1.32
349.425	1.33
349.791	1.34
350.157	1.35
350.523	1.37
350.889	1.36
351.255	1.36
351.621	1.39
351.987	1.39
352.353	1.43
352.719	1.44
353.084	1.46
353.45	1.49
353.816	1.49
354.181	1.51
354.547	1.57
354.913	1.53
355.278	1.56
355.644	1.59
356.009	1.61
356.375	1.62
356.74	1.63
357.106	1.64
357.471	1.65
357.836	1.66
358.202	1.7
358.567	1.69
358.932	1.72
359.297	1.72
359.663	1.76
360.028	1.78
360.393	1.8
360.758	1.81
361.123	1.79
361.488	1.84
361.853	1.86
362.218	1.87
362.583	1.89
362.948	1.88
363.312	1.98
363.677	1.93
364.042	1.93
364.407	1.9
364.772	1.96
365.136	1.95
365.501	2
365.865	2.01
366.23	1.95
366.595	2.01
366.959	2.05
367.324	2
367.688	2.02
368.052	1.97
368.417	2.06
368.781	2.1
369.145	2
369.51	2.06
369.874	2
370.238	2.08
370.602	2.06
370.967	2.06
371.331	2.05
371.695	2.06
372.059	2.06
372.423	2.04
372.787	2.15
373.151	2.05
373.515	2.06
373.878	2.03
374.242	2.13
374.606	2.07
374.97	2.12
375.334	2.13
375.697	2
376.061	2.03
376.425	1.98
376.788	2
377.152	1.99
377.515	1.99
377.879	1.98
378.242	1.97
378.606	1.97
378.969	1.94
379.333	1.96
379.696	1.86
380.059	1.96
380.422	1.92
380.786	1.91
381.149	1.88
381.512	1.84
381.875	1.79
382.238	1.8
382.601	1.78
382.964	1.8
383.327	1.78
383.69	1.74
384.053	1.72
384.416	1.68
384.779	1.69
385.142	1.66
385.504	1.65
385.867	1.61
386.23	1.65
386.593	1.62
386.955	1.61
387.318	1.59
387.68	1.58
388.043	1.58
388.405	1.58
388.768	1.58
389.13	1.55
389.493	1.54
389.855	1.53
390.217	1.52
390.58	1.52
390.942	1.49
391.304	1.49
391.666	1.45
392.028	1.44
392.391	1.42
392.753	1.4
393.115	1.39
393.477	1.36
393.839	1.35
394.201	1.32
394.563	1.33
394.924	1.33
395.286	1.32
395.648	1.33
396.01	1.32
396.371	1.33
396.733	1.35
397.095	1.37
397.456	1.37
397.818	1.38
398.18	1.43
398.541	1.43
398.903	1.5
399.264	1.51
399.625	1.53
399.987	1.56
400.348	1.57
400.709	1.6
401.071	1.59
401.432	1.56
401.793	1.58
402.154	1.57
402.515	1.57
402.876	1.53
403.238	1.51
403.599	1.46
403.96	1.42
404.32	1.39
404.681	1.35
405.042	1.29
405.403	1.24
405.764	1.18
406.125	1.13
406.485	1.07
406.846	1.03
407.207	0.98
407.567	0.94
407.928	0.89
408.288	0.83
408.649	0.8
409.009	0.76
409.37	0.72
409.73	0.68
410.091	0.65
410.451	0.61
410.811	0.58
411.171	0.56
411.532	0.52
411.892	0.51
412.252	0.49
412.612	0.46
412.972	0.44
413.332	0.42
413.692	0.41
414.052	0.39
414.412	0.38
414.772	0.37
415.132	0.35
415.492	0.35
415.851	0.33
416.211	0.31
416.571	0.31
416.931	0.3
417.29	0.29
417.65	0.28
418.009	0.28
418.369	0.28
418.728	0.27
419.088	0.26
419.447	0.26
419.807	0.25
420.166	0.25
420.525	0.24
420.884	0.24
421.244	0.23
421.603	0.23
421.962	0.22
422.321	0.22
422.68	0.22
423.039	0.21
423.398	0.2
423.757	0.21
424.116	0.21
424.475	0.2
424.834	0.2
425.193	0.2
425.551	0.2
425.91	0.19
426.269	0.19
426.628	0.18
426.986	0.19
427.345	0.19
427.703	0.19
428.062	0.18
428.42	0.19
428.779	0.19
429.137	0.18
429.496	0.18
429.854	0.17
430.212	0.18
430.57	0.18
430.929	0.17
431.287	0.17
431.645	0.17
432.003	0.17
432.361	0.17
432.719	0.18
433.077	0.17
433.435	0.17
433.793	0.17
434.151	0.17
434.509	0.17
434.866	0.17
435.224	0.17
435.582	0.17
435.94	0.17
436.297	0.18
436.655	0.17
437.012	0.17
437.37	0.17
437.727	0.17
438.085	0.18
438.442	0.17
438.8	0.17
439.157	0.17
439.514	0.18
439.872	0.18
440.229	0.17
440.586	0.17
440.943	0.18
441.3	0.17
441.657	0.18
442.014	0.17
442.371	0.17
442.728	0.17
443.085	0.18
443.442	0.17
443.799	0.18
444.156	0.18
444.513	0.18
444.869	0.17
445.226	0.19
445.583	0.18
445.939	0.19
446.296	0.18
446.652	0.18
447.009	0.19
447.365	0.18
447.722	0.19
448.078	0.18
448.434	0.19
448.791	0.19
449.147	0.19
449.503	0.19
449.859	0.19
450.215	0.18
450.571	0.19
450.928	0.19
451.284	0.19
451.64	0.19
451.995	0.19
452.351	0.19
452.707	0.19
453.063	0.18
453.419	0.18
453.775	0.18
454.13	0.19
454.486	0.19
454.842	0.18
455.197	0.18
455.553	0.18
455.908	0.18
456.264	0.18
456.619	0.18
456.975	0.18
457.33	0.18
457.685	0.18
458.04	0.18
458.396	0.17
458.751	0.17
459.106	0.16
459.461	0.17
459.816	0.16
460.171	0.16
460.526	0.17
460.881	0.14
461.236	0.14
461.591	0.15
461.946	0.14
462.301	0.14
462.655	0.14
463.01	0.15
463.365	0.14
463.719	0.13
464.074	0.13
464.428	0.12
464.783	0.11
465.137	0.12
465.492	0.12
465.846	0.12
466.201	0.12
466.555	0.13
466.909	0.13
467.263	0.14
467.618	0.14
467.972	0.14
468.326	0.14
468.68	0.13
469.034	0.13
469.388	0.12
469.742	0.13
470.096	0.14
470.45	0.14
470.804	0.14
471.157	0.14
471.511	0.15
471.865	0.14
472.218	0.15
472.572	0.17
472.926	0.17
473.279	0.18
473.633	0.19
473.986	0.2
474.34	0.2
474.693	0.21
475.046	0.22
475.4	0.24
475.753	0.25
476.106	0.26
476.459	0.26
476.812	0.27
477.165	0.29
477.519	0.3
477.872	0.31
478.224	0.31
478.577	0.32
478.93	0.33
479.283	0.33
479.636	0.34
479.989	0.35
480.341	0.36
480.694	0.37
481.047	0.38
481.399	0.39
481.752	0.4
482.104	0.4
482.457	0.41
482.809	0.41
483.162	0.43
483.514	0.43
483.866	0.44
484.219	0.45
484.571	0.45
484.923	0.45
485.275	0.47
485.627	0.47
485.979	0.47
486.331	0.48
486.683	0.49
487.035	0.49
487.387	0.5
487.739	0.52
488.091	0.52
488.443	0.52
488.794	0.53
489.146	0.53
489.498	0.54
489.849	0.55
490.201	0.55
490.552	0.55
490.904	0.56
491.255	0.57
491.607	0.57
491.958	0.58
492.309	0.58
492.661	0.58
493.012	0.6
493.363	0.6
493.714	0.6
494.065	0.61
494.416	0.61
494.767	0.62
495.118	0.62
495.469	0.63
495.82	0.63
496.171	0.64
496.522	0.65
496.872	0.65
497.223	0.66
497.574	0.65
497.924	0.67
498.275	0.67
498.626	0.68
498.976	0.69
499.327	0.69
499.677	0.69
500.027	0.7
500.378	0.7
500.728	0.7
501.078	0.71
501.428	0.72
501.779	0.73
502.129	0.73
502.479	0.72
502.829	0.75
503.179	0.75
503.529	0.75
503.879	0.76
504.229	0.76
504.578	0.76
504.928	0.77
505.278	0.78
505.628	0.79
505.977	0.79
506.327	0.79
506.676	0.8
507.026	0.81
507.375	0.81
507.725	0.8
508.074	0.82
508.424	0.82
508.773	0.82
509.122	0.83
509.471	0.84
509.82	0.84
510.17	0.85
510.519	0.84
510.868	0.85
511.217	0.85
511.566	0.86
511.915	0.86
512.263	0.87
512.612	0.88
512.961	0.88
513.31	0.88
513.659	0.89
514.007	0.9
514.356	0.89
514.704	0.91
515.053	0.9
515.401	0.91
515.75	0.91
516.098	0.92
516.447	0.93
516.795	0.92
517.143	0.93
517.491	0.93
517.839	0.93
518.188	0.93
518.536	0.95
518.884	0.94
519.232	0.95
519.58	0.96
519.928	0.96
520.275	0.96
520.623	0.97
520.971	0.97
521.319	0.98
521.666	0.98
522.014	0.97
522.362	0.98
522.709	0.99
523.057	0.98
523.404	0.99
523.752	0.99
524.099	1
524.446	1.01
524.794	1
525.141	1.01
525.488	1.01
525.835	1.02
526.182	1.02
526.529	1.02
526.876	1.03
527.223	1.02
527.57	1.03
527.917	1.04
528.264	1.02
528.611	1.03
528.958	1.04
529.304	1.05
529.651	1.04
529.998	1.05
530.344	1.05
530.691	1.05
531.037	1.06
531.384	1.07
531.73	1.06
532.076	1.06
532.423	1.06
532.769	1.06
533.115	1.06
533.461	1.06
533.807	1.07
534.154	1.08
534.5	1.07
534.846	1.08
535.192	1.09
535.537	1.08
535.883	1.09
536.229	1.09
536.575	1.09
536.921	1.09
537.266	1.09
537.612	1.09
537.957	1.09
538.303	1.1
538.649	1.09
538.994	1.11
539.339	1.1
539.685	1.1
540.03	1.11
540.375	1.11
540.721	1.11
541.066	1.1
541.411	1.11
541.756	1.12
542.101	1.11
542.446	1.11
542.791	1.12
543.136	1.11
543.481	1.12
543.825	1.12
544.17	1.11
544.515	1.12
544.86	1.12
545.204	1.13
545.549	1.12
545.893	1.11
546.238	1.13
546.582	1.13
546.927	1.13
547.271	1.12
547.615	1.13
547.96	1.12
548.304	1.13
548.648	1.13
548.992	1.13
549.336	1.12
549.68	1.13
550.024	1.14
550.368	1.12
550.712	1.13
551.056	1.13
551.4	1.13
551.743	1.13
552.087	1.12
552.431	1.12
552.774	1.12
553.118	1.12
553.462	1.13
553.805	1.12
554.148	1.12
554.492	1.12
554.835	1.13
555.178	1.12
555.522	1.13
555.865	1.12
556.208	1.13
556.551	1.12
556.894	1.13
557.237	1.12
557.58	1.12
557.923	1.12
558.266	1.11
558.609	1.11
558.952	1.12
559.294	1.12
559.637	1.11
559.98	1.12
560.322	1.12
560.665	1.1
561.007	1.1
561.35	1.1
561.692	1.1
562.034	1.1
562.377	1.1
562.719	1.1
563.061	1.1
563.403	1.11
563.745	1.09
564.088	1.1
564.43	1.09
564.772	1.1
565.113	1.09
565.455	1.09
565.797	1.09
566.139	1.09
566.481	1.08
566.822	1.08
567.164	1.08
567.506	1.08
567.847	1.08
568.189	1.08
568.53	1.08
568.872	1.07
569.213	1.07
569.554	1.07
569.895	1.06
570.237	1.07
570.578	1.06
570.919	1.05
571.26	1.06
571.601	1.06
571.942	1.06
572.283	1.06
572.624	1.05
572.965	1.04
573.306	1.04
573.646	1.04
573.987	1.04
574.328	1.03
574.668	1.04
575.009	1.03
575.349	1.03
575.69	1.02
576.03	1.02
576.37	1.02
576.711	1.01
577.051	1.02
577.391	1.02
577.731	1.01
578.072	1.02
578.412	1.01
578.752	1.01
579.092	1
579.431	0.98
579.771	0.97
580.111	0.96
580.451	0.98
580.791	1
581.13	0.99
581.47	0.99
581.81	0.99
582.149	0.98
582.489	0.98
582.828	0.96
583.167	0.93
583.507	0.9
583.846	0.9
584.185	0.94
584.525	0.96
584.864	0.97
585.203	0.98
585.542	0.97
585.881	0.97
586.22	0.97
586.559	0.96
586.898	0.95
587.236	0.94
587.575	0.95
587.914	0.95
588.252	0.96
588.591	0.96
588.93	0.95
589.268	0.95
589.607	0.95
589.945	0.95
590.283	0.95
590.622	0.95
590.96	0.95
591.298	0.95
591.636	0.95
591.974	0.95
592.313	0.96
592.651	0.95
592.989	0.95
593.326	0.95
593.664	0.95
594.002	0.95
594.34	0.94
594.678	0.94
595.015	0.94
595.353	0.93
595.691	0.94
596.028	0.94
596.366	0.94
596.703	0.94
597.04	0.95
597.378	0.94
597.715	0.94
598.052	0.94
598.389	0.94
598.726	0.94
599.064	0.94
599.401	0.93
599.738	0.94
600.074	0.93
600.411	0.93
600.748	0.93
601.085	0.92
601.422	0.92
601.758	0.92
602.095	0.92
602.432	0.92
602.768	0.92
603.105	0.92
603.441	0.92
603.777	0.92
604.114	0.92
604.45	0.91
604.786	0.91
605.122	0.91
605.459	0.91
605.795	0.9
606.131	0.9
606.467	0.9
606.803	0.9
607.139	0.9
607.474	0.9
607.81	0.89
608.146	0.89
608.482	0.89
608.817	0.88
609.153	0.88
609.488	0.87
609.824	0.88
610.159	0.87
610.495	0.87
610.83	0.87
611.165	0.86
611.5	0.87
611.836	0.85
612.171	0.85
612.506	0.86
612.841	0.85
613.176	0.85
613.511	0.84
613.845	0.84
614.18	0.84
614.515	0.84
614.85	0.84
615.184	0.84
615.519	0.83
615.854	0.83
616.188	0.82
616.523	0.82
616.857	0.81
617.191	0.82
617.526	0.81
617.86	0.81
618.194	0.81
618.528	0.81
618.862	0.81
619.196	0.8
619.53	0.8
619.864	0.8
620.198	0.79
620.532	0.79
620.866	0.79
621.2	0.78
621.533	0.78
621.867	0.78
622.201	0.77
622.534	0.77
622.868	0.76
623.201	0.76
623.534	0.76
623.868	0.75
624.201	0.75
624.534	0.75
624.868	0.75
625.201	0.74
625.534	0.75
625.867	0.74
626.2	0.73
626.533	0.73
626.865	0.73
627.198	0.73
627.531	0.73
627.864	0.72
628.196	0.71
628.529	0.71
628.862	0.71
629.194	0.71
629.527	0.7
629.859	0.7
630.191	0.7
630.524	0.69
630.856	0.68
631.188	0.68
631.52	0.67
631.852	0.67
632.184	0.67
632.516	0.66
632.848	0.65
633.18	0.65
633.512	0.65
633.844	0.65
634.175	0.64
634.507	0.64
634.839	0.63
635.17	0.63
635.502	0.63
635.833	0.62
636.165	0.62
636.496	0.61
636.827	0.61
637.159	0.61
637.49	0.61
637.821	0.6
638.152	0.6
638.483	0.59
638.814	0.59
639.145	0.59
639.476	0.58
639.807	0.58
640.137	0.57
640.468	0.57
640.799	0.57
641.129	0.56
641.46	0.55
641.791	0.55
642.121	0.55
642.451	0.55
642.782	0.54
643.112	0.54
643.442	0.54
643.773	0.53
644.103	0.53
644.433	0.53
644.763	0.53
645.093	0.52
645.423	0.52
645.753	0.52
646.082	0.51
646.412	0.51
646.742	0.51
647.072	0.51
647.401	0.51
647.731	0.51
648.06	0.5
648.39	0.5
648.719	0.51
649.048	0.5
649.378	0.5
649.707	0.49
650.036	0.49
650.365	0.48
650.694	0.48
651.023	0.48
651.352	0.48
651.681	0.48
652.01	0.48
652.339	0.47
652.668	0.47
652.996	0.47
653.325	0.47
653.654	0.47
653.982	0.47
654.311	0.47
654.639	0.46
654.967	0.46
655.296	0.46
655.624	0.46
655.952	0.46
656.28	0.46
656.609	0.45
656.937	0.45
657.265	0.43
657.593	0.27
657.92	0.18
658.248	0.16
658.576	0.23
658.904	0.36
659.231	0.43
659.559	0.44
659.887	0.44
660.214	0.43
660.542	0.43
660.869	0.43
661.196	0.43
661.524	0.43
661.851	0.42
662.178	0.42
662.505	0.42
662.832	0.42
663.159	0.42
663.486	0.42
663.813	0.42
664.14	0.41
664.467	0.41
664.794	0.41
665.12	0.41
665.447	0.41
665.774	0.41
666.1	0.4
666.427	0.4
666.753	0.4
667.079	0.39
667.406	0.39
667.732	0.39
668.058	0.39
668.384	0.39
668.71	0.39
669.036	0.38
669.362	0.38
669.688	0.38
670.014	0.38
670.34	0.37
670.666	0.37
670.991	0.37
671.317	0.37
671.643	0.36
671.968	0.36
672.294	0.36
672.619	0.36
672.945	0.35
673.27	0.35
673.595	0.34
673.92	0.34
674.246	0.34
674.571	0.34
674.896	0.34
675.221	0.33
675.546	0.33
675.87	0.33
676.195	0.32
676.52	0.33
676.845	0.32
677.169	0.32
677.494	0.32
677.819	0.32
678.143	0.31
678.468	0.31
678.792	0.31
679.116	0.3
679.44	0.3
679.765	0.3
680.089	0.29
680.413	0.29
680.737	0.29
681.061	0.28
681.385	0.28
681.709	0.28
682.033	0.27
682.356	0.27
682.68	0.27
683.004	0.27
683.327	0.26
683.651	0.26
683.974	0.26
684.298	0.26
684.621	0.26
684.944	0.25
685.268	0.25
685.591	0.25
685.914	0.24
686.237	0.24
686.56	0.24
686.883	0.23
687.206	0.23
687.529	0.23
687.852	0.22
688.175	0.22
688.497	0.22
688.82	0.22
689.142	0.22
689.465	0.21
689.787	0.21
690.11	0.21
690.432	0.21
690.755	0.21
691.077	0.2
691.399	0.2
691.721	0.2
692.043	0.19
692.365	0.19
692.687	0.19
693.009	0.18
693.331	0.18
693.653	0.18
693.974	0.18
694.296	0.18
694.618	0.17
694.939	0.17
695.261	0.17
695.582	0.17
695.904	0.17
696.225	0.17
696.546	0.17
696.868	0.17
697.189	0.16
697.51	0.16
697.831	0.16
698.152	0.16
698.473	0.15
698.794	0.15
699.114	0.14
699.435	0.14
699.756	0.14
700.077	0.14
700.397	0.14
700.718	0.14
701.038	0.14
701.359	0.15
701.679	0.15
701.999	0.14
702.32	0.14
702.64	0.14
702.96	0.14
703.28	0.14
703.6	0.14
703.92	0.13
704.24	0.13
704.56	0.13
704.879	0.13
705.199	0.13
705.519	0.13
705.838	0.13
706.158	0.13
706.478	0.13
706.797	0.13
707.116	0.13
707.436	0.13
707.755	0.13
708.074	0.13
708.393	0.12
708.712	0.12
709.031	0.11
709.35	0.11
709.669	0.11
709.988	0.11
710.307	0.11
710.626	0.12
710.944	0.12
711.263	0.12
711.582	0.12
711.9	0.12
712.219	0.12
712.537	0.12
712.855	0.12
713.174	0.12
713.492	0.12
713.81	0.12
714.128	0.12
714.446	0.12
714.764	0.12
715.082	0.11
715.4	0.11
715.718	0.11
716.035	0.12
716.353	0.12
716.671	0.12
716.988	0.12
717.306	0.12
717.623	0.12
717.941	0.13
718.258	0.13
718.575	0.13
718.893	0.13
719.21	0.12
719.527	0.12
719.844	0.12
720.161	0.12
720.478	0.12
720.795	0.12
721.112	0.13
721.428	0.13
721.745	0.13
722.062	0.13
722.378	0.13
722.695	0.13
723.011	0.13
723.328	0.13
723.644	0.13
723.96	0.13
724.276	0.13
724.593	0.13
724.909	0.13
725.225	0.13
725.541	0.13
725.857	0.13
726.173	0.13
726.488	0.13
726.804	0.12
727.12	0.12
727.435	0.12
727.751	0.12
728.067	0.12
728.382	0.13
728.697	0.13
729.013	0.13
729.328	0.12
729.643	0.12
729.958	0.12
730.273	0.12
730.588	0.12
730.903	0.12
731.218	0.12
731.533	0.12
731.848	0.12
732.163	0.12
732.477	0.12
732.792	0.12
733.107	0.11
733.421	0.12
733.736	0.12
734.05	0.12
734.364	0.12
734.678	0.12
734.993	0.12
735.307	0.12
735.621	0.11
735.935	0.11
736.249	0.11
736.563	0.11
736.877	0.12
737.19	0.12
737.504	0.12
737.818	0.11
738.131	0.12
738.445	0.12
738.758	0.12
739.072	0.12
739.385	0.12
739.698	0.12
740.012	0.12
740.325	0.12
740.638	0.11
740.951	0.12
741.264	0.11
741.577	0.11
741.89	0.11
742.203	0.11
742.515	0.11
742.828	0.11
743.141	0.11
743.453	0.11
743.766	0.11
744.078	0.1
744.391	0.1
744.703	0.1
745.015	0.1
745.327	0.11
745.639	0.1
745.952	0.1
746.264	0.1
746.575	0.11
746.887	0.1
747.199	0.1
747.511	0.1
747.823	0.1
748.134	0.1
748.446	0.09
748.757	0.09
749.069	0.09
749.38	0.09
749.692	0.09
750.003	0.08
750.314	0.08
750.625	0.08
750.936	0.08
751.248	0.08
751.559	0.09
751.869	0.09
752.18	0.09
752.491	0.08
752.802	0.08
753.112	0.08
753.423	0.08
753.734	0.08
754.044	0.07
754.355	0.07
754.665	0.07
754.975	0.07
755.285	0.07
755.596	0.07
755.906	0.07
756.216	0.07
756.526	0.07
756.836	0.07
757.146	0.07
757.455	0.07
757.765	0.07
758.075	0.07
758.385	0.06
758.694	0.06
759.004	0.06
759.313	0.06
759.622	0.06
759.932	0.07
760.241	0.07
760.55	0.07
760.859	0.07
761.168	0.07
761.477	0.07
761.786	0.07
762.095	0.07
762.404	0.06
762.713	0.06
763.021	0.06
763.33	0.06
763.639	0.07
763.947	0.07
764.256	0.06
764.564	0.07
764.872	0.07
765.181	0.06
765.489	0.06
765.797	0.06
766.105	0.06
766.413	0.06
766.721	0.06
767.029	0.06
767.337	0.06
767.644	0.06
767.952	0.06
768.26	0.06
768.567	0.06
768.875	0.06
769.182	0.06
769.49	0.06
769.797	0.06
770.104	0.06
770.411	0.06
770.718	0.06
771.026	0.06
771.333	0.06
771.639	0.06
771.946	0.06
772.253	0.06
772.56	0.06
772.867	0.06
773.173	0.06
773.48	0.06
773.786	0.06
774.093	0.06
774.399	0.06
774.705	0.07
775.012	0.06
775.318	0.07
775.624	0.07
775.93	0.07
776.236	0.07
776.542	0.07
776.848	0.07
777.154	0.07
777.459	0.07
777.765	0.07
778.071	0.07
778.376	0.07
778.682	0.06
778.987	0.07
779.292	0.07
779.598	0.06
779.903	0.06
780.208	0.06
780.513	0.06
780.818	0.06
781.123	0.06
781.428	0.06
781.733	0.06
782.038	0.06
782.343	0.06
782.647	0.06
782.952	0.06
783.256	0.06
783.561	0.06
783.865	0.06
784.17	0.06
784.474	0.06
784.778	0.06
785.082	0.06
785.386	0.06
785.69	0.06
785.994	0.06
786.298	0.06
786.602	0.06
786.906	0.07
787.209	0.07
787.513	0.07
787.817	0.07
788.12	0.07
788.424	0.08
788.727	0.08
789.03	0.08
789.333	0.07
789.637	0.08
789.94	0.08
790.243	0.08
790.546	0.08
790.849	0.08
791.152	0.08
791.454	0.08
791.757	0.08
792.06	0.08
792.362	0.08
792.665	0.08
792.967	0.07
793.27	0.07
793.572	0.08
793.874	0.08
794.177	0.08
794.479	0.08
794.781	0.08
795.083	0.09
795.385	0.09
795.687	0.09
795.989	0.09
796.29	0.09
796.592	0.09
796.894	0.09
797.195	0.09
797.497	0.09
797.798	0.09
798.1	0.09
798.401	0.09
798.702	0.09
799.003	0.09
799.304	0.08
799.605	0.08
799.906	0.08
800.207	0.08
800.508	0.08
800.809	0.09
801.11	0.09
801.41	0.09
801.711	0.09
802.011	0.09
802.312	0.1
802.612	0.09
802.913	0.09
803.213	0.1
803.513	0.09
803.813	0.1
804.113	0.09
804.413	0.1
804.713	0.1
805.013	0.1
805.313	0.1
805.613	0.1
805.912	0.1
806.212	0.1
806.511	0.1
806.811	0.1
807.11	0.1
807.41	0.1
807.709	0.1
808.008	0.1
808.307	0.1
808.606	0.1
808.905	0.1
809.204	0.1
809.503	0.1
809.802	0.1
810.101	0.1
810.399	0.11
810.698	0.1
810.997	0.1
811.295	0.11
811.593	0.11
811.892	0.11
812.19	0.11
812.488	0.11
812.786	0.11
813.084	0.11
813.383	0.11
813.68	0.11
813.978	0.11
814.276	0.11
814.574	0.12
814.872	0.11
815.169	0.12
815.467	0.11
815.764	0.11
816.062	0.11
816.359	0.11
816.656	0.11
816.954	0.12
817.251	0.11
817.548	0.12
817.845	0.12
818.142	0.12
818.439	0.12
818.735	0.13
819.032	0.13
819.329	0.13
819.626	0.12
819.922	0.13
820.219	0.13
820.515	0.13
820.811	0.14
821.108	0.13
821.404	0.13
821.7	0.13
821.996	0.13
822.292	0.13
822.588	0.13
822.884	0.13
823.18	0.14
823.475	0.14
823.771	0.14
824.067	0.14
824.362	0.14
824.658	0.15
824.953	0.14
825.249	0.14
825.544	0.14
825.839	0.14
826.134	0.14
826.429	0.14
826.724	0.14
827.019	0.14
827.314	0.14
827.609	0.15
827.904	0.14
828.198	0.14
828.493	0.14
828.787	0.15
829.082	0.15
829.376	0.15
829.671	0.16
829.965	0.16
830.259	0.16
830.553	0.16
830.847	0.16
831.141	0.16
831.435	0.16
831.729	0.16
832.023	0.15
832.317	0.17
832.61	0.16
832.904	0.16
833.197	0.16
833.491	0.15
833.784	0.17
834.077	0.17
834.371	0.17
834.664	0.17
834.957	0.17
835.25	0.16
835.543	0.16
835.836	0.17
836.129	0.17
836.421	0.16
836.714	0.16
837.007	0.15
837.299	0.16
837.592	0.16
837.884	0.17
838.177	0.16
838.469	0.16
838.761	0.17
839.053	0.17
839.345	0.17
839.637	0.17
839.929	0.17
840.221	0.17
840.513	0.17
840.805	0.18
841.096	0.18
841.388	0.18
841.68	0.18
841.971	0.18
842.262	0.19
842.554	0.18
842.845	0.18
843.136	0.17
843.427	0.18
843.718	0.18
844.009	0.17
844.3	0.18
844.591	0.18
844.882	0.18
845.173	0.18
845.463	0.18
845.754	0.19
846.044	0.18
846.335	0.18
846.625	0.18
846.915	0.18
847.206	0.19
847.496	0.19
847.786	0.19
848.076	0.19
848.366	0.19
848.656	0.18
848.945	0.18
849.235	0.18
849.525	0.18
849.814	0.18
850.104	0.17
850.393	0.19
850.683	0.21
850.972	0.2
851.261	0.19
851.551	0.2
851.84	0.2
852.129	0.19
852.418	0.2
852.707	0.21
852.995	0.19
853.284	0.2
853.573	0.19
853.862	0.19
854.15	0.2
854.439	0.19
854.727	0.19
855.015	0.21
855.304	0.21
855.592	0.2
855.88	0.2
856.168	0.21
856.456	0.2
856.744	0.2
857.032	0.21
857.32	0.19
857.607	0.2
857.895	0.21
858.183	0.21
858.47	0.21
858.757	0.2
859.045	0.22
859.332	0.23
859.619	0.21
859.907	0.23
860.194	0.2
860.481	0.22
860.768	0.22
861.054	0.2
861.341	0.2
861.628	0.23
861.915	0.22
862.201	0.22
862.488	0.21
862.774	0.25
863.061	0.22
863.347	0.22
863.633	0.23
863.919	0.18
864.205	0.22
864.491	0.23
864.777	0.22
865.063	0.21
865.349	0.22
865.635	0.23
865.92	0.2
866.206	0.22
866.492	0.2
866.777	0.23
867.062	0.24
867.348	0.2
867.633	0.2
867.918	0.22
868.203	0.21
868.488	0.2
868.773	0.26
869.058	0.22
869.343	0.25
869.628	0.23
869.912	0.23
870.197	0.23
870.482	0.23
870.766	0.25
871.05	0.2
871.335	0.22
871.619	0.19
871.903	0.18
872.187	0.2
872.471	0.19
872.755	0.22
873.039	0.2
873.323	0.2
873.607	0.22
873.89	0.2
874.174	0.23
874.458	0.28
874.741	0.31
875.024	0.19
875.308	0.25
875.591	0.19
875.874	0.23
876.157	0.24
876.44	0.13
876.723	0.24
877.006	0.16
877.289	0.19
877.572	0.14
877.854	0.24
878.137	0.25
878.42	0.19
878.702	0.15
878.984	0.41
879.267	0.3
879.549	0.17
879.831	0.15
880.113	0.15
880.395	0.26
880.677	0.14
880.959	0.12
