Data from Rubpy_BV_1800_EDTA_Buffered_Absorbance_15-03-58-003.txt Node
Date: Wed Jul 01 15:03:58 BST 2026
User: fpm-admin
Spectrometer: OFX00224
Trigger mode: 0
Integration Time (sec): 7.000000E-2
Scans to average: 3
Nonlinearity correction enabled: false
Boxcar width: 0
Storing dark spectrum: false
XAxis mode: Wavelengths
Number of Pixels in Spectrum: 2136
>>>>>Begin Spectral Data<<<<<
154.91	0.26
155.289	-0
155.669	-0.57
156.048	-0.58
156.428	0.13
156.807	-0
157.186	0.02
157.566	0.24
157.945	-0.19
158.325	-0.12
158.704	-0
159.083	0.22
159.462	-0.74
159.842	-0
160.221	-1.16
160.6	-0.28
160.979	1.18
161.359	-0
161.738	0.07
162.117	-0.27
162.496	-0.34
162.875	-0
163.254	0.68
163.633	-0
164.012	0.3
164.391	-0.89
164.77	-0
165.149	-0
165.528	-1.26
165.907	-0
166.286	-0.12
166.665	-0.11
167.044	0.41
167.423	-0
167.802	-0
168.181	-0.4
168.559	-0
168.938	-0.37
169.317	0.58
169.696	-0
170.074	-0
170.453	0.72
170.832	-0.4
171.21	-0.18
171.589	0.18
171.968	0.53
172.346	-0
172.725	0.11
173.103	0.09
173.482	0.12
173.861	-0.54
174.239	0.19
174.617	-0.26
174.996	-0
175.374	-0.45
175.753	0.1
176.131	-0
176.51	0.2
176.888	-0
177.266	-0
177.645	-0.06
178.023	1.19
178.401	-0.11
178.779	-0.29
179.158	-0
179.536	-0
179.914	1.18
180.292	0.02
180.67	-0
181.048	-0
181.427	-0.58
181.805	-0
182.183	-0.6
182.561	0.64
182.939	-0
183.317	0.06
183.695	1.51
184.073	0.06
184.451	0.61
184.829	-0.07
185.206	-0.4
185.584	0.18
185.962	-0
186.34	-0
186.718	-0
187.096	-0.65
187.473	0.17
187.851	-0
188.229	-0
188.607	0.2
188.984	0.19
189.362	0.35
189.74	0.2
190.117	0.06
190.495	0.12
190.872	0.3
191.25	0.26
191.627	0.28
192.005	0.14
192.382	0.09
192.76	0.25
193.137	0.35
193.515	0.25
193.892	0.36
194.269	0.29
194.647	0.23
195.024	0.07
195.401	0.23
195.779	0.29
196.156	0.13
196.533	0.28
196.91	0.21
197.288	0.09
197.665	0.16
198.042	0.19
198.419	0.2
198.796	0.05
199.173	0.2
199.55	0.13
199.927	0.14
200.304	0.28
200.681	0.37
201.058	0.2
201.435	0.2
201.812	0.17
202.189	0.27
202.566	0.34
202.943	0.19
203.32	0.24
203.697	0.12
204.073	0.36
204.45	0.22
204.827	0.3
205.204	0.17
205.58	0.18
205.957	0.37
206.334	0.24
206.71	0.25
207.087	0.23
207.464	0.35
207.84	0.33
208.217	0.41
208.593	0.19
208.97	0.35
209.346	0.32
209.723	0.38
210.099	0.33
210.476	0.19
210.852	0.16
211.228	0.21
211.605	0.31
211.981	0.41
212.357	0.22
212.733	0.22
213.11	0.17
213.486	0.24
213.862	0.19
214.238	0.24
214.614	0.44
214.991	0.28
215.367	0.13
215.743	0.24
216.119	0.17
216.495	0.28
216.871	0.43
217.247	0.21
217.623	0.25
217.999	0.22
218.375	0.28
218.751	0.23
219.127	0.28
219.502	0.19
219.878	0.29
220.254	0.29
220.63	0.34
221.006	0.27
221.381	0.18
221.757	0.16
222.133	0.21
222.508	0.21
222.884	0.17
223.26	0.19
223.635	0.32
224.011	0.24
224.386	0.32
224.762	0.37
225.137	0.23
225.513	0.16
225.888	0.28
226.264	0.2
226.639	0.24
227.014	0.23
227.39	0.29
227.765	0.2
228.14	0.35
228.516	0.46
228.891	0.27
229.266	0.28
229.641	0.3
230.017	0.25
230.392	0.21
230.767	0.26
231.142	0.22
231.517	0.21
231.892	0.24
232.267	0.27
232.642	0.34
233.017	0.22
233.392	0.22
233.767	0.34
234.142	0.27
234.517	0.28
234.892	0.25
235.267	0.13
235.641	0.22
236.016	0.19
236.391	0.23
236.766	0.23
237.14	0.2
237.515	0.26
237.89	0.09
238.264	0.24
238.639	0.09
239.014	0.29
239.388	0.28
239.763	0.29
240.137	0.25
240.512	0.18
240.886	0.22
241.261	0.24
241.635	0.18
242.009	0.26
242.384	0.3
242.758	0.24
243.132	0.23
243.507	0.23
243.881	0.25
244.255	0.24
244.629	0.25
245.004	0.17
245.378	0.29
245.752	0.23
246.126	0.18
246.5	0.23
246.874	0.29
247.248	0.44
247.622	0.32
247.996	0.2
248.37	0.17
248.744	0.16
249.118	0.36
249.492	0.15
249.866	0.27
250.24	0.3
250.613	0.26
250.987	0.35
251.361	0.41
251.735	0.26
252.108	0.25
252.482	0.26
252.856	0.23
253.229	0.21
253.603	0.2
253.977	0.24
254.35	0.23
254.724	0.22
255.097	0.16
255.471	0.25
255.844	0.26
256.218	0.24
256.591	0.24
256.964	0.26
257.338	0.17
257.711	0.18
258.084	0.19
258.458	0.2
258.831	0.28
259.204	0.22
259.577	0.26
259.95	0.35
260.323	0.25
260.697	0.29
261.07	0.23
261.443	0.25
261.816	0.13
262.189	0.28
262.562	0.27
262.935	0.33
263.308	0.23
263.68	0.24
264.053	0.29
264.426	0.27
264.799	0.39
265.172	0.23
265.545	0.24
265.917	0.32
266.29	0.25
266.663	0.43
267.035	0.24
267.408	0.2
267.781	0.33
268.153	0.35
268.526	0.28
268.898	0.27
269.271	0.27
269.643	0.26
270.016	0.23
270.388	0.35
270.76	0.26
271.133	0.29
271.505	0.26
271.877	0.34
272.25	0.28
272.622	0.23
272.994	0.46
273.366	0.23
273.739	0.24
274.111	0.2
274.483	0.23
274.855	0.18
275.227	0.2
275.599	0.23
275.971	0.24
276.343	0.29
276.715	0.32
277.087	0.32
277.459	0.23
277.831	0.33
278.203	0.31
278.574	0.22
278.946	0.31
279.318	0.26
279.69	0.24
280.061	0.19
280.433	0.25
280.805	0.27
281.176	0.21
281.548	0.2
281.92	0.21
282.291	0.26
282.663	0.22
283.034	0.23
283.406	0.21
283.777	0.33
284.148	0.3
284.52	0.25
284.891	0.23
285.262	0.25
285.634	0.25
286.005	0.21
286.376	0.24
286.747	0.32
287.119	0.24
287.49	0.28
287.861	0.29
288.232	0.18
288.603	0.36
288.974	0.27
289.345	0.26
289.716	0.19
290.087	0.25
290.458	0.2
290.829	0.33
291.2	0.25
291.571	0.19
291.941	0.28
292.312	0.29
292.683	0.27
293.054	0.24
293.424	0.31
293.795	0.27
294.166	0.27
294.536	0.29
294.907	0.34
295.277	0.2
295.648	0.21
296.018	0.24
296.389	0.27
296.759	0.12
297.13	0.28
297.5	0.33
297.871	0.24
298.241	0.28
298.611	0.34
298.981	0.31
299.352	0.26
299.722	0.33
300.092	0.26
300.462	0.21
300.832	0.35
301.202	0.3
301.573	0.3
301.943	0.28
302.313	0.26
302.683	0.25
303.053	0.21
303.422	0.28
303.792	0.26
304.162	0.29
304.532	0.22
304.902	0.19
305.272	0.29
305.641	0.21
306.011	0.24
306.381	0.22
306.75	0.24
307.12	0.23
307.49	0.24
307.859	0.32
308.229	0.22
308.598	0.25
308.968	0.21
309.337	0.19
309.707	0.23
310.076	0.22
310.445	0.23
310.815	0.19
311.184	0.2
311.553	0.19
311.923	0.19
312.292	0.19
312.661	0.19
313.03	0.21
313.399	0.18
313.768	0.2
314.137	0.2
314.506	0.21
314.875	0.2
315.244	0.21
315.613	0.19
315.982	0.21
316.351	0.21
316.72	0.22
317.089	0.22
317.458	0.21
317.826	0.23
318.195	0.23
318.564	0.23
318.933	0.22
319.301	0.24
319.67	0.23
320.038	0.24
320.407	0.25
320.775	0.24
321.144	0.26
321.512	0.25
321.881	0.25
322.249	0.25
322.618	0.25
322.986	0.26
323.354	0.25
323.723	0.26
324.091	0.26
324.459	0.26
324.827	0.27
325.195	0.29
325.564	0.29
325.932	0.28
326.3	0.3
326.668	0.3
327.036	0.29
327.404	0.3
327.772	0.3
328.14	0.31
328.508	0.31
328.875	0.32
329.243	0.32
329.611	0.32
329.979	0.33
330.346	0.33
330.714	0.34
331.082	0.35
331.449	0.35
331.817	0.35
332.185	0.37
332.552	0.37
332.92	0.38
333.287	0.39
333.655	0.38
334.022	0.4
334.389	0.4
334.757	0.41
335.124	0.42
335.491	0.43
335.859	0.44
336.226	0.44
336.593	0.45
336.96	0.47
337.327	0.46
337.695	0.48
338.062	0.49
338.429	0.49
338.796	0.5
339.163	0.51
339.53	0.52
339.897	0.53
340.263	0.55
340.63	0.54
340.997	0.55
341.364	0.56
341.731	0.57
342.097	0.59
342.464	0.59
342.831	0.6
343.197	0.61
343.564	0.62
343.931	0.63
344.297	0.65
344.664	0.65
345.03	0.67
345.396	0.67
345.763	0.68
346.129	0.7
346.496	0.7
346.862	0.71
347.228	0.72
347.594	0.73
347.961	0.75
348.327	0.75
348.693	0.76
349.059	0.77
349.425	0.77
349.791	0.78
350.157	0.79
350.523	0.8
350.889	0.82
351.255	0.82
351.621	0.82
351.987	0.84
352.353	0.84
352.719	0.86
353.084	0.87
353.45	0.88
353.816	0.9
354.181	0.91
354.547	0.91
354.913	0.92
355.278	0.93
355.644	0.94
356.009	0.95
356.375	0.97
356.74	0.98
357.106	0.99
357.471	1
357.836	1.01
358.202	1.03
358.567	1.03
358.932	1.05
359.297	1.05
359.663	1.09
360.028	1.1
360.393	1.11
360.758	1.14
361.123	1.13
361.488	1.16
361.853	1.18
362.218	1.19
362.583	1.2
362.948	1.21
363.312	1.23
363.677	1.24
364.042	1.25
364.407	1.26
364.772	1.27
365.136	1.28
365.501	1.31
365.865	1.32
366.23	1.32
366.595	1.33
366.959	1.32
367.324	1.35
367.688	1.36
368.052	1.37
368.417	1.38
368.781	1.39
369.145	1.4
369.51	1.4
369.874	1.42
370.238	1.42
370.602	1.42
370.967	1.43
371.331	1.45
371.695	1.44
372.059	1.44
372.423	1.44
372.787	1.47
373.151	1.44
373.515	1.45
373.878	1.41
374.242	1.44
374.606	1.45
374.97	1.42
375.334	1.41
375.697	1.4
376.061	1.38
376.425	1.37
376.788	1.35
377.152	1.37
377.515	1.35
377.879	1.34
378.242	1.33
378.606	1.31
378.969	1.28
379.333	1.27
379.696	1.25
380.059	1.24
380.422	1.24
380.786	1.23
381.149	1.2
381.512	1.18
381.875	1.16
382.238	1.17
382.601	1.15
382.964	1.14
383.327	1.13
383.69	1.11
384.053	1.11
384.416	1.09
384.779	1.09
385.142	1.08
385.504	1.07
385.867	1.08
386.23	1.06
386.593	1.06
386.955	1.06
387.318	1.04
387.68	1.05
388.043	1.05
388.405	1.04
388.768	1.04
389.13	1.03
389.493	1.03
389.855	1.02
390.217	1.02
390.58	1.02
390.942	1
391.304	0.99
391.666	0.98
392.028	0.97
392.391	0.96
392.753	0.94
393.115	0.94
393.477	0.92
393.839	0.91
394.201	0.91
394.563	0.9
394.924	0.9
395.286	0.89
395.648	0.91
396.01	0.91
396.371	0.91
396.733	0.93
397.095	0.94
397.456	0.95
397.818	0.98
398.18	1
398.541	1.02
398.903	1.05
399.264	1.06
399.625	1.1
399.987	1.12
400.348	1.13
400.709	1.14
401.071	1.15
401.432	1.14
401.793	1.15
402.154	1.15
402.515	1.14
402.876	1.1
403.238	1.09
403.599	1.07
403.96	1.04
404.32	1
404.681	0.97
405.042	0.92
405.403	0.89
405.764	0.84
406.125	0.81
406.485	0.76
406.846	0.73
407.207	0.68
407.567	0.65
407.928	0.62
408.288	0.58
408.649	0.55
409.009	0.53
409.37	0.49
409.73	0.46
410.091	0.44
410.451	0.42
410.811	0.39
411.171	0.37
411.532	0.36
411.892	0.34
412.252	0.32
412.612	0.31
412.972	0.3
413.332	0.28
413.692	0.27
414.052	0.26
414.412	0.26
414.772	0.25
415.132	0.23
415.492	0.23
415.851	0.22
416.211	0.21
416.571	0.21
416.931	0.21
417.29	0.19
417.65	0.18
418.009	0.18
418.369	0.18
418.728	0.18
419.088	0.17
419.447	0.17
419.807	0.16
420.166	0.16
420.525	0.15
420.884	0.16
421.244	0.16
421.603	0.15
421.962	0.14
422.321	0.15
422.68	0.14
423.039	0.14
423.398	0.13
423.757	0.13
424.116	0.14
424.475	0.13
424.834	0.13
425.193	0.12
425.551	0.13
425.91	0.12
426.269	0.12
426.628	0.12
426.986	0.12
427.345	0.13
427.703	0.12
428.062	0.12
428.42	0.11
428.779	0.12
429.137	0.12
429.496	0.12
429.854	0.12
430.212	0.11
430.57	0.12
430.929	0.11
431.287	0.11
431.645	0.11
432.003	0.11
432.361	0.11
432.719	0.11
433.077	0.11
433.435	0.12
433.793	0.12
434.151	0.11
434.509	0.11
434.866	0.1
435.224	0.12
435.582	0.11
435.94	0.11
436.297	0.11
436.655	0.11
437.012	0.11
437.37	0.11
437.727	0.1
438.085	0.1
438.442	0.1
438.8	0.1
439.157	0.11
439.514	0.11
439.872	0.11
440.229	0.1
440.586	0.1
440.943	0.11
441.3	0.1
441.657	0.1
442.014	0.1
442.371	0.11
442.728	0.11
443.085	0.11
443.442	0.1
443.799	0.1
444.156	0.1
444.513	0.1
444.869	0.1
445.226	0.11
445.583	0.11
445.939	0.11
446.296	0.1
446.652	0.1
447.009	0.1
447.365	0.11
447.722	0.11
448.078	0.11
448.434	0.1
448.791	0.11
449.147	0.11
449.503	0.1
449.859	0.11
450.215	0.1
450.571	0.1
450.928	0.1
451.284	0.11
451.64	0.1
451.995	0.11
452.351	0.1
452.707	0.1
453.063	0.1
453.419	0.1
453.775	0.09
454.13	0.09
454.486	0.1
454.842	0.09
455.197	0.1
455.553	0.09
455.908	0.09
456.264	0.09
456.619	0.09
456.975	0.09
457.33	0.09
457.685	0.08
458.04	0.09
458.396	0.08
458.751	0.08
459.106	0.08
459.461	0.07
459.816	0.07
460.171	0.07
460.526	0.07
460.881	0.06
461.236	0.05
461.591	0.06
461.946	0.06
462.301	0.06
462.655	0.05
463.01	0.06
463.365	0.05
463.719	0.04
464.074	0.05
464.428	0.03
464.783	0.03
465.137	0.03
465.492	0.04
465.846	0.03
466.201	0.03
466.555	0.03
466.909	0.04
467.263	0.05
467.618	0.04
467.972	0.05
468.326	0.04
468.68	0.04
469.034	0.04
469.388	0.03
469.742	0.04
470.096	0.04
470.45	0.05
470.804	0.04
471.157	0.05
471.511	0.05
471.865	0.05
472.218	0.05
472.572	0.06
472.926	0.07
473.279	0.07
473.633	0.08
473.986	0.09
474.34	0.09
474.693	0.09
475.046	0.1
475.4	0.11
475.753	0.12
476.106	0.13
476.459	0.13
476.812	0.14
477.165	0.15
477.519	0.16
477.872	0.17
478.224	0.17
478.577	0.17
478.93	0.17
479.283	0.18
479.636	0.19
479.989	0.2
480.341	0.2
480.694	0.21
481.047	0.21
481.399	0.21
481.752	0.22
482.104	0.23
482.457	0.23
482.809	0.23
483.162	0.24
483.514	0.24
483.866	0.25
484.219	0.25
484.571	0.25
484.923	0.25
485.275	0.26
485.627	0.27
485.979	0.27
486.331	0.27
486.683	0.28
487.035	0.28
487.387	0.28
487.739	0.3
488.091	0.29
488.443	0.3
488.794	0.3
489.146	0.31
489.498	0.31
489.849	0.31
490.201	0.32
490.552	0.32
490.904	0.32
491.255	0.32
491.607	0.33
491.958	0.33
492.309	0.33
492.661	0.34
493.012	0.34
493.363	0.34
493.714	0.35
494.065	0.35
494.416	0.35
494.767	0.36
495.118	0.36
495.469	0.36
495.82	0.37
496.171	0.37
496.522	0.37
496.872	0.38
497.223	0.38
497.574	0.38
497.924	0.38
498.275	0.39
498.626	0.39
498.976	0.4
499.327	0.4
499.677	0.4
500.027	0.41
500.378	0.41
500.728	0.4
501.078	0.41
501.428	0.41
501.779	0.42
502.129	0.42
502.479	0.42
502.829	0.43
503.179	0.43
503.529	0.43
503.879	0.44
504.229	0.44
504.578	0.45
504.928	0.45
505.278	0.45
505.628	0.45
505.977	0.46
506.327	0.46
506.676	0.46
507.026	0.47
507.375	0.47
507.725	0.47
508.074	0.47
508.424	0.48
508.773	0.48
509.122	0.48
509.471	0.49
509.82	0.49
510.17	0.49
510.519	0.49
510.868	0.5
511.217	0.49
511.566	0.5
511.915	0.5
512.263	0.51
512.612	0.51
512.961	0.51
513.31	0.51
513.659	0.51
514.007	0.52
514.356	0.52
514.704	0.53
515.053	0.53
515.401	0.52
515.75	0.53
516.098	0.53
516.447	0.54
516.795	0.54
517.143	0.54
517.491	0.55
517.839	0.54
518.188	0.55
518.536	0.55
518.884	0.55
519.232	0.55
519.58	0.56
519.928	0.56
520.275	0.56
520.623	0.57
520.971	0.57
521.319	0.57
521.666	0.57
522.014	0.57
522.362	0.58
522.709	0.58
523.057	0.58
523.404	0.58
523.752	0.58
524.099	0.58
524.446	0.59
524.794	0.59
525.141	0.59
525.488	0.6
525.835	0.6
526.182	0.6
526.529	0.6
526.876	0.6
527.223	0.6
527.57	0.6
527.917	0.61
528.264	0.6
528.611	0.61
528.958	0.6
529.304	0.61
529.651	0.61
529.998	0.62
530.344	0.61
530.691	0.62
531.037	0.62
531.384	0.62
531.73	0.63
532.076	0.63
532.423	0.63
532.769	0.63
533.115	0.63
533.461	0.63
533.807	0.64
534.154	0.64
534.5	0.64
534.846	0.64
535.192	0.64
535.537	0.63
535.883	0.64
536.229	0.65
536.575	0.64
536.921	0.65
537.266	0.65
537.612	0.65
537.957	0.64
538.303	0.65
538.649	0.65
538.994	0.65
539.339	0.66
539.685	0.66
540.03	0.66
540.375	0.66
540.721	0.66
541.066	0.66
541.411	0.66
541.756	0.66
542.101	0.66
542.446	0.66
542.791	0.66
543.136	0.67
543.481	0.67
543.825	0.67
544.17	0.67
544.515	0.67
544.86	0.67
545.204	0.67
545.549	0.67
545.893	0.67
546.238	0.67
546.582	0.68
546.927	0.68
547.271	0.67
547.615	0.67
547.96	0.68
548.304	0.67
548.648	0.68
548.992	0.67
549.336	0.68
549.68	0.67
550.024	0.68
550.368	0.68
550.712	0.67
551.056	0.68
551.4	0.68
551.743	0.68
552.087	0.68
552.431	0.69
552.774	0.68
553.118	0.68
553.462	0.68
553.805	0.68
554.148	0.68
554.492	0.68
554.835	0.68
555.178	0.68
555.522	0.68
555.865	0.68
556.208	0.68
556.551	0.68
556.894	0.68
557.237	0.68
557.58	0.68
557.923	0.68
558.266	0.68
558.609	0.68
558.952	0.68
559.294	0.68
559.637	0.68
559.98	0.68
560.322	0.68
560.665	0.68
561.007	0.67
561.35	0.68
561.692	0.67
562.034	0.67
562.377	0.67
562.719	0.67
563.061	0.67
563.403	0.67
563.745	0.67
564.088	0.68
564.43	0.66
564.772	0.67
565.113	0.67
565.455	0.67
565.797	0.67
566.139	0.67
566.481	0.67
566.822	0.67
567.164	0.67
567.506	0.66
567.847	0.67
568.189	0.66
568.53	0.66
568.872	0.66
569.213	0.65
569.554	0.66
569.895	0.65
570.237	0.66
570.578	0.65
570.919	0.66
571.26	0.65
571.601	0.65
571.942	0.64
572.283	0.65
572.624	0.65
572.965	0.64
573.306	0.64
573.646	0.64
573.987	0.63
574.328	0.64
574.668	0.63
575.009	0.63
575.349	0.63
575.69	0.63
576.03	0.63
576.37	0.62
576.711	0.62
577.051	0.62
577.391	0.63
577.731	0.62
578.072	0.62
578.412	0.62
578.752	0.62
579.092	0.61
579.431	0.6
579.771	0.59
580.111	0.58
580.451	0.59
580.791	0.61
581.13	0.61
581.47	0.61
581.81	0.61
582.149	0.61
582.489	0.61
582.828	0.59
583.167	0.56
583.507	0.52
583.846	0.52
584.185	0.56
584.525	0.59
584.864	0.6
585.203	0.61
585.542	0.6
585.881	0.6
586.22	0.6
586.559	0.59
586.898	0.58
587.236	0.58
587.575	0.58
587.914	0.59
588.252	0.6
588.591	0.6
588.93	0.59
589.268	0.59
589.607	0.59
589.945	0.59
590.283	0.59
590.622	0.6
590.96	0.6
591.298	0.6
591.636	0.6
591.974	0.6
592.313	0.6
592.651	0.6
592.989	0.59
593.326	0.6
593.664	0.6
594.002	0.6
594.34	0.59
594.678	0.59
595.015	0.58
595.353	0.58
595.691	0.59
596.028	0.59
596.366	0.59
596.703	0.59
597.04	0.59
597.378	0.6
597.715	0.6
598.052	0.6
598.389	0.6
598.726	0.6
599.064	0.6
599.401	0.6
599.738	0.6
600.074	0.59
600.411	0.59
600.748	0.59
601.085	0.58
601.422	0.58
601.758	0.58
602.095	0.58
602.432	0.58
602.768	0.59
603.105	0.58
603.441	0.59
603.777	0.59
604.114	0.59
604.45	0.59
604.786	0.59
605.122	0.58
605.459	0.58
605.795	0.58
606.131	0.58
606.467	0.58
606.803	0.58
607.139	0.58
607.474	0.57
607.81	0.57
608.146	0.57
608.482	0.57
608.817	0.57
609.153	0.56
609.488	0.56
609.824	0.56
610.159	0.57
610.495	0.57
610.83	0.56
611.165	0.56
611.5	0.56
611.836	0.55
612.171	0.55
612.506	0.55
612.841	0.55
613.176	0.55
613.511	0.54
613.845	0.55
614.18	0.54
614.515	0.54
614.85	0.53
615.184	0.54
615.519	0.54
615.854	0.53
616.188	0.53
616.523	0.53
616.857	0.53
617.191	0.53
617.526	0.53
617.86	0.52
618.194	0.52
618.528	0.53
618.862	0.53
619.196	0.52
619.53	0.52
619.864	0.52
620.198	0.51
620.532	0.51
620.866	0.51
621.2	0.51
621.533	0.51
621.867	0.5
622.201	0.5
622.534	0.5
622.868	0.5
623.201	0.5
623.534	0.49
623.868	0.49
624.201	0.49
624.534	0.49
624.868	0.49
625.201	0.48
625.534	0.48
625.867	0.48
626.2	0.48
626.533	0.47
626.865	0.48
627.198	0.47
627.531	0.47
627.864	0.46
628.196	0.46
628.529	0.46
628.862	0.46
629.194	0.46
629.527	0.46
629.859	0.46
630.191	0.45
630.524	0.45
630.856	0.44
631.188	0.44
631.52	0.44
631.852	0.44
632.184	0.43
632.516	0.43
632.848	0.43
633.18	0.43
633.512	0.43
633.844	0.42
634.175	0.42
634.507	0.42
634.839	0.41
635.17	0.41
635.502	0.41
635.833	0.41
636.165	0.41
636.496	0.39
636.827	0.4
637.159	0.39
637.49	0.39
637.821	0.39
638.152	0.39
638.483	0.39
638.814	0.38
639.145	0.38
639.476	0.38
639.807	0.38
640.137	0.37
640.468	0.37
640.799	0.36
641.129	0.36
641.46	0.36
641.791	0.36
642.121	0.36
642.451	0.36
642.782	0.35
643.112	0.35
643.442	0.35
643.773	0.34
644.103	0.35
644.433	0.34
644.763	0.35
645.093	0.34
645.423	0.34
645.753	0.34
646.082	0.34
646.412	0.34
646.742	0.33
647.072	0.33
647.401	0.33
647.731	0.33
648.06	0.33
648.39	0.33
648.719	0.33
649.048	0.33
649.378	0.33
649.707	0.32
650.036	0.32
650.365	0.32
650.694	0.31
651.023	0.32
651.352	0.31
651.681	0.31
652.01	0.31
652.339	0.31
652.668	0.31
652.996	0.31
653.325	0.31
653.654	0.3
653.982	0.3
654.311	0.31
654.639	0.3
654.967	0.3
655.296	0.3
655.624	0.3
655.952	0.3
656.28	0.3
656.609	0.3
656.937	0.3
657.265	0.28
657.593	0.13
657.92	0.05
658.248	0.02
658.576	0.08
658.904	0.2
659.231	0.28
659.559	0.29
659.887	0.29
660.214	0.28
660.542	0.28
660.869	0.28
661.196	0.28
661.524	0.28
661.851	0.28
662.178	0.28
662.505	0.28
662.832	0.28
663.159	0.28
663.486	0.28
663.813	0.27
664.14	0.27
664.467	0.27
664.794	0.27
665.12	0.27
665.447	0.27
665.774	0.27
666.1	0.27
666.427	0.26
666.753	0.26
667.079	0.26
667.406	0.26
667.732	0.26
668.058	0.26
668.384	0.26
668.71	0.25
669.036	0.25
669.362	0.25
669.688	0.25
670.014	0.25
670.34	0.24
670.666	0.25
670.991	0.24
671.317	0.24
671.643	0.24
671.968	0.24
672.294	0.24
672.619	0.23
672.945	0.24
673.27	0.23
673.595	0.23
673.92	0.22
674.246	0.22
674.571	0.23
674.896	0.22
675.221	0.22
675.546	0.22
675.87	0.22
676.195	0.22
676.52	0.22
676.845	0.21
677.169	0.21
677.494	0.21
677.819	0.21
678.143	0.2
678.468	0.2
678.792	0.2
679.116	0.2
679.44	0.2
679.765	0.2
680.089	0.19
680.413	0.19
680.737	0.19
681.061	0.19
681.385	0.18
681.709	0.18
682.033	0.18
682.356	0.18
682.68	0.18
683.004	0.18
683.327	0.18
683.651	0.17
683.974	0.17
684.298	0.17
684.621	0.17
684.944	0.17
685.268	0.16
685.591	0.16
685.914	0.16
686.237	0.15
686.56	0.15
686.883	0.15
687.206	0.15
687.529	0.15
687.852	0.14
688.175	0.15
688.497	0.15
688.82	0.15
689.142	0.14
689.465	0.14
689.787	0.14
690.11	0.14
690.432	0.14
690.755	0.14
691.077	0.13
691.399	0.13
691.721	0.13
692.043	0.13
692.365	0.13
692.687	0.12
693.009	0.12
693.331	0.12
693.653	0.11
693.974	0.12
694.296	0.12
694.618	0.12
694.939	0.12
695.261	0.11
695.582	0.11
695.904	0.11
696.225	0.11
696.546	0.11
696.868	0.11
697.189	0.11
697.51	0.1
697.831	0.1
698.152	0.11
698.473	0.1
698.794	0.09
699.114	0.09
699.435	0.08
699.756	0.09
700.077	0.09
700.397	0.09
700.718	0.09
701.038	0.09
701.359	0.1
701.679	0.09
701.999	0.09
702.32	0.09
702.64	0.09
702.96	0.09
703.28	0.09
703.6	0.09
703.92	0.09
704.24	0.08
704.56	0.08
704.879	0.08
705.199	0.08
705.519	0.08
705.838	0.08
706.158	0.09
706.478	0.09
706.797	0.08
707.116	0.08
707.436	0.08
707.755	0.08
708.074	0.08
708.393	0.08
708.712	0.07
709.031	0.06
709.35	0.06
709.669	0.06
709.988	0.07
710.307	0.07
710.626	0.07
710.944	0.08
711.263	0.08
711.582	0.08
711.9	0.08
712.219	0.08
712.537	0.07
712.855	0.07
713.174	0.08
713.492	0.08
713.81	0.08
714.128	0.08
714.446	0.08
714.764	0.07
715.082	0.07
715.4	0.07
715.718	0.07
716.035	0.07
716.353	0.08
716.671	0.07
716.988	0.08
717.306	0.07
717.623	0.08
717.941	0.08
718.258	0.08
718.575	0.08
718.893	0.08
719.21	0.08
719.527	0.08
719.844	0.08
720.161	0.08
720.478	0.08
720.795	0.08
721.112	0.08
721.428	0.08
721.745	0.08
722.062	0.08
722.378	0.09
722.695	0.09
723.011	0.08
723.328	0.09
723.644	0.08
723.96	0.09
724.276	0.09
724.593	0.09
724.909	0.09
725.225	0.09
725.541	0.09
725.857	0.09
726.173	0.09
726.488	0.09
726.804	0.09
727.12	0.08
727.435	0.08
727.751	0.08
728.067	0.08
728.382	0.08
728.697	0.08
729.013	0.09
729.328	0.08
729.643	0.08
729.958	0.08
730.273	0.08
730.588	0.08
730.903	0.08
731.218	0.08
731.533	0.08
731.848	0.08
732.163	0.08
732.477	0.08
732.792	0.08
733.107	0.07
733.421	0.08
733.736	0.08
734.05	0.08
734.364	0.07
734.678	0.08
734.993	0.07
735.307	0.08
735.621	0.07
735.935	0.07
736.249	0.07
736.563	0.07
736.877	0.08
737.19	0.08
737.504	0.08
737.818	0.08
738.131	0.08
738.445	0.08
738.758	0.08
739.072	0.08
739.385	0.08
739.698	0.08
740.012	0.08
740.325	0.08
740.638	0.08
740.951	0.08
741.264	0.07
741.577	0.08
741.89	0.07
742.203	0.07
742.515	0.07
742.828	0.07
743.141	0.07
743.453	0.08
743.766	0.08
744.078	0.07
744.391	0.07
744.703	0.07
745.015	0.07
745.327	0.07
745.639	0.07
745.952	0.07
746.264	0.07
746.575	0.07
746.887	0.07
747.199	0.07
747.511	0.06
747.823	0.06
748.134	0.06
748.446	0.06
748.757	0.06
749.069	0.06
749.38	0.06
749.692	0.06
750.003	0.05
750.314	0.05
750.625	0.05
750.936	0.05
751.248	0.05
751.559	0.05
751.869	0.05
752.18	0.05
752.491	0.05
752.802	0.05
753.112	0.05
753.423	0.04
753.734	0.05
754.044	0.04
754.355	0.04
754.665	0.04
754.975	0.04
755.285	0.04
755.596	0.04
755.906	0.04
756.216	0.04
756.526	0.04
756.836	0.04
757.146	0.04
757.455	0.04
757.765	0.04
758.075	0.04
758.385	0.04
758.694	0.04
759.004	0.04
759.313	0.03
759.622	0.04
759.932	0.04
760.241	0.04
760.55	0.04
760.859	0.04
761.168	0.04
761.477	0.04
761.786	0.04
762.095	0.04
762.404	0.04
762.713	0.04
763.021	0.04
763.33	0.04
763.639	0.04
763.947	0.04
764.256	0.04
764.564	0.04
764.872	0.04
765.181	0.04
765.489	0.04
765.797	0.03
766.105	0.03
766.413	0.03
766.721	0.03
767.029	0.04
767.337	0.03
767.644	0.04
767.952	0.04
768.26	0.04
768.567	0.04
768.875	0.04
769.182	0.04
769.49	0.04
769.797	0.04
770.104	0.04
770.411	0.04
770.718	0.04
771.026	0.04
771.333	0.03
771.639	0.03
771.946	0.03
772.253	0.03
772.56	0.03
772.867	0.03
773.173	0.04
773.48	0.03
773.786	0.04
774.093	0.04
774.399	0.04
774.705	0.04
775.012	0.04
775.318	0.04
775.624	0.04
775.93	0.04
776.236	0.04
776.542	0.04
776.848	0.05
777.154	0.04
777.459	0.04
777.765	0.04
778.071	0.04
778.376	0.04
778.682	0.04
778.987	0.04
779.292	0.04
779.598	0.04
779.903	0.04
780.208	0.03
780.513	0.03
780.818	0.03
781.123	0.03
781.428	0.04
781.733	0.04
782.038	0.03
782.343	0.03
782.647	0.03
782.952	0.03
783.256	0.03
783.561	0.03
783.865	0.03
784.17	0.03
784.474	0.03
784.778	0.03
785.082	0.03
785.386	0.03
785.69	0.03
785.994	0.03
786.298	0.03
786.602	0.04
786.906	0.03
787.209	0.04
787.513	0.04
787.817	0.04
788.12	0.04
788.424	0.04
788.727	0.04
789.03	0.04
789.333	0.04
789.637	0.04
789.94	0.04
790.243	0.04
790.546	0.04
790.849	0.05
791.152	0.05
791.454	0.04
791.757	0.04
792.06	0.05
792.362	0.05
792.665	0.04
792.967	0.04
793.27	0.04
793.572	0.04
793.874	0.05
794.177	0.04
794.479	0.04
794.781	0.05
795.083	0.05
795.385	0.05
795.687	0.05
795.989	0.05
796.29	0.05
796.592	0.05
796.894	0.05
797.195	0.05
797.497	0.04
797.798	0.05
798.1	0.05
798.401	0.04
798.702	0.05
799.003	0.05
799.304	0.04
799.605	0.04
799.906	0.04
800.207	0.04
800.508	0.04
800.809	0.05
801.11	0.05
801.41	0.05
801.711	0.05
802.011	0.05
802.312	0.05
802.612	0.05
802.913	0.05
803.213	0.05
803.513	0.05
803.813	0.05
804.113	0.05
804.413	0.05
804.713	0.05
805.013	0.06
805.313	0.06
805.613	0.05
805.912	0.06
806.212	0.05
806.511	0.05
806.811	0.05
807.11	0.05
807.41	0.05
807.709	0.05
808.008	0.06
808.307	0.06
808.606	0.06
808.905	0.06
809.204	0.06
809.503	0.05
809.802	0.06
810.101	0.06
810.399	0.06
810.698	0.06
810.997	0.06
811.295	0.06
811.593	0.06
811.892	0.06
812.19	0.05
812.488	0.06
812.786	0.06
813.084	0.06
813.383	0.06
813.68	0.06
813.978	0.06
814.276	0.06
814.574	0.06
814.872	0.06
815.169	0.06
815.467	0.06
815.764	0.06
816.062	0.06
816.359	0.05
816.656	0.05
816.954	0.05
817.251	0.06
817.548	0.06
817.845	0.06
818.142	0.07
818.439	0.07
818.735	0.07
819.032	0.07
819.329	0.07
819.626	0.06
819.922	0.07
820.219	0.07
820.515	0.07
820.811	0.08
821.108	0.07
821.404	0.07
821.7	0.07
821.996	0.07
822.292	0.07
822.588	0.07
822.884	0.07
823.18	0.08
823.475	0.08
823.771	0.09
824.067	0.08
824.362	0.08
824.658	0.08
824.953	0.08
825.249	0.07
825.544	0.07
825.839	0.08
826.134	0.07
826.429	0.08
826.724	0.07
827.019	0.08
827.314	0.08
827.609	0.08
827.904	0.08
828.198	0.07
828.493	0.08
828.787	0.08
829.082	0.08
829.376	0.09
829.671	0.09
829.965	0.09
830.259	0.09
830.553	0.09
830.847	0.09
831.141	0.09
831.435	0.09
831.729	0.1
832.023	0.09
832.317	0.1
832.61	0.09
832.904	0.09
833.197	0.09
833.491	0.09
833.784	0.09
834.077	0.1
834.371	0.09
834.664	0.1
834.957	0.1
835.25	0.09
835.543	0.09
835.836	0.1
836.129	0.09
836.421	0.09
836.714	0.09
837.007	0.09
837.299	0.09
837.592	0.09
837.884	0.09
838.177	0.09
838.469	0.1
838.761	0.1
839.053	0.1
839.345	0.1
839.637	0.09
839.929	0.1
840.221	0.1
840.513	0.1
840.805	0.1
841.096	0.11
841.388	0.1
841.68	0.11
841.971	0.1
842.262	0.1
842.554	0.1
842.845	0.1
843.136	0.1
843.427	0.11
843.718	0.09
844.009	0.09
844.3	0.1
844.591	0.1
844.882	0.1
845.173	0.11
845.463	0.1
845.754	0.11
846.044	0.1
846.335	0.1
846.625	0.1
846.915	0.1
847.206	0.1
847.496	0.11
847.786	0.11
848.076	0.11
848.366	0.1
848.656	0.1
848.945	0.1
849.235	0.09
849.525	0.09
849.814	0.09
850.104	0.09
850.393	0.1
850.683	0.11
850.972	0.11
851.261	0.12
851.551	0.11
851.84	0.12
852.129	0.11
852.418	0.1
852.707	0.12
852.995	0.11
853.284	0.11
853.573	0.11
853.862	0.09
854.15	0.11
854.439	0.1
854.727	0.11
855.015	0.11
855.304	0.11
855.592	0.11
855.88	0.12
856.168	0.11
856.456	0.11
856.744	0.1
857.032	0.1
857.32	0.1
857.607	0.1
857.895	0.12
858.183	0.11
858.47	0.1
858.757	0.12
859.045	0.12
859.332	0.12
859.619	0.11
859.907	0.13
860.194	0.1
860.481	0.11
860.768	0.11
861.054	0.11
861.341	0.11
861.628	0.13
861.915	0.11
862.201	0.12
862.488	0.11
862.774	0.12
863.061	0.13
863.347	0.11
863.633	0.14
863.919	0.1
864.205	0.11
864.491	0.13
864.777	0.13
865.063	0.12
865.349	0.12
865.635	0.12
865.92	0.12
866.206	0.11
866.492	0.11
866.777	0.14
867.062	0.13
867.348	0.12
867.633	0.1
867.918	0.14
868.203	0.1
868.488	0.1
868.773	0.16
869.058	0.12
869.343	0.12
869.628	0.11
869.912	0.11
870.197	0.13
870.482	0.06
870.766	0.13
871.05	0.11
871.335	0.13
871.619	0.11
871.903	0.1
872.187	0.07
872.471	0.14
872.755	0.12
873.039	0.12
873.323	0.14
873.607	0.12
873.89	0.09
874.174	0.19
874.458	0.17
874.741	0.1
875.024	0.16
875.308	0.15
875.591	0.11
875.874	0.11
876.157	0.08
876.44	0.06
876.723	0.11
877.006	0.09
877.289	0.09
877.572	0.13
877.854	0.08
878.137	0.01
878.42	0.07
878.702	0.13
878.984	0.21
879.267	0.1
879.549	0.06
879.831	0.12
880.113	0.05
880.395	0.04
880.677	0.04
880.959	0.1
