Data from Rubpy_BV_1800_EDTA_Buffered_Absorbance_15-09-13-994.txt Node
Date: Wed Jul 01 15:09:13 BST 2026
User: fpm-admin
Spectrometer: OFX00224
Trigger mode: 0
Integration Time (sec): 7.000000E-2
Scans to average: 3
Nonlinearity correction enabled: false
Boxcar width: 0
Storing dark spectrum: false
XAxis mode: Wavelengths
Number of Pixels in Spectrum: 2136
>>>>>Begin Spectral Data<<<<<
154.91	-0.34
155.289	0.12
155.669	-0.62
156.048	-0
156.428	-0
156.807	-0
157.186	-0
157.566	-0.5
157.945	-0
158.325	0.88
158.704	-0
159.083	-0.15
159.462	-0
159.842	-0.5
160.221	-0
160.6	-0
160.979	-0.45
161.359	-0
161.738	-0.19
162.117	-0.41
162.496	-0.24
162.875	-0
163.254	1.38
163.633	-0
164.012	0.46
164.391	-1.12
164.77	-0
165.149	-0.96
165.528	-1.57
165.907	-0
166.286	0.22
166.665	-0
167.044	-0
167.423	-0.18
167.802	-0.43
168.181	-0
168.559	-1.08
168.938	-0.9
169.317	0.24
169.696	-0
170.074	-0.3
170.453	0.58
170.832	-0.77
171.21	-0.4
171.589	-0.5
171.968	0.28
172.346	-0
172.725	-0
173.103	-0
173.482	-0
173.861	-0
174.239	0.34
174.617	-0
174.996	0.14
175.374	-0
175.753	-0.44
176.131	-0
176.51	0.73
176.888	-0
177.266	-0
177.645	-0.06
178.023	1.19
178.401	-0.11
178.779	-0.2
179.158	-1.34
179.536	-0.72
179.914	0.18
180.292	-0
180.67	-0.36
181.048	-0
181.427	-0
181.805	-0
182.183	-0.3
182.561	-0
182.939	-0.57
183.317	-0
183.695	0.36
184.073	-0.2
184.451	1.27
184.829	-0
185.206	-0
185.584	-0
185.962	0.3
186.34	-0
186.718	-0.11
187.096	-0.65
187.473	-0
187.851	-0
188.229	-0
188.607	0.35
188.984	0.21
189.362	0.42
189.74	0.29
190.117	0.22
190.495	0.19
190.872	0.48
191.25	0.31
191.627	0.37
192.005	0.43
192.382	0.14
192.76	0.31
193.137	0.32
193.515	0.31
193.892	0.63
194.269	0.29
194.647	0.42
195.024	0.15
195.401	0.28
195.779	0.44
196.156	0.27
196.533	0.21
196.91	0.27
197.288	0.29
197.665	0.28
198.042	0.49
198.419	0.31
198.796	0.17
199.173	0.34
199.55	0.47
199.927	0.31
200.304	0.32
200.681	0.47
201.058	0.42
201.435	0.31
201.812	0.21
202.189	0.31
202.566	0.32
202.943	0.27
203.32	0.34
203.697	0.3
204.073	0.42
204.45	0.27
204.827	0.47
205.204	0.23
205.58	0.39
205.957	0.44
206.334	0.28
206.71	0.35
207.087	0.36
207.464	0.35
207.84	0.35
208.217	0.3
208.593	0.4
208.97	0.4
209.346	0.41
209.723	0.32
210.099	0.49
210.476	0.37
210.852	0.25
211.228	0.24
211.605	0.34
211.981	0.65
212.357	0.22
212.733	0.61
213.11	0.17
213.486	0.2
213.862	0.52
214.238	0.34
214.614	0.42
214.991	0.3
215.367	0.23
215.743	0.52
216.119	0.34
216.495	0.27
216.871	0.43
217.247	0.23
217.623	0.62
217.999	0.32
218.375	0.36
218.751	0.35
219.127	0.45
219.502	0.4
219.878	0.39
220.254	0.27
220.63	0.45
221.006	0.44
221.381	0.34
221.757	0.17
222.133	0.35
222.508	0.45
222.884	0.26
223.26	0.36
223.635	0.38
224.011	0.39
224.386	0.31
224.762	0.27
225.137	0.45
225.513	0.41
225.888	0.15
226.264	0.35
226.639	0.48
227.014	0.3
227.39	0.41
227.765	0.31
228.14	0.35
228.516	0.54
228.891	0.33
229.266	0.27
229.641	0.24
230.017	0.34
230.392	0.27
230.767	0.42
231.142	0.25
231.517	0.33
231.892	0.31
232.267	0.48
232.642	0.45
233.017	0.19
233.392	0.29
233.767	0.22
234.142	0.24
234.517	0.4
234.892	0.29
235.267	0.28
235.641	0.31
236.016	0.25
236.391	0.29
236.766	0.4
237.14	0.36
237.515	0.41
237.89	0.27
238.264	0.28
238.639	0.22
239.014	0.38
239.388	0.47
239.763	0.3
240.137	0.3
240.512	0.31
240.886	0.27
241.261	0.24
241.635	0.35
242.009	0.29
242.384	0.48
242.758	0.25
243.132	0.35
243.507	0.32
243.881	0.46
244.255	0.22
244.629	0.58
245.004	0.42
245.378	0.47
245.752	0.35
246.126	0.24
246.5	0.24
246.874	0.39
247.248	0.4
247.622	0.33
247.996	0.31
248.37	0.21
248.744	0.42
249.118	0.46
249.492	0.44
249.866	0.37
250.24	0.35
250.613	0.29
250.987	0.39
251.361	0.58
251.735	0.26
252.108	0.28
252.482	0.36
252.856	0.21
253.229	0.33
253.603	0.32
253.977	0.38
254.35	0.2
254.724	0.37
255.097	0.24
255.471	0.2
255.844	0.36
256.218	0.34
256.591	0.28
256.964	0.34
257.338	0.41
257.711	0.27
258.084	0.32
258.458	0.29
258.831	0.5
259.204	0.51
259.577	0.32
259.95	0.35
260.323	0.3
260.697	0.39
261.07	0.36
261.443	0.39
261.816	0.25
262.189	0.35
262.562	0.38
262.935	0.47
263.308	0.28
263.68	0.37
264.053	0.28
264.426	0.35
264.799	0.4
265.172	0.32
265.545	0.35
265.917	0.35
266.29	0.39
266.663	0.44
267.035	0.23
267.408	0.38
267.781	0.42
268.153	0.3
268.526	0.29
268.898	0.33
269.271	0.29
269.643	0.33
270.016	0.36
270.388	0.38
270.76	0.4
271.133	0.29
271.505	0.26
271.877	0.42
272.25	0.34
272.622	0.32
272.994	0.45
273.366	0.36
273.739	0.37
274.111	0.29
274.483	0.36
274.855	0.3
275.227	0.31
275.599	0.28
275.971	0.35
276.343	0.37
276.715	0.3
277.087	0.35
277.459	0.35
277.831	0.43
278.203	0.44
278.574	0.28
278.946	0.37
279.318	0.39
279.69	0.35
280.061	0.33
280.433	0.29
280.805	0.36
281.176	0.41
281.548	0.35
281.92	0.29
282.291	0.49
282.663	0.29
283.034	0.37
283.406	0.31
283.777	0.37
284.148	0.31
284.52	0.24
284.891	0.24
285.262	0.2
285.634	0.31
286.005	0.31
286.376	0.36
286.747	0.36
287.119	0.32
287.49	0.26
287.861	0.37
288.232	0.3
288.603	0.38
288.974	0.27
289.345	0.25
289.716	0.33
290.087	0.24
290.458	0.34
290.829	0.4
291.2	0.31
291.571	0.33
291.941	0.35
292.312	0.47
292.683	0.37
293.054	0.35
293.424	0.39
293.795	0.36
294.166	0.39
294.536	0.4
294.907	0.35
295.277	0.36
295.648	0.37
296.018	0.32
296.389	0.37
296.759	0.25
297.13	0.34
297.5	0.3
297.871	0.34
298.241	0.32
298.611	0.32
298.981	0.39
299.352	0.36
299.722	0.42
300.092	0.33
300.462	0.38
300.832	0.37
301.202	0.38
301.573	0.36
301.943	0.28
302.313	0.29
302.683	0.33
303.053	0.23
303.422	0.33
303.792	0.3
304.162	0.38
304.532	0.27
304.902	0.31
305.272	0.31
305.641	0.35
306.011	0.29
306.381	0.26
306.75	0.28
307.12	0.3
307.49	0.3
307.859	0.31
308.229	0.26
308.598	0.25
308.968	0.27
309.337	0.27
309.707	0.28
310.076	0.31
310.445	0.27
310.815	0.26
311.184	0.25
311.553	0.26
311.923	0.26
312.292	0.29
312.661	0.29
313.03	0.28
313.399	0.25
313.768	0.25
314.137	0.24
314.506	0.26
314.875	0.28
315.244	0.26
315.613	0.26
315.982	0.29
316.351	0.29
316.72	0.3
317.089	0.28
317.458	0.28
317.826	0.31
318.195	0.29
318.564	0.3
318.933	0.28
319.301	0.31
319.67	0.31
320.038	0.31
320.407	0.32
320.775	0.32
321.144	0.33
321.512	0.33
321.881	0.32
322.249	0.34
322.618	0.34
322.986	0.34
323.354	0.34
323.723	0.37
324.091	0.36
324.459	0.36
324.827	0.37
325.195	0.38
325.564	0.39
325.932	0.39
326.3	0.4
326.668	0.39
327.036	0.39
327.404	0.4
327.772	0.42
328.14	0.43
328.508	0.42
328.875	0.44
329.243	0.44
329.611	0.44
329.979	0.45
330.346	0.46
330.714	0.45
331.082	0.47
331.449	0.48
331.817	0.47
332.185	0.5
332.552	0.5
332.92	0.5
333.287	0.52
333.655	0.53
334.022	0.54
334.389	0.55
334.757	0.56
335.124	0.57
335.491	0.58
335.859	0.6
336.226	0.6
336.593	0.62
336.96	0.63
337.327	0.63
337.695	0.65
338.062	0.65
338.429	0.66
338.796	0.69
339.163	0.7
339.53	0.7
339.897	0.7
340.263	0.74
340.63	0.74
340.997	0.75
341.364	0.77
341.731	0.78
342.097	0.79
342.464	0.81
342.831	0.82
343.197	0.83
343.564	0.85
343.931	0.86
344.297	0.87
344.664	0.89
345.03	0.9
345.396	0.91
345.763	0.93
346.129	0.94
346.496	0.95
346.862	0.96
347.228	0.97
347.594	0.99
347.961	1
348.327	1.01
348.693	1.03
349.059	1.04
349.425	1.05
349.791	1.05
350.157	1.09
350.523	1.08
350.889	1.1
351.255	1.11
351.621	1.12
351.987	1.13
352.353	1.14
352.719	1.15
353.084	1.18
353.45	1.19
353.816	1.19
354.181	1.21
354.547	1.24
354.913	1.24
355.278	1.25
355.644	1.26
356.009	1.27
356.375	1.3
356.74	1.34
357.106	1.32
357.471	1.34
357.836	1.35
358.202	1.38
358.567	1.38
358.932	1.42
359.297	1.43
359.663	1.44
360.028	1.49
360.393	1.48
360.758	1.5
361.123	1.51
361.488	1.53
361.853	1.55
362.218	1.56
362.583	1.6
362.948	1.59
363.312	1.63
363.677	1.6
364.042	1.62
364.407	1.64
364.772	1.69
365.136	1.67
365.501	1.71
365.865	1.69
366.23	1.7
366.595	1.71
366.959	1.74
367.324	1.74
367.688	1.73
368.052	1.77
368.417	1.83
368.781	1.83
369.145	1.79
369.51	1.8
369.874	1.82
370.238	1.82
370.602	1.82
370.967	1.86
371.331	1.81
371.695	1.81
372.059	1.81
372.423	1.8
372.787	1.83
373.151	1.78
373.515	1.83
373.878	1.79
374.242	1.85
374.606	1.78
374.97	1.8
375.334	1.8
375.697	1.78
376.061	1.76
376.425	1.77
376.788	1.75
377.152	1.75
377.515	1.7
377.879	1.71
378.242	1.68
378.606	1.71
378.969	1.65
379.333	1.63
379.696	1.61
380.059	1.62
380.422	1.62
380.786	1.56
381.149	1.55
381.512	1.54
381.875	1.5
382.238	1.51
382.601	1.49
382.964	1.5
383.327	1.46
383.69	1.46
384.053	1.44
384.416	1.41
384.779	1.4
385.142	1.39
385.504	1.36
385.867	1.36
386.23	1.38
386.593	1.35
386.955	1.35
387.318	1.34
387.68	1.33
388.043	1.34
388.405	1.32
388.768	1.32
389.13	1.31
389.493	1.3
389.855	1.28
390.217	1.27
390.58	1.28
390.942	1.26
391.304	1.25
391.666	1.24
392.028	1.21
392.391	1.21
392.753	1.19
393.115	1.17
393.477	1.16
393.839	1.13
394.201	1.13
394.563	1.13
394.924	1.12
395.286	1.12
395.648	1.12
396.01	1.12
396.371	1.13
396.733	1.15
397.095	1.16
397.456	1.18
397.818	1.2
398.18	1.22
398.541	1.25
398.903	1.29
399.264	1.31
399.625	1.33
399.987	1.34
400.348	1.36
400.709	1.39
401.071	1.38
401.432	1.39
401.793	1.4
402.154	1.38
402.515	1.36
402.876	1.36
403.238	1.33
403.599	1.3
403.96	1.24
404.32	1.2
404.681	1.16
405.042	1.12
405.403	1.07
405.764	1.03
406.125	0.98
406.485	0.93
406.846	0.89
407.207	0.85
407.567	0.8
407.928	0.77
408.288	0.71
408.649	0.68
409.009	0.64
409.37	0.6
409.73	0.58
410.091	0.55
410.451	0.52
410.811	0.5
411.171	0.47
411.532	0.44
411.892	0.43
412.252	0.4
412.612	0.39
412.972	0.37
413.332	0.36
413.692	0.34
414.052	0.33
414.412	0.32
414.772	0.31
415.132	0.3
415.492	0.29
415.851	0.28
416.211	0.26
416.571	0.26
416.931	0.25
417.29	0.24
417.65	0.23
418.009	0.23
418.369	0.23
418.728	0.23
419.088	0.22
419.447	0.21
419.807	0.2
420.166	0.21
420.525	0.2
420.884	0.2
421.244	0.19
421.603	0.19
421.962	0.18
422.321	0.19
422.68	0.18
423.039	0.18
423.398	0.17
423.757	0.17
424.116	0.17
424.475	0.17
424.834	0.16
425.193	0.16
425.551	0.16
425.91	0.16
426.269	0.16
426.628	0.15
426.986	0.16
427.345	0.16
427.703	0.15
428.062	0.15
428.42	0.16
428.779	0.16
429.137	0.15
429.496	0.15
429.854	0.14
430.212	0.14
430.57	0.15
430.929	0.14
431.287	0.14
431.645	0.14
432.003	0.14
432.361	0.14
432.719	0.15
433.077	0.14
433.435	0.14
433.793	0.15
434.151	0.14
434.509	0.14
434.866	0.14
435.224	0.15
435.582	0.14
435.94	0.15
436.297	0.15
436.655	0.15
437.012	0.14
437.37	0.15
437.727	0.14
438.085	0.13
438.442	0.13
438.8	0.14
439.157	0.14
439.514	0.14
439.872	0.14
440.229	0.14
440.586	0.14
440.943	0.14
441.3	0.15
441.657	0.15
442.014	0.14
442.371	0.14
442.728	0.14
443.085	0.14
443.442	0.13
443.799	0.14
444.156	0.14
444.513	0.14
444.869	0.14
445.226	0.15
445.583	0.15
445.939	0.15
446.296	0.14
446.652	0.15
447.009	0.15
447.365	0.15
447.722	0.15
448.078	0.15
448.434	0.15
448.791	0.15
449.147	0.15
449.503	0.14
449.859	0.15
450.215	0.14
450.571	0.15
450.928	0.14
451.284	0.15
451.64	0.14
451.995	0.15
452.351	0.15
452.707	0.15
453.063	0.14
453.419	0.14
453.775	0.14
454.13	0.14
454.486	0.15
454.842	0.13
455.197	0.14
455.553	0.14
455.908	0.13
456.264	0.13
456.619	0.14
456.975	0.14
457.33	0.14
457.685	0.13
458.04	0.13
458.396	0.12
458.751	0.13
459.106	0.12
459.461	0.12
459.816	0.11
460.171	0.12
460.526	0.13
460.881	0.1
461.236	0.1
461.591	0.11
461.946	0.11
462.301	0.11
462.655	0.09
463.01	0.11
463.365	0.1
463.719	0.09
464.074	0.09
464.428	0.07
464.783	0.08
465.137	0.08
465.492	0.08
465.846	0.07
466.201	0.08
466.555	0.08
466.909	0.08
467.263	0.09
467.618	0.1
467.972	0.1
468.326	0.09
468.68	0.08
469.034	0.09
469.388	0.08
469.742	0.08
470.096	0.09
470.45	0.1
470.804	0.1
471.157	0.1
471.511	0.1
471.865	0.09
472.218	0.11
472.572	0.12
472.926	0.12
473.279	0.12
473.633	0.13
473.986	0.15
474.34	0.15
474.693	0.16
475.046	0.16
475.4	0.17
475.753	0.19
476.106	0.19
476.459	0.2
476.812	0.21
477.165	0.22
477.519	0.23
477.872	0.23
478.224	0.24
478.577	0.25
478.93	0.26
479.283	0.26
479.636	0.26
479.989	0.28
480.341	0.28
480.694	0.29
481.047	0.29
481.399	0.31
481.752	0.31
482.104	0.32
482.457	0.33
482.809	0.33
483.162	0.33
483.514	0.34
483.866	0.35
484.219	0.35
484.571	0.35
484.923	0.36
485.275	0.36
485.627	0.37
485.979	0.37
486.331	0.38
486.683	0.39
487.035	0.39
487.387	0.4
487.739	0.41
488.091	0.41
488.443	0.42
488.794	0.42
489.146	0.42
489.498	0.42
489.849	0.43
490.201	0.43
490.552	0.44
490.904	0.43
491.255	0.45
491.607	0.45
491.958	0.45
492.309	0.45
492.661	0.46
493.012	0.47
493.363	0.47
493.714	0.47
494.065	0.47
494.416	0.48
494.767	0.49
495.118	0.49
495.469	0.5
495.82	0.5
496.171	0.51
496.522	0.51
496.872	0.52
497.223	0.52
497.574	0.52
497.924	0.53
498.275	0.53
498.626	0.54
498.976	0.54
499.327	0.55
499.677	0.55
500.027	0.55
500.378	0.56
500.728	0.56
501.078	0.57
501.428	0.58
501.779	0.58
502.129	0.58
502.479	0.58
502.829	0.59
503.179	0.59
503.529	0.6
503.879	0.6
504.229	0.6
504.578	0.61
504.928	0.61
505.278	0.61
505.628	0.62
505.977	0.62
506.327	0.63
506.676	0.63
507.026	0.64
507.375	0.64
507.725	0.64
508.074	0.64
508.424	0.64
508.773	0.65
509.122	0.65
509.471	0.67
509.82	0.66
510.17	0.67
510.519	0.67
510.868	0.67
511.217	0.68
511.566	0.68
511.915	0.69
512.263	0.7
512.612	0.69
512.961	0.7
513.31	0.71
513.659	0.7
514.007	0.71
514.356	0.71
514.704	0.71
515.053	0.72
515.401	0.72
515.75	0.73
516.098	0.73
516.447	0.73
516.795	0.73
517.143	0.74
517.491	0.74
517.839	0.74
518.188	0.74
518.536	0.75
518.884	0.75
519.232	0.75
519.58	0.76
519.928	0.77
520.275	0.76
520.623	0.77
520.971	0.77
521.319	0.78
521.666	0.78
522.014	0.78
522.362	0.78
522.709	0.78
523.057	0.79
523.404	0.78
523.752	0.8
524.099	0.79
524.446	0.8
524.794	0.79
525.141	0.81
525.488	0.8
525.835	0.8
526.182	0.8
526.529	0.81
526.876	0.81
527.223	0.82
527.57	0.81
527.917	0.82
528.264	0.82
528.611	0.82
528.958	0.82
529.304	0.83
529.651	0.82
529.998	0.84
530.344	0.84
530.691	0.84
531.037	0.84
531.384	0.84
531.73	0.84
532.076	0.85
532.423	0.84
532.769	0.85
533.115	0.85
533.461	0.85
533.807	0.86
534.154	0.85
534.5	0.86
534.846	0.86
535.192	0.87
535.537	0.86
535.883	0.86
536.229	0.87
536.575	0.87
536.921	0.87
537.266	0.87
537.612	0.88
537.957	0.87
538.303	0.87
538.649	0.88
538.994	0.87
539.339	0.88
539.685	0.88
540.03	0.89
540.375	0.88
540.721	0.89
541.066	0.89
541.411	0.89
541.756	0.89
542.101	0.89
542.446	0.89
542.791	0.89
543.136	0.89
543.481	0.89
543.825	0.89
544.17	0.89
544.515	0.9
544.86	0.89
545.204	0.9
545.549	0.9
545.893	0.9
546.238	0.89
546.582	0.9
546.927	0.9
547.271	0.9
547.615	0.9
547.96	0.89
548.304	0.9
548.648	0.91
548.992	0.91
549.336	0.9
549.68	0.9
550.024	0.91
550.368	0.91
550.712	0.9
551.056	0.91
551.4	0.91
551.743	0.91
552.087	0.9
552.431	0.91
552.774	0.91
553.118	0.91
553.462	0.91
553.805	0.9
554.148	0.91
554.492	0.9
554.835	0.9
555.178	0.9
555.522	0.9
555.865	0.91
556.208	0.9
556.551	0.9
556.894	0.9
557.237	0.9
557.58	0.91
557.923	0.9
558.266	0.89
558.609	0.9
558.952	0.89
559.294	0.9
559.637	0.89
559.98	0.9
560.322	0.9
560.665	0.89
561.007	0.89
561.35	0.89
561.692	0.88
562.034	0.89
562.377	0.89
562.719	0.88
563.061	0.88
563.403	0.88
563.745	0.88
564.088	0.89
564.43	0.88
564.772	0.88
565.113	0.88
565.455	0.88
565.797	0.88
566.139	0.88
566.481	0.88
566.822	0.88
567.164	0.88
567.506	0.87
567.847	0.87
568.189	0.88
568.53	0.88
568.872	0.87
569.213	0.87
569.554	0.86
569.895	0.86
570.237	0.86
570.578	0.86
570.919	0.86
571.26	0.86
571.601	0.86
571.942	0.85
572.283	0.85
572.624	0.85
572.965	0.84
573.306	0.84
573.646	0.85
573.987	0.84
574.328	0.84
574.668	0.84
575.009	0.83
575.349	0.83
575.69	0.83
576.03	0.83
576.37	0.82
576.711	0.82
577.051	0.82
577.391	0.82
577.731	0.82
578.072	0.82
578.412	0.82
578.752	0.82
579.092	0.81
579.431	0.8
579.771	0.78
580.111	0.77
580.451	0.79
580.791	0.8
581.13	0.81
581.47	0.8
581.81	0.8
582.149	0.8
582.489	0.8
582.828	0.78
583.167	0.75
583.507	0.72
583.846	0.71
584.185	0.75
584.525	0.77
584.864	0.79
585.203	0.79
585.542	0.79
585.881	0.79
586.22	0.78
586.559	0.78
586.898	0.76
587.236	0.76
587.575	0.77
587.914	0.77
588.252	0.78
588.591	0.78
588.93	0.78
589.268	0.77
589.607	0.77
589.945	0.77
590.283	0.77
590.622	0.78
590.96	0.78
591.298	0.78
591.636	0.78
591.974	0.78
592.313	0.78
592.651	0.78
592.989	0.77
593.326	0.78
593.664	0.77
594.002	0.78
594.34	0.77
594.678	0.76
595.015	0.76
595.353	0.76
595.691	0.77
596.028	0.77
596.366	0.77
596.703	0.77
597.04	0.77
597.378	0.77
597.715	0.77
598.052	0.77
598.389	0.77
598.726	0.77
599.064	0.77
599.401	0.77
599.738	0.77
600.074	0.77
600.411	0.76
600.748	0.76
601.085	0.76
601.422	0.75
601.758	0.75
602.095	0.75
602.432	0.75
602.768	0.75
603.105	0.76
603.441	0.76
603.777	0.76
604.114	0.75
604.45	0.76
604.786	0.75
605.122	0.75
605.459	0.74
605.795	0.74
606.131	0.74
606.467	0.74
606.803	0.74
607.139	0.74
607.474	0.74
607.81	0.74
608.146	0.73
608.482	0.73
608.817	0.73
609.153	0.72
609.488	0.72
609.824	0.72
610.159	0.72
610.495	0.72
610.83	0.72
611.165	0.71
611.5	0.71
611.836	0.7
612.171	0.7
612.506	0.7
612.841	0.7
613.176	0.7
613.511	0.7
613.845	0.69
614.18	0.69
614.515	0.69
614.85	0.69
615.184	0.69
615.519	0.69
615.854	0.69
616.188	0.68
616.523	0.68
616.857	0.68
617.191	0.67
617.526	0.67
617.86	0.67
618.194	0.66
618.528	0.67
618.862	0.67
619.196	0.66
619.53	0.66
619.864	0.65
620.198	0.65
620.532	0.65
620.866	0.66
621.2	0.65
621.533	0.65
621.867	0.65
622.201	0.64
622.534	0.63
622.868	0.63
623.201	0.63
623.534	0.63
623.868	0.62
624.201	0.62
624.534	0.62
624.868	0.62
625.201	0.62
625.534	0.61
625.867	0.61
626.2	0.61
626.533	0.61
626.865	0.61
627.198	0.6
627.531	0.6
627.864	0.59
628.196	0.59
628.529	0.59
628.862	0.59
629.194	0.58
629.527	0.58
629.859	0.58
630.191	0.58
630.524	0.57
630.856	0.57
631.188	0.57
631.52	0.56
631.852	0.56
632.184	0.55
632.516	0.55
632.848	0.54
633.18	0.55
633.512	0.54
633.844	0.54
634.175	0.53
634.507	0.53
634.839	0.52
635.17	0.53
635.502	0.52
635.833	0.52
636.165	0.51
636.496	0.51
636.827	0.51
637.159	0.51
637.49	0.5
637.821	0.5
638.152	0.5
638.483	0.49
638.814	0.49
639.145	0.49
639.476	0.48
639.807	0.48
640.137	0.47
640.468	0.47
640.799	0.47
641.129	0.46
641.46	0.46
641.791	0.46
642.121	0.46
642.451	0.45
642.782	0.45
643.112	0.45
643.442	0.45
643.773	0.44
644.103	0.44
644.433	0.44
644.763	0.44
645.093	0.44
645.423	0.44
645.753	0.43
646.082	0.43
646.412	0.43
646.742	0.43
647.072	0.42
647.401	0.42
647.731	0.42
648.06	0.42
648.39	0.42
648.719	0.41
649.048	0.42
649.378	0.41
649.707	0.41
650.036	0.4
650.365	0.4
650.694	0.4
651.023	0.4
651.352	0.4
651.681	0.4
652.01	0.4
652.339	0.39
652.668	0.39
652.996	0.39
653.325	0.39
653.654	0.39
653.982	0.39
654.311	0.39
654.639	0.38
654.967	0.38
655.296	0.38
655.624	0.38
655.952	0.38
656.28	0.38
656.609	0.38
656.937	0.38
657.265	0.36
657.593	0.2
657.92	0.11
658.248	0.09
658.576	0.16
658.904	0.28
659.231	0.36
659.559	0.37
659.887	0.37
660.214	0.36
660.542	0.36
660.869	0.36
661.196	0.36
661.524	0.36
661.851	0.35
662.178	0.35
662.505	0.35
662.832	0.35
663.159	0.35
663.486	0.35
663.813	0.35
664.14	0.34
664.467	0.34
664.794	0.34
665.12	0.34
665.447	0.34
665.774	0.34
666.1	0.33
666.427	0.33
666.753	0.33
667.079	0.33
667.406	0.32
667.732	0.33
668.058	0.32
668.384	0.32
668.71	0.32
669.036	0.32
669.362	0.32
669.688	0.32
670.014	0.31
670.34	0.31
670.666	0.31
670.991	0.31
671.317	0.3
671.643	0.3
671.968	0.3
672.294	0.3
672.619	0.3
672.945	0.3
673.27	0.29
673.595	0.29
673.92	0.28
674.246	0.28
674.571	0.29
674.896	0.28
675.221	0.28
675.546	0.27
675.87	0.27
676.195	0.27
676.52	0.27
676.845	0.27
677.169	0.27
677.494	0.26
677.819	0.26
678.143	0.26
678.468	0.25
678.792	0.26
679.116	0.26
679.44	0.25
679.765	0.25
680.089	0.24
680.413	0.24
680.737	0.24
681.061	0.24
681.385	0.23
681.709	0.23
682.033	0.23
682.356	0.23
682.68	0.23
683.004	0.22
683.327	0.22
683.651	0.22
683.974	0.21
684.298	0.21
684.621	0.21
684.944	0.21
685.268	0.2
685.591	0.2
685.914	0.2
686.237	0.2
686.56	0.19
686.883	0.19
687.206	0.19
687.529	0.19
687.852	0.18
688.175	0.19
688.497	0.19
688.82	0.18
689.142	0.18
689.465	0.18
689.787	0.18
690.11	0.18
690.432	0.17
690.755	0.17
691.077	0.17
691.399	0.16
691.721	0.16
692.043	0.16
692.365	0.16
692.687	0.16
693.009	0.15
693.331	0.15
693.653	0.15
693.974	0.15
694.296	0.15
694.618	0.14
694.939	0.14
695.261	0.14
695.582	0.14
695.904	0.14
696.225	0.14
696.546	0.14
696.868	0.14
697.189	0.14
697.51	0.13
697.831	0.13
698.152	0.13
698.473	0.13
698.794	0.12
699.114	0.12
699.435	0.11
699.756	0.12
700.077	0.12
700.397	0.12
700.718	0.12
701.038	0.12
701.359	0.12
701.679	0.12
701.999	0.12
702.32	0.11
702.64	0.11
702.96	0.11
703.28	0.12
703.6	0.11
703.92	0.11
704.24	0.11
704.56	0.1
704.879	0.1
705.199	0.11
705.519	0.11
705.838	0.1
706.158	0.11
706.478	0.11
706.797	0.11
707.116	0.11
707.436	0.11
707.755	0.11
708.074	0.11
708.393	0.1
708.712	0.09
709.031	0.08
709.35	0.08
709.669	0.09
709.988	0.09
710.307	0.09
710.626	0.09
710.944	0.1
711.263	0.1
711.582	0.1
711.9	0.1
712.219	0.1
712.537	0.1
712.855	0.1
713.174	0.1
713.492	0.1
713.81	0.1
714.128	0.1
714.446	0.1
714.764	0.09
715.082	0.09
715.4	0.09
715.718	0.09
716.035	0.09
716.353	0.1
716.671	0.09
716.988	0.1
717.306	0.09
717.623	0.1
717.941	0.1
718.258	0.11
718.575	0.11
718.893	0.11
719.21	0.1
719.527	0.1
719.844	0.1
720.161	0.1
720.478	0.1
720.795	0.1
721.112	0.1
721.428	0.11
721.745	0.11
722.062	0.11
722.378	0.11
722.695	0.11
723.011	0.11
723.328	0.11
723.644	0.11
723.96	0.11
724.276	0.11
724.593	0.11
724.909	0.11
725.225	0.11
725.541	0.11
725.857	0.11
726.173	0.11
726.488	0.11
726.804	0.1
727.12	0.1
727.435	0.1
727.751	0.1
728.067	0.1
728.382	0.1
728.697	0.1
729.013	0.11
729.328	0.1
729.643	0.1
729.958	0.1
730.273	0.1
730.588	0.1
730.903	0.1
731.218	0.1
731.533	0.1
731.848	0.1
732.163	0.1
732.477	0.1
732.792	0.1
733.107	0.09
733.421	0.1
733.736	0.1
734.05	0.1
734.364	0.09
734.678	0.1
734.993	0.09
735.307	0.1
735.621	0.09
735.935	0.09
736.249	0.09
736.563	0.09
736.877	0.1
737.19	0.1
737.504	0.1
737.818	0.1
738.131	0.1
738.445	0.1
738.758	0.1
739.072	0.1
739.385	0.1
739.698	0.1
740.012	0.1
740.325	0.1
740.638	0.09
740.951	0.09
741.264	0.09
741.577	0.09
741.89	0.09
742.203	0.09
742.515	0.09
742.828	0.09
743.141	0.09
743.453	0.09
743.766	0.09
744.078	0.09
744.391	0.09
744.703	0.08
745.015	0.08
745.327	0.09
745.639	0.09
745.952	0.08
746.264	0.09
746.575	0.09
746.887	0.08
747.199	0.08
747.511	0.08
747.823	0.08
748.134	0.08
748.446	0.08
748.757	0.08
749.069	0.07
749.38	0.07
749.692	0.07
750.003	0.07
750.314	0.06
750.625	0.06
750.936	0.06
751.248	0.07
751.559	0.07
751.869	0.07
752.18	0.07
752.491	0.07
752.802	0.06
753.112	0.06
753.423	0.06
753.734	0.06
754.044	0.06
754.355	0.06
754.665	0.06
754.975	0.05
755.285	0.05
755.596	0.06
755.906	0.05
756.216	0.05
756.526	0.06
756.836	0.05
757.146	0.06
757.455	0.05
757.765	0.05
758.075	0.05
758.385	0.05
758.694	0.05
759.004	0.05
759.313	0.05
759.622	0.05
759.932	0.05
760.241	0.05
760.55	0.05
760.859	0.05
761.168	0.06
761.477	0.05
761.786	0.05
762.095	0.05
762.404	0.05
762.713	0.05
763.021	0.05
763.33	0.05
763.639	0.06
763.947	0.05
764.256	0.05
764.564	0.05
764.872	0.05
765.181	0.05
765.489	0.05
765.797	0.05
766.105	0.04
766.413	0.04
766.721	0.05
767.029	0.05
767.337	0.05
767.644	0.05
767.952	0.05
768.26	0.05
768.567	0.05
768.875	0.05
769.182	0.05
769.49	0.05
769.797	0.05
770.104	0.05
770.411	0.05
770.718	0.05
771.026	0.04
771.333	0.04
771.639	0.04
771.946	0.04
772.253	0.05
772.56	0.05
772.867	0.05
773.173	0.05
773.48	0.05
773.786	0.05
774.093	0.05
774.399	0.05
774.705	0.05
775.012	0.05
775.318	0.05
775.624	0.05
775.93	0.05
776.236	0.05
776.542	0.06
776.848	0.06
777.154	0.06
777.459	0.06
777.765	0.06
778.071	0.05
778.376	0.05
778.682	0.05
778.987	0.05
779.292	0.05
779.598	0.05
779.903	0.05
780.208	0.04
780.513	0.05
780.818	0.05
781.123	0.05
781.428	0.05
781.733	0.05
782.038	0.05
782.343	0.05
782.647	0.05
782.952	0.04
783.256	0.05
783.561	0.04
783.865	0.04
784.17	0.04
784.474	0.04
784.778	0.04
785.082	0.04
785.386	0.04
785.69	0.05
785.994	0.05
786.298	0.05
786.602	0.05
786.906	0.05
787.209	0.05
787.513	0.05
787.817	0.06
788.12	0.06
788.424	0.06
788.727	0.06
789.03	0.06
789.333	0.06
789.637	0.06
789.94	0.06
790.243	0.06
790.546	0.06
790.849	0.06
791.152	0.06
791.454	0.06
791.757	0.06
792.06	0.06
792.362	0.06
792.665	0.06
792.967	0.06
793.27	0.06
793.572	0.06
793.874	0.06
794.177	0.06
794.479	0.06
794.781	0.06
795.083	0.07
795.385	0.07
795.687	0.07
795.989	0.07
796.29	0.07
796.592	0.07
796.894	0.07
797.195	0.07
797.497	0.07
797.798	0.07
798.1	0.07
798.401	0.07
798.702	0.07
799.003	0.06
799.304	0.06
799.605	0.06
799.906	0.06
800.207	0.06
800.508	0.07
800.809	0.06
801.11	0.07
801.41	0.07
801.711	0.07
802.011	0.07
802.312	0.08
802.612	0.07
802.913	0.07
803.213	0.07
803.513	0.07
803.813	0.07
804.113	0.07
804.413	0.07
804.713	0.08
805.013	0.08
805.313	0.08
805.613	0.08
805.912	0.08
806.212	0.08
806.511	0.08
806.811	0.08
807.11	0.07
807.41	0.08
807.709	0.08
808.008	0.08
808.307	0.08
808.606	0.08
808.905	0.08
809.204	0.08
809.503	0.08
809.802	0.08
810.101	0.08
810.399	0.08
810.698	0.08
810.997	0.08
811.295	0.08
811.593	0.08
811.892	0.09
812.19	0.09
812.488	0.08
812.786	0.08
813.084	0.08
813.383	0.08
813.68	0.08
813.978	0.09
814.276	0.09
814.574	0.09
814.872	0.09
815.169	0.09
815.467	0.08
815.764	0.08
816.062	0.08
816.359	0.08
816.656	0.08
816.954	0.08
817.251	0.09
817.548	0.09
817.845	0.09
818.142	0.09
818.439	0.1
818.735	0.09
819.032	0.1
819.329	0.1
819.626	0.1
819.922	0.1
820.219	0.1
820.515	0.1
820.811	0.1
821.108	0.1
821.404	0.1
821.7	0.1
821.996	0.1
822.292	0.1
822.588	0.1
822.884	0.1
823.18	0.11
823.475	0.11
823.771	0.11
824.067	0.11
824.362	0.11
824.658	0.11
824.953	0.11
825.249	0.11
825.544	0.1
825.839	0.11
826.134	0.11
826.429	0.1
826.724	0.11
827.019	0.1
827.314	0.11
827.609	0.11
827.904	0.11
828.198	0.11
828.493	0.11
828.787	0.11
829.082	0.11
829.376	0.12
829.671	0.12
829.965	0.12
830.259	0.12
830.553	0.12
830.847	0.12
831.141	0.12
831.435	0.13
831.729	0.12
832.023	0.12
832.317	0.13
832.61	0.13
832.904	0.12
833.197	0.12
833.491	0.12
833.784	0.13
834.077	0.13
834.371	0.13
834.664	0.13
834.957	0.13
835.25	0.12
835.543	0.13
835.836	0.13
836.129	0.13
836.421	0.13
836.714	0.12
837.007	0.13
837.299	0.12
837.592	0.12
837.884	0.13
838.177	0.13
838.469	0.13
838.761	0.13
839.053	0.13
839.345	0.14
839.637	0.13
839.929	0.13
840.221	0.14
840.513	0.13
840.805	0.14
841.096	0.14
841.388	0.14
841.68	0.14
841.971	0.14
842.262	0.14
842.554	0.14
842.845	0.13
843.136	0.13
843.427	0.15
843.718	0.14
844.009	0.14
844.3	0.14
844.591	0.14
844.882	0.15
845.173	0.15
845.463	0.14
845.754	0.15
846.044	0.14
846.335	0.14
846.625	0.15
846.915	0.14
847.206	0.14
847.496	0.15
847.786	0.15
848.076	0.14
848.366	0.14
848.656	0.14
848.945	0.15
849.235	0.13
849.525	0.15
849.814	0.14
850.104	0.13
850.393	0.15
850.683	0.16
850.972	0.15
851.261	0.15
851.551	0.16
851.84	0.16
852.129	0.15
852.418	0.15
852.707	0.16
852.995	0.15
853.284	0.15
853.573	0.15
853.862	0.14
854.15	0.16
854.439	0.15
854.727	0.14
855.015	0.15
855.304	0.16
855.592	0.16
855.88	0.15
856.168	0.16
856.456	0.15
856.744	0.14
857.032	0.15
857.32	0.16
857.607	0.15
857.895	0.16
858.183	0.16
858.47	0.16
858.757	0.15
859.045	0.16
859.332	0.16
859.619	0.17
859.907	0.17
860.194	0.15
860.481	0.17
860.768	0.17
861.054	0.15
861.341	0.18
861.628	0.17
861.915	0.17
862.201	0.17
862.488	0.16
862.774	0.18
863.061	0.19
863.347	0.18
863.633	0.18
863.919	0.15
864.205	0.17
864.491	0.17
864.777	0.17
865.063	0.16
865.349	0.17
865.635	0.15
865.92	0.19
866.206	0.16
866.492	0.17
866.777	0.19
867.062	0.17
867.348	0.17
867.633	0.14
867.918	0.18
868.203	0.17
868.488	0.17
868.773	0.23
869.058	0.23
869.343	0.19
869.628	0.19
869.912	0.19
870.197	0.16
870.482	0.16
870.766	0.19
871.05	0.17
871.335	0.15
871.619	0.17
871.903	0.18
872.187	0.2
872.471	0.23
872.755	0.2
873.039	0.14
873.323	0.16
873.607	0.24
873.89	0.24
874.174	0.18
874.458	0.18
874.741	0.19
875.024	0.26
875.308	0.19
875.591	0.24
875.874	0.22
876.157	0.14
876.44	0.13
876.723	0.15
877.006	0.18
877.289	0.12
877.572	0.2
877.854	0.15
878.137	0.07
878.42	0.09
878.702	0.06
878.984	0.32
879.267	0.21
879.549	0.14
879.831	0.06
880.113	0.15
880.395	0.2
880.677	0.07
880.959	0.24
