Data from Rubpy_BV_1800_EDTA_Buffered_Absorbance_15-18-22-513.txt Node
Date: Wed Jul 01 15:18:22 BST 2026
User: fpm-admin
Spectrometer: OFX00224
Trigger mode: 0
Integration Time (sec): 7.000000E-2
Scans to average: 3
Nonlinearity correction enabled: false
Boxcar width: 0
Storing dark spectrum: false
XAxis mode: Wavelengths
Number of Pixels in Spectrum: 2136
>>>>>Begin Spectral Data<<<<<
154.91	-0.53
155.289	-0.06
155.669	-0.97
156.048	-0
156.428	0.28
156.807	-0
157.186	-0
157.566	-0.54
157.945	-0
158.325	-0
158.704	-0
159.083	-0.72
159.462	-0
159.842	-0
160.221	-1
160.6	0.02
160.979	0.27
161.359	-0
161.738	-0.02
162.117	-0.17
162.496	-0.15
162.875	-0.37
163.254	0.54
163.633	-0
164.012	1
164.391	-1.04
164.77	-0.86
165.149	-0
165.528	-0
165.907	-0.81
166.286	-0.19
166.665	0.34
167.044	0.79
167.423	-0.16
167.802	-0
168.181	-0.04
168.559	-0.48
168.938	-0.56
169.317	-0
169.696	-0
170.074	-0.29
170.453	-0
170.832	-0.6
171.21	0.3
171.589	-0
171.968	-0
172.346	-0
172.725	-0
173.103	0.14
173.482	0.31
173.861	-0
174.239	-0
174.617	-0
174.996	0.43
175.374	0.26
175.753	0.85
176.131	-0
176.51	-0.13
176.888	-0.04
177.266	-0
177.645	-0.05
178.023	0.59
178.401	0.1
178.779	-0.29
179.158	-1.36
179.536	-0.73
179.914	-0.41
180.292	0.54
180.67	-0.27
181.048	-0
181.427	-0
181.805	-0
182.183	-0
182.561	-0
182.939	0.37
183.317	-0
183.695	-0
184.073	0.08
184.451	0.53
184.829	-0
185.206	-0.14
185.584	0.9
185.962	-0
186.34	0.34
186.718	-0
187.096	-0.63
187.473	-0
187.851	-0
188.229	-0
188.607	0.32
188.984	0.34
189.362	0.26
189.74	0.48
190.117	0.29
190.495	0.35
190.872	0.54
191.25	0.25
191.627	0.41
192.005	0.24
192.382	0.29
192.76	0.24
193.137	0.48
193.515	0.41
193.892	0.29
194.269	0.45
194.647	0.39
195.024	0.21
195.401	0.48
195.779	0.39
196.156	0.19
196.533	0.37
196.91	0.32
197.288	0.27
197.665	0.24
198.042	0.43
198.419	0.35
198.796	0.25
199.173	0.33
199.55	0.32
199.927	0.33
200.304	0.28
200.681	0.41
201.058	0.29
201.435	0.36
201.812	0.24
202.189	0.34
202.566	0.37
202.943	0.17
203.32	0.43
203.697	0.39
204.073	0.31
204.45	0.39
204.827	0.5
205.204	0.43
205.58	0.37
205.957	0.39
206.334	0.26
206.71	0.49
207.087	0.47
207.464	0.37
207.84	0.48
208.217	0.33
208.593	0.37
208.97	0.36
209.346	0.28
209.723	0.34
210.099	0.35
210.476	0.36
210.852	0.33
211.228	0.5
211.605	0.4
211.981	0.63
212.357	0.37
212.733	0.65
213.11	0.4
213.486	0.33
213.862	0.35
214.238	0.55
214.614	0.46
214.991	0.47
215.367	0.36
215.743	0.49
216.119	0.37
216.495	0.34
216.871	0.37
217.247	0.25
217.623	0.31
217.999	0.32
218.375	0.26
218.751	0.38
219.127	0.36
219.502	0.3
219.878	0.31
220.254	0.36
220.63	0.32
221.006	0.38
221.381	0.29
221.757	0.24
222.133	0.58
222.508	0.41
222.884	0.42
223.26	0.32
223.635	0.34
224.011	0.38
224.386	0.3
224.762	0.36
225.137	0.32
225.513	0.31
225.888	0.33
226.264	0.45
226.639	0.38
227.014	0.25
227.39	0.49
227.765	0.3
228.14	0.51
228.516	0.48
228.891	0.35
229.266	0.22
229.641	0.36
230.017	0.28
230.392	0.31
230.767	0.41
231.142	0.32
231.517	0.33
231.892	0.25
232.267	0.43
232.642	0.54
233.017	0.54
233.392	0.33
233.767	0.46
234.142	0.33
234.517	0.4
234.892	0.39
235.267	0.29
235.641	0.3
236.016	0.46
236.391	0.38
236.766	0.4
237.14	0.52
237.515	0.43
237.89	0.29
238.264	0.32
238.639	0.21
239.014	0.43
239.388	0.4
239.763	0.41
240.137	0.41
240.512	0.27
240.886	0.41
241.261	0.47
241.635	0.27
242.009	0.26
242.384	0.33
242.758	0.3
243.132	0.44
243.507	0.39
243.881	0.33
244.255	0.26
244.629	0.46
245.004	0.36
245.378	0.39
245.752	0.47
246.126	0.37
246.5	0.38
246.874	0.43
247.248	0.48
247.622	0.51
247.996	0.35
248.37	0.32
248.744	0.4
249.118	0.38
249.492	0.4
249.866	0.43
250.24	0.41
250.613	0.42
250.987	0.47
251.361	0.4
251.735	0.22
252.108	0.31
252.482	0.34
252.856	0.19
253.229	0.28
253.603	0.23
253.977	0.4
254.35	0.38
254.724	0.35
255.097	0.28
255.471	0.38
255.844	0.34
256.218	0.3
256.591	0.33
256.964	0.35
257.338	0.41
257.711	0.5
258.084	0.26
258.458	0.34
258.831	0.45
259.204	0.5
259.577	0.43
259.95	0.32
260.323	0.3
260.697	0.4
261.07	0.35
261.443	0.3
261.816	0.36
262.189	0.42
262.562	0.41
262.935	0.43
263.308	0.34
263.68	0.6
264.053	0.25
264.426	0.45
264.799	0.5
265.172	0.41
265.545	0.45
265.917	0.36
266.29	0.41
266.663	0.47
267.035	0.29
267.408	0.45
267.781	0.53
268.153	0.33
268.526	0.37
268.898	0.47
269.271	0.35
269.643	0.56
270.016	0.33
270.388	0.43
270.76	0.66
271.133	0.48
271.505	0.41
271.877	0.39
272.25	0.42
272.622	0.43
272.994	0.55
273.366	0.33
273.739	0.24
274.111	0.39
274.483	0.46
274.855	0.43
275.227	0.34
275.599	0.28
275.971	0.44
276.343	0.46
276.715	0.36
277.087	0.39
277.459	0.31
277.831	0.44
278.203	0.51
278.574	0.36
278.946	0.59
279.318	0.43
279.69	0.38
280.061	0.31
280.433	0.37
280.805	0.38
281.176	0.38
281.548	0.4
281.92	0.28
282.291	0.33
282.663	0.37
283.034	0.3
283.406	0.38
283.777	0.37
284.148	0.32
284.52	0.42
284.891	0.41
285.262	0.43
285.634	0.35
286.005	0.42
286.376	0.43
286.747	0.36
287.119	0.48
287.49	0.34
287.861	0.39
288.232	0.39
288.603	0.41
288.974	0.37
289.345	0.28
289.716	0.34
290.087	0.36
290.458	0.42
290.829	0.46
291.2	0.47
291.571	0.41
291.941	0.41
292.312	0.36
292.683	0.37
293.054	0.43
293.424	0.4
293.795	0.37
294.166	0.39
294.536	0.38
294.907	0.45
295.277	0.3
295.648	0.37
296.018	0.33
296.389	0.33
296.759	0.35
297.13	0.35
297.5	0.36
297.871	0.39
298.241	0.33
298.611	0.5
298.981	0.42
299.352	0.43
299.722	0.45
300.092	0.36
300.462	0.51
300.832	0.38
301.202	0.46
301.573	0.42
301.943	0.39
302.313	0.47
302.683	0.44
303.053	0.35
303.422	0.37
303.792	0.37
304.162	0.34
304.532	0.3
304.902	0.36
305.272	0.37
305.641	0.34
306.011	0.38
306.381	0.34
306.75	0.32
307.12	0.34
307.49	0.35
307.859	0.38
308.229	0.35
308.598	0.39
308.968	0.32
309.337	0.3
309.707	0.28
310.076	0.35
310.445	0.28
310.815	0.32
311.184	0.34
311.553	0.29
311.923	0.32
312.292	0.32
312.661	0.32
313.03	0.31
313.399	0.29
313.768	0.33
314.137	0.31
314.506	0.33
314.875	0.32
315.244	0.33
315.613	0.33
315.982	0.36
316.351	0.36
316.72	0.36
317.089	0.35
317.458	0.35
317.826	0.36
318.195	0.38
318.564	0.38
318.933	0.38
319.301	0.39
319.67	0.41
320.038	0.4
320.407	0.41
320.775	0.41
321.144	0.43
321.512	0.42
321.881	0.44
322.249	0.44
322.618	0.43
322.986	0.45
323.354	0.44
323.723	0.46
324.091	0.46
324.459	0.47
324.827	0.46
325.195	0.48
325.564	0.49
325.932	0.51
326.3	0.51
326.668	0.52
327.036	0.52
327.404	0.53
327.772	0.54
328.14	0.54
328.508	0.54
328.875	0.54
329.243	0.57
329.611	0.57
329.979	0.59
330.346	0.59
330.714	0.59
331.082	0.61
331.449	0.61
331.817	0.62
332.185	0.64
332.552	0.66
332.92	0.67
333.287	0.68
333.655	0.7
334.022	0.71
334.389	0.72
334.757	0.73
335.124	0.74
335.491	0.77
335.859	0.78
336.226	0.78
336.593	0.8
336.96	0.83
337.327	0.83
337.695	0.84
338.062	0.86
338.429	0.88
338.796	0.88
339.163	0.92
339.53	0.92
339.897	0.93
340.263	0.95
340.63	0.97
340.997	0.99
341.364	1
341.731	1.02
342.097	1.03
342.464	1.06
342.831	1.09
343.197	1.08
343.564	1.1
343.931	1.12
344.297	1.14
344.664	1.17
345.03	1.17
345.396	1.18
345.763	1.21
346.129	1.23
346.496	1.23
346.862	1.26
347.228	1.27
347.594	1.27
347.961	1.3
348.327	1.32
348.693	1.34
349.059	1.35
349.425	1.35
349.791	1.37
350.157	1.42
350.523	1.4
350.889	1.44
351.255	1.43
351.621	1.45
351.987	1.46
352.353	1.5
352.719	1.5
353.084	1.5
353.45	1.53
353.816	1.55
354.181	1.58
354.547	1.59
354.913	1.59
355.278	1.6
355.644	1.64
356.009	1.63
356.375	1.65
356.74	1.7
357.106	1.66
357.471	1.68
357.836	1.71
358.202	1.75
358.567	1.78
358.932	1.79
359.297	1.78
359.663	1.81
360.028	1.88
360.393	1.83
360.758	1.87
361.123	1.87
361.488	1.96
361.853	1.97
362.218	1.94
362.583	1.98
362.948	1.95
363.312	1.93
363.677	1.99
364.042	1.99
364.407	1.94
364.772	2.01
365.136	2
365.501	2.02
365.865	2
366.23	1.97
366.595	2.06
366.959	2.04
367.324	2.06
367.688	2.07
368.052	2.06
368.417	2.13
368.781	2.08
369.145	2.1
369.51	2.13
369.874	2.11
370.238	2.1
370.602	2.15
370.967	2.19
371.331	2.07
371.695	2.05
372.059	2.08
372.423	2.05
372.787	2.12
373.151	2.07
373.515	2.08
373.878	2.02
374.242	2.09
374.606	2.2
374.97	2.04
375.334	2.11
375.697	2.09
376.061	2.05
376.425	2.04
376.788	2.03
377.152	2.07
377.515	2.05
377.879	1.99
378.242	1.99
378.606	2.02
378.969	1.97
379.333	1.98
379.696	1.97
380.059	1.96
380.422	1.93
380.786	1.94
381.149	1.93
381.512	1.9
381.875	1.87
382.238	1.85
382.601	1.82
382.964	1.85
383.327	1.83
383.69	1.78
384.053	1.76
384.416	1.76
384.779	1.72
385.142	1.72
385.504	1.68
385.867	1.67
386.23	1.66
386.593	1.64
386.955	1.68
387.318	1.63
387.68	1.63
388.043	1.64
388.405	1.63
388.768	1.6
389.13	1.62
389.493	1.59
389.855	1.56
390.217	1.56
390.58	1.54
390.942	1.53
391.304	1.53
391.666	1.5
392.028	1.48
392.391	1.47
392.753	1.43
393.115	1.42
393.477	1.41
393.839	1.38
394.201	1.36
394.563	1.36
394.924	1.36
395.286	1.36
395.648	1.36
396.01	1.36
396.371	1.36
396.733	1.38
397.095	1.39
397.456	1.4
397.818	1.42
398.18	1.46
398.541	1.45
398.903	1.51
399.264	1.52
399.625	1.61
399.987	1.59
400.348	1.6
400.709	1.61
401.071	1.64
401.432	1.62
401.793	1.63
402.154	1.6
402.515	1.59
402.876	1.57
403.238	1.54
403.599	1.51
403.96	1.48
404.32	1.41
404.681	1.37
405.042	1.31
405.403	1.29
405.764	1.21
406.125	1.17
406.485	1.11
406.846	1.06
407.207	1.02
407.567	0.94
407.928	0.91
408.288	0.86
408.649	0.81
409.009	0.78
409.37	0.73
409.73	0.7
410.091	0.66
410.451	0.63
410.811	0.6
411.171	0.57
411.532	0.54
411.892	0.52
412.252	0.5
412.612	0.47
412.972	0.46
413.332	0.43
413.692	0.42
414.052	0.4
414.412	0.39
414.772	0.38
415.132	0.36
415.492	0.36
415.851	0.34
416.211	0.33
416.571	0.32
416.931	0.32
417.29	0.31
417.65	0.29
418.009	0.29
418.369	0.28
418.728	0.29
419.088	0.27
419.447	0.26
419.807	0.26
420.166	0.25
420.525	0.24
420.884	0.25
421.244	0.24
421.603	0.24
421.962	0.23
422.321	0.23
422.68	0.23
423.039	0.22
423.398	0.21
423.757	0.22
424.116	0.22
424.475	0.21
424.834	0.21
425.193	0.2
425.551	0.2
425.91	0.2
426.269	0.2
426.628	0.2
426.986	0.21
427.345	0.2
427.703	0.19
428.062	0.2
428.42	0.2
428.779	0.21
429.137	0.19
429.496	0.19
429.854	0.19
430.212	0.18
430.57	0.19
430.929	0.18
431.287	0.17
431.645	0.19
432.003	0.18
432.361	0.18
432.719	0.18
433.077	0.18
433.435	0.18
433.793	0.19
434.151	0.18
434.509	0.18
434.866	0.17
435.224	0.18
435.582	0.18
435.94	0.18
436.297	0.18
436.655	0.18
437.012	0.18
437.37	0.18
437.727	0.18
438.085	0.17
438.442	0.19
438.8	0.18
439.157	0.18
439.514	0.18
439.872	0.18
440.229	0.18
440.586	0.18
440.943	0.18
441.3	0.18
441.657	0.18
442.014	0.18
442.371	0.19
442.728	0.19
443.085	0.19
443.442	0.18
443.799	0.19
444.156	0.18
444.513	0.19
444.869	0.18
445.226	0.19
445.583	0.2
445.939	0.19
446.296	0.19
446.652	0.19
447.009	0.19
447.365	0.19
447.722	0.19
448.078	0.19
448.434	0.2
448.791	0.2
449.147	0.19
449.503	0.19
449.859	0.19
450.215	0.2
450.571	0.19
450.928	0.2
451.284	0.2
451.64	0.2
451.995	0.19
452.351	0.2
452.707	0.19
453.063	0.2
453.419	0.19
453.775	0.2
454.13	0.2
454.486	0.19
454.842	0.19
455.197	0.2
455.553	0.19
455.908	0.18
456.264	0.17
456.619	0.18
456.975	0.19
457.33	0.2
457.685	0.18
458.04	0.18
458.396	0.18
458.751	0.18
459.106	0.17
459.461	0.17
459.816	0.18
460.171	0.17
460.526	0.17
460.881	0.16
461.236	0.16
461.591	0.16
461.946	0.16
462.301	0.15
462.655	0.15
463.01	0.15
463.365	0.15
463.719	0.14
464.074	0.13
464.428	0.12
464.783	0.13
465.137	0.13
465.492	0.13
465.846	0.12
466.201	0.13
466.555	0.13
466.909	0.13
467.263	0.15
467.618	0.15
467.972	0.16
468.326	0.15
468.68	0.14
469.034	0.14
469.388	0.13
469.742	0.14
470.096	0.15
470.45	0.16
470.804	0.15
471.157	0.16
471.511	0.15
471.865	0.15
472.218	0.16
472.572	0.18
472.926	0.17
473.279	0.18
473.633	0.2
473.986	0.21
474.34	0.22
474.693	0.23
475.046	0.24
475.4	0.25
475.753	0.26
476.106	0.27
476.459	0.27
476.812	0.29
477.165	0.3
477.519	0.31
477.872	0.32
478.224	0.33
478.577	0.34
478.93	0.35
479.283	0.35
479.636	0.36
479.989	0.37
480.341	0.38
480.694	0.39
481.047	0.4
481.399	0.41
481.752	0.41
482.104	0.42
482.457	0.44
482.809	0.43
483.162	0.45
483.514	0.45
483.866	0.46
484.219	0.47
484.571	0.47
484.923	0.46
485.275	0.49
485.627	0.49
485.979	0.5
486.331	0.5
486.683	0.51
487.035	0.52
487.387	0.53
487.739	0.54
488.091	0.54
488.443	0.55
488.794	0.56
489.146	0.56
489.498	0.56
489.849	0.57
490.201	0.57
490.552	0.58
490.904	0.58
491.255	0.59
491.607	0.59
491.958	0.6
492.309	0.6
492.661	0.6
493.012	0.62
493.363	0.62
493.714	0.62
494.065	0.63
494.416	0.63
494.767	0.64
495.118	0.65
495.469	0.66
495.82	0.66
496.171	0.66
496.522	0.67
496.872	0.68
497.223	0.69
497.574	0.68
497.924	0.69
498.275	0.7
498.626	0.71
498.976	0.72
499.327	0.72
499.677	0.73
500.027	0.73
500.378	0.74
500.728	0.74
501.078	0.74
501.428	0.74
501.779	0.76
502.129	0.76
502.479	0.76
502.829	0.77
503.179	0.77
503.529	0.78
503.879	0.79
504.229	0.8
504.578	0.8
504.928	0.79
505.278	0.82
505.628	0.81
505.977	0.82
506.327	0.83
506.676	0.83
507.026	0.83
507.375	0.84
507.725	0.84
508.074	0.85
508.424	0.85
508.773	0.86
509.122	0.85
509.471	0.88
509.82	0.87
510.17	0.88
510.519	0.88
510.868	0.89
511.217	0.89
511.566	0.89
511.915	0.9
512.263	0.91
512.612	0.9
512.961	0.92
513.31	0.92
513.659	0.93
514.007	0.94
514.356	0.92
514.704	0.93
515.053	0.93
515.401	0.95
515.75	0.95
516.098	0.96
516.447	0.96
516.795	0.96
517.143	0.97
517.491	0.97
517.839	0.97
518.188	0.97
518.536	0.99
518.884	0.99
519.232	0.99
519.58	0.99
519.928	0.99
520.275	1
520.623	1
520.971	1.01
521.319	1.01
521.666	1.02
522.014	1.02
522.362	1.02
522.709	1.03
523.057	1.03
523.404	1.03
523.752	1.02
524.099	1.04
524.446	1.04
524.794	1.04
525.141	1.04
525.488	1.05
525.835	1.05
526.182	1.05
526.529	1.06
526.876	1.07
527.223	1.07
527.57	1.07
527.917	1.07
528.264	1.06
528.611	1.07
528.958	1.08
529.304	1.09
529.651	1.08
529.998	1.09
530.344	1.09
530.691	1.09
531.037	1.09
531.384	1.11
531.73	1.1
532.076	1.1
532.423	1.09
532.769	1.11
533.115	1.11
533.461	1.11
533.807	1.11
534.154	1.11
534.5	1.11
534.846	1.12
535.192	1.12
535.537	1.12
535.883	1.12
536.229	1.12
536.575	1.13
536.921	1.13
537.266	1.13
537.612	1.14
537.957	1.14
538.303	1.14
538.649	1.13
538.994	1.14
539.339	1.14
539.685	1.14
540.03	1.16
540.375	1.14
540.721	1.15
541.066	1.15
541.411	1.15
541.756	1.15
542.101	1.16
542.446	1.15
542.791	1.15
543.136	1.16
543.481	1.15
543.825	1.16
544.17	1.15
544.515	1.16
544.86	1.16
545.204	1.16
545.549	1.16
545.893	1.17
546.238	1.16
546.582	1.16
546.927	1.16
547.271	1.16
547.615	1.17
547.96	1.16
548.304	1.16
548.648	1.17
548.992	1.16
549.336	1.17
549.68	1.17
550.024	1.18
550.368	1.18
550.712	1.16
551.056	1.16
551.4	1.17
551.743	1.16
552.087	1.17
552.431	1.17
552.774	1.17
553.118	1.17
553.462	1.17
553.805	1.17
554.148	1.17
554.492	1.16
554.835	1.16
555.178	1.16
555.522	1.16
555.865	1.17
556.208	1.16
556.551	1.17
556.894	1.16
557.237	1.16
557.58	1.16
557.923	1.17
558.266	1.15
558.609	1.16
558.952	1.16
559.294	1.16
559.637	1.15
559.98	1.15
560.322	1.16
560.665	1.15
561.007	1.15
561.35	1.15
561.692	1.14
562.034	1.15
562.377	1.15
562.719	1.14
563.061	1.13
563.403	1.15
563.745	1.14
564.088	1.13
564.43	1.13
564.772	1.13
565.113	1.13
565.455	1.13
565.797	1.13
566.139	1.13
566.481	1.12
566.822	1.13
567.164	1.12
567.506	1.12
567.847	1.12
568.189	1.12
568.53	1.12
568.872	1.11
569.213	1.1
569.554	1.11
569.895	1.1
570.237	1.1
570.578	1.1
570.919	1.1
571.26	1.09
571.601	1.1
571.942	1.1
572.283	1.09
572.624	1.09
572.965	1.08
573.306	1.08
573.646	1.07
573.987	1.08
574.328	1.07
574.668	1.07
575.009	1.07
575.349	1.05
575.69	1.07
576.03	1.06
576.37	1.05
576.711	1.05
577.051	1.05
577.391	1.05
577.731	1.05
578.072	1.05
578.412	1.05
578.752	1.04
579.092	1.04
579.431	1.02
579.771	1
580.111	1
580.451	1.02
580.791	1.03
581.13	1.03
581.47	1.02
581.81	1.02
582.149	1.02
582.489	1.01
582.828	1
583.167	0.97
583.507	0.93
583.846	0.93
584.185	0.98
584.525	0.99
584.864	1
585.203	1.01
585.542	1.01
585.881	1
586.22	1
586.559	0.99
586.898	0.98
587.236	0.98
587.575	0.98
587.914	0.98
588.252	0.99
588.591	0.99
588.93	0.99
589.268	0.98
589.607	0.98
589.945	0.98
590.283	0.98
590.622	0.99
590.96	0.99
591.298	0.98
591.636	0.98
591.974	0.98
592.313	0.99
592.651	0.99
592.989	0.98
593.326	0.98
593.664	0.99
594.002	0.98
594.34	0.97
594.678	0.97
595.015	0.96
595.353	0.96
595.691	0.97
596.028	0.98
596.366	0.98
596.703	0.97
597.04	0.97
597.378	0.97
597.715	0.98
598.052	0.98
598.389	0.97
598.726	0.97
599.064	0.97
599.401	0.97
599.738	0.96
600.074	0.96
600.411	0.96
600.748	0.96
601.085	0.95
601.422	0.94
601.758	0.95
602.095	0.94
602.432	0.95
602.768	0.95
603.105	0.95
603.441	0.95
603.777	0.95
604.114	0.95
604.45	0.95
604.786	0.94
605.122	0.94
605.459	0.93
605.795	0.93
606.131	0.93
606.467	0.93
606.803	0.93
607.139	0.93
607.474	0.92
607.81	0.92
608.146	0.92
608.482	0.92
608.817	0.91
609.153	0.91
609.488	0.9
609.824	0.9
610.159	0.91
610.495	0.9
610.83	0.9
611.165	0.9
611.5	0.89
611.836	0.88
612.171	0.88
612.506	0.89
612.841	0.88
613.176	0.88
613.511	0.87
613.845	0.87
614.18	0.87
614.515	0.87
614.85	0.86
615.184	0.86
615.519	0.85
615.854	0.86
616.188	0.85
616.523	0.84
616.857	0.84
617.191	0.84
617.526	0.84
617.86	0.84
618.194	0.84
618.528	0.83
618.862	0.83
619.196	0.82
619.53	0.83
619.864	0.82
620.198	0.81
620.532	0.81
620.866	0.81
621.2	0.81
621.533	0.8
621.867	0.8
622.201	0.79
622.534	0.79
622.868	0.79
623.201	0.79
623.534	0.78
623.868	0.78
624.201	0.77
624.534	0.77
624.868	0.77
625.201	0.77
625.534	0.76
625.867	0.76
626.2	0.76
626.533	0.75
626.865	0.76
627.198	0.75
627.531	0.74
627.864	0.74
628.196	0.74
628.529	0.73
628.862	0.73
629.194	0.73
629.527	0.72
629.859	0.72
630.191	0.72
630.524	0.71
630.856	0.71
631.188	0.7
631.52	0.7
631.852	0.7
632.184	0.69
632.516	0.69
632.848	0.68
633.18	0.68
633.512	0.67
633.844	0.67
634.175	0.66
634.507	0.66
634.839	0.66
635.17	0.65
635.502	0.65
635.833	0.65
636.165	0.64
636.496	0.63
636.827	0.63
637.159	0.62
637.49	0.63
637.821	0.62
638.152	0.62
638.483	0.61
638.814	0.61
639.145	0.61
639.476	0.6
639.807	0.6
640.137	0.59
640.468	0.59
640.799	0.58
641.129	0.58
641.46	0.58
641.791	0.57
642.121	0.57
642.451	0.57
642.782	0.56
643.112	0.56
643.442	0.55
643.773	0.55
644.103	0.55
644.433	0.55
644.763	0.54
645.093	0.55
645.423	0.54
645.753	0.54
646.082	0.53
646.412	0.54
646.742	0.53
647.072	0.53
647.401	0.52
647.731	0.52
648.06	0.52
648.39	0.52
648.719	0.52
649.048	0.52
649.378	0.51
649.707	0.51
650.036	0.5
650.365	0.5
650.694	0.5
651.023	0.5
651.352	0.49
651.681	0.5
652.01	0.49
652.339	0.49
652.668	0.49
652.996	0.49
653.325	0.49
653.654	0.49
653.982	0.48
654.311	0.48
654.639	0.48
654.967	0.48
655.296	0.48
655.624	0.47
655.952	0.47
656.28	0.47
656.609	0.47
656.937	0.46
657.265	0.44
657.593	0.29
657.92	0.19
658.248	0.17
658.576	0.25
658.904	0.37
659.231	0.45
659.559	0.46
659.887	0.45
660.214	0.45
660.542	0.44
660.869	0.44
661.196	0.44
661.524	0.44
661.851	0.44
662.178	0.44
662.505	0.44
662.832	0.44
663.159	0.43
663.486	0.43
663.813	0.43
664.14	0.43
664.467	0.42
664.794	0.42
665.12	0.42
665.447	0.42
665.774	0.42
666.1	0.42
666.427	0.41
666.753	0.41
667.079	0.41
667.406	0.4
667.732	0.4
668.058	0.4
668.384	0.4
668.71	0.4
669.036	0.4
669.362	0.39
669.688	0.39
670.014	0.39
670.34	0.39
670.666	0.38
670.991	0.38
671.317	0.38
671.643	0.37
671.968	0.37
672.294	0.37
672.619	0.36
672.945	0.36
673.27	0.36
673.595	0.35
673.92	0.35
674.246	0.35
674.571	0.35
674.896	0.35
675.221	0.35
675.546	0.34
675.87	0.34
676.195	0.34
676.52	0.34
676.845	0.33
677.169	0.33
677.494	0.33
677.819	0.33
678.143	0.32
678.468	0.32
678.792	0.32
679.116	0.32
679.44	0.31
679.765	0.31
680.089	0.3
680.413	0.3
680.737	0.3
681.061	0.29
681.385	0.29
681.709	0.29
682.033	0.29
682.356	0.28
682.68	0.28
683.004	0.28
683.327	0.28
683.651	0.27
683.974	0.27
684.298	0.27
684.621	0.26
684.944	0.26
685.268	0.26
685.591	0.25
685.914	0.25
686.237	0.24
686.56	0.24
686.883	0.24
687.206	0.24
687.529	0.23
687.852	0.23
688.175	0.23
688.497	0.23
688.82	0.23
689.142	0.23
689.465	0.22
689.787	0.22
690.11	0.22
690.432	0.21
690.755	0.21
691.077	0.21
691.399	0.2
691.721	0.2
692.043	0.2
692.365	0.2
692.687	0.2
693.009	0.19
693.331	0.19
693.653	0.19
693.974	0.19
694.296	0.19
694.618	0.18
694.939	0.18
695.261	0.18
695.582	0.18
695.904	0.18
696.225	0.18
696.546	0.18
696.868	0.17
697.189	0.17
697.51	0.17
697.831	0.17
698.152	0.17
698.473	0.16
698.794	0.15
699.114	0.15
699.435	0.14
699.756	0.15
700.077	0.15
700.397	0.15
700.718	0.15
701.038	0.15
701.359	0.15
701.679	0.15
701.999	0.15
702.32	0.15
702.64	0.14
702.96	0.14
703.28	0.15
703.6	0.14
703.92	0.14
704.24	0.14
704.56	0.13
704.879	0.13
705.199	0.14
705.519	0.14
705.838	0.13
706.158	0.14
706.478	0.14
706.797	0.14
707.116	0.14
707.436	0.13
707.755	0.14
708.074	0.13
708.393	0.13
708.712	0.12
709.031	0.11
709.35	0.11
709.669	0.11
709.988	0.12
710.307	0.12
710.626	0.12
710.944	0.13
711.263	0.13
711.582	0.13
711.9	0.13
712.219	0.12
712.537	0.12
712.855	0.12
713.174	0.13
713.492	0.13
713.81	0.13
714.128	0.12
714.446	0.13
714.764	0.12
715.082	0.11
715.4	0.12
715.718	0.12
716.035	0.12
716.353	0.12
716.671	0.12
716.988	0.12
717.306	0.12
717.623	0.13
717.941	0.13
718.258	0.13
718.575	0.13
718.893	0.13
719.21	0.13
719.527	0.13
719.844	0.13
720.161	0.13
720.478	0.13
720.795	0.13
721.112	0.13
721.428	0.13
721.745	0.13
722.062	0.14
722.378	0.14
722.695	0.14
723.011	0.13
723.328	0.14
723.644	0.14
723.96	0.14
724.276	0.14
724.593	0.14
724.909	0.13
725.225	0.13
725.541	0.14
725.857	0.13
726.173	0.14
726.488	0.14
726.804	0.13
727.12	0.13
727.435	0.13
727.751	0.13
728.067	0.13
728.382	0.13
728.697	0.13
729.013	0.13
729.328	0.13
729.643	0.13
729.958	0.13
730.273	0.13
730.588	0.13
730.903	0.13
731.218	0.13
731.533	0.13
731.848	0.13
732.163	0.13
732.477	0.12
732.792	0.12
733.107	0.12
733.421	0.13
733.736	0.12
734.05	0.12
734.364	0.12
734.678	0.12
734.993	0.12
735.307	0.12
735.621	0.12
735.935	0.12
736.249	0.12
736.563	0.12
736.877	0.12
737.19	0.12
737.504	0.12
737.818	0.12
738.131	0.12
738.445	0.12
738.758	0.12
739.072	0.12
739.385	0.13
739.698	0.13
740.012	0.13
740.325	0.12
740.638	0.12
740.951	0.12
741.264	0.12
741.577	0.12
741.89	0.12
742.203	0.12
742.515	0.12
742.828	0.12
743.141	0.12
743.453	0.12
743.766	0.11
744.078	0.11
744.391	0.11
744.703	0.11
745.015	0.11
745.327	0.11
745.639	0.11
745.952	0.11
746.264	0.11
746.575	0.11
746.887	0.11
747.199	0.11
747.511	0.1
747.823	0.1
748.134	0.1
748.446	0.1
748.757	0.1
749.069	0.09
749.38	0.09
749.692	0.09
750.003	0.09
750.314	0.09
750.625	0.08
750.936	0.09
751.248	0.09
751.559	0.09
751.869	0.09
752.18	0.09
752.491	0.09
752.802	0.08
753.112	0.09
753.423	0.08
753.734	0.08
754.044	0.08
754.355	0.08
754.665	0.07
754.975	0.07
755.285	0.07
755.596	0.07
755.906	0.07
756.216	0.07
756.526	0.07
756.836	0.07
757.146	0.07
757.455	0.08
757.765	0.07
758.075	0.07
758.385	0.07
758.694	0.07
759.004	0.07
759.313	0.06
759.622	0.07
759.932	0.07
760.241	0.07
760.55	0.07
760.859	0.07
761.168	0.07
761.477	0.07
761.786	0.07
762.095	0.07
762.404	0.06
762.713	0.07
763.021	0.07
763.33	0.07
763.639	0.07
763.947	0.07
764.256	0.07
764.564	0.07
764.872	0.07
765.181	0.07
765.489	0.07
765.797	0.06
766.105	0.06
766.413	0.06
766.721	0.07
767.029	0.07
767.337	0.07
767.644	0.07
767.952	0.07
768.26	0.07
768.567	0.07
768.875	0.07
769.182	0.07
769.49	0.07
769.797	0.07
770.104	0.07
770.411	0.07
770.718	0.06
771.026	0.06
771.333	0.06
771.639	0.06
771.946	0.06
772.253	0.06
772.56	0.07
772.867	0.06
773.173	0.07
773.48	0.07
773.786	0.07
774.093	0.07
774.399	0.07
774.705	0.07
775.012	0.07
775.318	0.07
775.624	0.07
775.93	0.07
776.236	0.07
776.542	0.08
776.848	0.08
777.154	0.08
777.459	0.08
777.765	0.08
778.071	0.07
778.376	0.07
778.682	0.07
778.987	0.07
779.292	0.07
779.598	0.07
779.903	0.07
780.208	0.06
780.513	0.07
780.818	0.07
781.123	0.07
781.428	0.07
781.733	0.07
782.038	0.07
782.343	0.06
782.647	0.07
782.952	0.06
783.256	0.06
783.561	0.06
783.865	0.06
784.17	0.06
784.474	0.06
784.778	0.06
785.082	0.06
785.386	0.07
785.69	0.07
785.994	0.07
786.298	0.07
786.602	0.07
786.906	0.07
787.209	0.07
787.513	0.08
787.817	0.08
788.12	0.08
788.424	0.08
788.727	0.08
789.03	0.08
789.333	0.08
789.637	0.08
789.94	0.08
790.243	0.08
790.546	0.08
790.849	0.08
791.152	0.09
791.454	0.08
791.757	0.08
792.06	0.08
792.362	0.09
792.665	0.08
792.967	0.08
793.27	0.08
793.572	0.08
793.874	0.08
794.177	0.09
794.479	0.09
794.781	0.09
795.083	0.09
795.385	0.09
795.687	0.1
795.989	0.09
796.29	0.09
796.592	0.09
796.894	0.09
797.195	0.09
797.497	0.09
797.798	0.1
798.1	0.09
798.401	0.09
798.702	0.09
799.003	0.09
799.304	0.09
799.605	0.09
799.906	0.09
800.207	0.09
800.508	0.09
800.809	0.09
801.11	0.09
801.41	0.1
801.711	0.1
802.011	0.1
802.312	0.1
802.612	0.1
802.913	0.1
803.213	0.1
803.513	0.1
803.813	0.1
804.113	0.1
804.413	0.1
804.713	0.1
805.013	0.11
805.313	0.11
805.613	0.11
805.912	0.1
806.212	0.1
806.511	0.1
806.811	0.1
807.11	0.1
807.41	0.1
807.709	0.11
808.008	0.11
808.307	0.11
808.606	0.1
808.905	0.1
809.204	0.1
809.503	0.1
809.802	0.11
810.101	0.11
810.399	0.11
810.698	0.11
810.997	0.11
811.295	0.11
811.593	0.11
811.892	0.12
812.19	0.11
812.488	0.11
812.786	0.11
813.084	0.11
813.383	0.12
813.68	0.12
813.978	0.12
814.276	0.12
814.574	0.12
814.872	0.12
815.169	0.12
815.467	0.12
815.764	0.12
816.062	0.11
816.359	0.11
816.656	0.12
816.954	0.12
817.251	0.13
817.548	0.12
817.845	0.12
818.142	0.13
818.439	0.13
818.735	0.13
819.032	0.13
819.329	0.13
819.626	0.13
819.922	0.14
820.219	0.14
820.515	0.14
820.811	0.14
821.108	0.14
821.404	0.14
821.7	0.13
821.996	0.13
822.292	0.14
822.588	0.13
822.884	0.14
823.18	0.15
823.475	0.15
823.771	0.15
824.067	0.14
824.362	0.15
824.658	0.15
824.953	0.15
825.249	0.14
825.544	0.15
825.839	0.15
826.134	0.14
826.429	0.15
826.724	0.15
827.019	0.15
827.314	0.15
827.609	0.15
827.904	0.15
828.198	0.15
828.493	0.15
828.787	0.15
829.082	0.15
829.376	0.16
829.671	0.16
829.965	0.17
830.259	0.17
830.553	0.17
830.847	0.16
831.141	0.16
831.435	0.16
831.729	0.17
832.023	0.16
832.317	0.17
832.61	0.16
832.904	0.17
833.197	0.17
833.491	0.16
833.784	0.17
834.077	0.17
834.371	0.17
834.664	0.17
834.957	0.18
835.25	0.17
835.543	0.17
835.836	0.18
836.129	0.17
836.421	0.17
836.714	0.17
837.007	0.17
837.299	0.17
837.592	0.16
837.884	0.17
838.177	0.17
838.469	0.17
838.761	0.18
839.053	0.18
839.345	0.18
839.637	0.17
839.929	0.17
840.221	0.18
840.513	0.18
840.805	0.18
841.096	0.19
841.388	0.18
841.68	0.19
841.971	0.19
842.262	0.19
842.554	0.18
842.845	0.18
843.136	0.18
843.427	0.19
843.718	0.19
844.009	0.19
844.3	0.18
844.591	0.19
844.882	0.19
845.173	0.19
845.463	0.19
845.754	0.2
846.044	0.19
846.335	0.19
846.625	0.19
846.915	0.19
847.206	0.2
847.496	0.2
847.786	0.2
848.076	0.19
848.366	0.19
848.656	0.19
848.945	0.19
849.235	0.18
849.525	0.18
849.814	0.19
850.104	0.18
850.393	0.19
850.683	0.2
850.972	0.19
851.261	0.2
851.551	0.21
851.84	0.21
852.129	0.21
852.418	0.2
852.707	0.21
852.995	0.21
853.284	0.2
853.573	0.21
853.862	0.2
854.15	0.19
854.439	0.19
854.727	0.19
855.015	0.21
855.304	0.21
855.592	0.21
855.88	0.22
856.168	0.21
856.456	0.21
856.744	0.2
857.032	0.21
857.32	0.19
857.607	0.21
857.895	0.22
858.183	0.22
858.47	0.21
858.757	0.22
859.045	0.22
859.332	0.21
859.619	0.21
859.907	0.23
860.194	0.2
860.481	0.23
860.768	0.2
861.054	0.21
861.341	0.22
861.628	0.22
861.915	0.2
862.201	0.22
862.488	0.23
862.774	0.24
863.061	0.24
863.347	0.22
863.633	0.26
863.919	0.21
864.205	0.22
864.491	0.23
864.777	0.24
865.063	0.22
865.349	0.24
865.635	0.23
865.92	0.22
866.206	0.23
866.492	0.2
866.777	0.29
867.062	0.23
867.348	0.22
867.633	0.21
867.918	0.23
868.203	0.25
868.488	0.23
868.773	0.25
869.058	0.25
869.343	0.22
869.628	0.25
869.912	0.25
870.197	0.23
870.482	0.23
870.766	0.29
871.05	0.19
871.335	0.26
871.619	0.2
871.903	0.22
872.187	0.19
872.471	0.27
872.755	0.26
873.039	0.21
873.323	0.23
873.607	0.22
873.89	0.25
874.174	0.29
874.458	0.3
874.741	0.19
875.024	0.21
875.308	0.22
875.591	0.2
875.874	0.23
876.157	0.22
876.44	0.17
876.723	0.3
877.006	0.23
877.289	0.18
877.572	0.26
877.854	0.18
878.137	0.18
878.42	0.18
878.702	0.19
878.984	0.34
879.267	0.29
879.549	0.17
879.831	0.07
880.113	0.23
880.395	0.26
880.677	0.15
880.959	0.19
