Data from Rubpy_BV_1800_EDTA_Buffered_Absorbance_15-11-29-932.txt Node
Date: Wed Jul 01 15:11:29 BST 2026
User: fpm-admin
Spectrometer: OFX00224
Trigger mode: 0
Integration Time (sec): 7.000000E-2
Scans to average: 3
Nonlinearity correction enabled: false
Boxcar width: 0
Storing dark spectrum: false
XAxis mode: Wavelengths
Number of Pixels in Spectrum: 2136
>>>>>Begin Spectral Data<<<<<
154.91	-0.54
155.289	0.07
155.669	-0.88
156.048	-0.48
156.428	-0
156.807	-0
157.186	0.35
157.566	-0
157.945	-0
158.325	-0.15
158.704	-0
159.083	-0.26
159.462	-0
159.842	-0.63
160.221	-0
160.6	0.08
160.979	-0.2
161.359	-0.03
161.738	0.04
162.117	0.05
162.496	-0.37
162.875	-0
163.254	0.98
163.633	-0
164.012	0.4
164.391	-1
164.77	-0
165.149	-0
165.528	-1.23
165.907	-0.95
166.286	0.04
166.665	-0.02
167.044	-0
167.423	-0.12
167.802	-0
168.181	-0
168.559	-0
168.938	-0.74
169.317	0.8
169.696	-0
170.074	-0.3
170.453	0.72
170.832	-0.44
171.21	-0.35
171.589	-0.12
171.968	0.45
172.346	-0
172.725	-0
173.103	0.39
173.482	-0.04
173.861	0.3
174.239	-0
174.617	-0
174.996	1
175.374	-0
175.753	-0
176.131	-0
176.51	0.04
176.888	-0
177.266	-0
177.645	0.02
178.023	0.42
178.401	-0.19
178.779	-0.09
179.158	-0.6
179.536	-0
179.914	0.27
180.292	0.6
180.67	0.12
181.048	-0.37
181.427	-0.41
181.805	-0
182.183	-0
182.561	-0
182.939	-0.23
183.317	-0
183.695	1.03
184.073	1.1
184.451	0.97
184.829	-0.32
185.206	0.25
185.584	0.02
185.962	-0
186.34	0.59
186.718	-0.4
187.096	-0.3
187.473	0.02
187.851	-0
188.229	-0
188.607	0.19
188.984	0.15
189.362	0.34
189.74	0.3
190.117	0.21
190.495	0.26
190.872	0.33
191.25	0.33
191.627	0.3
192.005	0.21
192.382	0.11
192.76	0.26
193.137	0.47
193.515	0.21
193.892	0.33
194.269	0.22
194.647	0.32
195.024	0.16
195.401	0.33
195.779	0.35
196.156	0.2
196.533	0.29
196.91	0.34
197.288	0.35
197.665	0.27
198.042	0.3
198.419	0.45
198.796	0.21
199.173	0.26
199.55	0.24
199.927	0.26
200.304	0.3
200.681	0.39
201.058	0.22
201.435	0.26
201.812	0.31
202.189	0.47
202.566	0.36
202.943	0.16
203.32	0.24
203.697	0.4
204.073	0.34
204.45	0.24
204.827	0.38
205.204	0.19
205.58	0.32
205.957	0.33
206.334	0.37
206.71	0.34
207.087	0.28
207.464	0.27
207.84	0.29
208.217	0.46
208.593	0.25
208.97	0.3
209.346	0.28
209.723	0.37
210.099	0.34
210.476	0.28
210.852	0.13
211.228	0.32
211.605	0.42
211.981	0.41
212.357	0.26
212.733	0.28
213.11	0.33
213.486	0.38
213.862	0.35
214.238	0.45
214.614	0.4
214.991	0.28
215.367	0.37
215.743	0.37
216.119	0.56
216.495	0.4
216.871	0.39
217.247	0.23
217.623	0.32
217.999	0.29
218.375	0.23
218.751	0.27
219.127	0.37
219.502	0.23
219.878	0.33
220.254	0.39
220.63	0.27
221.006	0.4
221.381	0.29
221.757	0.24
222.133	0.36
222.508	0.48
222.884	0.28
223.26	0.39
223.635	0.47
224.011	0.47
224.386	0.31
224.762	0.31
225.137	0.31
225.513	0.25
225.888	0.48
226.264	0.48
226.639	0.45
227.014	0.2
227.39	0.3
227.765	0.31
228.14	0.38
228.516	0.44
228.891	0.2
229.266	0.3
229.641	0.29
230.017	0.4
230.392	0.39
230.767	0.25
231.142	0.31
231.517	0.33
231.892	0.33
232.267	0.26
232.642	0.53
233.017	0.37
233.392	0.19
233.767	0.41
234.142	0.32
234.517	0.48
234.892	0.3
235.267	0.26
235.641	0.24
236.016	0.31
236.391	0.26
236.766	0.41
237.14	0.46
237.515	0.42
237.89	0.21
238.264	0.2
238.639	0.13
239.014	0.46
239.388	0.36
239.763	0.31
240.137	0.22
240.512	0.3
240.886	0.29
241.261	0.19
241.635	0.28
242.009	0.25
242.384	0.39
242.758	0.12
243.132	0.37
243.507	0.29
243.881	0.18
244.255	0.34
244.629	0.32
245.004	0.4
245.378	0.35
245.752	0.3
246.126	0.22
246.5	0.15
246.874	0.39
247.248	0.4
247.622	0.38
247.996	0.45
248.37	0.25
248.744	0.42
249.118	0.3
249.492	0.41
249.866	0.42
250.24	0.33
250.613	0.44
250.987	0.27
251.361	0.36
251.735	0.34
252.108	0.3
252.482	0.27
252.856	0.14
253.229	0.34
253.603	0.29
253.977	0.3
254.35	0.32
254.724	0.27
255.097	0.25
255.471	0.44
255.844	0.46
256.218	0.33
256.591	0.27
256.964	0.25
257.338	0.39
257.711	0.29
258.084	0.42
258.458	0.36
258.831	0.37
259.204	0.4
259.577	0.42
259.95	0.24
260.323	0.28
260.697	0.27
261.07	0.36
261.443	0.26
261.816	0.22
262.189	0.3
262.562	0.45
262.935	0.34
263.308	0.35
263.68	0.44
264.053	0.26
264.426	0.29
264.799	0.38
265.172	0.31
265.545	0.45
265.917	0.33
266.29	0.43
266.663	0.52
267.035	0.25
267.408	0.32
267.781	0.36
268.153	0.38
268.526	0.36
268.898	0.34
269.271	0.39
269.643	0.38
270.016	0.32
270.388	0.37
270.76	0.34
271.133	0.39
271.505	0.27
271.877	0.4
272.25	0.32
272.622	0.29
272.994	0.37
273.366	0.34
273.739	0.3
274.111	0.28
274.483	0.4
274.855	0.27
275.227	0.37
275.599	0.19
275.971	0.36
276.343	0.28
276.715	0.3
277.087	0.27
277.459	0.27
277.831	0.37
278.203	0.42
278.574	0.33
278.946	0.3
279.318	0.45
279.69	0.32
280.061	0.29
280.433	0.3
280.805	0.4
281.176	0.3
281.548	0.35
281.92	0.25
282.291	0.36
282.663	0.34
283.034	0.34
283.406	0.27
283.777	0.4
284.148	0.41
284.52	0.31
284.891	0.23
285.262	0.23
285.634	0.37
286.005	0.35
286.376	0.35
286.747	0.42
287.119	0.31
287.49	0.38
287.861	0.31
288.232	0.31
288.603	0.34
288.974	0.28
289.345	0.3
289.716	0.26
290.087	0.36
290.458	0.32
290.829	0.36
291.2	0.28
291.571	0.25
291.941	0.44
292.312	0.28
292.683	0.33
293.054	0.4
293.424	0.46
293.795	0.34
294.166	0.4
294.536	0.32
294.907	0.39
295.277	0.4
295.648	0.3
296.018	0.35
296.389	0.39
296.759	0.24
297.13	0.4
297.5	0.37
297.871	0.36
298.241	0.42
298.611	0.41
298.981	0.28
299.352	0.31
299.722	0.33
300.092	0.33
300.462	0.24
300.832	0.42
301.202	0.36
301.573	0.36
301.943	0.31
302.313	0.39
302.683	0.35
303.053	0.29
303.422	0.33
303.792	0.27
304.162	0.34
304.532	0.31
304.902	0.33
305.272	0.35
305.641	0.37
306.011	0.28
306.381	0.34
306.75	0.31
307.12	0.3
307.49	0.31
307.859	0.28
308.229	0.34
308.598	0.31
308.968	0.28
309.337	0.27
309.707	0.34
310.076	0.28
310.445	0.29
310.815	0.27
311.184	0.28
311.553	0.27
311.923	0.25
312.292	0.28
312.661	0.27
313.03	0.26
313.399	0.28
313.768	0.28
314.137	0.29
314.506	0.3
314.875	0.28
315.244	0.29
315.613	0.26
315.982	0.3
316.351	0.31
316.72	0.3
317.089	0.3
317.458	0.29
317.826	0.31
318.195	0.32
318.564	0.34
318.933	0.29
319.301	0.32
319.67	0.32
320.038	0.33
320.407	0.34
320.775	0.34
321.144	0.35
321.512	0.36
321.881	0.36
322.249	0.37
322.618	0.35
322.986	0.36
323.354	0.36
323.723	0.38
324.091	0.39
324.459	0.38
324.827	0.39
325.195	0.41
325.564	0.41
325.932	0.41
326.3	0.43
326.668	0.42
327.036	0.42
327.404	0.44
327.772	0.45
328.14	0.46
328.508	0.44
328.875	0.46
329.243	0.47
329.611	0.48
329.979	0.48
330.346	0.49
330.714	0.49
331.082	0.5
331.449	0.52
331.817	0.51
332.185	0.53
332.552	0.55
332.92	0.55
333.287	0.56
333.655	0.57
334.022	0.58
334.389	0.6
334.757	0.61
335.124	0.61
335.491	0.63
335.859	0.65
336.226	0.65
336.593	0.66
336.96	0.67
337.327	0.68
337.695	0.69
338.062	0.71
338.429	0.72
338.796	0.73
339.163	0.76
339.53	0.76
339.897	0.76
340.263	0.79
340.63	0.8
340.997	0.82
341.364	0.82
341.731	0.84
342.097	0.86
342.464	0.87
342.831	0.88
343.197	0.9
343.564	0.9
343.931	0.92
344.297	0.94
344.664	0.96
345.03	0.97
345.396	0.98
345.763	1
346.129	1.02
346.496	1.03
346.862	1.05
347.228	1.06
347.594	1.07
347.961	1.08
348.327	1.09
348.693	1.11
349.059	1.13
349.425	1.12
349.791	1.15
350.157	1.16
350.523	1.17
350.889	1.19
351.255	1.2
351.621	1.2
351.987	1.21
352.353	1.24
352.719	1.25
353.084	1.24
353.45	1.3
353.816	1.29
354.181	1.32
354.547	1.32
354.913	1.34
355.278	1.36
355.644	1.38
356.009	1.39
356.375	1.41
356.74	1.41
357.106	1.42
357.471	1.44
357.836	1.47
358.202	1.47
358.567	1.5
358.932	1.51
359.297	1.53
359.663	1.53
360.028	1.57
360.393	1.56
360.758	1.63
361.123	1.63
361.488	1.65
361.853	1.66
362.218	1.69
362.583	1.66
362.948	1.66
363.312	1.75
363.677	1.72
364.042	1.73
364.407	1.78
364.772	1.77
365.136	1.75
365.501	1.8
365.865	1.8
366.23	1.8
366.595	1.85
366.959	1.8
367.324	1.79
367.688	1.85
368.052	1.82
368.417	1.86
368.781	1.88
369.145	1.93
369.51	1.87
369.874	1.88
370.238	1.88
370.602	1.91
370.967	1.93
371.331	1.9
371.695	1.9
372.059	1.92
372.423	1.87
372.787	1.93
373.151	1.89
373.515	1.88
373.878	1.9
374.242	1.88
374.606	1.91
374.97	1.87
375.334	1.86
375.697	1.87
376.061	1.82
376.425	1.85
376.788	1.82
377.152	1.82
377.515	1.8
377.879	1.83
378.242	1.81
378.606	1.77
378.969	1.77
379.333	1.74
379.696	1.69
380.059	1.72
380.422	1.71
380.786	1.72
381.149	1.64
381.512	1.64
381.875	1.64
382.238	1.59
382.601	1.57
382.964	1.57
383.327	1.57
383.69	1.55
384.053	1.52
384.416	1.51
384.779	1.49
385.142	1.48
385.504	1.45
385.867	1.46
386.23	1.46
386.593	1.45
386.955	1.44
387.318	1.42
387.68	1.42
388.043	1.41
388.405	1.39
388.768	1.41
389.13	1.41
389.493	1.36
389.855	1.37
390.217	1.35
390.58	1.34
390.942	1.33
391.304	1.32
391.666	1.31
392.028	1.29
392.391	1.28
392.753	1.26
393.115	1.22
393.477	1.23
393.839	1.21
394.201	1.19
394.563	1.19
394.924	1.19
395.286	1.18
395.648	1.19
396.01	1.18
396.371	1.19
396.733	1.2
397.095	1.22
397.456	1.24
397.818	1.26
398.18	1.28
398.541	1.31
398.903	1.35
399.264	1.37
399.625	1.39
399.987	1.42
400.348	1.44
400.709	1.45
401.071	1.46
401.432	1.47
401.793	1.46
402.154	1.44
402.515	1.43
402.876	1.42
403.238	1.38
403.599	1.34
403.96	1.3
404.32	1.25
404.681	1.22
405.042	1.18
405.403	1.13
405.764	1.08
406.125	1.04
406.485	0.97
406.846	0.94
407.207	0.89
407.567	0.83
407.928	0.8
408.288	0.76
408.649	0.71
409.009	0.68
409.37	0.64
409.73	0.6
410.091	0.58
410.451	0.55
410.811	0.53
411.171	0.5
411.532	0.47
411.892	0.45
412.252	0.44
412.612	0.41
412.972	0.39
413.332	0.38
413.692	0.36
414.052	0.34
414.412	0.34
414.772	0.33
415.132	0.31
415.492	0.3
415.851	0.29
416.211	0.28
416.571	0.28
416.931	0.27
417.29	0.25
417.65	0.26
418.009	0.24
418.369	0.24
418.728	0.24
419.088	0.23
419.447	0.22
419.807	0.23
420.166	0.21
420.525	0.21
420.884	0.21
421.244	0.2
421.603	0.2
421.962	0.19
422.321	0.2
422.68	0.19
423.039	0.19
423.398	0.18
423.757	0.18
424.116	0.18
424.475	0.18
424.834	0.18
425.193	0.17
425.551	0.18
425.91	0.18
426.269	0.17
426.628	0.16
426.986	0.17
427.345	0.17
427.703	0.17
428.062	0.16
428.42	0.16
428.779	0.17
429.137	0.16
429.496	0.16
429.854	0.15
430.212	0.16
430.57	0.16
430.929	0.15
431.287	0.14
431.645	0.16
432.003	0.15
432.361	0.15
432.719	0.15
433.077	0.15
433.435	0.15
433.793	0.15
434.151	0.14
434.509	0.15
434.866	0.14
435.224	0.15
435.582	0.14
435.94	0.15
436.297	0.15
436.655	0.15
437.012	0.16
437.37	0.15
437.727	0.15
438.085	0.14
438.442	0.15
438.8	0.15
439.157	0.15
439.514	0.16
439.872	0.14
440.229	0.15
440.586	0.15
440.943	0.15
441.3	0.15
441.657	0.15
442.014	0.15
442.371	0.15
442.728	0.15
443.085	0.15
443.442	0.15
443.799	0.16
444.156	0.16
444.513	0.15
444.869	0.15
445.226	0.15
445.583	0.17
445.939	0.16
446.296	0.15
446.652	0.16
447.009	0.16
447.365	0.16
447.722	0.16
448.078	0.16
448.434	0.16
448.791	0.16
449.147	0.17
449.503	0.16
449.859	0.16
450.215	0.16
450.571	0.16
450.928	0.16
451.284	0.16
451.64	0.16
451.995	0.16
452.351	0.16
452.707	0.16
453.063	0.15
453.419	0.15
453.775	0.15
454.13	0.16
454.486	0.17
454.842	0.16
455.197	0.15
455.553	0.15
455.908	0.14
456.264	0.14
456.619	0.15
456.975	0.14
457.33	0.15
457.685	0.14
458.04	0.15
458.396	0.14
458.751	0.14
459.106	0.13
459.461	0.13
459.816	0.12
460.171	0.13
460.526	0.13
460.881	0.12
461.236	0.11
461.591	0.12
461.946	0.11
462.301	0.12
462.655	0.11
463.01	0.12
463.365	0.11
463.719	0.1
464.074	0.1
464.428	0.1
464.783	0.08
465.137	0.09
465.492	0.09
465.846	0.09
466.201	0.09
466.555	0.09
466.909	0.09
467.263	0.11
467.618	0.11
467.972	0.11
468.326	0.11
468.68	0.1
469.034	0.09
469.388	0.09
469.742	0.09
470.096	0.1
470.45	0.11
470.804	0.11
471.157	0.11
471.511	0.12
471.865	0.11
472.218	0.12
472.572	0.13
472.926	0.14
473.279	0.14
473.633	0.15
473.986	0.16
474.34	0.17
474.693	0.18
475.046	0.18
475.4	0.19
475.753	0.2
476.106	0.21
476.459	0.22
476.812	0.23
477.165	0.24
477.519	0.25
477.872	0.26
478.224	0.26
478.577	0.28
478.93	0.28
479.283	0.27
479.636	0.29
479.989	0.3
480.341	0.31
480.694	0.32
481.047	0.32
481.399	0.33
481.752	0.33
482.104	0.35
482.457	0.35
482.809	0.36
483.162	0.37
483.514	0.37
483.866	0.38
484.219	0.38
484.571	0.38
484.923	0.38
485.275	0.39
485.627	0.4
485.979	0.41
486.331	0.41
486.683	0.42
487.035	0.42
487.387	0.43
487.739	0.44
488.091	0.45
488.443	0.45
488.794	0.45
489.146	0.45
489.498	0.46
489.849	0.46
490.201	0.46
490.552	0.47
490.904	0.48
491.255	0.48
491.607	0.48
491.958	0.49
492.309	0.49
492.661	0.5
493.012	0.51
493.363	0.51
493.714	0.51
494.065	0.52
494.416	0.53
494.767	0.53
495.118	0.53
495.469	0.53
495.82	0.55
496.171	0.55
496.522	0.54
496.872	0.56
497.223	0.56
497.574	0.56
497.924	0.57
498.275	0.58
498.626	0.58
498.976	0.58
499.327	0.59
499.677	0.6
500.027	0.6
500.378	0.6
500.728	0.61
501.078	0.61
501.428	0.61
501.779	0.62
502.129	0.62
502.479	0.63
502.829	0.64
503.179	0.63
503.529	0.64
503.879	0.65
504.229	0.65
504.578	0.66
504.928	0.66
505.278	0.67
505.628	0.67
505.977	0.67
506.327	0.67
506.676	0.68
507.026	0.69
507.375	0.69
507.725	0.69
508.074	0.7
508.424	0.7
508.773	0.71
509.122	0.71
509.471	0.71
509.82	0.72
510.17	0.73
510.519	0.72
510.868	0.73
511.217	0.74
511.566	0.74
511.915	0.74
512.263	0.75
512.612	0.75
512.961	0.76
513.31	0.76
513.659	0.76
514.007	0.77
514.356	0.77
514.704	0.78
515.053	0.78
515.401	0.78
515.75	0.78
516.098	0.79
516.447	0.8
516.795	0.8
517.143	0.8
517.491	0.8
517.839	0.8
518.188	0.81
518.536	0.81
518.884	0.81
519.232	0.82
519.58	0.82
519.928	0.82
520.275	0.82
520.623	0.83
520.971	0.84
521.319	0.84
521.666	0.84
522.014	0.83
522.362	0.84
522.709	0.84
523.057	0.85
523.404	0.85
523.752	0.85
524.099	0.86
524.446	0.86
524.794	0.86
525.141	0.87
525.488	0.87
525.835	0.87
526.182	0.88
526.529	0.87
526.876	0.88
527.223	0.89
527.57	0.88
527.917	0.89
528.264	0.88
528.611	0.89
528.958	0.88
529.304	0.89
529.651	0.9
529.998	0.9
530.344	0.91
530.691	0.91
531.037	0.91
531.384	0.91
531.73	0.91
532.076	0.91
532.423	0.91
532.769	0.92
533.115	0.92
533.461	0.92
533.807	0.92
534.154	0.93
534.5	0.93
534.846	0.92
535.192	0.93
535.537	0.93
535.883	0.93
536.229	0.94
536.575	0.94
536.921	0.94
537.266	0.94
537.612	0.93
537.957	0.94
538.303	0.94
538.649	0.94
538.994	0.95
539.339	0.96
539.685	0.94
540.03	0.95
540.375	0.94
540.721	0.95
541.066	0.95
541.411	0.96
541.756	0.95
542.101	0.95
542.446	0.95
542.791	0.97
543.136	0.96
543.481	0.96
543.825	0.96
544.17	0.96
544.515	0.96
544.86	0.97
545.204	0.97
545.549	0.97
545.893	0.97
546.238	0.97
546.582	0.97
546.927	0.97
547.271	0.97
547.615	0.98
547.96	0.97
548.304	0.97
548.648	0.97
548.992	0.97
549.336	0.97
549.68	0.98
550.024	0.98
550.368	0.98
550.712	0.98
551.056	0.98
551.4	0.98
551.743	0.98
552.087	0.97
552.431	0.98
552.774	0.98
553.118	0.98
553.462	0.97
553.805	0.97
554.148	0.97
554.492	0.97
554.835	0.97
555.178	0.98
555.522	0.98
555.865	0.97
556.208	0.98
556.551	0.97
556.894	0.98
557.237	0.97
557.58	0.97
557.923	0.97
558.266	0.97
558.609	0.97
558.952	0.97
559.294	0.97
559.637	0.97
559.98	0.97
560.322	0.97
560.665	0.96
561.007	0.96
561.35	0.96
561.692	0.95
562.034	0.95
562.377	0.95
562.719	0.95
563.061	0.95
563.403	0.96
563.745	0.95
564.088	0.96
564.43	0.95
564.772	0.96
565.113	0.95
565.455	0.95
565.797	0.95
566.139	0.95
566.481	0.94
566.822	0.95
567.164	0.94
567.506	0.94
567.847	0.94
568.189	0.94
568.53	0.94
568.872	0.93
569.213	0.93
569.554	0.92
569.895	0.93
570.237	0.92
570.578	0.93
570.919	0.92
571.26	0.92
571.601	0.92
571.942	0.92
572.283	0.92
572.624	0.92
572.965	0.91
573.306	0.91
573.646	0.9
573.987	0.9
574.328	0.9
574.668	0.9
575.009	0.89
575.349	0.89
575.69	0.89
576.03	0.89
576.37	0.88
576.711	0.88
577.051	0.88
577.391	0.88
577.731	0.88
578.072	0.88
578.412	0.87
578.752	0.88
579.092	0.87
579.431	0.86
579.771	0.83
580.111	0.83
580.451	0.85
580.791	0.87
581.13	0.87
581.47	0.86
581.81	0.86
582.149	0.86
582.489	0.86
582.828	0.84
583.167	0.81
583.507	0.77
583.846	0.77
584.185	0.81
584.525	0.83
584.864	0.84
585.203	0.85
585.542	0.84
585.881	0.85
586.22	0.84
586.559	0.83
586.898	0.82
587.236	0.82
587.575	0.82
587.914	0.83
588.252	0.83
588.591	0.84
588.93	0.83
589.268	0.83
589.607	0.83
589.945	0.83
590.283	0.83
590.622	0.83
590.96	0.83
591.298	0.83
591.636	0.84
591.974	0.83
592.313	0.84
592.651	0.83
592.989	0.83
593.326	0.83
593.664	0.83
594.002	0.83
594.34	0.82
594.678	0.82
595.015	0.81
595.353	0.81
595.691	0.82
596.028	0.83
596.366	0.82
596.703	0.83
597.04	0.82
597.378	0.82
597.715	0.82
598.052	0.83
598.389	0.82
598.726	0.82
599.064	0.82
599.401	0.82
599.738	0.82
600.074	0.82
600.411	0.81
600.748	0.81
601.085	0.81
601.422	0.81
601.758	0.8
602.095	0.8
602.432	0.8
602.768	0.8
603.105	0.81
603.441	0.81
603.777	0.81
604.114	0.81
604.45	0.81
604.786	0.81
605.122	0.8
605.459	0.8
605.795	0.79
606.131	0.8
606.467	0.79
606.803	0.79
607.139	0.79
607.474	0.79
607.81	0.78
608.146	0.78
608.482	0.78
608.817	0.78
609.153	0.77
609.488	0.77
609.824	0.77
610.159	0.77
610.495	0.77
610.83	0.77
611.165	0.77
611.5	0.76
611.836	0.75
612.171	0.75
612.506	0.75
612.841	0.75
613.176	0.75
613.511	0.74
613.845	0.74
614.18	0.74
614.515	0.74
614.85	0.73
615.184	0.73
615.519	0.73
615.854	0.73
616.188	0.72
616.523	0.72
616.857	0.72
617.191	0.72
617.526	0.72
617.86	0.71
618.194	0.71
618.528	0.71
618.862	0.71
619.196	0.71
619.53	0.7
619.864	0.7
620.198	0.7
620.532	0.69
620.866	0.69
621.2	0.69
621.533	0.69
621.867	0.68
622.201	0.68
622.534	0.68
622.868	0.68
623.201	0.67
623.534	0.67
623.868	0.67
624.201	0.66
624.534	0.66
624.868	0.66
625.201	0.66
625.534	0.65
625.867	0.65
626.2	0.64
626.533	0.65
626.865	0.64
627.198	0.64
627.531	0.64
627.864	0.63
628.196	0.62
628.529	0.62
628.862	0.62
629.194	0.63
629.527	0.62
629.859	0.62
630.191	0.61
630.524	0.61
630.856	0.6
631.188	0.6
631.52	0.6
631.852	0.59
632.184	0.59
632.516	0.58
632.848	0.58
633.18	0.58
633.512	0.58
633.844	0.57
634.175	0.57
634.507	0.56
634.839	0.56
635.17	0.56
635.502	0.55
635.833	0.55
636.165	0.55
636.496	0.54
636.827	0.54
637.159	0.54
637.49	0.53
637.821	0.53
638.152	0.53
638.483	0.53
638.814	0.52
639.145	0.52
639.476	0.51
639.807	0.51
640.137	0.5
640.468	0.5
640.799	0.5
641.129	0.49
641.46	0.49
641.791	0.49
642.121	0.49
642.451	0.49
642.782	0.48
643.112	0.48
643.442	0.47
643.773	0.47
644.103	0.47
644.433	0.47
644.763	0.46
645.093	0.46
645.423	0.46
645.753	0.46
646.082	0.45
646.412	0.45
646.742	0.45
647.072	0.45
647.401	0.44
647.731	0.45
648.06	0.44
648.39	0.44
648.719	0.44
649.048	0.44
649.378	0.44
649.707	0.43
650.036	0.43
650.365	0.43
650.694	0.43
651.023	0.43
651.352	0.42
651.681	0.43
652.01	0.42
652.339	0.42
652.668	0.42
652.996	0.41
653.325	0.41
653.654	0.42
653.982	0.41
654.311	0.41
654.639	0.41
654.967	0.41
655.296	0.4
655.624	0.4
655.952	0.4
656.28	0.4
656.609	0.4
656.937	0.4
657.265	0.38
657.593	0.22
657.92	0.13
658.248	0.11
658.576	0.18
658.904	0.3
659.231	0.38
659.559	0.39
659.887	0.39
660.214	0.38
660.542	0.38
660.869	0.38
661.196	0.38
661.524	0.38
661.851	0.38
662.178	0.38
662.505	0.37
662.832	0.38
663.159	0.37
663.486	0.37
663.813	0.37
664.14	0.36
664.467	0.36
664.794	0.36
665.12	0.36
665.447	0.36
665.774	0.36
666.1	0.36
666.427	0.35
666.753	0.35
667.079	0.35
667.406	0.34
667.732	0.34
668.058	0.35
668.384	0.35
668.71	0.35
669.036	0.34
669.362	0.34
669.688	0.34
670.014	0.33
670.34	0.33
670.666	0.33
670.991	0.33
671.317	0.32
671.643	0.32
671.968	0.32
672.294	0.31
672.619	0.31
672.945	0.31
673.27	0.31
673.595	0.3
673.92	0.3
674.246	0.3
674.571	0.3
674.896	0.3
675.221	0.3
675.546	0.29
675.87	0.29
676.195	0.29
676.52	0.29
676.845	0.28
677.169	0.28
677.494	0.28
677.819	0.28
678.143	0.27
678.468	0.27
678.792	0.27
679.116	0.27
679.44	0.27
679.765	0.26
680.089	0.26
680.413	0.25
680.737	0.25
681.061	0.25
681.385	0.25
681.709	0.24
682.033	0.24
682.356	0.24
682.68	0.24
683.004	0.24
683.327	0.24
683.651	0.23
683.974	0.23
684.298	0.23
684.621	0.22
684.944	0.22
685.268	0.22
685.591	0.22
685.914	0.21
686.237	0.21
686.56	0.21
686.883	0.2
687.206	0.2
687.529	0.2
687.852	0.19
688.175	0.2
688.497	0.2
688.82	0.2
689.142	0.19
689.465	0.19
689.787	0.19
690.11	0.19
690.432	0.18
690.755	0.18
691.077	0.18
691.399	0.17
691.721	0.17
692.043	0.17
692.365	0.17
692.687	0.16
693.009	0.16
693.331	0.16
693.653	0.16
693.974	0.16
694.296	0.16
694.618	0.15
694.939	0.15
695.261	0.15
695.582	0.15
695.904	0.15
696.225	0.15
696.546	0.15
696.868	0.15
697.189	0.14
697.51	0.14
697.831	0.14
698.152	0.14
698.473	0.14
698.794	0.12
699.114	0.12
699.435	0.11
699.756	0.12
700.077	0.12
700.397	0.12
700.718	0.12
701.038	0.12
701.359	0.13
701.679	0.13
701.999	0.13
702.32	0.12
702.64	0.12
702.96	0.12
703.28	0.12
703.6	0.12
703.92	0.12
704.24	0.12
704.56	0.11
704.879	0.11
705.199	0.11
705.519	0.11
705.838	0.11
706.158	0.11
706.478	0.12
706.797	0.12
707.116	0.11
707.436	0.11
707.755	0.11
708.074	0.11
708.393	0.11
708.712	0.1
709.031	0.09
709.35	0.09
709.669	0.09
709.988	0.09
710.307	0.1
710.626	0.1
710.944	0.11
711.263	0.1
711.582	0.11
711.9	0.11
712.219	0.1
712.537	0.1
712.855	0.1
713.174	0.1
713.492	0.11
713.81	0.11
714.128	0.11
714.446	0.11
714.764	0.1
715.082	0.09
715.4	0.1
715.718	0.1
716.035	0.1
716.353	0.1
716.671	0.1
716.988	0.1
717.306	0.1
717.623	0.11
717.941	0.11
718.258	0.11
718.575	0.11
718.893	0.11
719.21	0.11
719.527	0.11
719.844	0.11
720.161	0.11
720.478	0.11
720.795	0.11
721.112	0.11
721.428	0.11
721.745	0.11
722.062	0.11
722.378	0.12
722.695	0.12
723.011	0.11
723.328	0.12
723.644	0.12
723.96	0.12
724.276	0.11
724.593	0.12
724.909	0.12
725.225	0.11
725.541	0.12
725.857	0.11
726.173	0.12
726.488	0.11
726.804	0.11
727.12	0.11
727.435	0.11
727.751	0.11
728.067	0.11
728.382	0.11
728.697	0.11
729.013	0.11
729.328	0.11
729.643	0.11
729.958	0.11
730.273	0.11
730.588	0.11
730.903	0.11
731.218	0.11
731.533	0.11
731.848	0.11
732.163	0.11
732.477	0.11
732.792	0.1
733.107	0.1
733.421	0.1
733.736	0.1
734.05	0.1
734.364	0.1
734.678	0.1
734.993	0.1
735.307	0.1
735.621	0.1
735.935	0.1
736.249	0.1
736.563	0.1
736.877	0.1
737.19	0.1
737.504	0.1
737.818	0.1
738.131	0.1
738.445	0.1
738.758	0.11
739.072	0.1
739.385	0.11
739.698	0.11
740.012	0.11
740.325	0.1
740.638	0.1
740.951	0.1
741.264	0.1
741.577	0.1
741.89	0.1
742.203	0.1
742.515	0.1
742.828	0.1
743.141	0.1
743.453	0.1
743.766	0.1
744.078	0.09
744.391	0.09
744.703	0.09
745.015	0.09
745.327	0.09
745.639	0.09
745.952	0.09
746.264	0.09
746.575	0.09
746.887	0.09
747.199	0.09
747.511	0.09
747.823	0.09
748.134	0.08
748.446	0.08
748.757	0.08
749.069	0.08
749.38	0.08
749.692	0.07
750.003	0.07
750.314	0.07
750.625	0.07
750.936	0.07
751.248	0.07
751.559	0.07
751.869	0.07
752.18	0.07
752.491	0.07
752.802	0.07
753.112	0.07
753.423	0.07
753.734	0.07
754.044	0.06
754.355	0.06
754.665	0.06
754.975	0.06
755.285	0.06
755.596	0.06
755.906	0.06
756.216	0.06
756.526	0.06
756.836	0.06
757.146	0.06
757.455	0.06
757.765	0.06
758.075	0.06
758.385	0.05
758.694	0.05
759.004	0.05
759.313	0.05
759.622	0.05
759.932	0.06
760.241	0.06
760.55	0.06
760.859	0.06
761.168	0.06
761.477	0.06
761.786	0.06
762.095	0.06
762.404	0.05
762.713	0.06
763.021	0.05
763.33	0.05
763.639	0.06
763.947	0.06
764.256	0.06
764.564	0.06
764.872	0.06
765.181	0.06
765.489	0.05
765.797	0.05
766.105	0.05
766.413	0.05
766.721	0.05
767.029	0.05
767.337	0.05
767.644	0.05
767.952	0.05
768.26	0.06
768.567	0.06
768.875	0.06
769.182	0.05
769.49	0.05
769.797	0.05
770.104	0.05
770.411	0.05
770.718	0.05
771.026	0.05
771.333	0.05
771.639	0.05
771.946	0.05
772.253	0.05
772.56	0.05
772.867	0.05
773.173	0.05
773.48	0.05
773.786	0.05
774.093	0.05
774.399	0.05
774.705	0.06
775.012	0.05
775.318	0.06
775.624	0.06
775.93	0.05
776.236	0.06
776.542	0.06
776.848	0.06
777.154	0.06
777.459	0.06
777.765	0.06
778.071	0.06
778.376	0.06
778.682	0.05
778.987	0.06
779.292	0.06
779.598	0.05
779.903	0.05
780.208	0.05
780.513	0.05
780.818	0.05
781.123	0.05
781.428	0.05
781.733	0.05
782.038	0.05
782.343	0.05
782.647	0.05
782.952	0.05
783.256	0.05
783.561	0.05
783.865	0.05
784.17	0.05
784.474	0.05
784.778	0.04
785.082	0.05
785.386	0.05
785.69	0.05
785.994	0.05
786.298	0.05
786.602	0.05
786.906	0.05
787.209	0.06
787.513	0.06
787.817	0.06
788.12	0.06
788.424	0.07
788.727	0.07
789.03	0.07
789.333	0.06
789.637	0.06
789.94	0.06
790.243	0.06
790.546	0.07
790.849	0.07
791.152	0.07
791.454	0.06
791.757	0.07
792.06	0.07
792.362	0.07
792.665	0.06
792.967	0.06
793.27	0.06
793.572	0.06
793.874	0.07
794.177	0.07
794.479	0.07
794.781	0.07
795.083	0.07
795.385	0.07
795.687	0.08
795.989	0.07
796.29	0.08
796.592	0.07
796.894	0.07
797.195	0.07
797.497	0.07
797.798	0.08
798.1	0.08
798.401	0.07
798.702	0.08
799.003	0.07
799.304	0.07
799.605	0.07
799.906	0.07
800.207	0.07
800.508	0.07
800.809	0.08
801.11	0.08
801.41	0.08
801.711	0.08
802.011	0.08
802.312	0.08
802.612	0.08
802.913	0.08
803.213	0.08
803.513	0.08
803.813	0.08
804.113	0.08
804.413	0.08
804.713	0.08
805.013	0.09
805.313	0.09
805.613	0.08
805.912	0.08
806.212	0.08
806.511	0.08
806.811	0.08
807.11	0.08
807.41	0.08
807.709	0.08
808.008	0.08
808.307	0.09
808.606	0.08
808.905	0.08
809.204	0.08
809.503	0.08
809.802	0.09
810.101	0.09
810.399	0.09
810.698	0.09
810.997	0.09
811.295	0.09
811.593	0.09
811.892	0.09
812.19	0.09
812.488	0.09
812.786	0.09
813.084	0.09
813.383	0.09
813.68	0.09
813.978	0.1
814.276	0.1
814.574	0.09
814.872	0.09
815.169	0.1
815.467	0.09
815.764	0.09
816.062	0.09
816.359	0.09
816.656	0.09
816.954	0.1
817.251	0.1
817.548	0.1
817.845	0.1
818.142	0.1
818.439	0.1
818.735	0.11
819.032	0.11
819.329	0.11
819.626	0.11
819.922	0.11
820.219	0.11
820.515	0.11
820.811	0.12
821.108	0.11
821.404	0.11
821.7	0.1
821.996	0.1
822.292	0.1
822.588	0.11
822.884	0.11
823.18	0.12
823.475	0.12
823.771	0.12
824.067	0.12
824.362	0.12
824.658	0.12
824.953	0.12
825.249	0.11
825.544	0.11
825.839	0.12
826.134	0.11
826.429	0.11
826.724	0.11
827.019	0.12
827.314	0.12
827.609	0.12
827.904	0.12
828.198	0.12
828.493	0.12
828.787	0.12
829.082	0.13
829.376	0.13
829.671	0.14
829.965	0.14
830.259	0.14
830.553	0.14
830.847	0.13
831.141	0.13
831.435	0.13
831.729	0.14
832.023	0.13
832.317	0.13
832.61	0.12
832.904	0.13
833.197	0.13
833.491	0.13
833.784	0.14
834.077	0.14
834.371	0.13
834.664	0.14
834.957	0.14
835.25	0.13
835.543	0.14
835.836	0.14
836.129	0.14
836.421	0.14
836.714	0.13
837.007	0.14
837.299	0.13
837.592	0.13
837.884	0.14
838.177	0.14
838.469	0.14
838.761	0.14
839.053	0.14
839.345	0.15
839.637	0.14
839.929	0.14
840.221	0.14
840.513	0.14
840.805	0.15
841.096	0.15
841.388	0.15
841.68	0.15
841.971	0.15
842.262	0.15
842.554	0.14
842.845	0.15
843.136	0.14
843.427	0.16
843.718	0.15
844.009	0.15
844.3	0.15
844.591	0.15
844.882	0.15
845.173	0.15
845.463	0.15
845.754	0.16
846.044	0.16
846.335	0.15
846.625	0.16
846.915	0.15
847.206	0.16
847.496	0.16
847.786	0.15
848.076	0.15
848.366	0.16
848.656	0.15
848.945	0.15
849.235	0.15
849.525	0.14
849.814	0.15
850.104	0.14
850.393	0.16
850.683	0.18
850.972	0.15
851.261	0.16
851.551	0.17
851.84	0.17
852.129	0.17
852.418	0.17
852.707	0.18
852.995	0.17
853.284	0.17
853.573	0.16
853.862	0.16
854.15	0.16
854.439	0.15
854.727	0.17
855.015	0.17
855.304	0.15
855.592	0.17
855.88	0.18
856.168	0.16
856.456	0.17
856.744	0.16
857.032	0.15
857.32	0.17
857.607	0.16
857.895	0.17
858.183	0.19
858.47	0.17
858.757	0.17
859.045	0.18
859.332	0.16
859.619	0.19
859.907	0.18
860.194	0.17
860.481	0.19
860.768	0.16
861.054	0.16
861.341	0.17
861.628	0.18
861.915	0.17
862.201	0.18
862.488	0.19
862.774	0.18
863.061	0.2
863.347	0.18
863.633	0.19
863.919	0.17
864.205	0.19
864.491	0.19
864.777	0.22
865.063	0.17
865.349	0.2
865.635	0.2
865.92	0.17
866.206	0.17
866.492	0.18
866.777	0.22
867.062	0.21
867.348	0.19
867.633	0.17
867.918	0.2
868.203	0.17
868.488	0.19
868.773	0.23
869.058	0.22
869.343	0.19
869.628	0.22
869.912	0.23
870.197	0.16
870.482	0.19
870.766	0.18
871.05	0.21
871.335	0.2
871.619	0.19
871.903	0.25
872.187	0.21
872.471	0.24
872.755	0.16
873.039	0.2
873.323	0.16
873.607	0.23
873.89	0.21
874.174	0.17
874.458	0.18
874.741	0.2
875.024	0.18
875.308	0.2
875.591	0.21
875.874	0.13
876.157	0.19
876.44	0.07
876.723	0.15
877.006	0.13
877.289	0.21
877.572	0.13
877.854	0.19
878.137	0.16
878.42	0.07
878.702	0.17
878.984	0.35
879.267	0.2
879.549	0.12
879.831	0.08
880.113	0.14
880.395	0.05
880.677	0.11
880.959	0.12
