Data from Rubpy_BV_1800_EDTA_Buffered_Absorbance_15-02-33-960.txt Node
Date: Wed Jul 01 15:02:33 BST 2026
User: fpm-admin
Spectrometer: OFX00224
Trigger mode: 0
Integration Time (sec): 7.000000E-2
Scans to average: 3
Nonlinearity correction enabled: false
Boxcar width: 0
Storing dark spectrum: false
XAxis mode: Wavelengths
Number of Pixels in Spectrum: 2136
>>>>>Begin Spectral Data<<<<<
154.91	-0.35
155.289	-0
155.669	-0.9
156.048	-0.83
156.428	-0.15
156.807	-0
157.186	0.3
157.566	-0.52
157.945	-0
158.325	0.57
158.704	0.46
159.083	-0
159.462	-0
159.842	-0.11
160.221	-0
160.6	-0.09
160.979	-0.22
161.359	0.38
161.738	0.71
162.117	1.28
162.496	-0.43
162.875	-0.31
163.254	-0
163.633	-0
164.012	-0.41
164.391	-0.74
164.77	-0
165.149	-0.34
165.528	-0.85
165.907	-1.19
166.286	-0.07
166.665	-0.27
167.044	0.91
167.423	0.2
167.802	-0.22
168.181	0.05
168.559	-0
168.938	-0.6
169.317	0.98
169.696	-0
170.074	0.06
170.453	0.48
170.832	-0.53
171.21	-0
171.589	-0
171.968	-0
172.346	-0
172.725	0.28
173.103	0.48
173.482	0.06
173.861	-0
174.239	0.08
174.617	-0.48
174.996	0.34
175.374	-0
175.753	0.15
176.131	-0
176.51	0.05
176.888	-0
177.266	-0
177.645	0.06
178.023	-0
178.401	-0.11
178.779	-0.16
179.158	-0
179.536	-0.05
179.914	-0.17
180.292	0.09
180.67	-0
181.048	-0.26
181.427	-0
181.805	-0
182.183	-1.41
182.561	0.11
182.939	-0
183.317	1.18
183.695	-0
184.073	0.4
184.451	-0.04
184.829	0.14
185.206	0.9
185.584	0.78
185.962	-0
186.34	0.25
186.718	0.15
187.096	-0
187.473	0.24
187.851	-0
188.229	-0
188.607	0.15
188.984	0.1
189.362	0.31
189.74	0.17
190.117	0.19
190.495	0.22
190.872	0.3
191.25	0.31
191.627	0.13
192.005	0.09
192.382	0.02
192.76	0.23
193.137	0.25
193.515	0.16
193.892	0.3
194.269	0.43
194.647	0.3
195.024	0.2
195.401	0.08
195.779	0.25
196.156	0.14
196.533	0.17
196.91	0.09
197.288	0.11
197.665	0.16
198.042	0.15
198.419	0.17
198.796	0.06
199.173	0.25
199.55	0.12
199.927	0.19
200.304	0.17
200.681	0.23
201.058	0.26
201.435	0.2
201.812	0.12
202.189	0.41
202.566	0.13
202.943	0.16
203.32	0.2
203.697	0.22
204.073	0.28
204.45	0.23
204.827	0.11
205.204	0.18
205.58	0.22
205.957	0.15
206.334	0.19
206.71	0.28
207.087	0.25
207.464	0.18
207.84	0.28
208.217	0.22
208.593	0.18
208.97	0.24
209.346	0.3
209.723	0.25
210.099	0.29
210.476	0.18
210.852	0.18
211.228	0.2
211.605	0.3
211.981	0.26
212.357	0.14
212.733	0.3
213.11	0.2
213.486	0.22
213.862	0.4
214.238	0.22
214.614	0.27
214.991	0.22
215.367	0.24
215.743	0.27
216.119	0.36
216.495	0.25
216.871	0.2
217.247	0.13
217.623	0.21
217.999	0.17
218.375	0.27
218.751	0.16
219.127	0.2
219.502	0.24
219.878	0.25
220.254	0.2
220.63	0.2
221.006	0.23
221.381	0.18
221.757	0.21
222.133	0.23
222.508	0.27
222.884	0.25
223.26	0.28
223.635	0.25
224.011	0.33
224.386	0.26
224.762	0.27
225.137	0.23
225.513	0.22
225.888	0.21
226.264	0.15
226.639	0.27
227.014	0.2
227.39	0.26
227.765	0.14
228.14	0.31
228.516	0.46
228.891	0.23
229.266	0.14
229.641	0.11
230.017	0.21
230.392	0.34
230.767	0.16
231.142	0.19
231.517	0.17
231.892	0.27
232.267	0.26
232.642	0.32
233.017	0.25
233.392	0.2
233.767	0.25
234.142	0.12
234.517	0.36
234.892	0.22
235.267	0.19
235.641	0.19
236.016	0.16
236.391	0.3
236.766	0.25
237.14	0.21
237.515	0.27
237.89	0.2
238.264	0.17
238.639	0.25
239.014	0.25
239.388	0.3
239.763	0.25
240.137	0.21
240.512	0.16
240.886	0.3
241.261	0.18
241.635	0.14
242.009	0.29
242.384	0.19
242.758	0.19
243.132	0.28
243.507	0.24
243.881	0.16
244.255	0.22
244.629	0.24
245.004	0.24
245.378	0.27
245.752	0.19
246.126	0.21
246.5	0.24
246.874	0.09
247.248	0.25
247.622	0.23
247.996	0.18
248.37	0.21
248.744	0.19
249.118	0.14
249.492	0.25
249.866	0.23
250.24	0.32
250.613	0.29
250.987	0.25
251.361	0.25
251.735	0.2
252.108	0.26
252.482	0.24
252.856	0.19
253.229	0.16
253.603	0.16
253.977	0.21
254.35	0.1
254.724	0.24
255.097	0.22
255.471	0.32
255.844	0.29
256.218	0.25
256.591	0.23
256.964	0.22
257.338	0.26
257.711	0.18
258.084	0.11
258.458	0.26
258.831	0.19
259.204	0.23
259.577	0.29
259.95	0.21
260.323	0.23
260.697	0.2
261.07	0.24
261.443	0.22
261.816	0.1
262.189	0.3
262.562	0.31
262.935	0.36
263.308	0.24
263.68	0.2
264.053	0.18
264.426	0.25
264.799	0.22
265.172	0.28
265.545	0.3
265.917	0.25
266.29	0.21
266.663	0.31
267.035	0.22
267.408	0.21
267.781	0.33
268.153	0.3
268.526	0.24
268.898	0.23
269.271	0.28
269.643	0.32
270.016	0.19
270.388	0.23
270.76	0.39
271.133	0.28
271.505	0.2
271.877	0.33
272.25	0.26
272.622	0.25
272.994	0.37
273.366	0.33
273.739	0.2
274.111	0.18
274.483	0.28
274.855	0.31
275.227	0.23
275.599	0.18
275.971	0.22
276.343	0.24
276.715	0.27
277.087	0.26
277.459	0.23
277.831	0.26
278.203	0.29
278.574	0.25
278.946	0.36
279.318	0.23
279.69	0.3
280.061	0.31
280.433	0.25
280.805	0.26
281.176	0.18
281.548	0.28
281.92	0.25
282.291	0.18
282.663	0.27
283.034	0.27
283.406	0.26
283.777	0.28
284.148	0.23
284.52	0.27
284.891	0.27
285.262	0.32
285.634	0.28
286.005	0.26
286.376	0.19
286.747	0.32
287.119	0.28
287.49	0.22
287.861	0.3
288.232	0.2
288.603	0.33
288.974	0.16
289.345	0.25
289.716	0.24
290.087	0.18
290.458	0.28
290.829	0.17
291.2	0.23
291.571	0.27
291.941	0.3
292.312	0.3
292.683	0.3
293.054	0.25
293.424	0.25
293.795	0.26
294.166	0.24
294.536	0.3
294.907	0.34
295.277	0.25
295.648	0.32
296.018	0.24
296.389	0.23
296.759	0.23
297.13	0.25
297.5	0.23
297.871	0.23
298.241	0.3
298.611	0.19
298.981	0.27
299.352	0.24
299.722	0.37
300.092	0.27
300.462	0.2
300.832	0.26
301.202	0.38
301.573	0.27
301.943	0.22
302.313	0.32
302.683	0.24
303.053	0.24
303.422	0.22
303.792	0.23
304.162	0.29
304.532	0.21
304.902	0.28
305.272	0.28
305.641	0.28
306.011	0.23
306.381	0.26
306.75	0.2
307.12	0.22
307.49	0.22
307.859	0.21
308.229	0.2
308.598	0.22
308.968	0.25
309.337	0.2
309.707	0.2
310.076	0.21
310.445	0.21
310.815	0.2
311.184	0.22
311.553	0.18
311.923	0.17
312.292	0.2
312.661	0.19
313.03	0.19
313.399	0.2
313.768	0.17
314.137	0.19
314.506	0.21
314.875	0.19
315.244	0.21
315.613	0.19
315.982	0.21
316.351	0.22
316.72	0.2
317.089	0.21
317.458	0.21
317.826	0.22
318.195	0.21
318.564	0.21
318.933	0.21
319.301	0.23
319.67	0.22
320.038	0.22
320.407	0.23
320.775	0.22
321.144	0.24
321.512	0.25
321.881	0.23
322.249	0.24
322.618	0.25
322.986	0.22
323.354	0.25
323.723	0.27
324.091	0.24
324.459	0.25
324.827	0.25
325.195	0.27
325.564	0.27
325.932	0.27
326.3	0.28
326.668	0.29
327.036	0.28
327.404	0.28
327.772	0.28
328.14	0.29
328.508	0.3
328.875	0.29
329.243	0.31
329.611	0.32
329.979	0.32
330.346	0.32
330.714	0.32
331.082	0.33
331.449	0.34
331.817	0.33
332.185	0.34
332.552	0.35
332.92	0.36
333.287	0.37
333.655	0.37
334.022	0.38
334.389	0.38
334.757	0.39
335.124	0.4
335.491	0.41
335.859	0.41
336.226	0.42
336.593	0.42
336.96	0.43
337.327	0.43
337.695	0.45
338.062	0.45
338.429	0.46
338.796	0.46
339.163	0.48
339.53	0.49
339.897	0.49
340.263	0.5
340.63	0.51
340.997	0.52
341.364	0.54
341.731	0.54
342.097	0.55
342.464	0.55
342.831	0.57
343.197	0.58
343.564	0.59
343.931	0.59
344.297	0.6
344.664	0.61
345.03	0.62
345.396	0.62
345.763	0.64
346.129	0.65
346.496	0.65
346.862	0.66
347.228	0.68
347.594	0.69
347.961	0.69
348.327	0.7
348.693	0.71
349.059	0.72
349.425	0.73
349.791	0.74
350.157	0.74
350.523	0.75
350.889	0.77
351.255	0.77
351.621	0.78
351.987	0.79
352.353	0.79
352.719	0.8
353.084	0.82
353.45	0.83
353.816	0.84
354.181	0.85
354.547	0.86
354.913	0.87
355.278	0.88
355.644	0.89
356.009	0.9
356.375	0.91
356.74	0.92
357.106	0.93
357.471	0.94
357.836	0.95
358.202	0.97
358.567	0.98
358.932	1
359.297	1
359.663	1.02
360.028	1.03
360.393	1.04
360.758	1.06
361.123	1.08
361.488	1.09
361.853	1.11
362.218	1.12
362.583	1.12
362.948	1.14
363.312	1.16
363.677	1.16
364.042	1.18
364.407	1.18
364.772	1.2
365.136	1.21
365.501	1.22
365.865	1.25
366.23	1.24
366.595	1.26
366.959	1.27
367.324	1.28
367.688	1.27
368.052	1.3
368.417	1.31
368.781	1.31
369.145	1.32
369.51	1.32
369.874	1.34
370.238	1.35
370.602	1.35
370.967	1.38
371.331	1.35
371.695	1.36
372.059	1.36
372.423	1.37
372.787	1.37
373.151	1.36
373.515	1.36
373.878	1.37
374.242	1.37
374.606	1.37
374.97	1.35
375.334	1.34
375.697	1.32
376.061	1.3
376.425	1.3
376.788	1.31
377.152	1.28
377.515	1.27
377.879	1.26
378.242	1.26
378.606	1.23
378.969	1.21
379.333	1.2
379.696	1.19
380.059	1.18
380.422	1.17
380.786	1.16
381.149	1.15
381.512	1.11
381.875	1.12
382.238	1.11
382.601	1.09
382.964	1.08
383.327	1.07
383.69	1.05
384.053	1.05
384.416	1.05
384.779	1.03
385.142	1.03
385.504	1
385.867	1.01
386.23	1.01
386.593	1
386.955	1.01
387.318	1
387.68	1
388.043	0.99
388.405	1
388.768	0.98
389.13	0.99
389.493	0.99
389.855	0.98
390.217	0.97
390.58	0.97
390.942	0.95
391.304	0.94
391.666	0.94
392.028	0.93
392.391	0.92
392.753	0.9
393.115	0.89
393.477	0.88
393.839	0.86
394.201	0.87
394.563	0.86
394.924	0.86
395.286	0.85
395.648	0.87
396.01	0.86
396.371	0.88
396.733	0.88
397.095	0.9
397.456	0.91
397.818	0.94
398.18	0.95
398.541	0.97
398.903	1
399.264	1.03
399.625	1.05
399.987	1.07
400.348	1.09
400.709	1.1
401.071	1.1
401.432	1.1
401.793	1.12
402.154	1.09
402.515	1.09
402.876	1.08
403.238	1.05
403.599	1.03
403.96	0.99
404.32	0.95
404.681	0.92
405.042	0.89
405.403	0.85
405.764	0.81
406.125	0.77
406.485	0.73
406.846	0.7
407.207	0.66
407.567	0.62
407.928	0.6
408.288	0.56
408.649	0.52
409.009	0.5
409.37	0.47
409.73	0.45
410.091	0.42
410.451	0.4
410.811	0.37
411.171	0.36
411.532	0.34
411.892	0.33
412.252	0.31
412.612	0.3
412.972	0.28
413.332	0.27
413.692	0.27
414.052	0.25
414.412	0.24
414.772	0.23
415.132	0.23
415.492	0.22
415.851	0.21
416.211	0.2
416.571	0.2
416.931	0.19
417.29	0.18
417.65	0.18
418.009	0.18
418.369	0.18
418.728	0.17
419.088	0.17
419.447	0.16
419.807	0.15
420.166	0.15
420.525	0.14
420.884	0.15
421.244	0.14
421.603	0.14
421.962	0.13
422.321	0.14
422.68	0.14
423.039	0.13
423.398	0.12
423.757	0.13
424.116	0.14
424.475	0.12
424.834	0.12
425.193	0.12
425.551	0.12
425.91	0.12
426.269	0.12
426.628	0.11
426.986	0.12
427.345	0.12
427.703	0.11
428.062	0.11
428.42	0.11
428.779	0.11
429.137	0.11
429.496	0.11
429.854	0.11
430.212	0.1
430.57	0.11
430.929	0.1
431.287	0.1
431.645	0.11
432.003	0.1
432.361	0.11
432.719	0.11
433.077	0.1
433.435	0.11
433.793	0.11
434.151	0.11
434.509	0.1
434.866	0.1
435.224	0.1
435.582	0.11
435.94	0.11
436.297	0.1
436.655	0.1
437.012	0.1
437.37	0.1
437.727	0.11
438.085	0.1
438.442	0.1
438.8	0.1
439.157	0.1
439.514	0.1
439.872	0.1
440.229	0.1
440.586	0.1
440.943	0.1
441.3	0.1
441.657	0.1
442.014	0.09
442.371	0.1
442.728	0.09
443.085	0.09
443.442	0.1
443.799	0.09
444.156	0.11
444.513	0.1
444.869	0.09
445.226	0.1
445.583	0.1
445.939	0.1
446.296	0.1
446.652	0.09
447.009	0.1
447.365	0.1
447.722	0.1
448.078	0.1
448.434	0.11
448.791	0.1
449.147	0.1
449.503	0.1
449.859	0.1
450.215	0.09
450.571	0.1
450.928	0.1
451.284	0.1
451.64	0.1
451.995	0.1
452.351	0.1
452.707	0.1
453.063	0.1
453.419	0.09
453.775	0.09
454.13	0.09
454.486	0.09
454.842	0.09
455.197	0.09
455.553	0.08
455.908	0.08
456.264	0.08
456.619	0.08
456.975	0.08
457.33	0.08
457.685	0.08
458.04	0.08
458.396	0.08
458.751	0.07
459.106	0.05
459.461	0.07
459.816	0.06
460.171	0.06
460.526	0.06
460.881	0.05
461.236	0.05
461.591	0.06
461.946	0.06
462.301	0.05
462.655	0.05
463.01	0.04
463.365	0.05
463.719	0.03
464.074	0.03
464.428	0.02
464.783	0.02
465.137	0.03
465.492	0.03
465.846	0.02
466.201	0.03
466.555	0.03
466.909	0.03
467.263	0.04
467.618	0.04
467.972	0.04
468.326	0.04
468.68	0.03
469.034	0.03
469.388	0.02
469.742	0.03
470.096	0.03
470.45	0.04
470.804	0.03
471.157	0.04
471.511	0.04
471.865	0.04
472.218	0.04
472.572	0.05
472.926	0.05
473.279	0.05
473.633	0.06
473.986	0.08
474.34	0.08
474.693	0.09
475.046	0.1
475.4	0.1
475.753	0.11
476.106	0.11
476.459	0.12
476.812	0.13
477.165	0.14
477.519	0.15
477.872	0.15
478.224	0.15
478.577	0.16
478.93	0.17
479.283	0.17
479.636	0.18
479.989	0.18
480.341	0.19
480.694	0.2
481.047	0.19
481.399	0.2
481.752	0.2
482.104	0.21
482.457	0.21
482.809	0.22
483.162	0.23
483.514	0.23
483.866	0.23
484.219	0.23
484.571	0.23
484.923	0.23
485.275	0.24
485.627	0.25
485.979	0.25
486.331	0.25
486.683	0.26
487.035	0.26
487.387	0.27
487.739	0.28
488.091	0.28
488.443	0.28
488.794	0.28
489.146	0.29
489.498	0.29
489.849	0.29
490.201	0.3
490.552	0.3
490.904	0.3
491.255	0.3
491.607	0.3
491.958	0.3
492.309	0.31
492.661	0.31
493.012	0.32
493.363	0.32
493.714	0.33
494.065	0.32
494.416	0.33
494.767	0.33
495.118	0.34
495.469	0.34
495.82	0.35
496.171	0.35
496.522	0.35
496.872	0.36
497.223	0.35
497.574	0.36
497.924	0.36
498.275	0.37
498.626	0.37
498.976	0.37
499.327	0.38
499.677	0.38
500.027	0.38
500.378	0.38
500.728	0.38
501.078	0.39
501.428	0.39
501.779	0.39
502.129	0.39
502.479	0.39
502.829	0.4
503.179	0.41
503.529	0.41
503.879	0.42
504.229	0.41
504.578	0.42
504.928	0.42
505.278	0.43
505.628	0.43
505.977	0.43
506.327	0.43
506.676	0.43
507.026	0.44
507.375	0.44
507.725	0.44
508.074	0.45
508.424	0.45
508.773	0.45
509.122	0.45
509.471	0.46
509.82	0.46
510.17	0.46
510.519	0.46
510.868	0.46
511.217	0.46
511.566	0.47
511.915	0.47
512.263	0.48
512.612	0.48
512.961	0.48
513.31	0.48
513.659	0.48
514.007	0.49
514.356	0.49
514.704	0.49
515.053	0.5
515.401	0.5
515.75	0.5
516.098	0.5
516.447	0.51
516.795	0.51
517.143	0.51
517.491	0.51
517.839	0.52
518.188	0.52
518.536	0.52
518.884	0.52
519.232	0.53
519.58	0.52
519.928	0.53
520.275	0.53
520.623	0.53
520.971	0.53
521.319	0.53
521.666	0.54
522.014	0.54
522.362	0.55
522.709	0.55
523.057	0.54
523.404	0.55
523.752	0.54
524.099	0.55
524.446	0.55
524.794	0.56
525.141	0.56
525.488	0.56
525.835	0.56
526.182	0.56
526.529	0.56
526.876	0.56
527.223	0.56
527.57	0.57
527.917	0.57
528.264	0.57
528.611	0.57
528.958	0.57
529.304	0.58
529.651	0.57
529.998	0.58
530.344	0.58
530.691	0.58
531.037	0.59
531.384	0.59
531.73	0.59
532.076	0.59
532.423	0.59
532.769	0.59
533.115	0.6
533.461	0.6
533.807	0.6
534.154	0.6
534.5	0.6
534.846	0.6
535.192	0.6
535.537	0.6
535.883	0.61
536.229	0.6
536.575	0.61
536.921	0.61
537.266	0.61
537.612	0.61
537.957	0.61
538.303	0.61
538.649	0.62
538.994	0.61
539.339	0.61
539.685	0.62
540.03	0.63
540.375	0.62
540.721	0.62
541.066	0.62
541.411	0.62
541.756	0.62
542.101	0.62
542.446	0.62
542.791	0.63
543.136	0.62
543.481	0.63
543.825	0.63
544.17	0.63
544.515	0.63
544.86	0.63
545.204	0.63
545.549	0.63
545.893	0.63
546.238	0.63
546.582	0.64
546.927	0.64
547.271	0.63
547.615	0.64
547.96	0.64
548.304	0.64
548.648	0.64
548.992	0.64
549.336	0.64
549.68	0.64
550.024	0.64
550.368	0.65
550.712	0.64
551.056	0.63
551.4	0.64
551.743	0.64
552.087	0.64
552.431	0.65
552.774	0.64
553.118	0.64
553.462	0.64
553.805	0.64
554.148	0.65
554.492	0.64
554.835	0.64
555.178	0.64
555.522	0.64
555.865	0.64
556.208	0.64
556.551	0.64
556.894	0.64
557.237	0.65
557.58	0.64
557.923	0.64
558.266	0.64
558.609	0.64
558.952	0.64
559.294	0.65
559.637	0.64
559.98	0.64
560.322	0.64
560.665	0.64
561.007	0.64
561.35	0.64
561.692	0.63
562.034	0.63
562.377	0.64
562.719	0.63
563.061	0.64
563.403	0.63
563.745	0.63
564.088	0.64
564.43	0.63
564.772	0.63
565.113	0.63
565.455	0.63
565.797	0.63
566.139	0.63
566.481	0.63
566.822	0.63
567.164	0.63
567.506	0.63
567.847	0.63
568.189	0.63
568.53	0.62
568.872	0.62
569.213	0.62
569.554	0.62
569.895	0.62
570.237	0.62
570.578	0.62
570.919	0.62
571.26	0.62
571.601	0.61
571.942	0.61
572.283	0.61
572.624	0.61
572.965	0.61
573.306	0.6
573.646	0.6
573.987	0.6
574.328	0.6
574.668	0.6
575.009	0.6
575.349	0.59
575.69	0.59
576.03	0.59
576.37	0.59
576.711	0.58
577.051	0.59
577.391	0.59
577.731	0.59
578.072	0.59
578.412	0.58
578.752	0.59
579.092	0.58
579.431	0.57
579.771	0.55
580.111	0.54
580.451	0.56
580.791	0.58
581.13	0.58
581.47	0.58
581.81	0.58
582.149	0.58
582.489	0.57
582.828	0.56
583.167	0.53
583.507	0.49
583.846	0.49
584.185	0.53
584.525	0.55
584.864	0.56
585.203	0.57
585.542	0.57
585.881	0.57
586.22	0.57
586.559	0.56
586.898	0.55
587.236	0.54
587.575	0.55
587.914	0.55
588.252	0.56
588.591	0.56
588.93	0.57
589.268	0.56
589.607	0.56
589.945	0.56
590.283	0.56
590.622	0.56
590.96	0.57
591.298	0.57
591.636	0.57
591.974	0.57
592.313	0.57
592.651	0.57
592.989	0.57
593.326	0.57
593.664	0.57
594.002	0.57
594.34	0.56
594.678	0.56
595.015	0.55
595.353	0.55
595.691	0.56
596.028	0.57
596.366	0.57
596.703	0.57
597.04	0.56
597.378	0.57
597.715	0.57
598.052	0.57
598.389	0.57
598.726	0.56
599.064	0.57
599.401	0.57
599.738	0.57
600.074	0.56
600.411	0.56
600.748	0.55
601.085	0.55
601.422	0.55
601.758	0.55
602.095	0.55
602.432	0.55
602.768	0.56
603.105	0.56
603.441	0.56
603.777	0.56
604.114	0.56
604.45	0.56
604.786	0.56
605.122	0.55
605.459	0.55
605.795	0.55
606.131	0.55
606.467	0.55
606.803	0.55
607.139	0.55
607.474	0.54
607.81	0.54
608.146	0.54
608.482	0.54
608.817	0.54
609.153	0.54
609.488	0.53
609.824	0.53
610.159	0.54
610.495	0.54
610.83	0.53
611.165	0.53
611.5	0.53
611.836	0.52
612.171	0.52
612.506	0.52
612.841	0.52
613.176	0.52
613.511	0.52
613.845	0.51
614.18	0.51
614.515	0.51
614.85	0.51
615.184	0.51
615.519	0.51
615.854	0.51
616.188	0.5
616.523	0.5
616.857	0.5
617.191	0.5
617.526	0.5
617.86	0.5
618.194	0.5
618.528	0.5
618.862	0.5
619.196	0.5
619.53	0.49
619.864	0.49
620.198	0.49
620.532	0.49
620.866	0.49
621.2	0.49
621.533	0.48
621.867	0.48
622.201	0.48
622.534	0.48
622.868	0.47
623.201	0.47
623.534	0.47
623.868	0.47
624.201	0.47
624.534	0.46
624.868	0.46
625.201	0.46
625.534	0.46
625.867	0.46
626.2	0.46
626.533	0.45
626.865	0.45
627.198	0.45
627.531	0.45
627.864	0.44
628.196	0.44
628.529	0.44
628.862	0.44
629.194	0.43
629.527	0.43
629.859	0.43
630.191	0.43
630.524	0.43
630.856	0.42
631.188	0.43
631.52	0.42
631.852	0.42
632.184	0.41
632.516	0.41
632.848	0.41
633.18	0.41
633.512	0.4
633.844	0.4
634.175	0.4
634.507	0.39
634.839	0.39
635.17	0.39
635.502	0.39
635.833	0.39
636.165	0.38
636.496	0.38
636.827	0.38
637.159	0.37
637.49	0.37
637.821	0.37
638.152	0.37
638.483	0.37
638.814	0.37
639.145	0.36
639.476	0.36
639.807	0.36
640.137	0.35
640.468	0.35
640.799	0.35
641.129	0.35
641.46	0.34
641.791	0.34
642.121	0.34
642.451	0.34
642.782	0.33
643.112	0.33
643.442	0.33
643.773	0.33
644.103	0.33
644.433	0.33
644.763	0.33
645.093	0.33
645.423	0.33
645.753	0.32
646.082	0.32
646.412	0.32
646.742	0.32
647.072	0.32
647.401	0.31
647.731	0.31
648.06	0.31
648.39	0.31
648.719	0.31
649.048	0.31
649.378	0.31
649.707	0.31
650.036	0.3
650.365	0.3
650.694	0.3
651.023	0.3
651.352	0.3
651.681	0.3
652.01	0.3
652.339	0.29
652.668	0.29
652.996	0.29
653.325	0.29
653.654	0.29
653.982	0.29
654.311	0.29
654.639	0.29
654.967	0.29
655.296	0.29
655.624	0.29
655.952	0.29
656.28	0.28
656.609	0.28
656.937	0.28
657.265	0.27
657.593	0.12
657.92	0.03
658.248	0.01
658.576	0.07
658.904	0.19
659.231	0.26
659.559	0.28
659.887	0.28
660.214	0.27
660.542	0.27
660.869	0.27
661.196	0.27
661.524	0.27
661.851	0.27
662.178	0.26
662.505	0.27
662.832	0.27
663.159	0.27
663.486	0.26
663.813	0.26
664.14	0.26
664.467	0.26
664.794	0.26
665.12	0.26
665.447	0.26
665.774	0.25
666.1	0.26
666.427	0.25
666.753	0.25
667.079	0.25
667.406	0.24
667.732	0.25
668.058	0.25
668.384	0.24
668.71	0.24
669.036	0.24
669.362	0.24
669.688	0.24
670.014	0.24
670.34	0.24
670.666	0.23
670.991	0.23
671.317	0.23
671.643	0.23
671.968	0.23
672.294	0.22
672.619	0.22
672.945	0.23
673.27	0.22
673.595	0.22
673.92	0.21
674.246	0.21
674.571	0.22
674.896	0.21
675.221	0.21
675.546	0.21
675.87	0.21
676.195	0.2
676.52	0.21
676.845	0.2
677.169	0.2
677.494	0.2
677.819	0.2
678.143	0.19
678.468	0.19
678.792	0.19
679.116	0.19
679.44	0.19
679.765	0.19
680.089	0.18
680.413	0.18
680.737	0.18
681.061	0.18
681.385	0.18
681.709	0.17
682.033	0.17
682.356	0.17
682.68	0.17
683.004	0.17
683.327	0.17
683.651	0.16
683.974	0.16
684.298	0.17
684.621	0.16
684.944	0.16
685.268	0.15
685.591	0.16
685.914	0.15
686.237	0.15
686.56	0.14
686.883	0.14
687.206	0.14
687.529	0.14
687.852	0.14
688.175	0.14
688.497	0.14
688.82	0.14
689.142	0.14
689.465	0.13
689.787	0.13
690.11	0.13
690.432	0.13
690.755	0.13
691.077	0.13
691.399	0.12
691.721	0.12
692.043	0.12
692.365	0.12
692.687	0.12
693.009	0.11
693.331	0.11
693.653	0.11
693.974	0.11
694.296	0.11
694.618	0.11
694.939	0.11
695.261	0.11
695.582	0.11
695.904	0.11
696.225	0.11
696.546	0.1
696.868	0.1
697.189	0.1
697.51	0.1
697.831	0.1
698.152	0.1
698.473	0.1
698.794	0.09
699.114	0.08
699.435	0.08
699.756	0.08
700.077	0.09
700.397	0.09
700.718	0.08
701.038	0.09
701.359	0.09
701.679	0.09
701.999	0.09
702.32	0.08
702.64	0.08
702.96	0.09
703.28	0.09
703.6	0.08
703.92	0.08
704.24	0.08
704.56	0.07
704.879	0.08
705.199	0.08
705.519	0.08
705.838	0.08
706.158	0.08
706.478	0.08
706.797	0.08
707.116	0.08
707.436	0.08
707.755	0.08
708.074	0.08
708.393	0.07
708.712	0.07
709.031	0.06
709.35	0.06
709.669	0.06
709.988	0.06
710.307	0.07
710.626	0.07
710.944	0.08
711.263	0.07
711.582	0.08
711.9	0.08
712.219	0.07
712.537	0.07
712.855	0.07
713.174	0.07
713.492	0.07
713.81	0.07
714.128	0.07
714.446	0.07
714.764	0.07
715.082	0.06
715.4	0.07
715.718	0.07
716.035	0.07
716.353	0.07
716.671	0.07
716.988	0.07
717.306	0.07
717.623	0.07
717.941	0.08
718.258	0.08
718.575	0.08
718.893	0.08
719.21	0.08
719.527	0.07
719.844	0.07
720.161	0.08
720.478	0.07
720.795	0.08
721.112	0.08
721.428	0.08
721.745	0.08
722.062	0.08
722.378	0.08
722.695	0.08
723.011	0.08
723.328	0.08
723.644	0.08
723.96	0.08
724.276	0.08
724.593	0.08
724.909	0.09
725.225	0.08
725.541	0.08
725.857	0.08
726.173	0.08
726.488	0.09
726.804	0.08
727.12	0.08
727.435	0.08
727.751	0.08
728.067	0.08
728.382	0.08
728.697	0.08
729.013	0.08
729.328	0.08
729.643	0.08
729.958	0.08
730.273	0.08
730.588	0.08
730.903	0.08
731.218	0.08
731.533	0.08
731.848	0.08
732.163	0.08
732.477	0.07
732.792	0.07
733.107	0.07
733.421	0.07
733.736	0.07
734.05	0.07
734.364	0.07
734.678	0.07
734.993	0.07
735.307	0.07
735.621	0.07
735.935	0.07
736.249	0.07
736.563	0.07
736.877	0.07
737.19	0.07
737.504	0.07
737.818	0.07
738.131	0.08
738.445	0.08
738.758	0.08
739.072	0.08
739.385	0.08
739.698	0.08
740.012	0.08
740.325	0.07
740.638	0.07
740.951	0.07
741.264	0.07
741.577	0.07
741.89	0.07
742.203	0.07
742.515	0.07
742.828	0.07
743.141	0.07
743.453	0.07
743.766	0.07
744.078	0.07
744.391	0.07
744.703	0.07
745.015	0.06
745.327	0.07
745.639	0.06
745.952	0.06
746.264	0.07
746.575	0.07
746.887	0.07
747.199	0.06
747.511	0.06
747.823	0.06
748.134	0.06
748.446	0.06
748.757	0.06
749.069	0.05
749.38	0.05
749.692	0.05
750.003	0.05
750.314	0.05
750.625	0.05
750.936	0.05
751.248	0.05
751.559	0.05
751.869	0.05
752.18	0.05
752.491	0.05
752.802	0.05
753.112	0.05
753.423	0.04
753.734	0.04
754.044	0.04
754.355	0.04
754.665	0.04
754.975	0.03
755.285	0.04
755.596	0.04
755.906	0.04
756.216	0.04
756.526	0.04
756.836	0.04
757.146	0.04
757.455	0.04
757.765	0.04
758.075	0.04
758.385	0.03
758.694	0.03
759.004	0.03
759.313	0.03
759.622	0.03
759.932	0.03
760.241	0.04
760.55	0.04
760.859	0.04
761.168	0.04
761.477	0.04
761.786	0.04
762.095	0.04
762.404	0.04
762.713	0.04
763.021	0.04
763.33	0.04
763.639	0.04
763.947	0.04
764.256	0.04
764.564	0.04
764.872	0.04
765.181	0.04
765.489	0.03
765.797	0.03
766.105	0.03
766.413	0.03
766.721	0.03
767.029	0.04
767.337	0.03
767.644	0.04
767.952	0.04
768.26	0.04
768.567	0.04
768.875	0.04
769.182	0.04
769.49	0.04
769.797	0.04
770.104	0.04
770.411	0.04
770.718	0.03
771.026	0.03
771.333	0.03
771.639	0.03
771.946	0.03
772.253	0.03
772.56	0.03
772.867	0.03
773.173	0.03
773.48	0.03
773.786	0.04
774.093	0.03
774.399	0.03
774.705	0.04
775.012	0.03
775.318	0.03
775.624	0.04
775.93	0.04
776.236	0.04
776.542	0.04
776.848	0.04
777.154	0.04
777.459	0.04
777.765	0.04
778.071	0.04
778.376	0.04
778.682	0.03
778.987	0.04
779.292	0.04
779.598	0.03
779.903	0.03
780.208	0.03
780.513	0.03
780.818	0.03
781.123	0.03
781.428	0.03
781.733	0.03
782.038	0.03
782.343	0.03
782.647	0.03
782.952	0.02
783.256	0.03
783.561	0.03
783.865	0.03
784.17	0.03
784.474	0.03
784.778	0.02
785.082	0.03
785.386	0.03
785.69	0.03
785.994	0.03
786.298	0.03
786.602	0.03
786.906	0.03
787.209	0.04
787.513	0.03
787.817	0.04
788.12	0.04
788.424	0.04
788.727	0.04
789.03	0.04
789.333	0.04
789.637	0.04
789.94	0.04
790.243	0.04
790.546	0.04
790.849	0.04
791.152	0.04
791.454	0.04
791.757	0.04
792.06	0.04
792.362	0.04
792.665	0.04
792.967	0.04
793.27	0.04
793.572	0.04
793.874	0.04
794.177	0.04
794.479	0.04
794.781	0.04
795.083	0.05
795.385	0.04
795.687	0.05
795.989	0.05
796.29	0.05
796.592	0.05
796.894	0.05
797.195	0.05
797.497	0.04
797.798	0.05
798.1	0.05
798.401	0.04
798.702	0.04
799.003	0.04
799.304	0.04
799.605	0.04
799.906	0.04
800.207	0.04
800.508	0.04
800.809	0.05
801.11	0.05
801.41	0.05
801.711	0.05
802.011	0.05
802.312	0.05
802.612	0.05
802.913	0.05
803.213	0.05
803.513	0.04
803.813	0.05
804.113	0.04
804.413	0.05
804.713	0.05
805.013	0.05
805.313	0.05
805.613	0.05
805.912	0.05
806.212	0.05
806.511	0.05
806.811	0.05
807.11	0.05
807.41	0.05
807.709	0.05
808.008	0.05
808.307	0.05
808.606	0.05
808.905	0.05
809.204	0.05
809.503	0.05
809.802	0.06
810.101	0.05
810.399	0.06
810.698	0.05
810.997	0.05
811.295	0.05
811.593	0.05
811.892	0.05
812.19	0.05
812.488	0.05
812.786	0.05
813.084	0.05
813.383	0.05
813.68	0.06
813.978	0.06
814.276	0.06
814.574	0.06
814.872	0.06
815.169	0.06
815.467	0.06
815.764	0.06
816.062	0.05
816.359	0.05
816.656	0.05
816.954	0.06
817.251	0.06
817.548	0.06
817.845	0.06
818.142	0.06
818.439	0.07
818.735	0.06
819.032	0.07
819.329	0.06
819.626	0.06
819.922	0.07
820.219	0.07
820.515	0.07
820.811	0.07
821.108	0.07
821.404	0.07
821.7	0.07
821.996	0.06
822.292	0.06
822.588	0.07
822.884	0.07
823.18	0.07
823.475	0.08
823.771	0.08
824.067	0.08
824.362	0.08
824.658	0.07
824.953	0.07
825.249	0.07
825.544	0.07
825.839	0.07
826.134	0.07
826.429	0.07
826.724	0.07
827.019	0.07
827.314	0.07
827.609	0.07
827.904	0.07
828.198	0.07
828.493	0.07
828.787	0.07
829.082	0.07
829.376	0.08
829.671	0.09
829.965	0.08
830.259	0.08
830.553	0.09
830.847	0.08
831.141	0.08
831.435	0.08
831.729	0.09
832.023	0.08
832.317	0.09
832.61	0.09
832.904	0.08
833.197	0.08
833.491	0.08
833.784	0.09
834.077	0.09
834.371	0.09
834.664	0.09
834.957	0.09
835.25	0.09
835.543	0.08
835.836	0.09
836.129	0.09
836.421	0.09
836.714	0.09
837.007	0.09
837.299	0.09
837.592	0.08
837.884	0.09
838.177	0.09
838.469	0.08
838.761	0.1
839.053	0.09
839.345	0.09
839.637	0.09
839.929	0.09
840.221	0.09
840.513	0.09
840.805	0.1
841.096	0.09
841.388	0.1
841.68	0.09
841.971	0.09
842.262	0.1
842.554	0.09
842.845	0.09
843.136	0.09
843.427	0.1
843.718	0.09
844.009	0.09
844.3	0.09
844.591	0.09
844.882	0.1
845.173	0.1
845.463	0.09
845.754	0.1
846.044	0.1
846.335	0.1
846.625	0.1
846.915	0.09
847.206	0.1
847.496	0.1
847.786	0.1
848.076	0.1
848.366	0.1
848.656	0.09
848.945	0.1
849.235	0.09
849.525	0.09
849.814	0.09
850.104	0.08
850.393	0.1
850.683	0.1
850.972	0.1
851.261	0.11
851.551	0.11
851.84	0.12
852.129	0.11
852.418	0.1
852.707	0.11
852.995	0.1
853.284	0.09
853.573	0.09
853.862	0.09
854.15	0.1
854.439	0.09
854.727	0.09
855.015	0.09
855.304	0.1
855.592	0.09
855.88	0.09
856.168	0.09
856.456	0.09
856.744	0.1
857.032	0.1
857.32	0.1
857.607	0.1
857.895	0.1
858.183	0.1
858.47	0.1
858.757	0.09
859.045	0.1
859.332	0.1
859.619	0.11
859.907	0.12
860.194	0.09
860.481	0.11
860.768	0.12
861.054	0.1
861.341	0.12
861.628	0.12
861.915	0.1
862.201	0.11
862.488	0.1
862.774	0.12
863.061	0.11
863.347	0.11
863.633	0.1
863.919	0.1
864.205	0.1
864.491	0.11
864.777	0.11
865.063	0.09
865.349	0.1
865.635	0.09
865.92	0.13
866.206	0.1
866.492	0.09
866.777	0.14
867.062	0.13
867.348	0.09
867.633	0.07
867.918	0.12
868.203	0.1
868.488	0.1
868.773	0.13
869.058	0.1
869.343	0.08
869.628	0.11
869.912	0.11
870.197	0.11
870.482	0.08
870.766	0.11
871.05	0.14
871.335	0.09
871.619	0.11
871.903	0.09
872.187	0.08
872.471	0.14
872.755	0.11
873.039	0.16
873.323	0.12
873.607	0.11
873.89	0.11
874.174	0.08
874.458	0.15
874.741	0.05
875.024	0.15
875.308	0.08
875.591	0.14
875.874	0.13
876.157	0.05
876.44	-0.01
876.723	0.1
877.006	0.1
877.289	0.05
877.572	0.11
877.854	0.11
878.137	0.07
878.42	0.02
878.702	0.09
878.984	0.16
879.267	0.15
879.549	0.06
879.831	0.09
880.113	-0
880.395	0.04
880.677	-0
880.959	0.09
