Data from Rubpy_BV_1800_EDTA_Buffered_Absorbance_15-07-54-007.txt Node
Date: Wed Jul 01 15:07:54 BST 2026
User: fpm-admin
Spectrometer: OFX00224
Trigger mode: 0
Integration Time (sec): 7.000000E-2
Scans to average: 3
Nonlinearity correction enabled: false
Boxcar width: 0
Storing dark spectrum: false
XAxis mode: Wavelengths
Number of Pixels in Spectrum: 2136
>>>>>Begin Spectral Data<<<<<
154.91	-0.34
155.289	-0
155.669	-0.84
156.048	-0
156.428	-0
156.807	-0
157.186	-0
157.566	0.24
157.945	0.03
158.325	0.57
158.704	-0
159.083	-0
159.462	-0
159.842	-0
160.221	-0
160.6	-0.09
160.979	-0.4
161.359	0.79
161.738	0.12
162.117	-0.06
162.496	0.12
162.875	0.45
163.254	0.98
163.633	-0.54
164.012	0.12
164.391	-1
164.77	-0
165.149	-0.12
165.528	-0
165.907	0.3
166.286	-0.02
166.665	-0.05
167.044	0.54
167.423	-0
167.802	-0
168.181	0.4
168.559	-0.64
168.938	-0.66
169.317	-0
169.696	-0
170.074	-0
170.453	0.48
170.832	-0.05
171.21	-0.56
171.589	0.08
171.968	-0.06
172.346	-0
172.725	-0
173.103	0.01
173.482	0.03
173.861	-0
174.239	0.43
174.617	0.22
174.996	0.5
175.374	-0.32
175.753	-0.25
176.131	-0
176.51	0.13
176.888	-0
177.266	-0
177.645	0.02
178.023	0.4
178.401	-0.12
178.779	-0
179.158	-0
179.536	-0.48
179.914	-0
180.292	-0.06
180.67	0.15
181.048	-0
181.427	-0.25
181.805	-0.8
182.183	-1.4
182.561	-0
182.939	-0
183.317	0.7
183.695	0.16
184.073	-0.19
184.451	0.36
184.829	-0
185.206	-0.41
185.584	-0.51
185.962	-0
186.34	0.59
186.718	-0
187.096	0.12
187.473	0.07
187.851	0.32
188.229	-0
188.607	0.19
188.984	0.12
189.362	0.16
189.74	0.24
190.117	0.23
190.495	0.21
190.872	0.34
191.25	0.29
191.627	0.22
192.005	0.24
192.382	0.1
192.76	0.18
193.137	0.2
193.515	0.32
193.892	0.48
194.269	0.31
194.647	0.3
195.024	0.23
195.401	0.34
195.779	0.3
196.156	0.14
196.533	0.26
196.91	0.18
197.288	0.15
197.665	0.22
198.042	0.22
198.419	0.31
198.796	0.12
199.173	0.31
199.55	0.22
199.927	0.24
200.304	0.29
200.681	0.37
201.058	0.14
201.435	0.32
201.812	0.24
202.189	0.39
202.566	0.27
202.943	0.22
203.32	0.24
203.697	0.24
204.073	0.49
204.45	0.31
204.827	0.32
205.204	0.26
205.58	0.41
205.957	0.24
206.334	0.3
206.71	0.22
207.087	0.29
207.464	0.24
207.84	0.4
208.217	0.47
208.593	0.3
208.97	0.42
209.346	0.31
209.723	0.27
210.099	0.48
210.476	0.12
210.852	0.23
211.228	0.32
211.605	0.37
211.981	0.32
212.357	0.22
212.733	0.44
213.11	0.2
213.486	0.28
213.862	0.43
214.238	0.32
214.614	0.47
214.991	0.28
215.367	0.33
215.743	0.42
216.119	0.43
216.495	0.29
216.871	0.26
217.247	0.27
217.623	0.29
217.999	0.26
218.375	0.18
218.751	0.3
219.127	0.32
219.502	0.36
219.878	0.26
220.254	0.31
220.63	0.41
221.006	0.31
221.381	0.27
221.757	0.27
222.133	0.34
222.508	0.35
222.884	0.24
223.26	0.39
223.635	0.48
224.011	0.34
224.386	0.28
224.762	0.24
225.137	0.24
225.513	0.16
225.888	0.27
226.264	0.37
226.639	0.21
227.014	0.31
227.39	0.38
227.765	0.22
228.14	0.4
228.516	0.51
228.891	0.31
229.266	0.31
229.641	0.4
230.017	0.25
230.392	0.33
230.767	0.24
231.142	0.26
231.517	0.24
231.892	0.22
232.267	0.28
232.642	0.32
233.017	0.31
233.392	0.25
233.767	0.38
234.142	0.35
234.517	0.42
234.892	0.26
235.267	0.2
235.641	0.17
236.016	0.36
236.391	0.33
236.766	0.27
237.14	0.26
237.515	0.3
237.89	0.23
238.264	0.28
238.639	0.39
239.014	0.25
239.388	0.3
239.763	0.36
240.137	0.38
240.512	0.28
240.886	0.25
241.261	0.47
241.635	0.3
242.009	0.31
242.384	0.37
242.758	0.22
243.132	0.42
243.507	0.3
243.881	0.23
244.255	0.24
244.629	0.35
245.004	0.39
245.378	0.38
245.752	0.29
246.126	0.36
246.5	0.41
246.874	0.34
247.248	0.33
247.622	0.36
247.996	0.29
248.37	0.22
248.744	0.47
249.118	0.34
249.492	0.32
249.866	0.34
250.24	0.37
250.613	0.3
250.987	0.28
251.361	0.44
251.735	0.28
252.108	0.3
252.482	0.26
252.856	0.25
253.229	0.27
253.603	0.26
253.977	0.29
254.35	0.21
254.724	0.39
255.097	0.35
255.471	0.43
255.844	0.32
256.218	0.33
256.591	0.25
256.964	0.27
257.338	0.3
257.711	0.2
258.084	0.28
258.458	0.39
258.831	0.4
259.204	0.36
259.577	0.37
259.95	0.29
260.323	0.29
260.697	0.23
261.07	0.24
261.443	0.22
261.816	0.27
262.189	0.33
262.562	0.35
262.935	0.37
263.308	0.33
263.68	0.27
264.053	0.18
264.426	0.33
264.799	0.36
265.172	0.4
265.545	0.37
265.917	0.29
266.29	0.24
266.663	0.41
267.035	0.21
267.408	0.32
267.781	0.36
268.153	0.25
268.526	0.31
268.898	0.3
269.271	0.33
269.643	0.32
270.016	0.32
270.388	0.36
270.76	0.35
271.133	0.38
271.505	0.33
271.877	0.29
272.25	0.43
272.622	0.45
272.994	0.45
273.366	0.37
273.739	0.24
274.111	0.23
274.483	0.27
274.855	0.39
275.227	0.3
275.599	0.27
275.971	0.26
276.343	0.37
276.715	0.44
277.087	0.49
277.459	0.29
277.831	0.41
278.203	0.41
278.574	0.3
278.946	0.32
279.318	0.29
279.69	0.38
280.061	0.21
280.433	0.33
280.805	0.35
281.176	0.19
281.548	0.32
281.92	0.26
282.291	0.27
282.663	0.31
283.034	0.3
283.406	0.26
283.777	0.32
284.148	0.24
284.52	0.36
284.891	0.39
285.262	0.29
285.634	0.32
286.005	0.28
286.376	0.27
286.747	0.34
287.119	0.37
287.49	0.3
287.861	0.3
288.232	0.25
288.603	0.37
288.974	0.28
289.345	0.24
289.716	0.29
290.087	0.4
290.458	0.33
290.829	0.23
291.2	0.34
291.571	0.38
291.941	0.32
292.312	0.3
292.683	0.34
293.054	0.29
293.424	0.37
293.795	0.39
294.166	0.37
294.536	0.32
294.907	0.33
295.277	0.31
295.648	0.39
296.018	0.35
296.389	0.32
296.759	0.3
297.13	0.32
297.5	0.35
297.871	0.28
298.241	0.29
298.611	0.32
298.981	0.27
299.352	0.37
299.722	0.37
300.092	0.26
300.462	0.35
300.832	0.4
301.202	0.32
301.573	0.32
301.943	0.26
302.313	0.33
302.683	0.3
303.053	0.27
303.422	0.36
303.792	0.27
304.162	0.34
304.532	0.3
304.902	0.36
305.272	0.29
305.641	0.32
306.011	0.26
306.381	0.36
306.75	0.36
307.12	0.3
307.49	0.31
307.859	0.27
308.229	0.26
308.598	0.22
308.968	0.27
309.337	0.26
309.707	0.25
310.076	0.27
310.445	0.24
310.815	0.25
311.184	0.25
311.553	0.25
311.923	0.23
312.292	0.26
312.661	0.24
313.03	0.25
313.399	0.25
313.768	0.25
314.137	0.23
314.506	0.25
314.875	0.24
315.244	0.25
315.613	0.25
315.982	0.26
316.351	0.29
316.72	0.28
317.089	0.27
317.458	0.26
317.826	0.29
318.195	0.27
318.564	0.27
318.933	0.28
319.301	0.29
319.67	0.29
320.038	0.29
320.407	0.29
320.775	0.29
321.144	0.31
321.512	0.31
321.881	0.3
322.249	0.31
322.618	0.32
322.986	0.32
323.354	0.32
323.723	0.34
324.091	0.34
324.459	0.34
324.827	0.34
325.195	0.34
325.564	0.36
325.932	0.35
326.3	0.36
326.668	0.37
327.036	0.37
327.404	0.38
327.772	0.38
328.14	0.39
328.508	0.41
328.875	0.4
329.243	0.41
329.611	0.4
329.979	0.42
330.346	0.41
330.714	0.42
331.082	0.44
331.449	0.44
331.817	0.44
332.185	0.46
332.552	0.46
332.92	0.47
333.287	0.48
333.655	0.5
334.022	0.5
334.389	0.51
334.757	0.52
335.124	0.53
335.491	0.54
335.859	0.56
336.226	0.56
336.593	0.57
336.96	0.58
337.327	0.59
337.695	0.61
338.062	0.61
338.429	0.61
338.796	0.63
339.163	0.65
339.53	0.66
339.897	0.66
340.263	0.67
340.63	0.68
340.997	0.7
341.364	0.71
341.731	0.72
342.097	0.74
342.464	0.74
342.831	0.76
343.197	0.77
343.564	0.79
343.931	0.8
344.297	0.8
344.664	0.82
345.03	0.83
345.396	0.84
345.763	0.86
346.129	0.87
346.496	0.89
346.862	0.9
347.228	0.91
347.594	0.91
347.961	0.93
348.327	0.95
348.693	0.96
349.059	0.97
349.425	0.98
349.791	0.99
350.157	1.01
350.523	1
350.889	1.02
351.255	1.03
351.621	1.05
351.987	1.05
352.353	1.06
352.719	1.08
353.084	1.08
353.45	1.11
353.816	1.13
354.181	1.13
354.547	1.15
354.913	1.16
355.278	1.16
355.644	1.19
356.009	1.2
356.375	1.22
356.74	1.23
357.106	1.25
357.471	1.25
357.836	1.28
358.202	1.29
358.567	1.32
358.932	1.32
359.297	1.33
359.663	1.34
360.028	1.4
360.393	1.39
360.758	1.4
361.123	1.4
361.488	1.44
361.853	1.46
362.218	1.48
362.583	1.47
362.948	1.5
363.312	1.51
363.677	1.53
364.042	1.54
364.407	1.55
364.772	1.59
365.136	1.61
365.501	1.59
365.865	1.63
366.23	1.63
366.595	1.64
366.959	1.65
367.324	1.65
367.688	1.62
368.052	1.65
368.417	1.69
368.781	1.68
369.145	1.7
369.51	1.68
369.874	1.73
370.238	1.74
370.602	1.69
370.967	1.72
371.331	1.71
371.695	1.71
372.059	1.73
372.423	1.69
372.787	1.72
373.151	1.74
373.515	1.67
373.878	1.7
374.242	1.75
374.606	1.78
374.97	1.69
375.334	1.71
375.697	1.65
376.061	1.66
376.425	1.68
376.788	1.65
377.152	1.63
377.515	1.64
377.879	1.62
378.242	1.61
378.606	1.6
378.969	1.57
379.333	1.53
379.696	1.52
380.059	1.53
380.422	1.52
380.786	1.49
381.149	1.47
381.512	1.45
381.875	1.44
382.238	1.43
382.601	1.4
382.964	1.39
383.327	1.38
383.69	1.36
384.053	1.34
384.416	1.34
384.779	1.33
385.142	1.31
385.504	1.29
385.867	1.29
386.23	1.29
386.593	1.28
386.955	1.29
387.318	1.26
387.68	1.25
388.043	1.26
388.405	1.24
388.768	1.24
389.13	1.26
389.493	1.22
389.855	1.22
390.217	1.22
390.58	1.2
390.942	1.19
391.304	1.18
391.666	1.17
392.028	1.15
392.391	1.13
392.753	1.13
393.115	1.11
393.477	1.1
393.839	1.08
394.201	1.07
394.563	1.05
394.924	1.08
395.286	1.06
395.648	1.07
396.01	1.07
396.371	1.08
396.733	1.09
397.095	1.1
397.456	1.12
397.818	1.14
398.18	1.17
398.541	1.18
398.903	1.22
399.264	1.25
399.625	1.27
399.987	1.29
400.348	1.3
400.709	1.33
401.071	1.32
401.432	1.33
401.793	1.33
402.154	1.32
402.515	1.31
402.876	1.28
403.238	1.25
403.599	1.23
403.96	1.18
404.32	1.16
404.681	1.1
405.042	1.07
405.403	1.03
405.764	0.98
406.125	0.93
406.485	0.88
406.846	0.83
407.207	0.81
407.567	0.76
407.928	0.73
408.288	0.67
408.649	0.64
409.009	0.61
409.37	0.58
409.73	0.55
410.091	0.51
410.451	0.49
410.811	0.47
411.171	0.45
411.532	0.42
411.892	0.41
412.252	0.39
412.612	0.36
412.972	0.36
413.332	0.34
413.692	0.33
414.052	0.31
414.412	0.3
414.772	0.29
415.132	0.28
415.492	0.27
415.851	0.26
416.211	0.25
416.571	0.24
416.931	0.24
417.29	0.23
417.65	0.23
418.009	0.22
418.369	0.22
418.728	0.21
419.088	0.21
419.447	0.2
419.807	0.19
420.166	0.19
420.525	0.19
420.884	0.19
421.244	0.18
421.603	0.19
421.962	0.17
422.321	0.18
422.68	0.16
423.039	0.16
423.398	0.16
423.757	0.16
424.116	0.17
424.475	0.16
424.834	0.17
425.193	0.15
425.551	0.16
425.91	0.14
426.269	0.15
426.628	0.15
426.986	0.15
427.345	0.15
427.703	0.14
428.062	0.14
428.42	0.14
428.779	0.15
429.137	0.14
429.496	0.14
429.854	0.13
430.212	0.14
430.57	0.14
430.929	0.13
431.287	0.13
431.645	0.13
432.003	0.13
432.361	0.13
432.719	0.13
433.077	0.13
433.435	0.14
433.793	0.14
434.151	0.13
434.509	0.14
434.866	0.13
435.224	0.13
435.582	0.14
435.94	0.13
436.297	0.13
436.655	0.13
437.012	0.12
437.37	0.14
437.727	0.13
438.085	0.13
438.442	0.14
438.8	0.13
439.157	0.13
439.514	0.14
439.872	0.13
440.229	0.14
440.586	0.13
440.943	0.13
441.3	0.13
441.657	0.13
442.014	0.13
442.371	0.13
442.728	0.13
443.085	0.13
443.442	0.13
443.799	0.13
444.156	0.13
444.513	0.13
444.869	0.12
445.226	0.14
445.583	0.14
445.939	0.14
446.296	0.14
446.652	0.13
447.009	0.13
447.365	0.14
447.722	0.14
448.078	0.13
448.434	0.14
448.791	0.13
449.147	0.14
449.503	0.13
449.859	0.13
450.215	0.14
450.571	0.13
450.928	0.14
451.284	0.14
451.64	0.13
451.995	0.13
452.351	0.14
452.707	0.14
453.063	0.14
453.419	0.14
453.775	0.12
454.13	0.13
454.486	0.13
454.842	0.13
455.197	0.13
455.553	0.12
455.908	0.13
456.264	0.11
456.619	0.12
456.975	0.12
457.33	0.12
457.685	0.12
458.04	0.12
458.396	0.12
458.751	0.12
459.106	0.1
459.461	0.11
459.816	0.1
460.171	0.11
460.526	0.1
460.881	0.09
461.236	0.09
461.591	0.09
461.946	0.09
462.301	0.09
462.655	0.08
463.01	0.09
463.365	0.08
463.719	0.08
464.074	0.08
464.428	0.07
464.783	0.06
465.137	0.07
465.492	0.07
465.846	0.06
466.201	0.07
466.555	0.06
466.909	0.07
467.263	0.08
467.618	0.08
467.972	0.09
468.326	0.08
468.68	0.07
469.034	0.07
469.388	0.07
469.742	0.07
470.096	0.08
470.45	0.08
470.804	0.08
471.157	0.09
471.511	0.09
471.865	0.08
472.218	0.09
472.572	0.11
472.926	0.1
473.279	0.1
473.633	0.12
473.986	0.13
474.34	0.13
474.693	0.14
475.046	0.15
475.4	0.16
475.753	0.17
476.106	0.17
476.459	0.18
476.812	0.19
477.165	0.2
477.519	0.22
477.872	0.22
478.224	0.22
478.577	0.23
478.93	0.24
479.283	0.24
479.636	0.24
479.989	0.25
480.341	0.27
480.694	0.27
481.047	0.27
481.399	0.28
481.752	0.29
482.104	0.3
482.457	0.3
482.809	0.3
483.162	0.31
483.514	0.32
483.866	0.32
484.219	0.33
484.571	0.32
484.923	0.33
485.275	0.34
485.627	0.34
485.979	0.34
486.331	0.35
486.683	0.36
487.035	0.36
487.387	0.37
487.739	0.38
488.091	0.38
488.443	0.39
488.794	0.39
489.146	0.39
489.498	0.39
489.849	0.4
490.201	0.4
490.552	0.4
490.904	0.4
491.255	0.42
491.607	0.42
491.958	0.42
492.309	0.42
492.661	0.43
493.012	0.44
493.363	0.43
493.714	0.44
494.065	0.44
494.416	0.45
494.767	0.46
495.118	0.46
495.469	0.46
495.82	0.47
496.171	0.47
496.522	0.48
496.872	0.48
497.223	0.48
497.574	0.48
497.924	0.49
498.275	0.49
498.626	0.5
498.976	0.51
499.327	0.5
499.677	0.51
500.027	0.51
500.378	0.52
500.728	0.52
501.078	0.53
501.428	0.53
501.779	0.53
502.129	0.53
502.479	0.54
502.829	0.55
503.179	0.55
503.529	0.55
503.879	0.56
504.229	0.56
504.578	0.57
504.928	0.57
505.278	0.57
505.628	0.58
505.977	0.58
506.327	0.58
506.676	0.59
507.026	0.59
507.375	0.6
507.725	0.59
508.074	0.61
508.424	0.6
508.773	0.61
509.122	0.61
509.471	0.61
509.82	0.61
510.17	0.62
510.519	0.63
510.868	0.63
511.217	0.63
511.566	0.64
511.915	0.63
512.263	0.65
512.612	0.65
512.961	0.65
513.31	0.66
513.659	0.66
514.007	0.66
514.356	0.66
514.704	0.67
515.053	0.67
515.401	0.67
515.75	0.67
516.098	0.67
516.447	0.68
516.795	0.68
517.143	0.68
517.491	0.69
517.839	0.69
518.188	0.69
518.536	0.69
518.884	0.7
519.232	0.71
519.58	0.7
519.928	0.7
520.275	0.71
520.623	0.71
520.971	0.71
521.319	0.72
521.666	0.72
522.014	0.72
522.362	0.73
522.709	0.73
523.057	0.73
523.404	0.74
523.752	0.73
524.099	0.74
524.446	0.75
524.794	0.74
525.141	0.75
525.488	0.75
525.835	0.75
526.182	0.75
526.529	0.75
526.876	0.76
527.223	0.75
527.57	0.77
527.917	0.76
528.264	0.76
528.611	0.76
528.958	0.76
529.304	0.78
529.651	0.77
529.998	0.77
530.344	0.78
530.691	0.78
531.037	0.78
531.384	0.79
531.73	0.79
532.076	0.79
532.423	0.79
532.769	0.79
533.115	0.79
533.461	0.8
533.807	0.8
534.154	0.8
534.5	0.81
534.846	0.8
535.192	0.8
535.537	0.8
535.883	0.81
536.229	0.81
536.575	0.81
536.921	0.81
537.266	0.81
537.612	0.81
537.957	0.81
538.303	0.82
538.649	0.82
538.994	0.81
539.339	0.82
539.685	0.83
540.03	0.82
540.375	0.82
540.721	0.83
541.066	0.83
541.411	0.83
541.756	0.83
542.101	0.83
542.446	0.83
542.791	0.83
543.136	0.83
543.481	0.83
543.825	0.83
544.17	0.83
544.515	0.84
544.86	0.83
545.204	0.84
545.549	0.84
545.893	0.83
546.238	0.84
546.582	0.84
546.927	0.84
547.271	0.83
547.615	0.85
547.96	0.85
548.304	0.84
548.648	0.85
548.992	0.84
549.336	0.84
549.68	0.84
550.024	0.85
550.368	0.85
550.712	0.84
551.056	0.84
551.4	0.85
551.743	0.85
552.087	0.84
552.431	0.85
552.774	0.85
553.118	0.85
553.462	0.85
553.805	0.84
554.148	0.84
554.492	0.85
554.835	0.85
555.178	0.85
555.522	0.85
555.865	0.85
556.208	0.85
556.551	0.85
556.894	0.85
557.237	0.84
557.58	0.84
557.923	0.84
558.266	0.84
558.609	0.84
558.952	0.84
559.294	0.84
559.637	0.84
559.98	0.84
560.322	0.84
560.665	0.84
561.007	0.84
561.35	0.83
561.692	0.83
562.034	0.83
562.377	0.83
562.719	0.83
563.061	0.83
563.403	0.83
563.745	0.83
564.088	0.83
564.43	0.82
564.772	0.83
565.113	0.83
565.455	0.82
565.797	0.83
566.139	0.82
566.481	0.82
566.822	0.82
567.164	0.83
567.506	0.82
567.847	0.82
568.189	0.82
568.53	0.81
568.872	0.81
569.213	0.81
569.554	0.81
569.895	0.81
570.237	0.81
570.578	0.8
570.919	0.8
571.26	0.8
571.601	0.8
571.942	0.8
572.283	0.8
572.624	0.8
572.965	0.79
573.306	0.79
573.646	0.79
573.987	0.79
574.328	0.78
574.668	0.78
575.009	0.78
575.349	0.78
575.69	0.78
576.03	0.78
576.37	0.77
576.711	0.77
577.051	0.77
577.391	0.77
577.731	0.77
578.072	0.76
578.412	0.76
578.752	0.76
579.092	0.76
579.431	0.74
579.771	0.73
580.111	0.72
580.451	0.74
580.791	0.75
581.13	0.75
581.47	0.75
581.81	0.75
582.149	0.75
582.489	0.74
582.828	0.73
583.167	0.7
583.507	0.66
583.846	0.66
584.185	0.7
584.525	0.73
584.864	0.74
585.203	0.75
585.542	0.75
585.881	0.74
586.22	0.74
586.559	0.73
586.898	0.72
587.236	0.71
587.575	0.72
587.914	0.72
588.252	0.73
588.591	0.73
588.93	0.73
589.268	0.72
589.607	0.72
589.945	0.73
590.283	0.73
590.622	0.73
590.96	0.73
591.298	0.74
591.636	0.73
591.974	0.73
592.313	0.73
592.651	0.73
592.989	0.73
593.326	0.73
593.664	0.74
594.002	0.73
594.34	0.72
594.678	0.72
595.015	0.72
595.353	0.71
595.691	0.73
596.028	0.73
596.366	0.73
596.703	0.72
597.04	0.72
597.378	0.72
597.715	0.72
598.052	0.73
598.389	0.73
598.726	0.73
599.064	0.73
599.401	0.72
599.738	0.72
600.074	0.72
600.411	0.72
600.748	0.71
601.085	0.71
601.422	0.71
601.758	0.71
602.095	0.7
602.432	0.71
602.768	0.7
603.105	0.71
603.441	0.71
603.777	0.71
604.114	0.71
604.45	0.71
604.786	0.71
605.122	0.71
605.459	0.7
605.795	0.7
606.131	0.7
606.467	0.7
606.803	0.7
607.139	0.7
607.474	0.69
607.81	0.69
608.146	0.69
608.482	0.69
608.817	0.69
609.153	0.68
609.488	0.68
609.824	0.68
610.159	0.68
610.495	0.68
610.83	0.68
611.165	0.68
611.5	0.67
611.836	0.66
612.171	0.66
612.506	0.66
612.841	0.67
613.176	0.66
613.511	0.66
613.845	0.65
614.18	0.65
614.515	0.66
614.85	0.65
615.184	0.65
615.519	0.65
615.854	0.65
616.188	0.64
616.523	0.64
616.857	0.63
617.191	0.64
617.526	0.63
617.86	0.64
618.194	0.63
618.528	0.63
618.862	0.63
619.196	0.63
619.53	0.62
619.864	0.62
620.198	0.62
620.532	0.62
620.866	0.62
621.2	0.61
621.533	0.61
621.867	0.61
622.201	0.6
622.534	0.6
622.868	0.6
623.201	0.59
623.534	0.59
623.868	0.59
624.201	0.59
624.534	0.59
624.868	0.58
625.201	0.59
625.534	0.58
625.867	0.58
626.2	0.58
626.533	0.58
626.865	0.57
627.198	0.57
627.531	0.57
627.864	0.56
628.196	0.56
628.529	0.56
628.862	0.55
629.194	0.56
629.527	0.55
629.859	0.55
630.191	0.55
630.524	0.54
630.856	0.53
631.188	0.53
631.52	0.53
631.852	0.53
632.184	0.52
632.516	0.51
632.848	0.51
633.18	0.51
633.512	0.51
633.844	0.51
634.175	0.51
634.507	0.5
634.839	0.49
635.17	0.49
635.502	0.49
635.833	0.49
636.165	0.49
636.496	0.48
636.827	0.48
637.159	0.48
637.49	0.47
637.821	0.47
638.152	0.47
638.483	0.47
638.814	0.46
639.145	0.46
639.476	0.46
639.807	0.45
640.137	0.45
640.468	0.44
640.799	0.44
641.129	0.44
641.46	0.44
641.791	0.43
642.121	0.43
642.451	0.43
642.782	0.43
643.112	0.42
643.442	0.42
643.773	0.42
644.103	0.41
644.433	0.41
644.763	0.41
645.093	0.41
645.423	0.41
645.753	0.41
646.082	0.4
646.412	0.4
646.742	0.4
647.072	0.4
647.401	0.4
647.731	0.39
648.06	0.39
648.39	0.39
648.719	0.39
649.048	0.39
649.378	0.39
649.707	0.38
650.036	0.38
650.365	0.38
650.694	0.38
651.023	0.37
651.352	0.37
651.681	0.37
652.01	0.37
652.339	0.37
652.668	0.37
652.996	0.37
653.325	0.37
653.654	0.37
653.982	0.36
654.311	0.37
654.639	0.36
654.967	0.36
655.296	0.36
655.624	0.36
655.952	0.36
656.28	0.36
656.609	0.35
656.937	0.36
657.265	0.34
657.593	0.18
657.92	0.09
658.248	0.07
658.576	0.14
658.904	0.26
659.231	0.34
659.559	0.35
659.887	0.34
660.214	0.34
660.542	0.34
660.869	0.34
661.196	0.34
661.524	0.34
661.851	0.34
662.178	0.34
662.505	0.34
662.832	0.33
663.159	0.33
663.486	0.33
663.813	0.33
664.14	0.33
664.467	0.33
664.794	0.32
665.12	0.32
665.447	0.32
665.774	0.32
666.1	0.32
666.427	0.32
666.753	0.31
667.079	0.31
667.406	0.31
667.732	0.31
668.058	0.31
668.384	0.31
668.71	0.3
669.036	0.3
669.362	0.3
669.688	0.3
670.014	0.3
670.34	0.3
670.666	0.29
670.991	0.29
671.317	0.29
671.643	0.29
671.968	0.29
672.294	0.28
672.619	0.28
672.945	0.28
673.27	0.28
673.595	0.27
673.92	0.27
674.246	0.27
674.571	0.27
674.896	0.27
675.221	0.26
675.546	0.26
675.87	0.26
676.195	0.26
676.52	0.26
676.845	0.25
677.169	0.25
677.494	0.25
677.819	0.25
678.143	0.24
678.468	0.24
678.792	0.24
679.116	0.24
679.44	0.24
679.765	0.24
680.089	0.23
680.413	0.23
680.737	0.23
681.061	0.22
681.385	0.22
681.709	0.22
682.033	0.22
682.356	0.22
682.68	0.22
683.004	0.21
683.327	0.21
683.651	0.21
683.974	0.21
684.298	0.2
684.621	0.2
684.944	0.2
685.268	0.19
685.591	0.19
685.914	0.19
686.237	0.19
686.56	0.18
686.883	0.18
687.206	0.18
687.529	0.18
687.852	0.18
688.175	0.17
688.497	0.18
688.82	0.18
689.142	0.17
689.465	0.17
689.787	0.17
690.11	0.17
690.432	0.17
690.755	0.16
691.077	0.16
691.399	0.15
691.721	0.15
692.043	0.15
692.365	0.15
692.687	0.15
693.009	0.15
693.331	0.14
693.653	0.14
693.974	0.14
694.296	0.14
694.618	0.14
694.939	0.14
695.261	0.14
695.582	0.13
695.904	0.14
696.225	0.14
696.546	0.13
696.868	0.13
697.189	0.13
697.51	0.12
697.831	0.13
698.152	0.13
698.473	0.12
698.794	0.11
699.114	0.11
699.435	0.1
699.756	0.11
700.077	0.11
700.397	0.11
700.718	0.11
701.038	0.11
701.359	0.12
701.679	0.11
701.999	0.11
702.32	0.11
702.64	0.11
702.96	0.11
703.28	0.11
703.6	0.11
703.92	0.1
704.24	0.1
704.56	0.1
704.879	0.1
705.199	0.1
705.519	0.1
705.838	0.1
706.158	0.1
706.478	0.1
706.797	0.1
707.116	0.1
707.436	0.1
707.755	0.1
708.074	0.1
708.393	0.1
708.712	0.09
709.031	0.08
709.35	0.08
709.669	0.08
709.988	0.08
710.307	0.09
710.626	0.09
710.944	0.1
711.263	0.09
711.582	0.1
711.9	0.1
712.219	0.09
712.537	0.09
712.855	0.09
713.174	0.09
713.492	0.09
713.81	0.1
714.128	0.1
714.446	0.09
714.764	0.09
715.082	0.08
715.4	0.09
715.718	0.09
716.035	0.09
716.353	0.09
716.671	0.09
716.988	0.09
717.306	0.09
717.623	0.09
717.941	0.1
718.258	0.1
718.575	0.1
718.893	0.1
719.21	0.1
719.527	0.1
719.844	0.09
720.161	0.1
720.478	0.09
720.795	0.1
721.112	0.1
721.428	0.1
721.745	0.1
722.062	0.1
722.378	0.11
722.695	0.1
723.011	0.1
723.328	0.1
723.644	0.11
723.96	0.11
724.276	0.11
724.593	0.1
724.909	0.11
725.225	0.1
725.541	0.1
725.857	0.1
726.173	0.1
726.488	0.11
726.804	0.1
727.12	0.1
727.435	0.1
727.751	0.1
728.067	0.1
728.382	0.1
728.697	0.1
729.013	0.1
729.328	0.1
729.643	0.1
729.958	0.1
730.273	0.1
730.588	0.1
730.903	0.1
731.218	0.1
731.533	0.1
731.848	0.1
732.163	0.1
732.477	0.09
732.792	0.09
733.107	0.09
733.421	0.09
733.736	0.09
734.05	0.09
734.364	0.09
734.678	0.09
734.993	0.09
735.307	0.09
735.621	0.09
735.935	0.09
736.249	0.09
736.563	0.09
736.877	0.09
737.19	0.09
737.504	0.09
737.818	0.09
738.131	0.09
738.445	0.09
738.758	0.1
739.072	0.09
739.385	0.1
739.698	0.1
740.012	0.1
740.325	0.09
740.638	0.09
740.951	0.09
741.264	0.09
741.577	0.09
741.89	0.09
742.203	0.09
742.515	0.09
742.828	0.09
743.141	0.09
743.453	0.09
743.766	0.09
744.078	0.08
744.391	0.08
744.703	0.08
745.015	0.08
745.327	0.08
745.639	0.08
745.952	0.08
746.264	0.08
746.575	0.08
746.887	0.08
747.199	0.08
747.511	0.08
747.823	0.08
748.134	0.07
748.446	0.07
748.757	0.07
749.069	0.07
749.38	0.07
749.692	0.07
750.003	0.06
750.314	0.06
750.625	0.06
750.936	0.06
751.248	0.06
751.559	0.07
751.869	0.07
752.18	0.07
752.491	0.06
752.802	0.06
753.112	0.06
753.423	0.06
753.734	0.06
754.044	0.06
754.355	0.05
754.665	0.05
754.975	0.05
755.285	0.05
755.596	0.05
755.906	0.05
756.216	0.05
756.526	0.05
756.836	0.05
757.146	0.05
757.455	0.05
757.765	0.05
758.075	0.05
758.385	0.05
758.694	0.05
759.004	0.05
759.313	0.04
759.622	0.04
759.932	0.05
760.241	0.05
760.55	0.05
760.859	0.05
761.168	0.05
761.477	0.05
761.786	0.05
762.095	0.05
762.404	0.05
762.713	0.05
763.021	0.05
763.33	0.05
763.639	0.05
763.947	0.05
764.256	0.05
764.564	0.05
764.872	0.05
765.181	0.05
765.489	0.05
765.797	0.04
766.105	0.04
766.413	0.04
766.721	0.04
767.029	0.05
767.337	0.05
767.644	0.05
767.952	0.05
768.26	0.05
768.567	0.05
768.875	0.05
769.182	0.05
769.49	0.05
769.797	0.05
770.104	0.05
770.411	0.05
770.718	0.04
771.026	0.04
771.333	0.04
771.639	0.04
771.946	0.04
772.253	0.04
772.56	0.04
772.867	0.05
773.173	0.05
773.48	0.05
773.786	0.05
774.093	0.05
774.399	0.05
774.705	0.05
775.012	0.05
775.318	0.05
775.624	0.05
775.93	0.05
776.236	0.05
776.542	0.05
776.848	0.06
777.154	0.06
777.459	0.06
777.765	0.05
778.071	0.05
778.376	0.05
778.682	0.05
778.987	0.05
779.292	0.05
779.598	0.05
779.903	0.05
780.208	0.04
780.513	0.04
780.818	0.04
781.123	0.04
781.428	0.05
781.733	0.05
782.038	0.05
782.343	0.04
782.647	0.04
782.952	0.04
783.256	0.04
783.561	0.04
783.865	0.04
784.17	0.04
784.474	0.04
784.778	0.04
785.082	0.04
785.386	0.04
785.69	0.04
785.994	0.04
786.298	0.04
786.602	0.05
786.906	0.05
787.209	0.05
787.513	0.05
787.817	0.05
788.12	0.05
788.424	0.06
788.727	0.06
789.03	0.05
789.333	0.05
789.637	0.05
789.94	0.05
790.243	0.05
790.546	0.06
790.849	0.06
791.152	0.06
791.454	0.06
791.757	0.06
792.06	0.06
792.362	0.06
792.665	0.05
792.967	0.05
793.27	0.05
793.572	0.06
793.874	0.06
794.177	0.06
794.479	0.06
794.781	0.06
795.083	0.06
795.385	0.06
795.687	0.06
795.989	0.06
796.29	0.07
796.592	0.06
796.894	0.07
797.195	0.06
797.497	0.06
797.798	0.07
798.1	0.06
798.401	0.06
798.702	0.07
799.003	0.06
799.304	0.06
799.605	0.06
799.906	0.06
800.207	0.06
800.508	0.06
800.809	0.06
801.11	0.06
801.41	0.07
801.711	0.07
802.011	0.07
802.312	0.07
802.612	0.07
802.913	0.07
803.213	0.07
803.513	0.07
803.813	0.07
804.113	0.07
804.413	0.07
804.713	0.07
805.013	0.07
805.313	0.07
805.613	0.07
805.912	0.07
806.212	0.07
806.511	0.07
806.811	0.07
807.11	0.07
807.41	0.07
807.709	0.07
808.008	0.07
808.307	0.07
808.606	0.08
808.905	0.08
809.204	0.07
809.503	0.07
809.802	0.08
810.101	0.08
810.399	0.08
810.698	0.08
810.997	0.08
811.295	0.08
811.593	0.07
811.892	0.08
812.19	0.07
812.488	0.08
812.786	0.08
813.084	0.08
813.383	0.08
813.68	0.08
813.978	0.08
814.276	0.08
814.574	0.09
814.872	0.08
815.169	0.08
815.467	0.08
815.764	0.08
816.062	0.08
816.359	0.08
816.656	0.08
816.954	0.08
817.251	0.08
817.548	0.08
817.845	0.08
818.142	0.09
818.439	0.09
818.735	0.09
819.032	0.09
819.329	0.09
819.626	0.09
819.922	0.09
820.219	0.1
820.515	0.1
820.811	0.1
821.108	0.09
821.404	0.09
821.7	0.09
821.996	0.09
822.292	0.09
822.588	0.09
822.884	0.1
823.18	0.1
823.475	0.1
823.771	0.11
824.067	0.1
824.362	0.1
824.658	0.1
824.953	0.1
825.249	0.1
825.544	0.1
825.839	0.1
826.134	0.1
826.429	0.1
826.724	0.1
827.019	0.1
827.314	0.1
827.609	0.1
827.904	0.1
828.198	0.1
828.493	0.1
828.787	0.1
829.082	0.1
829.376	0.11
829.671	0.12
829.965	0.11
830.259	0.12
830.553	0.12
830.847	0.12
831.141	0.12
831.435	0.11
831.729	0.12
832.023	0.11
832.317	0.12
832.61	0.11
832.904	0.12
833.197	0.12
833.491	0.11
833.784	0.11
834.077	0.12
834.371	0.12
834.664	0.12
834.957	0.12
835.25	0.11
835.543	0.12
835.836	0.12
836.129	0.12
836.421	0.12
836.714	0.12
837.007	0.12
837.299	0.12
837.592	0.11
837.884	0.12
838.177	0.12
838.469	0.12
838.761	0.13
839.053	0.12
839.345	0.13
839.637	0.12
839.929	0.12
840.221	0.12
840.513	0.12
840.805	0.13
841.096	0.13
841.388	0.13
841.68	0.14
841.971	0.14
842.262	0.13
842.554	0.13
842.845	0.13
843.136	0.12
843.427	0.13
843.718	0.12
844.009	0.13
844.3	0.13
844.591	0.14
844.882	0.13
845.173	0.14
845.463	0.13
845.754	0.15
846.044	0.13
846.335	0.14
846.625	0.13
846.915	0.14
847.206	0.13
847.496	0.15
847.786	0.13
848.076	0.13
848.366	0.13
848.656	0.12
848.945	0.13
849.235	0.13
849.525	0.12
849.814	0.12
850.104	0.13
850.393	0.13
850.683	0.15
850.972	0.14
851.261	0.15
851.551	0.15
851.84	0.15
852.129	0.14
852.418	0.14
852.707	0.15
852.995	0.15
853.284	0.14
853.573	0.13
853.862	0.14
854.15	0.14
854.439	0.13
854.727	0.15
855.015	0.14
855.304	0.15
855.592	0.14
855.88	0.15
856.168	0.15
856.456	0.15
856.744	0.14
857.032	0.14
857.32	0.14
857.607	0.13
857.895	0.15
858.183	0.16
858.47	0.15
858.757	0.15
859.045	0.14
859.332	0.14
859.619	0.16
859.907	0.17
860.194	0.16
860.481	0.18
860.768	0.16
861.054	0.15
861.341	0.16
861.628	0.16
861.915	0.15
862.201	0.15
862.488	0.15
862.774	0.15
863.061	0.16
863.347	0.15
863.633	0.15
863.919	0.13
864.205	0.16
864.491	0.18
864.777	0.19
865.063	0.16
865.349	0.18
865.635	0.15
865.92	0.16
866.206	0.14
866.492	0.15
866.777	0.17
867.062	0.17
867.348	0.16
867.633	0.13
867.918	0.19
868.203	0.14
868.488	0.15
868.773	0.2
869.058	0.17
869.343	0.19
869.628	0.16
869.912	0.16
870.197	0.14
870.482	0.14
870.766	0.23
871.05	0.18
871.335	0.15
871.619	0.15
871.903	0.16
872.187	0.15
872.471	0.13
872.755	0.17
873.039	0.13
873.323	0.19
873.607	0.14
873.89	0.19
874.174	0.18
874.458	0.19
874.741	0.14
875.024	0.14
875.308	0.22
875.591	0.17
875.874	0.18
876.157	0.13
876.44	0.17
876.723	0.12
877.006	0.1
877.289	0.05
877.572	0.17
877.854	0.09
878.137	0.11
878.42	0.14
878.702	0.15
878.984	0.31
879.267	0.2
879.549	0.15
879.831	0.12
880.113	0.17
880.395	0.14
880.677	0.07
880.959	0.18
