Data from Rubpy_BV_1800_EDTA_Buffered_Absorbance_15-00-58-925.txt Node
Date: Wed Jul 01 15:00:58 BST 2026
User: fpm-admin
Spectrometer: OFX00224
Trigger mode: 0
Integration Time (sec): 7.000000E-2
Scans to average: 3
Nonlinearity correction enabled: false
Boxcar width: 0
Storing dark spectrum: false
XAxis mode: Wavelengths
Number of Pixels in Spectrum: 2136
>>>>>Begin Spectral Data<<<<<
154.91	-0.6
155.289	0.2
155.669	-0.88
156.048	-0.34
156.428	-0
156.807	0.3
157.186	0.12
157.566	-0
157.945	-0
158.325	-0
158.704	-0
159.083	-0.53
159.462	-0
159.842	-0.11
160.221	-0.85
160.6	0.11
160.979	-0.27
161.359	0.09
161.738	-0
162.117	0.16
162.496	-0
162.875	0.45
163.254	0.43
163.633	-0
164.012	-0.1
164.391	-0.8
164.77	-0
165.149	-0.3
165.528	-0
165.907	-1.1
166.286	0.15
166.665	-0
167.044	0.49
167.423	-0.16
167.802	0.08
168.181	-0
168.559	-0
168.938	-0.32
169.317	0.24
169.696	-0
170.074	-0.49
170.453	-0
170.832	-0.3
171.21	0.3
171.589	-0.22
171.968	0.23
172.346	-0
172.725	0.56
173.103	0.12
173.482	0.37
173.861	-0.78
174.239	0.58
174.617	-0
174.996	0.8
175.374	0.74
175.753	-0.46
176.131	-0
176.51	-0.05
176.888	-0
177.266	-0
177.645	-0.11
178.023	-0
178.401	-0.02
178.779	-0.36
179.158	-0.9
179.536	-0.43
179.914	-0.51
180.292	0.85
180.67	-0.35
181.048	-0
181.427	-0.19
181.805	-0
182.183	-0.6
182.561	-0.06
182.939	-0.46
183.317	-0
183.695	-0
184.073	0.32
184.451	0.11
184.829	-0
185.206	0.36
185.584	0.43
185.962	0.12
186.34	0.16
186.718	-0.61
187.096	-0
187.473	-0.14
187.851	-0
188.229	-0
188.607	0.24
188.984	0.15
189.362	0.27
189.74	0.26
190.117	0.09
190.495	0.2
190.872	0.23
191.25	0.29
191.627	0.17
192.005	0.2
192.382	0.02
192.76	0.21
193.137	0.23
193.515	0.2
193.892	0.27
194.269	0.29
194.647	0.2
195.024	0.14
195.401	0.14
195.779	0.34
196.156	0.24
196.533	0.21
196.91	0.22
197.288	0.18
197.665	0.15
198.042	0.17
198.419	0.16
198.796	0.08
199.173	0.21
199.55	0.33
199.927	0.21
200.304	0.24
200.681	0.19
201.058	0.21
201.435	0.22
201.812	0.21
202.189	0.35
202.566	0.22
202.943	0.12
203.32	0.28
203.697	0.22
204.073	0.23
204.45	0.31
204.827	0.29
205.204	0.23
205.58	0.35
205.957	0.34
206.334	0.18
206.71	0.23
207.087	0.23
207.464	0.25
207.84	0.43
208.217	0.35
208.593	0.25
208.97	0.25
209.346	0.28
209.723	0.17
210.099	0.21
210.476	0.21
210.852	0.25
211.228	0.28
211.605	0.27
211.981	0.34
212.357	0.23
212.733	0.3
213.11	0.25
213.486	0.38
213.862	0.28
214.238	0.23
214.614	0.35
214.991	0.23
215.367	0.3
215.743	0.39
216.119	0.36
216.495	0.3
216.871	0.27
217.247	0.11
217.623	0.29
217.999	0.23
218.375	0.19
218.751	0.19
219.127	0.36
219.502	0.32
219.878	0.29
220.254	0.33
220.63	0.31
221.006	0.22
221.381	0.24
221.757	0.21
222.133	0.31
222.508	0.2
222.884	0.17
223.26	0.19
223.635	0.3
224.011	0.28
224.386	0.19
224.762	0.24
225.137	0.28
225.513	0.23
225.888	0.31
226.264	0.17
226.639	0.21
227.014	0.17
227.39	0.26
227.765	0.18
228.14	0.26
228.516	0.46
228.891	0.21
229.266	0.26
229.641	0.25
230.017	0.2
230.392	0.29
230.767	0.13
231.142	0.21
231.517	0.25
231.892	0.28
232.267	0.23
232.642	0.37
233.017	0.19
233.392	0.18
233.767	0.38
234.142	0.19
234.517	0.28
234.892	0.24
235.267	0.18
235.641	0.15
236.016	0.24
236.391	0.21
236.766	0.34
237.14	0.26
237.515	0.26
237.89	0.21
238.264	0.17
238.639	0.12
239.014	0.34
239.388	0.37
239.763	0.24
240.137	0.27
240.512	0.15
240.886	0.19
241.261	0.24
241.635	0.15
242.009	0.27
242.384	0.37
242.758	0.3
243.132	0.31
243.507	0.26
243.881	0.15
244.255	0.15
244.629	0.31
245.004	0.27
245.378	0.24
245.752	0.14
246.126	0.2
246.5	0.17
246.874	0.32
247.248	0.34
247.622	0.34
247.996	0.28
248.37	0.25
248.744	0.21
249.118	0.31
249.492	0.2
249.866	0.29
250.24	0.35
250.613	0.39
250.987	0.2
251.361	0.25
251.735	0.23
252.108	0.24
252.482	0.17
252.856	0.23
253.229	0.22
253.603	0.22
253.977	0.14
254.35	0.29
254.724	0.22
255.097	0.24
255.471	0.38
255.844	0.34
256.218	0.25
256.591	0.25
256.964	0.25
257.338	0.25
257.711	0.14
258.084	0.22
258.458	0.27
258.831	0.3
259.204	0.27
259.577	0.3
259.95	0.23
260.323	0.3
260.697	0.21
261.07	0.24
261.443	0.17
261.816	0.16
262.189	0.18
262.562	0.33
262.935	0.24
263.308	0.34
263.68	0.27
264.053	0.23
264.426	0.25
264.799	0.27
265.172	0.24
265.545	0.24
265.917	0.27
266.29	0.26
266.663	0.36
267.035	0.17
267.408	0.36
267.781	0.37
268.153	0.27
268.526	0.24
268.898	0.16
269.271	0.27
269.643	0.28
270.016	0.19
270.388	0.27
270.76	0.28
271.133	0.26
271.505	0.25
271.877	0.23
272.25	0.33
272.622	0.34
272.994	0.3
273.366	0.23
273.739	0.26
274.111	0.21
274.483	0.27
274.855	0.21
275.227	0.27
275.599	0.22
275.971	0.23
276.343	0.26
276.715	0.28
277.087	0.21
277.459	0.2
277.831	0.2
278.203	0.34
278.574	0.3
278.946	0.37
279.318	0.29
279.69	0.28
280.061	0.24
280.433	0.17
280.805	0.25
281.176	0.21
281.548	0.24
281.92	0.16
282.291	0.26
282.663	0.25
283.034	0.22
283.406	0.17
283.777	0.31
284.148	0.28
284.52	0.26
284.891	0.23
285.262	0.3
285.634	0.17
286.005	0.21
286.376	0.22
286.747	0.24
287.119	0.28
287.49	0.25
287.861	0.29
288.232	0.24
288.603	0.28
288.974	0.26
289.345	0.26
289.716	0.25
290.087	0.15
290.458	0.23
290.829	0.11
291.2	0.24
291.571	0.25
291.941	0.27
292.312	0.28
292.683	0.35
293.054	0.22
293.424	0.24
293.795	0.2
294.166	0.35
294.536	0.34
294.907	0.3
295.277	0.26
295.648	0.3
296.018	0.23
296.389	0.21
296.759	0.17
297.13	0.22
297.5	0.25
297.871	0.23
298.241	0.32
298.611	0.24
298.981	0.29
299.352	0.24
299.722	0.29
300.092	0.29
300.462	0.24
300.832	0.26
301.202	0.21
301.573	0.22
301.943	0.17
302.313	0.25
302.683	0.19
303.053	0.22
303.422	0.26
303.792	0.25
304.162	0.28
304.532	0.2
304.902	0.22
305.272	0.23
305.641	0.24
306.011	0.21
306.381	0.19
306.75	0.23
307.12	0.24
307.49	0.21
307.859	0.19
308.229	0.18
308.598	0.16
308.968	0.2
309.337	0.19
309.707	0.22
310.076	0.19
310.445	0.22
310.815	0.16
311.184	0.18
311.553	0.18
311.923	0.18
312.292	0.21
312.661	0.19
313.03	0.2
313.399	0.16
313.768	0.19
314.137	0.17
314.506	0.18
314.875	0.18
315.244	0.19
315.613	0.18
315.982	0.2
316.351	0.2
316.72	0.2
317.089	0.19
317.458	0.19
317.826	0.2
318.195	0.21
318.564	0.2
318.933	0.2
319.301	0.2
319.67	0.22
320.038	0.21
320.407	0.22
320.775	0.22
321.144	0.22
321.512	0.23
321.881	0.24
322.249	0.21
322.618	0.22
322.986	0.22
323.354	0.22
323.723	0.24
324.091	0.25
324.459	0.24
324.827	0.24
325.195	0.25
325.564	0.25
325.932	0.25
326.3	0.26
326.668	0.26
327.036	0.26
327.404	0.27
327.772	0.27
328.14	0.28
328.508	0.28
328.875	0.28
329.243	0.3
329.611	0.28
329.979	0.29
330.346	0.3
330.714	0.3
331.082	0.32
331.449	0.31
331.817	0.32
332.185	0.32
332.552	0.33
332.92	0.33
333.287	0.34
333.655	0.35
334.022	0.35
334.389	0.35
334.757	0.37
335.124	0.38
335.491	0.38
335.859	0.39
336.226	0.39
336.593	0.4
336.96	0.41
337.327	0.41
337.695	0.43
338.062	0.43
338.429	0.43
338.796	0.44
339.163	0.46
339.53	0.46
339.897	0.46
340.263	0.48
340.63	0.48
340.997	0.49
341.364	0.5
341.731	0.51
342.097	0.51
342.464	0.53
342.831	0.53
343.197	0.54
343.564	0.55
343.931	0.55
344.297	0.56
344.664	0.58
345.03	0.59
345.396	0.59
345.763	0.6
346.129	0.61
346.496	0.62
346.862	0.62
347.228	0.63
347.594	0.64
347.961	0.66
348.327	0.66
348.693	0.68
349.059	0.68
349.425	0.69
349.791	0.69
350.157	0.7
350.523	0.71
350.889	0.72
351.255	0.72
351.621	0.73
351.987	0.75
352.353	0.75
352.719	0.77
353.084	0.76
353.45	0.78
353.816	0.79
354.181	0.8
354.547	0.82
354.913	0.82
355.278	0.82
355.644	0.84
356.009	0.85
356.375	0.87
356.74	0.87
357.106	0.88
357.471	0.9
357.836	0.9
358.202	0.91
358.567	0.92
358.932	0.94
359.297	0.95
359.663	0.95
360.028	0.99
360.393	0.99
360.758	1.01
361.123	1.03
361.488	1.03
361.853	1.05
362.218	1.06
362.583	1.07
362.948	1.08
363.312	1.09
363.677	1.1
364.042	1.11
364.407	1.11
364.772	1.13
365.136	1.14
365.501	1.16
365.865	1.18
366.23	1.18
366.595	1.2
366.959	1.2
367.324	1.21
367.688	1.21
368.052	1.22
368.417	1.25
368.781	1.26
369.145	1.26
369.51	1.27
369.874	1.26
370.238	1.28
370.602	1.28
370.967	1.3
371.331	1.29
371.695	1.29
372.059	1.29
372.423	1.29
372.787	1.32
373.151	1.29
373.515	1.31
373.878	1.3
374.242	1.3
374.606	1.29
374.97	1.28
375.334	1.26
375.697	1.27
376.061	1.24
376.425	1.24
376.788	1.21
377.152	1.21
377.515	1.21
377.879	1.19
378.242	1.19
378.606	1.16
378.969	1.14
379.333	1.14
379.696	1.12
380.059	1.12
380.422	1.11
380.786	1.1
381.149	1.07
381.512	1.06
381.875	1.05
382.238	1.05
382.601	1.04
382.964	1.04
383.327	1.02
383.69	1.01
384.053	1
384.416	0.99
384.779	0.97
385.142	0.98
385.504	0.96
385.867	0.97
386.23	0.97
386.593	0.96
386.955	0.96
387.318	0.95
387.68	0.95
388.043	0.95
388.405	0.94
388.768	0.94
389.13	0.95
389.493	0.93
389.855	0.93
390.217	0.92
390.58	0.92
390.942	0.91
391.304	0.9
391.666	0.89
392.028	0.89
392.391	0.87
392.753	0.86
393.115	0.85
393.477	0.85
393.839	0.83
394.201	0.83
394.563	0.82
394.924	0.82
395.286	0.81
395.648	0.83
396.01	0.83
396.371	0.83
396.733	0.85
397.095	0.86
397.456	0.88
397.818	0.9
398.18	0.91
398.541	0.94
398.903	0.97
399.264	0.99
399.625	1.01
399.987	1.02
400.348	1.04
400.709	1.05
401.071	1.06
401.432	1.07
401.793	1.07
402.154	1.06
402.515	1.04
402.876	1.03
403.238	1.01
403.599	0.97
403.96	0.95
404.32	0.92
404.681	0.89
405.042	0.86
405.403	0.82
405.764	0.78
406.125	0.75
406.485	0.7
406.846	0.67
407.207	0.63
407.567	0.59
407.928	0.57
408.288	0.54
408.649	0.5
409.009	0.48
409.37	0.45
409.73	0.43
410.091	0.4
410.451	0.38
410.811	0.36
411.171	0.35
411.532	0.32
411.892	0.31
412.252	0.3
412.612	0.29
412.972	0.28
413.332	0.26
413.692	0.25
414.052	0.23
414.412	0.23
414.772	0.22
415.132	0.21
415.492	0.21
415.851	0.2
416.211	0.18
416.571	0.19
416.931	0.19
417.29	0.18
417.65	0.17
418.009	0.17
418.369	0.16
418.728	0.17
419.088	0.16
419.447	0.15
419.807	0.15
420.166	0.14
420.525	0.14
420.884	0.14
421.244	0.14
421.603	0.14
421.962	0.14
422.321	0.14
422.68	0.13
423.039	0.13
423.398	0.11
423.757	0.12
424.116	0.13
424.475	0.12
424.834	0.12
425.193	0.12
425.551	0.12
425.91	0.11
426.269	0.11
426.628	0.11
426.986	0.11
427.345	0.11
427.703	0.11
428.062	0.11
428.42	0.11
428.779	0.12
429.137	0.1
429.496	0.1
429.854	0.11
430.212	0.1
430.57	0.1
430.929	0.1
431.287	0.09
431.645	0.1
432.003	0.1
432.361	0.1
432.719	0.1
433.077	0.1
433.435	0.1
433.793	0.1
434.151	0.1
434.509	0.1
434.866	0.09
435.224	0.1
435.582	0.1
435.94	0.1
436.297	0.1
436.655	0.1
437.012	0.1
437.37	0.1
437.727	0.1
438.085	0.1
438.442	0.09
438.8	0.09
439.157	0.1
439.514	0.09
439.872	0.1
440.229	0.09
440.586	0.09
440.943	0.1
441.3	0.09
441.657	0.09
442.014	0.09
442.371	0.09
442.728	0.1
443.085	0.09
443.442	0.09
443.799	0.1
444.156	0.1
444.513	0.09
444.869	0.08
445.226	0.1
445.583	0.09
445.939	0.1
446.296	0.09
446.652	0.1
447.009	0.09
447.365	0.1
447.722	0.09
448.078	0.09
448.434	0.09
448.791	0.09
449.147	0.09
449.503	0.1
449.859	0.09
450.215	0.09
450.571	0.09
450.928	0.1
451.284	0.1
451.64	0.09
451.995	0.09
452.351	0.1
452.707	0.09
453.063	0.09
453.419	0.09
453.775	0.08
454.13	0.09
454.486	0.09
454.842	0.07
455.197	0.08
455.553	0.08
455.908	0.08
456.264	0.07
456.619	0.07
456.975	0.08
457.33	0.07
457.685	0.07
458.04	0.08
458.396	0.07
458.751	0.07
459.106	0.06
459.461	0.06
459.816	0.05
460.171	0.05
460.526	0.06
460.881	0.05
461.236	0.05
461.591	0.06
461.946	0.04
462.301	0.04
462.655	0.04
463.01	0.05
463.365	0.04
463.719	0.03
464.074	0.02
464.428	0.02
464.783	0.01
465.137	0.02
465.492	0.02
465.846	0.01
466.201	0.02
466.555	0.02
466.909	0.02
467.263	0.03
467.618	0.02
467.972	0.03
468.326	0.03
468.68	0.02
469.034	0.03
469.388	0.02
469.742	0.02
470.096	0.03
470.45	0.03
470.804	0.03
471.157	0.03
471.511	0.03
471.865	0.03
472.218	0.03
472.572	0.05
472.926	0.05
473.279	0.05
473.633	0.06
473.986	0.07
474.34	0.07
474.693	0.08
475.046	0.09
475.4	0.09
475.753	0.1
476.106	0.11
476.459	0.11
476.812	0.11
477.165	0.13
477.519	0.13
477.872	0.14
478.224	0.14
478.577	0.15
478.93	0.16
479.283	0.15
479.636	0.16
479.989	0.17
480.341	0.18
480.694	0.18
481.047	0.19
481.399	0.19
481.752	0.19
482.104	0.2
482.457	0.2
482.809	0.2
483.162	0.21
483.514	0.21
483.866	0.22
484.219	0.22
484.571	0.22
484.923	0.22
485.275	0.23
485.627	0.24
485.979	0.24
486.331	0.24
486.683	0.24
487.035	0.25
487.387	0.25
487.739	0.26
488.091	0.26
488.443	0.26
488.794	0.27
489.146	0.27
489.498	0.28
489.849	0.27
490.201	0.28
490.552	0.28
490.904	0.28
491.255	0.29
491.607	0.28
491.958	0.29
492.309	0.3
492.661	0.29
493.012	0.3
493.363	0.3
493.714	0.31
494.065	0.31
494.416	0.31
494.767	0.31
495.118	0.31
495.469	0.32
495.82	0.32
496.171	0.33
496.522	0.33
496.872	0.33
497.223	0.33
497.574	0.33
497.924	0.34
498.275	0.35
498.626	0.35
498.976	0.35
499.327	0.35
499.677	0.36
500.027	0.36
500.378	0.36
500.728	0.37
501.078	0.37
501.428	0.37
501.779	0.38
502.129	0.38
502.479	0.37
502.829	0.39
503.179	0.38
503.529	0.39
503.879	0.4
504.229	0.39
504.578	0.4
504.928	0.39
505.278	0.4
505.628	0.4
505.977	0.41
506.327	0.41
506.676	0.41
507.026	0.41
507.375	0.41
507.725	0.42
508.074	0.42
508.424	0.42
508.773	0.43
509.122	0.43
509.471	0.43
509.82	0.43
510.17	0.43
510.519	0.44
510.868	0.44
511.217	0.44
511.566	0.45
511.915	0.45
512.263	0.45
512.612	0.45
512.961	0.46
513.31	0.46
513.659	0.46
514.007	0.46
514.356	0.46
514.704	0.47
515.053	0.47
515.401	0.48
515.75	0.48
516.098	0.48
516.447	0.48
516.795	0.49
517.143	0.48
517.491	0.49
517.839	0.49
518.188	0.49
518.536	0.5
518.884	0.49
519.232	0.5
519.58	0.5
519.928	0.5
520.275	0.5
520.623	0.5
520.971	0.51
521.319	0.51
521.666	0.51
522.014	0.51
522.362	0.51
522.709	0.52
523.057	0.52
523.404	0.52
523.752	0.52
524.099	0.52
524.446	0.53
524.794	0.53
525.141	0.53
525.488	0.53
525.835	0.53
526.182	0.53
526.529	0.54
526.876	0.53
527.223	0.53
527.57	0.54
527.917	0.55
528.264	0.54
528.611	0.54
528.958	0.54
529.304	0.55
529.651	0.55
529.998	0.55
530.344	0.55
530.691	0.56
531.037	0.56
531.384	0.56
531.73	0.56
532.076	0.56
532.423	0.56
532.769	0.56
533.115	0.56
533.461	0.56
533.807	0.56
534.154	0.57
534.5	0.57
534.846	0.57
535.192	0.57
535.537	0.57
535.883	0.57
536.229	0.57
536.575	0.58
536.921	0.58
537.266	0.58
537.612	0.58
537.957	0.57
538.303	0.58
538.649	0.58
538.994	0.58
539.339	0.59
539.685	0.59
540.03	0.59
540.375	0.59
540.721	0.59
541.066	0.59
541.411	0.59
541.756	0.59
542.101	0.59
542.446	0.59
542.791	0.6
543.136	0.59
543.481	0.59
543.825	0.59
544.17	0.6
544.515	0.6
544.86	0.6
545.204	0.6
545.549	0.6
545.893	0.6
546.238	0.6
546.582	0.6
546.927	0.61
547.271	0.6
547.615	0.61
547.96	0.6
548.304	0.61
548.648	0.61
548.992	0.61
549.336	0.61
549.68	0.61
550.024	0.61
550.368	0.61
550.712	0.6
551.056	0.6
551.4	0.61
551.743	0.61
552.087	0.61
552.431	0.61
552.774	0.61
553.118	0.61
553.462	0.6
553.805	0.61
554.148	0.61
554.492	0.61
554.835	0.61
555.178	0.61
555.522	0.61
555.865	0.61
556.208	0.61
556.551	0.61
556.894	0.61
557.237	0.61
557.58	0.61
557.923	0.61
558.266	0.61
558.609	0.6
558.952	0.61
559.294	0.61
559.637	0.61
559.98	0.61
560.322	0.61
560.665	0.61
561.007	0.6
561.35	0.61
561.692	0.61
562.034	0.6
562.377	0.61
562.719	0.61
563.061	0.6
563.403	0.6
563.745	0.6
564.088	0.61
564.43	0.6
564.772	0.6
565.113	0.6
565.455	0.6
565.797	0.6
566.139	0.6
566.481	0.6
566.822	0.6
567.164	0.6
567.506	0.6
567.847	0.59
568.189	0.59
568.53	0.6
568.872	0.6
569.213	0.59
569.554	0.59
569.895	0.59
570.237	0.59
570.578	0.59
570.919	0.59
571.26	0.59
571.601	0.58
571.942	0.59
572.283	0.58
572.624	0.58
572.965	0.58
573.306	0.57
573.646	0.57
573.987	0.57
574.328	0.57
574.668	0.57
575.009	0.56
575.349	0.56
575.69	0.56
576.03	0.56
576.37	0.56
576.711	0.55
577.051	0.56
577.391	0.56
577.731	0.56
578.072	0.56
578.412	0.56
578.752	0.56
579.092	0.56
579.431	0.54
579.771	0.52
580.111	0.52
580.451	0.54
580.791	0.55
581.13	0.55
581.47	0.55
581.81	0.55
582.149	0.54
582.489	0.55
582.828	0.53
583.167	0.5
583.507	0.46
583.846	0.46
584.185	0.5
584.525	0.53
584.864	0.54
585.203	0.54
585.542	0.54
585.881	0.55
586.22	0.54
586.559	0.53
586.898	0.52
587.236	0.52
587.575	0.52
587.914	0.53
588.252	0.54
588.591	0.54
588.93	0.54
589.268	0.53
589.607	0.53
589.945	0.54
590.283	0.54
590.622	0.54
590.96	0.54
591.298	0.54
591.636	0.54
591.974	0.54
592.313	0.54
592.651	0.54
592.989	0.54
593.326	0.54
593.664	0.54
594.002	0.54
594.34	0.54
594.678	0.53
595.015	0.53
595.353	0.52
595.691	0.53
596.028	0.54
596.366	0.54
596.703	0.54
597.04	0.54
597.378	0.54
597.715	0.54
598.052	0.54
598.389	0.54
598.726	0.54
599.064	0.54
599.401	0.54
599.738	0.54
600.074	0.53
600.411	0.54
600.748	0.53
601.085	0.53
601.422	0.53
601.758	0.52
602.095	0.53
602.432	0.53
602.768	0.53
603.105	0.53
603.441	0.54
603.777	0.53
604.114	0.53
604.45	0.54
604.786	0.53
605.122	0.53
605.459	0.53
605.795	0.53
606.131	0.53
606.467	0.52
606.803	0.52
607.139	0.52
607.474	0.52
607.81	0.52
608.146	0.52
608.482	0.52
608.817	0.51
609.153	0.51
609.488	0.51
609.824	0.51
610.159	0.51
610.495	0.51
610.83	0.51
611.165	0.51
611.5	0.5
611.836	0.5
612.171	0.5
612.506	0.5
612.841	0.5
613.176	0.5
613.511	0.49
613.845	0.49
614.18	0.49
614.515	0.49
614.85	0.49
615.184	0.48
615.519	0.49
615.854	0.49
616.188	0.48
616.523	0.48
616.857	0.48
617.191	0.48
617.526	0.48
617.86	0.48
618.194	0.48
618.528	0.48
618.862	0.48
619.196	0.48
619.53	0.47
619.864	0.47
620.198	0.47
620.532	0.47
620.866	0.46
621.2	0.46
621.533	0.46
621.867	0.46
622.201	0.45
622.534	0.46
622.868	0.45
623.201	0.45
623.534	0.45
623.868	0.44
624.201	0.45
624.534	0.44
624.868	0.44
625.201	0.44
625.534	0.44
625.867	0.44
626.2	0.43
626.533	0.44
626.865	0.43
627.198	0.43
627.531	0.43
627.864	0.43
628.196	0.42
628.529	0.42
628.862	0.42
629.194	0.42
629.527	0.41
629.859	0.41
630.191	0.41
630.524	0.41
630.856	0.41
631.188	0.4
631.52	0.4
631.852	0.4
632.184	0.4
632.516	0.39
632.848	0.39
633.18	0.39
633.512	0.39
633.844	0.38
634.175	0.38
634.507	0.38
634.839	0.38
635.17	0.38
635.502	0.37
635.833	0.37
636.165	0.37
636.496	0.36
636.827	0.36
637.159	0.36
637.49	0.36
637.821	0.35
638.152	0.36
638.483	0.35
638.814	0.35
639.145	0.35
639.476	0.34
639.807	0.34
640.137	0.34
640.468	0.34
640.799	0.34
641.129	0.33
641.46	0.33
641.791	0.33
642.121	0.32
642.451	0.32
642.782	0.32
643.112	0.32
643.442	0.32
643.773	0.32
644.103	0.31
644.433	0.31
644.763	0.31
645.093	0.31
645.423	0.31
645.753	0.31
646.082	0.3
646.412	0.31
646.742	0.31
647.072	0.3
647.401	0.3
647.731	0.3
648.06	0.3
648.39	0.3
648.719	0.3
649.048	0.3
649.378	0.29
649.707	0.29
650.036	0.29
650.365	0.29
650.694	0.29
651.023	0.29
651.352	0.28
651.681	0.28
652.01	0.28
652.339	0.28
652.668	0.28
652.996	0.28
653.325	0.28
653.654	0.28
653.982	0.28
654.311	0.28
654.639	0.27
654.967	0.27
655.296	0.28
655.624	0.27
655.952	0.27
656.28	0.27
656.609	0.27
656.937	0.27
657.265	0.26
657.593	0.11
657.92	0.02
658.248	0.01
658.576	0.06
658.904	0.17
659.231	0.25
659.559	0.26
659.887	0.26
660.214	0.26
660.542	0.26
660.869	0.26
661.196	0.26
661.524	0.26
661.851	0.26
662.178	0.26
662.505	0.26
662.832	0.26
663.159	0.26
663.486	0.25
663.813	0.25
664.14	0.25
664.467	0.25
664.794	0.24
665.12	0.25
665.447	0.25
665.774	0.24
666.1	0.24
666.427	0.24
666.753	0.24
667.079	0.24
667.406	0.23
667.732	0.24
668.058	0.24
668.384	0.24
668.71	0.23
669.036	0.23
669.362	0.23
669.688	0.23
670.014	0.23
670.34	0.23
670.666	0.22
670.991	0.22
671.317	0.22
671.643	0.22
671.968	0.22
672.294	0.22
672.619	0.22
672.945	0.22
673.27	0.21
673.595	0.21
673.92	0.2
674.246	0.2
674.571	0.21
674.896	0.2
675.221	0.2
675.546	0.2
675.87	0.2
676.195	0.2
676.52	0.2
676.845	0.2
677.169	0.19
677.494	0.19
677.819	0.19
678.143	0.18
678.468	0.19
678.792	0.18
679.116	0.19
679.44	0.19
679.765	0.18
680.089	0.18
680.413	0.17
680.737	0.17
681.061	0.17
681.385	0.17
681.709	0.17
682.033	0.17
682.356	0.17
682.68	0.16
683.004	0.16
683.327	0.16
683.651	0.16
683.974	0.16
684.298	0.16
684.621	0.16
684.944	0.15
685.268	0.15
685.591	0.15
685.914	0.14
686.237	0.14
686.56	0.14
686.883	0.14
687.206	0.14
687.529	0.14
687.852	0.13
688.175	0.14
688.497	0.14
688.82	0.14
689.142	0.13
689.465	0.13
689.787	0.13
690.11	0.13
690.432	0.13
690.755	0.13
691.077	0.12
691.399	0.12
691.721	0.12
692.043	0.12
692.365	0.11
692.687	0.11
693.009	0.11
693.331	0.11
693.653	0.1
693.974	0.11
694.296	0.11
694.618	0.11
694.939	0.1
695.261	0.1
695.582	0.1
695.904	0.1
696.225	0.11
696.546	0.1
696.868	0.1
697.189	0.1
697.51	0.09
697.831	0.09
698.152	0.1
698.473	0.09
698.794	0.08
699.114	0.08
699.435	0.07
699.756	0.08
700.077	0.08
700.397	0.08
700.718	0.08
701.038	0.09
701.359	0.09
701.679	0.09
701.999	0.08
702.32	0.08
702.64	0.08
702.96	0.08
703.28	0.08
703.6	0.08
703.92	0.08
704.24	0.08
704.56	0.07
704.879	0.08
705.199	0.08
705.519	0.08
705.838	0.08
706.158	0.08
706.478	0.08
706.797	0.08
707.116	0.08
707.436	0.08
707.755	0.08
708.074	0.08
708.393	0.07
708.712	0.07
709.031	0.06
709.35	0.06
709.669	0.06
709.988	0.06
710.307	0.06
710.626	0.07
710.944	0.07
711.263	0.07
711.582	0.07
711.9	0.07
712.219	0.07
712.537	0.07
712.855	0.07
713.174	0.07
713.492	0.07
713.81	0.07
714.128	0.07
714.446	0.07
714.764	0.07
715.082	0.06
715.4	0.07
715.718	0.06
716.035	0.07
716.353	0.07
716.671	0.07
716.988	0.07
717.306	0.07
717.623	0.07
717.941	0.07
718.258	0.08
718.575	0.08
718.893	0.08
719.21	0.07
719.527	0.07
719.844	0.07
720.161	0.07
720.478	0.07
720.795	0.07
721.112	0.08
721.428	0.07
721.745	0.08
722.062	0.08
722.378	0.08
722.695	0.08
723.011	0.08
723.328	0.08
723.644	0.08
723.96	0.08
724.276	0.08
724.593	0.08
724.909	0.08
725.225	0.08
725.541	0.08
725.857	0.08
726.173	0.08
726.488	0.08
726.804	0.08
727.12	0.08
727.435	0.07
727.751	0.07
728.067	0.07
728.382	0.08
728.697	0.08
729.013	0.08
729.328	0.08
729.643	0.08
729.958	0.08
730.273	0.08
730.588	0.08
730.903	0.08
731.218	0.08
731.533	0.08
731.848	0.07
732.163	0.07
732.477	0.07
732.792	0.07
733.107	0.06
733.421	0.07
733.736	0.07
734.05	0.07
734.364	0.07
734.678	0.07
734.993	0.07
735.307	0.07
735.621	0.07
735.935	0.07
736.249	0.07
736.563	0.07
736.877	0.07
737.19	0.07
737.504	0.07
737.818	0.07
738.131	0.07
738.445	0.07
738.758	0.08
739.072	0.07
739.385	0.08
739.698	0.08
740.012	0.08
740.325	0.07
740.638	0.07
740.951	0.07
741.264	0.07
741.577	0.07
741.89	0.07
742.203	0.07
742.515	0.07
742.828	0.07
743.141	0.07
743.453	0.07
743.766	0.07
744.078	0.07
744.391	0.06
744.703	0.06
745.015	0.06
745.327	0.06
745.639	0.06
745.952	0.06
746.264	0.07
746.575	0.07
746.887	0.06
747.199	0.06
747.511	0.06
747.823	0.06
748.134	0.06
748.446	0.06
748.757	0.05
749.069	0.05
749.38	0.05
749.692	0.05
750.003	0.05
750.314	0.05
750.625	0.05
750.936	0.05
751.248	0.05
751.559	0.05
751.869	0.05
752.18	0.05
752.491	0.05
752.802	0.05
753.112	0.05
753.423	0.04
753.734	0.04
754.044	0.04
754.355	0.04
754.665	0.04
754.975	0.04
755.285	0.04
755.596	0.04
755.906	0.04
756.216	0.04
756.526	0.04
756.836	0.04
757.146	0.04
757.455	0.04
757.765	0.04
758.075	0.04
758.385	0.03
758.694	0.03
759.004	0.03
759.313	0.03
759.622	0.03
759.932	0.04
760.241	0.04
760.55	0.04
760.859	0.04
761.168	0.04
761.477	0.04
761.786	0.04
762.095	0.04
762.404	0.04
762.713	0.04
763.021	0.04
763.33	0.04
763.639	0.04
763.947	0.04
764.256	0.04
764.564	0.04
764.872	0.04
765.181	0.04
765.489	0.03
765.797	0.03
766.105	0.03
766.413	0.03
766.721	0.03
767.029	0.03
767.337	0.03
767.644	0.04
767.952	0.04
768.26	0.04
768.567	0.04
768.875	0.04
769.182	0.04
769.49	0.04
769.797	0.04
770.104	0.04
770.411	0.03
770.718	0.03
771.026	0.03
771.333	0.03
771.639	0.03
771.946	0.03
772.253	0.03
772.56	0.03
772.867	0.03
773.173	0.03
773.48	0.03
773.786	0.04
774.093	0.03
774.399	0.03
774.705	0.04
775.012	0.04
775.318	0.04
775.624	0.04
775.93	0.04
776.236	0.04
776.542	0.04
776.848	0.04
777.154	0.04
777.459	0.04
777.765	0.04
778.071	0.04
778.376	0.04
778.682	0.03
778.987	0.04
779.292	0.03
779.598	0.03
779.903	0.03
780.208	0.03
780.513	0.03
780.818	0.03
781.123	0.03
781.428	0.03
781.733	0.03
782.038	0.03
782.343	0.03
782.647	0.03
782.952	0.02
783.256	0.03
783.561	0.03
783.865	0.03
784.17	0.03
784.474	0.03
784.778	0.02
785.082	0.03
785.386	0.03
785.69	0.03
785.994	0.03
786.298	0.03
786.602	0.03
786.906	0.03
787.209	0.03
787.513	0.04
787.817	0.04
788.12	0.04
788.424	0.04
788.727	0.04
789.03	0.04
789.333	0.04
789.637	0.04
789.94	0.04
790.243	0.04
790.546	0.04
790.849	0.04
791.152	0.04
791.454	0.04
791.757	0.04
792.06	0.04
792.362	0.04
792.665	0.04
792.967	0.04
793.27	0.04
793.572	0.04
793.874	0.04
794.177	0.04
794.479	0.04
794.781	0.04
795.083	0.04
795.385	0.04
795.687	0.05
795.989	0.04
796.29	0.04
796.592	0.04
796.894	0.04
797.195	0.04
797.497	0.04
797.798	0.04
798.1	0.04
798.401	0.04
798.702	0.05
799.003	0.04
799.304	0.04
799.605	0.04
799.906	0.04
800.207	0.04
800.508	0.04
800.809	0.05
801.11	0.05
801.41	0.04
801.711	0.05
802.011	0.05
802.312	0.05
802.612	0.05
802.913	0.05
803.213	0.05
803.513	0.04
803.813	0.04
804.113	0.04
804.413	0.05
804.713	0.05
805.013	0.05
805.313	0.05
805.613	0.05
805.912	0.05
806.212	0.05
806.511	0.05
806.811	0.05
807.11	0.05
807.41	0.05
807.709	0.05
808.008	0.05
808.307	0.06
808.606	0.05
808.905	0.05
809.204	0.05
809.503	0.05
809.802	0.05
810.101	0.05
810.399	0.06
810.698	0.05
810.997	0.06
811.295	0.05
811.593	0.05
811.892	0.05
812.19	0.05
812.488	0.05
812.786	0.05
813.084	0.05
813.383	0.06
813.68	0.06
813.978	0.06
814.276	0.06
814.574	0.06
814.872	0.06
815.169	0.06
815.467	0.05
815.764	0.05
816.062	0.05
816.359	0.05
816.656	0.05
816.954	0.05
817.251	0.05
817.548	0.05
817.845	0.06
818.142	0.06
818.439	0.06
818.735	0.06
819.032	0.06
819.329	0.06
819.626	0.06
819.922	0.06
820.219	0.07
820.515	0.07
820.811	0.07
821.108	0.07
821.404	0.06
821.7	0.06
821.996	0.06
822.292	0.06
822.588	0.06
822.884	0.07
823.18	0.08
823.475	0.08
823.771	0.08
824.067	0.07
824.362	0.07
824.658	0.07
824.953	0.07
825.249	0.07
825.544	0.07
825.839	0.07
826.134	0.06
826.429	0.07
826.724	0.06
827.019	0.07
827.314	0.07
827.609	0.07
827.904	0.07
828.198	0.07
828.493	0.07
828.787	0.07
829.082	0.07
829.376	0.07
829.671	0.08
829.965	0.08
830.259	0.08
830.553	0.08
830.847	0.08
831.141	0.08
831.435	0.08
831.729	0.09
832.023	0.08
832.317	0.08
832.61	0.08
832.904	0.08
833.197	0.08
833.491	0.08
833.784	0.08
834.077	0.08
834.371	0.08
834.664	0.09
834.957	0.09
835.25	0.08
835.543	0.08
835.836	0.09
836.129	0.08
836.421	0.08
836.714	0.08
837.007	0.08
837.299	0.08
837.592	0.08
837.884	0.08
838.177	0.08
838.469	0.08
838.761	0.09
839.053	0.09
839.345	0.09
839.637	0.08
839.929	0.09
840.221	0.09
840.513	0.08
840.805	0.09
841.096	0.09
841.388	0.09
841.68	0.09
841.971	0.09
842.262	0.09
842.554	0.09
842.845	0.09
843.136	0.08
843.427	0.1
843.718	0.09
844.009	0.09
844.3	0.08
844.591	0.08
844.882	0.09
845.173	0.1
845.463	0.09
845.754	0.1
846.044	0.1
846.335	0.09
846.625	0.09
846.915	0.1
847.206	0.09
847.496	0.1
847.786	0.09
848.076	0.09
848.366	0.09
848.656	0.09
848.945	0.08
849.235	0.08
849.525	0.08
849.814	0.09
850.104	0.08
850.393	0.09
850.683	0.1
850.972	0.1
851.261	0.1
851.551	0.11
851.84	0.1
852.129	0.1
852.418	0.1
852.707	0.1
852.995	0.1
853.284	0.08
853.573	0.09
853.862	0.08
854.15	0.1
854.439	0.1
854.727	0.09
855.015	0.1
855.304	0.11
855.592	0.1
855.88	0.1
856.168	0.09
856.456	0.09
856.744	0.09
857.032	0.08
857.32	0.08
857.607	0.1
857.895	0.1
858.183	0.1
858.47	0.1
858.757	0.1
859.045	0.1
859.332	0.09
859.619	0.1
859.907	0.1
860.194	0.09
860.481	0.12
860.768	0.11
861.054	0.09
861.341	0.09
861.628	0.1
861.915	0.08
862.201	0.1
862.488	0.1
862.774	0.1
863.061	0.11
863.347	0.08
863.633	0.12
863.919	0.1
864.205	0.09
864.491	0.09
864.777	0.13
865.063	0.09
865.349	0.11
865.635	0.11
865.92	0.1
866.206	0.09
866.492	0.09
866.777	0.12
867.062	0.12
867.348	0.09
867.633	0.06
867.918	0.12
868.203	0.1
868.488	0.08
868.773	0.13
869.058	0.11
869.343	0.08
869.628	0.1
869.912	0.09
870.197	0.11
870.482	0.07
870.766	0.12
871.05	0.07
871.335	0.15
871.619	0.1
871.903	0.09
872.187	0.06
872.471	0.15
872.755	0.08
873.039	0.09
873.323	0.11
873.607	0.1
873.89	0.09
874.174	0.1
874.458	0.1
874.741	0.02
875.024	0.08
875.308	0.1
875.591	0.15
875.874	0.12
876.157	0.09
876.44	0.06
876.723	0.06
877.006	0.05
877.289	0.06
877.572	0.09
877.854	0.09
878.137	0.09
878.42	-0.02
878.702	0.12
878.984	0.13
879.267	0.22
879.549	0.05
879.831	0.14
880.113	0.02
880.395	0.13
880.677	-0
880.959	0.06
