Data from Rubpy_BV_1800_EDTA_Buffered_Absorbance_14-58-58-971.txt Node
Date: Wed Jul 01 14:58:58 BST 2026
User: fpm-admin
Spectrometer: OFX00224
Trigger mode: 0
Integration Time (sec): 7.000000E-2
Scans to average: 3
Nonlinearity correction enabled: false
Boxcar width: 0
Storing dark spectrum: false
XAxis mode: Wavelengths
Number of Pixels in Spectrum: 2136
>>>>>Begin Spectral Data<<<<<
154.91	-0.41
155.289	-0
155.669	-0.5
156.048	-0
156.428	0.13
156.807	-0
157.186	1
157.566	-0
157.945	-0.21
158.325	-0
158.704	-0
159.083	-0
159.462	-0.3
159.842	-0
160.221	-1.04
160.6	-0.32
160.979	0.33
161.359	0.41
161.738	0.29
162.117	-0.14
162.496	-0.46
162.875	0.63
163.254	0.98
163.633	-0.54
164.012	-0.11
164.391	-0.68
164.77	-0
165.149	-0.6
165.528	-1.23
165.907	-1.04
166.286	0.85
166.665	0.06
167.044	0.02
167.423	-0
167.802	-0
168.181	-0
168.559	-0.75
168.938	-0
169.317	-0.02
169.696	-0
170.074	-0.45
170.453	-0
170.832	-0.7
171.21	-0.64
171.589	-0
171.968	0.1
172.346	-0
172.725	0.09
173.103	0.15
173.482	-0
173.861	-0.48
174.239	0.36
174.617	-0.2
174.996	0.34
175.374	-0
175.753	-0.06
176.131	-0
176.51	0.63
176.888	-0
177.266	-0
177.645	-0.1
178.023	0.67
178.401	-0.15
178.779	-0.15
179.158	-0
179.536	-0.52
179.914	-0.1
180.292	-0
180.67	0.45
181.048	-0.6
181.427	-0
181.805	-0
182.183	-1.38
182.561	-0.25
182.939	-0
183.317	0.22
183.695	0.09
184.073	-0
184.451	-0
184.829	-0.13
185.206	-0
185.584	-0
185.962	-0
186.34	-0.01
186.718	1
187.096	-0
187.473	-0
187.851	-0
188.229	-0
188.607	0.28
188.984	0.14
189.362	0.25
189.74	0.27
190.117	0.27
190.495	0.2
190.872	0.41
191.25	0.12
191.627	0.13
192.005	0.22
192.382	0.01
192.76	0.15
193.137	0.24
193.515	0.13
193.892	0.4
194.269	0.25
194.647	0.2
195.024	0.07
195.401	0.21
195.779	0.28
196.156	0.15
196.533	0.19
196.91	0.09
197.288	0.26
197.665	0.09
198.042	0.29
198.419	0.15
198.796	0.08
199.173	0.19
199.55	0.18
199.927	0.2
200.304	0.27
200.681	0.39
201.058	0.15
201.435	0.26
201.812	0.17
202.189	0.3
202.566	0.25
202.943	0.18
203.32	0.36
203.697	0.2
204.073	0.33
204.45	0.26
204.827	0.38
205.204	0.23
205.58	0.18
205.957	0.21
206.334	0.29
206.71	0.28
207.087	0.25
207.464	0.13
207.84	0.25
208.217	0.27
208.593	0.23
208.97	0.29
209.346	0.2
209.723	0.23
210.099	0.23
210.476	0.15
210.852	0.28
211.228	0.24
211.605	0.29
211.981	0.29
212.357	0.14
212.733	0.21
213.11	0.22
213.486	0.2
213.862	0.29
214.238	0.34
214.614	0.37
214.991	0.27
215.367	0.21
215.743	0.27
216.119	0.26
216.495	0.23
216.871	0.25
217.247	0.18
217.623	0.19
217.999	0.15
218.375	0.2
218.751	0.1
219.127	0.2
219.502	0.25
219.878	0.18
220.254	0.2
220.63	0.28
221.006	0.28
221.381	0.27
221.757	0.24
222.133	0.39
222.508	0.16
222.884	0.18
223.26	0.13
223.635	0.22
224.011	0.22
224.386	0.14
224.762	0.14
225.137	0.22
225.513	0.16
225.888	0.17
226.264	0.21
226.639	0.18
227.014	0.13
227.39	0.22
227.765	0.15
228.14	0.23
228.516	0.36
228.891	0.27
229.266	0.25
229.641	0.32
230.017	0.18
230.392	0.21
230.767	0.09
231.142	0.14
231.517	0.19
231.892	0.26
232.267	0.16
232.642	0.31
233.017	0.21
233.392	0.21
233.767	0.19
234.142	0.19
234.517	0.22
234.892	0.22
235.267	0.19
235.641	0.3
236.016	0.15
236.391	0.27
236.766	0.28
237.14	0.24
237.515	0.28
237.89	0.22
238.264	0.23
238.639	0.18
239.014	0.35
239.388	0.23
239.763	0.29
240.137	0.29
240.512	0.2
240.886	0.18
241.261	0.24
241.635	0.2
242.009	0.22
242.384	0.2
242.758	0.32
243.132	0.23
243.507	0.28
243.881	0.22
244.255	0.24
244.629	0.32
245.004	0.27
245.378	0.16
245.752	0.19
246.126	0.28
246.5	0.26
246.874	0.34
247.248	0.36
247.622	0.17
247.996	0.24
248.37	0.22
248.744	0.28
249.118	0.12
249.492	0.25
249.866	0.2
250.24	0.31
250.613	0.27
250.987	0.19
251.361	0.3
251.735	0.22
252.108	0.18
252.482	0.12
252.856	0.25
253.229	0.22
253.603	0.22
253.977	0.21
254.35	0.18
254.724	0.23
255.097	0.26
255.471	0.24
255.844	0.29
256.218	0.18
256.591	0.16
256.964	0.23
257.338	0.23
257.711	0.19
258.084	0.27
258.458	0.23
258.831	0.19
259.204	0.27
259.577	0.26
259.95	0.15
260.323	0.22
260.697	0.32
261.07	0.21
261.443	0.18
261.816	0.14
262.189	0.21
262.562	0.25
262.935	0.26
263.308	0.25
263.68	0.2
264.053	0.19
264.426	0.23
264.799	0.37
265.172	0.23
265.545	0.17
265.917	0.28
266.29	0.23
266.663	0.26
267.035	0.16
267.408	0.21
267.781	0.27
268.153	0.23
268.526	0.16
268.898	0.19
269.271	0.26
269.643	0.2
270.016	0.19
270.388	0.21
270.76	0.23
271.133	0.3
271.505	0.17
271.877	0.22
272.25	0.28
272.622	0.3
272.994	0.32
273.366	0.29
273.739	0.13
274.111	0.23
274.483	0.29
274.855	0.27
275.227	0.28
275.599	0.13
275.971	0.29
276.343	0.24
276.715	0.24
277.087	0.22
277.459	0.19
277.831	0.25
278.203	0.33
278.574	0.25
278.946	0.2
279.318	0.17
279.69	0.25
280.061	0.19
280.433	0.27
280.805	0.34
281.176	0.26
281.548	0.16
281.92	0.19
282.291	0.16
282.663	0.24
283.034	0.25
283.406	0.19
283.777	0.25
284.148	0.25
284.52	0.21
284.891	0.16
285.262	0.18
285.634	0.3
286.005	0.1
286.376	0.2
286.747	0.22
287.119	0.18
287.49	0.29
287.861	0.21
288.232	0.22
288.603	0.26
288.974	0.19
289.345	0.23
289.716	0.24
290.087	0.2
290.458	0.28
290.829	0.16
291.2	0.25
291.571	0.21
291.941	0.31
292.312	0.23
292.683	0.27
293.054	0.14
293.424	0.35
293.795	0.21
294.166	0.2
294.536	0.16
294.907	0.27
295.277	0.22
295.648	0.3
296.018	0.2
296.389	0.25
296.759	0.24
297.13	0.27
297.5	0.23
297.871	0.19
298.241	0.25
298.611	0.27
298.981	0.25
299.352	0.23
299.722	0.3
300.092	0.21
300.462	0.26
300.832	0.24
301.202	0.23
301.573	0.22
301.943	0.23
302.313	0.2
302.683	0.26
303.053	0.23
303.422	0.2
303.792	0.19
304.162	0.26
304.532	0.19
304.902	0.2
305.272	0.23
305.641	0.21
306.011	0.19
306.381	0.21
306.75	0.21
307.12	0.23
307.49	0.23
307.859	0.18
308.229	0.17
308.598	0.2
308.968	0.21
309.337	0.17
309.707	0.17
310.076	0.19
310.445	0.19
310.815	0.18
311.184	0.18
311.553	0.14
311.923	0.16
312.292	0.2
312.661	0.19
313.03	0.19
313.399	0.16
313.768	0.15
314.137	0.17
314.506	0.18
314.875	0.16
315.244	0.17
315.613	0.17
315.982	0.19
316.351	0.18
316.72	0.18
317.089	0.19
317.458	0.2
317.826	0.19
318.195	0.2
318.564	0.2
318.933	0.19
319.301	0.21
319.67	0.19
320.038	0.21
320.407	0.2
320.775	0.22
321.144	0.22
321.512	0.21
321.881	0.2
322.249	0.21
322.618	0.21
322.986	0.21
323.354	0.22
323.723	0.24
324.091	0.23
324.459	0.23
324.827	0.24
325.195	0.24
325.564	0.25
325.932	0.23
326.3	0.25
326.668	0.25
327.036	0.24
327.404	0.25
327.772	0.26
328.14	0.26
328.508	0.27
328.875	0.26
329.243	0.27
329.611	0.27
329.979	0.28
330.346	0.28
330.714	0.29
331.082	0.29
331.449	0.3
331.817	0.29
332.185	0.31
332.552	0.31
332.92	0.32
333.287	0.32
333.655	0.32
334.022	0.33
334.389	0.33
334.757	0.35
335.124	0.35
335.491	0.37
335.859	0.37
336.226	0.37
336.593	0.37
336.96	0.39
337.327	0.39
337.695	0.4
338.062	0.4
338.429	0.41
338.796	0.42
339.163	0.43
339.53	0.43
339.897	0.44
340.263	0.45
340.63	0.45
340.997	0.47
341.364	0.47
341.731	0.48
342.097	0.5
342.464	0.5
342.831	0.51
343.197	0.52
343.564	0.52
343.931	0.53
344.297	0.54
344.664	0.55
345.03	0.56
345.396	0.56
345.763	0.57
346.129	0.58
346.496	0.59
346.862	0.6
347.228	0.6
347.594	0.62
347.961	0.62
348.327	0.63
348.693	0.64
349.059	0.64
349.425	0.65
349.791	0.66
350.157	0.67
350.523	0.67
350.889	0.69
351.255	0.69
351.621	0.7
351.987	0.71
352.353	0.72
352.719	0.72
353.084	0.73
353.45	0.73
353.816	0.76
354.181	0.76
354.547	0.77
354.913	0.78
355.278	0.78
355.644	0.79
356.009	0.81
356.375	0.81
356.74	0.82
357.106	0.84
357.471	0.84
357.836	0.85
358.202	0.87
358.567	0.87
358.932	0.9
359.297	0.9
359.663	0.92
360.028	0.93
360.393	0.94
360.758	0.96
361.123	0.97
361.488	0.98
361.853	0.98
362.218	1.01
362.583	1.02
362.948	1.02
363.312	1.04
363.677	1.05
364.042	1.07
364.407	1.08
364.772	1.07
365.136	1.09
365.501	1.11
365.865	1.12
366.23	1.11
366.595	1.14
366.959	1.15
367.324	1.16
367.688	1.15
368.052	1.18
368.417	1.2
368.781	1.18
369.145	1.2
369.51	1.21
369.874	1.2
370.238	1.24
370.602	1.23
370.967	1.23
371.331	1.23
371.695	1.24
372.059	1.23
372.423	1.25
372.787	1.24
373.151	1.24
373.515	1.24
373.878	1.24
374.242	1.24
374.606	1.23
374.97	1.23
375.334	1.22
375.697	1.2
376.061	1.19
376.425	1.18
376.788	1.17
377.152	1.16
377.515	1.14
377.879	1.12
378.242	1.13
378.606	1.13
378.969	1.1
379.333	1.09
379.696	1.07
380.059	1.05
380.422	1.05
380.786	1.04
381.149	1.01
381.512	1.01
381.875	1.01
382.238	0.99
382.601	0.98
382.964	0.98
383.327	0.97
383.69	0.96
384.053	0.95
384.416	0.94
384.779	0.93
385.142	0.92
385.504	0.92
385.867	0.92
386.23	0.92
386.593	0.91
386.955	0.91
387.318	0.92
387.68	0.92
388.043	0.9
388.405	0.91
388.768	0.91
389.13	0.91
389.493	0.9
389.855	0.89
390.217	0.88
390.58	0.88
390.942	0.87
391.304	0.86
391.666	0.85
392.028	0.85
392.391	0.84
392.753	0.82
393.115	0.82
393.477	0.81
393.839	0.8
394.201	0.79
394.563	0.79
394.924	0.79
395.286	0.79
395.648	0.79
396.01	0.79
396.371	0.8
396.733	0.81
397.095	0.82
397.456	0.84
397.818	0.86
398.18	0.88
398.541	0.9
398.903	0.92
399.264	0.95
399.625	0.97
399.987	0.99
400.348	0.99
400.709	1.02
401.071	1.01
401.432	1.02
401.793	1.01
402.154	1.03
402.515	1.01
402.876	0.99
403.238	0.97
403.599	0.95
403.96	0.92
404.32	0.89
404.681	0.85
405.042	0.82
405.403	0.79
405.764	0.75
406.125	0.71
406.485	0.67
406.846	0.64
407.207	0.61
407.567	0.57
407.928	0.55
408.288	0.51
408.649	0.49
409.009	0.46
409.37	0.43
409.73	0.41
410.091	0.39
410.451	0.36
410.811	0.35
411.171	0.33
411.532	0.31
411.892	0.3
412.252	0.29
412.612	0.27
412.972	0.26
413.332	0.25
413.692	0.24
414.052	0.23
414.412	0.23
414.772	0.21
415.132	0.21
415.492	0.2
415.851	0.19
416.211	0.18
416.571	0.18
416.931	0.17
417.29	0.17
417.65	0.16
418.009	0.16
418.369	0.16
418.728	0.16
419.088	0.16
419.447	0.14
419.807	0.13
420.166	0.14
420.525	0.14
420.884	0.13
421.244	0.13
421.603	0.12
421.962	0.12
422.321	0.13
422.68	0.12
423.039	0.12
423.398	0.11
423.757	0.12
424.116	0.12
424.475	0.11
424.834	0.11
425.193	0.1
425.551	0.12
425.91	0.1
426.269	0.11
426.628	0.1
426.986	0.11
427.345	0.1
427.703	0.1
428.062	0.1
428.42	0.1
428.779	0.1
429.137	0.1
429.496	0.1
429.854	0.1
430.212	0.1
430.57	0.1
430.929	0.09
431.287	0.09
431.645	0.1
432.003	0.09
432.361	0.09
432.719	0.1
433.077	0.1
433.435	0.09
433.793	0.1
434.151	0.09
434.509	0.1
434.866	0.09
435.224	0.09
435.582	0.09
435.94	0.1
436.297	0.09
436.655	0.09
437.012	0.08
437.37	0.09
437.727	0.09
438.085	0.08
438.442	0.09
438.8	0.09
439.157	0.09
439.514	0.09
439.872	0.09
440.229	0.09
440.586	0.09
440.943	0.09
441.3	0.09
441.657	0.1
442.014	0.09
442.371	0.09
442.728	0.09
443.085	0.1
443.442	0.08
443.799	0.09
444.156	0.09
444.513	0.08
444.869	0.08
445.226	0.09
445.583	0.1
445.939	0.09
446.296	0.09
446.652	0.08
447.009	0.09
447.365	0.09
447.722	0.09
448.078	0.09
448.434	0.09
448.791	0.09
449.147	0.09
449.503	0.09
449.859	0.09
450.215	0.08
450.571	0.08
450.928	0.08
451.284	0.09
451.64	0.08
451.995	0.09
452.351	0.08
452.707	0.08
453.063	0.09
453.419	0.08
453.775	0.08
454.13	0.08
454.486	0.08
454.842	0.08
455.197	0.08
455.553	0.07
455.908	0.07
456.264	0.07
456.619	0.08
456.975	0.07
457.33	0.07
457.685	0.06
458.04	0.07
458.396	0.06
458.751	0.06
459.106	0.06
459.461	0.05
459.816	0.04
460.171	0.05
460.526	0.05
460.881	0.03
461.236	0.03
461.591	0.05
461.946	0.04
462.301	0.04
462.655	0.03
463.01	0.04
463.365	0.02
463.719	0.02
464.074	0.02
464.428	0.01
464.783	0.01
465.137	0.02
465.492	0.01
465.846	0
466.201	0.01
466.555	0.01
466.909	0.02
467.263	0.02
467.618	0.02
467.972	0.03
468.326	0.02
468.68	0.01
469.034	0.02
469.388	0.01
469.742	0.01
470.096	0.02
470.45	0.02
470.804	0.02
471.157	0.02
471.511	0.02
471.865	0.02
472.218	0.02
472.572	0.04
472.926	0.04
473.279	0.04
473.633	0.05
473.986	0.06
474.34	0.06
474.693	0.07
475.046	0.08
475.4	0.08
475.753	0.09
476.106	0.09
476.459	0.1
476.812	0.11
477.165	0.12
477.519	0.12
477.872	0.12
478.224	0.13
478.577	0.14
478.93	0.14
479.283	0.14
479.636	0.15
479.989	0.15
480.341	0.16
480.694	0.17
481.047	0.17
481.399	0.18
481.752	0.18
482.104	0.18
482.457	0.19
482.809	0.19
483.162	0.2
483.514	0.2
483.866	0.2
484.219	0.2
484.571	0.21
484.923	0.21
485.275	0.22
485.627	0.22
485.979	0.23
486.331	0.22
486.683	0.23
487.035	0.23
487.387	0.24
487.739	0.25
488.091	0.25
488.443	0.25
488.794	0.25
489.146	0.25
489.498	0.26
489.849	0.26
490.201	0.26
490.552	0.26
490.904	0.27
491.255	0.27
491.607	0.27
491.958	0.27
492.309	0.28
492.661	0.29
493.012	0.29
493.363	0.29
493.714	0.29
494.065	0.29
494.416	0.29
494.767	0.3
495.118	0.3
495.469	0.3
495.82	0.3
496.171	0.31
496.522	0.31
496.872	0.32
497.223	0.32
497.574	0.31
497.924	0.32
498.275	0.32
498.626	0.33
498.976	0.33
499.327	0.33
499.677	0.34
500.027	0.34
500.378	0.34
500.728	0.34
501.078	0.35
501.428	0.35
501.779	0.35
502.129	0.35
502.479	0.36
502.829	0.36
503.179	0.36
503.529	0.37
503.879	0.38
504.229	0.37
504.578	0.38
504.928	0.37
505.278	0.38
505.628	0.38
505.977	0.39
506.327	0.39
506.676	0.39
507.026	0.4
507.375	0.39
507.725	0.39
508.074	0.4
508.424	0.4
508.773	0.4
509.122	0.41
509.471	0.41
509.82	0.41
510.17	0.41
510.519	0.41
510.868	0.42
511.217	0.42
511.566	0.42
511.915	0.43
512.263	0.43
512.612	0.43
512.961	0.43
513.31	0.44
513.659	0.44
514.007	0.45
514.356	0.44
514.704	0.44
515.053	0.44
515.401	0.44
515.75	0.45
516.098	0.45
516.447	0.46
516.795	0.45
517.143	0.46
517.491	0.46
517.839	0.46
518.188	0.46
518.536	0.46
518.884	0.47
519.232	0.47
519.58	0.47
519.928	0.47
520.275	0.47
520.623	0.47
520.971	0.48
521.319	0.48
521.666	0.48
522.014	0.49
522.362	0.48
522.709	0.49
523.057	0.49
523.404	0.49
523.752	0.5
524.099	0.5
524.446	0.5
524.794	0.49
525.141	0.5
525.488	0.51
525.835	0.51
526.182	0.5
526.529	0.5
526.876	0.51
527.223	0.51
527.57	0.52
527.917	0.51
528.264	0.51
528.611	0.51
528.958	0.51
529.304	0.52
529.651	0.52
529.998	0.52
530.344	0.52
530.691	0.52
531.037	0.52
531.384	0.53
531.73	0.54
532.076	0.53
532.423	0.53
532.769	0.53
533.115	0.53
533.461	0.54
533.807	0.54
534.154	0.54
534.5	0.54
534.846	0.54
535.192	0.54
535.537	0.54
535.883	0.54
536.229	0.54
536.575	0.55
536.921	0.54
537.266	0.55
537.612	0.55
537.957	0.55
538.303	0.55
538.649	0.55
538.994	0.55
539.339	0.55
539.685	0.56
540.03	0.56
540.375	0.55
540.721	0.56
541.066	0.56
541.411	0.56
541.756	0.57
542.101	0.56
542.446	0.56
542.791	0.56
543.136	0.57
543.481	0.56
543.825	0.57
544.17	0.57
544.515	0.57
544.86	0.57
545.204	0.57
545.549	0.57
545.893	0.57
546.238	0.57
546.582	0.57
546.927	0.57
547.271	0.57
547.615	0.57
547.96	0.57
548.304	0.58
548.648	0.58
548.992	0.57
549.336	0.57
549.68	0.58
550.024	0.58
550.368	0.58
550.712	0.58
551.056	0.58
551.4	0.58
551.743	0.58
552.087	0.58
552.431	0.58
552.774	0.58
553.118	0.58
553.462	0.58
553.805	0.58
554.148	0.58
554.492	0.58
554.835	0.58
555.178	0.58
555.522	0.59
555.865	0.58
556.208	0.58
556.551	0.58
556.894	0.58
557.237	0.58
557.58	0.58
557.923	0.58
558.266	0.58
558.609	0.58
558.952	0.58
559.294	0.58
559.637	0.58
559.98	0.58
560.322	0.58
560.665	0.58
561.007	0.57
561.35	0.58
561.692	0.57
562.034	0.57
562.377	0.57
562.719	0.58
563.061	0.57
563.403	0.57
563.745	0.57
564.088	0.57
564.43	0.57
564.772	0.57
565.113	0.57
565.455	0.57
565.797	0.57
566.139	0.57
566.481	0.57
566.822	0.57
567.164	0.57
567.506	0.57
567.847	0.56
568.189	0.56
568.53	0.56
568.872	0.56
569.213	0.56
569.554	0.56
569.895	0.56
570.237	0.56
570.578	0.56
570.919	0.56
571.26	0.55
571.601	0.55
571.942	0.55
572.283	0.55
572.624	0.55
572.965	0.55
573.306	0.54
573.646	0.54
573.987	0.54
574.328	0.54
574.668	0.54
575.009	0.54
575.349	0.54
575.69	0.54
576.03	0.54
576.37	0.53
576.711	0.53
577.051	0.53
577.391	0.54
577.731	0.54
578.072	0.53
578.412	0.53
578.752	0.53
579.092	0.53
579.431	0.51
579.771	0.49
580.111	0.49
580.451	0.51
580.791	0.52
581.13	0.52
581.47	0.52
581.81	0.52
582.149	0.52
582.489	0.52
582.828	0.5
583.167	0.47
583.507	0.44
583.846	0.44
584.185	0.48
584.525	0.5
584.864	0.51
585.203	0.52
585.542	0.52
585.881	0.52
586.22	0.52
586.559	0.51
586.898	0.5
587.236	0.49
587.575	0.49
587.914	0.5
588.252	0.51
588.591	0.51
588.93	0.51
589.268	0.5
589.607	0.5
589.945	0.51
590.283	0.51
590.622	0.51
590.96	0.51
591.298	0.52
591.636	0.51
591.974	0.51
592.313	0.51
592.651	0.52
592.989	0.52
593.326	0.52
593.664	0.52
594.002	0.51
594.34	0.51
594.678	0.5
595.015	0.5
595.353	0.5
595.691	0.51
596.028	0.51
596.366	0.52
596.703	0.52
597.04	0.51
597.378	0.52
597.715	0.52
598.052	0.52
598.389	0.52
598.726	0.51
599.064	0.51
599.401	0.51
599.738	0.51
600.074	0.51
600.411	0.51
600.748	0.5
601.085	0.5
601.422	0.5
601.758	0.5
602.095	0.5
602.432	0.5
602.768	0.51
603.105	0.51
603.441	0.51
603.777	0.51
604.114	0.5
604.45	0.51
604.786	0.51
605.122	0.51
605.459	0.5
605.795	0.5
606.131	0.5
606.467	0.5
606.803	0.5
607.139	0.5
607.474	0.49
607.81	0.49
608.146	0.49
608.482	0.49
608.817	0.49
609.153	0.49
609.488	0.48
609.824	0.49
610.159	0.49
610.495	0.48
610.83	0.48
611.165	0.49
611.5	0.48
611.836	0.48
612.171	0.48
612.506	0.48
612.841	0.48
613.176	0.47
613.511	0.47
613.845	0.47
614.18	0.47
614.515	0.47
614.85	0.46
615.184	0.47
615.519	0.46
615.854	0.46
616.188	0.46
616.523	0.46
616.857	0.45
617.191	0.46
617.526	0.46
617.86	0.45
618.194	0.45
618.528	0.45
618.862	0.45
619.196	0.45
619.53	0.45
619.864	0.45
620.198	0.45
620.532	0.45
620.866	0.45
621.2	0.44
621.533	0.44
621.867	0.44
622.201	0.43
622.534	0.43
622.868	0.43
623.201	0.43
623.534	0.43
623.868	0.42
624.201	0.42
624.534	0.42
624.868	0.43
625.201	0.42
625.534	0.42
625.867	0.42
626.2	0.41
626.533	0.41
626.865	0.41
627.198	0.41
627.531	0.41
627.864	0.4
628.196	0.4
628.529	0.4
628.862	0.4
629.194	0.39
629.527	0.39
629.859	0.39
630.191	0.39
630.524	0.39
630.856	0.39
631.188	0.38
631.52	0.38
631.852	0.38
632.184	0.37
632.516	0.37
632.848	0.37
633.18	0.37
633.512	0.37
633.844	0.37
634.175	0.36
634.507	0.36
634.839	0.35
635.17	0.35
635.502	0.35
635.833	0.35
636.165	0.35
636.496	0.35
636.827	0.35
637.159	0.34
637.49	0.34
637.821	0.34
638.152	0.34
638.483	0.33
638.814	0.33
639.145	0.33
639.476	0.32
639.807	0.33
640.137	0.32
640.468	0.32
640.799	0.32
641.129	0.31
641.46	0.32
641.791	0.31
642.121	0.31
642.451	0.31
642.782	0.31
643.112	0.3
643.442	0.3
643.773	0.3
644.103	0.3
644.433	0.3
644.763	0.3
645.093	0.3
645.423	0.29
645.753	0.29
646.082	0.29
646.412	0.29
646.742	0.29
647.072	0.29
647.401	0.29
647.731	0.28
648.06	0.28
648.39	0.29
648.719	0.28
649.048	0.29
649.378	0.28
649.707	0.28
650.036	0.28
650.365	0.28
650.694	0.27
651.023	0.27
651.352	0.27
651.681	0.27
652.01	0.27
652.339	0.27
652.668	0.27
652.996	0.27
653.325	0.26
653.654	0.27
653.982	0.26
654.311	0.27
654.639	0.26
654.967	0.26
655.296	0.26
655.624	0.26
655.952	0.26
656.28	0.26
656.609	0.26
656.937	0.26
657.265	0.25
657.593	0.1
657.92	0.01
658.248	0
658.576	0.05
658.904	0.16
659.231	0.24
659.559	0.25
659.887	0.25
660.214	0.25
660.542	0.25
660.869	0.25
661.196	0.24
661.524	0.25
661.851	0.24
662.178	0.24
662.505	0.24
662.832	0.24
663.159	0.24
663.486	0.24
663.813	0.24
664.14	0.24
664.467	0.24
664.794	0.23
665.12	0.23
665.447	0.24
665.774	0.23
666.1	0.23
666.427	0.23
666.753	0.22
667.079	0.22
667.406	0.22
667.732	0.22
668.058	0.22
668.384	0.22
668.71	0.22
669.036	0.22
669.362	0.22
669.688	0.21
670.014	0.22
670.34	0.22
670.666	0.21
670.991	0.21
671.317	0.21
671.643	0.21
671.968	0.21
672.294	0.2
672.619	0.2
672.945	0.2
673.27	0.2
673.595	0.2
673.92	0.2
674.246	0.2
674.571	0.2
674.896	0.19
675.221	0.19
675.546	0.19
675.87	0.19
676.195	0.19
676.52	0.19
676.845	0.18
677.169	0.18
677.494	0.18
677.819	0.18
678.143	0.18
678.468	0.18
678.792	0.18
679.116	0.18
679.44	0.17
679.765	0.17
680.089	0.16
680.413	0.16
680.737	0.16
681.061	0.16
681.385	0.16
681.709	0.16
682.033	0.15
682.356	0.16
682.68	0.16
683.004	0.15
683.327	0.15
683.651	0.15
683.974	0.14
684.298	0.14
684.621	0.14
684.944	0.14
685.268	0.14
685.591	0.14
685.914	0.13
686.237	0.13
686.56	0.13
686.883	0.13
687.206	0.13
687.529	0.13
687.852	0.12
688.175	0.13
688.497	0.13
688.82	0.12
689.142	0.12
689.465	0.12
689.787	0.12
690.11	0.12
690.432	0.12
690.755	0.12
691.077	0.12
691.399	0.11
691.721	0.11
692.043	0.11
692.365	0.11
692.687	0.11
693.009	0.1
693.331	0.1
693.653	0.1
693.974	0.1
694.296	0.1
694.618	0.1
694.939	0.1
695.261	0.09
695.582	0.09
695.904	0.09
696.225	0.1
696.546	0.1
696.868	0.09
697.189	0.09
697.51	0.09
697.831	0.09
698.152	0.09
698.473	0.09
698.794	0.08
699.114	0.08
699.435	0.07
699.756	0.07
700.077	0.08
700.397	0.08
700.718	0.08
701.038	0.08
701.359	0.08
701.679	0.08
701.999	0.08
702.32	0.08
702.64	0.08
702.96	0.08
703.28	0.08
703.6	0.07
703.92	0.07
704.24	0.07
704.56	0.07
704.879	0.07
705.199	0.07
705.519	0.07
705.838	0.07
706.158	0.07
706.478	0.07
706.797	0.07
707.116	0.07
707.436	0.07
707.755	0.07
708.074	0.07
708.393	0.07
708.712	0.06
709.031	0.05
709.35	0.05
709.669	0.05
709.988	0.06
710.307	0.06
710.626	0.06
710.944	0.07
711.263	0.07
711.582	0.07
711.9	0.07
712.219	0.06
712.537	0.06
712.855	0.06
713.174	0.06
713.492	0.06
713.81	0.06
714.128	0.06
714.446	0.06
714.764	0.06
715.082	0.06
715.4	0.06
715.718	0.06
716.035	0.06
716.353	0.06
716.671	0.06
716.988	0.06
717.306	0.06
717.623	0.07
717.941	0.07
718.258	0.07
718.575	0.07
718.893	0.07
719.21	0.07
719.527	0.07
719.844	0.07
720.161	0.07
720.478	0.07
720.795	0.07
721.112	0.07
721.428	0.07
721.745	0.07
722.062	0.07
722.378	0.07
722.695	0.07
723.011	0.07
723.328	0.07
723.644	0.07
723.96	0.07
724.276	0.07
724.593	0.07
724.909	0.07
725.225	0.07
725.541	0.07
725.857	0.07
726.173	0.07
726.488	0.08
726.804	0.07
727.12	0.07
727.435	0.07
727.751	0.07
728.067	0.07
728.382	0.07
728.697	0.07
729.013	0.08
729.328	0.07
729.643	0.07
729.958	0.07
730.273	0.07
730.588	0.07
730.903	0.07
731.218	0.07
731.533	0.07
731.848	0.07
732.163	0.07
732.477	0.06
732.792	0.06
733.107	0.06
733.421	0.06
733.736	0.06
734.05	0.07
734.364	0.07
734.678	0.07
734.993	0.06
735.307	0.07
735.621	0.06
735.935	0.06
736.249	0.06
736.563	0.07
736.877	0.07
737.19	0.07
737.504	0.07
737.818	0.07
738.131	0.07
738.445	0.07
738.758	0.07
739.072	0.07
739.385	0.07
739.698	0.07
740.012	0.07
740.325	0.07
740.638	0.07
740.951	0.07
741.264	0.06
741.577	0.07
741.89	0.07
742.203	0.06
742.515	0.06
742.828	0.06
743.141	0.06
743.453	0.06
743.766	0.06
744.078	0.06
744.391	0.06
744.703	0.06
745.015	0.06
745.327	0.06
745.639	0.06
745.952	0.06
746.264	0.06
746.575	0.06
746.887	0.06
747.199	0.06
747.511	0.05
747.823	0.05
748.134	0.05
748.446	0.05
748.757	0.05
749.069	0.05
749.38	0.05
749.692	0.05
750.003	0.04
750.314	0.04
750.625	0.04
750.936	0.04
751.248	0.04
751.559	0.04
751.869	0.04
752.18	0.04
752.491	0.04
752.802	0.04
753.112	0.04
753.423	0.04
753.734	0.04
754.044	0.04
754.355	0.04
754.665	0.04
754.975	0.04
755.285	0.04
755.596	0.04
755.906	0.04
756.216	0.03
756.526	0.03
756.836	0.03
757.146	0.03
757.455	0.03
757.765	0.03
758.075	0.04
758.385	0.03
758.694	0.03
759.004	0.03
759.313	0.03
759.622	0.03
759.932	0.03
760.241	0.04
760.55	0.03
760.859	0.03
761.168	0.04
761.477	0.03
761.786	0.03
762.095	0.03
762.404	0.03
762.713	0.03
763.021	0.03
763.33	0.03
763.639	0.03
763.947	0.03
764.256	0.03
764.564	0.03
764.872	0.03
765.181	0.03
765.489	0.03
765.797	0.03
766.105	0.03
766.413	0.03
766.721	0.03
767.029	0.03
767.337	0.03
767.644	0.03
767.952	0.03
768.26	0.03
768.567	0.03
768.875	0.03
769.182	0.03
769.49	0.03
769.797	0.03
770.104	0.03
770.411	0.03
770.718	0.03
771.026	0.03
771.333	0.03
771.639	0.03
771.946	0.03
772.253	0.03
772.56	0.03
772.867	0.03
773.173	0.03
773.48	0.03
773.786	0.03
774.093	0.03
774.399	0.03
774.705	0.03
775.012	0.03
775.318	0.03
775.624	0.03
775.93	0.03
776.236	0.03
776.542	0.03
776.848	0.03
777.154	0.03
777.459	0.03
777.765	0.03
778.071	0.03
778.376	0.03
778.682	0.03
778.987	0.04
779.292	0.03
779.598	0.03
779.903	0.03
780.208	0.03
780.513	0.03
780.818	0.03
781.123	0.03
781.428	0.03
781.733	0.03
782.038	0.03
782.343	0.03
782.647	0.02
782.952	0.02
783.256	0.02
783.561	0.02
783.865	0.02
784.17	0.02
784.474	0.02
784.778	0.02
785.082	0.02
785.386	0.02
785.69	0.02
785.994	0.03
786.298	0.02
786.602	0.03
786.906	0.03
787.209	0.03
787.513	0.03
787.817	0.03
788.12	0.03
788.424	0.03
788.727	0.03
789.03	0.03
789.333	0.03
789.637	0.03
789.94	0.04
790.243	0.04
790.546	0.04
790.849	0.04
791.152	0.04
791.454	0.04
791.757	0.04
792.06	0.04
792.362	0.04
792.665	0.04
792.967	0.04
793.27	0.04
793.572	0.04
793.874	0.04
794.177	0.03
794.479	0.03
794.781	0.04
795.083	0.04
795.385	0.03
795.687	0.04
795.989	0.04
796.29	0.04
796.592	0.04
796.894	0.04
797.195	0.04
797.497	0.04
797.798	0.04
798.1	0.04
798.401	0.04
798.702	0.04
799.003	0.04
799.304	0.04
799.605	0.04
799.906	0.04
800.207	0.04
800.508	0.04
800.809	0.05
801.11	0.04
801.41	0.04
801.711	0.04
802.011	0.04
802.312	0.04
802.612	0.04
802.913	0.04
803.213	0.04
803.513	0.04
803.813	0.04
804.113	0.04
804.413	0.04
804.713	0.04
805.013	0.05
805.313	0.05
805.613	0.04
805.912	0.04
806.212	0.04
806.511	0.05
806.811	0.05
807.11	0.05
807.41	0.05
807.709	0.05
808.008	0.05
808.307	0.05
808.606	0.04
808.905	0.04
809.204	0.05
809.503	0.04
809.802	0.04
810.101	0.05
810.399	0.05
810.698	0.05
810.997	0.05
811.295	0.05
811.593	0.05
811.892	0.05
812.19	0.05
812.488	0.05
812.786	0.05
813.084	0.05
813.383	0.05
813.68	0.05
813.978	0.05
814.276	0.05
814.574	0.05
814.872	0.05
815.169	0.05
815.467	0.05
815.764	0.05
816.062	0.05
816.359	0.05
816.656	0.05
816.954	0.05
817.251	0.05
817.548	0.05
817.845	0.05
818.142	0.06
818.439	0.05
818.735	0.06
819.032	0.06
819.329	0.06
819.626	0.06
819.922	0.06
820.219	0.06
820.515	0.06
820.811	0.06
821.108	0.07
821.404	0.06
821.7	0.06
821.996	0.06
822.292	0.07
822.588	0.07
822.884	0.06
823.18	0.07
823.475	0.07
823.771	0.07
824.067	0.07
824.362	0.07
824.658	0.07
824.953	0.07
825.249	0.06
825.544	0.06
825.839	0.07
826.134	0.06
826.429	0.06
826.724	0.06
827.019	0.07
827.314	0.07
827.609	0.07
827.904	0.07
828.198	0.06
828.493	0.07
828.787	0.07
829.082	0.06
829.376	0.07
829.671	0.08
829.965	0.08
830.259	0.08
830.553	0.08
830.847	0.08
831.141	0.08
831.435	0.08
831.729	0.08
832.023	0.07
832.317	0.08
832.61	0.07
832.904	0.08
833.197	0.08
833.491	0.07
833.784	0.08
834.077	0.08
834.371	0.08
834.664	0.08
834.957	0.08
835.25	0.08
835.543	0.08
835.836	0.08
836.129	0.08
836.421	0.07
836.714	0.07
837.007	0.08
837.299	0.09
837.592	0.08
837.884	0.09
838.177	0.08
838.469	0.08
838.761	0.08
839.053	0.08
839.345	0.08
839.637	0.07
839.929	0.08
840.221	0.08
840.513	0.08
840.805	0.1
841.096	0.08
841.388	0.09
841.68	0.09
841.971	0.08
842.262	0.08
842.554	0.08
842.845	0.08
843.136	0.08
843.427	0.08
843.718	0.08
844.009	0.08
844.3	0.08
844.591	0.09
844.882	0.09
845.173	0.1
845.463	0.09
845.754	0.1
846.044	0.09
846.335	0.09
846.625	0.08
846.915	0.09
847.206	0.08
847.496	0.1
847.786	0.09
848.076	0.07
848.366	0.09
848.656	0.08
848.945	0.09
849.235	0.08
849.525	0.08
849.814	0.09
850.104	0.08
850.393	0.09
850.683	0.1
850.972	0.08
851.261	0.09
851.551	0.1
851.84	0.08
852.129	0.09
852.418	0.11
852.707	0.11
852.995	0.09
853.284	0.09
853.573	0.1
853.862	0.08
854.15	0.1
854.439	0.1
854.727	0.08
855.015	0.1
855.304	0.1
855.592	0.1
855.88	0.1
856.168	0.09
856.456	0.09
856.744	0.09
857.032	0.1
857.32	0.1
857.607	0.09
857.895	0.09
858.183	0.1
858.47	0.1
858.757	0.08
859.045	0.11
859.332	0.1
859.619	0.1
859.907	0.12
860.194	0.09
860.481	0.11
860.768	0.1
861.054	0.09
861.341	0.1
861.628	0.11
861.915	0.11
862.201	0.09
862.488	0.11
862.774	0.13
863.061	0.12
863.347	0.09
863.633	0.11
863.919	0.11
864.205	0.09
864.491	0.1
864.777	0.1
865.063	0.1
865.349	0.11
865.635	0.1
865.92	0.1
866.206	0.11
866.492	0.12
866.777	0.12
867.062	0.09
867.348	0.08
867.633	0.09
867.918	0.12
868.203	0.11
868.488	0.11
868.773	0.14
869.058	0.13
869.343	0.12
869.628	0.12
869.912	0.1
870.197	0.09
870.482	0.06
870.766	0.16
871.05	0.1
871.335	0.12
871.619	0.1
871.903	0.1
872.187	0.06
872.471	0.12
872.755	0.11
873.039	0.09
873.323	0.13
873.607	0.11
873.89	0.08
874.174	0.14
874.458	0.14
874.741	0.06
875.024	0.12
875.308	0.08
875.591	0.1
875.874	0.09
876.157	0.05
876.44	0.02
876.723	0.06
877.006	0.03
877.289	0.02
877.572	0.14
877.854	0.09
878.137	0.11
878.42	0.04
878.702	0.03
878.984	0.22
879.267	0.22
879.549	-0
879.831	0.06
880.113	0.08
880.395	0.09
880.677	-0.07
880.959	0
