Data from Rubpy_BV_1800_EDTA_Buffered_Absorbance_15-08-43-883.txt Node
Date: Wed Jul 01 15:08:43 BST 2026
User: fpm-admin
Spectrometer: OFX00224
Trigger mode: 0
Integration Time (sec): 7.000000E-2
Scans to average: 3
Nonlinearity correction enabled: false
Boxcar width: 0
Storing dark spectrum: false
XAxis mode: Wavelengths
Number of Pixels in Spectrum: 2136
>>>>>Begin Spectral Data<<<<<
154.91	-0.6
155.289	0.44
155.669	-0.86
156.048	-0.68
156.428	-0
156.807	-0
157.186	0.35
157.566	-0.2
157.945	-0.3
158.325	0.27
158.704	-0
159.083	-0
159.462	-0
159.842	-0
160.221	-0.3
160.6	-0.09
160.979	-0.36
161.359	-0
161.738	0.08
162.117	0.58
162.496	-0.35
162.875	-0
163.254	0.19
163.633	-0
164.012	0.07
164.391	0.3
164.77	-0.81
165.149	-0.43
165.528	-0
165.907	-0.48
166.286	-0.05
166.665	-0.18
167.044	0.26
167.423	0.2
167.802	-0
168.181	0.15
168.559	-0.78
168.938	-0.67
169.317	0.8
169.696	-0
170.074	-0.27
170.453	-0.06
170.832	0.3
171.21	-0.57
171.589	-0.12
171.968	0.17
172.346	-0
172.725	0.3
173.103	-0.06
173.482	0.88
173.861	-1.16
174.239	0.48
174.617	-0
174.996	0.25
175.374	-0.3
175.753	-0.06
176.131	-0
176.51	-0.02
176.888	-0
177.266	-0
177.645	-0
178.023	0.36
178.401	-0.19
178.779	-0
179.158	-0
179.536	-0
179.914	0.22
180.292	0.49
180.67	-0.11
181.048	-0.12
181.427	0.26
181.805	-0
182.183	-1.15
182.561	0.34
182.939	0.37
183.317	-0
183.695	0.46
184.073	0.02
184.451	0.31
184.829	-0.42
185.206	-0
185.584	0.02
185.962	-0
186.34	0.48
186.718	-0
187.096	-0.88
187.473	-0.17
187.851	0.62
188.229	0.43
188.607	0.2
188.984	0.16
189.362	0.3
189.74	0.3
190.117	0.2
190.495	0.22
190.872	0.37
191.25	0.34
191.627	0.25
192.005	0.29
192.382	0.09
192.76	0.26
193.137	0.32
193.515	0.31
193.892	0.22
194.269	0.15
194.647	0.24
195.024	0.22
195.401	0.26
195.779	0.32
196.156	0.2
196.533	0.25
196.91	0.19
197.288	0.23
197.665	0.22
198.042	0.24
198.419	0.2
198.796	0.11
199.173	0.25
199.55	0.23
199.927	0.24
200.304	0.29
200.681	0.46
201.058	0.19
201.435	0.29
201.812	0.28
202.189	0.47
202.566	0.24
202.943	0.2
203.32	0.26
203.697	0.34
204.073	0.27
204.45	0.25
204.827	0.3
205.204	0.21
205.58	0.29
205.957	0.2
206.334	0.43
206.71	0.29
207.087	0.29
207.464	0.17
207.84	0.26
208.217	0.35
208.593	0.31
208.97	0.3
209.346	0.27
209.723	0.28
210.099	0.29
210.476	0.24
210.852	0.25
211.228	0.32
211.605	0.34
211.981	0.21
212.357	0.28
212.733	0.35
213.11	0.16
213.486	0.28
213.862	0.33
214.238	0.23
214.614	0.28
214.991	0.26
215.367	0.35
215.743	0.35
216.119	0.26
216.495	0.28
216.871	0.32
217.247	0.22
217.623	0.27
217.999	0.28
218.375	0.22
218.751	0.18
219.127	0.31
219.502	0.28
219.878	0.32
220.254	0.23
220.63	0.23
221.006	0.34
221.381	0.33
221.757	0.24
222.133	0.25
222.508	0.47
222.884	0.18
223.26	0.27
223.635	0.32
224.011	0.45
224.386	0.28
224.762	0.31
225.137	0.28
225.513	0.19
225.888	0.46
226.264	0.22
226.639	0.32
227.014	0.19
227.39	0.46
227.765	0.29
228.14	0.38
228.516	0.46
228.891	0.3
229.266	0.24
229.641	0.28
230.017	0.35
230.392	0.3
230.767	0.26
231.142	0.32
231.517	0.17
231.892	0.2
232.267	0.38
232.642	0.22
233.017	0.66
233.392	0.3
233.767	0.28
234.142	0.24
234.517	0.36
234.892	0.25
235.267	0.16
235.641	0.14
236.016	0.22
236.391	0.23
236.766	0.31
237.14	0.33
237.515	0.35
237.89	0.23
238.264	0.27
238.639	0.11
239.014	0.29
239.388	0.32
239.763	0.35
240.137	0.25
240.512	0.37
240.886	0.41
241.261	0.3
241.635	0.22
242.009	0.33
242.384	0.28
242.758	0.23
243.132	0.31
243.507	0.19
243.881	0.29
244.255	0.31
244.629	0.36
245.004	0.41
245.378	0.28
245.752	0.2
246.126	0.26
246.5	0.26
246.874	0.31
247.248	0.41
247.622	0.31
247.996	0.33
248.37	0.23
248.744	0.25
249.118	0.38
249.492	0.18
249.866	0.35
250.24	0.44
250.613	0.31
250.987	0.28
251.361	0.33
251.735	0.23
252.108	0.3
252.482	0.24
252.856	0.29
253.229	0.28
253.603	0.29
253.977	0.29
254.35	0.35
254.724	0.3
255.097	0.25
255.471	0.36
255.844	0.31
256.218	0.25
256.591	0.34
256.964	0.25
257.338	0.28
257.711	0.13
258.084	0.2
258.458	0.35
258.831	0.29
259.204	0.39
259.577	0.4
259.95	0.28
260.323	0.25
260.697	0.33
261.07	0.25
261.443	0.26
261.816	0.2
262.189	0.37
262.562	0.33
262.935	0.4
263.308	0.16
263.68	0.34
264.053	0.24
264.426	0.29
264.799	0.32
265.172	0.29
265.545	0.33
265.917	0.33
266.29	0.37
266.663	0.49
267.035	0.29
267.408	0.31
267.781	0.33
268.153	0.27
268.526	0.23
268.898	0.38
269.271	0.25
269.643	0.43
270.016	0.24
270.388	0.33
270.76	0.36
271.133	0.35
271.505	0.29
271.877	0.39
272.25	0.34
272.622	0.23
272.994	0.36
273.366	0.29
273.739	0.23
274.111	0.32
274.483	0.27
274.855	0.24
275.227	0.3
275.599	0.19
275.971	0.27
276.343	0.25
276.715	0.27
277.087	0.26
277.459	0.23
277.831	0.27
278.203	0.29
278.574	0.29
278.946	0.3
279.318	0.34
279.69	0.4
280.061	0.27
280.433	0.28
280.805	0.29
281.176	0.27
281.548	0.33
281.92	0.24
282.291	0.35
282.663	0.3
283.034	0.28
283.406	0.25
283.777	0.33
284.148	0.32
284.52	0.36
284.891	0.27
285.262	0.37
285.634	0.33
286.005	0.29
286.376	0.31
286.747	0.33
287.119	0.47
287.49	0.38
287.861	0.25
288.232	0.21
288.603	0.36
288.974	0.29
289.345	0.32
289.716	0.23
290.087	0.25
290.458	0.31
290.829	0.25
291.2	0.3
291.571	0.32
291.941	0.31
292.312	0.33
292.683	0.39
293.054	0.35
293.424	0.42
293.795	0.33
294.166	0.29
294.536	0.31
294.907	0.29
295.277	0.35
295.648	0.33
296.018	0.38
296.389	0.34
296.759	0.35
297.13	0.25
297.5	0.38
297.871	0.36
298.241	0.29
298.611	0.43
298.981	0.28
299.352	0.36
299.722	0.29
300.092	0.33
300.462	0.26
300.832	0.41
301.202	0.42
301.573	0.3
301.943	0.33
302.313	0.29
302.683	0.27
303.053	0.31
303.422	0.36
303.792	0.33
304.162	0.31
304.532	0.24
304.902	0.34
305.272	0.35
305.641	0.31
306.011	0.22
306.381	0.28
306.75	0.23
307.12	0.23
307.49	0.27
307.859	0.3
308.229	0.26
308.598	0.24
308.968	0.25
309.337	0.27
309.707	0.27
310.076	0.25
310.445	0.28
310.815	0.23
311.184	0.22
311.553	0.25
311.923	0.22
312.292	0.24
312.661	0.27
313.03	0.25
313.399	0.22
313.768	0.25
314.137	0.24
314.506	0.24
314.875	0.27
315.244	0.25
315.613	0.24
315.982	0.28
316.351	0.25
316.72	0.28
317.089	0.29
317.458	0.27
317.826	0.28
318.195	0.29
318.564	0.28
318.933	0.28
319.301	0.3
319.67	0.31
320.038	0.3
320.407	0.32
320.775	0.31
321.144	0.32
321.512	0.34
321.881	0.33
322.249	0.32
322.618	0.32
322.986	0.34
323.354	0.33
323.723	0.35
324.091	0.34
324.459	0.35
324.827	0.36
325.195	0.36
325.564	0.37
325.932	0.37
326.3	0.37
326.668	0.38
327.036	0.37
327.404	0.39
327.772	0.4
328.14	0.42
328.508	0.42
328.875	0.41
329.243	0.44
329.611	0.43
329.979	0.44
330.346	0.44
330.714	0.45
331.082	0.45
331.449	0.46
331.817	0.47
332.185	0.48
332.552	0.48
332.92	0.5
333.287	0.5
333.655	0.52
334.022	0.52
334.389	0.53
334.757	0.54
335.124	0.56
335.491	0.56
335.859	0.58
336.226	0.58
336.593	0.59
336.96	0.61
337.327	0.62
337.695	0.63
338.062	0.64
338.429	0.65
338.796	0.66
339.163	0.68
339.53	0.68
339.897	0.69
340.263	0.71
340.63	0.72
340.997	0.73
341.364	0.74
341.731	0.76
342.097	0.77
342.464	0.78
342.831	0.79
343.197	0.81
343.564	0.82
343.931	0.83
344.297	0.84
344.664	0.86
345.03	0.87
345.396	0.88
345.763	0.9
346.129	0.91
346.496	0.93
346.862	0.93
347.228	0.94
347.594	0.97
347.961	0.98
348.327	0.98
348.693	1.01
349.059	1.02
349.425	1.01
349.791	1.03
350.157	1.06
350.523	1.06
350.889	1.07
351.255	1.08
351.621	1.1
351.987	1.1
352.353	1.12
352.719	1.13
353.084	1.14
353.45	1.15
353.816	1.16
354.181	1.18
354.547	1.21
354.913	1.21
355.278	1.22
355.644	1.24
356.009	1.25
356.375	1.27
356.74	1.29
357.106	1.29
357.471	1.32
357.836	1.33
358.202	1.34
358.567	1.37
358.932	1.37
359.297	1.38
359.663	1.4
360.028	1.43
360.393	1.42
360.758	1.47
361.123	1.46
361.488	1.51
361.853	1.53
362.218	1.54
362.583	1.54
362.948	1.51
363.312	1.58
363.677	1.57
364.042	1.6
364.407	1.61
364.772	1.62
365.136	1.61
365.501	1.64
365.865	1.68
366.23	1.68
366.595	1.7
366.959	1.67
367.324	1.73
367.688	1.69
368.052	1.71
368.417	1.74
368.781	1.71
369.145	1.74
369.51	1.74
369.874	1.75
370.238	1.76
370.602	1.78
370.967	1.77
371.331	1.79
371.695	1.74
372.059	1.78
372.423	1.76
372.787	1.83
373.151	1.76
373.515	1.76
373.878	1.75
374.242	1.8
374.606	1.8
374.97	1.77
375.334	1.77
375.697	1.73
376.061	1.7
376.425	1.71
376.788	1.68
377.152	1.71
377.515	1.69
377.879	1.65
378.242	1.64
378.606	1.67
378.969	1.61
379.333	1.61
379.696	1.58
380.059	1.57
380.422	1.56
380.786	1.54
381.149	1.52
381.512	1.52
381.875	1.51
382.238	1.46
382.601	1.45
382.964	1.43
383.327	1.43
383.69	1.42
384.053	1.39
384.416	1.36
384.779	1.37
385.142	1.36
385.504	1.35
385.867	1.33
386.23	1.34
386.593	1.33
386.955	1.32
387.318	1.32
387.68	1.31
388.043	1.3
388.405	1.3
388.768	1.28
389.13	1.3
389.493	1.26
389.855	1.26
390.217	1.25
390.58	1.25
390.942	1.23
391.304	1.23
391.666	1.21
392.028	1.19
392.391	1.18
392.753	1.16
393.115	1.15
393.477	1.14
393.839	1.12
394.201	1.1
394.563	1.09
394.924	1.09
395.286	1.09
395.648	1.1
396.01	1.11
396.371	1.12
396.733	1.12
397.095	1.14
397.456	1.16
397.818	1.17
398.18	1.19
398.541	1.22
398.903	1.24
399.264	1.27
399.625	1.31
399.987	1.32
400.348	1.35
400.709	1.35
401.071	1.36
401.432	1.36
401.793	1.38
402.154	1.35
402.515	1.34
402.876	1.32
403.238	1.3
403.599	1.25
403.96	1.23
404.32	1.16
404.681	1.15
405.042	1.1
405.403	1.06
405.764	1
406.125	0.96
406.485	0.91
406.846	0.87
407.207	0.83
407.567	0.78
407.928	0.75
408.288	0.71
408.649	0.67
409.009	0.63
409.37	0.6
409.73	0.57
410.091	0.53
410.451	0.51
410.811	0.48
411.171	0.47
411.532	0.43
411.892	0.41
412.252	0.4
412.612	0.38
412.972	0.37
413.332	0.34
413.692	0.34
414.052	0.32
414.412	0.31
414.772	0.3
415.132	0.29
415.492	0.28
415.851	0.27
416.211	0.26
416.571	0.26
416.931	0.26
417.29	0.24
417.65	0.23
418.009	0.23
418.369	0.22
418.728	0.23
419.088	0.22
419.447	0.21
419.807	0.2
420.166	0.2
420.525	0.19
420.884	0.19
421.244	0.19
421.603	0.19
421.962	0.18
422.321	0.19
422.68	0.17
423.039	0.18
423.398	0.16
423.757	0.17
424.116	0.18
424.475	0.16
424.834	0.17
425.193	0.16
425.551	0.16
425.91	0.15
426.269	0.15
426.628	0.14
426.986	0.16
427.345	0.16
427.703	0.16
428.062	0.15
428.42	0.15
428.779	0.16
429.137	0.14
429.496	0.14
429.854	0.15
430.212	0.14
430.57	0.14
430.929	0.14
431.287	0.14
431.645	0.14
432.003	0.13
432.361	0.14
432.719	0.14
433.077	0.14
433.435	0.13
433.793	0.14
434.151	0.14
434.509	0.13
434.866	0.13
435.224	0.13
435.582	0.14
435.94	0.14
436.297	0.14
436.655	0.13
437.012	0.13
437.37	0.13
437.727	0.13
438.085	0.13
438.442	0.13
438.8	0.14
439.157	0.14
439.514	0.14
439.872	0.14
440.229	0.13
440.586	0.13
440.943	0.13
441.3	0.13
441.657	0.14
442.014	0.14
442.371	0.13
442.728	0.14
443.085	0.14
443.442	0.14
443.799	0.14
444.156	0.14
444.513	0.14
444.869	0.13
445.226	0.14
445.583	0.14
445.939	0.14
446.296	0.14
446.652	0.14
447.009	0.14
447.365	0.14
447.722	0.13
448.078	0.14
448.434	0.14
448.791	0.14
449.147	0.15
449.503	0.14
449.859	0.15
450.215	0.14
450.571	0.14
450.928	0.14
451.284	0.15
451.64	0.14
451.995	0.14
452.351	0.14
452.707	0.14
453.063	0.14
453.419	0.13
453.775	0.13
454.13	0.14
454.486	0.14
454.842	0.13
455.197	0.13
455.553	0.12
455.908	0.13
456.264	0.13
456.619	0.13
456.975	0.13
457.33	0.13
457.685	0.12
458.04	0.13
458.396	0.12
458.751	0.13
459.106	0.11
459.461	0.11
459.816	0.11
460.171	0.11
460.526	0.11
460.881	0.11
461.236	0.09
461.591	0.11
461.946	0.1
462.301	0.1
462.655	0.1
463.01	0.09
463.365	0.09
463.719	0.08
464.074	0.08
464.428	0.07
464.783	0.07
465.137	0.08
465.492	0.08
465.846	0.06
466.201	0.07
466.555	0.08
466.909	0.08
467.263	0.09
467.618	0.09
467.972	0.1
468.326	0.09
468.68	0.08
469.034	0.08
469.388	0.07
469.742	0.08
470.096	0.08
470.45	0.09
470.804	0.09
471.157	0.1
471.511	0.09
471.865	0.09
472.218	0.09
472.572	0.11
472.926	0.11
473.279	0.12
473.633	0.13
473.986	0.14
474.34	0.14
474.693	0.15
475.046	0.16
475.4	0.17
475.753	0.18
476.106	0.19
476.459	0.19
476.812	0.2
477.165	0.22
477.519	0.22
477.872	0.23
478.224	0.23
478.577	0.24
478.93	0.24
479.283	0.25
479.636	0.26
479.989	0.27
480.341	0.28
480.694	0.29
481.047	0.29
481.399	0.3
481.752	0.3
482.104	0.31
482.457	0.31
482.809	0.32
483.162	0.33
483.514	0.33
483.866	0.34
484.219	0.34
484.571	0.35
484.923	0.34
485.275	0.36
485.627	0.36
485.979	0.36
486.331	0.36
486.683	0.38
487.035	0.38
487.387	0.39
487.739	0.4
488.091	0.4
488.443	0.4
488.794	0.41
489.146	0.4
489.498	0.41
489.849	0.42
490.201	0.42
490.552	0.42
490.904	0.43
491.255	0.43
491.607	0.44
491.958	0.44
492.309	0.44
492.661	0.44
493.012	0.45
493.363	0.46
493.714	0.46
494.065	0.47
494.416	0.47
494.767	0.48
495.118	0.48
495.469	0.48
495.82	0.48
496.171	0.5
496.522	0.49
496.872	0.51
497.223	0.5
497.574	0.5
497.924	0.51
498.275	0.52
498.626	0.53
498.976	0.52
499.327	0.53
499.677	0.53
500.027	0.54
500.378	0.54
500.728	0.55
501.078	0.55
501.428	0.55
501.779	0.57
502.129	0.56
502.479	0.56
502.829	0.57
503.179	0.57
503.529	0.58
503.879	0.59
504.229	0.58
504.578	0.6
504.928	0.59
505.278	0.6
505.628	0.6
505.977	0.61
506.327	0.61
506.676	0.61
507.026	0.62
507.375	0.61
507.725	0.62
508.074	0.63
508.424	0.63
508.773	0.63
509.122	0.64
509.471	0.65
509.82	0.65
510.17	0.65
510.519	0.66
510.868	0.66
511.217	0.66
511.566	0.66
511.915	0.67
512.263	0.68
512.612	0.67
512.961	0.68
513.31	0.68
513.659	0.68
514.007	0.69
514.356	0.69
514.704	0.7
515.053	0.7
515.401	0.7
515.75	0.7
516.098	0.71
516.447	0.71
516.795	0.71
517.143	0.72
517.491	0.72
517.839	0.72
518.188	0.73
518.536	0.73
518.884	0.73
519.232	0.73
519.58	0.75
519.928	0.74
520.275	0.75
520.623	0.74
520.971	0.75
521.319	0.75
521.666	0.75
522.014	0.75
522.362	0.76
522.709	0.76
523.057	0.77
523.404	0.77
523.752	0.77
524.099	0.78
524.446	0.78
524.794	0.78
525.141	0.78
525.488	0.78
525.835	0.79
526.182	0.79
526.529	0.79
526.876	0.79
527.223	0.79
527.57	0.8
527.917	0.8
528.264	0.8
528.611	0.8
528.958	0.79
529.304	0.81
529.651	0.81
529.998	0.81
530.344	0.81
530.691	0.82
531.037	0.83
531.384	0.83
531.73	0.83
532.076	0.82
532.423	0.82
532.769	0.83
533.115	0.82
533.461	0.83
533.807	0.83
534.154	0.83
534.5	0.84
534.846	0.84
535.192	0.83
535.537	0.84
535.883	0.84
536.229	0.85
536.575	0.85
536.921	0.85
537.266	0.84
537.612	0.85
537.957	0.85
538.303	0.84
538.649	0.86
538.994	0.85
539.339	0.85
539.685	0.86
540.03	0.86
540.375	0.86
540.721	0.87
541.066	0.86
541.411	0.87
541.756	0.86
542.101	0.87
542.446	0.87
542.791	0.87
543.136	0.87
543.481	0.87
543.825	0.87
544.17	0.87
544.515	0.87
544.86	0.87
545.204	0.87
545.549	0.87
545.893	0.88
546.238	0.88
546.582	0.88
546.927	0.89
547.271	0.88
547.615	0.88
547.96	0.88
548.304	0.87
548.648	0.88
548.992	0.88
549.336	0.88
549.68	0.88
550.024	0.89
550.368	0.88
550.712	0.88
551.056	0.88
551.4	0.89
551.743	0.88
552.087	0.88
552.431	0.88
552.774	0.88
553.118	0.89
553.462	0.88
553.805	0.88
554.148	0.88
554.492	0.88
554.835	0.88
555.178	0.88
555.522	0.88
555.865	0.88
556.208	0.88
556.551	0.88
556.894	0.88
557.237	0.88
557.58	0.88
557.923	0.88
558.266	0.88
558.609	0.88
558.952	0.88
559.294	0.88
559.637	0.88
559.98	0.87
560.322	0.88
560.665	0.87
561.007	0.87
561.35	0.87
561.692	0.87
562.034	0.87
562.377	0.87
562.719	0.86
563.061	0.87
563.403	0.87
563.745	0.87
564.088	0.86
564.43	0.86
564.772	0.86
565.113	0.86
565.455	0.87
565.797	0.86
566.139	0.86
566.481	0.86
566.822	0.86
567.164	0.86
567.506	0.85
567.847	0.85
568.189	0.85
568.53	0.85
568.872	0.85
569.213	0.85
569.554	0.84
569.895	0.84
570.237	0.84
570.578	0.84
570.919	0.84
571.26	0.84
571.601	0.84
571.942	0.83
572.283	0.83
572.624	0.83
572.965	0.83
573.306	0.82
573.646	0.82
573.987	0.82
574.328	0.82
574.668	0.82
575.009	0.81
575.349	0.81
575.69	0.81
576.03	0.81
576.37	0.8
576.711	0.8
577.051	0.8
577.391	0.8
577.731	0.8
578.072	0.8
578.412	0.8
578.752	0.8
579.092	0.79
579.431	0.78
579.771	0.76
580.111	0.75
580.451	0.77
580.791	0.78
581.13	0.79
581.47	0.78
581.81	0.78
582.149	0.77
582.489	0.78
582.828	0.76
583.167	0.73
583.507	0.69
583.846	0.69
584.185	0.74
584.525	0.75
584.864	0.77
585.203	0.77
585.542	0.78
585.881	0.77
586.22	0.77
586.559	0.76
586.898	0.75
587.236	0.74
587.575	0.75
587.914	0.75
588.252	0.76
588.591	0.76
588.93	0.76
589.268	0.75
589.607	0.76
589.945	0.76
590.283	0.76
590.622	0.76
590.96	0.76
591.298	0.76
591.636	0.76
591.974	0.76
592.313	0.76
592.651	0.76
592.989	0.76
593.326	0.76
593.664	0.76
594.002	0.76
594.34	0.75
594.678	0.75
595.015	0.75
595.353	0.74
595.691	0.75
596.028	0.76
596.366	0.76
596.703	0.76
597.04	0.75
597.378	0.76
597.715	0.75
598.052	0.76
598.389	0.76
598.726	0.76
599.064	0.75
599.401	0.76
599.738	0.75
600.074	0.75
600.411	0.74
600.748	0.74
601.085	0.74
601.422	0.74
601.758	0.73
602.095	0.74
602.432	0.74
602.768	0.74
603.105	0.74
603.441	0.74
603.777	0.74
604.114	0.73
604.45	0.74
604.786	0.73
605.122	0.73
605.459	0.73
605.795	0.72
606.131	0.73
606.467	0.73
606.803	0.72
607.139	0.72
607.474	0.72
607.81	0.72
608.146	0.72
608.482	0.72
608.817	0.71
609.153	0.71
609.488	0.7
609.824	0.71
610.159	0.7
610.495	0.7
610.83	0.7
611.165	0.7
611.5	0.7
611.836	0.69
612.171	0.69
612.506	0.69
612.841	0.69
613.176	0.69
613.511	0.68
613.845	0.68
614.18	0.68
614.515	0.68
614.85	0.67
615.184	0.68
615.519	0.67
615.854	0.68
616.188	0.67
616.523	0.66
616.857	0.66
617.191	0.66
617.526	0.66
617.86	0.66
618.194	0.65
618.528	0.66
618.862	0.66
619.196	0.65
619.53	0.65
619.864	0.65
620.198	0.64
620.532	0.64
620.866	0.64
621.2	0.64
621.533	0.63
621.867	0.63
622.201	0.63
622.534	0.62
622.868	0.63
623.201	0.62
623.534	0.61
623.868	0.61
624.201	0.61
624.534	0.61
624.868	0.61
625.201	0.61
625.534	0.6
625.867	0.6
626.2	0.59
626.533	0.59
626.865	0.6
627.198	0.59
627.531	0.59
627.864	0.58
628.196	0.58
628.529	0.57
628.862	0.58
629.194	0.57
629.527	0.57
629.859	0.57
630.191	0.57
630.524	0.56
630.856	0.56
631.188	0.55
631.52	0.55
631.852	0.55
632.184	0.54
632.516	0.54
632.848	0.53
633.18	0.54
633.512	0.53
633.844	0.53
634.175	0.52
634.507	0.52
634.839	0.51
635.17	0.52
635.502	0.51
635.833	0.51
636.165	0.5
636.496	0.5
636.827	0.5
637.159	0.49
637.49	0.49
637.821	0.49
638.152	0.48
638.483	0.48
638.814	0.48
639.145	0.48
639.476	0.47
639.807	0.47
640.137	0.46
640.468	0.46
640.799	0.46
641.129	0.45
641.46	0.45
641.791	0.45
642.121	0.45
642.451	0.45
642.782	0.44
643.112	0.44
643.442	0.44
643.773	0.43
644.103	0.43
644.433	0.43
644.763	0.43
645.093	0.43
645.423	0.43
645.753	0.43
646.082	0.42
646.412	0.42
646.742	0.42
647.072	0.41
647.401	0.41
647.731	0.41
648.06	0.41
648.39	0.41
648.719	0.4
649.048	0.4
649.378	0.4
649.707	0.4
650.036	0.4
650.365	0.4
650.694	0.39
651.023	0.39
651.352	0.39
651.681	0.39
652.01	0.39
652.339	0.38
652.668	0.38
652.996	0.38
653.325	0.38
653.654	0.38
653.982	0.38
654.311	0.38
654.639	0.37
654.967	0.37
655.296	0.38
655.624	0.37
655.952	0.37
656.28	0.37
656.609	0.37
656.937	0.37
657.265	0.35
657.593	0.2
657.92	0.11
658.248	0.08
658.576	0.15
658.904	0.27
659.231	0.35
659.559	0.36
659.887	0.36
660.214	0.35
660.542	0.35
660.869	0.35
661.196	0.35
661.524	0.35
661.851	0.35
662.178	0.34
662.505	0.35
662.832	0.34
663.159	0.34
663.486	0.34
663.813	0.34
664.14	0.34
664.467	0.34
664.794	0.33
665.12	0.34
665.447	0.33
665.774	0.33
666.1	0.33
666.427	0.33
666.753	0.33
667.079	0.32
667.406	0.32
667.732	0.32
668.058	0.32
668.384	0.32
668.71	0.32
669.036	0.31
669.362	0.31
669.688	0.31
670.014	0.31
670.34	0.31
670.666	0.3
670.991	0.3
671.317	0.3
671.643	0.3
671.968	0.3
672.294	0.29
672.619	0.29
672.945	0.29
673.27	0.29
673.595	0.28
673.92	0.28
674.246	0.28
674.571	0.28
674.896	0.28
675.221	0.27
675.546	0.27
675.87	0.27
676.195	0.27
676.52	0.27
676.845	0.27
677.169	0.26
677.494	0.26
677.819	0.26
678.143	0.25
678.468	0.25
678.792	0.25
679.116	0.25
679.44	0.25
679.765	0.25
680.089	0.24
680.413	0.24
680.737	0.23
681.061	0.23
681.385	0.23
681.709	0.23
682.033	0.23
682.356	0.22
682.68	0.22
683.004	0.22
683.327	0.22
683.651	0.21
683.974	0.21
684.298	0.21
684.621	0.21
684.944	0.2
685.268	0.2
685.591	0.2
685.914	0.19
686.237	0.19
686.56	0.19
686.883	0.19
687.206	0.19
687.529	0.18
687.852	0.18
688.175	0.18
688.497	0.18
688.82	0.18
689.142	0.17
689.465	0.17
689.787	0.17
690.11	0.17
690.432	0.17
690.755	0.17
691.077	0.17
691.399	0.16
691.721	0.16
692.043	0.16
692.365	0.16
692.687	0.15
693.009	0.15
693.331	0.15
693.653	0.14
693.974	0.15
694.296	0.15
694.618	0.14
694.939	0.14
695.261	0.14
695.582	0.14
695.904	0.14
696.225	0.14
696.546	0.14
696.868	0.14
697.189	0.13
697.51	0.13
697.831	0.13
698.152	0.13
698.473	0.13
698.794	0.12
699.114	0.12
699.435	0.11
699.756	0.11
700.077	0.12
700.397	0.11
700.718	0.11
701.038	0.11
701.359	0.12
701.679	0.12
701.999	0.12
702.32	0.11
702.64	0.11
702.96	0.11
703.28	0.12
703.6	0.11
703.92	0.11
704.24	0.11
704.56	0.1
704.879	0.1
705.199	0.11
705.519	0.11
705.838	0.1
706.158	0.11
706.478	0.11
706.797	0.11
707.116	0.11
707.436	0.1
707.755	0.1
708.074	0.1
708.393	0.1
708.712	0.09
709.031	0.08
709.35	0.08
709.669	0.08
709.988	0.09
710.307	0.09
710.626	0.09
710.944	0.1
711.263	0.1
711.582	0.1
711.9	0.1
712.219	0.1
712.537	0.1
712.855	0.09
713.174	0.1
713.492	0.1
713.81	0.1
714.128	0.1
714.446	0.1
714.764	0.09
715.082	0.09
715.4	0.09
715.718	0.09
716.035	0.09
716.353	0.1
716.671	0.1
716.988	0.1
717.306	0.09
717.623	0.1
717.941	0.1
718.258	0.1
718.575	0.11
718.893	0.1
719.21	0.1
719.527	0.1
719.844	0.1
720.161	0.1
720.478	0.1
720.795	0.1
721.112	0.1
721.428	0.1
721.745	0.11
722.062	0.11
722.378	0.11
722.695	0.11
723.011	0.11
723.328	0.11
723.644	0.11
723.96	0.11
724.276	0.11
724.593	0.11
724.909	0.11
725.225	0.11
725.541	0.11
725.857	0.11
726.173	0.11
726.488	0.11
726.804	0.1
727.12	0.1
727.435	0.1
727.751	0.1
728.067	0.1
728.382	0.1
728.697	0.1
729.013	0.11
729.328	0.1
729.643	0.1
729.958	0.1
730.273	0.1
730.588	0.1
730.903	0.1
731.218	0.1
731.533	0.1
731.848	0.1
732.163	0.1
732.477	0.1
732.792	0.1
733.107	0.09
733.421	0.1
733.736	0.1
734.05	0.09
734.364	0.09
734.678	0.1
734.993	0.09
735.307	0.1
735.621	0.09
735.935	0.09
736.249	0.09
736.563	0.09
736.877	0.09
737.19	0.1
737.504	0.09
737.818	0.09
738.131	0.09
738.445	0.1
738.758	0.1
739.072	0.1
739.385	0.1
739.698	0.1
740.012	0.1
740.325	0.1
740.638	0.09
740.951	0.09
741.264	0.09
741.577	0.09
741.89	0.09
742.203	0.09
742.515	0.09
742.828	0.09
743.141	0.09
743.453	0.09
743.766	0.09
744.078	0.09
744.391	0.09
744.703	0.08
745.015	0.08
745.327	0.08
745.639	0.08
745.952	0.08
746.264	0.08
746.575	0.09
746.887	0.08
747.199	0.08
747.511	0.08
747.823	0.08
748.134	0.08
748.446	0.08
748.757	0.07
749.069	0.07
749.38	0.07
749.692	0.07
750.003	0.07
750.314	0.06
750.625	0.06
750.936	0.06
751.248	0.06
751.559	0.07
751.869	0.07
752.18	0.07
752.491	0.07
752.802	0.06
753.112	0.06
753.423	0.06
753.734	0.06
754.044	0.06
754.355	0.06
754.665	0.05
754.975	0.05
755.285	0.05
755.596	0.05
755.906	0.05
756.216	0.05
756.526	0.05
756.836	0.05
757.146	0.05
757.455	0.05
757.765	0.05
758.075	0.05
758.385	0.05
758.694	0.05
759.004	0.05
759.313	0.05
759.622	0.05
759.932	0.05
760.241	0.05
760.55	0.05
760.859	0.05
761.168	0.05
761.477	0.05
761.786	0.05
762.095	0.05
762.404	0.05
762.713	0.05
763.021	0.05
763.33	0.05
763.639	0.05
763.947	0.05
764.256	0.05
764.564	0.05
764.872	0.05
765.181	0.05
765.489	0.05
765.797	0.05
766.105	0.04
766.413	0.04
766.721	0.05
767.029	0.05
767.337	0.05
767.644	0.05
767.952	0.05
768.26	0.05
768.567	0.05
768.875	0.05
769.182	0.05
769.49	0.05
769.797	0.05
770.104	0.05
770.411	0.05
770.718	0.05
771.026	0.04
771.333	0.04
771.639	0.04
771.946	0.04
772.253	0.05
772.56	0.05
772.867	0.05
773.173	0.05
773.48	0.05
773.786	0.05
774.093	0.05
774.399	0.05
774.705	0.05
775.012	0.05
775.318	0.05
775.624	0.05
775.93	0.05
776.236	0.05
776.542	0.05
776.848	0.06
777.154	0.05
777.459	0.06
777.765	0.05
778.071	0.06
778.376	0.05
778.682	0.05
778.987	0.05
779.292	0.05
779.598	0.05
779.903	0.05
780.208	0.04
780.513	0.05
780.818	0.05
781.123	0.05
781.428	0.05
781.733	0.05
782.038	0.05
782.343	0.04
782.647	0.05
782.952	0.04
783.256	0.04
783.561	0.04
783.865	0.04
784.17	0.04
784.474	0.04
784.778	0.04
785.082	0.04
785.386	0.04
785.69	0.04
785.994	0.05
786.298	0.04
786.602	0.05
786.906	0.05
787.209	0.05
787.513	0.05
787.817	0.06
788.12	0.06
788.424	0.06
788.727	0.06
789.03	0.06
789.333	0.06
789.637	0.06
789.94	0.05
790.243	0.06
790.546	0.06
790.849	0.06
791.152	0.06
791.454	0.06
791.757	0.06
792.06	0.06
792.362	0.06
792.665	0.06
792.967	0.06
793.27	0.06
793.572	0.06
793.874	0.06
794.177	0.06
794.479	0.06
794.781	0.06
795.083	0.07
795.385	0.07
795.687	0.07
795.989	0.07
796.29	0.07
796.592	0.07
796.894	0.07
797.195	0.07
797.497	0.06
797.798	0.07
798.1	0.07
798.401	0.06
798.702	0.07
799.003	0.06
799.304	0.06
799.605	0.06
799.906	0.06
800.207	0.06
800.508	0.06
800.809	0.06
801.11	0.07
801.41	0.06
801.711	0.07
802.011	0.07
802.312	0.07
802.612	0.07
802.913	0.07
803.213	0.07
803.513	0.07
803.813	0.07
804.113	0.07
804.413	0.07
804.713	0.07
805.013	0.08
805.313	0.08
805.613	0.07
805.912	0.08
806.212	0.08
806.511	0.08
806.811	0.07
807.11	0.07
807.41	0.08
807.709	0.07
808.008	0.08
808.307	0.08
808.606	0.08
808.905	0.08
809.204	0.07
809.503	0.07
809.802	0.08
810.101	0.08
810.399	0.08
810.698	0.08
810.997	0.08
811.295	0.08
811.593	0.08
811.892	0.08
812.19	0.08
812.488	0.08
812.786	0.08
813.084	0.08
813.383	0.08
813.68	0.08
813.978	0.08
814.276	0.09
814.574	0.08
814.872	0.09
815.169	0.08
815.467	0.08
815.764	0.08
816.062	0.08
816.359	0.08
816.656	0.08
816.954	0.08
817.251	0.09
817.548	0.09
817.845	0.09
818.142	0.09
818.439	0.09
818.735	0.09
819.032	0.1
819.329	0.09
819.626	0.1
819.922	0.1
820.219	0.1
820.515	0.1
820.811	0.1
821.108	0.1
821.404	0.1
821.7	0.1
821.996	0.09
822.292	0.09
822.588	0.1
822.884	0.1
823.18	0.11
823.475	0.11
823.771	0.11
824.067	0.1
824.362	0.11
824.658	0.1
824.953	0.11
825.249	0.11
825.544	0.1
825.839	0.11
826.134	0.1
826.429	0.1
826.724	0.1
827.019	0.11
827.314	0.11
827.609	0.11
827.904	0.11
828.198	0.1
828.493	0.11
828.787	0.11
829.082	0.11
829.376	0.12
829.671	0.12
829.965	0.12
830.259	0.12
830.553	0.12
830.847	0.12
831.141	0.12
831.435	0.12
831.729	0.12
832.023	0.12
832.317	0.13
832.61	0.12
832.904	0.12
833.197	0.12
833.491	0.12
833.784	0.12
834.077	0.13
834.371	0.12
834.664	0.13
834.957	0.13
835.25	0.12
835.543	0.12
835.836	0.13
836.129	0.13
836.421	0.12
836.714	0.13
837.007	0.12
837.299	0.12
837.592	0.12
837.884	0.13
838.177	0.12
838.469	0.13
838.761	0.13
839.053	0.13
839.345	0.13
839.637	0.13
839.929	0.13
840.221	0.13
840.513	0.13
840.805	0.14
841.096	0.14
841.388	0.14
841.68	0.14
841.971	0.14
842.262	0.14
842.554	0.13
842.845	0.13
843.136	0.13
843.427	0.14
843.718	0.13
844.009	0.14
844.3	0.14
844.591	0.13
844.882	0.14
845.173	0.15
845.463	0.14
845.754	0.15
846.044	0.14
846.335	0.14
846.625	0.14
846.915	0.14
847.206	0.14
847.496	0.14
847.786	0.14
848.076	0.13
848.366	0.14
848.656	0.13
848.945	0.14
849.235	0.13
849.525	0.12
849.814	0.12
850.104	0.13
850.393	0.14
850.683	0.16
850.972	0.15
851.261	0.15
851.551	0.15
851.84	0.15
852.129	0.16
852.418	0.15
852.707	0.16
852.995	0.14
853.284	0.15
853.573	0.14
853.862	0.14
854.15	0.14
854.439	0.15
854.727	0.14
855.015	0.15
855.304	0.16
855.592	0.16
855.88	0.15
856.168	0.15
856.456	0.15
856.744	0.15
857.032	0.15
857.32	0.15
857.607	0.15
857.895	0.15
858.183	0.16
858.47	0.16
858.757	0.15
859.045	0.16
859.332	0.16
859.619	0.17
859.907	0.16
860.194	0.14
860.481	0.16
860.768	0.15
861.054	0.14
861.341	0.15
861.628	0.17
861.915	0.15
862.201	0.17
862.488	0.17
862.774	0.16
863.061	0.17
863.347	0.17
863.633	0.18
863.919	0.13
864.205	0.15
864.491	0.16
864.777	0.18
865.063	0.17
865.349	0.17
865.635	0.18
865.92	0.17
866.206	0.16
866.492	0.17
866.777	0.18
867.062	0.18
867.348	0.14
867.633	0.16
867.918	0.19
868.203	0.16
868.488	0.16
868.773	0.2
869.058	0.19
869.343	0.17
869.628	0.13
869.912	0.16
870.197	0.14
870.482	0.13
870.766	0.19
871.05	0.15
871.335	0.19
871.619	0.13
871.903	0.13
872.187	0.12
872.471	0.21
872.755	0.17
873.039	0.13
873.323	0.16
873.607	0.13
873.89	0.15
874.174	0.13
874.458	0.19
874.741	0.15
875.024	0.22
875.308	0.15
875.591	0.22
875.874	0.22
876.157	0.21
876.44	0.08
876.723	0.17
877.006	0.2
877.289	0.11
877.572	0.13
877.854	0.14
878.137	0.13
878.42	0.13
878.702	0.1
878.984	0.26
879.267	0.22
879.549	0.14
879.831	0.27
880.113	0.09
880.395	0.09
880.677	0.02
880.959	0.18
