Data from Rubpy_BV_1800_EDTA_Buffered_Absorbance_15-10-37-947.txt Node
Date: Wed Jul 01 15:10:37 BST 2026
User: fpm-admin
Spectrometer: OFX00224
Trigger mode: 0
Integration Time (sec): 7.000000E-2
Scans to average: 3
Nonlinearity correction enabled: false
Boxcar width: 0
Storing dark spectrum: false
XAxis mode: Wavelengths
Number of Pixels in Spectrum: 2136
>>>>>Begin Spectral Data<<<<<
154.91	-0.46
155.289	-0
155.669	-1.08
156.048	-0
156.428	-0
156.807	-0
157.186	0.82
157.566	-0.15
157.945	-0.23
158.325	0.33
158.704	0.81
159.083	-0
159.462	-0
159.842	-0.5
160.221	-0
160.6	-0.28
160.979	-0.46
161.359	1.19
161.738	0.33
162.117	-0.33
162.496	-0
162.875	-0
163.254	0.54
163.633	-0
164.012	0.46
164.391	-1.06
164.77	-0.9
165.149	0.48
165.528	-0.7
165.907	-0.98
166.286	-0.21
166.665	0.1
167.044	0.99
167.423	-0.09
167.802	-0
168.181	-0
168.559	-0.92
168.938	-0.71
169.317	0.38
169.696	-0
170.074	0.1
170.453	0.67
170.832	0.06
171.21	-0
171.589	-0.54
171.968	-0
172.346	-0
172.725	0.56
173.103	0.31
173.482	0.65
173.861	-0
174.239	0.39
174.617	-0
174.996	0.48
175.374	-0
175.753	-0.15
176.131	-0
176.51	-0.16
176.888	1.04
177.266	-0
177.645	-0.03
178.023	-0
178.401	-0.14
178.779	0.06
179.158	-0
179.536	0.18
179.914	-0.33
180.292	0.97
180.67	-0
181.048	0.48
181.427	-0
181.805	-0
182.183	-0
182.561	-0
182.939	0.37
183.317	-0
183.695	-0
184.073	0.32
184.451	0.57
184.829	0.04
185.206	-0.16
185.584	-0
185.962	-0
186.34	0.64
186.718	0.3
187.096	-0
187.473	-0
187.851	-0
188.229	-0
188.607	0.21
188.984	0.28
189.362	0.3
189.74	0.29
190.117	0.13
190.495	0.25
190.872	0.39
191.25	0.19
191.627	0.17
192.005	0.25
192.382	0.25
192.76	0.22
193.137	0.28
193.515	0.2
193.892	0.41
194.269	0.39
194.647	0.28
195.024	0.24
195.401	0.28
195.779	0.3
196.156	0.25
196.533	0.31
196.91	0.18
197.288	0.22
197.665	0.2
198.042	0.38
198.419	0.27
198.796	0.13
199.173	0.3
199.55	0.36
199.927	0.24
200.304	0.28
200.681	0.6
201.058	0.25
201.435	0.27
201.812	0.2
202.189	0.36
202.566	0.33
202.943	0.22
203.32	0.26
203.697	0.46
204.073	0.4
204.45	0.36
204.827	0.41
205.204	0.31
205.58	0.34
205.957	0.34
206.334	0.41
206.71	0.35
207.087	0.31
207.464	0.41
207.84	0.33
208.217	0.4
208.593	0.34
208.97	0.35
209.346	0.34
209.723	0.38
210.099	0.38
210.476	0.22
210.852	0.31
211.228	0.26
211.605	0.39
211.981	0.37
212.357	0.26
212.733	0.47
213.11	0.26
213.486	0.38
213.862	0.4
214.238	0.53
214.614	0.31
214.991	0.23
215.367	0.25
215.743	0.44
216.119	0.49
216.495	0.39
216.871	0.33
217.247	0.26
217.623	0.3
217.999	0.43
218.375	0.46
218.751	0.3
219.127	0.32
219.502	0.38
219.878	0.31
220.254	0.39
220.63	0.43
221.006	0.41
221.381	0.28
221.757	0.22
222.133	0.33
222.508	0.48
222.884	0.25
223.26	0.27
223.635	0.53
224.011	0.36
224.386	0.5
224.762	0.32
225.137	0.56
225.513	0.47
225.888	0.32
226.264	0.18
226.639	0.29
227.014	0.2
227.39	0.39
227.765	0.29
228.14	0.44
228.516	0.43
228.891	0.31
229.266	0.29
229.641	0.33
230.017	0.35
230.392	0.33
230.767	0.49
231.142	0.27
231.517	0.28
231.892	0.32
232.267	0.33
232.642	0.36
233.017	0.33
233.392	0.35
233.767	0.32
234.142	0.43
234.517	0.46
234.892	0.28
235.267	0.23
235.641	0.18
236.016	0.31
236.391	0.54
236.766	0.32
237.14	0.28
237.515	0.5
237.89	0.25
238.264	0.19
238.639	0.19
239.014	0.39
239.388	0.32
239.763	0.49
240.137	0.3
240.512	0.22
240.886	0.34
241.261	0.23
241.635	0.36
242.009	0.49
242.384	0.33
242.758	0.35
243.132	0.27
243.507	0.43
243.881	0.29
244.255	0.34
244.629	0.4
245.004	0.39
245.378	0.33
245.752	0.21
246.126	0.2
246.5	0.44
246.874	0.33
247.248	0.31
247.622	0.52
247.996	0.3
248.37	0.28
248.744	0.37
249.118	0.38
249.492	0.36
249.866	0.41
250.24	0.34
250.613	0.49
250.987	0.39
251.361	0.5
251.735	0.33
252.108	0.32
252.482	0.29
252.856	0.31
253.229	0.34
253.603	0.35
253.977	0.38
254.35	0.24
254.724	0.44
255.097	0.36
255.471	0.33
255.844	0.39
256.218	0.33
256.591	0.27
256.964	0.29
257.338	0.29
257.711	0.27
258.084	0.35
258.458	0.36
258.831	0.5
259.204	0.45
259.577	0.27
259.95	0.29
260.323	0.36
260.697	0.27
261.07	0.43
261.443	0.33
261.816	0.32
262.189	0.45
262.562	0.33
262.935	0.4
263.308	0.33
263.68	0.35
264.053	0.41
264.426	0.3
264.799	0.46
265.172	0.29
265.545	0.43
265.917	0.38
266.29	0.31
266.663	0.53
267.035	0.19
267.408	0.27
267.781	0.48
268.153	0.41
268.526	0.27
268.898	0.44
269.271	0.34
269.643	0.41
270.016	0.31
270.388	0.36
270.76	0.48
271.133	0.37
271.505	0.3
271.877	0.5
272.25	0.4
272.622	0.51
272.994	0.56
273.366	0.34
273.739	0.33
274.111	0.2
274.483	0.39
274.855	0.46
275.227	0.38
275.599	0.27
275.971	0.38
276.343	0.32
276.715	0.33
277.087	0.26
277.459	0.41
277.831	0.35
278.203	0.42
278.574	0.31
278.946	0.28
279.318	0.33
279.69	0.3
280.061	0.29
280.433	0.27
280.805	0.38
281.176	0.26
281.548	0.41
281.92	0.27
282.291	0.37
282.663	0.36
283.034	0.32
283.406	0.36
283.777	0.33
284.148	0.32
284.52	0.35
284.891	0.38
285.262	0.34
285.634	0.34
286.005	0.32
286.376	0.34
286.747	0.33
287.119	0.35
287.49	0.27
287.861	0.35
288.232	0.39
288.603	0.43
288.974	0.38
289.345	0.31
289.716	0.32
290.087	0.31
290.458	0.34
290.829	0.3
291.2	0.33
291.571	0.4
291.941	0.47
292.312	0.32
292.683	0.35
293.054	0.38
293.424	0.4
293.795	0.3
294.166	0.43
294.536	0.36
294.907	0.41
295.277	0.41
295.648	0.41
296.018	0.36
296.389	0.36
296.759	0.3
297.13	0.44
297.5	0.37
297.871	0.32
298.241	0.37
298.611	0.41
298.981	0.31
299.352	0.52
299.722	0.36
300.092	0.27
300.462	0.35
300.832	0.37
301.202	0.38
301.573	0.39
301.943	0.28
302.313	0.42
302.683	0.39
303.053	0.25
303.422	0.37
303.792	0.28
304.162	0.27
304.532	0.22
304.902	0.34
305.272	0.31
305.641	0.34
306.011	0.31
306.381	0.3
306.75	0.33
307.12	0.24
307.49	0.33
307.859	0.34
308.229	0.31
308.598	0.28
308.968	0.29
309.337	0.29
309.707	0.29
310.076	0.3
310.445	0.29
310.815	0.3
311.184	0.26
311.553	0.27
311.923	0.26
312.292	0.32
312.661	0.27
313.03	0.28
313.399	0.25
313.768	0.28
314.137	0.26
314.506	0.27
314.875	0.27
315.244	0.28
315.613	0.26
315.982	0.28
316.351	0.29
316.72	0.29
317.089	0.31
317.458	0.29
317.826	0.32
318.195	0.33
318.564	0.3
318.933	0.3
319.301	0.32
319.67	0.33
320.038	0.32
320.407	0.35
320.775	0.33
321.144	0.35
321.512	0.34
321.881	0.34
322.249	0.34
322.618	0.36
322.986	0.36
323.354	0.37
323.723	0.37
324.091	0.38
324.459	0.38
324.827	0.4
325.195	0.39
325.564	0.41
325.932	0.4
326.3	0.41
326.668	0.42
327.036	0.41
327.404	0.43
327.772	0.43
328.14	0.44
328.508	0.44
328.875	0.45
329.243	0.47
329.611	0.46
329.979	0.47
330.346	0.47
330.714	0.48
331.082	0.48
331.449	0.5
331.817	0.51
332.185	0.52
332.552	0.53
332.92	0.54
333.287	0.55
333.655	0.56
334.022	0.56
334.389	0.57
334.757	0.59
335.124	0.59
335.491	0.62
335.859	0.63
336.226	0.63
336.593	0.65
336.96	0.65
337.327	0.66
337.695	0.68
338.062	0.7
338.429	0.7
338.796	0.71
339.163	0.73
339.53	0.74
339.897	0.75
340.263	0.77
340.63	0.77
340.997	0.8
341.364	0.82
341.731	0.82
342.097	0.84
342.464	0.85
342.831	0.86
343.197	0.89
343.564	0.9
343.931	0.91
344.297	0.91
344.664	0.93
345.03	0.94
345.396	0.95
345.763	0.97
346.129	0.99
346.496	1
346.862	1.02
347.228	1.02
347.594	1.04
347.961	1.07
348.327	1.07
348.693	1.09
349.059	1.11
349.425	1.11
349.791	1.12
350.157	1.13
350.523	1.14
350.889	1.16
351.255	1.17
351.621	1.17
351.987	1.19
352.353	1.21
352.719	1.24
353.084	1.21
353.45	1.26
353.816	1.27
354.181	1.28
354.547	1.3
354.913	1.29
355.278	1.31
355.644	1.34
356.009	1.33
356.375	1.37
356.74	1.37
357.106	1.4
357.471	1.41
357.836	1.44
358.202	1.45
358.567	1.48
358.932	1.46
359.297	1.48
359.663	1.52
360.028	1.54
360.393	1.53
360.758	1.59
361.123	1.58
361.488	1.61
361.853	1.63
362.218	1.68
362.583	1.65
362.948	1.64
363.312	1.7
363.677	1.71
364.042	1.71
364.407	1.69
364.772	1.75
365.136	1.71
365.501	1.74
365.865	1.78
366.23	1.8
366.595	1.8
366.959	1.81
367.324	1.81
367.688	1.8
368.052	1.84
368.417	1.87
368.781	1.83
369.145	1.88
369.51	1.85
369.874	1.86
370.238	1.88
370.602	1.86
370.967	1.93
371.331	1.86
371.695	1.89
372.059	1.83
372.423	1.89
372.787	1.89
373.151	1.88
373.515	1.87
373.878	1.87
374.242	1.87
374.606	1.91
374.97	1.85
375.334	1.88
375.697	1.83
376.061	1.81
376.425	1.83
376.788	1.82
377.152	1.81
377.515	1.79
377.879	1.78
378.242	1.78
378.606	1.76
378.969	1.74
379.333	1.72
379.696	1.66
380.059	1.68
380.422	1.68
380.786	1.62
381.149	1.66
381.512	1.61
381.875	1.6
382.238	1.57
382.601	1.55
382.964	1.55
383.327	1.52
383.69	1.51
384.053	1.48
384.416	1.49
384.779	1.47
385.142	1.47
385.504	1.43
385.867	1.41
386.23	1.43
386.593	1.42
386.955	1.43
387.318	1.38
387.68	1.38
388.043	1.38
388.405	1.38
388.768	1.38
389.13	1.37
389.493	1.34
389.855	1.33
390.217	1.32
390.58	1.32
390.942	1.31
391.304	1.3
391.666	1.28
392.028	1.26
392.391	1.25
392.753	1.22
393.115	1.21
393.477	1.19
393.839	1.19
394.201	1.17
394.563	1.17
394.924	1.16
395.286	1.16
395.648	1.16
396.01	1.17
396.371	1.16
396.733	1.16
397.095	1.2
397.456	1.23
397.818	1.23
398.18	1.27
398.541	1.28
398.903	1.32
399.264	1.34
399.625	1.37
399.987	1.38
400.348	1.41
400.709	1.43
401.071	1.44
401.432	1.42
401.793	1.43
402.154	1.43
402.515	1.4
402.876	1.37
403.238	1.34
403.599	1.32
403.96	1.27
404.32	1.25
404.681	1.2
405.042	1.16
405.403	1.11
405.764	1.06
406.125	1.01
406.485	0.96
406.846	0.93
407.207	0.88
407.567	0.82
407.928	0.79
408.288	0.74
408.649	0.71
409.009	0.66
409.37	0.62
409.73	0.59
410.091	0.57
410.451	0.53
410.811	0.51
411.171	0.49
411.532	0.46
411.892	0.45
412.252	0.42
412.612	0.4
412.972	0.39
413.332	0.37
413.692	0.36
414.052	0.34
414.412	0.33
414.772	0.32
415.132	0.31
415.492	0.3
415.851	0.29
416.211	0.27
416.571	0.27
416.931	0.27
417.29	0.26
417.65	0.25
418.009	0.24
418.369	0.24
418.728	0.23
419.088	0.23
419.447	0.23
419.807	0.21
420.166	0.21
420.525	0.2
420.884	0.2
421.244	0.2
421.603	0.2
421.962	0.19
422.321	0.19
422.68	0.19
423.039	0.19
423.398	0.17
423.757	0.18
424.116	0.18
424.475	0.18
424.834	0.17
425.193	0.17
425.551	0.18
425.91	0.17
426.269	0.17
426.628	0.16
426.986	0.16
427.345	0.16
427.703	0.16
428.062	0.17
428.42	0.15
428.779	0.16
429.137	0.16
429.496	0.16
429.854	0.16
430.212	0.15
430.57	0.16
430.929	0.15
431.287	0.14
431.645	0.15
432.003	0.15
432.361	0.15
432.719	0.14
433.077	0.15
433.435	0.16
433.793	0.15
434.151	0.15
434.509	0.15
434.866	0.14
435.224	0.15
435.582	0.14
435.94	0.15
436.297	0.14
436.655	0.15
437.012	0.15
437.37	0.14
437.727	0.14
438.085	0.14
438.442	0.15
438.8	0.15
439.157	0.15
439.514	0.15
439.872	0.15
440.229	0.14
440.586	0.15
440.943	0.15
441.3	0.15
441.657	0.14
442.014	0.15
442.371	0.15
442.728	0.15
443.085	0.15
443.442	0.15
443.799	0.14
444.156	0.15
444.513	0.14
444.869	0.15
445.226	0.15
445.583	0.16
445.939	0.16
446.296	0.15
446.652	0.15
447.009	0.15
447.365	0.15
447.722	0.16
448.078	0.15
448.434	0.16
448.791	0.16
449.147	0.16
449.503	0.15
449.859	0.15
450.215	0.15
450.571	0.15
450.928	0.15
451.284	0.16
451.64	0.16
451.995	0.16
452.351	0.16
452.707	0.15
453.063	0.16
453.419	0.15
453.775	0.15
454.13	0.15
454.486	0.16
454.842	0.14
455.197	0.15
455.553	0.14
455.908	0.15
456.264	0.14
456.619	0.14
456.975	0.14
457.33	0.15
457.685	0.14
458.04	0.14
458.396	0.14
458.751	0.13
459.106	0.13
459.461	0.12
459.816	0.12
460.171	0.12
460.526	0.13
460.881	0.11
461.236	0.11
461.591	0.11
461.946	0.11
462.301	0.11
462.655	0.1
463.01	0.11
463.365	0.11
463.719	0.09
464.074	0.09
464.428	0.09
464.783	0.08
465.137	0.09
465.492	0.09
465.846	0.08
466.201	0.08
466.555	0.09
466.909	0.09
467.263	0.1
467.618	0.1
467.972	0.11
468.326	0.11
468.68	0.09
469.034	0.09
469.388	0.09
469.742	0.09
470.096	0.1
470.45	0.11
470.804	0.1
471.157	0.11
471.511	0.11
471.865	0.1
472.218	0.11
472.572	0.13
472.926	0.12
473.279	0.13
473.633	0.15
473.986	0.16
474.34	0.16
474.693	0.17
475.046	0.18
475.4	0.19
475.753	0.2
476.106	0.21
476.459	0.21
476.812	0.23
477.165	0.24
477.519	0.24
477.872	0.25
478.224	0.26
478.577	0.26
478.93	0.27
479.283	0.27
479.636	0.28
479.989	0.29
480.341	0.3
480.694	0.31
481.047	0.32
481.399	0.32
481.752	0.33
482.104	0.33
482.457	0.34
482.809	0.35
483.162	0.36
483.514	0.36
483.866	0.37
484.219	0.37
484.571	0.37
484.923	0.38
485.275	0.38
485.627	0.39
485.979	0.39
486.331	0.4
486.683	0.4
487.035	0.41
487.387	0.42
487.739	0.44
488.091	0.43
488.443	0.44
488.794	0.44
489.146	0.45
489.498	0.44
489.849	0.45
490.201	0.45
490.552	0.46
490.904	0.47
491.255	0.47
491.607	0.47
491.958	0.48
492.309	0.48
492.661	0.48
493.012	0.49
493.363	0.5
493.714	0.5
494.065	0.51
494.416	0.51
494.767	0.52
495.118	0.52
495.469	0.53
495.82	0.53
496.171	0.54
496.522	0.53
496.872	0.54
497.223	0.54
497.574	0.54
497.924	0.55
498.275	0.57
498.626	0.57
498.976	0.57
499.327	0.57
499.677	0.58
500.027	0.58
500.378	0.58
500.728	0.59
501.078	0.6
501.428	0.6
501.779	0.6
502.129	0.61
502.479	0.61
502.829	0.62
503.179	0.62
503.529	0.63
503.879	0.64
504.229	0.63
504.578	0.64
504.928	0.65
505.278	0.65
505.628	0.65
505.977	0.66
506.327	0.66
506.676	0.67
507.026	0.67
507.375	0.67
507.725	0.67
508.074	0.68
508.424	0.68
508.773	0.69
509.122	0.69
509.471	0.7
509.82	0.7
510.17	0.7
510.519	0.71
510.868	0.71
511.217	0.71
511.566	0.72
511.915	0.73
512.263	0.73
512.612	0.73
512.961	0.74
513.31	0.74
513.659	0.74
514.007	0.75
514.356	0.76
514.704	0.75
515.053	0.75
515.401	0.75
515.75	0.76
516.098	0.76
516.447	0.76
516.795	0.77
517.143	0.77
517.491	0.78
517.839	0.78
518.188	0.79
518.536	0.8
518.884	0.79
519.232	0.8
519.58	0.8
519.928	0.79
520.275	0.81
520.623	0.81
520.971	0.81
521.319	0.82
521.666	0.82
522.014	0.82
522.362	0.82
522.709	0.83
523.057	0.82
523.404	0.82
523.752	0.83
524.099	0.84
524.446	0.84
524.794	0.84
525.141	0.84
525.488	0.85
525.835	0.86
526.182	0.86
526.529	0.85
526.876	0.86
527.223	0.86
527.57	0.86
527.917	0.86
528.264	0.86
528.611	0.86
528.958	0.86
529.304	0.87
529.651	0.88
529.998	0.87
530.344	0.88
530.691	0.89
531.037	0.87
531.384	0.89
531.73	0.89
532.076	0.9
532.423	0.88
532.769	0.9
533.115	0.89
533.461	0.9
533.807	0.89
534.154	0.9
534.5	0.9
534.846	0.9
535.192	0.91
535.537	0.9
535.883	0.9
536.229	0.91
536.575	0.92
536.921	0.92
537.266	0.91
537.612	0.92
537.957	0.91
538.303	0.92
538.649	0.92
538.994	0.92
539.339	0.93
539.685	0.93
540.03	0.93
540.375	0.93
540.721	0.93
541.066	0.93
541.411	0.93
541.756	0.93
542.101	0.94
542.446	0.94
542.791	0.93
543.136	0.94
543.481	0.94
543.825	0.94
544.17	0.94
544.515	0.94
544.86	0.94
545.204	0.94
545.549	0.94
545.893	0.94
546.238	0.94
546.582	0.95
546.927	0.95
547.271	0.95
547.615	0.95
547.96	0.96
548.304	0.95
548.648	0.95
548.992	0.94
549.336	0.94
549.68	0.95
550.024	0.96
550.368	0.96
550.712	0.95
551.056	0.95
551.4	0.96
551.743	0.95
552.087	0.95
552.431	0.95
552.774	0.96
553.118	0.95
553.462	0.95
553.805	0.95
554.148	0.95
554.492	0.96
554.835	0.94
555.178	0.95
555.522	0.95
555.865	0.95
556.208	0.95
556.551	0.95
556.894	0.95
557.237	0.95
557.58	0.95
557.923	0.94
558.266	0.95
558.609	0.94
558.952	0.94
559.294	0.95
559.637	0.94
559.98	0.95
560.322	0.94
560.665	0.94
561.007	0.94
561.35	0.94
561.692	0.94
562.034	0.93
562.377	0.93
562.719	0.93
563.061	0.93
563.403	0.93
563.745	0.93
564.088	0.93
564.43	0.92
564.772	0.92
565.113	0.93
565.455	0.92
565.797	0.92
566.139	0.93
566.481	0.92
566.822	0.92
567.164	0.92
567.506	0.92
567.847	0.92
568.189	0.92
568.53	0.91
568.872	0.91
569.213	0.91
569.554	0.91
569.895	0.9
570.237	0.9
570.578	0.9
570.919	0.9
571.26	0.9
571.601	0.9
571.942	0.9
572.283	0.89
572.624	0.89
572.965	0.89
573.306	0.88
573.646	0.88
573.987	0.88
574.328	0.88
574.668	0.88
575.009	0.87
575.349	0.87
575.69	0.87
576.03	0.87
576.37	0.86
576.711	0.86
577.051	0.86
577.391	0.86
577.731	0.86
578.072	0.86
578.412	0.86
578.752	0.86
579.092	0.85
579.431	0.84
579.771	0.82
580.111	0.81
580.451	0.83
580.791	0.84
581.13	0.84
581.47	0.84
581.81	0.84
582.149	0.83
582.489	0.83
582.828	0.82
583.167	0.79
583.507	0.75
583.846	0.75
584.185	0.79
584.525	0.81
584.864	0.82
585.203	0.83
585.542	0.83
585.881	0.83
586.22	0.82
586.559	0.81
586.898	0.8
587.236	0.8
587.575	0.8
587.914	0.81
588.252	0.82
588.591	0.81
588.93	0.82
589.268	0.81
589.607	0.81
589.945	0.81
590.283	0.81
590.622	0.81
590.96	0.81
591.298	0.81
591.636	0.81
591.974	0.81
592.313	0.82
592.651	0.82
592.989	0.81
593.326	0.81
593.664	0.81
594.002	0.81
594.34	0.81
594.678	0.8
595.015	0.8
595.353	0.8
595.691	0.8
596.028	0.81
596.366	0.81
596.703	0.81
597.04	0.8
597.378	0.81
597.715	0.8
598.052	0.8
598.389	0.81
598.726	0.8
599.064	0.81
599.401	0.8
599.738	0.8
600.074	0.8
600.411	0.8
600.748	0.79
601.085	0.79
601.422	0.79
601.758	0.78
602.095	0.79
602.432	0.79
602.768	0.78
603.105	0.79
603.441	0.79
603.777	0.79
604.114	0.79
604.45	0.79
604.786	0.79
605.122	0.78
605.459	0.78
605.795	0.77
606.131	0.78
606.467	0.77
606.803	0.78
607.139	0.77
607.474	0.77
607.81	0.77
608.146	0.77
608.482	0.76
608.817	0.76
609.153	0.75
609.488	0.75
609.824	0.76
610.159	0.76
610.495	0.75
610.83	0.75
611.165	0.75
611.5	0.74
611.836	0.74
612.171	0.73
612.506	0.74
612.841	0.74
613.176	0.73
613.511	0.73
613.845	0.72
614.18	0.72
614.515	0.72
614.85	0.72
615.184	0.72
615.519	0.72
615.854	0.71
616.188	0.71
616.523	0.7
616.857	0.7
617.191	0.71
617.526	0.7
617.86	0.7
618.194	0.7
618.528	0.7
618.862	0.7
619.196	0.69
619.53	0.69
619.864	0.69
620.198	0.68
620.532	0.68
620.866	0.68
621.2	0.68
621.533	0.67
621.867	0.67
622.201	0.66
622.534	0.66
622.868	0.66
623.201	0.66
623.534	0.65
623.868	0.65
624.201	0.65
624.534	0.65
624.868	0.65
625.201	0.64
625.534	0.64
625.867	0.63
626.2	0.64
626.533	0.63
626.865	0.63
627.198	0.63
627.531	0.62
627.864	0.62
628.196	0.62
628.529	0.61
628.862	0.61
629.194	0.61
629.527	0.6
629.859	0.61
630.191	0.6
630.524	0.6
630.856	0.6
631.188	0.59
631.52	0.59
631.852	0.58
632.184	0.58
632.516	0.57
632.848	0.57
633.18	0.57
633.512	0.56
633.844	0.56
634.175	0.56
634.507	0.56
634.839	0.55
635.17	0.55
635.502	0.54
635.833	0.54
636.165	0.53
636.496	0.53
636.827	0.53
637.159	0.52
637.49	0.52
637.821	0.52
638.152	0.52
638.483	0.51
638.814	0.51
639.145	0.51
639.476	0.5
639.807	0.5
640.137	0.49
640.468	0.49
640.799	0.49
641.129	0.48
641.46	0.48
641.791	0.48
642.121	0.48
642.451	0.48
642.782	0.47
643.112	0.47
643.442	0.46
643.773	0.46
644.103	0.46
644.433	0.46
644.763	0.46
645.093	0.45
645.423	0.45
645.753	0.45
646.082	0.44
646.412	0.45
646.742	0.44
647.072	0.44
647.401	0.44
647.731	0.43
648.06	0.43
648.39	0.43
648.719	0.43
649.048	0.43
649.378	0.43
649.707	0.42
650.036	0.42
650.365	0.42
650.694	0.42
651.023	0.41
651.352	0.42
651.681	0.42
652.01	0.41
652.339	0.41
652.668	0.41
652.996	0.41
653.325	0.4
653.654	0.41
653.982	0.4
654.311	0.41
654.639	0.4
654.967	0.4
655.296	0.4
655.624	0.4
655.952	0.4
656.28	0.39
656.609	0.39
656.937	0.39
657.265	0.37
657.593	0.22
657.92	0.12
658.248	0.1
658.576	0.17
658.904	0.29
659.231	0.37
659.559	0.38
659.887	0.38
660.214	0.38
660.542	0.37
660.869	0.38
661.196	0.37
661.524	0.37
661.851	0.37
662.178	0.37
662.505	0.37
662.832	0.37
663.159	0.36
663.486	0.36
663.813	0.36
664.14	0.36
664.467	0.36
664.794	0.35
665.12	0.35
665.447	0.35
665.774	0.35
666.1	0.35
666.427	0.35
666.753	0.35
667.079	0.34
667.406	0.34
667.732	0.34
668.058	0.34
668.384	0.33
668.71	0.33
669.036	0.33
669.362	0.33
669.688	0.33
670.014	0.33
670.34	0.32
670.666	0.32
670.991	0.32
671.317	0.32
671.643	0.31
671.968	0.31
672.294	0.31
672.619	0.31
672.945	0.31
673.27	0.3
673.595	0.3
673.92	0.3
674.246	0.29
674.571	0.3
674.896	0.29
675.221	0.29
675.546	0.29
675.87	0.28
676.195	0.28
676.52	0.28
676.845	0.28
677.169	0.27
677.494	0.27
677.819	0.27
678.143	0.27
678.468	0.27
678.792	0.27
679.116	0.26
679.44	0.26
679.765	0.26
680.089	0.26
680.413	0.25
680.737	0.25
681.061	0.25
681.385	0.24
681.709	0.24
682.033	0.24
682.356	0.24
682.68	0.23
683.004	0.23
683.327	0.23
683.651	0.22
683.974	0.23
684.298	0.22
684.621	0.22
684.944	0.22
685.268	0.21
685.591	0.21
685.914	0.2
686.237	0.2
686.56	0.2
686.883	0.2
687.206	0.2
687.529	0.19
687.852	0.19
688.175	0.19
688.497	0.19
688.82	0.19
689.142	0.19
689.465	0.18
689.787	0.18
690.11	0.18
690.432	0.18
690.755	0.18
691.077	0.17
691.399	0.17
691.721	0.17
692.043	0.17
692.365	0.16
692.687	0.16
693.009	0.16
693.331	0.15
693.653	0.15
693.974	0.15
694.296	0.15
694.618	0.15
694.939	0.15
695.261	0.15
695.582	0.15
695.904	0.15
696.225	0.15
696.546	0.15
696.868	0.14
697.189	0.14
697.51	0.14
697.831	0.14
698.152	0.14
698.473	0.13
698.794	0.12
699.114	0.12
699.435	0.11
699.756	0.12
700.077	0.12
700.397	0.12
700.718	0.12
701.038	0.12
701.359	0.12
701.679	0.12
701.999	0.12
702.32	0.12
702.64	0.12
702.96	0.12
703.28	0.12
703.6	0.12
703.92	0.11
704.24	0.11
704.56	0.11
704.879	0.11
705.199	0.11
705.519	0.11
705.838	0.11
706.158	0.11
706.478	0.11
706.797	0.11
707.116	0.11
707.436	0.11
707.755	0.11
708.074	0.11
708.393	0.1
708.712	0.1
709.031	0.09
709.35	0.09
709.669	0.09
709.988	0.09
710.307	0.1
710.626	0.1
710.944	0.1
711.263	0.1
711.582	0.1
711.9	0.1
712.219	0.1
712.537	0.1
712.855	0.1
713.174	0.1
713.492	0.1
713.81	0.11
714.128	0.11
714.446	0.1
714.764	0.1
715.082	0.09
715.4	0.1
715.718	0.09
716.035	0.1
716.353	0.1
716.671	0.1
716.988	0.1
717.306	0.1
717.623	0.1
717.941	0.11
718.258	0.11
718.575	0.11
718.893	0.11
719.21	0.11
719.527	0.1
719.844	0.1
720.161	0.1
720.478	0.1
720.795	0.1
721.112	0.11
721.428	0.11
721.745	0.11
722.062	0.11
722.378	0.11
722.695	0.11
723.011	0.11
723.328	0.11
723.644	0.11
723.96	0.11
724.276	0.11
724.593	0.11
724.909	0.11
725.225	0.11
725.541	0.11
725.857	0.11
726.173	0.11
726.488	0.11
726.804	0.11
727.12	0.11
727.435	0.11
727.751	0.1
728.067	0.1
728.382	0.11
728.697	0.11
729.013	0.11
729.328	0.1
729.643	0.1
729.958	0.1
730.273	0.1
730.588	0.1
730.903	0.11
731.218	0.1
731.533	0.11
731.848	0.1
732.163	0.11
732.477	0.1
732.792	0.1
733.107	0.09
733.421	0.1
733.736	0.1
734.05	0.1
734.364	0.1
734.678	0.1
734.993	0.1
735.307	0.1
735.621	0.09
735.935	0.1
736.249	0.09
736.563	0.1
736.877	0.1
737.19	0.1
737.504	0.1
737.818	0.1
738.131	0.1
738.445	0.1
738.758	0.1
739.072	0.1
739.385	0.1
739.698	0.11
740.012	0.11
740.325	0.1
740.638	0.1
740.951	0.1
741.264	0.09
741.577	0.1
741.89	0.1
742.203	0.1
742.515	0.1
742.828	0.1
743.141	0.09
743.453	0.09
743.766	0.09
744.078	0.09
744.391	0.09
744.703	0.09
745.015	0.09
745.327	0.09
745.639	0.09
745.952	0.09
746.264	0.09
746.575	0.09
746.887	0.09
747.199	0.09
747.511	0.08
747.823	0.09
748.134	0.08
748.446	0.08
748.757	0.08
749.069	0.08
749.38	0.08
749.692	0.07
750.003	0.07
750.314	0.07
750.625	0.07
750.936	0.07
751.248	0.07
751.559	0.07
751.869	0.07
752.18	0.07
752.491	0.07
752.802	0.07
753.112	0.07
753.423	0.06
753.734	0.07
754.044	0.06
754.355	0.06
754.665	0.06
754.975	0.06
755.285	0.06
755.596	0.06
755.906	0.06
756.216	0.05
756.526	0.06
756.836	0.06
757.146	0.06
757.455	0.06
757.765	0.06
758.075	0.06
758.385	0.05
758.694	0.05
759.004	0.05
759.313	0.05
759.622	0.05
759.932	0.05
760.241	0.06
760.55	0.05
760.859	0.06
761.168	0.06
761.477	0.05
761.786	0.05
762.095	0.05
762.404	0.05
762.713	0.05
763.021	0.05
763.33	0.05
763.639	0.06
763.947	0.05
764.256	0.05
764.564	0.06
764.872	0.06
765.181	0.06
765.489	0.05
765.797	0.05
766.105	0.05
766.413	0.05
766.721	0.05
767.029	0.05
767.337	0.05
767.644	0.05
767.952	0.05
768.26	0.05
768.567	0.05
768.875	0.05
769.182	0.05
769.49	0.05
769.797	0.05
770.104	0.05
770.411	0.05
770.718	0.05
771.026	0.05
771.333	0.05
771.639	0.04
771.946	0.04
772.253	0.05
772.56	0.05
772.867	0.05
773.173	0.05
773.48	0.05
773.786	0.05
774.093	0.05
774.399	0.05
774.705	0.05
775.012	0.05
775.318	0.05
775.624	0.05
775.93	0.05
776.236	0.05
776.542	0.06
776.848	0.06
777.154	0.06
777.459	0.06
777.765	0.06
778.071	0.06
778.376	0.05
778.682	0.05
778.987	0.06
779.292	0.05
779.598	0.05
779.903	0.05
780.208	0.05
780.513	0.05
780.818	0.05
781.123	0.05
781.428	0.05
781.733	0.05
782.038	0.05
782.343	0.05
782.647	0.05
782.952	0.04
783.256	0.05
783.561	0.05
783.865	0.04
784.17	0.04
784.474	0.04
784.778	0.04
785.082	0.05
785.386	0.05
785.69	0.05
785.994	0.05
786.298	0.05
786.602	0.05
786.906	0.05
787.209	0.05
787.513	0.05
787.817	0.06
788.12	0.06
788.424	0.06
788.727	0.06
789.03	0.06
789.333	0.06
789.637	0.06
789.94	0.06
790.243	0.06
790.546	0.06
790.849	0.06
791.152	0.07
791.454	0.07
791.757	0.06
792.06	0.07
792.362	0.07
792.665	0.06
792.967	0.06
793.27	0.06
793.572	0.06
793.874	0.06
794.177	0.07
794.479	0.06
794.781	0.07
795.083	0.07
795.385	0.07
795.687	0.07
795.989	0.07
796.29	0.07
796.592	0.07
796.894	0.07
797.195	0.07
797.497	0.07
797.798	0.07
798.1	0.07
798.401	0.07
798.702	0.07
799.003	0.07
799.304	0.07
799.605	0.07
799.906	0.07
800.207	0.07
800.508	0.07
800.809	0.07
801.11	0.07
801.41	0.07
801.711	0.08
802.011	0.08
802.312	0.08
802.612	0.08
802.913	0.08
803.213	0.08
803.513	0.07
803.813	0.07
804.113	0.07
804.413	0.08
804.713	0.08
805.013	0.08
805.313	0.08
805.613	0.08
805.912	0.08
806.212	0.08
806.511	0.08
806.811	0.08
807.11	0.08
807.41	0.08
807.709	0.08
808.008	0.08
808.307	0.08
808.606	0.09
808.905	0.08
809.204	0.08
809.503	0.08
809.802	0.08
810.101	0.08
810.399	0.09
810.698	0.08
810.997	0.08
811.295	0.08
811.593	0.09
811.892	0.09
812.19	0.09
812.488	0.09
812.786	0.09
813.084	0.09
813.383	0.09
813.68	0.09
813.978	0.09
814.276	0.09
814.574	0.09
814.872	0.09
815.169	0.09
815.467	0.09
815.764	0.09
816.062	0.09
816.359	0.09
816.656	0.09
816.954	0.09
817.251	0.1
817.548	0.09
817.845	0.09
818.142	0.1
818.439	0.1
818.735	0.1
819.032	0.1
819.329	0.1
819.626	0.1
819.922	0.11
820.219	0.11
820.515	0.11
820.811	0.11
821.108	0.1
821.404	0.11
821.7	0.1
821.996	0.1
822.292	0.1
822.588	0.1
822.884	0.11
823.18	0.11
823.475	0.11
823.771	0.12
824.067	0.12
824.362	0.12
824.658	0.11
824.953	0.11
825.249	0.11
825.544	0.11
825.839	0.12
826.134	0.11
826.429	0.11
826.724	0.11
827.019	0.11
827.314	0.11
827.609	0.12
827.904	0.12
828.198	0.12
828.493	0.12
828.787	0.11
829.082	0.12
829.376	0.12
829.671	0.13
829.965	0.13
830.259	0.13
830.553	0.13
830.847	0.13
831.141	0.13
831.435	0.13
831.729	0.14
832.023	0.13
832.317	0.13
832.61	0.13
832.904	0.13
833.197	0.13
833.491	0.13
833.784	0.13
834.077	0.14
834.371	0.14
834.664	0.14
834.957	0.14
835.25	0.13
835.543	0.13
835.836	0.14
836.129	0.13
836.421	0.14
836.714	0.13
837.007	0.13
837.299	0.13
837.592	0.12
837.884	0.15
838.177	0.13
838.469	0.14
838.761	0.14
839.053	0.14
839.345	0.14
839.637	0.14
839.929	0.14
840.221	0.14
840.513	0.14
840.805	0.15
841.096	0.15
841.388	0.15
841.68	0.15
841.971	0.15
842.262	0.14
842.554	0.15
842.845	0.14
843.136	0.14
843.427	0.15
843.718	0.15
844.009	0.14
844.3	0.15
844.591	0.15
844.882	0.15
845.173	0.16
845.463	0.14
845.754	0.16
846.044	0.16
846.335	0.16
846.625	0.15
846.915	0.15
847.206	0.16
847.496	0.16
847.786	0.15
848.076	0.15
848.366	0.15
848.656	0.15
848.945	0.15
849.235	0.14
849.525	0.14
849.814	0.14
850.104	0.13
850.393	0.16
850.683	0.16
850.972	0.15
851.261	0.17
851.551	0.16
851.84	0.17
852.129	0.16
852.418	0.15
852.707	0.17
852.995	0.16
853.284	0.16
853.573	0.16
853.862	0.16
854.15	0.15
854.439	0.15
854.727	0.16
855.015	0.17
855.304	0.17
855.592	0.16
855.88	0.17
856.168	0.16
856.456	0.16
856.744	0.16
857.032	0.17
857.32	0.15
857.607	0.16
857.895	0.17
858.183	0.18
858.47	0.17
858.757	0.17
859.045	0.19
859.332	0.17
859.619	0.18
859.907	0.18
860.194	0.16
860.481	0.2
860.768	0.19
861.054	0.18
861.341	0.18
861.628	0.17
861.915	0.17
862.201	0.18
862.488	0.17
862.774	0.17
863.061	0.18
863.347	0.17
863.633	0.18
863.919	0.18
864.205	0.18
864.491	0.21
864.777	0.19
865.063	0.17
865.349	0.19
865.635	0.2
865.92	0.18
866.206	0.18
866.492	0.16
866.777	0.19
867.062	0.19
867.348	0.18
867.633	0.15
867.918	0.18
868.203	0.18
868.488	0.21
868.773	0.22
869.058	0.18
869.343	0.2
869.628	0.21
869.912	0.2
870.197	0.18
870.482	0.17
870.766	0.21
871.05	0.21
871.335	0.18
871.619	0.17
871.903	0.17
872.187	0.16
872.471	0.23
872.755	0.19
873.039	0.16
873.323	0.24
873.607	0.16
873.89	0.2
874.174	0.17
874.458	0.26
874.741	0.14
875.024	0.17
875.308	0.19
875.591	0.2
875.874	0.27
876.157	0.15
876.44	0.14
876.723	0.14
877.006	0.12
877.289	0.13
877.572	0.19
877.854	0.16
878.137	0.16
878.42	0.11
878.702	0.2
878.984	0.33
879.267	0.31
879.549	0.21
879.831	0.16
880.113	0.12
880.395	0.29
880.677	0.06
880.959	0.06
