Data from Rubpy_BV_1800_EDTA_Buffered_Absorbance_15-17-20-419.txt Node
Date: Wed Jul 01 15:17:20 BST 2026
User: fpm-admin
Spectrometer: OFX00224
Trigger mode: 0
Integration Time (sec): 7.000000E-2
Scans to average: 3
Nonlinearity correction enabled: false
Boxcar width: 0
Storing dark spectrum: false
XAxis mode: Wavelengths
Number of Pixels in Spectrum: 2136
>>>>>Begin Spectral Data<<<<<
154.91	-0.44
155.289	-0
155.669	-0.91
156.048	-0
156.428	0.07
156.807	-0
157.186	0.3
157.566	-0.46
157.945	-0
158.325	-0
158.704	0.3
159.083	-0.26
159.462	-0
159.842	-0
160.221	-0
160.6	-0
160.979	-0.1
161.359	0.49
161.738	0.11
162.117	-0
162.496	0.18
162.875	-0
163.254	0.68
163.633	-0
164.012	0.6
164.391	-1.03
164.77	-0
165.149	-0
165.528	-0
165.907	-0
166.286	-0.09
166.665	-0.11
167.044	0.51
167.423	-0.06
167.802	-0
168.181	-0.45
168.559	0.18
168.938	-0.58
169.317	-0
169.696	-0
170.074	0.06
170.453	0.72
170.832	-0.44
171.21	0.12
171.589	-0
171.968	0.75
172.346	-0
172.725	1.56
173.103	0.23
173.482	0.88
173.861	-0
174.239	0.36
174.617	-0
174.996	0.77
175.374	-0
175.753	0.1
176.131	-0
176.51	-0.18
176.888	-0
177.266	-0
177.645	-0
178.023	1.19
178.401	-0.1
178.779	-0.19
179.158	-0
179.536	-0.22
179.914	-0.1
180.292	-0
180.67	0.03
181.048	-0
181.427	0.95
181.805	-0
182.183	-0
182.561	-0
182.939	-0.52
183.317	-0
183.695	-0
184.073	0.22
184.451	0.97
184.829	-0.07
185.206	0.12
185.584	-0
185.962	-0
186.34	1.59
186.718	-0.72
187.096	-0.24
187.473	-0
187.851	-0
188.229	-0
188.607	0.34
188.984	0.23
189.362	0.27
189.74	0.17
190.117	0.23
190.495	0.35
190.872	0.5
191.25	0.22
191.627	0.3
192.005	0.34
192.382	0.2
192.76	0.3
193.137	0.39
193.515	0.3
193.892	0.34
194.269	0.37
194.647	0.27
195.024	0.16
195.401	0.37
195.779	0.4
196.156	0.24
196.533	0.38
196.91	0.46
197.288	0.29
197.665	0.15
198.042	0.36
198.419	0.26
198.796	0.3
199.173	0.48
199.55	0.31
199.927	0.37
200.304	0.34
200.681	0.36
201.058	0.42
201.435	0.47
201.812	0.26
202.189	0.45
202.566	0.33
202.943	0.43
203.32	0.52
203.697	0.33
204.073	0.32
204.45	0.39
204.827	0.34
205.204	0.32
205.58	0.33
205.957	0.34
206.334	0.28
206.71	0.29
207.087	0.42
207.464	0.2
207.84	0.45
208.217	0.43
208.593	0.26
208.97	0.41
209.346	0.35
209.723	0.4
210.099	0.29
210.476	0.24
210.852	0.32
211.228	0.34
211.605	0.28
211.981	0.4
212.357	0.41
212.733	0.52
213.11	0.42
213.486	0.43
213.862	0.31
214.238	0.32
214.614	0.39
214.991	0.44
215.367	0.27
215.743	0.32
216.119	0.41
216.495	0.31
216.871	0.4
217.247	0.3
217.623	0.4
217.999	0.29
218.375	0.36
218.751	0.38
219.127	0.32
219.502	0.38
219.878	0.39
220.254	0.36
220.63	0.46
221.006	0.32
221.381	0.31
221.757	0.3
222.133	0.37
222.508	0.67
222.884	0.28
223.26	0.33
223.635	0.4
224.011	0.56
224.386	0.33
224.762	0.36
225.137	0.37
225.513	0.31
225.888	0.35
226.264	0.36
226.639	0.4
227.014	0.29
227.39	0.47
227.765	0.36
228.14	0.43
228.516	0.64
228.891	0.33
229.266	0.31
229.641	0.29
230.017	0.34
230.392	0.28
230.767	0.38
231.142	0.25
231.517	0.29
231.892	0.26
232.267	0.33
232.642	0.54
233.017	0.53
233.392	0.38
233.767	0.54
234.142	0.34
234.517	0.45
234.892	0.24
235.267	0.32
235.641	0.36
236.016	0.23
236.391	0.3
236.766	0.5
237.14	0.39
237.515	0.4
237.89	0.29
238.264	0.35
238.639	0.25
239.014	0.5
239.388	0.34
239.763	0.49
240.137	0.33
240.512	0.22
240.886	0.38
241.261	0.4
241.635	0.35
242.009	0.39
242.384	0.35
242.758	0.32
243.132	0.29
243.507	0.24
243.881	0.34
244.255	0.41
244.629	0.4
245.004	0.36
245.378	0.44
245.752	0.37
246.126	0.33
246.5	0.45
246.874	0.41
247.248	0.37
247.622	0.43
247.996	0.35
248.37	0.37
248.744	0.42
249.118	0.42
249.492	0.51
249.866	0.38
250.24	0.51
250.613	0.28
250.987	0.37
251.361	0.49
251.735	0.25
252.108	0.36
252.482	0.34
252.856	0.37
253.229	0.36
253.603	0.3
253.977	0.35
254.35	0.4
254.724	0.36
255.097	0.36
255.471	0.36
255.844	0.42
256.218	0.3
256.591	0.39
256.964	0.28
257.338	0.34
257.711	0.35
258.084	0.24
258.458	0.32
258.831	0.43
259.204	0.46
259.577	0.51
259.95	0.35
260.323	0.29
260.697	0.29
261.07	0.36
261.443	0.33
261.816	0.33
262.189	0.37
262.562	0.38
262.935	0.44
263.308	0.59
263.68	0.42
264.053	0.31
264.426	0.33
264.799	0.44
265.172	0.42
265.545	0.31
265.917	0.34
266.29	0.39
266.663	0.44
267.035	0.3
267.408	0.36
267.781	0.49
268.153	0.37
268.526	0.32
268.898	0.35
269.271	0.29
269.643	0.38
270.016	0.3
270.388	0.3
270.76	0.39
271.133	0.42
271.505	0.38
271.877	0.48
272.25	0.38
272.622	0.39
272.994	0.47
273.366	0.41
273.739	0.32
274.111	0.35
274.483	0.4
274.855	0.36
275.227	0.32
275.599	0.33
275.971	0.28
276.343	0.33
276.715	0.36
277.087	0.29
277.459	0.29
277.831	0.36
278.203	0.57
278.574	0.34
278.946	0.44
279.318	0.27
279.69	0.39
280.061	0.32
280.433	0.35
280.805	0.27
281.176	0.32
281.548	0.33
281.92	0.29
282.291	0.33
282.663	0.34
283.034	0.33
283.406	0.33
283.777	0.36
284.148	0.31
284.52	0.36
284.891	0.3
285.262	0.35
285.634	0.33
286.005	0.37
286.376	0.42
286.747	0.36
287.119	0.31
287.49	0.33
287.861	0.38
288.232	0.26
288.603	0.42
288.974	0.4
289.345	0.38
289.716	0.37
290.087	0.45
290.458	0.25
290.829	0.34
291.2	0.25
291.571	0.37
291.941	0.45
292.312	0.33
292.683	0.5
293.054	0.32
293.424	0.39
293.795	0.3
294.166	0.4
294.536	0.37
294.907	0.35
295.277	0.34
295.648	0.35
296.018	0.37
296.389	0.36
296.759	0.31
297.13	0.33
297.5	0.4
297.871	0.41
298.241	0.38
298.611	0.47
298.981	0.32
299.352	0.41
299.722	0.55
300.092	0.38
300.462	0.47
300.832	0.43
301.202	0.43
301.573	0.35
301.943	0.35
302.313	0.46
302.683	0.4
303.053	0.36
303.422	0.39
303.792	0.33
304.162	0.38
304.532	0.37
304.902	0.36
305.272	0.4
305.641	0.34
306.011	0.26
306.381	0.34
306.75	0.31
307.12	0.34
307.49	0.37
307.859	0.33
308.229	0.29
308.598	0.33
308.968	0.29
309.337	0.32
309.707	0.31
310.076	0.34
310.445	0.32
310.815	0.3
311.184	0.29
311.553	0.29
311.923	0.31
312.292	0.36
312.661	0.3
313.03	0.29
313.399	0.3
313.768	0.3
314.137	0.3
314.506	0.33
314.875	0.31
315.244	0.31
315.613	0.3
315.982	0.34
316.351	0.35
316.72	0.33
317.089	0.35
317.458	0.35
317.826	0.36
318.195	0.37
318.564	0.37
318.933	0.35
319.301	0.4
319.67	0.39
320.038	0.39
320.407	0.4
320.775	0.39
321.144	0.39
321.512	0.4
321.881	0.42
322.249	0.41
322.618	0.42
322.986	0.41
323.354	0.43
323.723	0.45
324.091	0.45
324.459	0.45
324.827	0.45
325.195	0.48
325.564	0.47
325.932	0.48
326.3	0.48
326.668	0.51
327.036	0.49
327.404	0.52
327.772	0.52
328.14	0.54
328.508	0.55
328.875	0.55
329.243	0.55
329.611	0.56
329.979	0.56
330.346	0.57
330.714	0.59
331.082	0.6
331.449	0.6
331.817	0.6
332.185	0.62
332.552	0.63
332.92	0.63
333.287	0.67
333.655	0.67
334.022	0.67
334.389	0.7
334.757	0.71
335.124	0.73
335.491	0.74
335.859	0.76
336.226	0.77
336.593	0.79
336.96	0.8
337.327	0.81
337.695	0.82
338.062	0.83
338.429	0.85
338.796	0.85
339.163	0.89
339.53	0.9
339.897	0.9
340.263	0.93
340.63	0.94
340.997	0.97
341.364	0.97
341.731	0.98
342.097	1
342.464	1.01
342.831	1.03
343.197	1.06
343.564	1.09
343.931	1.08
344.297	1.09
344.664	1.11
345.03	1.15
345.396	1.15
345.763	1.17
346.129	1.18
346.496	1.2
346.862	1.22
347.228	1.24
347.594	1.25
347.961	1.26
348.327	1.28
348.693	1.31
349.059	1.32
349.425	1.32
349.791	1.32
350.157	1.37
350.523	1.38
350.889	1.37
351.255	1.39
351.621	1.4
351.987	1.43
352.353	1.44
352.719	1.46
353.084	1.46
353.45	1.51
353.816	1.51
354.181	1.52
354.547	1.57
354.913	1.57
355.278	1.55
355.644	1.6
356.009	1.59
356.375	1.62
356.74	1.62
357.106	1.61
357.471	1.64
357.836	1.68
358.202	1.72
358.567	1.74
358.932	1.72
359.297	1.77
359.663	1.76
360.028	1.82
360.393	1.76
360.758	1.87
361.123	1.82
361.488	1.87
361.853	1.91
362.218	1.89
362.583	1.9
362.948	1.87
363.312	1.96
363.677	1.92
364.042	1.93
364.407	1.93
364.772	1.96
365.136	1.96
365.501	2.03
365.865	2
366.23	2.05
366.595	2.06
366.959	2.05
367.324	2.02
367.688	2.01
368.052	2.03
368.417	2.09
368.781	2.07
369.145	2.07
369.51	2
369.874	2.07
370.238	2.07
370.602	2.04
370.967	2.15
371.331	2.07
371.695	2.03
372.059	2.08
372.423	2.07
372.787	2.11
373.151	2.04
373.515	2.01
373.878	2.08
374.242	2.06
374.606	2.07
374.97	2.09
375.334	2.11
375.697	1.99
376.061	2.01
376.425	1.98
376.788	2
377.152	2
377.515	1.99
377.879	1.98
378.242	2
378.606	2.02
378.969	1.98
379.333	1.92
379.696	1.87
380.059	1.95
380.422	1.92
380.786	1.9
381.149	1.9
381.512	1.83
381.875	1.84
382.238	1.77
382.601	1.77
382.964	1.77
383.327	1.76
383.69	1.74
384.053	1.73
384.416	1.72
384.779	1.7
385.142	1.69
385.504	1.64
385.867	1.67
386.23	1.66
386.593	1.63
386.955	1.63
387.318	1.6
387.68	1.6
388.043	1.6
388.405	1.58
388.768	1.58
389.13	1.54
389.493	1.55
389.855	1.53
390.217	1.53
390.58	1.51
390.942	1.52
391.304	1.5
391.666	1.48
392.028	1.44
392.391	1.41
392.753	1.4
393.115	1.39
393.477	1.37
393.839	1.35
394.201	1.35
394.563	1.35
394.924	1.33
395.286	1.33
395.648	1.33
396.01	1.34
396.371	1.34
396.733	1.34
397.095	1.35
397.456	1.38
397.818	1.41
398.18	1.42
398.541	1.45
398.903	1.5
399.264	1.52
399.625	1.55
399.987	1.58
400.348	1.58
400.709	1.59
401.071	1.61
401.432	1.59
401.793	1.6
402.154	1.6
402.515	1.55
402.876	1.52
403.238	1.5
403.599	1.48
403.96	1.44
404.32	1.37
404.681	1.34
405.042	1.31
405.403	1.25
405.764	1.19
406.125	1.14
406.485	1.09
406.846	1.03
407.207	0.99
407.567	0.93
407.928	0.9
408.288	0.84
408.649	0.79
409.009	0.76
409.37	0.71
409.73	0.69
410.091	0.64
410.451	0.62
410.811	0.58
411.171	0.56
411.532	0.53
411.892	0.51
412.252	0.48
412.612	0.46
412.972	0.44
413.332	0.43
413.692	0.41
414.052	0.39
414.412	0.38
414.772	0.37
415.132	0.35
415.492	0.34
415.851	0.33
416.211	0.32
416.571	0.32
416.931	0.3
417.29	0.29
417.65	0.29
418.009	0.28
418.369	0.28
418.728	0.28
419.088	0.26
419.447	0.26
419.807	0.25
420.166	0.24
420.525	0.24
420.884	0.24
421.244	0.24
421.603	0.23
421.962	0.22
422.321	0.22
422.68	0.23
423.039	0.21
423.398	0.2
423.757	0.21
424.116	0.21
424.475	0.2
424.834	0.2
425.193	0.2
425.551	0.2
425.91	0.19
426.269	0.19
426.628	0.19
426.986	0.2
427.345	0.19
427.703	0.19
428.062	0.19
428.42	0.18
428.779	0.19
429.137	0.18
429.496	0.18
429.854	0.18
430.212	0.18
430.57	0.19
430.929	0.18
431.287	0.17
431.645	0.18
432.003	0.17
432.361	0.18
432.719	0.18
433.077	0.18
433.435	0.17
433.793	0.18
434.151	0.18
434.509	0.17
434.866	0.17
435.224	0.17
435.582	0.17
435.94	0.18
436.297	0.17
436.655	0.18
437.012	0.18
437.37	0.17
437.727	0.17
438.085	0.18
438.442	0.17
438.8	0.18
439.157	0.17
439.514	0.18
439.872	0.18
440.229	0.17
440.586	0.18
440.943	0.17
441.3	0.18
441.657	0.18
442.014	0.17
442.371	0.17
442.728	0.18
443.085	0.18
443.442	0.18
443.799	0.18
444.156	0.18
444.513	0.19
444.869	0.18
445.226	0.19
445.583	0.19
445.939	0.19
446.296	0.19
446.652	0.18
447.009	0.19
447.365	0.19
447.722	0.19
448.078	0.18
448.434	0.19
448.791	0.19
449.147	0.19
449.503	0.19
449.859	0.19
450.215	0.18
450.571	0.19
450.928	0.18
451.284	0.2
451.64	0.2
451.995	0.19
452.351	0.18
452.707	0.19
453.063	0.19
453.419	0.18
453.775	0.18
454.13	0.18
454.486	0.18
454.842	0.18
455.197	0.19
455.553	0.18
455.908	0.18
456.264	0.17
456.619	0.18
456.975	0.18
457.33	0.18
457.685	0.17
458.04	0.17
458.396	0.17
458.751	0.18
459.106	0.17
459.461	0.18
459.816	0.16
460.171	0.16
460.526	0.17
460.881	0.15
461.236	0.14
461.591	0.16
461.946	0.15
462.301	0.15
462.655	0.14
463.01	0.15
463.365	0.15
463.719	0.13
464.074	0.13
464.428	0.11
464.783	0.13
465.137	0.12
465.492	0.13
465.846	0.12
466.201	0.12
466.555	0.13
466.909	0.13
467.263	0.14
467.618	0.14
467.972	0.14
468.326	0.15
468.68	0.14
469.034	0.13
469.388	0.12
469.742	0.13
470.096	0.14
470.45	0.15
470.804	0.14
471.157	0.15
471.511	0.15
471.865	0.15
472.218	0.15
472.572	0.17
472.926	0.17
473.279	0.18
473.633	0.19
473.986	0.2
474.34	0.2
474.693	0.21
475.046	0.23
475.4	0.24
475.753	0.25
476.106	0.25
476.459	0.27
476.812	0.28
477.165	0.29
477.519	0.3
477.872	0.31
478.224	0.31
478.577	0.33
478.93	0.33
479.283	0.34
479.636	0.35
479.989	0.36
480.341	0.37
480.694	0.38
481.047	0.38
481.399	0.39
481.752	0.41
482.104	0.41
482.457	0.41
482.809	0.41
483.162	0.43
483.514	0.44
483.866	0.44
484.219	0.45
484.571	0.45
484.923	0.45
485.275	0.47
485.627	0.48
485.979	0.48
486.331	0.48
486.683	0.5
487.035	0.5
487.387	0.51
487.739	0.52
488.091	0.53
488.443	0.53
488.794	0.53
489.146	0.54
489.498	0.54
489.849	0.55
490.201	0.55
490.552	0.56
490.904	0.56
491.255	0.57
491.607	0.57
491.958	0.58
492.309	0.58
492.661	0.59
493.012	0.6
493.363	0.6
493.714	0.61
494.065	0.61
494.416	0.62
494.767	0.63
495.118	0.63
495.469	0.63
495.82	0.63
496.171	0.64
496.522	0.65
496.872	0.66
497.223	0.67
497.574	0.66
497.924	0.67
498.275	0.68
498.626	0.69
498.976	0.69
499.327	0.7
499.677	0.7
500.027	0.71
500.378	0.71
500.728	0.72
501.078	0.72
501.428	0.73
501.779	0.73
502.129	0.73
502.479	0.74
502.829	0.76
503.179	0.75
503.529	0.76
503.879	0.77
504.229	0.77
504.578	0.77
504.928	0.78
505.278	0.78
505.628	0.79
505.977	0.79
506.327	0.8
506.676	0.8
507.026	0.81
507.375	0.8
507.725	0.81
508.074	0.82
508.424	0.83
508.773	0.83
509.122	0.84
509.471	0.85
509.82	0.84
510.17	0.85
510.519	0.85
510.868	0.86
511.217	0.87
511.566	0.87
511.915	0.86
512.263	0.89
512.612	0.88
512.961	0.88
513.31	0.89
513.659	0.89
514.007	0.9
514.356	0.91
514.704	0.91
515.053	0.91
515.401	0.91
515.75	0.91
516.098	0.93
516.447	0.93
516.795	0.93
517.143	0.93
517.491	0.94
517.839	0.94
518.188	0.95
518.536	0.96
518.884	0.95
519.232	0.96
519.58	0.96
519.928	0.97
520.275	0.97
520.623	0.97
520.971	0.97
521.319	0.97
521.666	0.99
522.014	0.98
522.362	0.99
522.709	1
523.057	1
523.404	0.99
523.752	0.99
524.099	1.01
524.446	1.01
524.794	1.01
525.141	1.02
525.488	1.02
525.835	1.02
526.182	1.01
526.529	1.03
526.876	1.02
527.223	1.03
527.57	1.04
527.917	1.04
528.264	1.04
528.611	1.03
528.958	1.04
529.304	1.04
529.651	1.05
529.998	1.05
530.344	1.06
530.691	1.06
531.037	1.06
531.384	1.06
531.73	1.06
532.076	1.07
532.423	1.07
532.769	1.07
533.115	1.08
533.461	1.07
533.807	1.07
534.154	1.07
534.5	1.09
534.846	1.08
535.192	1.08
535.537	1.09
535.883	1.09
536.229	1.1
536.575	1.1
536.921	1.09
537.266	1.11
537.612	1.1
537.957	1.09
538.303	1.1
538.649	1.11
538.994	1.1
539.339	1.11
539.685	1.1
540.03	1.11
540.375	1.1
540.721	1.12
541.066	1.11
541.411	1.12
541.756	1.11
542.101	1.12
542.446	1.12
542.791	1.12
543.136	1.12
543.481	1.12
543.825	1.13
544.17	1.13
544.515	1.12
544.86	1.12
545.204	1.13
545.549	1.13
545.893	1.13
546.238	1.13
546.582	1.13
546.927	1.14
547.271	1.12
547.615	1.13
547.96	1.13
548.304	1.13
548.648	1.14
548.992	1.13
549.336	1.13
549.68	1.13
550.024	1.14
550.368	1.14
550.712	1.14
551.056	1.13
551.4	1.14
551.743	1.13
552.087	1.14
552.431	1.13
552.774	1.13
553.118	1.13
553.462	1.14
553.805	1.13
554.148	1.13
554.492	1.13
554.835	1.13
555.178	1.13
555.522	1.14
555.865	1.14
556.208	1.12
556.551	1.12
556.894	1.13
557.237	1.13
557.58	1.13
557.923	1.12
558.266	1.13
558.609	1.12
558.952	1.13
559.294	1.13
559.637	1.12
559.98	1.13
560.322	1.12
560.665	1.11
561.007	1.11
561.35	1.11
561.692	1.1
562.034	1.11
562.377	1.12
562.719	1.11
563.061	1.11
563.403	1.1
563.745	1.11
564.088	1.11
564.43	1.1
564.772	1.1
565.113	1.1
565.455	1.1
565.797	1.1
566.139	1.1
566.481	1.1
566.822	1.1
567.164	1.1
567.506	1.1
567.847	1.08
568.189	1.08
568.53	1.08
568.872	1.08
569.213	1.08
569.554	1.08
569.895	1.08
570.237	1.08
570.578	1.07
570.919	1.07
571.26	1.06
571.601	1.06
571.942	1.06
572.283	1.06
572.624	1.06
572.965	1.05
573.306	1.05
573.646	1.04
573.987	1.05
574.328	1.05
574.668	1.05
575.009	1.03
575.349	1.03
575.69	1.03
576.03	1.03
576.37	1.03
576.711	1.02
577.051	1.02
577.391	1.03
577.731	1.03
578.072	1.02
578.412	1.01
578.752	1.01
579.092	1
579.431	0.99
579.771	0.97
580.111	0.97
580.451	0.99
580.791	1
581.13	1
581.47	1
581.81	0.99
582.149	0.98
582.489	0.99
582.828	0.97
583.167	0.94
583.507	0.9
583.846	0.9
584.185	0.94
584.525	0.97
584.864	0.98
585.203	0.98
585.542	0.98
585.881	0.98
586.22	0.97
586.559	0.96
586.898	0.95
587.236	0.95
587.575	0.95
587.914	0.96
588.252	0.96
588.591	0.96
588.93	0.96
589.268	0.95
589.607	0.95
589.945	0.96
590.283	0.96
590.622	0.96
590.96	0.96
591.298	0.97
591.636	0.96
591.974	0.96
592.313	0.96
592.651	0.96
592.989	0.96
593.326	0.95
593.664	0.96
594.002	0.95
594.34	0.95
594.678	0.94
595.015	0.94
595.353	0.94
595.691	0.95
596.028	0.95
596.366	0.95
596.703	0.95
597.04	0.94
597.378	0.94
597.715	0.95
598.052	0.96
598.389	0.95
598.726	0.94
599.064	0.94
599.401	0.94
599.738	0.94
600.074	0.94
600.411	0.93
600.748	0.93
601.085	0.93
601.422	0.92
601.758	0.92
602.095	0.92
602.432	0.92
602.768	0.92
603.105	0.92
603.441	0.92
603.777	0.92
604.114	0.92
604.45	0.93
604.786	0.92
605.122	0.92
605.459	0.91
605.795	0.91
606.131	0.91
606.467	0.91
606.803	0.91
607.139	0.9
607.474	0.9
607.81	0.9
608.146	0.89
608.482	0.89
608.817	0.88
609.153	0.88
609.488	0.88
609.824	0.88
610.159	0.88
610.495	0.88
610.83	0.88
611.165	0.88
611.5	0.87
611.836	0.86
612.171	0.86
612.506	0.86
612.841	0.85
613.176	0.85
613.511	0.85
613.845	0.85
614.18	0.84
614.515	0.84
614.85	0.84
615.184	0.84
615.519	0.84
615.854	0.84
616.188	0.83
616.523	0.82
616.857	0.82
617.191	0.82
617.526	0.82
617.86	0.82
618.194	0.81
618.528	0.81
618.862	0.81
619.196	0.81
619.53	0.81
619.864	0.8
620.198	0.79
620.532	0.79
620.866	0.79
621.2	0.79
621.533	0.79
621.867	0.78
622.201	0.77
622.534	0.78
622.868	0.77
623.201	0.76
623.534	0.76
623.868	0.76
624.201	0.76
624.534	0.75
624.868	0.75
625.201	0.75
625.534	0.75
625.867	0.74
626.2	0.74
626.533	0.73
626.865	0.74
627.198	0.73
627.531	0.73
627.864	0.72
628.196	0.72
628.529	0.71
628.862	0.71
629.194	0.71
629.527	0.71
629.859	0.7
630.191	0.7
630.524	0.69
630.856	0.69
631.188	0.68
631.52	0.68
631.852	0.67
632.184	0.67
632.516	0.66
632.848	0.66
633.18	0.66
633.512	0.66
633.844	0.65
634.175	0.65
634.507	0.64
634.839	0.64
635.17	0.63
635.502	0.63
635.833	0.63
636.165	0.63
636.496	0.62
636.827	0.61
637.159	0.61
637.49	0.61
637.821	0.6
638.152	0.6
638.483	0.6
638.814	0.6
639.145	0.6
639.476	0.58
639.807	0.58
640.137	0.57
640.468	0.57
640.799	0.57
641.129	0.57
641.46	0.56
641.791	0.56
642.121	0.55
642.451	0.56
642.782	0.55
643.112	0.55
643.442	0.54
643.773	0.54
644.103	0.53
644.433	0.53
644.763	0.53
645.093	0.53
645.423	0.52
645.753	0.52
646.082	0.52
646.412	0.52
646.742	0.51
647.072	0.51
647.401	0.51
647.731	0.51
648.06	0.51
648.39	0.51
648.719	0.51
649.048	0.5
649.378	0.5
649.707	0.49
650.036	0.49
650.365	0.49
650.694	0.49
651.023	0.48
651.352	0.48
651.681	0.48
652.01	0.48
652.339	0.47
652.668	0.48
652.996	0.47
653.325	0.47
653.654	0.47
653.982	0.47
654.311	0.47
654.639	0.47
654.967	0.47
655.296	0.47
655.624	0.46
655.952	0.46
656.28	0.46
656.609	0.46
656.937	0.45
657.265	0.43
657.593	0.27
657.92	0.18
658.248	0.16
658.576	0.23
658.904	0.36
659.231	0.43
659.559	0.44
659.887	0.44
660.214	0.43
660.542	0.44
660.869	0.43
661.196	0.43
661.524	0.43
661.851	0.43
662.178	0.43
662.505	0.43
662.832	0.42
663.159	0.42
663.486	0.42
663.813	0.42
664.14	0.41
664.467	0.41
664.794	0.41
665.12	0.41
665.447	0.41
665.774	0.41
666.1	0.41
666.427	0.4
666.753	0.4
667.079	0.39
667.406	0.39
667.732	0.39
668.058	0.39
668.384	0.39
668.71	0.39
669.036	0.39
669.362	0.38
669.688	0.38
670.014	0.38
670.34	0.38
670.666	0.37
670.991	0.37
671.317	0.37
671.643	0.37
671.968	0.36
672.294	0.36
672.619	0.36
672.945	0.35
673.27	0.35
673.595	0.35
673.92	0.34
674.246	0.34
674.571	0.34
674.896	0.34
675.221	0.34
675.546	0.33
675.87	0.33
676.195	0.33
676.52	0.33
676.845	0.32
677.169	0.32
677.494	0.32
677.819	0.31
678.143	0.31
678.468	0.31
678.792	0.31
679.116	0.31
679.44	0.3
679.765	0.3
680.089	0.29
680.413	0.29
680.737	0.29
681.061	0.29
681.385	0.28
681.709	0.28
682.033	0.28
682.356	0.27
682.68	0.27
683.004	0.27
683.327	0.27
683.651	0.26
683.974	0.26
684.298	0.26
684.621	0.26
684.944	0.25
685.268	0.25
685.591	0.25
685.914	0.24
686.237	0.24
686.56	0.24
686.883	0.23
687.206	0.23
687.529	0.23
687.852	0.22
688.175	0.22
688.497	0.23
688.82	0.22
689.142	0.22
689.465	0.22
689.787	0.21
690.11	0.21
690.432	0.21
690.755	0.21
691.077	0.2
691.399	0.2
691.721	0.2
692.043	0.19
692.365	0.19
692.687	0.19
693.009	0.19
693.331	0.18
693.653	0.18
693.974	0.18
694.296	0.18
694.618	0.18
694.939	0.17
695.261	0.17
695.582	0.17
695.904	0.17
696.225	0.17
696.546	0.17
696.868	0.17
697.189	0.16
697.51	0.16
697.831	0.16
698.152	0.16
698.473	0.15
698.794	0.15
699.114	0.14
699.435	0.13
699.756	0.14
700.077	0.14
700.397	0.15
700.718	0.14
701.038	0.14
701.359	0.15
701.679	0.15
701.999	0.14
702.32	0.14
702.64	0.14
702.96	0.14
703.28	0.14
703.6	0.14
703.92	0.14
704.24	0.13
704.56	0.13
704.879	0.13
705.199	0.13
705.519	0.13
705.838	0.13
706.158	0.13
706.478	0.13
706.797	0.13
707.116	0.13
707.436	0.13
707.755	0.13
708.074	0.13
708.393	0.12
708.712	0.12
709.031	0.11
709.35	0.11
709.669	0.11
709.988	0.11
710.307	0.11
710.626	0.12
710.944	0.12
711.263	0.12
711.582	0.12
711.9	0.12
712.219	0.12
712.537	0.12
712.855	0.12
713.174	0.12
713.492	0.12
713.81	0.12
714.128	0.12
714.446	0.12
714.764	0.11
715.082	0.11
715.4	0.12
715.718	0.12
716.035	0.12
716.353	0.12
716.671	0.12
716.988	0.12
717.306	0.12
717.623	0.12
717.941	0.13
718.258	0.13
718.575	0.13
718.893	0.13
719.21	0.13
719.527	0.12
719.844	0.12
720.161	0.12
720.478	0.12
720.795	0.12
721.112	0.13
721.428	0.13
721.745	0.13
722.062	0.13
722.378	0.14
722.695	0.13
723.011	0.13
723.328	0.13
723.644	0.13
723.96	0.13
724.276	0.13
724.593	0.13
724.909	0.13
725.225	0.13
725.541	0.13
725.857	0.13
726.173	0.13
726.488	0.13
726.804	0.13
727.12	0.12
727.435	0.12
727.751	0.12
728.067	0.12
728.382	0.13
728.697	0.13
729.013	0.13
729.328	0.13
729.643	0.12
729.958	0.12
730.273	0.12
730.588	0.12
730.903	0.13
731.218	0.12
731.533	0.13
731.848	0.12
732.163	0.13
732.477	0.12
732.792	0.12
733.107	0.11
733.421	0.12
733.736	0.12
734.05	0.12
734.364	0.12
734.678	0.12
734.993	0.12
735.307	0.12
735.621	0.11
735.935	0.12
736.249	0.11
736.563	0.12
736.877	0.12
737.19	0.12
737.504	0.12
737.818	0.12
738.131	0.12
738.445	0.12
738.758	0.12
739.072	0.12
739.385	0.12
739.698	0.12
740.012	0.12
740.325	0.12
740.638	0.11
740.951	0.11
741.264	0.11
741.577	0.11
741.89	0.12
742.203	0.11
742.515	0.11
742.828	0.11
743.141	0.11
743.453	0.11
743.766	0.11
744.078	0.11
744.391	0.1
744.703	0.1
745.015	0.1
745.327	0.1
745.639	0.1
745.952	0.1
746.264	0.11
746.575	0.11
746.887	0.11
747.199	0.1
747.511	0.1
747.823	0.1
748.134	0.1
748.446	0.1
748.757	0.09
749.069	0.09
749.38	0.09
749.692	0.09
750.003	0.08
750.314	0.08
750.625	0.08
750.936	0.08
751.248	0.08
751.559	0.09
751.869	0.09
752.18	0.09
752.491	0.08
752.802	0.08
753.112	0.08
753.423	0.08
753.734	0.08
754.044	0.07
754.355	0.07
754.665	0.07
754.975	0.07
755.285	0.07
755.596	0.07
755.906	0.07
756.216	0.07
756.526	0.07
756.836	0.07
757.146	0.07
757.455	0.07
757.765	0.07
758.075	0.07
758.385	0.06
758.694	0.06
759.004	0.06
759.313	0.06
759.622	0.06
759.932	0.07
760.241	0.07
760.55	0.07
760.859	0.07
761.168	0.07
761.477	0.07
761.786	0.07
762.095	0.07
762.404	0.06
762.713	0.07
763.021	0.06
763.33	0.07
763.639	0.07
763.947	0.07
764.256	0.07
764.564	0.07
764.872	0.07
765.181	0.06
765.489	0.06
765.797	0.06
766.105	0.06
766.413	0.06
766.721	0.06
767.029	0.06
767.337	0.06
767.644	0.06
767.952	0.06
768.26	0.06
768.567	0.06
768.875	0.07
769.182	0.06
769.49	0.06
769.797	0.06
770.104	0.06
770.411	0.06
770.718	0.06
771.026	0.06
771.333	0.06
771.639	0.06
771.946	0.06
772.253	0.06
772.56	0.06
772.867	0.06
773.173	0.06
773.48	0.06
773.786	0.06
774.093	0.06
774.399	0.06
774.705	0.07
775.012	0.07
775.318	0.07
775.624	0.07
775.93	0.07
776.236	0.07
776.542	0.07
776.848	0.07
777.154	0.07
777.459	0.07
777.765	0.07
778.071	0.07
778.376	0.07
778.682	0.07
778.987	0.07
779.292	0.07
779.598	0.06
779.903	0.06
780.208	0.06
780.513	0.06
780.818	0.06
781.123	0.06
781.428	0.07
781.733	0.07
782.038	0.06
782.343	0.06
782.647	0.06
782.952	0.06
783.256	0.06
783.561	0.06
783.865	0.06
784.17	0.06
784.474	0.06
784.778	0.06
785.082	0.06
785.386	0.06
785.69	0.06
785.994	0.07
786.298	0.06
786.602	0.06
786.906	0.07
787.209	0.07
787.513	0.07
787.817	0.07
788.12	0.07
788.424	0.08
788.727	0.08
789.03	0.08
789.333	0.07
789.637	0.08
789.94	0.08
790.243	0.08
790.546	0.08
790.849	0.08
791.152	0.08
791.454	0.08
791.757	0.08
792.06	0.08
792.362	0.08
792.665	0.08
792.967	0.08
793.27	0.08
793.572	0.08
793.874	0.08
794.177	0.08
794.479	0.08
794.781	0.08
795.083	0.09
795.385	0.09
795.687	0.09
795.989	0.09
796.29	0.09
796.592	0.09
796.894	0.09
797.195	0.09
797.497	0.09
797.798	0.09
798.1	0.09
798.401	0.09
798.702	0.09
799.003	0.09
799.304	0.08
799.605	0.09
799.906	0.08
800.207	0.08
800.508	0.09
800.809	0.09
801.11	0.09
801.41	0.09
801.711	0.09
802.011	0.1
802.312	0.1
802.612	0.1
802.913	0.09
803.213	0.1
803.513	0.09
803.813	0.1
804.113	0.09
804.413	0.1
804.713	0.1
805.013	0.11
805.313	0.1
805.613	0.1
805.912	0.1
806.212	0.1
806.511	0.1
806.811	0.1
807.11	0.1
807.41	0.1
807.709	0.1
808.008	0.1
808.307	0.11
808.606	0.1
808.905	0.1
809.204	0.1
809.503	0.1
809.802	0.1
810.101	0.1
810.399	0.11
810.698	0.11
810.997	0.11
811.295	0.1
811.593	0.11
811.892	0.11
812.19	0.11
812.488	0.11
812.786	0.11
813.084	0.11
813.383	0.11
813.68	0.11
813.978	0.12
814.276	0.12
814.574	0.12
814.872	0.11
815.169	0.11
815.467	0.11
815.764	0.11
816.062	0.11
816.359	0.11
816.656	0.11
816.954	0.11
817.251	0.11
817.548	0.12
817.845	0.12
818.142	0.12
818.439	0.12
818.735	0.13
819.032	0.12
819.329	0.13
819.626	0.13
819.922	0.13
820.219	0.13
820.515	0.13
820.811	0.14
821.108	0.13
821.404	0.13
821.7	0.13
821.996	0.13
822.292	0.13
822.588	0.13
822.884	0.13
823.18	0.14
823.475	0.14
823.771	0.14
824.067	0.14
824.362	0.14
824.658	0.14
824.953	0.14
825.249	0.14
825.544	0.14
825.839	0.14
826.134	0.14
826.429	0.14
826.724	0.14
827.019	0.14
827.314	0.14
827.609	0.15
827.904	0.14
828.198	0.14
828.493	0.15
828.787	0.15
829.082	0.15
829.376	0.16
829.671	0.16
829.965	0.16
830.259	0.16
830.553	0.16
830.847	0.16
831.141	0.16
831.435	0.16
831.729	0.17
832.023	0.16
832.317	0.16
832.61	0.16
832.904	0.16
833.197	0.16
833.491	0.16
833.784	0.16
834.077	0.17
834.371	0.16
834.664	0.16
834.957	0.17
835.25	0.16
835.543	0.17
835.836	0.17
836.129	0.17
836.421	0.16
836.714	0.16
837.007	0.16
837.299	0.16
837.592	0.16
837.884	0.17
838.177	0.17
838.469	0.17
838.761	0.17
839.053	0.17
839.345	0.17
839.637	0.16
839.929	0.17
840.221	0.17
840.513	0.17
840.805	0.18
841.096	0.17
841.388	0.18
841.68	0.18
841.971	0.18
842.262	0.18
842.554	0.18
842.845	0.17
843.136	0.17
843.427	0.19
843.718	0.18
844.009	0.18
844.3	0.18
844.591	0.17
844.882	0.19
845.173	0.19
845.463	0.18
845.754	0.2
846.044	0.18
846.335	0.18
846.625	0.19
846.915	0.18
847.206	0.18
847.496	0.18
847.786	0.19
848.076	0.18
848.366	0.19
848.656	0.19
848.945	0.19
849.235	0.18
849.525	0.17
849.814	0.18
850.104	0.18
850.393	0.19
850.683	0.19
850.972	0.2
851.261	0.19
851.551	0.21
851.84	0.2
852.129	0.2
852.418	0.2
852.707	0.21
852.995	0.19
853.284	0.19
853.573	0.19
853.862	0.2
854.15	0.19
854.439	0.19
854.727	0.2
855.015	0.2
855.304	0.21
855.592	0.2
855.88	0.21
856.168	0.21
856.456	0.2
856.744	0.21
857.032	0.2
857.32	0.2
857.607	0.2
857.895	0.21
858.183	0.21
858.47	0.21
858.757	0.2
859.045	0.21
859.332	0.21
859.619	0.22
859.907	0.22
860.194	0.2
860.481	0.21
860.768	0.2
861.054	0.21
861.341	0.21
861.628	0.24
861.915	0.2
862.201	0.19
862.488	0.21
862.774	0.21
863.061	0.22
863.347	0.2
863.633	0.22
863.919	0.19
864.205	0.22
864.491	0.24
864.777	0.24
865.063	0.2
865.349	0.22
865.635	0.21
865.92	0.22
866.206	0.22
866.492	0.2
866.777	0.23
867.062	0.22
867.348	0.22
867.633	0.18
867.918	0.24
868.203	0.21
868.488	0.21
868.773	0.27
869.058	0.25
869.343	0.25
869.628	0.21
869.912	0.22
870.197	0.2
870.482	0.19
870.766	0.26
871.05	0.21
871.335	0.21
871.619	0.21
871.903	0.26
872.187	0.21
872.471	0.24
872.755	0.26
873.039	0.19
873.323	0.3
873.607	0.24
873.89	0.22
874.174	0.17
874.458	0.24
874.741	0.23
875.024	0.19
875.308	0.23
875.591	0.22
875.874	0.22
876.157	0.15
876.44	0.19
876.723	0.14
877.006	0.21
877.289	0.18
877.572	0.19
877.854	0.23
878.137	0.15
878.42	0.3
878.702	0.18
878.984	0.38
879.267	0.3
879.549	0.15
879.831	0.2
880.113	0.1
880.395	0.23
880.677	0.09
880.959	0.15
