Data from Rubpy_BV_1800_EDTA_Buffered_Absorbance_15-12-41-952.txt Node
Date: Wed Jul 01 15:12:41 BST 2026
User: fpm-admin
Spectrometer: OFX00224
Trigger mode: 0
Integration Time (sec): 7.000000E-2
Scans to average: 3
Nonlinearity correction enabled: false
Boxcar width: 0
Storing dark spectrum: false
XAxis mode: Wavelengths
Number of Pixels in Spectrum: 2136
>>>>>Begin Spectral Data<<<<<
154.91	-0.31
155.289	1.22
155.669	-1
156.048	-0
156.428	0.32
156.807	-0
157.186	-0
157.566	-0.3
157.945	1.11
158.325	0.13
158.704	-0
159.083	-0
159.462	-0.6
159.842	-0
160.221	-0
160.6	0.21
160.979	0.27
161.359	-0
161.738	0.31
162.117	-0.3
162.496	0.78
162.875	1.23
163.254	0.68
163.633	-0
164.012	0.15
164.391	-0.51
164.77	-0.24
165.149	0.48
165.528	-0
165.907	-1.04
166.286	-0.01
166.665	0.04
167.044	0.46
167.423	-0.31
167.802	-0
168.181	-0.04
168.559	0.18
168.938	-0.74
169.317	-0
169.696	-0
170.074	0.18
170.453	0.54
170.832	0.43
171.21	-0
171.589	-0
171.968	0.69
172.346	-0
172.725	0.05
173.103	0.29
173.482	0.31
173.861	-0
174.239	-0
174.617	-0
174.996	0.15
175.374	-0
175.753	0.54
176.131	-0
176.51	-0.23
176.888	-0
177.266	-0
177.645	-0.02
178.023	1.97
178.401	-0.02
178.779	-0.37
179.158	-1.3
179.536	-0.49
179.914	-0.43
180.292	0.75
180.67	-0.31
181.048	-0
181.427	-0
181.805	-0
182.183	-1.11
182.561	-0
182.939	-0.59
183.317	-0
183.695	-0
184.073	0.04
184.451	0.15
184.829	-0.21
185.206	-0
185.584	-0
185.962	-0
186.34	1.11
186.718	-0.81
187.096	-0
187.473	0.07
187.851	0.99
188.229	-0
188.607	0.29
188.984	0.4
189.362	0.28
189.74	0.29
190.117	0.36
190.495	0.3
190.872	0.35
191.25	0.33
191.627	0.43
192.005	0.46
192.382	0.19
192.76	0.37
193.137	0.38
193.515	0.31
193.892	0.34
194.269	0.42
194.647	0.57
195.024	0.14
195.401	0.45
195.779	0.3
196.156	0.41
196.533	0.31
196.91	0.14
197.288	0.32
197.665	0.35
198.042	0.68
198.419	0.24
198.796	0.22
199.173	0.43
199.55	0.29
199.927	0.34
200.304	0.35
200.681	0.67
201.058	0.23
201.435	0.56
201.812	0.3
202.189	0.38
202.566	0.55
202.943	0.29
203.32	0.37
203.697	0.34
204.073	0.44
204.45	0.37
204.827	0.31
205.204	0.34
205.58	0.37
205.957	0.27
206.334	0.21
206.71	0.31
207.087	0.43
207.464	0.28
207.84	0.35
208.217	0.47
208.593	0.26
208.97	0.33
209.346	0.49
209.723	0.54
210.099	0.36
210.476	0.33
210.852	0.26
211.228	0.31
211.605	0.34
211.981	0.58
212.357	0.31
212.733	0.58
213.11	0.35
213.486	0.31
213.862	0.33
214.238	0.4
214.614	0.4
214.991	0.35
215.367	0.45
215.743	0.33
216.119	0.53
216.495	0.5
216.871	0.41
217.247	0.36
217.623	0.34
217.999	0.24
218.375	0.34
218.751	0.56
219.127	0.45
219.502	0.4
219.878	0.4
220.254	0.45
220.63	0.35
221.006	0.4
221.381	0.29
221.757	0.28
222.133	0.39
222.508	0.63
222.884	0.45
223.26	0.31
223.635	0.42
224.011	0.37
224.386	0.29
224.762	0.36
225.137	0.37
225.513	0.26
225.888	0.26
226.264	0.49
226.639	0.33
227.014	0.27
227.39	0.4
227.765	0.32
228.14	0.49
228.516	0.48
228.891	0.38
229.266	0.29
229.641	0.3
230.017	0.23
230.392	0.39
230.767	0.34
231.142	0.36
231.517	0.15
231.892	0.3
232.267	0.26
232.642	0.4
233.017	0.34
233.392	0.36
233.767	0.46
234.142	0.3
234.517	0.41
234.892	0.34
235.267	0.36
235.641	0.36
236.016	0.3
236.391	0.4
236.766	0.45
237.14	0.38
237.515	0.37
237.89	0.32
238.264	0.28
238.639	0.25
239.014	0.3
239.388	0.39
239.763	0.55
240.137	0.44
240.512	0.35
240.886	0.43
241.261	0.32
241.635	0.26
242.009	0.37
242.384	0.37
242.758	0.3
243.132	0.45
243.507	0.41
243.881	0.3
244.255	0.27
244.629	0.32
245.004	0.52
245.378	0.29
245.752	0.33
246.126	0.41
246.5	0.36
246.874	0.52
247.248	0.37
247.622	0.4
247.996	0.42
248.37	0.31
248.744	0.41
249.118	0.25
249.492	0.49
249.866	0.32
250.24	0.55
250.613	0.42
250.987	0.44
251.361	0.44
251.735	0.43
252.108	0.31
252.482	0.33
252.856	0.38
253.229	0.33
253.603	0.36
253.977	0.33
254.35	0.26
254.724	0.42
255.097	0.32
255.471	0.42
255.844	0.42
256.218	0.27
256.591	0.36
256.964	0.27
257.338	0.39
257.711	0.29
258.084	0.42
258.458	0.38
258.831	0.38
259.204	0.44
259.577	0.39
259.95	0.28
260.323	0.36
260.697	0.3
261.07	0.32
261.443	0.48
261.816	0.31
262.189	0.41
262.562	0.39
262.935	0.33
263.308	0.26
263.68	0.4
264.053	0.32
264.426	0.37
264.799	0.46
265.172	0.36
265.545	0.42
265.917	0.34
266.29	0.35
266.663	0.47
267.035	0.32
267.408	0.46
267.781	0.49
268.153	0.47
268.526	0.4
268.898	0.38
269.271	0.34
269.643	0.38
270.016	0.34
270.388	0.36
270.76	0.39
271.133	0.44
271.505	0.44
271.877	0.44
272.25	0.46
272.622	0.34
272.994	0.57
273.366	0.38
273.739	0.35
274.111	0.31
274.483	0.43
274.855	0.41
275.227	0.33
275.599	0.36
275.971	0.29
276.343	0.36
276.715	0.34
277.087	0.36
277.459	0.22
277.831	0.39
278.203	0.38
278.574	0.3
278.946	0.32
279.318	0.4
279.69	0.36
280.061	0.34
280.433	0.32
280.805	0.37
281.176	0.26
281.548	0.43
281.92	0.29
282.291	0.37
282.663	0.38
283.034	0.31
283.406	0.36
283.777	0.4
284.148	0.34
284.52	0.38
284.891	0.44
285.262	0.42
285.634	0.44
286.005	0.37
286.376	0.38
286.747	0.39
287.119	0.45
287.49	0.43
287.861	0.4
288.232	0.41
288.603	0.36
288.974	0.29
289.345	0.33
289.716	0.41
290.087	0.41
290.458	0.34
290.829	0.33
291.2	0.39
291.571	0.36
291.941	0.39
292.312	0.44
292.683	0.33
293.054	0.39
293.424	0.32
293.795	0.33
294.166	0.4
294.536	0.37
294.907	0.42
295.277	0.38
295.648	0.3
296.018	0.35
296.389	0.31
296.759	0.34
297.13	0.44
297.5	0.35
297.871	0.39
298.241	0.44
298.611	0.36
298.981	0.34
299.352	0.42
299.722	0.37
300.092	0.36
300.462	0.34
300.832	0.44
301.202	0.42
301.573	0.32
301.943	0.43
302.313	0.37
302.683	0.38
303.053	0.34
303.422	0.37
303.792	0.31
304.162	0.37
304.532	0.33
304.902	0.48
305.272	0.38
305.641	0.35
306.011	0.31
306.381	0.34
306.75	0.27
307.12	0.35
307.49	0.41
307.859	0.34
308.229	0.32
308.598	0.32
308.968	0.33
309.337	0.31
309.707	0.26
310.076	0.32
310.445	0.3
310.815	0.29
311.184	0.27
311.553	0.25
311.923	0.26
312.292	0.3
312.661	0.29
313.03	0.27
313.399	0.24
313.768	0.26
314.137	0.28
314.506	0.31
314.875	0.29
315.244	0.33
315.613	0.28
315.982	0.31
316.351	0.32
316.72	0.31
317.089	0.33
317.458	0.32
317.826	0.33
318.195	0.33
318.564	0.33
318.933	0.34
319.301	0.33
319.67	0.33
320.038	0.33
320.407	0.37
320.775	0.36
321.144	0.36
321.512	0.37
321.881	0.38
322.249	0.38
322.618	0.38
322.986	0.37
323.354	0.38
323.723	0.39
324.091	0.38
324.459	0.41
324.827	0.41
325.195	0.43
325.564	0.42
325.932	0.42
326.3	0.44
326.668	0.45
327.036	0.45
327.404	0.45
327.772	0.46
328.14	0.47
328.508	0.48
328.875	0.47
329.243	0.49
329.611	0.49
329.979	0.49
330.346	0.5
330.714	0.5
331.082	0.52
331.449	0.53
331.817	0.52
332.185	0.55
332.552	0.55
332.92	0.57
333.287	0.57
333.655	0.59
334.022	0.61
334.389	0.61
334.757	0.62
335.124	0.64
335.491	0.65
335.859	0.67
336.226	0.66
336.593	0.69
336.96	0.7
337.327	0.7
337.695	0.73
338.062	0.73
338.429	0.74
338.796	0.76
339.163	0.78
339.53	0.79
339.897	0.8
340.263	0.82
340.63	0.83
340.997	0.84
341.364	0.86
341.731	0.87
342.097	0.89
342.464	0.89
342.831	0.92
343.197	0.93
343.564	0.95
343.931	0.95
344.297	0.98
344.664	1
345.03	1
345.396	1.01
345.763	1.03
346.129	1.05
346.496	1.06
346.862	1.07
347.228	1.1
347.594	1.09
347.961	1.12
348.327	1.12
348.693	1.15
349.059	1.17
349.425	1.17
349.791	1.18
350.157	1.2
350.523	1.21
350.889	1.22
351.255	1.23
351.621	1.26
351.987	1.25
352.353	1.26
352.719	1.28
353.084	1.3
353.45	1.33
353.816	1.36
354.181	1.34
354.547	1.37
354.913	1.37
355.278	1.38
355.644	1.4
356.009	1.42
356.375	1.45
356.74	1.46
357.106	1.48
357.471	1.49
357.836	1.51
358.202	1.53
358.567	1.54
358.932	1.55
359.297	1.56
359.663	1.58
360.028	1.63
360.393	1.63
360.758	1.65
361.123	1.66
361.488	1.72
361.853	1.7
362.218	1.74
362.583	1.77
362.948	1.74
363.312	1.79
363.677	1.76
364.042	1.78
364.407	1.77
364.772	1.81
365.136	1.83
365.501	1.81
365.865	1.86
366.23	1.88
366.595	1.89
366.959	1.86
367.324	1.9
367.688	1.91
368.052	1.89
368.417	1.94
368.781	1.92
369.145	1.92
369.51	1.97
369.874	1.92
370.238	1.98
370.602	1.95
370.967	1.98
371.331	1.93
371.695	1.99
372.059	1.91
372.423	1.93
372.787	1.95
373.151	1.95
373.515	1.93
373.878	1.93
374.242	1.96
374.606	1.96
374.97	1.93
375.334	1.91
375.697	1.88
376.061	1.89
376.425	1.89
376.788	1.9
377.152	1.89
377.515	1.83
377.879	1.85
378.242	1.83
378.606	1.82
378.969	1.77
379.333	1.78
379.696	1.71
380.059	1.75
380.422	1.73
380.786	1.76
381.149	1.73
381.512	1.67
381.875	1.67
382.238	1.64
382.601	1.63
382.964	1.62
383.327	1.59
383.69	1.57
384.053	1.56
384.416	1.53
384.779	1.55
385.142	1.51
385.504	1.5
385.867	1.48
386.23	1.49
386.593	1.47
386.955	1.47
387.318	1.47
387.68	1.46
388.043	1.44
388.405	1.44
388.768	1.42
389.13	1.43
389.493	1.4
389.855	1.4
390.217	1.39
390.58	1.39
390.942	1.36
391.304	1.36
391.666	1.33
392.028	1.32
392.391	1.3
392.753	1.28
393.115	1.27
393.477	1.25
393.839	1.24
394.201	1.22
394.563	1.22
394.924	1.22
395.286	1.21
395.648	1.21
396.01	1.21
396.371	1.22
396.733	1.23
397.095	1.26
397.456	1.26
397.818	1.29
398.18	1.32
398.541	1.35
398.903	1.37
399.264	1.4
399.625	1.42
399.987	1.45
400.348	1.46
400.709	1.47
401.071	1.5
401.432	1.5
401.793	1.5
402.154	1.47
402.515	1.47
402.876	1.44
403.238	1.4
403.599	1.38
403.96	1.32
404.32	1.28
404.681	1.24
405.042	1.2
405.403	1.16
405.764	1.1
406.125	1.05
406.485	0.99
406.846	0.95
407.207	0.9
407.567	0.85
407.928	0.83
408.288	0.77
408.649	0.73
409.009	0.7
409.37	0.65
409.73	0.62
410.091	0.59
410.451	0.56
410.811	0.54
411.171	0.51
411.532	0.48
411.892	0.47
412.252	0.45
412.612	0.42
412.972	0.41
413.332	0.38
413.692	0.37
414.052	0.36
414.412	0.34
414.772	0.34
415.132	0.32
415.492	0.31
415.851	0.3
416.211	0.29
416.571	0.28
416.931	0.27
417.29	0.26
417.65	0.26
418.009	0.25
418.369	0.25
418.728	0.25
419.088	0.24
419.447	0.23
419.807	0.23
420.166	0.22
420.525	0.22
420.884	0.22
421.244	0.21
421.603	0.21
421.962	0.21
422.321	0.2
422.68	0.2
423.039	0.19
423.398	0.18
423.757	0.19
424.116	0.19
424.475	0.18
424.834	0.18
425.193	0.17
425.551	0.18
425.91	0.17
426.269	0.17
426.628	0.17
426.986	0.17
427.345	0.17
427.703	0.17
428.062	0.17
428.42	0.17
428.779	0.17
429.137	0.16
429.496	0.16
429.854	0.17
430.212	0.16
430.57	0.16
430.929	0.16
431.287	0.16
431.645	0.16
432.003	0.16
432.361	0.16
432.719	0.15
433.077	0.15
433.435	0.16
433.793	0.16
434.151	0.16
434.509	0.15
434.866	0.15
435.224	0.16
435.582	0.15
435.94	0.16
436.297	0.16
436.655	0.16
437.012	0.15
437.37	0.15
437.727	0.15
438.085	0.15
438.442	0.16
438.8	0.16
439.157	0.15
439.514	0.16
439.872	0.16
440.229	0.16
440.586	0.14
440.943	0.15
441.3	0.16
441.657	0.16
442.014	0.16
442.371	0.16
442.728	0.15
443.085	0.16
443.442	0.16
443.799	0.16
444.156	0.16
444.513	0.16
444.869	0.16
445.226	0.16
445.583	0.17
445.939	0.17
446.296	0.16
446.652	0.16
447.009	0.16
447.365	0.16
447.722	0.17
448.078	0.16
448.434	0.17
448.791	0.17
449.147	0.17
449.503	0.17
449.859	0.17
450.215	0.17
450.571	0.17
450.928	0.16
451.284	0.18
451.64	0.16
451.995	0.17
452.351	0.16
452.707	0.16
453.063	0.17
453.419	0.16
453.775	0.15
454.13	0.16
454.486	0.16
454.842	0.16
455.197	0.16
455.553	0.16
455.908	0.16
456.264	0.15
456.619	0.16
456.975	0.15
457.33	0.15
457.685	0.14
458.04	0.16
458.396	0.15
458.751	0.14
459.106	0.14
459.461	0.14
459.816	0.13
460.171	0.13
460.526	0.14
460.881	0.12
461.236	0.12
461.591	0.12
461.946	0.13
462.301	0.12
462.655	0.12
463.01	0.12
463.365	0.11
463.719	0.11
464.074	0.11
464.428	0.09
464.783	0.09
465.137	0.1
465.492	0.1
465.846	0.09
466.201	0.1
466.555	0.11
466.909	0.11
467.263	0.11
467.618	0.11
467.972	0.11
468.326	0.12
468.68	0.11
469.034	0.1
469.388	0.09
469.742	0.1
470.096	0.11
470.45	0.12
470.804	0.12
471.157	0.12
471.511	0.12
471.865	0.12
472.218	0.12
472.572	0.14
472.926	0.14
473.279	0.14
473.633	0.15
473.986	0.17
474.34	0.18
474.693	0.18
475.046	0.2
475.4	0.2
475.753	0.21
476.106	0.22
476.459	0.23
476.812	0.24
477.165	0.25
477.519	0.26
477.872	0.26
478.224	0.27
478.577	0.28
478.93	0.29
479.283	0.29
479.636	0.31
479.989	0.31
480.341	0.32
480.694	0.33
481.047	0.33
481.399	0.34
481.752	0.36
482.104	0.36
482.457	0.36
482.809	0.37
483.162	0.38
483.514	0.38
483.866	0.39
484.219	0.39
484.571	0.39
484.923	0.4
485.275	0.41
485.627	0.41
485.979	0.42
486.331	0.42
486.683	0.43
487.035	0.44
487.387	0.45
487.739	0.46
488.091	0.46
488.443	0.47
488.794	0.47
489.146	0.47
489.498	0.48
489.849	0.48
490.201	0.48
490.552	0.49
490.904	0.49
491.255	0.5
491.607	0.5
491.958	0.5
492.309	0.51
492.661	0.52
493.012	0.52
493.363	0.53
493.714	0.53
494.065	0.53
494.416	0.54
494.767	0.55
495.118	0.55
495.469	0.56
495.82	0.56
496.171	0.57
496.522	0.57
496.872	0.58
497.223	0.58
497.574	0.58
497.924	0.59
498.275	0.59
498.626	0.6
498.976	0.6
499.327	0.61
499.677	0.61
500.027	0.62
500.378	0.62
500.728	0.63
501.078	0.63
501.428	0.64
501.779	0.64
502.129	0.65
502.479	0.64
502.829	0.66
503.179	0.66
503.529	0.66
503.879	0.68
504.229	0.67
504.578	0.68
504.928	0.69
505.278	0.69
505.628	0.69
505.977	0.69
506.327	0.7
506.676	0.71
507.026	0.72
507.375	0.72
507.725	0.72
508.074	0.72
508.424	0.73
508.773	0.73
509.122	0.74
509.471	0.74
509.82	0.74
510.17	0.75
510.519	0.75
510.868	0.76
511.217	0.76
511.566	0.76
511.915	0.77
512.263	0.78
512.612	0.77
512.961	0.78
513.31	0.78
513.659	0.79
514.007	0.8
514.356	0.79
514.704	0.8
515.053	0.8
515.401	0.8
515.75	0.81
516.098	0.81
516.447	0.82
516.795	0.82
517.143	0.82
517.491	0.82
517.839	0.82
518.188	0.82
518.536	0.83
518.884	0.84
519.232	0.85
519.58	0.85
519.928	0.84
520.275	0.85
520.623	0.85
520.971	0.87
521.319	0.87
521.666	0.87
522.014	0.87
522.362	0.87
522.709	0.87
523.057	0.88
523.404	0.88
523.752	0.88
524.099	0.89
524.446	0.89
524.794	0.89
525.141	0.9
525.488	0.91
525.835	0.9
526.182	0.9
526.529	0.9
526.876	0.91
527.223	0.91
527.57	0.91
527.917	0.92
528.264	0.91
528.611	0.92
528.958	0.91
529.304	0.93
529.651	0.92
529.998	0.92
530.344	0.93
530.691	0.94
531.037	0.93
531.384	0.95
531.73	0.93
532.076	0.94
532.423	0.94
532.769	0.94
533.115	0.96
533.461	0.94
533.807	0.95
534.154	0.96
534.5	0.96
534.846	0.96
535.192	0.95
535.537	0.96
535.883	0.96
536.229	0.96
536.575	0.97
536.921	0.97
537.266	0.97
537.612	0.97
537.957	0.96
538.303	0.96
538.649	0.97
538.994	0.97
539.339	0.98
539.685	0.98
540.03	0.98
540.375	0.98
540.721	0.98
541.066	0.99
541.411	0.98
541.756	0.99
542.101	0.99
542.446	0.99
542.791	0.99
543.136	0.99
543.481	0.99
543.825	1
544.17	0.99
544.515	1
544.86	0.99
545.204	1
545.549	1
545.893	1.01
546.238	1
546.582	1
546.927	1
547.271	1
547.615	1
547.96	1
548.304	1
548.648	1.01
548.992	1.01
549.336	1
549.68	1
550.024	1.01
550.368	1.01
550.712	1.01
551.056	1
551.4	1
551.743	1
552.087	1
552.431	1.01
552.774	1
553.118	1.01
553.462	1
553.805	1
554.148	1
554.492	1
554.835	1
555.178	1
555.522	1.01
555.865	1
556.208	1
556.551	1
556.894	1
557.237	1.01
557.58	1
557.923	1
558.266	0.99
558.609	1
558.952	1
559.294	1
559.637	0.99
559.98	1
560.322	0.99
560.665	0.99
561.007	0.99
561.35	0.99
561.692	0.99
562.034	0.98
562.377	0.98
562.719	0.99
563.061	0.98
563.403	0.98
563.745	0.98
564.088	0.98
564.43	0.98
564.772	0.98
565.113	0.97
565.455	0.98
565.797	0.98
566.139	0.97
566.481	0.97
566.822	0.98
567.164	0.97
567.506	0.97
567.847	0.97
568.189	0.96
568.53	0.96
568.872	0.96
569.213	0.96
569.554	0.96
569.895	0.95
570.237	0.95
570.578	0.95
570.919	0.95
571.26	0.94
571.601	0.95
571.942	0.95
572.283	0.94
572.624	0.94
572.965	0.93
573.306	0.93
573.646	0.93
573.987	0.93
574.328	0.93
574.668	0.93
575.009	0.92
575.349	0.92
575.69	0.92
576.03	0.92
576.37	0.91
576.711	0.91
577.051	0.91
577.391	0.91
577.731	0.91
578.072	0.91
578.412	0.89
578.752	0.9
579.092	0.9
579.431	0.88
579.771	0.87
580.111	0.86
580.451	0.88
580.791	0.89
581.13	0.89
581.47	0.88
581.81	0.89
582.149	0.88
582.489	0.88
582.828	0.86
583.167	0.83
583.507	0.8
583.846	0.79
584.185	0.83
584.525	0.86
584.864	0.87
585.203	0.87
585.542	0.88
585.881	0.87
586.22	0.86
586.559	0.86
586.898	0.84
587.236	0.84
587.575	0.85
587.914	0.85
588.252	0.86
588.591	0.86
588.93	0.86
589.268	0.85
589.607	0.85
589.945	0.86
590.283	0.85
590.622	0.86
590.96	0.86
591.298	0.86
591.636	0.86
591.974	0.85
592.313	0.85
592.651	0.86
592.989	0.85
593.326	0.85
593.664	0.85
594.002	0.85
594.34	0.85
594.678	0.84
595.015	0.84
595.353	0.84
595.691	0.85
596.028	0.85
596.366	0.85
596.703	0.85
597.04	0.85
597.378	0.85
597.715	0.85
598.052	0.85
598.389	0.85
598.726	0.85
599.064	0.85
599.401	0.84
599.738	0.84
600.074	0.84
600.411	0.84
600.748	0.83
601.085	0.83
601.422	0.83
601.758	0.83
602.095	0.83
602.432	0.83
602.768	0.82
603.105	0.83
603.441	0.83
603.777	0.83
604.114	0.82
604.45	0.84
604.786	0.82
605.122	0.82
605.459	0.82
605.795	0.82
606.131	0.82
606.467	0.81
606.803	0.81
607.139	0.81
607.474	0.8
607.81	0.81
608.146	0.8
608.482	0.8
608.817	0.8
609.153	0.8
609.488	0.79
609.824	0.79
610.159	0.79
610.495	0.79
610.83	0.78
611.165	0.78
611.5	0.78
611.836	0.78
612.171	0.77
612.506	0.77
612.841	0.78
613.176	0.77
613.511	0.76
613.845	0.76
614.18	0.76
614.515	0.76
614.85	0.75
615.184	0.76
615.519	0.75
615.854	0.75
616.188	0.75
616.523	0.74
616.857	0.74
617.191	0.74
617.526	0.74
617.86	0.74
618.194	0.73
618.528	0.73
618.862	0.73
619.196	0.73
619.53	0.72
619.864	0.72
620.198	0.72
620.532	0.71
620.866	0.71
621.2	0.71
621.533	0.7
621.867	0.7
622.201	0.7
622.534	0.7
622.868	0.7
623.201	0.69
623.534	0.68
623.868	0.68
624.201	0.68
624.534	0.68
624.868	0.68
625.201	0.68
625.534	0.67
625.867	0.67
626.2	0.66
626.533	0.66
626.865	0.66
627.198	0.66
627.531	0.66
627.864	0.65
628.196	0.64
628.529	0.65
628.862	0.64
629.194	0.64
629.527	0.64
629.859	0.63
630.191	0.63
630.524	0.63
630.856	0.62
631.188	0.62
631.52	0.61
631.852	0.6
632.184	0.6
632.516	0.6
632.848	0.6
633.18	0.59
633.512	0.59
633.844	0.59
634.175	0.58
634.507	0.58
634.839	0.58
635.17	0.57
635.502	0.57
635.833	0.57
636.165	0.56
636.496	0.55
636.827	0.55
637.159	0.55
637.49	0.55
637.821	0.54
638.152	0.54
638.483	0.54
638.814	0.54
639.145	0.53
639.476	0.53
639.807	0.52
640.137	0.52
640.468	0.52
640.799	0.51
641.129	0.51
641.46	0.5
641.791	0.5
642.121	0.5
642.451	0.5
642.782	0.49
643.112	0.49
643.442	0.49
643.773	0.48
644.103	0.48
644.433	0.48
644.763	0.48
645.093	0.48
645.423	0.47
645.753	0.47
646.082	0.47
646.412	0.47
646.742	0.46
647.072	0.46
647.401	0.46
647.731	0.46
648.06	0.46
648.39	0.45
648.719	0.45
649.048	0.45
649.378	0.45
649.707	0.44
650.036	0.44
650.365	0.44
650.694	0.44
651.023	0.44
651.352	0.43
651.681	0.44
652.01	0.43
652.339	0.43
652.668	0.43
652.996	0.42
653.325	0.43
653.654	0.42
653.982	0.42
654.311	0.42
654.639	0.42
654.967	0.42
655.296	0.41
655.624	0.41
655.952	0.41
656.28	0.41
656.609	0.41
656.937	0.41
657.265	0.39
657.593	0.23
657.92	0.14
658.248	0.12
658.576	0.19
658.904	0.31
659.231	0.39
659.559	0.4
659.887	0.39
660.214	0.39
660.542	0.39
660.869	0.39
661.196	0.39
661.524	0.39
661.851	0.39
662.178	0.38
662.505	0.39
662.832	0.38
663.159	0.38
663.486	0.38
663.813	0.38
664.14	0.37
664.467	0.38
664.794	0.37
665.12	0.37
665.447	0.37
665.774	0.37
666.1	0.36
666.427	0.36
666.753	0.36
667.079	0.36
667.406	0.35
667.732	0.35
668.058	0.35
668.384	0.35
668.71	0.35
669.036	0.35
669.362	0.35
669.688	0.34
670.014	0.34
670.34	0.34
670.666	0.34
670.991	0.33
671.317	0.33
671.643	0.33
671.968	0.33
672.294	0.32
672.619	0.32
672.945	0.32
673.27	0.32
673.595	0.31
673.92	0.31
674.246	0.31
674.571	0.31
674.896	0.31
675.221	0.3
675.546	0.3
675.87	0.3
676.195	0.3
676.52	0.3
676.845	0.29
677.169	0.29
677.494	0.29
677.819	0.29
678.143	0.28
678.468	0.28
678.792	0.28
679.116	0.28
679.44	0.28
679.765	0.27
680.089	0.27
680.413	0.26
680.737	0.26
681.061	0.26
681.385	0.25
681.709	0.25
682.033	0.25
682.356	0.25
682.68	0.25
683.004	0.24
683.327	0.24
683.651	0.23
683.974	0.23
684.298	0.23
684.621	0.23
684.944	0.23
685.268	0.22
685.591	0.22
685.914	0.22
686.237	0.21
686.56	0.21
686.883	0.21
687.206	0.21
687.529	0.2
687.852	0.2
688.175	0.2
688.497	0.2
688.82	0.2
689.142	0.2
689.465	0.19
689.787	0.19
690.11	0.19
690.432	0.19
690.755	0.19
691.077	0.18
691.399	0.18
691.721	0.17
692.043	0.18
692.365	0.18
692.687	0.17
693.009	0.17
693.331	0.16
693.653	0.16
693.974	0.16
694.296	0.16
694.618	0.16
694.939	0.16
695.261	0.15
695.582	0.15
695.904	0.15
696.225	0.16
696.546	0.15
696.868	0.15
697.189	0.15
697.51	0.14
697.831	0.14
698.152	0.14
698.473	0.14
698.794	0.13
699.114	0.13
699.435	0.12
699.756	0.13
700.077	0.13
700.397	0.13
700.718	0.13
701.038	0.13
701.359	0.13
701.679	0.13
701.999	0.13
702.32	0.13
702.64	0.12
702.96	0.12
703.28	0.13
703.6	0.12
703.92	0.12
704.24	0.12
704.56	0.11
704.879	0.12
705.199	0.12
705.519	0.12
705.838	0.11
706.158	0.12
706.478	0.12
706.797	0.12
707.116	0.12
707.436	0.12
707.755	0.12
708.074	0.12
708.393	0.11
708.712	0.1
709.031	0.09
709.35	0.1
709.669	0.09
709.988	0.1
710.307	0.1
710.626	0.11
710.944	0.11
711.263	0.11
711.582	0.11
711.9	0.11
712.219	0.11
712.537	0.1
712.855	0.11
713.174	0.11
713.492	0.11
713.81	0.11
714.128	0.11
714.446	0.11
714.764	0.1
715.082	0.1
715.4	0.1
715.718	0.1
716.035	0.1
716.353	0.11
716.671	0.11
716.988	0.11
717.306	0.1
717.623	0.11
717.941	0.11
718.258	0.12
718.575	0.12
718.893	0.12
719.21	0.11
719.527	0.11
719.844	0.11
720.161	0.11
720.478	0.11
720.795	0.11
721.112	0.11
721.428	0.12
721.745	0.12
722.062	0.12
722.378	0.12
722.695	0.12
723.011	0.12
723.328	0.12
723.644	0.12
723.96	0.12
724.276	0.12
724.593	0.12
724.909	0.12
725.225	0.12
725.541	0.12
725.857	0.12
726.173	0.12
726.488	0.12
726.804	0.11
727.12	0.11
727.435	0.11
727.751	0.11
728.067	0.11
728.382	0.11
728.697	0.11
729.013	0.12
729.328	0.11
729.643	0.11
729.958	0.11
730.273	0.11
730.588	0.11
730.903	0.11
731.218	0.11
731.533	0.11
731.848	0.11
732.163	0.11
732.477	0.11
732.792	0.11
733.107	0.1
733.421	0.11
733.736	0.11
734.05	0.11
734.364	0.1
734.678	0.11
734.993	0.1
735.307	0.11
735.621	0.1
735.935	0.1
736.249	0.1
736.563	0.1
736.877	0.1
737.19	0.11
737.504	0.11
737.818	0.11
738.131	0.11
738.445	0.11
738.758	0.11
739.072	0.11
739.385	0.11
739.698	0.11
740.012	0.11
740.325	0.11
740.638	0.1
740.951	0.11
741.264	0.1
741.577	0.1
741.89	0.1
742.203	0.1
742.515	0.11
742.828	0.1
743.141	0.1
743.453	0.1
743.766	0.1
744.078	0.09
744.391	0.09
744.703	0.09
745.015	0.09
745.327	0.09
745.639	0.09
745.952	0.09
746.264	0.1
746.575	0.1
746.887	0.09
747.199	0.09
747.511	0.09
747.823	0.09
748.134	0.09
748.446	0.08
748.757	0.08
749.069	0.08
749.38	0.08
749.692	0.08
750.003	0.07
750.314	0.07
750.625	0.07
750.936	0.07
751.248	0.07
751.559	0.08
751.869	0.08
752.18	0.08
752.491	0.07
752.802	0.07
753.112	0.07
753.423	0.07
753.734	0.07
754.044	0.07
754.355	0.07
754.665	0.06
754.975	0.06
755.285	0.06
755.596	0.06
755.906	0.06
756.216	0.06
756.526	0.06
756.836	0.06
757.146	0.06
757.455	0.06
757.765	0.06
758.075	0.06
758.385	0.06
758.694	0.05
759.004	0.05
759.313	0.05
759.622	0.05
759.932	0.06
760.241	0.06
760.55	0.06
760.859	0.06
761.168	0.06
761.477	0.06
761.786	0.06
762.095	0.06
762.404	0.06
762.713	0.06
763.021	0.05
763.33	0.05
763.639	0.06
763.947	0.06
764.256	0.06
764.564	0.06
764.872	0.06
765.181	0.06
765.489	0.05
765.797	0.05
766.105	0.05
766.413	0.05
766.721	0.05
767.029	0.06
767.337	0.06
767.644	0.06
767.952	0.06
768.26	0.06
768.567	0.06
768.875	0.06
769.182	0.06
769.49	0.05
769.797	0.06
770.104	0.05
770.411	0.05
770.718	0.05
771.026	0.05
771.333	0.05
771.639	0.05
771.946	0.05
772.253	0.05
772.56	0.05
772.867	0.05
773.173	0.06
773.48	0.05
773.786	0.05
774.093	0.05
774.399	0.06
774.705	0.06
775.012	0.06
775.318	0.06
775.624	0.06
775.93	0.06
776.236	0.06
776.542	0.06
776.848	0.07
777.154	0.06
777.459	0.06
777.765	0.06
778.071	0.06
778.376	0.06
778.682	0.06
778.987	0.06
779.292	0.06
779.598	0.06
779.903	0.06
780.208	0.05
780.513	0.05
780.818	0.05
781.123	0.05
781.428	0.06
781.733	0.06
782.038	0.05
782.343	0.05
782.647	0.05
782.952	0.05
783.256	0.05
783.561	0.05
783.865	0.05
784.17	0.05
784.474	0.05
784.778	0.05
785.082	0.05
785.386	0.05
785.69	0.05
785.994	0.05
786.298	0.05
786.602	0.05
786.906	0.06
787.209	0.06
787.513	0.06
787.817	0.06
788.12	0.06
788.424	0.07
788.727	0.07
789.03	0.07
789.333	0.06
789.637	0.06
789.94	0.07
790.243	0.07
790.546	0.07
790.849	0.07
791.152	0.07
791.454	0.07
791.757	0.07
792.06	0.07
792.362	0.07
792.665	0.07
792.967	0.07
793.27	0.07
793.572	0.07
793.874	0.07
794.177	0.07
794.479	0.07
794.781	0.07
795.083	0.08
795.385	0.07
795.687	0.08
795.989	0.08
796.29	0.08
796.592	0.08
796.894	0.08
797.195	0.08
797.497	0.07
797.798	0.08
798.1	0.08
798.401	0.08
798.702	0.08
799.003	0.07
799.304	0.07
799.605	0.07
799.906	0.07
800.207	0.07
800.508	0.07
800.809	0.08
801.11	0.08
801.41	0.08
801.711	0.08
802.011	0.09
802.312	0.08
802.612	0.08
802.913	0.08
803.213	0.08
803.513	0.08
803.813	0.08
804.113	0.08
804.413	0.08
804.713	0.08
805.013	0.09
805.313	0.09
805.613	0.09
805.912	0.09
806.212	0.08
806.511	0.08
806.811	0.09
807.11	0.09
807.41	0.09
807.709	0.09
808.008	0.09
808.307	0.09
808.606	0.09
808.905	0.08
809.204	0.08
809.503	0.08
809.802	0.09
810.101	0.09
810.399	0.1
810.698	0.09
810.997	0.09
811.295	0.1
811.593	0.09
811.892	0.1
812.19	0.09
812.488	0.1
812.786	0.09
813.084	0.09
813.383	0.1
813.68	0.1
813.978	0.1
814.276	0.1
814.574	0.1
814.872	0.1
815.169	0.1
815.467	0.1
815.764	0.1
816.062	0.09
816.359	0.09
816.656	0.1
816.954	0.1
817.251	0.1
817.548	0.1
817.845	0.1
818.142	0.11
818.439	0.11
818.735	0.11
819.032	0.11
819.329	0.11
819.626	0.11
819.922	0.11
820.219	0.11
820.515	0.11
820.811	0.12
821.108	0.12
821.404	0.11
821.7	0.11
821.996	0.11
822.292	0.11
822.588	0.11
822.884	0.12
823.18	0.12
823.475	0.12
823.771	0.13
824.067	0.12
824.362	0.13
824.658	0.13
824.953	0.12
825.249	0.12
825.544	0.12
825.839	0.13
826.134	0.12
826.429	0.12
826.724	0.12
827.019	0.12
827.314	0.12
827.609	0.13
827.904	0.13
828.198	0.12
828.493	0.13
828.787	0.13
829.082	0.13
829.376	0.13
829.671	0.14
829.965	0.14
830.259	0.14
830.553	0.14
830.847	0.14
831.141	0.14
831.435	0.14
831.729	0.14
832.023	0.14
832.317	0.15
832.61	0.13
832.904	0.14
833.197	0.14
833.491	0.14
833.784	0.14
834.077	0.14
834.371	0.14
834.664	0.15
834.957	0.15
835.25	0.14
835.543	0.14
835.836	0.15
836.129	0.14
836.421	0.15
836.714	0.14
837.007	0.14
837.299	0.14
837.592	0.14
837.884	0.15
838.177	0.14
838.469	0.15
838.761	0.14
839.053	0.15
839.345	0.15
839.637	0.14
839.929	0.14
840.221	0.15
840.513	0.14
840.805	0.15
841.096	0.16
841.388	0.16
841.68	0.16
841.971	0.16
842.262	0.16
842.554	0.16
842.845	0.16
843.136	0.15
843.427	0.16
843.718	0.16
844.009	0.15
844.3	0.15
844.591	0.15
844.882	0.16
845.173	0.17
845.463	0.15
845.754	0.18
846.044	0.15
846.335	0.16
846.625	0.16
846.915	0.16
847.206	0.16
847.496	0.17
847.786	0.15
848.076	0.16
848.366	0.16
848.656	0.15
848.945	0.17
849.235	0.15
849.525	0.15
849.814	0.15
850.104	0.15
850.393	0.16
850.683	0.18
850.972	0.17
851.261	0.17
851.551	0.18
851.84	0.19
852.129	0.18
852.418	0.18
852.707	0.18
852.995	0.18
853.284	0.17
853.573	0.18
853.862	0.17
854.15	0.17
854.439	0.16
854.727	0.16
855.015	0.17
855.304	0.18
855.592	0.18
855.88	0.18
856.168	0.19
856.456	0.19
856.744	0.16
857.032	0.17
857.32	0.17
857.607	0.17
857.895	0.17
858.183	0.18
858.47	0.18
858.757	0.19
859.045	0.19
859.332	0.19
859.619	0.18
859.907	0.16
860.194	0.17
860.481	0.19
860.768	0.18
861.054	0.18
861.341	0.19
861.628	0.18
861.915	0.16
862.201	0.19
862.488	0.19
862.774	0.19
863.061	0.21
863.347	0.19
863.633	0.21
863.919	0.19
864.205	0.18
864.491	0.19
864.777	0.22
865.063	0.19
865.349	0.19
865.635	0.21
865.92	0.18
866.206	0.19
866.492	0.18
866.777	0.22
867.062	0.22
867.348	0.2
867.633	0.18
867.918	0.22
868.203	0.18
868.488	0.19
868.773	0.23
869.058	0.19
869.343	0.2
869.628	0.17
869.912	0.16
870.197	0.21
870.482	0.2
870.766	0.21
871.05	0.22
871.335	0.22
871.619	0.2
871.903	0.18
872.187	0.17
872.471	0.25
872.755	0.21
873.039	0.18
873.323	0.2
873.607	0.24
873.89	0.21
874.174	0.19
874.458	0.27
874.741	0.16
875.024	0.21
875.308	0.24
875.591	0.17
875.874	0.22
876.157	0.13
876.44	0.11
876.723	0.17
877.006	0.18
877.289	0.18
877.572	0.3
877.854	0.18
878.137	0.07
878.42	0.17
878.702	0.17
878.984	0.23
879.267	0.27
879.549	0.13
879.831	0.22
880.113	0.07
880.395	0.11
880.677	0.14
880.959	0.19
