Data from Rubpy_BV_1800_EDTA_Buffered_Absorbance_15-11-25-000.txt Node
Date: Wed Jul 01 15:11:25 BST 2026
User: fpm-admin
Spectrometer: OFX00224
Trigger mode: 0
Integration Time (sec): 7.000000E-2
Scans to average: 3
Nonlinearity correction enabled: false
Boxcar width: 0
Storing dark spectrum: false
XAxis mode: Wavelengths
Number of Pixels in Spectrum: 2136
>>>>>Begin Spectral Data<<<<<
154.91	-0.5
155.289	0.74
155.669	-0.54
156.048	-0.66
156.428	-0
156.807	-0
157.186	-0
157.566	-0.27
157.945	-0.16
158.325	0.22
158.704	-0
159.083	-0
159.462	-0
159.842	-0
160.221	-1.27
160.6	-0.28
160.979	-0.08
161.359	1.19
161.738	-0
162.117	-0.06
162.496	-0.35
162.875	-0.17
163.254	-0
163.633	-0
164.012	-0.23
164.391	-0
164.77	-0
165.149	-0.58
165.528	-0.6
165.907	-0.9
166.286	-0.11
166.665	-0.05
167.044	0.24
167.423	0.17
167.802	-0
168.181	0.3
168.559	-0
168.938	-0.92
169.317	0.32
169.696	-0
170.074	0.1
170.453	-0
170.832	0.3
171.21	-0
171.589	-0
171.968	-0.13
172.346	-0
172.725	-0
173.103	0.07
173.482	0.51
173.861	-0.4
174.239	0.22
174.617	-0.79
174.996	0.35
175.374	-0
175.753	0.54
176.131	-0
176.51	0.32
176.888	-0
177.266	-0
177.645	-0.05
178.023	0.47
178.401	-0.08
178.779	-0.06
179.158	-0
179.536	-0.35
179.914	-0
180.292	0.49
180.67	0.08
181.048	-0.26
181.427	-0
181.805	-0.12
182.183	-0.78
182.561	-0.48
182.939	-0.52
183.317	-0
183.695	0.2
184.073	-0
184.451	0.11
184.829	-0.16
185.206	0.25
185.584	0.68
185.962	-0
186.34	0.36
186.718	-0.11
187.096	-0.54
187.473	-0.1
187.851	-0
188.229	-0
188.607	0.32
188.984	0.19
189.362	0.37
189.74	0.21
190.117	0.18
190.495	0.27
190.872	0.31
191.25	0.31
191.627	0.32
192.005	0.26
192.382	0.2
192.76	0.25
193.137	0.48
193.515	0.27
193.892	0.27
194.269	0.27
194.647	0.34
195.024	0.11
195.401	0.28
195.779	0.44
196.156	0.27
196.533	0.35
196.91	0.26
197.288	0.34
197.665	0.22
198.042	0.24
198.419	0.26
198.796	0.13
199.173	0.3
199.55	0.27
199.927	0.34
200.304	0.24
200.681	0.49
201.058	0.24
201.435	0.33
201.812	0.32
202.189	0.38
202.566	0.36
202.943	0.22
203.32	0.23
203.697	0.25
204.073	0.31
204.45	0.29
204.827	0.25
205.204	0.32
205.58	0.27
205.957	0.22
206.334	0.26
206.71	0.31
207.087	0.39
207.464	0.28
207.84	0.44
208.217	0.27
208.593	0.41
208.97	0.35
209.346	0.35
209.723	0.48
210.099	0.5
210.476	0.39
210.852	0.3
211.228	0.34
211.605	0.33
211.981	0.56
212.357	0.36
212.733	0.61
213.11	0.36
213.486	0.43
213.862	0.33
214.238	0.3
214.614	0.47
214.991	0.37
215.367	0.32
215.743	0.39
216.119	0.38
216.495	0.26
216.871	0.28
217.247	0.25
217.623	0.32
217.999	0.29
218.375	0.4
218.751	0.32
219.127	0.27
219.502	0.34
219.878	0.35
220.254	0.53
220.63	0.38
221.006	0.35
221.381	0.29
221.757	0.31
222.133	0.69
222.508	0.26
222.884	0.22
223.26	0.25
223.635	0.55
224.011	0.24
224.386	0.35
224.762	0.3
225.137	0.34
225.513	0.29
225.888	0.21
226.264	0.27
226.639	0.29
227.014	0.29
227.39	0.46
227.765	0.27
228.14	0.37
228.516	0.54
228.891	0.29
229.266	0.28
229.641	0.43
230.017	0.34
230.392	0.32
230.767	0.41
231.142	0.16
231.517	0.24
231.892	0.35
232.267	0.39
232.642	0.67
233.017	0.32
233.392	0.35
233.767	0.33
234.142	0.27
234.517	0.39
234.892	0.26
235.267	0.26
235.641	0.19
236.016	0.25
236.391	0.36
236.766	0.22
237.14	0.33
237.515	0.37
237.89	0.27
238.264	0.34
238.639	0.25
239.014	0.36
239.388	0.36
239.763	0.35
240.137	0.27
240.512	0.35
240.886	0.38
241.261	0.24
241.635	0.24
242.009	0.3
242.384	0.22
242.758	0.4
243.132	0.39
243.507	0.32
243.881	0.34
244.255	0.32
244.629	0.43
245.004	0.42
245.378	0.4
245.752	0.29
246.126	0.36
246.5	0.25
246.874	0.54
247.248	0.27
247.622	0.28
247.996	0.32
248.37	0.35
248.744	0.38
249.118	0.23
249.492	0.32
249.866	0.37
250.24	0.49
250.613	0.49
250.987	0.38
251.361	0.44
251.735	0.33
252.108	0.42
252.482	0.22
252.856	0.57
253.229	0.33
253.603	0.29
253.977	0.33
254.35	0.32
254.724	0.41
255.097	0.33
255.471	0.35
255.844	0.35
256.218	0.32
256.591	0.29
256.964	0.37
257.338	0.32
257.711	0.29
258.084	0.31
258.458	0.45
258.831	0.4
259.204	0.44
259.577	0.37
259.95	0.39
260.323	0.34
260.697	0.33
261.07	0.23
261.443	0.27
261.816	0.3
262.189	0.34
262.562	0.34
262.935	0.36
263.308	0.31
263.68	0.38
264.053	0.25
264.426	0.33
264.799	0.37
265.172	0.3
265.545	0.31
265.917	0.38
266.29	0.36
266.663	0.44
267.035	0.24
267.408	0.45
267.781	0.45
268.153	0.3
268.526	0.28
268.898	0.26
269.271	0.27
269.643	0.45
270.016	0.27
270.388	0.34
270.76	0.42
271.133	0.4
271.505	0.28
271.877	0.42
272.25	0.34
272.622	0.34
272.994	0.43
273.366	0.39
273.739	0.29
274.111	0.26
274.483	0.22
274.855	0.3
275.227	0.36
275.599	0.28
275.971	0.34
276.343	0.35
276.715	0.38
277.087	0.39
277.459	0.26
277.831	0.38
278.203	0.37
278.574	0.28
278.946	0.28
279.318	0.42
279.69	0.41
280.061	0.29
280.433	0.37
280.805	0.39
281.176	0.3
281.548	0.37
281.92	0.29
282.291	0.33
282.663	0.34
283.034	0.32
283.406	0.34
283.777	0.38
284.148	0.4
284.52	0.39
284.891	0.3
285.262	0.37
285.634	0.34
286.005	0.38
286.376	0.38
286.747	0.33
287.119	0.46
287.49	0.36
287.861	0.28
288.232	0.25
288.603	0.38
288.974	0.43
289.345	0.27
289.716	0.32
290.087	0.27
290.458	0.32
290.829	0.27
291.2	0.39
291.571	0.43
291.941	0.37
292.312	0.38
292.683	0.36
293.054	0.4
293.424	0.29
293.795	0.3
294.166	0.37
294.536	0.36
294.907	0.42
295.277	0.39
295.648	0.35
296.018	0.33
296.389	0.34
296.759	0.3
297.13	0.27
297.5	0.36
297.871	0.31
298.241	0.38
298.611	0.32
298.981	0.39
299.352	0.43
299.722	0.38
300.092	0.38
300.462	0.28
300.832	0.42
301.202	0.39
301.573	0.43
301.943	0.4
302.313	0.37
302.683	0.33
303.053	0.39
303.422	0.38
303.792	0.34
304.162	0.36
304.532	0.36
304.902	0.33
305.272	0.33
305.641	0.36
306.011	0.35
306.381	0.3
306.75	0.29
307.12	0.29
307.49	0.32
307.859	0.29
308.229	0.28
308.598	0.36
308.968	0.29
309.337	0.31
309.707	0.26
310.076	0.31
310.445	0.32
310.815	0.27
311.184	0.3
311.553	0.24
311.923	0.24
312.292	0.29
312.661	0.26
313.03	0.26
313.399	0.27
313.768	0.29
314.137	0.28
314.506	0.29
314.875	0.27
315.244	0.28
315.613	0.26
315.982	0.31
316.351	0.3
316.72	0.3
317.089	0.3
317.458	0.3
317.826	0.31
318.195	0.32
318.564	0.33
318.933	0.3
319.301	0.32
319.67	0.33
320.038	0.33
320.407	0.36
320.775	0.33
321.144	0.34
321.512	0.34
321.881	0.35
322.249	0.35
322.618	0.37
322.986	0.36
323.354	0.37
323.723	0.38
324.091	0.39
324.459	0.38
324.827	0.39
325.195	0.4
325.564	0.41
325.932	0.42
326.3	0.42
326.668	0.43
327.036	0.43
327.404	0.43
327.772	0.46
328.14	0.45
328.508	0.46
328.875	0.47
329.243	0.47
329.611	0.47
329.979	0.48
330.346	0.5
330.714	0.5
331.082	0.5
331.449	0.5
331.817	0.51
332.185	0.53
332.552	0.54
332.92	0.55
333.287	0.56
333.655	0.57
334.022	0.58
334.389	0.6
334.757	0.6
335.124	0.62
335.491	0.63
335.859	0.64
336.226	0.65
336.593	0.66
336.96	0.67
337.327	0.68
337.695	0.7
338.062	0.71
338.429	0.72
338.796	0.74
339.163	0.75
339.53	0.76
339.897	0.77
340.263	0.79
340.63	0.8
340.997	0.82
341.364	0.83
341.731	0.84
342.097	0.87
342.464	0.87
342.831	0.87
343.197	0.89
343.564	0.91
343.931	0.92
344.297	0.94
344.664	0.96
345.03	0.97
345.396	0.97
345.763	0.99
346.129	1.01
346.496	1.02
346.862	1.04
347.228	1.06
347.594	1.06
347.961	1.08
348.327	1.09
348.693	1.11
349.059	1.13
349.425	1.14
349.791	1.15
350.157	1.16
350.523	1.17
350.889	1.19
351.255	1.19
351.621	1.2
351.987	1.21
352.353	1.22
352.719	1.26
353.084	1.25
353.45	1.28
353.816	1.3
354.181	1.3
354.547	1.34
354.913	1.32
355.278	1.33
355.644	1.38
356.009	1.39
356.375	1.41
356.74	1.42
357.106	1.44
357.471	1.43
357.836	1.47
358.202	1.5
358.567	1.48
358.932	1.53
359.297	1.52
359.663	1.53
360.028	1.58
360.393	1.56
360.758	1.6
361.123	1.62
361.488	1.64
361.853	1.69
362.218	1.67
362.583	1.68
362.948	1.65
363.312	1.75
363.677	1.73
364.042	1.73
364.407	1.74
364.772	1.79
365.136	1.78
365.501	1.77
365.865	1.8
366.23	1.78
366.595	1.81
366.959	1.84
367.324	1.8
367.688	1.82
368.052	1.83
368.417	1.88
368.781	1.89
369.145	1.89
369.51	1.85
369.874	1.88
370.238	1.91
370.602	1.86
370.967	1.92
371.331	1.89
371.695	1.92
372.059	1.89
372.423	1.89
372.787	1.93
373.151	1.92
373.515	1.87
373.878	1.92
374.242	1.91
374.606	1.95
374.97	1.92
375.334	1.89
375.697	1.82
376.061	1.83
376.425	1.82
376.788	1.8
377.152	1.83
377.515	1.83
377.879	1.76
378.242	1.8
378.606	1.79
378.969	1.78
379.333	1.73
379.696	1.69
380.059	1.74
380.422	1.73
380.786	1.67
381.149	1.66
381.512	1.64
381.875	1.63
382.238	1.6
382.601	1.58
382.964	1.56
383.327	1.56
383.69	1.54
384.053	1.53
384.416	1.5
384.779	1.48
385.142	1.49
385.504	1.46
385.867	1.45
386.23	1.44
386.593	1.44
386.955	1.43
387.318	1.42
387.68	1.41
388.043	1.41
388.405	1.41
388.768	1.39
389.13	1.39
389.493	1.36
389.855	1.35
390.217	1.35
390.58	1.35
390.942	1.33
391.304	1.32
391.666	1.3
392.028	1.29
392.391	1.26
392.753	1.24
393.115	1.24
393.477	1.22
393.839	1.2
394.201	1.19
394.563	1.19
394.924	1.18
395.286	1.17
395.648	1.17
396.01	1.18
396.371	1.2
396.733	1.2
397.095	1.23
397.456	1.24
397.818	1.26
398.18	1.28
398.541	1.3
398.903	1.35
399.264	1.36
399.625	1.38
399.987	1.4
400.348	1.45
400.709	1.44
401.071	1.45
401.432	1.45
401.793	1.47
402.154	1.44
402.515	1.42
402.876	1.41
403.238	1.37
403.599	1.35
403.96	1.29
404.32	1.26
404.681	1.23
405.042	1.16
405.403	1.14
405.764	1.08
406.125	1.03
406.485	0.97
406.846	0.92
407.207	0.89
407.567	0.84
407.928	0.8
408.288	0.77
408.649	0.72
409.009	0.68
409.37	0.64
409.73	0.61
410.091	0.57
410.451	0.55
410.811	0.52
411.171	0.49
411.532	0.46
411.892	0.45
412.252	0.43
412.612	0.41
412.972	0.4
413.332	0.37
413.692	0.36
414.052	0.34
414.412	0.33
414.772	0.33
415.132	0.31
415.492	0.3
415.851	0.29
416.211	0.27
416.571	0.28
416.931	0.27
417.29	0.25
417.65	0.25
418.009	0.25
418.369	0.25
418.728	0.24
419.088	0.23
419.447	0.22
419.807	0.21
420.166	0.21
420.525	0.21
420.884	0.21
421.244	0.2
421.603	0.21
421.962	0.19
422.321	0.2
422.68	0.2
423.039	0.19
423.398	0.18
423.757	0.18
424.116	0.19
424.475	0.17
424.834	0.18
425.193	0.17
425.551	0.18
425.91	0.17
426.269	0.17
426.628	0.17
426.986	0.17
427.345	0.16
427.703	0.16
428.062	0.16
428.42	0.16
428.779	0.17
429.137	0.15
429.496	0.15
429.854	0.15
430.212	0.16
430.57	0.16
430.929	0.15
431.287	0.15
431.645	0.15
432.003	0.15
432.361	0.15
432.719	0.15
433.077	0.15
433.435	0.15
433.793	0.15
434.151	0.15
434.509	0.15
434.866	0.14
435.224	0.15
435.582	0.16
435.94	0.16
436.297	0.15
436.655	0.15
437.012	0.14
437.37	0.15
437.727	0.14
438.085	0.14
438.442	0.15
438.8	0.15
439.157	0.15
439.514	0.15
439.872	0.15
440.229	0.16
440.586	0.15
440.943	0.16
441.3	0.15
441.657	0.15
442.014	0.15
442.371	0.15
442.728	0.15
443.085	0.16
443.442	0.15
443.799	0.15
444.156	0.15
444.513	0.15
444.869	0.15
445.226	0.16
445.583	0.16
445.939	0.16
446.296	0.16
446.652	0.15
447.009	0.16
447.365	0.16
447.722	0.16
448.078	0.16
448.434	0.16
448.791	0.16
449.147	0.16
449.503	0.16
449.859	0.16
450.215	0.15
450.571	0.15
450.928	0.16
451.284	0.17
451.64	0.15
451.995	0.16
452.351	0.16
452.707	0.15
453.063	0.16
453.419	0.15
453.775	0.16
454.13	0.16
454.486	0.16
454.842	0.15
455.197	0.14
455.553	0.15
455.908	0.15
456.264	0.14
456.619	0.14
456.975	0.15
457.33	0.15
457.685	0.14
458.04	0.15
458.396	0.14
458.751	0.14
459.106	0.13
459.461	0.13
459.816	0.12
460.171	0.12
460.526	0.13
460.881	0.12
461.236	0.11
461.591	0.13
461.946	0.11
462.301	0.11
462.655	0.11
463.01	0.11
463.365	0.11
463.719	0.1
464.074	0.09
464.428	0.09
464.783	0.09
465.137	0.1
465.492	0.09
465.846	0.08
466.201	0.09
466.555	0.09
466.909	0.09
467.263	0.11
467.618	0.11
467.972	0.11
468.326	0.11
468.68	0.1
469.034	0.1
469.388	0.09
469.742	0.1
470.096	0.11
470.45	0.11
470.804	0.11
471.157	0.11
471.511	0.11
471.865	0.11
472.218	0.12
472.572	0.13
472.926	0.13
473.279	0.14
473.633	0.14
473.986	0.16
474.34	0.17
474.693	0.17
475.046	0.18
475.4	0.19
475.753	0.2
476.106	0.21
476.459	0.22
476.812	0.23
477.165	0.24
477.519	0.25
477.872	0.25
478.224	0.26
478.577	0.27
478.93	0.28
479.283	0.28
479.636	0.3
479.989	0.3
480.341	0.31
480.694	0.32
481.047	0.32
481.399	0.33
481.752	0.33
482.104	0.35
482.457	0.35
482.809	0.35
483.162	0.36
483.514	0.37
483.866	0.37
484.219	0.38
484.571	0.38
484.923	0.39
485.275	0.39
485.627	0.39
485.979	0.4
486.331	0.41
486.683	0.42
487.035	0.42
487.387	0.43
487.739	0.44
488.091	0.44
488.443	0.45
488.794	0.45
489.146	0.46
489.498	0.46
489.849	0.47
490.201	0.46
490.552	0.47
490.904	0.48
491.255	0.48
491.607	0.48
491.958	0.48
492.309	0.5
492.661	0.49
493.012	0.5
493.363	0.5
493.714	0.51
494.065	0.51
494.416	0.52
494.767	0.53
495.118	0.54
495.469	0.54
495.82	0.54
496.171	0.55
496.522	0.55
496.872	0.56
497.223	0.56
497.574	0.56
497.924	0.57
498.275	0.57
498.626	0.57
498.976	0.58
499.327	0.59
499.677	0.59
500.027	0.6
500.378	0.6
500.728	0.6
501.078	0.61
501.428	0.61
501.779	0.62
502.129	0.62
502.479	0.62
502.829	0.63
503.179	0.64
503.529	0.64
503.879	0.65
504.229	0.65
504.578	0.65
504.928	0.66
505.278	0.66
505.628	0.66
505.977	0.67
506.327	0.68
506.676	0.68
507.026	0.69
507.375	0.69
507.725	0.68
508.074	0.7
508.424	0.7
508.773	0.71
509.122	0.7
509.471	0.72
509.82	0.71
510.17	0.72
510.519	0.73
510.868	0.74
511.217	0.73
511.566	0.73
511.915	0.74
512.263	0.74
512.612	0.75
512.961	0.75
513.31	0.76
513.659	0.76
514.007	0.76
514.356	0.76
514.704	0.77
515.053	0.77
515.401	0.77
515.75	0.78
516.098	0.78
516.447	0.79
516.795	0.8
517.143	0.79
517.491	0.8
517.839	0.8
518.188	0.8
518.536	0.8
518.884	0.81
519.232	0.82
519.58	0.82
519.928	0.81
520.275	0.82
520.623	0.83
520.971	0.83
521.319	0.84
521.666	0.84
522.014	0.84
522.362	0.84
522.709	0.84
523.057	0.84
523.404	0.85
523.752	0.86
524.099	0.85
524.446	0.86
524.794	0.86
525.141	0.86
525.488	0.86
525.835	0.87
526.182	0.87
526.529	0.87
526.876	0.87
527.223	0.88
527.57	0.89
527.917	0.88
528.264	0.89
528.611	0.88
528.958	0.89
529.304	0.89
529.651	0.89
529.998	0.9
530.344	0.9
530.691	0.91
531.037	0.91
531.384	0.91
531.73	0.91
532.076	0.91
532.423	0.9
532.769	0.91
533.115	0.91
533.461	0.92
533.807	0.93
534.154	0.92
534.5	0.93
534.846	0.92
535.192	0.93
535.537	0.93
535.883	0.93
536.229	0.93
536.575	0.93
536.921	0.93
537.266	0.94
537.612	0.94
537.957	0.93
538.303	0.94
538.649	0.94
538.994	0.94
539.339	0.95
539.685	0.95
540.03	0.96
540.375	0.95
540.721	0.95
541.066	0.95
541.411	0.95
541.756	0.96
542.101	0.96
542.446	0.95
542.791	0.95
543.136	0.96
543.481	0.97
543.825	0.97
544.17	0.96
544.515	0.96
544.86	0.95
545.204	0.97
545.549	0.96
545.893	0.97
546.238	0.96
546.582	0.97
546.927	0.97
547.271	0.97
547.615	0.97
547.96	0.97
548.304	0.97
548.648	0.97
548.992	0.97
549.336	0.97
549.68	0.97
550.024	0.98
550.368	0.98
550.712	0.97
551.056	0.96
551.4	0.97
551.743	0.97
552.087	0.98
552.431	0.97
552.774	0.97
553.118	0.97
553.462	0.97
553.805	0.97
554.148	0.97
554.492	0.97
554.835	0.97
555.178	0.97
555.522	0.97
555.865	0.97
556.208	0.97
556.551	0.96
556.894	0.97
557.237	0.97
557.58	0.97
557.923	0.97
558.266	0.96
558.609	0.97
558.952	0.97
559.294	0.96
559.637	0.97
559.98	0.97
560.322	0.97
560.665	0.96
561.007	0.96
561.35	0.96
561.692	0.95
562.034	0.96
562.377	0.96
562.719	0.95
563.061	0.95
563.403	0.95
563.745	0.95
564.088	0.95
564.43	0.94
564.772	0.94
565.113	0.95
565.455	0.95
565.797	0.94
566.139	0.94
566.481	0.94
566.822	0.94
567.164	0.94
567.506	0.94
567.847	0.94
568.189	0.94
568.53	0.94
568.872	0.93
569.213	0.93
569.554	0.93
569.895	0.92
570.237	0.92
570.578	0.93
570.919	0.92
571.26	0.92
571.601	0.91
571.942	0.92
572.283	0.91
572.624	0.91
572.965	0.91
573.306	0.9
573.646	0.9
573.987	0.9
574.328	0.9
574.668	0.9
575.009	0.9
575.349	0.89
575.69	0.89
576.03	0.89
576.37	0.88
576.711	0.88
577.051	0.88
577.391	0.88
577.731	0.88
578.072	0.88
578.412	0.88
578.752	0.88
579.092	0.86
579.431	0.86
579.771	0.84
580.111	0.83
580.451	0.85
580.791	0.86
581.13	0.86
581.47	0.86
581.81	0.86
582.149	0.85
582.489	0.86
582.828	0.84
583.167	0.8
583.507	0.77
583.846	0.77
584.185	0.81
584.525	0.83
584.864	0.84
585.203	0.85
585.542	0.84
585.881	0.84
586.22	0.84
586.559	0.84
586.898	0.82
587.236	0.82
587.575	0.82
587.914	0.82
588.252	0.83
588.591	0.83
588.93	0.83
589.268	0.83
589.607	0.83
589.945	0.83
590.283	0.83
590.622	0.83
590.96	0.83
591.298	0.83
591.636	0.83
591.974	0.83
592.313	0.83
592.651	0.83
592.989	0.83
593.326	0.83
593.664	0.83
594.002	0.83
594.34	0.82
594.678	0.82
595.015	0.81
595.353	0.81
595.691	0.82
596.028	0.83
596.366	0.82
596.703	0.82
597.04	0.82
597.378	0.82
597.715	0.82
598.052	0.82
598.389	0.82
598.726	0.82
599.064	0.82
599.401	0.82
599.738	0.82
600.074	0.82
600.411	0.81
600.748	0.81
601.085	0.8
601.422	0.8
601.758	0.8
602.095	0.8
602.432	0.8
602.768	0.8
603.105	0.8
603.441	0.81
603.777	0.8
604.114	0.8
604.45	0.8
604.786	0.8
605.122	0.8
605.459	0.79
605.795	0.79
606.131	0.79
606.467	0.8
606.803	0.79
607.139	0.79
607.474	0.78
607.81	0.78
608.146	0.78
608.482	0.78
608.817	0.77
609.153	0.77
609.488	0.77
609.824	0.77
610.159	0.77
610.495	0.77
610.83	0.77
611.165	0.76
611.5	0.76
611.836	0.75
612.171	0.75
612.506	0.75
612.841	0.75
613.176	0.75
613.511	0.74
613.845	0.74
614.18	0.73
614.515	0.74
614.85	0.73
615.184	0.74
615.519	0.73
615.854	0.73
616.188	0.72
616.523	0.72
616.857	0.71
617.191	0.72
617.526	0.72
617.86	0.71
618.194	0.71
618.528	0.71
618.862	0.7
619.196	0.7
619.53	0.7
619.864	0.7
620.198	0.7
620.532	0.69
620.866	0.7
621.2	0.69
621.533	0.69
621.867	0.69
622.201	0.68
622.534	0.68
622.868	0.67
623.201	0.67
623.534	0.66
623.868	0.66
624.201	0.66
624.534	0.66
624.868	0.66
625.201	0.66
625.534	0.66
625.867	0.65
626.2	0.65
626.533	0.65
626.865	0.65
627.198	0.64
627.531	0.63
627.864	0.63
628.196	0.62
628.529	0.62
628.862	0.62
629.194	0.62
629.527	0.62
629.859	0.62
630.191	0.61
630.524	0.61
630.856	0.6
631.188	0.6
631.52	0.6
631.852	0.59
632.184	0.58
632.516	0.58
632.848	0.58
633.18	0.58
633.512	0.58
633.844	0.57
634.175	0.57
634.507	0.56
634.839	0.55
635.17	0.56
635.502	0.55
635.833	0.55
636.165	0.54
636.496	0.54
636.827	0.54
637.159	0.53
637.49	0.53
637.821	0.53
638.152	0.52
638.483	0.52
638.814	0.52
639.145	0.52
639.476	0.51
639.807	0.51
640.137	0.5
640.468	0.5
640.799	0.49
641.129	0.49
641.46	0.49
641.791	0.48
642.121	0.48
642.451	0.48
642.782	0.48
643.112	0.48
643.442	0.48
643.773	0.47
644.103	0.47
644.433	0.46
644.763	0.46
645.093	0.46
645.423	0.46
645.753	0.46
646.082	0.45
646.412	0.45
646.742	0.45
647.072	0.45
647.401	0.44
647.731	0.44
648.06	0.44
648.39	0.44
648.719	0.44
649.048	0.44
649.378	0.44
649.707	0.43
650.036	0.43
650.365	0.43
650.694	0.43
651.023	0.42
651.352	0.42
651.681	0.42
652.01	0.42
652.339	0.41
652.668	0.42
652.996	0.41
653.325	0.41
653.654	0.41
653.982	0.41
654.311	0.41
654.639	0.41
654.967	0.41
655.296	0.41
655.624	0.4
655.952	0.4
656.28	0.4
656.609	0.4
656.937	0.4
657.265	0.38
657.593	0.22
657.92	0.13
658.248	0.11
658.576	0.18
658.904	0.3
659.231	0.38
659.559	0.39
659.887	0.38
660.214	0.38
660.542	0.38
660.869	0.38
661.196	0.38
661.524	0.38
661.851	0.37
662.178	0.37
662.505	0.37
662.832	0.37
663.159	0.37
663.486	0.37
663.813	0.37
664.14	0.36
664.467	0.36
664.794	0.36
665.12	0.36
665.447	0.36
665.774	0.36
666.1	0.36
666.427	0.35
666.753	0.35
667.079	0.35
667.406	0.34
667.732	0.34
668.058	0.34
668.384	0.34
668.71	0.34
669.036	0.34
669.362	0.34
669.688	0.33
670.014	0.33
670.34	0.33
670.666	0.33
670.991	0.33
671.317	0.32
671.643	0.32
671.968	0.32
672.294	0.31
672.619	0.31
672.945	0.31
673.27	0.31
673.595	0.3
673.92	0.3
674.246	0.3
674.571	0.3
674.896	0.3
675.221	0.29
675.546	0.29
675.87	0.29
676.195	0.29
676.52	0.29
676.845	0.28
677.169	0.28
677.494	0.28
677.819	0.28
678.143	0.27
678.468	0.27
678.792	0.27
679.116	0.27
679.44	0.27
679.765	0.27
680.089	0.26
680.413	0.25
680.737	0.25
681.061	0.25
681.385	0.25
681.709	0.24
682.033	0.24
682.356	0.24
682.68	0.24
683.004	0.24
683.327	0.23
683.651	0.23
683.974	0.23
684.298	0.23
684.621	0.23
684.944	0.22
685.268	0.22
685.591	0.22
685.914	0.21
686.237	0.21
686.56	0.21
686.883	0.2
687.206	0.2
687.529	0.2
687.852	0.19
688.175	0.2
688.497	0.2
688.82	0.19
689.142	0.19
689.465	0.19
689.787	0.19
690.11	0.19
690.432	0.18
690.755	0.18
691.077	0.18
691.399	0.17
691.721	0.17
692.043	0.17
692.365	0.17
692.687	0.17
693.009	0.16
693.331	0.16
693.653	0.15
693.974	0.16
694.296	0.16
694.618	0.15
694.939	0.15
695.261	0.15
695.582	0.15
695.904	0.15
696.225	0.15
696.546	0.15
696.868	0.14
697.189	0.14
697.51	0.14
697.831	0.14
698.152	0.14
698.473	0.13
698.794	0.13
699.114	0.12
699.435	0.11
699.756	0.12
700.077	0.12
700.397	0.12
700.718	0.12
701.038	0.12
701.359	0.13
701.679	0.13
701.999	0.12
702.32	0.12
702.64	0.12
702.96	0.12
703.28	0.12
703.6	0.12
703.92	0.12
704.24	0.12
704.56	0.11
704.879	0.11
705.199	0.11
705.519	0.11
705.838	0.11
706.158	0.11
706.478	0.11
706.797	0.11
707.116	0.11
707.436	0.11
707.755	0.11
708.074	0.11
708.393	0.11
708.712	0.1
709.031	0.09
709.35	0.09
709.669	0.09
709.988	0.09
710.307	0.1
710.626	0.1
710.944	0.1
711.263	0.1
711.582	0.11
711.9	0.11
712.219	0.1
712.537	0.1
712.855	0.1
713.174	0.11
713.492	0.11
713.81	0.11
714.128	0.11
714.446	0.11
714.764	0.1
715.082	0.09
715.4	0.1
715.718	0.1
716.035	0.1
716.353	0.1
716.671	0.1
716.988	0.1
717.306	0.1
717.623	0.11
717.941	0.11
718.258	0.11
718.575	0.11
718.893	0.11
719.21	0.11
719.527	0.11
719.844	0.1
720.161	0.11
720.478	0.1
720.795	0.11
721.112	0.11
721.428	0.11
721.745	0.11
722.062	0.11
722.378	0.12
722.695	0.11
723.011	0.11
723.328	0.11
723.644	0.12
723.96	0.12
724.276	0.11
724.593	0.12
724.909	0.11
725.225	0.11
725.541	0.11
725.857	0.11
726.173	0.11
726.488	0.12
726.804	0.11
727.12	0.11
727.435	0.11
727.751	0.11
728.067	0.11
728.382	0.11
728.697	0.11
729.013	0.11
729.328	0.11
729.643	0.11
729.958	0.11
730.273	0.11
730.588	0.11
730.903	0.11
731.218	0.11
731.533	0.11
731.848	0.11
732.163	0.11
732.477	0.1
732.792	0.1
733.107	0.09
733.421	0.1
733.736	0.1
734.05	0.1
734.364	0.1
734.678	0.1
734.993	0.1
735.307	0.1
735.621	0.1
735.935	0.1
736.249	0.1
736.563	0.1
736.877	0.1
737.19	0.1
737.504	0.1
737.818	0.1
738.131	0.1
738.445	0.1
738.758	0.1
739.072	0.1
739.385	0.1
739.698	0.11
740.012	0.11
740.325	0.1
740.638	0.1
740.951	0.1
741.264	0.1
741.577	0.1
741.89	0.1
742.203	0.1
742.515	0.1
742.828	0.1
743.141	0.1
743.453	0.1
743.766	0.09
744.078	0.09
744.391	0.09
744.703	0.09
745.015	0.09
745.327	0.09
745.639	0.09
745.952	0.09
746.264	0.09
746.575	0.09
746.887	0.09
747.199	0.09
747.511	0.09
747.823	0.09
748.134	0.08
748.446	0.08
748.757	0.08
749.069	0.08
749.38	0.08
749.692	0.08
750.003	0.07
750.314	0.07
750.625	0.07
750.936	0.07
751.248	0.07
751.559	0.07
751.869	0.07
752.18	0.07
752.491	0.07
752.802	0.07
753.112	0.07
753.423	0.07
753.734	0.07
754.044	0.06
754.355	0.06
754.665	0.06
754.975	0.06
755.285	0.06
755.596	0.06
755.906	0.06
756.216	0.06
756.526	0.06
756.836	0.06
757.146	0.06
757.455	0.06
757.765	0.06
758.075	0.06
758.385	0.05
758.694	0.05
759.004	0.05
759.313	0.05
759.622	0.05
759.932	0.06
760.241	0.06
760.55	0.06
760.859	0.06
761.168	0.06
761.477	0.06
761.786	0.06
762.095	0.05
762.404	0.05
762.713	0.05
763.021	0.05
763.33	0.05
763.639	0.06
763.947	0.06
764.256	0.05
764.564	0.06
764.872	0.06
765.181	0.06
765.489	0.05
765.797	0.05
766.105	0.05
766.413	0.05
766.721	0.05
767.029	0.05
767.337	0.05
767.644	0.05
767.952	0.05
768.26	0.05
768.567	0.05
768.875	0.05
769.182	0.05
769.49	0.05
769.797	0.05
770.104	0.05
770.411	0.05
770.718	0.05
771.026	0.05
771.333	0.05
771.639	0.04
771.946	0.05
772.253	0.05
772.56	0.05
772.867	0.05
773.173	0.05
773.48	0.05
773.786	0.05
774.093	0.05
774.399	0.05
774.705	0.05
775.012	0.05
775.318	0.05
775.624	0.06
775.93	0.05
776.236	0.06
776.542	0.06
776.848	0.06
777.154	0.06
777.459	0.06
777.765	0.06
778.071	0.06
778.376	0.06
778.682	0.05
778.987	0.06
779.292	0.06
779.598	0.05
779.903	0.05
780.208	0.05
780.513	0.05
780.818	0.05
781.123	0.05
781.428	0.05
781.733	0.05
782.038	0.05
782.343	0.05
782.647	0.05
782.952	0.05
783.256	0.05
783.561	0.05
783.865	0.05
784.17	0.05
784.474	0.05
784.778	0.04
785.082	0.05
785.386	0.05
785.69	0.05
785.994	0.05
786.298	0.05
786.602	0.05
786.906	0.05
787.209	0.06
787.513	0.06
787.817	0.06
788.12	0.06
788.424	0.06
788.727	0.06
789.03	0.07
789.333	0.06
789.637	0.06
789.94	0.06
790.243	0.06
790.546	0.06
790.849	0.07
791.152	0.07
791.454	0.07
791.757	0.07
792.06	0.07
792.362	0.07
792.665	0.06
792.967	0.06
793.27	0.06
793.572	0.06
793.874	0.07
794.177	0.07
794.479	0.07
794.781	0.07
795.083	0.07
795.385	0.07
795.687	0.07
795.989	0.07
796.29	0.07
796.592	0.07
796.894	0.07
797.195	0.07
797.497	0.07
797.798	0.07
798.1	0.07
798.401	0.07
798.702	0.08
799.003	0.07
799.304	0.07
799.605	0.07
799.906	0.07
800.207	0.07
800.508	0.07
800.809	0.07
801.11	0.08
801.41	0.08
801.711	0.08
802.011	0.08
802.312	0.08
802.612	0.08
802.913	0.08
803.213	0.08
803.513	0.08
803.813	0.08
804.113	0.08
804.413	0.08
804.713	0.08
805.013	0.09
805.313	0.09
805.613	0.08
805.912	0.08
806.212	0.08
806.511	0.08
806.811	0.08
807.11	0.08
807.41	0.08
807.709	0.08
808.008	0.08
808.307	0.08
808.606	0.09
808.905	0.08
809.204	0.08
809.503	0.08
809.802	0.09
810.101	0.08
810.399	0.09
810.698	0.09
810.997	0.09
811.295	0.09
811.593	0.09
811.892	0.09
812.19	0.09
812.488	0.09
812.786	0.09
813.084	0.09
813.383	0.09
813.68	0.1
813.978	0.1
814.276	0.1
814.574	0.09
814.872	0.1
815.169	0.1
815.467	0.09
815.764	0.09
816.062	0.09
816.359	0.09
816.656	0.09
816.954	0.09
817.251	0.09
817.548	0.1
817.845	0.09
818.142	0.1
818.439	0.1
818.735	0.11
819.032	0.11
819.329	0.11
819.626	0.11
819.922	0.11
820.219	0.11
820.515	0.11
820.811	0.11
821.108	0.11
821.404	0.11
821.7	0.11
821.996	0.1
822.292	0.1
822.588	0.11
822.884	0.11
823.18	0.12
823.475	0.12
823.771	0.12
824.067	0.12
824.362	0.12
824.658	0.12
824.953	0.12
825.249	0.12
825.544	0.12
825.839	0.12
826.134	0.12
826.429	0.12
826.724	0.11
827.019	0.12
827.314	0.12
827.609	0.13
827.904	0.12
828.198	0.12
828.493	0.12
828.787	0.12
829.082	0.12
829.376	0.12
829.671	0.13
829.965	0.14
830.259	0.13
830.553	0.14
830.847	0.13
831.141	0.13
831.435	0.13
831.729	0.13
832.023	0.13
832.317	0.13
832.61	0.13
832.904	0.14
833.197	0.13
833.491	0.13
833.784	0.13
834.077	0.14
834.371	0.14
834.664	0.14
834.957	0.14
835.25	0.13
835.543	0.13
835.836	0.14
836.129	0.14
836.421	0.14
836.714	0.13
837.007	0.13
837.299	0.14
837.592	0.13
837.884	0.14
838.177	0.14
838.469	0.14
838.761	0.14
839.053	0.15
839.345	0.14
839.637	0.14
839.929	0.14
840.221	0.14
840.513	0.14
840.805	0.15
841.096	0.15
841.388	0.16
841.68	0.15
841.971	0.15
842.262	0.15
842.554	0.15
842.845	0.14
843.136	0.14
843.427	0.15
843.718	0.15
844.009	0.14
844.3	0.15
844.591	0.15
844.882	0.16
845.173	0.15
845.463	0.15
845.754	0.16
846.044	0.15
846.335	0.15
846.625	0.15
846.915	0.14
847.206	0.16
847.496	0.16
847.786	0.16
848.076	0.15
848.366	0.15
848.656	0.15
848.945	0.15
849.235	0.15
849.525	0.15
849.814	0.14
850.104	0.14
850.393	0.16
850.683	0.17
850.972	0.17
851.261	0.17
851.551	0.17
851.84	0.16
852.129	0.17
852.418	0.17
852.707	0.17
852.995	0.17
853.284	0.17
853.573	0.16
853.862	0.16
854.15	0.16
854.439	0.16
854.727	0.15
855.015	0.17
855.304	0.17
855.592	0.18
855.88	0.18
856.168	0.17
856.456	0.17
856.744	0.17
857.032	0.17
857.32	0.16
857.607	0.16
857.895	0.18
858.183	0.18
858.47	0.16
858.757	0.17
859.045	0.19
859.332	0.16
859.619	0.2
859.907	0.17
860.194	0.15
860.481	0.19
860.768	0.16
861.054	0.18
861.341	0.18
861.628	0.19
861.915	0.17
862.201	0.16
862.488	0.16
862.774	0.19
863.061	0.2
863.347	0.18
863.633	0.21
863.919	0.17
864.205	0.18
864.491	0.19
864.777	0.2
865.063	0.18
865.349	0.19
865.635	0.19
865.92	0.16
866.206	0.18
866.492	0.17
866.777	0.23
867.062	0.17
867.348	0.18
867.633	0.17
867.918	0.19
868.203	0.2
868.488	0.18
868.773	0.21
869.058	0.19
869.343	0.17
869.628	0.19
869.912	0.18
870.197	0.16
870.482	0.15
870.766	0.24
871.05	0.17
871.335	0.19
871.619	0.18
871.903	0.22
872.187	0.15
872.471	0.22
872.755	0.14
873.039	0.2
873.323	0.2
873.607	0.23
873.89	0.21
874.174	0.24
874.458	0.25
874.741	0.14
875.024	0.15
875.308	0.18
875.591	0.22
875.874	0.19
876.157	0.15
876.44	0.07
876.723	0.18
877.006	0.11
877.289	0.19
877.572	0.16
877.854	0.18
878.137	0.2
878.42	0.09
878.702	0.12
878.984	0.28
879.267	0.35
879.549	0.12
879.831	0.07
880.113	0.12
880.395	0.02
880.677	0.06
880.959	0.29
