Data from Rubpy_BV_1800_EDTA_Buffered_Absorbance_14-51-29-888.txt Node
Date: Wed Jul 01 14:51:29 BST 2026
User: fpm-admin
Spectrometer: OFX00224
Trigger mode: 0
Integration Time (sec): 7.000000E-2
Scans to average: 3
Nonlinearity correction enabled: false
Boxcar width: 0
Storing dark spectrum: false
XAxis mode: Wavelengths
Number of Pixels in Spectrum: 2136
>>>>>Begin Spectral Data<<<<<
154.91	-0.29
155.289	-0.13
155.669	-0
156.048	-0.7
156.428	0.8
156.807	-0
157.186	-0
157.566	-0.59
157.945	-0
158.325	0.22
158.704	-0
159.083	-0.26
159.462	-0
159.842	-0
160.221	-0.9
160.6	0.14
160.979	0.18
161.359	0.17
161.738	-0
162.117	-0.17
162.496	-0.34
162.875	-0.25
163.254	-0
163.633	-0
164.012	-0
164.391	-0.65
164.77	-0.35
165.149	-0
165.528	-0
165.907	-0.18
166.286	0.7
166.665	0.02
167.044	0.51
167.423	-0.25
167.802	-0
168.181	-0.26
168.559	-0.48
168.938	-0.88
169.317	0.68
169.696	-0
170.074	-0.1
170.453	0.34
170.832	-0.33
171.21	-0
171.589	-0
171.968	-0.05
172.346	-0
172.725	-0
173.103	0.63
173.482	-0
173.861	-0
174.239	0.45
174.617	-0
174.996	0.73
175.374	-0
175.753	-0.15
176.131	-0
176.51	-0.02
176.888	-0
177.266	-0
177.645	-0.12
178.023	0.59
178.401	-0.12
178.779	-0.15
179.158	-1.46
179.536	-0.48
179.914	-0.12
180.292	-0
180.67	-0.4
181.048	-0
181.427	0.48
181.805	-0
182.183	-0.9
182.561	0.07
182.939	-0
183.317	-0
183.695	-0
184.073	0.25
184.451	-0
184.829	-0
185.206	-0
185.584	0.34
185.962	-0
186.34	0.36
186.718	-0
187.096	-0.68
187.473	0.97
187.851	-0
188.229	-0
188.607	0.1
188.984	0.11
189.362	0.16
189.74	0.08
190.117	-0.07
190.495	0.01
190.872	0.16
191.25	0.16
191.627	0.14
192.005	0.12
192.382	-0.06
192.76	0.07
193.137	0.12
193.515	0.12
193.892	0.1
194.269	0.19
194.647	0.13
195.024	-0.05
195.401	0.04
195.779	0.19
196.156	0.01
196.533	0.16
196.91	0.01
197.288	0.06
197.665	0.07
198.042	0.06
198.419	0.2
198.796	0.1
199.173	0.16
199.55	0.13
199.927	0.08
200.304	0.16
200.681	0.09
201.058	0.12
201.435	0.1
201.812	0.17
202.189	0.1
202.566	0.14
202.943	0.04
203.32	0.09
203.697	0.09
204.073	0.13
204.45	0.2
204.827	0.13
205.204	0.03
205.58	0.08
205.957	0.12
206.334	0.05
206.71	0.07
207.087	0.09
207.464	0.07
207.84	0.13
208.217	0.16
208.593	0.11
208.97	0.12
209.346	0.26
209.723	0.14
210.099	0.1
210.476	-0.02
210.852	0.09
211.228	0.11
211.605	0.16
211.981	0.11
212.357	0.06
212.733	0.12
213.11	0.06
213.486	0.01
213.862	0.16
214.238	0.18
214.614	0.09
214.991	0.04
215.367	0.12
215.743	0.09
216.119	0.02
216.495	0.11
216.871	0.08
217.247	0.09
217.623	0.05
217.999	0.06
218.375	0.11
218.751	0.06
219.127	0.12
219.502	0.15
219.878	0.13
220.254	0.13
220.63	0.08
221.006	0.22
221.381	0.14
221.757	0.14
222.133	0.1
222.508	0.13
222.884	0.12
223.26	0.06
223.635	0.1
224.011	0.17
224.386	0.09
224.762	0.14
225.137	0.12
225.513	0
225.888	0.07
226.264	0.02
226.639	0.06
227.014	0.1
227.39	0.21
227.765	0.09
228.14	0.15
228.516	0.22
228.891	0.09
229.266	-0.03
229.641	0.14
230.017	0.02
230.392	0.06
230.767	0.08
231.142	0.05
231.517	0.02
231.892	0.1
232.267	0.1
232.642	0.1
233.017	0.11
233.392	0.06
233.767	0.07
234.142	0.16
234.517	0.22
234.892	0.07
235.267	0
235.641	0.01
236.016	0.03
236.391	0.17
236.766	0.18
237.14	0.09
237.515	0.09
237.89	0.11
238.264	0.08
238.639	0.02
239.014	0.21
239.388	0.12
239.763	0.07
240.137	0.12
240.512	0.03
240.886	0.1
241.261	0.1
241.635	-0.03
242.009	0.1
242.384	0.11
242.758	0.11
243.132	0.1
243.507	0.11
243.881	0.11
244.255	0.06
244.629	0.2
245.004	0.16
245.378	0.12
245.752	0.06
246.126	0.14
246.5	0.11
246.874	0.08
247.248	0.19
247.622	0.17
247.996	0.07
248.37	0.12
248.744	0.07
249.118	0.13
249.492	0.17
249.866	0.19
250.24	0.21
250.613	0.06
250.987	0.12
251.361	0.2
251.735	0.14
252.108	0.1
252.482	0.13
252.856	0.1
253.229	0.11
253.603	0.14
253.977	0.1
254.35	0.08
254.724	0.1
255.097	0.15
255.471	0.09
255.844	0.08
256.218	0.11
256.591	0.05
256.964	0.1
257.338	0.09
257.711	0.01
258.084	0.08
258.458	0.14
258.831	0.12
259.204	0.13
259.577	0.14
259.95	0.15
260.323	0.05
260.697	0.04
261.07	0.1
261.443	0.09
261.816	0.05
262.189	0.11
262.562	0.14
262.935	0.18
263.308	0.12
263.68	0.13
264.053	0.03
264.426	0.14
264.799	0.06
265.172	0.09
265.545	0.06
265.917	0.12
266.29	0.09
266.663	0.14
267.035	0.06
267.408	0.11
267.781	0.12
268.153	0.06
268.526	0.16
268.898	0.11
269.271	0.06
269.643	0.17
270.016	0.11
270.388	0.1
270.76	0.15
271.133	0.17
271.505	0.07
271.877	0.13
272.25	0.11
272.622	0.1
272.994	0.15
273.366	0.11
273.739	0.09
274.111	0.1
274.483	0.1
274.855	0.08
275.227	0.1
275.599	0.07
275.971	0.07
276.343	0.11
276.715	0.13
277.087	0.18
277.459	0.06
277.831	0.18
278.203	0.16
278.574	0.12
278.946	0.11
279.318	0.08
279.69	0.13
280.061	0.06
280.433	0.08
280.805	0.13
281.176	0.09
281.548	0.15
281.92	0.02
282.291	0.09
282.663	0.11
283.034	0.08
283.406	0.05
283.777	0.2
284.148	0.07
284.52	0.07
284.891	0.05
285.262	0.08
285.634	0.07
286.005	0.09
286.376	0.07
286.747	0.09
287.119	0.09
287.49	0.12
287.861	0.14
288.232	0.08
288.603	0.14
288.974	0.14
289.345	0.09
289.716	0.1
290.087	0.05
290.458	0.13
290.829	0.02
291.2	0.06
291.571	0.12
291.941	0.17
292.312	0.13
292.683	0.14
293.054	0.13
293.424	0.12
293.795	0.16
294.166	0.05
294.536	0.05
294.907	0.16
295.277	0.15
295.648	0.06
296.018	0.11
296.389	0.1
296.759	0.08
297.13	0.13
297.5	0.11
297.871	0.08
298.241	0.09
298.611	0.16
298.981	0.11
299.352	0.07
299.722	0.14
300.092	0.08
300.462	0.12
300.832	0.14
301.202	0.09
301.573	0.07
301.943	0.05
302.313	0.12
302.683	0.08
303.053	0.06
303.422	0.1
303.792	0.04
304.162	0.09
304.532	0.04
304.902	0.07
305.272	0.11
305.641	0.1
306.011	0.07
306.381	0.09
306.75	0.07
307.12	0.06
307.49	0.11
307.859	0.06
308.229	0.06
308.598	0.06
308.968	0.09
309.337	0.05
309.707	0.09
310.076	0.06
310.445	0.1
310.815	0.07
311.184	0.07
311.553	0.08
311.923	0.05
312.292	0.06
312.661	0.08
313.03	0.06
313.399	0.05
313.768	0.04
314.137	0.07
314.506	0.06
314.875	0.06
315.244	0.07
315.613	0.04
315.982	0.06
316.351	0.06
316.72	0.07
317.089	0.07
317.458	0.07
317.826	0.07
318.195	0.07
318.564	0.06
318.933	0.06
319.301	0.07
319.67	0.08
320.038	0.07
320.407	0.07
320.775	0.06
321.144	0.08
321.512	0.07
321.881	0.07
322.249	0.07
322.618	0.07
322.986	0.06
323.354	0.07
323.723	0.08
324.091	0.07
324.459	0.08
324.827	0.08
325.195	0.08
325.564	0.08
325.932	0.07
326.3	0.08
326.668	0.08
327.036	0.08
327.404	0.09
327.772	0.08
328.14	0.08
328.508	0.08
328.875	0.08
329.243	0.09
329.611	0.08
329.979	0.09
330.346	0.09
330.714	0.09
331.082	0.09
331.449	0.09
331.817	0.09
332.185	0.1
332.552	0.09
332.92	0.1
333.287	0.1
333.655	0.1
334.022	0.1
334.389	0.1
334.757	0.1
335.124	0.11
335.491	0.11
335.859	0.11
336.226	0.11
336.593	0.11
336.96	0.12
337.327	0.11
337.695	0.12
338.062	0.12
338.429	0.12
338.796	0.13
339.163	0.13
339.53	0.13
339.897	0.13
340.263	0.13
340.63	0.13
340.997	0.15
341.364	0.14
341.731	0.14
342.097	0.14
342.464	0.15
342.831	0.15
343.197	0.15
343.564	0.16
343.931	0.16
344.297	0.16
344.664	0.16
345.03	0.17
345.396	0.16
345.763	0.17
346.129	0.17
346.496	0.17
346.862	0.17
347.228	0.18
347.594	0.18
347.961	0.18
348.327	0.19
348.693	0.19
349.059	0.19
349.425	0.19
349.791	0.19
350.157	0.2
350.523	0.2
350.889	0.21
351.255	0.2
351.621	0.21
351.987	0.21
352.353	0.21
352.719	0.21
353.084	0.21
353.45	0.23
353.816	0.22
354.181	0.23
354.547	0.23
354.913	0.23
355.278	0.23
355.644	0.24
356.009	0.24
356.375	0.25
356.74	0.25
357.106	0.25
357.471	0.26
357.836	0.25
358.202	0.26
358.567	0.27
358.932	0.27
359.297	0.27
359.663	0.27
360.028	0.28
360.393	0.29
360.758	0.29
361.123	0.3
361.488	0.3
361.853	0.3
362.218	0.31
362.583	0.31
362.948	0.31
363.312	0.32
363.677	0.33
364.042	0.33
364.407	0.33
364.772	0.33
365.136	0.34
365.501	0.34
365.865	0.34
366.23	0.34
366.595	0.35
366.959	0.36
367.324	0.36
367.688	0.36
368.052	0.36
368.417	0.37
368.781	0.37
369.145	0.38
369.51	0.38
369.874	0.39
370.238	0.39
370.602	0.39
370.967	0.4
371.331	0.4
371.695	0.4
372.059	0.41
372.423	0.4
372.787	0.4
373.151	0.41
373.515	0.4
373.878	0.4
374.242	0.4
374.606	0.4
374.97	0.39
375.334	0.4
375.697	0.39
376.061	0.39
376.425	0.38
376.788	0.38
377.152	0.38
377.515	0.38
377.879	0.37
378.242	0.37
378.606	0.37
378.969	0.36
379.333	0.36
379.696	0.36
380.059	0.35
380.422	0.35
380.786	0.35
381.149	0.34
381.512	0.34
381.875	0.34
382.238	0.34
382.601	0.34
382.964	0.34
383.327	0.33
383.69	0.34
384.053	0.33
384.416	0.33
384.779	0.33
385.142	0.34
385.504	0.33
385.867	0.33
386.23	0.33
386.593	0.34
386.955	0.34
387.318	0.34
387.68	0.34
388.043	0.34
388.405	0.34
388.768	0.34
389.13	0.35
389.493	0.35
389.855	0.35
390.217	0.35
390.58	0.35
390.942	0.34
391.304	0.34
391.666	0.34
392.028	0.34
392.391	0.34
392.753	0.33
393.115	0.33
393.477	0.33
393.839	0.32
394.201	0.32
394.563	0.32
394.924	0.32
395.286	0.32
395.648	0.32
396.01	0.33
396.371	0.33
396.733	0.34
397.095	0.35
397.456	0.36
397.818	0.36
398.18	0.37
398.541	0.38
398.903	0.4
399.264	0.41
399.625	0.42
399.987	0.43
400.348	0.44
400.709	0.45
401.071	0.45
401.432	0.45
401.793	0.45
402.154	0.45
402.515	0.45
402.876	0.44
403.238	0.43
403.599	0.42
403.96	0.4
404.32	0.39
404.681	0.38
405.042	0.36
405.403	0.35
405.764	0.32
406.125	0.31
406.485	0.29
406.846	0.27
407.207	0.26
407.567	0.25
407.928	0.24
408.288	0.22
408.649	0.2
409.009	0.2
409.37	0.18
409.73	0.16
410.091	0.16
410.451	0.15
410.811	0.14
411.171	0.14
411.532	0.12
411.892	0.12
412.252	0.12
412.612	0.11
412.972	0.11
413.332	0.1
413.692	0.09
414.052	0.09
414.412	0.09
414.772	0.09
415.132	0.08
415.492	0.08
415.851	0.07
416.211	0.07
416.571	0.07
416.931	0.07
417.29	0.06
417.65	0.06
418.009	0.06
418.369	0.06
418.728	0.06
419.088	0.06
419.447	0.06
419.807	0.05
420.166	0.05
420.525	0.05
420.884	0.05
421.244	0.05
421.603	0.05
421.962	0.05
422.321	0.05
422.68	0.05
423.039	0.05
423.398	0.04
423.757	0.04
424.116	0.06
424.475	0.04
424.834	0.05
425.193	0.04
425.551	0.04
425.91	0.04
426.269	0.04
426.628	0.03
426.986	0.04
427.345	0.05
427.703	0.04
428.062	0.04
428.42	0.03
428.779	0.04
429.137	0.04
429.496	0.03
429.854	0.04
430.212	0.04
430.57	0.04
430.929	0.03
431.287	0.03
431.645	0.03
432.003	0.04
432.361	0.03
432.719	0.03
433.077	0.03
433.435	0.03
433.793	0.03
434.151	0.03
434.509	0.03
434.866	0.02
435.224	0.03
435.582	0.03
435.94	0.03
436.297	0.03
436.655	0.04
437.012	0.03
437.37	0.03
437.727	0.03
438.085	0.03
438.442	0.03
438.8	0.03
439.157	0.03
439.514	0.03
439.872	0.03
440.229	0.03
440.586	0.03
440.943	0.03
441.3	0.02
441.657	0.03
442.014	0.02
442.371	0.02
442.728	0.02
443.085	0.03
443.442	0.02
443.799	0.03
444.156	0.03
444.513	0.02
444.869	0.03
445.226	0.02
445.583	0.03
445.939	0.03
446.296	0.02
446.652	0.02
447.009	0.02
447.365	0.03
447.722	0.02
448.078	0.02
448.434	0.02
448.791	0.02
449.147	0.02
449.503	0.01
449.859	0.02
450.215	0.01
450.571	0.01
450.928	0.01
451.284	0.02
451.64	0.01
451.995	0.01
452.351	0.01
452.707	0.01
453.063	0.01
453.419	0
453.775	0.01
454.13	0.01
454.486	0.01
454.842	0
455.197	0.01
455.553	-0
455.908	-0
456.264	-0.01
456.619	-0
456.975	0
457.33	-0
457.685	-0.01
458.04	-0.01
458.396	-0.01
458.751	-0.02
459.106	-0.02
459.461	-0.02
459.816	-0.03
460.171	-0.03
460.526	-0.03
460.881	-0.04
461.236	-0.04
461.591	-0.03
461.946	-0.05
462.301	-0.04
462.655	-0.05
463.01	-0.05
463.365	-0.05
463.719	-0.06
464.074	-0.06
464.428	-0.07
464.783	-0.07
465.137	-0.07
465.492	-0.06
465.846	-0.08
466.201	-0.07
466.555	-0.07
466.909	-0.07
467.263	-0.07
467.618	-0.07
467.972	-0.06
468.326	-0.07
468.68	-0.07
469.034	-0.07
469.388	-0.08
469.742	-0.07
470.096	-0.08
470.45	-0.07
470.804	-0.08
471.157	-0.07
471.511	-0.07
471.865	-0.08
472.218	-0.08
472.572	-0.06
472.926	-0.06
473.279	-0.06
473.633	-0.06
473.986	-0.04
474.34	-0.04
474.693	-0.05
475.046	-0.04
475.4	-0.03
475.753	-0.03
476.106	-0.02
476.459	-0.02
476.812	-0.01
477.165	-0.01
477.519	-0
477.872	-0
478.224	-0
478.577	0
478.93	0.01
479.283	0
479.636	0.01
479.989	0.01
480.341	0.02
480.694	0.02
481.047	0.02
481.399	0.02
481.752	0.03
482.104	0.03
482.457	0.03
482.809	0.03
483.162	0.04
483.514	0.04
483.866	0.04
484.219	0.04
484.571	0.04
484.923	0.04
485.275	0.05
485.627	0.04
485.979	0.04
486.331	0.05
486.683	0.05
487.035	0.05
487.387	0.05
487.739	0.06
488.091	0.06
488.443	0.06
488.794	0.06
489.146	0.06
489.498	0.06
489.849	0.06
490.201	0.06
490.552	0.06
490.904	0.06
491.255	0.07
491.607	0.07
491.958	0.07
492.309	0.07
492.661	0.07
493.012	0.08
493.363	0.08
493.714	0.07
494.065	0.07
494.416	0.08
494.767	0.08
495.118	0.08
495.469	0.08
495.82	0.08
496.171	0.08
496.522	0.08
496.872	0.09
497.223	0.08
497.574	0.08
497.924	0.09
498.275	0.09
498.626	0.09
498.976	0.09
499.327	0.09
499.677	0.09
500.027	0.09
500.378	0.09
500.728	0.09
501.078	0.1
501.428	0.09
501.779	0.1
502.129	0.1
502.479	0.1
502.829	0.1
503.179	0.1
503.529	0.1
503.879	0.1
504.229	0.1
504.578	0.11
504.928	0.1
505.278	0.11
505.628	0.11
505.977	0.11
506.327	0.11
506.676	0.11
507.026	0.11
507.375	0.11
507.725	0.11
508.074	0.11
508.424	0.11
508.773	0.11
509.122	0.11
509.471	0.12
509.82	0.12
510.17	0.12
510.519	0.12
510.868	0.12
511.217	0.12
511.566	0.12
511.915	0.12
512.263	0.13
512.612	0.12
512.961	0.12
513.31	0.13
513.659	0.13
514.007	0.13
514.356	0.13
514.704	0.13
515.053	0.13
515.401	0.13
515.75	0.13
516.098	0.13
516.447	0.13
516.795	0.14
517.143	0.13
517.491	0.13
517.839	0.13
518.188	0.14
518.536	0.13
518.884	0.14
519.232	0.14
519.58	0.14
519.928	0.14
520.275	0.14
520.623	0.14
520.971	0.14
521.319	0.14
521.666	0.14
522.014	0.14
522.362	0.14
522.709	0.14
523.057	0.14
523.404	0.14
523.752	0.15
524.099	0.14
524.446	0.15
524.794	0.15
525.141	0.15
525.488	0.15
525.835	0.15
526.182	0.15
526.529	0.15
526.876	0.15
527.223	0.15
527.57	0.15
527.917	0.15
528.264	0.15
528.611	0.15
528.958	0.15
529.304	0.15
529.651	0.16
529.998	0.15
530.344	0.16
530.691	0.16
531.037	0.16
531.384	0.16
531.73	0.16
532.076	0.16
532.423	0.16
532.769	0.16
533.115	0.16
533.461	0.16
533.807	0.16
534.154	0.16
534.5	0.17
534.846	0.17
535.192	0.16
535.537	0.16
535.883	0.16
536.229	0.16
536.575	0.16
536.921	0.17
537.266	0.17
537.612	0.17
537.957	0.16
538.303	0.17
538.649	0.17
538.994	0.17
539.339	0.17
539.685	0.17
540.03	0.17
540.375	0.17
540.721	0.17
541.066	0.17
541.411	0.18
541.756	0.17
542.101	0.18
542.446	0.18
542.791	0.17
543.136	0.17
543.481	0.17
543.825	0.18
544.17	0.18
544.515	0.18
544.86	0.18
545.204	0.18
545.549	0.18
545.893	0.18
546.238	0.18
546.582	0.18
546.927	0.18
547.271	0.18
547.615	0.18
547.96	0.18
548.304	0.18
548.648	0.18
548.992	0.18
549.336	0.18
549.68	0.18
550.024	0.19
550.368	0.18
550.712	0.18
551.056	0.18
551.4	0.19
551.743	0.18
552.087	0.18
552.431	0.19
552.774	0.18
553.118	0.19
553.462	0.18
553.805	0.18
554.148	0.19
554.492	0.19
554.835	0.19
555.178	0.19
555.522	0.19
555.865	0.19
556.208	0.19
556.551	0.19
556.894	0.19
557.237	0.19
557.58	0.19
557.923	0.19
558.266	0.19
558.609	0.19
558.952	0.19
559.294	0.19
559.637	0.19
559.98	0.19
560.322	0.19
560.665	0.19
561.007	0.19
561.35	0.19
561.692	0.19
562.034	0.19
562.377	0.19
562.719	0.19
563.061	0.18
563.403	0.19
563.745	0.19
564.088	0.19
564.43	0.18
564.772	0.19
565.113	0.19
565.455	0.19
565.797	0.19
566.139	0.19
566.481	0.19
566.822	0.19
567.164	0.19
567.506	0.19
567.847	0.19
568.189	0.19
568.53	0.19
568.872	0.19
569.213	0.19
569.554	0.18
569.895	0.18
570.237	0.18
570.578	0.18
570.919	0.18
571.26	0.18
571.601	0.18
571.942	0.18
572.283	0.18
572.624	0.18
572.965	0.18
573.306	0.18
573.646	0.18
573.987	0.18
574.328	0.18
574.668	0.18
575.009	0.18
575.349	0.17
575.69	0.17
576.03	0.18
576.37	0.17
576.711	0.17
577.051	0.17
577.391	0.17
577.731	0.17
578.072	0.18
578.412	0.17
578.752	0.17
579.092	0.17
579.431	0.16
579.771	0.15
580.111	0.14
580.451	0.16
580.791	0.17
581.13	0.17
581.47	0.17
581.81	0.17
582.149	0.17
582.489	0.17
582.828	0.16
583.167	0.13
583.507	0.1
583.846	0.1
584.185	0.14
584.525	0.16
584.864	0.17
585.203	0.17
585.542	0.18
585.881	0.18
586.22	0.17
586.559	0.17
586.898	0.16
587.236	0.15
587.575	0.16
587.914	0.16
588.252	0.17
588.591	0.17
588.93	0.17
589.268	0.17
589.607	0.17
589.945	0.17
590.283	0.17
590.622	0.17
590.96	0.17
591.298	0.18
591.636	0.18
591.974	0.18
592.313	0.18
592.651	0.18
592.989	0.18
593.326	0.18
593.664	0.18
594.002	0.18
594.34	0.18
594.678	0.17
595.015	0.17
595.353	0.17
595.691	0.17
596.028	0.18
596.366	0.18
596.703	0.18
597.04	0.18
597.378	0.18
597.715	0.18
598.052	0.18
598.389	0.18
598.726	0.18
599.064	0.18
599.401	0.18
599.738	0.18
600.074	0.18
600.411	0.18
600.748	0.18
601.085	0.17
601.422	0.17
601.758	0.17
602.095	0.17
602.432	0.17
602.768	0.18
603.105	0.18
603.441	0.18
603.777	0.18
604.114	0.18
604.45	0.18
604.786	0.18
605.122	0.18
605.459	0.18
605.795	0.18
606.131	0.18
606.467	0.18
606.803	0.18
607.139	0.18
607.474	0.18
607.81	0.17
608.146	0.18
608.482	0.18
608.817	0.17
609.153	0.17
609.488	0.17
609.824	0.17
610.159	0.17
610.495	0.17
610.83	0.17
611.165	0.18
611.5	0.17
611.836	0.17
612.171	0.17
612.506	0.17
612.841	0.17
613.176	0.17
613.511	0.17
613.845	0.17
614.18	0.17
614.515	0.17
614.85	0.17
615.184	0.17
615.519	0.17
615.854	0.17
616.188	0.17
616.523	0.17
616.857	0.17
617.191	0.16
617.526	0.17
617.86	0.16
618.194	0.16
618.528	0.17
618.862	0.16
619.196	0.17
619.53	0.17
619.864	0.17
620.198	0.17
620.532	0.16
620.866	0.17
621.2	0.16
621.533	0.16
621.867	0.16
622.201	0.16
622.534	0.16
622.868	0.16
623.201	0.16
623.534	0.16
623.868	0.16
624.201	0.16
624.534	0.16
624.868	0.16
625.201	0.16
625.534	0.16
625.867	0.15
626.2	0.15
626.533	0.15
626.865	0.15
627.198	0.15
627.531	0.15
627.864	0.15
628.196	0.14
628.529	0.15
628.862	0.15
629.194	0.15
629.527	0.14
629.859	0.14
630.191	0.14
630.524	0.14
630.856	0.14
631.188	0.14
631.52	0.14
631.852	0.14
632.184	0.14
632.516	0.14
632.848	0.13
633.18	0.14
633.512	0.13
633.844	0.13
634.175	0.13
634.507	0.13
634.839	0.13
635.17	0.13
635.502	0.13
635.833	0.13
636.165	0.13
636.496	0.13
636.827	0.13
637.159	0.12
637.49	0.13
637.821	0.12
638.152	0.12
638.483	0.12
638.814	0.12
639.145	0.12
639.476	0.12
639.807	0.12
640.137	0.12
640.468	0.12
640.799	0.12
641.129	0.11
641.46	0.11
641.791	0.11
642.121	0.11
642.451	0.11
642.782	0.11
643.112	0.11
643.442	0.11
643.773	0.1
644.103	0.11
644.433	0.1
644.763	0.1
645.093	0.11
645.423	0.1
645.753	0.11
646.082	0.1
646.412	0.11
646.742	0.11
647.072	0.11
647.401	0.11
647.731	0.1
648.06	0.1
648.39	0.11
648.719	0.1
649.048	0.11
649.378	0.1
649.707	0.1
650.036	0.1
650.365	0.1
650.694	0.1
651.023	0.1
651.352	0.1
651.681	0.1
652.01	0.1
652.339	0.1
652.668	0.1
652.996	0.1
653.325	0.1
653.654	0.1
653.982	0.1
654.311	0.1
654.639	0.09
654.967	0.1
655.296	0.1
655.624	0.1
655.952	0.1
656.28	0.1
656.609	0.1
656.937	0.1
657.265	0.09
657.593	0
657.92	-0
658.248	-0
658.576	-0
658.904	0.01
659.231	0.09
659.559	0.09
659.887	0.09
660.214	0.09
660.542	0.09
660.869	0.09
661.196	0.09
661.524	0.09
661.851	0.09
662.178	0.09
662.505	0.09
662.832	0.09
663.159	0.09
663.486	0.09
663.813	0.09
664.14	0.09
664.467	0.09
664.794	0.09
665.12	0.09
665.447	0.09
665.774	0.09
666.1	0.09
666.427	0.08
666.753	0.09
667.079	0.08
667.406	0.08
667.732	0.08
668.058	0.08
668.384	0.08
668.71	0.08
669.036	0.08
669.362	0.08
669.688	0.08
670.014	0.08
670.34	0.08
670.666	0.08
670.991	0.08
671.317	0.08
671.643	0.08
671.968	0.08
672.294	0.08
672.619	0.08
672.945	0.08
673.27	0.07
673.595	0.07
673.92	0.08
674.246	0.07
674.571	0.07
674.896	0.07
675.221	0.07
675.546	0.07
675.87	0.07
676.195	0.07
676.52	0.07
676.845	0.07
677.169	0.07
677.494	0.07
677.819	0.07
678.143	0.07
678.468	0.07
678.792	0.07
679.116	0.07
679.44	0.07
679.765	0.06
680.089	0.06
680.413	0.06
680.737	0.06
681.061	0.06
681.385	0.06
681.709	0.06
682.033	0.06
682.356	0.06
682.68	0.06
683.004	0.06
683.327	0.06
683.651	0.05
683.974	0.05
684.298	0.05
684.621	0.05
684.944	0.05
685.268	0.05
685.591	0.05
685.914	0.05
686.237	0.05
686.56	0.05
686.883	0.05
687.206	0.05
687.529	0.04
687.852	0.04
688.175	0.05
688.497	0.05
688.82	0.04
689.142	0.04
689.465	0.04
689.787	0.04
690.11	0.04
690.432	0.04
690.755	0.04
691.077	0.04
691.399	0.04
691.721	0.04
692.043	0.04
692.365	0.04
692.687	0.04
693.009	0.03
693.331	0.03
693.653	0.03
693.974	0.03
694.296	0.03
694.618	0.03
694.939	0.03
695.261	0.03
695.582	0.03
695.904	0.03
696.225	0.03
696.546	0.03
696.868	0.03
697.189	0.03
697.51	0.03
697.831	0.03
698.152	0.03
698.473	0.03
698.794	0.02
699.114	0.02
699.435	0.02
699.756	0.02
700.077	0.02
700.397	0.03
700.718	0.03
701.038	0.03
701.359	0.03
701.679	0.03
701.999	0.03
702.32	0.03
702.64	0.03
702.96	0.03
703.28	0.03
703.6	0.02
703.92	0.02
704.24	0.02
704.56	0.02
704.879	0.02
705.199	0.02
705.519	0.02
705.838	0.02
706.158	0.03
706.478	0.03
706.797	0.03
707.116	0.02
707.436	0.02
707.755	0.02
708.074	0.02
708.393	0.02
708.712	0.02
709.031	0.01
709.35	0.01
709.669	0.01
709.988	0.01
710.307	0.02
710.626	0.02
710.944	0.02
711.263	0.02
711.582	0.02
711.9	0.02
712.219	0.02
712.537	0.02
712.855	0.02
713.174	0.02
713.492	0.02
713.81	0.02
714.128	0.02
714.446	0.02
714.764	0.02
715.082	0.01
715.4	0.02
715.718	0.02
716.035	0.02
716.353	0.02
716.671	0.02
716.988	0.02
717.306	0.02
717.623	0.02
717.941	0.02
718.258	0.02
718.575	0.02
718.893	0.03
719.21	0.02
719.527	0.02
719.844	0.02
720.161	0.02
720.478	0.02
720.795	0.02
721.112	0.03
721.428	0.03
721.745	0.03
722.062	0.02
722.378	0.03
722.695	0.02
723.011	0.02
723.328	0.02
723.644	0.02
723.96	0.03
724.276	0.02
724.593	0.03
724.909	0.03
725.225	0.03
725.541	0.03
725.857	0.03
726.173	0.03
726.488	0.03
726.804	0.03
727.12	0.02
727.435	0.02
727.751	0.02
728.067	0.02
728.382	0.03
728.697	0.03
729.013	0.03
729.328	0.03
729.643	0.02
729.958	0.02
730.273	0.02
730.588	0.02
730.903	0.02
731.218	0.02
731.533	0.02
731.848	0.02
732.163	0.02
732.477	0.02
732.792	0.02
733.107	0.01
733.421	0.02
733.736	0.02
734.05	0.02
734.364	0.02
734.678	0.02
734.993	0.02
735.307	0.02
735.621	0.02
735.935	0.02
736.249	0.02
736.563	0.02
736.877	0.02
737.19	0.03
737.504	0.03
737.818	0.03
738.131	0.03
738.445	0.03
738.758	0.03
739.072	0.03
739.385	0.03
739.698	0.03
740.012	0.03
740.325	0.03
740.638	0.03
740.951	0.03
741.264	0.02
741.577	0.02
741.89	0.02
742.203	0.02
742.515	0.02
742.828	0.02
743.141	0.02
743.453	0.02
743.766	0.02
744.078	0.02
744.391	0.02
744.703	0.02
745.015	0.02
745.327	0.02
745.639	0.02
745.952	0.02
746.264	0.02
746.575	0.02
746.887	0.02
747.199	0.02
747.511	0.02
747.823	0.02
748.134	0.02
748.446	0.02
748.757	0.02
749.069	0.02
749.38	0.01
749.692	0.01
750.003	0.01
750.314	0.01
750.625	0.01
750.936	0.01
751.248	0.01
751.559	0.01
751.869	0.01
752.18	0.01
752.491	0.01
752.802	0.01
753.112	0.01
753.423	0.01
753.734	0.01
754.044	0.01
754.355	0.01
754.665	0.01
754.975	0.01
755.285	0.01
755.596	0.01
755.906	0.01
756.216	0.01
756.526	0.01
756.836	0.01
757.146	0.01
757.455	0.01
757.765	0.01
758.075	0.01
758.385	0.01
758.694	0.01
759.004	0.01
759.313	0.01
759.622	0.01
759.932	0.01
760.241	0.01
760.55	0.01
760.859	0.01
761.168	0.01
761.477	0.01
761.786	0.01
762.095	0.01
762.404	0.01
762.713	0.01
763.021	0.01
763.33	0.01
763.639	0.01
763.947	0.01
764.256	0.01
764.564	0.01
764.872	0.01
765.181	0.01
765.489	0.01
765.797	0.01
766.105	0.01
766.413	0
766.721	0.01
767.029	0.01
767.337	0
767.644	0.01
767.952	0.01
768.26	0.01
768.567	0.01
768.875	0.01
769.182	0.01
769.49	0.01
769.797	0.01
770.104	0.01
770.411	0.01
770.718	0.01
771.026	0.01
771.333	0.01
771.639	0
771.946	0
772.253	0
772.56	0
772.867	0.01
773.173	0
773.48	0
773.786	0.01
774.093	0
774.399	0
774.705	0.01
775.012	0
775.318	0.01
775.624	0.01
775.93	0
776.236	0.01
776.542	0.01
776.848	0.01
777.154	0.01
777.459	0
777.765	0
778.071	0
778.376	0.01
778.682	0
778.987	0.01
779.292	0.01
779.598	0
779.903	0
780.208	-0
780.513	0
780.818	0
781.123	0
781.428	0
781.733	0
782.038	-0
782.343	-0
782.647	-0
782.952	-0
783.256	-0
783.561	-0
783.865	-0
784.17	-0
784.474	-0
784.778	-0
785.082	-0
785.386	-0
785.69	0
785.994	-0
786.298	-0
786.602	0
786.906	0
787.209	0
787.513	0.01
787.817	0.01
788.12	0
788.424	0.01
788.727	0.01
789.03	0.01
789.333	0
789.637	0
789.94	0.01
790.243	0.01
790.546	0.01
790.849	0.01
791.152	0
791.454	0.01
791.757	0.01
792.06	0.01
792.362	0.01
792.665	0.01
792.967	0.01
793.27	0.01
793.572	0.01
793.874	0.01
794.177	0.01
794.479	0
794.781	0
795.083	0
795.385	0
795.687	0.01
795.989	0
796.29	0
796.592	0
796.894	0.01
797.195	0.01
797.497	0.01
797.798	0.01
798.1	0
798.401	0
798.702	0
799.003	0
799.304	0.01
799.605	0.01
799.906	0.01
800.207	0.01
800.508	0.01
800.809	0.01
801.11	0.01
801.41	0
801.711	0
802.011	0
802.312	0.01
802.612	-0
802.913	0
803.213	-0
803.513	0
803.813	0
804.113	0.01
804.413	0.01
804.713	0.01
805.013	0.01
805.313	0.01
805.613	0
805.912	0
806.212	0
806.511	0.01
806.811	0.01
807.11	0.01
807.41	0.01
807.709	0.01
808.008	0.01
808.307	0.01
808.606	0
808.905	0.01
809.204	0
809.503	0.01
809.802	0.01
810.101	0.01
810.399	0.01
810.698	0.01
810.997	0.01
811.295	0.01
811.593	0.01
811.892	0.01
812.19	0
812.488	0.01
812.786	0.01
813.084	0.01
813.383	0.01
813.68	0.01
813.978	0.01
814.276	0.01
814.574	0
814.872	0.01
815.169	0.01
815.467	0.01
815.764	0.01
816.062	0
816.359	0
816.656	0.01
816.954	0.01
817.251	0.01
817.548	0
817.845	0.01
818.142	0.01
818.439	0.01
818.735	0.02
819.032	0.02
819.329	0.02
819.626	0.01
819.922	0.01
820.219	0.02
820.515	0.01
820.811	0.02
821.108	0.02
821.404	0.02
821.7	0.02
821.996	0.01
822.292	0.02
822.588	0.02
822.884	0.02
823.18	0.02
823.475	0.02
823.771	0.03
824.067	0.02
824.362	0.02
824.658	0.02
824.953	0.01
825.249	0.01
825.544	0.01
825.839	0.01
826.134	0.01
826.429	0.02
826.724	0.01
827.019	0.02
827.314	0.01
827.609	0.01
827.904	0.01
828.198	0.01
828.493	0.02
828.787	0.02
829.082	0.02
829.376	0.02
829.671	0.03
829.965	0.02
830.259	0.02
830.553	0.02
830.847	0.03
831.141	0.02
831.435	0.02
831.729	0.02
832.023	0.02
832.317	0.02
832.61	0.02
832.904	0.02
833.197	0.02
833.491	0.02
833.784	0.02
834.077	0.02
834.371	0.02
834.664	0.02
834.957	0.02
835.25	0.02
835.543	0.02
835.836	0.02
836.129	0.02
836.421	0.01
836.714	0.02
837.007	0.02
837.299	0.02
837.592	0.02
837.884	0.03
838.177	0.02
838.469	0.03
838.761	0.02
839.053	0.02
839.345	0.02
839.637	0.01
839.929	0.03
840.221	0.02
840.513	0.02
840.805	0.03
841.096	0.02
841.388	0.03
841.68	0.03
841.971	0.02
842.262	0.02
842.554	0.02
842.845	0.01
843.136	0.01
843.427	0.03
843.718	0.02
844.009	0.01
844.3	0.02
844.591	0.02
844.882	0.02
845.173	0.03
845.463	0.03
845.754	0.03
846.044	0.02
846.335	0.02
846.625	0.02
846.915	0.02
847.206	0.02
847.496	0.03
847.786	0.03
848.076	0.02
848.366	0.01
848.656	0.02
848.945	0.02
849.235	0.01
849.525	0.02
849.814	0.02
850.104	0.01
850.393	0.02
850.683	0.03
850.972	0.03
851.261	0.01
851.551	0.03
851.84	0.03
852.129	0.03
852.418	0.02
852.707	0.03
852.995	0.03
853.284	0.02
853.573	0.01
853.862	0.01
854.15	0.02
854.439	0.02
854.727	0.01
855.015	0.02
855.304	0.02
855.592	0.02
855.88	0.02
856.168	0.01
856.456	0.02
856.744	0.02
857.032	0.02
857.32	0.02
857.607	0.01
857.895	0.03
858.183	0.02
858.47	0.02
858.757	0.02
859.045	0.02
859.332	0.02
859.619	0.04
859.907	0.04
860.194	0.02
860.481	0.03
860.768	0.01
861.054	0.01
861.341	0.02
861.628	0.02
861.915	0.01
862.201	0.03
862.488	0.02
862.774	0.03
863.061	0.03
863.347	0.01
863.633	0.02
863.919	0
864.205	0.01
864.491	0.04
864.777	0.03
865.063	0.03
865.349	0.04
865.635	0.03
865.92	0.04
866.206	0.01
866.492	0.02
866.777	0.05
867.062	0.01
867.348	0.03
867.633	-0
867.918	0.05
868.203	0.04
868.488	0.03
868.773	0.05
869.058	0.04
869.343	0
869.628	0.06
869.912	0.02
870.197	0.04
870.482	0.01
870.766	0.08
871.05	0.05
871.335	0.02
871.619	0.01
871.903	0.05
872.187	0.02
872.471	0.03
872.755	0.06
873.039	-0.01
873.323	0.05
873.607	0.04
873.89	0.04
874.174	0.01
874.458	0.08
874.741	-0.01
875.024	0.04
875.308	0.11
875.591	-0.01
875.874	-0
876.157	-0.03
876.44	-0.02
876.723	-0
877.006	-0.06
877.289	0
877.572	0.02
877.854	-0.01
878.137	-0.02
878.42	-0
878.702	0.03
878.984	0.08
879.267	0.03
879.549	0
879.831	-0
880.113	0.01
880.395	-0.01
880.677	-0.02
880.959	-0.03
