Data from Rubpy_BV_1800_EDTA_Buffered_Absorbance_15-15-15-140.txt Node
Date: Wed Jul 01 15:15:15 BST 2026
User: fpm-admin
Spectrometer: OFX00224
Trigger mode: 0
Integration Time (sec): 7.000000E-2
Scans to average: 3
Nonlinearity correction enabled: false
Boxcar width: 0
Storing dark spectrum: false
XAxis mode: Wavelengths
Number of Pixels in Spectrum: 2136
>>>>>Begin Spectral Data<<<<<
154.91	-0.52
155.289	0.29
155.669	-0.72
156.048	-0
156.428	-0
156.807	-0
157.186	0.7
157.566	-0.27
157.945	-0.25
158.325	-0
158.704	-0
159.083	-0.7
159.462	-0
159.842	-0
160.221	-0
160.6	-0.14
160.979	-0
161.359	-0
161.738	0.57
162.117	-0.27
162.496	0.08
162.875	-0.09
163.254	0.73
163.633	-0
164.012	-0.19
164.391	-0.9
164.77	0.3
165.149	-0.5
165.528	-0
165.907	-0
166.286	0.77
166.665	0.27
167.044	0.1
167.423	0.34
167.802	-0
168.181	-0.26
168.559	-0.37
168.938	-0.58
169.317	0.98
169.696	-0
170.074	-0
170.453	-0
170.832	-0.65
171.21	0.3
171.589	-0
171.968	0.21
172.346	-0
172.725	0.3
173.103	0.28
173.482	-0
173.861	-0
174.239	0.55
174.617	-0
174.996	0.7
175.374	0.2
175.753	0.19
176.131	-0
176.51	-0.2
176.888	-0
177.266	-0
177.645	-0.04
178.023	-0
178.401	-0.08
178.779	0.14
179.158	-1.43
179.536	-0.41
179.914	-0.4
180.292	0.22
180.67	-0.23
181.048	-0
181.427	-0
181.805	-0
182.183	-0
182.561	-0
182.939	-0.54
183.317	0.88
183.695	-0
184.073	-0.15
184.451	0.06
184.829	-0
185.206	-0.31
185.584	0.15
185.962	-0
186.34	0.48
186.718	-0.18
187.096	-0.48
187.473	1.45
187.851	-0
188.229	-0
188.607	0.33
188.984	0.16
189.362	0.31
189.74	0.14
190.117	0.12
190.495	0.25
190.872	0.45
191.25	0.37
191.627	0.38
192.005	0.29
192.382	0.09
192.76	0.34
193.137	0.45
193.515	0.21
193.892	0.22
194.269	0.45
194.647	0.24
195.024	0.23
195.401	0.28
195.779	0.39
196.156	0.22
196.533	0.29
196.91	0.26
197.288	0.19
197.665	0.27
198.042	0.23
198.419	0.16
198.796	0.12
199.173	0.28
199.55	0.24
199.927	0.24
200.304	0.27
200.681	0.57
201.058	0.39
201.435	0.43
201.812	0.26
202.189	0.29
202.566	0.34
202.943	0.29
203.32	0.36
203.697	0.27
204.073	0.47
204.45	0.4
204.827	0.36
205.204	0.27
205.58	0.46
205.957	0.26
206.334	0.29
206.71	0.36
207.087	0.38
207.464	0.27
207.84	0.32
208.217	0.28
208.593	0.31
208.97	0.27
209.346	0.48
209.723	0.27
210.099	0.38
210.476	0.39
210.852	0.21
211.228	0.28
211.605	0.32
211.981	0.25
212.357	0.31
212.733	0.51
213.11	0.31
213.486	0.31
213.862	0.31
214.238	0.34
214.614	0.41
214.991	0.26
215.367	0.25
215.743	0.36
216.119	0.15
216.495	0.29
216.871	0.29
217.247	0.15
217.623	0.24
217.999	0.2
218.375	0.25
218.751	0.36
219.127	0.42
219.502	0.26
219.878	0.32
220.254	0.29
220.63	0.3
221.006	0.28
221.381	0.25
221.757	0.26
222.133	0.38
222.508	0.33
222.884	0.29
223.26	0.23
223.635	0.34
224.011	0.44
224.386	0.29
224.762	0.41
225.137	0.43
225.513	0.3
225.888	0.44
226.264	0.2
226.639	0.23
227.014	0.24
227.39	0.24
227.765	0.24
228.14	0.33
228.516	0.55
228.891	0.33
229.266	0.29
229.641	0.24
230.017	0.29
230.392	0.32
230.767	0.24
231.142	0.27
231.517	0.21
231.892	0.3
232.267	0.39
232.642	0.29
233.017	0.37
233.392	0.31
233.767	0.37
234.142	0.3
234.517	0.29
234.892	0.28
235.267	0.28
235.641	0.26
236.016	0.2
236.391	0.33
236.766	0.34
237.14	0.37
237.515	0.29
237.89	0.28
238.264	0.26
238.639	0.26
239.014	0.33
239.388	0.31
239.763	0.33
240.137	0.23
240.512	0.31
240.886	0.29
241.261	0.34
241.635	0.21
242.009	0.39
242.384	0.27
242.758	0.39
243.132	0.24
243.507	0.3
243.881	0.31
244.255	0.28
244.629	0.38
245.004	0.28
245.378	0.29
245.752	0.31
246.126	0.45
246.5	0.37
246.874	0.37
247.248	0.42
247.622	0.23
247.996	0.25
248.37	0.3
248.744	0.36
249.118	0.22
249.492	0.47
249.866	0.39
250.24	0.51
250.613	0.32
250.987	0.35
251.361	0.39
251.735	0.31
252.108	0.3
252.482	0.22
252.856	0.38
253.229	0.3
253.603	0.22
253.977	0.23
254.35	0.32
254.724	0.28
255.097	0.26
255.471	0.41
255.844	0.42
256.218	0.28
256.591	0.3
256.964	0.33
257.338	0.32
257.711	0.26
258.084	0.3
258.458	0.32
258.831	0.46
259.204	0.53
259.577	0.31
259.95	0.38
260.323	0.27
260.697	0.38
261.07	0.34
261.443	0.33
261.816	0.24
262.189	0.34
262.562	0.46
262.935	0.3
263.308	0.35
263.68	0.28
264.053	0.3
264.426	0.29
264.799	0.36
265.172	0.34
265.545	0.29
265.917	0.48
266.29	0.31
266.663	0.43
267.035	0.3
267.408	0.32
267.781	0.49
268.153	0.35
268.526	0.29
268.898	0.39
269.271	0.43
269.643	0.42
270.016	0.25
270.388	0.28
270.76	0.44
271.133	0.46
271.505	0.31
271.877	0.38
272.25	0.4
272.622	0.39
272.994	0.49
273.366	0.49
273.739	0.28
274.111	0.29
274.483	0.29
274.855	0.35
275.227	0.31
275.599	0.4
275.971	0.29
276.343	0.27
276.715	0.35
277.087	0.28
277.459	0.34
277.831	0.35
278.203	0.39
278.574	0.4
278.946	0.35
279.318	0.25
279.69	0.51
280.061	0.31
280.433	0.41
280.805	0.37
281.176	0.3
281.548	0.34
281.92	0.37
282.291	0.38
282.663	0.35
283.034	0.3
283.406	0.34
283.777	0.33
284.148	0.34
284.52	0.38
284.891	0.44
285.262	0.26
285.634	0.3
286.005	0.32
286.376	0.4
286.747	0.36
287.119	0.35
287.49	0.31
287.861	0.35
288.232	0.25
288.603	0.3
288.974	0.3
289.345	0.32
289.716	0.31
290.087	0.32
290.458	0.33
290.829	0.21
291.2	0.23
291.571	0.37
291.941	0.43
292.312	0.28
292.683	0.34
293.054	0.4
293.424	0.37
293.795	0.35
294.166	0.36
294.536	0.37
294.907	0.31
295.277	0.35
295.648	0.27
296.018	0.37
296.389	0.34
296.759	0.32
297.13	0.37
297.5	0.35
297.871	0.31
298.241	0.37
298.611	0.38
298.981	0.35
299.352	0.39
299.722	0.38
300.092	0.32
300.462	0.3
300.832	0.38
301.202	0.39
301.573	0.36
301.943	0.35
302.313	0.49
302.683	0.34
303.053	0.26
303.422	0.31
303.792	0.37
304.162	0.37
304.532	0.26
304.902	0.3
305.272	0.39
305.641	0.34
306.011	0.31
306.381	0.35
306.75	0.32
307.12	0.31
307.49	0.31
307.859	0.32
308.229	0.29
308.598	0.31
308.968	0.37
309.337	0.3
309.707	0.33
310.076	0.33
310.445	0.28
310.815	0.3
311.184	0.3
311.553	0.27
311.923	0.3
312.292	0.3
312.661	0.28
313.03	0.28
313.399	0.28
313.768	0.29
314.137	0.31
314.506	0.29
314.875	0.3
315.244	0.3
315.613	0.3
315.982	0.34
316.351	0.32
316.72	0.33
317.089	0.34
317.458	0.35
317.826	0.35
318.195	0.35
318.564	0.33
318.933	0.34
319.301	0.38
319.67	0.36
320.038	0.37
320.407	0.38
320.775	0.38
321.144	0.38
321.512	0.37
321.881	0.4
322.249	0.38
322.618	0.4
322.986	0.4
323.354	0.39
323.723	0.43
324.091	0.41
324.459	0.42
324.827	0.43
325.195	0.44
325.564	0.45
325.932	0.45
326.3	0.46
326.668	0.47
327.036	0.46
327.404	0.48
327.772	0.48
328.14	0.49
328.508	0.5
328.875	0.51
329.243	0.51
329.611	0.51
329.979	0.53
330.346	0.55
330.714	0.54
331.082	0.56
331.449	0.56
331.817	0.57
332.185	0.58
332.552	0.59
332.92	0.61
333.287	0.61
333.655	0.62
334.022	0.63
334.389	0.66
334.757	0.67
335.124	0.67
335.491	0.69
335.859	0.71
336.226	0.72
336.593	0.73
336.96	0.75
337.327	0.74
337.695	0.76
338.062	0.78
338.429	0.79
338.796	0.81
339.163	0.82
339.53	0.84
339.897	0.85
340.263	0.89
340.63	0.87
340.997	0.9
341.364	0.9
341.731	0.92
342.097	0.94
342.464	0.96
342.831	0.99
343.197	0.99
343.564	1
343.931	1.01
344.297	1.05
344.664	1.06
345.03	1.07
345.396	1.08
345.763	1.1
346.129	1.11
346.496	1.13
346.862	1.15
347.228	1.16
347.594	1.17
347.961	1.19
348.327	1.2
348.693	1.21
349.059	1.24
349.425	1.24
349.791	1.26
350.157	1.28
350.523	1.28
350.889	1.3
351.255	1.31
351.621	1.31
351.987	1.34
352.353	1.36
352.719	1.37
353.084	1.37
353.45	1.41
353.816	1.43
354.181	1.42
354.547	1.46
354.913	1.46
355.278	1.47
355.644	1.48
356.009	1.5
356.375	1.51
356.74	1.55
357.106	1.55
357.471	1.58
357.836	1.6
358.202	1.62
358.567	1.62
358.932	1.62
359.297	1.65
359.663	1.67
360.028	1.69
360.393	1.71
360.758	1.74
361.123	1.73
361.488	1.77
361.853	1.78
362.218	1.78
362.583	1.8
362.948	1.81
363.312	1.84
363.677	1.85
364.042	1.84
364.407	1.89
364.772	1.92
365.136	1.88
365.501	1.87
365.865	1.87
366.23	1.93
366.595	1.94
366.959	1.96
367.324	1.94
367.688	1.91
368.052	1.97
368.417	2
368.781	1.96
369.145	1.98
369.51	2.01
369.874	1.98
370.238	1.95
370.602	1.99
370.967	2.01
371.331	1.95
371.695	1.97
372.059	1.99
372.423	1.97
372.787	1.99
373.151	1.98
373.515	2.01
373.878	1.98
374.242	2.03
374.606	2.05
374.97	2.01
375.334	1.94
375.697	1.93
376.061	1.96
376.425	1.91
376.788	1.93
377.152	1.9
377.515	1.92
377.879	1.91
378.242	1.9
378.606	1.92
378.969	1.86
379.333	1.88
379.696	1.8
380.059	1.82
380.422	1.85
380.786	1.85
381.149	1.81
381.512	1.76
381.875	1.73
382.238	1.7
382.601	1.71
382.964	1.7
383.327	1.7
383.69	1.65
384.053	1.62
384.416	1.65
384.779	1.62
385.142	1.58
385.504	1.58
385.867	1.57
386.23	1.55
386.593	1.56
386.955	1.56
387.318	1.53
387.68	1.52
388.043	1.52
388.405	1.51
388.768	1.51
389.13	1.51
389.493	1.47
389.855	1.46
390.217	1.48
390.58	1.45
390.942	1.43
391.304	1.42
391.666	1.38
392.028	1.38
392.391	1.38
392.753	1.34
393.115	1.32
393.477	1.31
393.839	1.29
394.201	1.28
394.563	1.27
394.924	1.28
395.286	1.28
395.648	1.28
396.01	1.26
396.371	1.28
396.733	1.29
397.095	1.31
397.456	1.32
397.818	1.35
398.18	1.36
398.541	1.4
398.903	1.42
399.264	1.44
399.625	1.48
399.987	1.51
400.348	1.52
400.709	1.54
401.071	1.54
401.432	1.53
401.793	1.55
402.154	1.52
402.515	1.52
402.876	1.49
403.238	1.44
403.599	1.43
403.96	1.4
404.32	1.33
404.681	1.29
405.042	1.25
405.403	1.2
405.764	1.15
406.125	1.1
406.485	1.04
406.846	0.99
407.207	0.93
407.567	0.91
407.928	0.86
408.288	0.8
408.649	0.77
409.009	0.72
409.37	0.69
409.73	0.65
410.091	0.62
410.451	0.58
410.811	0.55
411.171	0.53
411.532	0.51
411.892	0.49
412.252	0.46
412.612	0.43
412.972	0.43
413.332	0.4
413.692	0.38
414.052	0.37
414.412	0.36
414.772	0.35
415.132	0.34
415.492	0.33
415.851	0.31
416.211	0.3
416.571	0.3
416.931	0.3
417.29	0.28
417.65	0.27
418.009	0.27
418.369	0.26
418.728	0.27
419.088	0.25
419.447	0.24
419.807	0.24
420.166	0.23
420.525	0.23
420.884	0.22
421.244	0.22
421.603	0.22
421.962	0.22
422.321	0.22
422.68	0.21
423.039	0.2
423.398	0.19
423.757	0.2
424.116	0.2
424.475	0.19
424.834	0.19
425.193	0.19
425.551	0.19
425.91	0.18
426.269	0.18
426.628	0.18
426.986	0.18
427.345	0.18
427.703	0.18
428.062	0.18
428.42	0.17
428.779	0.18
429.137	0.17
429.496	0.16
429.854	0.17
430.212	0.17
430.57	0.17
430.929	0.16
431.287	0.16
431.645	0.17
432.003	0.16
432.361	0.17
432.719	0.17
433.077	0.16
433.435	0.17
433.793	0.17
434.151	0.16
434.509	0.17
434.866	0.16
435.224	0.17
435.582	0.17
435.94	0.17
436.297	0.16
436.655	0.18
437.012	0.16
437.37	0.17
437.727	0.16
438.085	0.16
438.442	0.16
438.8	0.16
439.157	0.16
439.514	0.17
439.872	0.17
440.229	0.16
440.586	0.16
440.943	0.16
441.3	0.16
441.657	0.17
442.014	0.16
442.371	0.16
442.728	0.18
443.085	0.17
443.442	0.16
443.799	0.17
444.156	0.17
444.513	0.17
444.869	0.16
445.226	0.17
445.583	0.17
445.939	0.17
446.296	0.17
446.652	0.18
447.009	0.17
447.365	0.18
447.722	0.17
448.078	0.16
448.434	0.18
448.791	0.18
449.147	0.18
449.503	0.18
449.859	0.18
450.215	0.18
450.571	0.18
450.928	0.18
451.284	0.18
451.64	0.18
451.995	0.18
452.351	0.17
452.707	0.17
453.063	0.17
453.419	0.18
453.775	0.17
454.13	0.18
454.486	0.18
454.842	0.17
455.197	0.17
455.553	0.17
455.908	0.17
456.264	0.17
456.619	0.17
456.975	0.17
457.33	0.17
457.685	0.17
458.04	0.17
458.396	0.16
458.751	0.16
459.106	0.14
459.461	0.16
459.816	0.15
460.171	0.15
460.526	0.16
460.881	0.13
461.236	0.13
461.591	0.14
461.946	0.14
462.301	0.14
462.655	0.13
463.01	0.13
463.365	0.13
463.719	0.12
464.074	0.11
464.428	0.11
464.783	0.1
465.137	0.1
465.492	0.1
465.846	0.1
466.201	0.11
466.555	0.11
466.909	0.11
467.263	0.12
467.618	0.12
467.972	0.13
468.326	0.13
468.68	0.12
469.034	0.12
469.388	0.11
469.742	0.12
470.096	0.13
470.45	0.13
470.804	0.13
471.157	0.14
471.511	0.14
471.865	0.13
472.218	0.14
472.572	0.15
472.926	0.15
473.279	0.16
473.633	0.17
473.986	0.19
474.34	0.19
474.693	0.19
475.046	0.21
475.4	0.22
475.753	0.23
476.106	0.24
476.459	0.25
476.812	0.26
477.165	0.27
477.519	0.29
477.872	0.28
478.224	0.3
478.577	0.3
478.93	0.31
479.283	0.32
479.636	0.32
479.989	0.33
480.341	0.35
480.694	0.35
481.047	0.36
481.399	0.36
481.752	0.38
482.104	0.39
482.457	0.39
482.809	0.4
483.162	0.4
483.514	0.41
483.866	0.42
484.219	0.42
484.571	0.43
484.923	0.42
485.275	0.44
485.627	0.44
485.979	0.45
486.331	0.45
486.683	0.47
487.035	0.47
487.387	0.48
487.739	0.49
488.091	0.49
488.443	0.5
488.794	0.5
489.146	0.51
489.498	0.51
489.849	0.52
490.201	0.51
490.552	0.52
490.904	0.53
491.255	0.53
491.607	0.53
491.958	0.54
492.309	0.55
492.661	0.55
493.012	0.56
493.363	0.56
493.714	0.57
494.065	0.57
494.416	0.57
494.767	0.58
495.118	0.58
495.469	0.59
495.82	0.6
496.171	0.61
496.522	0.61
496.872	0.62
497.223	0.62
497.574	0.62
497.924	0.63
498.275	0.64
498.626	0.64
498.976	0.64
499.327	0.65
499.677	0.65
500.027	0.66
500.378	0.67
500.728	0.67
501.078	0.68
501.428	0.68
501.779	0.69
502.129	0.69
502.479	0.7
502.829	0.7
503.179	0.7
503.529	0.71
503.879	0.71
504.229	0.71
504.578	0.73
504.928	0.73
505.278	0.73
505.628	0.75
505.977	0.74
506.327	0.75
506.676	0.75
507.026	0.77
507.375	0.75
507.725	0.76
508.074	0.77
508.424	0.78
508.773	0.77
509.122	0.78
509.471	0.79
509.82	0.79
510.17	0.8
510.519	0.8
510.868	0.8
511.217	0.81
511.566	0.81
511.915	0.82
512.263	0.82
512.612	0.82
512.961	0.83
513.31	0.84
513.659	0.84
514.007	0.84
514.356	0.85
514.704	0.85
515.053	0.86
515.401	0.86
515.75	0.86
516.098	0.86
516.447	0.87
516.795	0.87
517.143	0.87
517.491	0.88
517.839	0.88
518.188	0.88
518.536	0.89
518.884	0.9
519.232	0.9
519.58	0.91
519.928	0.91
520.275	0.91
520.623	0.91
520.971	0.92
521.319	0.92
521.666	0.93
522.014	0.93
522.362	0.93
522.709	0.93
523.057	0.93
523.404	0.93
523.752	0.94
524.099	0.95
524.446	0.95
524.794	0.95
525.141	0.95
525.488	0.96
525.835	0.96
526.182	0.96
526.529	0.95
526.876	0.96
527.223	0.97
527.57	0.97
527.917	0.98
528.264	0.98
528.611	0.98
528.958	0.97
529.304	0.99
529.651	0.98
529.998	0.98
530.344	1
530.691	1
531.037	1
531.384	1.01
531.73	1
532.076	1
532.423	1
532.769	1
533.115	1
533.461	1
533.807	1.01
534.154	1.01
534.5	1.02
534.846	1.02
535.192	1.02
535.537	1.02
535.883	1.02
536.229	1.03
536.575	1.03
536.921	1.03
537.266	1.04
537.612	1.03
537.957	1.04
538.303	1.03
538.649	1.04
538.994	1.04
539.339	1.04
539.685	1.05
540.03	1.05
540.375	1.04
540.721	1.05
541.066	1.05
541.411	1.05
541.756	1.05
542.101	1.06
542.446	1.04
542.791	1.05
543.136	1.06
543.481	1.06
543.825	1.06
544.17	1.05
544.515	1.07
544.86	1.06
545.204	1.06
545.549	1.06
545.893	1.06
546.238	1.06
546.582	1.06
546.927	1.06
547.271	1.07
547.615	1.06
547.96	1.06
548.304	1.07
548.648	1.07
548.992	1.06
549.336	1.07
549.68	1.07
550.024	1.07
550.368	1.07
550.712	1.08
551.056	1.06
551.4	1.08
551.743	1.07
552.087	1.07
552.431	1.07
552.774	1.07
553.118	1.07
553.462	1.07
553.805	1.06
554.148	1.06
554.492	1.07
554.835	1.06
555.178	1.06
555.522	1.07
555.865	1.07
556.208	1.06
556.551	1.06
556.894	1.07
557.237	1.06
557.58	1.06
557.923	1.06
558.266	1.06
558.609	1.06
558.952	1.07
559.294	1.06
559.637	1.06
559.98	1.05
560.322	1.06
560.665	1.05
561.007	1.05
561.35	1.05
561.692	1.05
562.034	1.05
562.377	1.05
562.719	1.05
563.061	1.04
563.403	1.04
563.745	1.04
564.088	1.04
564.43	1.04
564.772	1.04
565.113	1.04
565.455	1.03
565.797	1.03
566.139	1.03
566.481	1.04
566.822	1.04
567.164	1.03
567.506	1.03
567.847	1.03
568.189	1.03
568.53	1.02
568.872	1.02
569.213	1.02
569.554	1.02
569.895	1.01
570.237	1.01
570.578	1.01
570.919	1.01
571.26	1.01
571.601	1
571.942	1.01
572.283	1
572.624	0.99
572.965	1
573.306	0.98
573.646	0.99
573.987	0.99
574.328	0.98
574.668	0.98
575.009	0.98
575.349	0.97
575.69	0.97
576.03	0.97
576.37	0.96
576.711	0.96
577.051	0.96
577.391	0.96
577.731	0.96
578.072	0.96
578.412	0.95
578.752	0.95
579.092	0.95
579.431	0.93
579.771	0.92
580.111	0.91
580.451	0.93
580.791	0.94
581.13	0.94
581.47	0.94
581.81	0.94
582.149	0.94
582.489	0.93
582.828	0.92
583.167	0.88
583.507	0.85
583.846	0.85
584.185	0.88
584.525	0.91
584.864	0.92
585.203	0.93
585.542	0.93
585.881	0.92
586.22	0.92
586.559	0.91
586.898	0.89
587.236	0.89
587.575	0.9
587.914	0.9
588.252	0.91
588.591	0.91
588.93	0.91
589.268	0.9
589.607	0.9
589.945	0.9
590.283	0.91
590.622	0.91
590.96	0.9
591.298	0.91
591.636	0.9
591.974	0.91
592.313	0.9
592.651	0.91
592.989	0.9
593.326	0.91
593.664	0.91
594.002	0.9
594.34	0.9
594.678	0.89
595.015	0.89
595.353	0.88
595.691	0.89
596.028	0.9
596.366	0.9
596.703	0.89
597.04	0.89
597.378	0.89
597.715	0.9
598.052	0.9
598.389	0.9
598.726	0.9
599.064	0.89
599.401	0.9
599.738	0.9
600.074	0.89
600.411	0.89
600.748	0.88
601.085	0.88
601.422	0.87
601.758	0.87
602.095	0.87
602.432	0.87
602.768	0.88
603.105	0.88
603.441	0.88
603.777	0.87
604.114	0.87
604.45	0.87
604.786	0.87
605.122	0.86
605.459	0.86
605.795	0.86
606.131	0.86
606.467	0.86
606.803	0.86
607.139	0.86
607.474	0.85
607.81	0.85
608.146	0.85
608.482	0.85
608.817	0.85
609.153	0.84
609.488	0.83
609.824	0.84
610.159	0.84
610.495	0.83
610.83	0.83
611.165	0.82
611.5	0.82
611.836	0.82
612.171	0.81
612.506	0.81
612.841	0.81
613.176	0.81
613.511	0.81
613.845	0.8
614.18	0.8
614.515	0.8
614.85	0.79
615.184	0.79
615.519	0.8
615.854	0.79
616.188	0.79
616.523	0.78
616.857	0.78
617.191	0.78
617.526	0.78
617.86	0.78
618.194	0.77
618.528	0.77
618.862	0.77
619.196	0.76
619.53	0.76
619.864	0.76
620.198	0.75
620.532	0.75
620.866	0.75
621.2	0.75
621.533	0.75
621.867	0.74
622.201	0.73
622.534	0.73
622.868	0.73
623.201	0.73
623.534	0.72
623.868	0.71
624.201	0.72
624.534	0.71
624.868	0.71
625.201	0.71
625.534	0.71
625.867	0.7
626.2	0.7
626.533	0.7
626.865	0.7
627.198	0.69
627.531	0.69
627.864	0.69
628.196	0.68
628.529	0.68
628.862	0.68
629.194	0.68
629.527	0.67
629.859	0.66
630.191	0.66
630.524	0.66
630.856	0.65
631.188	0.65
631.52	0.64
631.852	0.64
632.184	0.63
632.516	0.63
632.848	0.63
633.18	0.63
633.512	0.62
633.844	0.62
634.175	0.62
634.507	0.61
634.839	0.61
635.17	0.6
635.502	0.6
635.833	0.6
636.165	0.59
636.496	0.58
636.827	0.59
637.159	0.58
637.49	0.58
637.821	0.57
638.152	0.57
638.483	0.57
638.814	0.56
639.145	0.56
639.476	0.56
639.807	0.55
640.137	0.54
640.468	0.54
640.799	0.54
641.129	0.54
641.46	0.53
641.791	0.53
642.121	0.53
642.451	0.53
642.782	0.52
643.112	0.51
643.442	0.51
643.773	0.51
644.103	0.5
644.433	0.5
644.763	0.51
645.093	0.5
645.423	0.5
645.753	0.49
646.082	0.49
646.412	0.49
646.742	0.49
647.072	0.48
647.401	0.49
647.731	0.48
648.06	0.48
648.39	0.48
648.719	0.48
649.048	0.48
649.378	0.47
649.707	0.47
650.036	0.47
650.365	0.46
650.694	0.46
651.023	0.46
651.352	0.46
651.681	0.46
652.01	0.45
652.339	0.45
652.668	0.45
652.996	0.45
653.325	0.45
653.654	0.45
653.982	0.44
654.311	0.44
654.639	0.44
654.967	0.44
655.296	0.44
655.624	0.44
655.952	0.43
656.28	0.43
656.609	0.43
656.937	0.43
657.265	0.41
657.593	0.25
657.92	0.16
658.248	0.14
658.576	0.21
658.904	0.34
659.231	0.41
659.559	0.42
659.887	0.42
660.214	0.41
660.542	0.41
660.869	0.41
661.196	0.41
661.524	0.41
661.851	0.41
662.178	0.41
662.505	0.41
662.832	0.4
663.159	0.4
663.486	0.4
663.813	0.4
664.14	0.39
664.467	0.39
664.794	0.39
665.12	0.39
665.447	0.39
665.774	0.39
666.1	0.38
666.427	0.38
666.753	0.38
667.079	0.38
667.406	0.37
667.732	0.38
668.058	0.37
668.384	0.37
668.71	0.37
669.036	0.37
669.362	0.37
669.688	0.36
670.014	0.36
670.34	0.36
670.666	0.35
670.991	0.35
671.317	0.35
671.643	0.35
671.968	0.35
672.294	0.34
672.619	0.34
672.945	0.34
673.27	0.33
673.595	0.33
673.92	0.33
674.246	0.32
674.571	0.33
674.896	0.32
675.221	0.32
675.546	0.32
675.87	0.31
676.195	0.31
676.52	0.31
676.845	0.31
677.169	0.31
677.494	0.3
677.819	0.3
678.143	0.29
678.468	0.29
678.792	0.29
679.116	0.29
679.44	0.29
679.765	0.29
680.089	0.28
680.413	0.27
680.737	0.27
681.061	0.27
681.385	0.27
681.709	0.27
682.033	0.27
682.356	0.26
682.68	0.26
683.004	0.26
683.327	0.25
683.651	0.25
683.974	0.25
684.298	0.25
684.621	0.24
684.944	0.24
685.268	0.23
685.591	0.23
685.914	0.23
686.237	0.23
686.56	0.22
686.883	0.22
687.206	0.22
687.529	0.22
687.852	0.21
688.175	0.21
688.497	0.22
688.82	0.21
689.142	0.21
689.465	0.2
689.787	0.2
690.11	0.2
690.432	0.2
690.755	0.2
691.077	0.19
691.399	0.19
691.721	0.18
692.043	0.19
692.365	0.18
692.687	0.18
693.009	0.18
693.331	0.17
693.653	0.17
693.974	0.17
694.296	0.17
694.618	0.17
694.939	0.17
695.261	0.17
695.582	0.16
695.904	0.16
696.225	0.16
696.546	0.16
696.868	0.16
697.189	0.16
697.51	0.15
697.831	0.15
698.152	0.15
698.473	0.15
698.794	0.14
699.114	0.14
699.435	0.13
699.756	0.14
700.077	0.14
700.397	0.13
700.718	0.14
701.038	0.14
701.359	0.14
701.679	0.14
701.999	0.14
702.32	0.13
702.64	0.13
702.96	0.13
703.28	0.14
703.6	0.13
703.92	0.13
704.24	0.13
704.56	0.12
704.879	0.12
705.199	0.13
705.519	0.13
705.838	0.12
706.158	0.13
706.478	0.13
706.797	0.13
707.116	0.12
707.436	0.12
707.755	0.12
708.074	0.12
708.393	0.12
708.712	0.11
709.031	0.1
709.35	0.1
709.669	0.1
709.988	0.11
710.307	0.11
710.626	0.11
710.944	0.12
711.263	0.12
711.582	0.12
711.9	0.12
712.219	0.11
712.537	0.11
712.855	0.11
713.174	0.11
713.492	0.11
713.81	0.12
714.128	0.11
714.446	0.12
714.764	0.11
715.082	0.1
715.4	0.11
715.718	0.11
716.035	0.11
716.353	0.11
716.671	0.11
716.988	0.12
717.306	0.11
717.623	0.12
717.941	0.12
718.258	0.12
718.575	0.12
718.893	0.12
719.21	0.12
719.527	0.12
719.844	0.12
720.161	0.12
720.478	0.12
720.795	0.12
721.112	0.12
721.428	0.12
721.745	0.12
722.062	0.13
722.378	0.12
722.695	0.13
723.011	0.12
723.328	0.12
723.644	0.12
723.96	0.12
724.276	0.12
724.593	0.12
724.909	0.12
725.225	0.13
725.541	0.13
725.857	0.12
726.173	0.12
726.488	0.13
726.804	0.12
727.12	0.12
727.435	0.12
727.751	0.12
728.067	0.12
728.382	0.12
728.697	0.12
729.013	0.12
729.328	0.12
729.643	0.12
729.958	0.12
730.273	0.12
730.588	0.12
730.903	0.12
731.218	0.12
731.533	0.12
731.848	0.12
732.163	0.12
732.477	0.12
732.792	0.11
733.107	0.11
733.421	0.11
733.736	0.11
734.05	0.11
734.364	0.11
734.678	0.11
734.993	0.11
735.307	0.11
735.621	0.11
735.935	0.11
736.249	0.11
736.563	0.11
736.877	0.11
737.19	0.11
737.504	0.11
737.818	0.11
738.131	0.11
738.445	0.11
738.758	0.11
739.072	0.11
739.385	0.12
739.698	0.12
740.012	0.12
740.325	0.11
740.638	0.11
740.951	0.11
741.264	0.11
741.577	0.11
741.89	0.11
742.203	0.11
742.515	0.11
742.828	0.11
743.141	0.11
743.453	0.11
743.766	0.11
744.078	0.1
744.391	0.1
744.703	0.1
745.015	0.1
745.327	0.1
745.639	0.1
745.952	0.1
746.264	0.1
746.575	0.1
746.887	0.1
747.199	0.1
747.511	0.09
747.823	0.09
748.134	0.09
748.446	0.09
748.757	0.09
749.069	0.09
749.38	0.08
749.692	0.08
750.003	0.08
750.314	0.07
750.625	0.08
750.936	0.08
751.248	0.08
751.559	0.08
751.869	0.08
752.18	0.08
752.491	0.08
752.802	0.08
753.112	0.08
753.423	0.07
753.734	0.07
754.044	0.07
754.355	0.07
754.665	0.07
754.975	0.07
755.285	0.07
755.596	0.07
755.906	0.07
756.216	0.07
756.526	0.07
756.836	0.07
757.146	0.06
757.455	0.06
757.765	0.06
758.075	0.06
758.385	0.06
758.694	0.06
759.004	0.06
759.313	0.06
759.622	0.06
759.932	0.06
760.241	0.06
760.55	0.06
760.859	0.06
761.168	0.07
761.477	0.06
761.786	0.06
762.095	0.06
762.404	0.06
762.713	0.06
763.021	0.06
763.33	0.06
763.639	0.06
763.947	0.06
764.256	0.06
764.564	0.06
764.872	0.06
765.181	0.06
765.489	0.06
765.797	0.06
766.105	0.05
766.413	0.05
766.721	0.06
767.029	0.06
767.337	0.06
767.644	0.06
767.952	0.06
768.26	0.06
768.567	0.06
768.875	0.06
769.182	0.06
769.49	0.06
769.797	0.06
770.104	0.06
770.411	0.06
770.718	0.06
771.026	0.06
771.333	0.06
771.639	0.06
771.946	0.05
772.253	0.06
772.56	0.06
772.867	0.06
773.173	0.06
773.48	0.06
773.786	0.06
774.093	0.06
774.399	0.06
774.705	0.06
775.012	0.06
775.318	0.06
775.624	0.06
775.93	0.06
776.236	0.07
776.542	0.07
776.848	0.07
777.154	0.07
777.459	0.07
777.765	0.07
778.071	0.07
778.376	0.06
778.682	0.06
778.987	0.07
779.292	0.06
779.598	0.06
779.903	0.06
780.208	0.06
780.513	0.06
780.818	0.06
781.123	0.06
781.428	0.06
781.733	0.06
782.038	0.06
782.343	0.06
782.647	0.06
782.952	0.05
783.256	0.06
783.561	0.06
783.865	0.06
784.17	0.05
784.474	0.05
784.778	0.05
785.082	0.06
785.386	0.06
785.69	0.06
785.994	0.06
786.298	0.06
786.602	0.06
786.906	0.06
787.209	0.06
787.513	0.06
787.817	0.07
788.12	0.07
788.424	0.07
788.727	0.07
789.03	0.07
789.333	0.07
789.637	0.07
789.94	0.07
790.243	0.07
790.546	0.07
790.849	0.08
791.152	0.08
791.454	0.07
791.757	0.07
792.06	0.07
792.362	0.08
792.665	0.07
792.967	0.07
793.27	0.07
793.572	0.07
793.874	0.07
794.177	0.07
794.479	0.08
794.781	0.08
795.083	0.08
795.385	0.08
795.687	0.08
795.989	0.09
796.29	0.08
796.592	0.09
796.894	0.09
797.195	0.08
797.497	0.08
797.798	0.09
798.1	0.08
798.401	0.08
798.702	0.08
799.003	0.08
799.304	0.08
799.605	0.08
799.906	0.08
800.207	0.08
800.508	0.08
800.809	0.08
801.11	0.08
801.41	0.08
801.711	0.09
802.011	0.09
802.312	0.09
802.612	0.08
802.913	0.09
803.213	0.09
803.513	0.08
803.813	0.09
804.113	0.09
804.413	0.09
804.713	0.09
805.013	0.09
805.313	0.1
805.613	0.09
805.912	0.09
806.212	0.09
806.511	0.09
806.811	0.09
807.11	0.1
807.41	0.09
807.709	0.09
808.008	0.1
808.307	0.1
808.606	0.1
808.905	0.09
809.204	0.09
809.503	0.09
809.802	0.09
810.101	0.09
810.399	0.1
810.698	0.1
810.997	0.1
811.295	0.1
811.593	0.1
811.892	0.1
812.19	0.1
812.488	0.1
812.786	0.1
813.084	0.1
813.383	0.1
813.68	0.1
813.978	0.11
814.276	0.11
814.574	0.11
814.872	0.11
815.169	0.11
815.467	0.11
815.764	0.1
816.062	0.1
816.359	0.1
816.656	0.1
816.954	0.1
817.251	0.11
817.548	0.11
817.845	0.11
818.142	0.11
818.439	0.12
818.735	0.12
819.032	0.12
819.329	0.12
819.626	0.12
819.922	0.12
820.219	0.12
820.515	0.12
820.811	0.13
821.108	0.12
821.404	0.12
821.7	0.12
821.996	0.12
822.292	0.12
822.588	0.12
822.884	0.13
823.18	0.13
823.475	0.13
823.771	0.14
824.067	0.13
824.362	0.13
824.658	0.13
824.953	0.13
825.249	0.12
825.544	0.13
825.839	0.13
826.134	0.13
826.429	0.13
826.724	0.13
827.019	0.13
827.314	0.13
827.609	0.13
827.904	0.13
828.198	0.13
828.493	0.14
828.787	0.14
829.082	0.14
829.376	0.14
829.671	0.15
829.965	0.15
830.259	0.14
830.553	0.15
830.847	0.15
831.141	0.14
831.435	0.15
831.729	0.15
832.023	0.15
832.317	0.15
832.61	0.14
832.904	0.15
833.197	0.15
833.491	0.15
833.784	0.16
834.077	0.16
834.371	0.15
834.664	0.16
834.957	0.16
835.25	0.15
835.543	0.15
835.836	0.16
836.129	0.16
836.421	0.16
836.714	0.16
837.007	0.15
837.299	0.15
837.592	0.15
837.884	0.16
838.177	0.15
838.469	0.16
838.761	0.16
839.053	0.16
839.345	0.16
839.637	0.15
839.929	0.16
840.221	0.16
840.513	0.16
840.805	0.17
841.096	0.16
841.388	0.17
841.68	0.17
841.971	0.17
842.262	0.17
842.554	0.16
842.845	0.17
843.136	0.16
843.427	0.18
843.718	0.16
844.009	0.16
844.3	0.16
844.591	0.17
844.882	0.17
845.173	0.18
845.463	0.17
845.754	0.18
846.044	0.16
846.335	0.18
846.625	0.18
846.915	0.17
847.206	0.17
847.496	0.17
847.786	0.17
848.076	0.17
848.366	0.17
848.656	0.16
848.945	0.17
849.235	0.17
849.525	0.16
849.814	0.17
850.104	0.16
850.393	0.18
850.683	0.19
850.972	0.17
851.261	0.19
851.551	0.19
851.84	0.19
852.129	0.19
852.418	0.19
852.707	0.2
852.995	0.2
853.284	0.18
853.573	0.17
853.862	0.18
854.15	0.18
854.439	0.18
854.727	0.18
855.015	0.19
855.304	0.19
855.592	0.19
855.88	0.2
856.168	0.19
856.456	0.18
856.744	0.19
857.032	0.18
857.32	0.19
857.607	0.18
857.895	0.21
858.183	0.2
858.47	0.18
858.757	0.19
859.045	0.2
859.332	0.19
859.619	0.2
859.907	0.2
860.194	0.19
860.481	0.2
860.768	0.19
861.054	0.19
861.341	0.19
861.628	0.2
861.915	0.2
862.201	0.2
862.488	0.19
862.774	0.2
863.061	0.22
863.347	0.21
863.633	0.22
863.919	0.22
864.205	0.2
864.491	0.22
864.777	0.23
865.063	0.19
865.349	0.2
865.635	0.2
865.92	0.21
866.206	0.21
866.492	0.21
866.777	0.24
867.062	0.23
867.348	0.2
867.633	0.2
867.918	0.24
868.203	0.21
868.488	0.21
868.773	0.27
869.058	0.24
869.343	0.23
869.628	0.21
869.912	0.2
870.197	0.2
870.482	0.22
870.766	0.23
871.05	0.24
871.335	0.23
871.619	0.18
871.903	0.24
872.187	0.2
872.471	0.23
872.755	0.23
873.039	0.17
873.323	0.25
873.607	0.22
873.89	0.2
874.174	0.18
874.458	0.22
874.741	0.17
875.024	0.21
875.308	0.24
875.591	0.18
875.874	0.21
876.157	0.19
876.44	0.15
876.723	0.22
877.006	0.16
877.289	0.15
877.572	0.26
877.854	0.27
878.137	0.19
878.42	0.18
878.702	0.13
878.984	0.25
879.267	0.27
879.549	0.14
879.831	0.12
880.113	0.12
880.395	0.15
880.677	0.14
880.959	0.1
