Data from Rubpy_BV_1800_EDTA_Buffered_Absorbance_15-15-02-147.txt Node
Date: Wed Jul 01 15:15:02 BST 2026
User: fpm-admin
Spectrometer: OFX00224
Trigger mode: 0
Integration Time (sec): 7.000000E-2
Scans to average: 3
Nonlinearity correction enabled: false
Boxcar width: 0
Storing dark spectrum: false
XAxis mode: Wavelengths
Number of Pixels in Spectrum: 2136
>>>>>Begin Spectral Data<<<<<
154.91	-0.32
155.289	1.22
155.669	-1.03
156.048	-0.26
156.428	0.68
156.807	-0
157.186	0.35
157.566	0.07
157.945	0.34
158.325	-0
158.704	-0
159.083	-0.86
159.462	-0
159.842	0.37
160.221	-0.65
160.6	-0.22
160.979	0.1
161.359	0.65
161.738	-0.16
162.117	-0
162.496	-0.3
162.875	-0
163.254	0.38
163.633	-0
164.012	1.3
164.391	-0.88
164.77	-0.18
165.149	-0.07
165.528	-0
165.907	-0.78
166.286	1.54
166.665	0.2
167.044	0.58
167.423	0.23
167.802	-0.43
168.181	-0
168.559	-0.48
168.938	-0.7
169.317	-0
169.696	-0
170.074	0.03
170.453	-0
170.832	-0.53
171.21	-0
171.589	-0.52
171.968	0.28
172.346	-0
172.725	-0
173.103	0.35
173.482	0.15
173.861	-0
174.239	1.28
174.617	-0
174.996	0.27
175.374	-0
175.753	-0.29
176.131	-0
176.51	-0.05
176.888	-0
177.266	-0
177.645	-0.09
178.023	0.69
178.401	-0.13
178.779	0.09
179.158	-0
179.536	0.18
179.914	-0.56
180.292	-0
180.67	-0.02
181.048	-0
181.427	-0
181.805	-0
182.183	-0
182.561	-0
182.939	-0.55
183.317	-0
183.695	1.2
184.073	-0.19
184.451	-0
184.829	-0
185.206	-0
185.584	0.6
185.962	-0.18
186.34	0.07
186.718	-0
187.096	-0
187.473	0.27
187.851	-0
188.229	0.6
188.607	0.16
188.984	0.18
189.362	0.3
189.74	0.28
190.117	0.12
190.495	0.29
190.872	0.37
191.25	0.26
191.627	0.36
192.005	0.23
192.382	0.07
192.76	0.33
193.137	0.27
193.515	0.35
193.892	0.63
194.269	0.23
194.647	0.19
195.024	0.2
195.401	0.44
195.779	0.44
196.156	0.28
196.533	0.32
196.91	0.23
197.288	0.17
197.665	0.23
198.042	0.45
198.419	0.26
198.796	0.11
199.173	0.34
199.55	0.22
199.927	0.38
200.304	0.26
200.681	0.4
201.058	0.36
201.435	0.3
201.812	0.33
202.189	0.26
202.566	0.36
202.943	0.21
203.32	0.29
203.697	0.26
204.073	0.32
204.45	0.38
204.827	0.44
205.204	0.32
205.58	0.46
205.957	0.39
206.334	0.25
206.71	0.27
207.087	0.31
207.464	0.29
207.84	0.28
208.217	0.29
208.593	0.22
208.97	0.39
209.346	0.44
209.723	0.47
210.099	0.46
210.476	0.41
210.852	0.42
211.228	0.31
211.605	0.4
211.981	0.52
212.357	0.36
212.733	0.37
213.11	0.25
213.486	0.28
213.862	0.45
214.238	0.38
214.614	0.43
214.991	0.39
215.367	0.27
215.743	0.37
216.119	0.31
216.495	0.37
216.871	0.33
217.247	0.21
217.623	0.31
217.999	0.32
218.375	0.28
218.751	0.28
219.127	0.43
219.502	0.32
219.878	0.35
220.254	0.44
220.63	0.2
221.006	0.52
221.381	0.34
221.757	0.32
222.133	0.41
222.508	0.48
222.884	0.28
223.26	0.29
223.635	0.36
224.011	0.47
224.386	0.4
224.762	0.32
225.137	0.43
225.513	0.24
225.888	0.31
226.264	0.37
226.639	0.73
227.014	0.24
227.39	0.32
227.765	0.27
228.14	0.52
228.516	0.41
228.891	0.25
229.266	0.26
229.641	0.24
230.017	0.4
230.392	0.41
230.767	0.38
231.142	0.23
231.517	0.28
231.892	0.28
232.267	0.28
232.642	0.41
233.017	0.42
233.392	0.31
233.767	0.3
234.142	0.29
234.517	0.38
234.892	0.34
235.267	0.28
235.641	0.33
236.016	0.33
236.391	0.33
236.766	0.25
237.14	0.28
237.515	0.33
237.89	0.38
238.264	0.23
238.639	0.27
239.014	0.39
239.388	0.37
239.763	0.53
240.137	0.37
240.512	0.25
240.886	0.41
241.261	0.29
241.635	0.32
242.009	0.31
242.384	0.27
242.758	0.34
243.132	0.33
243.507	0.38
243.881	0.38
244.255	0.22
244.629	0.34
245.004	0.5
245.378	0.43
245.752	0.38
246.126	0.44
246.5	0.33
246.874	0.5
247.248	0.43
247.622	0.41
247.996	0.29
248.37	0.2
248.744	0.35
249.118	0.3
249.492	0.3
249.866	0.38
250.24	0.4
250.613	0.35
250.987	0.39
251.361	0.46
251.735	0.27
252.108	0.27
252.482	0.24
252.856	0.22
253.229	0.34
253.603	0.25
253.977	0.29
254.35	0.28
254.724	0.29
255.097	0.32
255.471	0.36
255.844	0.28
256.218	0.36
256.591	0.34
256.964	0.32
257.338	0.26
257.711	0.23
258.084	0.3
258.458	0.4
258.831	0.4
259.204	0.3
259.577	0.39
259.95	0.39
260.323	0.34
260.697	0.3
261.07	0.31
261.443	0.31
261.816	0.21
262.189	0.39
262.562	0.35
262.935	0.39
263.308	0.35
263.68	0.32
264.053	0.31
264.426	0.38
264.799	0.47
265.172	0.41
265.545	0.36
265.917	0.34
266.29	0.32
266.663	0.38
267.035	0.24
267.408	0.48
267.781	0.53
268.153	0.4
268.526	0.31
268.898	0.25
269.271	0.32
269.643	0.37
270.016	0.23
270.388	0.4
270.76	0.28
271.133	0.37
271.505	0.3
271.877	0.4
272.25	0.42
272.622	0.38
272.994	0.43
273.366	0.4
273.739	0.29
274.111	0.37
274.483	0.38
274.855	0.37
275.227	0.33
275.599	0.24
275.971	0.31
276.343	0.37
276.715	0.4
277.087	0.4
277.459	0.3
277.831	0.4
278.203	0.33
278.574	0.42
278.946	0.4
279.318	0.32
279.69	0.46
280.061	0.33
280.433	0.35
280.805	0.42
281.176	0.29
281.548	0.35
281.92	0.31
282.291	0.31
282.663	0.38
283.034	0.28
283.406	0.32
283.777	0.34
284.148	0.35
284.52	0.35
284.891	0.47
285.262	0.34
285.634	0.4
286.005	0.36
286.376	0.35
286.747	0.38
287.119	0.5
287.49	0.35
287.861	0.3
288.232	0.39
288.603	0.44
288.974	0.33
289.345	0.33
289.716	0.33
290.087	0.37
290.458	0.31
290.829	0.3
291.2	0.34
291.571	0.35
291.941	0.39
292.312	0.35
292.683	0.41
293.054	0.35
293.424	0.48
293.795	0.32
294.166	0.39
294.536	0.51
294.907	0.38
295.277	0.39
295.648	0.48
296.018	0.38
296.389	0.41
296.759	0.35
297.13	0.4
297.5	0.28
297.871	0.39
298.241	0.39
298.611	0.4
298.981	0.42
299.352	0.37
299.722	0.41
300.092	0.43
300.462	0.3
300.832	0.45
301.202	0.44
301.573	0.4
301.943	0.33
302.313	0.43
302.683	0.35
303.053	0.34
303.422	0.37
303.792	0.39
304.162	0.37
304.532	0.24
304.902	0.34
305.272	0.4
305.641	0.37
306.011	0.3
306.381	0.31
306.75	0.31
307.12	0.38
307.49	0.37
307.859	0.32
308.229	0.28
308.598	0.29
308.968	0.31
309.337	0.33
309.707	0.34
310.076	0.34
310.445	0.29
310.815	0.31
311.184	0.29
311.553	0.29
311.923	0.28
312.292	0.27
312.661	0.3
313.03	0.27
313.399	0.27
313.768	0.29
314.137	0.32
314.506	0.32
314.875	0.3
315.244	0.3
315.613	0.31
315.982	0.34
316.351	0.32
316.72	0.35
317.089	0.33
317.458	0.32
317.826	0.37
318.195	0.36
318.564	0.33
318.933	0.34
319.301	0.35
319.67	0.36
320.038	0.35
320.407	0.37
320.775	0.38
321.144	0.38
321.512	0.38
321.881	0.38
322.249	0.39
322.618	0.39
322.986	0.39
323.354	0.4
323.723	0.43
324.091	0.42
324.459	0.43
324.827	0.43
325.195	0.44
325.564	0.45
325.932	0.45
326.3	0.46
326.668	0.46
327.036	0.46
327.404	0.47
327.772	0.49
328.14	0.49
328.508	0.5
328.875	0.5
329.243	0.52
329.611	0.52
329.979	0.54
330.346	0.53
330.714	0.54
331.082	0.56
331.449	0.57
331.817	0.55
332.185	0.58
332.552	0.59
332.92	0.6
333.287	0.61
333.655	0.62
334.022	0.62
334.389	0.64
334.757	0.66
335.124	0.67
335.491	0.68
335.859	0.71
336.226	0.71
336.593	0.72
336.96	0.75
337.327	0.75
337.695	0.76
338.062	0.78
338.429	0.78
338.796	0.8
339.163	0.82
339.53	0.83
339.897	0.84
340.263	0.86
340.63	0.89
340.997	0.9
341.364	0.91
341.731	0.92
342.097	0.95
342.464	0.96
342.831	0.97
343.197	0.98
343.564	1.01
343.931	1
344.297	1.03
344.664	1.05
345.03	1.07
345.396	1.08
345.763	1.09
346.129	1.11
346.496	1.13
346.862	1.14
347.228	1.16
347.594	1.15
347.961	1.18
348.327	1.2
348.693	1.22
349.059	1.23
349.425	1.23
349.791	1.25
350.157	1.27
350.523	1.28
350.889	1.29
351.255	1.29
351.621	1.32
351.987	1.33
352.353	1.35
352.719	1.37
353.084	1.38
353.45	1.39
353.816	1.41
354.181	1.42
354.547	1.45
354.913	1.44
355.278	1.45
355.644	1.48
356.009	1.48
356.375	1.53
356.74	1.51
357.106	1.54
357.471	1.56
357.836	1.58
358.202	1.6
358.567	1.63
358.932	1.63
359.297	1.66
359.663	1.64
360.028	1.7
360.393	1.71
360.758	1.74
361.123	1.73
361.488	1.73
361.853	1.81
362.218	1.79
362.583	1.84
362.948	1.76
363.312	1.83
363.677	1.83
364.042	1.88
364.407	1.85
364.772	1.87
365.136	1.89
365.501	1.91
365.865	1.94
366.23	1.94
366.595	1.93
366.959	1.96
367.324	1.9
367.688	1.95
368.052	1.92
368.417	2
368.781	1.97
369.145	1.94
369.51	1.93
369.874	1.98
370.238	1.99
370.602	1.99
370.967	2.07
371.331	2.03
371.695	1.98
372.059	1.95
372.423	1.95
372.787	2
373.151	1.97
373.515	1.99
373.878	1.95
374.242	1.99
374.606	2.05
374.97	1.98
375.334	2.04
375.697	1.96
376.061	1.95
376.425	1.93
376.788	1.93
377.152	1.97
377.515	1.88
377.879	1.89
378.242	1.94
378.606	1.86
378.969	1.85
379.333	1.87
379.696	1.81
380.059	1.83
380.422	1.85
380.786	1.8
381.149	1.75
381.512	1.74
381.875	1.73
382.238	1.72
382.601	1.69
382.964	1.69
383.327	1.69
383.69	1.64
384.053	1.65
384.416	1.61
384.779	1.6
385.142	1.57
385.504	1.55
385.867	1.55
386.23	1.55
386.593	1.54
386.955	1.55
387.318	1.53
387.68	1.52
388.043	1.53
388.405	1.48
388.768	1.5
389.13	1.49
389.493	1.48
389.855	1.46
390.217	1.44
390.58	1.44
390.942	1.43
391.304	1.41
391.666	1.39
392.028	1.36
392.391	1.36
392.753	1.33
393.115	1.33
393.477	1.29
393.839	1.28
394.201	1.26
394.563	1.27
394.924	1.26
395.286	1.26
395.648	1.26
396.01	1.25
396.371	1.26
396.733	1.28
397.095	1.31
397.456	1.33
397.818	1.32
398.18	1.37
398.541	1.38
398.903	1.43
399.264	1.47
399.625	1.46
399.987	1.5
400.348	1.5
400.709	1.52
401.071	1.53
401.432	1.53
401.793	1.56
402.154	1.53
402.515	1.5
402.876	1.47
403.238	1.43
403.599	1.41
403.96	1.35
404.32	1.33
404.681	1.28
405.042	1.24
405.403	1.2
405.764	1.14
406.125	1.09
406.485	1.03
406.846	0.99
407.207	0.95
407.567	0.89
407.928	0.86
408.288	0.8
408.649	0.76
409.009	0.72
409.37	0.69
409.73	0.65
410.091	0.62
410.451	0.58
410.811	0.55
411.171	0.53
411.532	0.5
411.892	0.48
412.252	0.46
412.612	0.43
412.972	0.42
413.332	0.4
413.692	0.39
414.052	0.37
414.412	0.36
414.772	0.35
415.132	0.33
415.492	0.32
415.851	0.31
416.211	0.3
416.571	0.3
416.931	0.28
417.29	0.27
417.65	0.27
418.009	0.27
418.369	0.26
418.728	0.26
419.088	0.25
419.447	0.25
419.807	0.24
420.166	0.23
420.525	0.22
420.884	0.23
421.244	0.22
421.603	0.22
421.962	0.21
422.321	0.21
422.68	0.21
423.039	0.2
423.398	0.2
423.757	0.2
424.116	0.2
424.475	0.19
424.834	0.2
425.193	0.18
425.551	0.18
425.91	0.18
426.269	0.18
426.628	0.18
426.986	0.18
427.345	0.18
427.703	0.17
428.062	0.17
428.42	0.17
428.779	0.18
429.137	0.18
429.496	0.17
429.854	0.17
430.212	0.17
430.57	0.17
430.929	0.16
431.287	0.16
431.645	0.16
432.003	0.16
432.361	0.16
432.719	0.17
433.077	0.16
433.435	0.17
433.793	0.17
434.151	0.17
434.509	0.17
434.866	0.16
435.224	0.17
435.582	0.16
435.94	0.18
436.297	0.16
436.655	0.16
437.012	0.16
437.37	0.17
437.727	0.16
438.085	0.16
438.442	0.16
438.8	0.16
439.157	0.16
439.514	0.17
439.872	0.17
440.229	0.16
440.586	0.16
440.943	0.16
441.3	0.16
441.657	0.17
442.014	0.16
442.371	0.17
442.728	0.17
443.085	0.17
443.442	0.16
443.799	0.16
444.156	0.16
444.513	0.17
444.869	0.17
445.226	0.17
445.583	0.18
445.939	0.17
446.296	0.17
446.652	0.17
447.009	0.17
447.365	0.17
447.722	0.18
448.078	0.17
448.434	0.17
448.791	0.17
449.147	0.18
449.503	0.17
449.859	0.17
450.215	0.17
450.571	0.18
450.928	0.17
451.284	0.18
451.64	0.17
451.995	0.18
452.351	0.18
452.707	0.17
453.063	0.17
453.419	0.17
453.775	0.17
454.13	0.17
454.486	0.17
454.842	0.16
455.197	0.17
455.553	0.17
455.908	0.17
456.264	0.15
456.619	0.17
456.975	0.17
457.33	0.17
457.685	0.16
458.04	0.16
458.396	0.16
458.751	0.15
459.106	0.15
459.461	0.15
459.816	0.14
460.171	0.15
460.526	0.16
460.881	0.13
461.236	0.13
461.591	0.14
461.946	0.13
462.301	0.14
462.655	0.13
463.01	0.13
463.365	0.13
463.719	0.11
464.074	0.11
464.428	0.1
464.783	0.1
465.137	0.11
465.492	0.11
465.846	0.1
466.201	0.1
466.555	0.1
466.909	0.11
467.263	0.12
467.618	0.13
467.972	0.13
468.326	0.13
468.68	0.11
469.034	0.11
469.388	0.11
469.742	0.12
470.096	0.12
470.45	0.13
470.804	0.13
471.157	0.13
471.511	0.14
471.865	0.12
472.218	0.13
472.572	0.15
472.926	0.15
473.279	0.16
473.633	0.17
473.986	0.18
474.34	0.18
474.693	0.2
475.046	0.21
475.4	0.22
475.753	0.23
476.106	0.24
476.459	0.25
476.812	0.26
477.165	0.27
477.519	0.28
477.872	0.28
478.224	0.3
478.577	0.3
478.93	0.31
479.283	0.31
479.636	0.32
479.989	0.33
480.341	0.34
480.694	0.36
481.047	0.35
481.399	0.36
481.752	0.38
482.104	0.38
482.457	0.39
482.809	0.4
483.162	0.4
483.514	0.4
483.866	0.41
484.219	0.42
484.571	0.42
484.923	0.42
485.275	0.43
485.627	0.44
485.979	0.44
486.331	0.45
486.683	0.46
487.035	0.46
487.387	0.47
487.739	0.49
488.091	0.49
488.443	0.49
488.794	0.49
489.146	0.5
489.498	0.5
489.849	0.51
490.201	0.51
490.552	0.52
490.904	0.52
491.255	0.53
491.607	0.54
491.958	0.54
492.309	0.54
492.661	0.55
493.012	0.55
493.363	0.56
493.714	0.56
494.065	0.57
494.416	0.58
494.767	0.58
495.118	0.58
495.469	0.59
495.82	0.59
496.171	0.6
496.522	0.6
496.872	0.62
497.223	0.61
497.574	0.62
497.924	0.62
498.275	0.63
498.626	0.64
498.976	0.65
499.327	0.65
499.677	0.65
500.027	0.66
500.378	0.66
500.728	0.67
501.078	0.67
501.428	0.68
501.779	0.68
502.129	0.68
502.479	0.69
502.829	0.69
503.179	0.7
503.529	0.7
503.879	0.71
504.229	0.72
504.578	0.72
504.928	0.73
505.278	0.74
505.628	0.73
505.977	0.74
506.327	0.74
506.676	0.75
507.026	0.76
507.375	0.75
507.725	0.75
508.074	0.77
508.424	0.77
508.773	0.78
509.122	0.78
509.471	0.79
509.82	0.78
510.17	0.79
510.519	0.8
510.868	0.8
511.217	0.8
511.566	0.81
511.915	0.81
512.263	0.82
512.612	0.82
512.961	0.82
513.31	0.83
513.659	0.83
514.007	0.84
514.356	0.84
514.704	0.84
515.053	0.84
515.401	0.86
515.75	0.85
516.098	0.87
516.447	0.86
516.795	0.86
517.143	0.88
517.491	0.88
517.839	0.88
518.188	0.88
518.536	0.89
518.884	0.89
519.232	0.9
519.58	0.89
519.928	0.9
520.275	0.9
520.623	0.91
520.971	0.91
521.319	0.91
521.666	0.92
522.014	0.92
522.362	0.92
522.709	0.92
523.057	0.93
523.404	0.93
523.752	0.92
524.099	0.93
524.446	0.95
524.794	0.95
525.141	0.94
525.488	0.95
525.835	0.94
526.182	0.95
526.529	0.95
526.876	0.95
527.223	0.97
527.57	0.97
527.917	0.97
528.264	0.97
528.611	0.97
528.958	0.97
529.304	0.98
529.651	0.98
529.998	0.98
530.344	0.99
530.691	0.99
531.037	0.99
531.384	0.99
531.73	1
532.076	1
532.423	0.99
532.769	1
533.115	1
533.461	1.01
533.807	1.01
534.154	1
534.5	1.01
534.846	1.01
535.192	1.02
535.537	1.01
535.883	1.02
536.229	1.02
536.575	1.02
536.921	1.03
537.266	1.03
537.612	1.03
537.957	1.03
538.303	1.02
538.649	1.03
538.994	1.03
539.339	1.03
539.685	1.04
540.03	1.04
540.375	1.04
540.721	1.04
541.066	1.03
541.411	1.04
541.756	1.04
542.101	1.04
542.446	1.05
542.791	1.04
543.136	1.05
543.481	1.05
543.825	1.05
544.17	1.05
544.515	1.05
544.86	1.05
545.204	1.05
545.549	1.06
545.893	1.06
546.238	1.06
546.582	1.06
546.927	1.06
547.271	1.05
547.615	1.05
547.96	1.06
548.304	1.05
548.648	1.05
548.992	1.06
549.336	1.05
549.68	1.06
550.024	1.07
550.368	1.06
550.712	1.06
551.056	1.06
551.4	1.06
551.743	1.05
552.087	1.06
552.431	1.07
552.774	1.06
553.118	1.07
553.462	1.06
553.805	1.06
554.148	1.07
554.492	1.05
554.835	1.06
555.178	1.06
555.522	1.06
555.865	1.07
556.208	1.05
556.551	1.05
556.894	1.05
557.237	1.05
557.58	1.06
557.923	1.05
558.266	1.05
558.609	1.05
558.952	1.06
559.294	1.05
559.637	1.05
559.98	1.05
560.322	1.05
560.665	1.05
561.007	1.04
561.35	1.04
561.692	1.04
562.034	1.04
562.377	1.04
562.719	1.04
563.061	1.04
563.403	1.04
563.745	1.03
564.088	1.04
564.43	1.03
564.772	1.03
565.113	1.03
565.455	1.03
565.797	1.03
566.139	1.03
566.481	1.03
566.822	1.03
567.164	1.02
567.506	1.02
567.847	1.02
568.189	1.01
568.53	1.01
568.872	1.01
569.213	1.01
569.554	1.01
569.895	1.01
570.237	1
570.578	1
570.919	1
571.26	1
571.601	0.99
571.942	1
572.283	0.99
572.624	0.99
572.965	0.99
573.306	0.98
573.646	0.98
573.987	0.98
574.328	0.98
574.668	0.98
575.009	0.97
575.349	0.97
575.69	0.96
576.03	0.96
576.37	0.97
576.711	0.95
577.051	0.96
577.391	0.96
577.731	0.96
578.072	0.96
578.412	0.95
578.752	0.95
579.092	0.94
579.431	0.93
579.771	0.91
580.111	0.91
580.451	0.92
580.791	0.93
581.13	0.93
581.47	0.94
581.81	0.93
582.149	0.93
582.489	0.93
582.828	0.91
583.167	0.88
583.507	0.84
583.846	0.84
584.185	0.88
584.525	0.9
584.864	0.92
585.203	0.92
585.542	0.92
585.881	0.91
586.22	0.91
586.559	0.9
586.898	0.89
587.236	0.88
587.575	0.89
587.914	0.89
588.252	0.91
588.591	0.91
588.93	0.9
589.268	0.9
589.607	0.89
589.945	0.9
590.283	0.9
590.622	0.91
590.96	0.9
591.298	0.9
591.636	0.9
591.974	0.9
592.313	0.9
592.651	0.9
592.989	0.9
593.326	0.9
593.664	0.9
594.002	0.9
594.34	0.89
594.678	0.89
595.015	0.88
595.353	0.88
595.691	0.89
596.028	0.89
596.366	0.89
596.703	0.89
597.04	0.89
597.378	0.89
597.715	0.89
598.052	0.89
598.389	0.89
598.726	0.89
599.064	0.89
599.401	0.88
599.738	0.88
600.074	0.88
600.411	0.88
600.748	0.87
601.085	0.87
601.422	0.87
601.758	0.86
602.095	0.87
602.432	0.87
602.768	0.87
603.105	0.87
603.441	0.87
603.777	0.87
604.114	0.87
604.45	0.87
604.786	0.86
605.122	0.86
605.459	0.85
605.795	0.85
606.131	0.86
606.467	0.85
606.803	0.85
607.139	0.85
607.474	0.85
607.81	0.84
608.146	0.84
608.482	0.84
608.817	0.84
609.153	0.83
609.488	0.83
609.824	0.83
610.159	0.83
610.495	0.83
610.83	0.83
611.165	0.82
611.5	0.81
611.836	0.81
612.171	0.81
612.506	0.81
612.841	0.81
613.176	0.81
613.511	0.8
613.845	0.8
614.18	0.79
614.515	0.79
614.85	0.79
615.184	0.79
615.519	0.79
615.854	0.79
616.188	0.78
616.523	0.78
616.857	0.78
617.191	0.77
617.526	0.77
617.86	0.77
618.194	0.76
618.528	0.77
618.862	0.77
619.196	0.76
619.53	0.76
619.864	0.76
620.198	0.75
620.532	0.74
620.866	0.75
621.2	0.74
621.533	0.74
621.867	0.74
622.201	0.73
622.534	0.73
622.868	0.73
623.201	0.72
623.534	0.72
623.868	0.72
624.201	0.71
624.534	0.71
624.868	0.71
625.201	0.71
625.534	0.7
625.867	0.7
626.2	0.69
626.533	0.69
626.865	0.69
627.198	0.69
627.531	0.69
627.864	0.68
628.196	0.67
628.529	0.67
628.862	0.67
629.194	0.67
629.527	0.66
629.859	0.67
630.191	0.66
630.524	0.66
630.856	0.65
631.188	0.65
631.52	0.64
631.852	0.63
632.184	0.63
632.516	0.63
632.848	0.63
633.18	0.62
633.512	0.62
633.844	0.61
634.175	0.61
634.507	0.61
634.839	0.6
635.17	0.6
635.502	0.59
635.833	0.59
636.165	0.59
636.496	0.58
636.827	0.58
637.159	0.58
637.49	0.57
637.821	0.57
638.152	0.57
638.483	0.56
638.814	0.56
639.145	0.56
639.476	0.55
639.807	0.55
640.137	0.54
640.468	0.54
640.799	0.53
641.129	0.53
641.46	0.53
641.791	0.52
642.121	0.52
642.451	0.52
642.782	0.52
643.112	0.51
643.442	0.51
643.773	0.51
644.103	0.5
644.433	0.5
644.763	0.5
645.093	0.5
645.423	0.5
645.753	0.49
646.082	0.49
646.412	0.49
646.742	0.49
647.072	0.48
647.401	0.48
647.731	0.48
648.06	0.48
648.39	0.48
648.719	0.47
649.048	0.48
649.378	0.47
649.707	0.47
650.036	0.46
650.365	0.46
650.694	0.45
651.023	0.46
651.352	0.46
651.681	0.45
652.01	0.45
652.339	0.45
652.668	0.45
652.996	0.44
653.325	0.44
653.654	0.45
653.982	0.44
654.311	0.44
654.639	0.44
654.967	0.44
655.296	0.44
655.624	0.43
655.952	0.43
656.28	0.43
656.609	0.43
656.937	0.43
657.265	0.4
657.593	0.25
657.92	0.16
658.248	0.13
658.576	0.21
658.904	0.33
659.231	0.41
659.559	0.42
659.887	0.42
660.214	0.41
660.542	0.41
660.869	0.41
661.196	0.41
661.524	0.41
661.851	0.4
662.178	0.4
662.505	0.4
662.832	0.4
663.159	0.4
663.486	0.39
663.813	0.39
664.14	0.39
664.467	0.39
664.794	0.39
665.12	0.39
665.447	0.39
665.774	0.38
666.1	0.38
666.427	0.38
666.753	0.38
667.079	0.38
667.406	0.37
667.732	0.37
668.058	0.37
668.384	0.37
668.71	0.37
669.036	0.36
669.362	0.36
669.688	0.36
670.014	0.36
670.34	0.35
670.666	0.35
670.991	0.35
671.317	0.35
671.643	0.34
671.968	0.34
672.294	0.34
672.619	0.34
672.945	0.34
673.27	0.33
673.595	0.33
673.92	0.32
674.246	0.32
674.571	0.32
674.896	0.32
675.221	0.32
675.546	0.31
675.87	0.31
676.195	0.31
676.52	0.31
676.845	0.31
677.169	0.3
677.494	0.3
677.819	0.3
678.143	0.29
678.468	0.29
678.792	0.29
679.116	0.29
679.44	0.29
679.765	0.28
680.089	0.28
680.413	0.27
680.737	0.27
681.061	0.27
681.385	0.27
681.709	0.26
682.033	0.26
682.356	0.26
682.68	0.26
683.004	0.25
683.327	0.25
683.651	0.25
683.974	0.25
684.298	0.24
684.621	0.25
684.944	0.24
685.268	0.23
685.591	0.23
685.914	0.23
686.237	0.22
686.56	0.22
686.883	0.22
687.206	0.22
687.529	0.21
687.852	0.21
688.175	0.21
688.497	0.21
688.82	0.21
689.142	0.21
689.465	0.2
689.787	0.2
690.11	0.2
690.432	0.2
690.755	0.19
691.077	0.19
691.399	0.19
691.721	0.18
692.043	0.19
692.365	0.18
692.687	0.18
693.009	0.17
693.331	0.17
693.653	0.17
693.974	0.17
694.296	0.17
694.618	0.17
694.939	0.16
695.261	0.16
695.582	0.16
695.904	0.16
696.225	0.16
696.546	0.16
696.868	0.16
697.189	0.15
697.51	0.15
697.831	0.15
698.152	0.15
698.473	0.15
698.794	0.14
699.114	0.14
699.435	0.13
699.756	0.13
700.077	0.14
700.397	0.14
700.718	0.14
701.038	0.13
701.359	0.14
701.679	0.14
701.999	0.13
702.32	0.13
702.64	0.13
702.96	0.13
703.28	0.13
703.6	0.13
703.92	0.13
704.24	0.12
704.56	0.12
704.879	0.12
705.199	0.12
705.519	0.12
705.838	0.12
706.158	0.12
706.478	0.12
706.797	0.12
707.116	0.12
707.436	0.12
707.755	0.12
708.074	0.12
708.393	0.12
708.712	0.11
709.031	0.1
709.35	0.1
709.669	0.1
709.988	0.1
710.307	0.11
710.626	0.11
710.944	0.12
711.263	0.11
711.582	0.12
711.9	0.12
712.219	0.11
712.537	0.11
712.855	0.11
713.174	0.11
713.492	0.11
713.81	0.12
714.128	0.11
714.446	0.11
714.764	0.11
715.082	0.1
715.4	0.11
715.718	0.11
716.035	0.11
716.353	0.11
716.671	0.11
716.988	0.11
717.306	0.11
717.623	0.12
717.941	0.12
718.258	0.12
718.575	0.12
718.893	0.12
719.21	0.12
719.527	0.12
719.844	0.12
720.161	0.12
720.478	0.12
720.795	0.12
721.112	0.12
721.428	0.12
721.745	0.12
722.062	0.12
722.378	0.13
722.695	0.12
723.011	0.12
723.328	0.12
723.644	0.12
723.96	0.12
724.276	0.12
724.593	0.12
724.909	0.12
725.225	0.12
725.541	0.12
725.857	0.12
726.173	0.12
726.488	0.13
726.804	0.12
727.12	0.12
727.435	0.12
727.751	0.12
728.067	0.12
728.382	0.12
728.697	0.12
729.013	0.12
729.328	0.12
729.643	0.12
729.958	0.11
730.273	0.12
730.588	0.11
730.903	0.12
731.218	0.12
731.533	0.12
731.848	0.12
732.163	0.12
732.477	0.11
732.792	0.11
733.107	0.1
733.421	0.11
733.736	0.11
734.05	0.11
734.364	0.11
734.678	0.11
734.993	0.11
735.307	0.11
735.621	0.11
735.935	0.11
736.249	0.11
736.563	0.11
736.877	0.11
737.19	0.11
737.504	0.11
737.818	0.11
738.131	0.11
738.445	0.11
738.758	0.11
739.072	0.11
739.385	0.11
739.698	0.12
740.012	0.12
740.325	0.11
740.638	0.11
740.951	0.11
741.264	0.11
741.577	0.11
741.89	0.11
742.203	0.11
742.515	0.11
742.828	0.11
743.141	0.11
743.453	0.1
743.766	0.1
744.078	0.1
744.391	0.1
744.703	0.1
745.015	0.1
745.327	0.1
745.639	0.1
745.952	0.1
746.264	0.1
746.575	0.1
746.887	0.1
747.199	0.1
747.511	0.1
747.823	0.09
748.134	0.09
748.446	0.09
748.757	0.09
749.069	0.09
749.38	0.08
749.692	0.08
750.003	0.08
750.314	0.08
750.625	0.07
750.936	0.08
751.248	0.08
751.559	0.08
751.869	0.08
752.18	0.08
752.491	0.08
752.802	0.07
753.112	0.08
753.423	0.07
753.734	0.07
754.044	0.07
754.355	0.07
754.665	0.06
754.975	0.06
755.285	0.06
755.596	0.07
755.906	0.07
756.216	0.06
756.526	0.07
756.836	0.06
757.146	0.06
757.455	0.06
757.765	0.06
758.075	0.06
758.385	0.06
758.694	0.06
759.004	0.06
759.313	0.06
759.622	0.06
759.932	0.06
760.241	0.06
760.55	0.06
760.859	0.06
761.168	0.06
761.477	0.06
761.786	0.06
762.095	0.06
762.404	0.06
762.713	0.06
763.021	0.06
763.33	0.06
763.639	0.06
763.947	0.06
764.256	0.06
764.564	0.06
764.872	0.06
765.181	0.06
765.489	0.06
765.797	0.05
766.105	0.06
766.413	0.06
766.721	0.06
767.029	0.06
767.337	0.06
767.644	0.06
767.952	0.06
768.26	0.06
768.567	0.06
768.875	0.06
769.182	0.06
769.49	0.06
769.797	0.06
770.104	0.06
770.411	0.06
770.718	0.06
771.026	0.05
771.333	0.06
771.639	0.05
771.946	0.05
772.253	0.05
772.56	0.06
772.867	0.06
773.173	0.06
773.48	0.05
773.786	0.06
774.093	0.06
774.399	0.06
774.705	0.06
775.012	0.06
775.318	0.06
775.624	0.06
775.93	0.06
776.236	0.07
776.542	0.07
776.848	0.07
777.154	0.07
777.459	0.07
777.765	0.07
778.071	0.07
778.376	0.06
778.682	0.06
778.987	0.07
779.292	0.06
779.598	0.06
779.903	0.06
780.208	0.06
780.513	0.06
780.818	0.06
781.123	0.06
781.428	0.06
781.733	0.06
782.038	0.06
782.343	0.06
782.647	0.06
782.952	0.06
783.256	0.05
783.561	0.05
783.865	0.05
784.17	0.05
784.474	0.05
784.778	0.05
785.082	0.05
785.386	0.06
785.69	0.06
785.994	0.06
786.298	0.06
786.602	0.06
786.906	0.06
787.209	0.06
787.513	0.06
787.817	0.07
788.12	0.07
788.424	0.07
788.727	0.07
789.03	0.07
789.333	0.07
789.637	0.07
789.94	0.07
790.243	0.07
790.546	0.07
790.849	0.07
791.152	0.07
791.454	0.07
791.757	0.07
792.06	0.07
792.362	0.08
792.665	0.07
792.967	0.07
793.27	0.07
793.572	0.07
793.874	0.08
794.177	0.08
794.479	0.08
794.781	0.08
795.083	0.08
795.385	0.08
795.687	0.08
795.989	0.08
796.29	0.08
796.592	0.08
796.894	0.09
797.195	0.08
797.497	0.08
797.798	0.08
798.1	0.08
798.401	0.08
798.702	0.08
799.003	0.08
799.304	0.08
799.605	0.08
799.906	0.07
800.207	0.08
800.508	0.08
800.809	0.08
801.11	0.08
801.41	0.09
801.711	0.08
802.011	0.09
802.312	0.09
802.612	0.08
802.913	0.09
803.213	0.09
803.513	0.08
803.813	0.09
804.113	0.09
804.413	0.09
804.713	0.09
805.013	0.09
805.313	0.09
805.613	0.09
805.912	0.09
806.212	0.09
806.511	0.09
806.811	0.09
807.11	0.09
807.41	0.09
807.709	0.09
808.008	0.1
808.307	0.09
808.606	0.09
808.905	0.09
809.204	0.09
809.503	0.09
809.802	0.09
810.101	0.09
810.399	0.1
810.698	0.09
810.997	0.09
811.295	0.1
811.593	0.1
811.892	0.1
812.19	0.1
812.488	0.1
812.786	0.1
813.084	0.1
813.383	0.1
813.68	0.1
813.978	0.11
814.276	0.11
814.574	0.11
814.872	0.11
815.169	0.11
815.467	0.1
815.764	0.11
816.062	0.1
816.359	0.1
816.656	0.1
816.954	0.1
817.251	0.11
817.548	0.1
817.845	0.11
818.142	0.11
818.439	0.11
818.735	0.11
819.032	0.12
819.329	0.12
819.626	0.12
819.922	0.12
820.219	0.12
820.515	0.12
820.811	0.13
821.108	0.13
821.404	0.12
821.7	0.12
821.996	0.12
822.292	0.11
822.588	0.12
822.884	0.12
823.18	0.13
823.475	0.13
823.771	0.14
824.067	0.13
824.362	0.14
824.658	0.13
824.953	0.13
825.249	0.12
825.544	0.13
825.839	0.13
826.134	0.13
826.429	0.13
826.724	0.13
827.019	0.13
827.314	0.13
827.609	0.14
827.904	0.13
828.198	0.13
828.493	0.13
828.787	0.13
829.082	0.14
829.376	0.14
829.671	0.14
829.965	0.15
830.259	0.14
830.553	0.15
830.847	0.15
831.141	0.15
831.435	0.15
831.729	0.16
832.023	0.14
832.317	0.15
832.61	0.15
832.904	0.15
833.197	0.15
833.491	0.14
833.784	0.15
834.077	0.15
834.371	0.15
834.664	0.15
834.957	0.15
835.25	0.15
835.543	0.16
835.836	0.15
836.129	0.16
836.421	0.15
836.714	0.15
837.007	0.15
837.299	0.15
837.592	0.14
837.884	0.15
838.177	0.15
838.469	0.16
838.761	0.16
839.053	0.15
839.345	0.16
839.637	0.16
839.929	0.15
840.221	0.17
840.513	0.16
840.805	0.17
841.096	0.16
841.388	0.17
841.68	0.16
841.971	0.17
842.262	0.17
842.554	0.17
842.845	0.16
843.136	0.16
843.427	0.17
843.718	0.17
844.009	0.15
844.3	0.17
844.591	0.17
844.882	0.17
845.173	0.17
845.463	0.17
845.754	0.18
846.044	0.18
846.335	0.18
846.625	0.17
846.915	0.17
847.206	0.17
847.496	0.18
847.786	0.17
848.076	0.17
848.366	0.17
848.656	0.16
848.945	0.17
849.235	0.17
849.525	0.16
849.814	0.17
850.104	0.16
850.393	0.18
850.683	0.19
850.972	0.18
851.261	0.18
851.551	0.19
851.84	0.19
852.129	0.2
852.418	0.18
852.707	0.19
852.995	0.18
853.284	0.17
853.573	0.17
853.862	0.17
854.15	0.17
854.439	0.18
854.727	0.18
855.015	0.2
855.304	0.19
855.592	0.19
855.88	0.19
856.168	0.18
856.456	0.19
856.744	0.18
857.032	0.17
857.32	0.17
857.607	0.18
857.895	0.2
858.183	0.19
858.47	0.19
858.757	0.2
859.045	0.21
859.332	0.19
859.619	0.2
859.907	0.18
860.194	0.19
860.481	0.21
860.768	0.19
861.054	0.19
861.341	0.19
861.628	0.2
861.915	0.18
862.201	0.2
862.488	0.19
862.774	0.21
863.061	0.22
863.347	0.21
863.633	0.23
863.919	0.18
864.205	0.19
864.491	0.2
864.777	0.22
865.063	0.23
865.349	0.2
865.635	0.2
865.92	0.22
866.206	0.19
866.492	0.19
866.777	0.22
867.062	0.21
867.348	0.19
867.633	0.21
867.918	0.22
868.203	0.23
868.488	0.19
868.773	0.24
869.058	0.21
869.343	0.21
869.628	0.2
869.912	0.22
870.197	0.19
870.482	0.18
870.766	0.24
871.05	0.21
871.335	0.22
871.619	0.23
871.903	0.25
872.187	0.26
872.471	0.18
872.755	0.19
873.039	0.17
873.323	0.21
873.607	0.19
873.89	0.24
874.174	0.19
874.458	0.27
874.741	0.12
875.024	0.21
875.308	0.18
875.591	0.19
875.874	0.2
876.157	0.15
876.44	0.07
876.723	0.19
877.006	0.15
877.289	0.15
877.572	0.2
877.854	0.14
878.137	0.18
878.42	0.14
878.702	0.16
878.984	0.4
879.267	0.2
879.549	0.11
879.831	0.16
880.113	0.16
880.395	0.18
880.677	0.11
880.959	0.17
