Data from Rubpy_BV_1800_EDTA_Buffered_Absorbance_14-50-34-884.txt Node
Date: Wed Jul 01 14:50:34 BST 2026
User: fpm-admin
Spectrometer: OFX00224
Trigger mode: 0
Integration Time (sec): 7.000000E-2
Scans to average: 3
Nonlinearity correction enabled: false
Boxcar width: 0
Storing dark spectrum: false
XAxis mode: Wavelengths
Number of Pixels in Spectrum: 2136
>>>>>Begin Spectral Data<<<<<
154.91	-0.22
155.289	-0
155.669	-0.65
156.048	-0.72
156.428	0.68
156.807	-0
157.186	0.4
157.566	-0.41
157.945	-0.35
158.325	0.4
158.704	-0
159.083	-0.68
159.462	-0
159.842	-0
160.221	-0
160.6	-0.39
160.979	-0.17
161.359	-0
161.738	1.31
162.117	1.28
162.496	-0.46
162.875	-0
163.254	0.14
163.633	-0
164.012	-0.32
164.391	-0.86
164.77	-0
165.149	-0
165.528	-1
165.907	-1.16
166.286	-0.07
166.665	-0.27
167.044	0.35
167.423	0.14
167.802	-0
168.181	-0
168.559	-0
168.938	-0.09
169.317	-0
169.696	-0
170.074	-0.12
170.453	0.28
170.832	-0.63
171.21	0.2
171.589	-0.54
171.968	-0
172.346	0.52
172.725	-0
173.103	0.05
173.482	0.18
173.861	-1.16
174.239	0.03
174.617	-0.68
174.996	0.67
175.374	-0.16
175.753	0.15
176.131	-0
176.51	-0.24
176.888	-0.12
177.266	0.59
177.645	-0.06
178.023	0.02
178.401	0.06
178.779	0.02
179.158	-1.2
179.536	-0.58
179.914	-0
180.292	0.1
180.67	-0.27
181.048	-0
181.427	-0
181.805	-0
182.183	-1
182.561	0.27
182.939	-0
183.317	-0
183.695	-0
184.073	-0.06
184.451	-0
184.829	-0.32
185.206	-0
185.584	0.15
185.962	-0.72
186.34	0.07
186.718	-0.28
187.096	-0.57
187.473	-0.03
187.851	0.38
188.229	0.51
188.607	0.04
188.984	-0.03
189.362	0.01
189.74	0.06
190.117	-0.02
190.495	0
190.872	0.06
191.25	0.05
191.627	-0.01
192.005	-0.11
192.382	-0.1
192.76	0.04
193.137	0.04
193.515	0.01
193.892	0.05
194.269	-0.02
194.647	-0.04
195.024	-0.01
195.401	-0.06
195.779	0.13
196.156	-0.02
196.533	-0.03
196.91	-0.07
197.288	0.02
197.665	-0.01
198.042	0.06
198.419	0.04
198.796	-0.08
199.173	0.03
199.55	0.02
199.927	0.01
200.304	0.1
200.681	0.12
201.058	0.05
201.435	0.04
201.812	0.03
202.189	0
202.566	0.1
202.943	-0.01
203.32	0.04
203.697	0.05
204.073	0.09
204.45	0.12
204.827	0.08
205.204	0.01
205.58	0.07
205.957	0.05
206.334	0.13
206.71	0.06
207.087	0.07
207.464	0.07
207.84	0.14
208.217	0.07
208.593	-0.01
208.97	0.01
209.346	0.08
209.723	0.02
210.099	0.1
210.476	-0.06
210.852	-0.02
211.228	0.05
211.605	0.17
211.981	0.03
212.357	-0.02
212.733	0.08
213.11	0.04
213.486	0.04
213.862	0.04
214.238	0.04
214.614	0.07
214.991	0.02
215.367	0.02
215.743	0.05
216.119	-0.01
216.495	0.07
216.871	0.1
217.247	0
217.623	0.07
217.999	0.04
218.375	0.01
218.751	0.01
219.127	0.13
219.502	0.09
219.878	0.03
220.254	0.13
220.63	0.04
221.006	0.08
221.381	-0
221.757	-0.03
222.133	0.1
222.508	-0.02
222.884	0.06
223.26	0.01
223.635	0.01
224.011	0.04
224.386	-0.02
224.762	0.12
225.137	0.07
225.513	-0.03
225.888	-0
226.264	-0.09
226.639	0.01
227.014	0.06
227.39	0.09
227.765	0.03
228.14	0.02
228.516	0.11
228.891	-0.02
229.266	-0.03
229.641	0.04
230.017	0.05
230.392	0.04
230.767	-0.03
231.142	0.01
231.517	-0.08
231.892	0.02
232.267	-0.02
232.642	0.06
233.017	0.03
233.392	-0.01
233.767	0.01
234.142	-0.02
234.517	0.1
234.892	0.02
235.267	0.05
235.641	-0.01
236.016	0.04
236.391	0.07
236.766	0.19
237.14	0.09
237.515	0.1
237.89	0.05
238.264	0.08
238.639	-0.05
239.014	0.05
239.388	0.06
239.763	0
240.137	0.04
240.512	0.02
240.886	0.05
241.261	0.02
241.635	0.02
242.009	0.02
242.384	-0.06
242.758	0.04
243.132	0
243.507	0.02
243.881	-0.04
244.255	0.12
244.629	0.07
245.004	0.01
245.378	0.06
245.752	0.03
246.126	-0
246.5	-0
246.874	0.07
247.248	0.09
247.622	0.02
247.996	0.04
248.37	-0.03
248.744	0.04
249.118	0
249.492	0.05
249.866	0.09
250.24	0.13
250.613	0.03
250.987	0.08
251.361	0.07
251.735	0.1
252.108	0.01
252.482	0.04
252.856	0
253.229	-0.02
253.603	0.02
253.977	0.06
254.35	-0
254.724	0.06
255.097	0
255.471	-0.01
255.844	-0.01
256.218	0.02
256.591	0.04
256.964	0.02
257.338	-0.05
257.711	-0.06
258.084	-0.01
258.458	0.03
258.831	0.13
259.204	0.01
259.577	0.05
259.95	0
260.323	0.01
260.697	-0.01
261.07	0.03
261.443	0.06
261.816	-0.04
262.189	0.07
262.562	0.09
262.935	0.03
263.308	-0
263.68	0.03
264.053	-0.01
264.426	0.07
264.799	0
265.172	0
265.545	0.03
265.917	0.04
266.29	0.04
266.663	0.08
267.035	-0.04
267.408	0.05
267.781	0.08
268.153	0.03
268.526	0.02
268.898	0.06
269.271	0.05
269.643	0.04
270.016	0.01
270.388	0.04
270.76	0.1
271.133	-0.01
271.505	-0.01
271.877	0.02
272.25	0.07
272.622	0.07
272.994	0.02
273.366	0.04
273.739	0.04
274.111	0.03
274.483	0.03
274.855	0.05
275.227	0.04
275.599	0.05
275.971	0.1
276.343	0.04
276.715	0.07
277.087	0.03
277.459	-0.01
277.831	0.04
278.203	0.09
278.574	0.09
278.946	0.04
279.318	0.03
279.69	0.08
280.061	0.02
280.433	0.02
280.805	0.02
281.176	-0.01
281.548	0.01
281.92	-0
282.291	0.02
282.663	0
283.034	-0.01
283.406	-0
283.777	0.07
284.148	0.04
284.52	-0.01
284.891	-0.02
285.262	0.02
285.634	0.07
286.005	0.02
286.376	-0.01
286.747	0.07
287.119	0.05
287.49	-0
287.861	-0
288.232	-0.02
288.603	0.06
288.974	0.05
289.345	0.01
289.716	-0.01
290.087	-0
290.458	0.02
290.829	-0.05
291.2	0.03
291.571	0.05
291.941	0.09
292.312	0.04
292.683	0.08
293.054	0.06
293.424	-0.01
293.795	0.04
294.166	0.05
294.536	0.05
294.907	0.1
295.277	0.05
295.648	-0.02
296.018	0.08
296.389	0.03
296.759	-0.02
297.13	0.05
297.5	0.03
297.871	-0.02
298.241	0.07
298.611	0.07
298.981	0.08
299.352	0.04
299.722	0.05
300.092	0.03
300.462	-0
300.832	0.05
301.202	0.03
301.573	-0
301.943	0
302.313	0.04
302.683	0.04
303.053	-0.01
303.422	0
303.792	-0.01
304.162	0.02
304.532	-0.01
304.902	0.04
305.272	0.07
305.641	0.05
306.011	0.05
306.381	0.02
306.75	0.08
307.12	0.03
307.49	-0.01
307.859	0.02
308.229	0.05
308.598	0.04
308.968	0.04
309.337	-0.01
309.707	0.06
310.076	0.01
310.445	0.05
310.815	0.04
311.184	0.03
311.553	-0
311.923	0.01
312.292	0.04
312.661	0.03
313.03	0.01
313.399	0.02
313.768	0
314.137	0.03
314.506	0.03
314.875	0.02
315.244	0.04
315.613	0.02
315.982	0.02
316.351	0.03
316.72	0.03
317.089	0.02
317.458	0.02
317.826	0.02
318.195	0.03
318.564	0.02
318.933	0.01
319.301	0.03
319.67	0.02
320.038	0.03
320.407	0.03
320.775	0.02
321.144	0.04
321.512	0.03
321.881	0.03
322.249	0.03
322.618	0.02
322.986	0.02
323.354	0.03
323.723	0.03
324.091	0.02
324.459	0.04
324.827	0.02
325.195	0.03
325.564	0.03
325.932	0.03
326.3	0.03
326.668	0.03
327.036	0.03
327.404	0.03
327.772	0.03
328.14	0.04
328.508	0.03
328.875	0.02
329.243	0.03
329.611	0.03
329.979	0.03
330.346	0.03
330.714	0.03
331.082	0.03
331.449	0.03
331.817	0.02
332.185	0.04
332.552	0.03
332.92	0.04
333.287	0.03
333.655	0.03
334.022	0.03
334.389	0.03
334.757	0.03
335.124	0.04
335.491	0.04
335.859	0.04
336.226	0.04
336.593	0.04
336.96	0.04
337.327	0.04
337.695	0.04
338.062	0.04
338.429	0.04
338.796	0.04
339.163	0.04
339.53	0.04
339.897	0.04
340.263	0.05
340.63	0.04
340.997	0.05
341.364	0.04
341.731	0.05
342.097	0.05
342.464	0.05
342.831	0.05
343.197	0.05
343.564	0.05
343.931	0.05
344.297	0.06
344.664	0.05
345.03	0.06
345.396	0.05
345.763	0.06
346.129	0.06
346.496	0.06
346.862	0.06
347.228	0.06
347.594	0.06
347.961	0.06
348.327	0.06
348.693	0.07
349.059	0.06
349.425	0.06
349.791	0.06
350.157	0.06
350.523	0.06
350.889	0.07
351.255	0.07
351.621	0.07
351.987	0.07
352.353	0.07
352.719	0.07
353.084	0.07
353.45	0.08
353.816	0.07
354.181	0.08
354.547	0.08
354.913	0.08
355.278	0.08
355.644	0.08
356.009	0.08
356.375	0.09
356.74	0.09
357.106	0.09
357.471	0.09
357.836	0.08
358.202	0.09
358.567	0.09
358.932	0.09
359.297	0.09
359.663	0.1
360.028	0.1
360.393	0.1
360.758	0.1
361.123	0.1
361.488	0.1
361.853	0.1
362.218	0.11
362.583	0.11
362.948	0.11
363.312	0.12
363.677	0.11
364.042	0.12
364.407	0.12
364.772	0.12
365.136	0.12
365.501	0.12
365.865	0.12
366.23	0.12
366.595	0.13
366.959	0.13
367.324	0.12
367.688	0.13
368.052	0.12
368.417	0.13
368.781	0.13
369.145	0.13
369.51	0.14
369.874	0.14
370.238	0.14
370.602	0.14
370.967	0.14
371.331	0.15
371.695	0.15
372.059	0.15
372.423	0.14
372.787	0.15
373.151	0.15
373.515	0.15
373.878	0.15
374.242	0.15
374.606	0.15
374.97	0.15
375.334	0.15
375.697	0.15
376.061	0.15
376.425	0.14
376.788	0.14
377.152	0.14
377.515	0.14
377.879	0.14
378.242	0.14
378.606	0.14
378.969	0.14
379.333	0.14
379.696	0.14
380.059	0.14
380.422	0.13
380.786	0.13
381.149	0.13
381.512	0.13
381.875	0.14
382.238	0.13
382.601	0.13
382.964	0.14
383.327	0.13
383.69	0.14
384.053	0.13
384.416	0.14
384.779	0.14
385.142	0.14
385.504	0.13
385.867	0.14
386.23	0.14
386.593	0.14
386.955	0.14
387.318	0.15
387.68	0.15
388.043	0.15
388.405	0.15
388.768	0.15
389.13	0.16
389.493	0.15
389.855	0.15
390.217	0.16
390.58	0.15
390.942	0.16
391.304	0.15
391.666	0.15
392.028	0.15
392.391	0.15
392.753	0.15
393.115	0.15
393.477	0.15
393.839	0.15
394.201	0.15
394.563	0.15
394.924	0.15
395.286	0.15
395.648	0.15
396.01	0.15
396.371	0.16
396.733	0.16
397.095	0.16
397.456	0.17
397.818	0.17
398.18	0.18
398.541	0.19
398.903	0.19
399.264	0.19
399.625	0.2
399.987	0.2
400.348	0.21
400.709	0.21
401.071	0.22
401.432	0.22
401.793	0.22
402.154	0.22
402.515	0.22
402.876	0.21
403.238	0.21
403.599	0.21
403.96	0.2
404.32	0.19
404.681	0.18
405.042	0.17
405.403	0.17
405.764	0.16
406.125	0.15
406.485	0.14
406.846	0.13
407.207	0.12
407.567	0.12
407.928	0.11
408.288	0.1
408.649	0.1
409.009	0.09
409.37	0.08
409.73	0.08
410.091	0.07
410.451	0.07
410.811	0.07
411.171	0.06
411.532	0.06
411.892	0.06
412.252	0.06
412.612	0.05
412.972	0.05
413.332	0.04
413.692	0.04
414.052	0.04
414.412	0.04
414.772	0.04
415.132	0.04
415.492	0.04
415.851	0.04
416.211	0.02
416.571	0.03
416.931	0.03
417.29	0.03
417.65	0.03
418.009	0.03
418.369	0.03
418.728	0.04
419.088	0.03
419.447	0.03
419.807	0.02
420.166	0.02
420.525	0.02
420.884	0.02
421.244	0.02
421.603	0.02
421.962	0.02
422.321	0.03
422.68	0.02
423.039	0.02
423.398	0.01
423.757	0.02
424.116	0.03
424.475	0.02
424.834	0.02
425.193	0.01
425.551	0.02
425.91	0.02
426.269	0.02
426.628	0.02
426.986	0.02
427.345	0.02
427.703	0.02
428.062	0.02
428.42	0.01
428.779	0.02
429.137	0.02
429.496	0.02
429.854	0.01
430.212	0.02
430.57	0.02
430.929	0.01
431.287	0.01
431.645	0.01
432.003	0.01
432.361	0.01
432.719	0.01
433.077	0.01
433.435	0.01
433.793	0.01
434.151	0.01
434.509	0.02
434.866	0
435.224	0.01
435.582	0.01
435.94	0.01
436.297	0.01
436.655	0.01
437.012	0.01
437.37	0.01
437.727	0.01
438.085	0.01
438.442	0.01
438.8	0.01
439.157	0.01
439.514	0.01
439.872	0.01
440.229	0.01
440.586	0.01
440.943	0.01
441.3	0.01
441.657	0.01
442.014	0
442.371	0
442.728	0.01
443.085	0.01
443.442	-0
443.799	0.01
444.156	0.01
444.513	0.01
444.869	0
445.226	0.01
445.583	0
445.939	0.01
446.296	0.01
446.652	0
447.009	0
447.365	0
447.722	0
448.078	0
448.434	0
448.791	0.01
449.147	0
449.503	-0
449.859	-0
450.215	-0
450.571	-0
450.928	-0.01
451.284	0
451.64	-0.01
451.995	-0
452.351	-0
452.707	-0.01
453.063	-0.01
453.419	-0.02
453.775	-0.01
454.13	-0.02
454.486	-0.01
454.842	-0.02
455.197	-0.02
455.553	-0.03
455.908	-0.03
456.264	-0.03
456.619	-0.03
456.975	-0.03
457.33	-0.03
457.685	-0.03
458.04	-0.03
458.396	-0.03
458.751	-0.04
459.106	-0.05
459.461	-0.04
459.816	-0.05
460.171	-0.06
460.526	-0.05
460.881	-0.06
461.236	-0.06
461.591	-0.05
461.946	-0.06
462.301	-0.07
462.655	-0.07
463.01	-0.07
463.365	-0.07
463.719	-0.08
464.074	-0.08
464.428	-0.09
464.783	-0.09
465.137	-0.09
465.492	-0.09
465.846	-0.1
466.201	-0.09
466.555	-0.1
466.909	-0.09
467.263	-0.09
467.618	-0.09
467.972	-0.09
468.326	-0.09
468.68	-0.1
469.034	-0.09
469.388	-0.11
469.742	-0.1
470.096	-0.1
470.45	-0.1
470.804	-0.1
471.157	-0.09
471.511	-0.1
471.865	-0.1
472.218	-0.1
472.572	-0.09
472.926	-0.09
473.279	-0.09
473.633	-0.09
473.986	-0.08
474.34	-0.07
474.693	-0.07
475.046	-0.07
475.4	-0.07
475.753	-0.06
476.106	-0.06
476.459	-0.05
476.812	-0.05
477.165	-0.04
477.519	-0.04
477.872	-0.04
478.224	-0.04
478.577	-0.04
478.93	-0.03
479.283	-0.03
479.636	-0.03
479.989	-0.02
480.341	-0.02
480.694	-0.02
481.047	-0.02
481.399	-0.02
481.752	-0.01
482.104	-0.01
482.457	-0.01
482.809	-0.01
483.162	-0.01
483.514	-0.01
483.866	-0.01
484.219	-0
484.571	-0.01
484.923	-0.01
485.275	-0
485.627	-0.01
485.979	-0
486.331	-0
486.683	0
487.035	0
487.387	0
487.739	0.01
488.091	0.01
488.443	0
488.794	0.01
489.146	0.01
489.498	0
489.849	0.01
490.201	0.01
490.552	0.01
490.904	0.01
491.255	0.01
491.607	0.01
491.958	0.01
492.309	0.01
492.661	0.01
493.012	0.02
493.363	0.02
493.714	0.02
494.065	0.02
494.416	0.02
494.767	0.02
495.118	0.02
495.469	0.02
495.82	0.02
496.171	0.02
496.522	0.02
496.872	0.02
497.223	0.02
497.574	0.02
497.924	0.02
498.275	0.02
498.626	0.02
498.976	0.02
499.327	0.02
499.677	0.03
500.027	0.03
500.378	0.03
500.728	0.03
501.078	0.02
501.428	0.03
501.779	0.03
502.129	0.03
502.479	0.02
502.829	0.03
503.179	0.03
503.529	0.03
503.879	0.03
504.229	0.03
504.578	0.03
504.928	0.03
505.278	0.03
505.628	0.03
505.977	0.04
506.327	0.03
506.676	0.03
507.026	0.04
507.375	0.03
507.725	0.03
508.074	0.04
508.424	0.04
508.773	0.04
509.122	0.03
509.471	0.04
509.82	0.04
510.17	0.04
510.519	0.04
510.868	0.04
511.217	0.04
511.566	0.04
511.915	0.04
512.263	0.04
512.612	0.04
512.961	0.04
513.31	0.04
513.659	0.04
514.007	0.04
514.356	0.04
514.704	0.04
515.053	0.04
515.401	0.04
515.75	0.04
516.098	0.04
516.447	0.04
516.795	0.04
517.143	0.04
517.491	0.04
517.839	0.04
518.188	0.05
518.536	0.04
518.884	0.05
519.232	0.05
519.58	0.04
519.928	0.04
520.275	0.05
520.623	0.04
520.971	0.05
521.319	0.04
521.666	0.05
522.014	0.05
522.362	0.05
522.709	0.05
523.057	0.05
523.404	0.05
523.752	0.05
524.099	0.05
524.446	0.05
524.794	0.05
525.141	0.05
525.488	0.05
525.835	0.05
526.182	0.05
526.529	0.05
526.876	0.05
527.223	0.05
527.57	0.05
527.917	0.05
528.264	0.05
528.611	0.05
528.958	0.05
529.304	0.05
529.651	0.05
529.998	0.05
530.344	0.06
530.691	0.05
531.037	0.06
531.384	0.05
531.73	0.06
532.076	0.05
532.423	0.05
532.769	0.05
533.115	0.06
533.461	0.05
533.807	0.06
534.154	0.06
534.5	0.06
534.846	0.06
535.192	0.05
535.537	0.06
535.883	0.06
536.229	0.06
536.575	0.05
536.921	0.06
537.266	0.06
537.612	0.06
537.957	0.06
538.303	0.06
538.649	0.06
538.994	0.06
539.339	0.06
539.685	0.06
540.03	0.06
540.375	0.06
540.721	0.06
541.066	0.06
541.411	0.06
541.756	0.06
542.101	0.06
542.446	0.06
542.791	0.06
543.136	0.06
543.481	0.06
543.825	0.06
544.17	0.06
544.515	0.07
544.86	0.06
545.204	0.06
545.549	0.06
545.893	0.06
546.238	0.07
546.582	0.07
546.927	0.06
547.271	0.06
547.615	0.07
547.96	0.06
548.304	0.06
548.648	0.07
548.992	0.07
549.336	0.06
549.68	0.06
550.024	0.07
550.368	0.07
550.712	0.07
551.056	0.07
551.4	0.07
551.743	0.07
552.087	0.07
552.431	0.07
552.774	0.07
553.118	0.07
553.462	0.07
553.805	0.07
554.148	0.07
554.492	0.07
554.835	0.07
555.178	0.07
555.522	0.07
555.865	0.07
556.208	0.07
556.551	0.07
556.894	0.07
557.237	0.07
557.58	0.07
557.923	0.07
558.266	0.07
558.609	0.07
558.952	0.07
559.294	0.07
559.637	0.07
559.98	0.07
560.322	0.07
560.665	0.07
561.007	0.07
561.35	0.07
561.692	0.07
562.034	0.07
562.377	0.07
562.719	0.07
563.061	0.07
563.403	0.07
563.745	0.07
564.088	0.07
564.43	0.07
564.772	0.07
565.113	0.07
565.455	0.07
565.797	0.07
566.139	0.07
566.481	0.07
566.822	0.07
567.164	0.07
567.506	0.07
567.847	0.07
568.189	0.07
568.53	0.07
568.872	0.07
569.213	0.07
569.554	0.07
569.895	0.07
570.237	0.07
570.578	0.07
570.919	0.07
571.26	0.07
571.601	0.07
571.942	0.07
572.283	0.07
572.624	0.07
572.965	0.07
573.306	0.07
573.646	0.07
573.987	0.07
574.328	0.07
574.668	0.07
575.009	0.06
575.349	0.06
575.69	0.07
576.03	0.07
576.37	0.06
576.711	0.06
577.051	0.07
577.391	0.07
577.731	0.07
578.072	0.07
578.412	0.06
578.752	0.07
579.092	0.06
579.431	0.06
579.771	0.04
580.111	0.04
580.451	0.06
580.791	0.07
581.13	0.07
581.47	0.07
581.81	0.07
582.149	0.07
582.489	0.06
582.828	0.06
583.167	0.03
583.507	0.01
583.846	0.01
584.185	0.04
584.525	0.05
584.864	0.06
585.203	0.07
585.542	0.07
585.881	0.07
586.22	0.07
586.559	0.06
586.898	0.06
587.236	0.05
587.575	0.06
587.914	0.06
588.252	0.07
588.591	0.07
588.93	0.07
589.268	0.06
589.607	0.06
589.945	0.07
590.283	0.07
590.622	0.07
590.96	0.07
591.298	0.07
591.636	0.07
591.974	0.07
592.313	0.07
592.651	0.07
592.989	0.07
593.326	0.07
593.664	0.07
594.002	0.07
594.34	0.07
594.678	0.07
595.015	0.06
595.353	0.06
595.691	0.07
596.028	0.07
596.366	0.07
596.703	0.07
597.04	0.07
597.378	0.07
597.715	0.07
598.052	0.07
598.389	0.07
598.726	0.07
599.064	0.07
599.401	0.07
599.738	0.08
600.074	0.07
600.411	0.07
600.748	0.07
601.085	0.07
601.422	0.07
601.758	0.07
602.095	0.07
602.432	0.07
602.768	0.07
603.105	0.07
603.441	0.07
603.777	0.07
604.114	0.07
604.45	0.08
604.786	0.07
605.122	0.07
605.459	0.07
605.795	0.07
606.131	0.07
606.467	0.07
606.803	0.07
607.139	0.07
607.474	0.07
607.81	0.07
608.146	0.07
608.482	0.07
608.817	0.07
609.153	0.07
609.488	0.07
609.824	0.07
610.159	0.07
610.495	0.07
610.83	0.07
611.165	0.07
611.5	0.07
611.836	0.07
612.171	0.07
612.506	0.07
612.841	0.07
613.176	0.07
613.511	0.07
613.845	0.07
614.18	0.07
614.515	0.07
614.85	0.07
615.184	0.07
615.519	0.07
615.854	0.07
616.188	0.07
616.523	0.07
616.857	0.07
617.191	0.07
617.526	0.07
617.86	0.07
618.194	0.07
618.528	0.07
618.862	0.07
619.196	0.07
619.53	0.07
619.864	0.07
620.198	0.07
620.532	0.07
620.866	0.07
621.2	0.07
621.533	0.07
621.867	0.07
622.201	0.07
622.534	0.07
622.868	0.07
623.201	0.07
623.534	0.07
623.868	0.06
624.201	0.07
624.534	0.07
624.868	0.07
625.201	0.07
625.534	0.06
625.867	0.06
626.2	0.06
626.533	0.06
626.865	0.06
627.198	0.06
627.531	0.06
627.864	0.06
628.196	0.06
628.529	0.06
628.862	0.06
629.194	0.06
629.527	0.06
629.859	0.06
630.191	0.06
630.524	0.06
630.856	0.06
631.188	0.06
631.52	0.06
631.852	0.05
632.184	0.05
632.516	0.05
632.848	0.06
633.18	0.06
633.512	0.05
633.844	0.05
634.175	0.05
634.507	0.05
634.839	0.05
635.17	0.05
635.502	0.05
635.833	0.05
636.165	0.05
636.496	0.05
636.827	0.05
637.159	0.05
637.49	0.05
637.821	0.05
638.152	0.05
638.483	0.05
638.814	0.05
639.145	0.05
639.476	0.05
639.807	0.05
640.137	0.05
640.468	0.05
640.799	0.05
641.129	0.04
641.46	0.04
641.791	0.04
642.121	0.04
642.451	0.04
642.782	0.04
643.112	0.04
643.442	0.04
643.773	0.04
644.103	0.04
644.433	0.04
644.763	0.04
645.093	0.04
645.423	0.04
645.753	0.04
646.082	0.04
646.412	0.04
646.742	0.04
647.072	0.04
647.401	0.04
647.731	0.04
648.06	0.04
648.39	0.04
648.719	0.04
649.048	0.05
649.378	0.05
649.707	0.04
650.036	0.04
650.365	0.04
650.694	0.04
651.023	0.04
651.352	0.04
651.681	0.04
652.01	0.04
652.339	0.04
652.668	0.04
652.996	0.04
653.325	0.04
653.654	0.04
653.982	0.04
654.311	0.04
654.639	0.04
654.967	0.04
655.296	0.04
655.624	0.04
655.952	0.04
656.28	0.04
656.609	0.04
656.937	0.04
657.265	0.04
657.593	0
657.92	-0
658.248	-0
658.576	0
658.904	0
659.231	0.03
659.559	0.04
659.887	0.04
660.214	0.04
660.542	0.04
660.869	0.04
661.196	0.04
661.524	0.04
661.851	0.04
662.178	0.04
662.505	0.04
662.832	0.04
663.159	0.04
663.486	0.04
663.813	0.04
664.14	0.04
664.467	0.04
664.794	0.04
665.12	0.04
665.447	0.04
665.774	0.04
666.1	0.04
666.427	0.03
666.753	0.03
667.079	0.03
667.406	0.03
667.732	0.03
668.058	0.03
668.384	0.03
668.71	0.03
669.036	0.03
669.362	0.04
669.688	0.03
670.014	0.04
670.34	0.04
670.666	0.03
670.991	0.03
671.317	0.03
671.643	0.03
671.968	0.03
672.294	0.03
672.619	0.03
672.945	0.03
673.27	0.03
673.595	0.03
673.92	0.03
674.246	0.03
674.571	0.03
674.896	0.03
675.221	0.03
675.546	0.03
675.87	0.03
676.195	0.03
676.52	0.03
676.845	0.03
677.169	0.03
677.494	0.03
677.819	0.03
678.143	0.03
678.468	0.03
678.792	0.03
679.116	0.03
679.44	0.03
679.765	0.03
680.089	0.02
680.413	0.02
680.737	0.02
681.061	0.02
681.385	0.02
681.709	0.02
682.033	0.02
682.356	0.02
682.68	0.02
683.004	0.02
683.327	0.02
683.651	0.02
683.974	0.02
684.298	0.02
684.621	0.02
684.944	0.02
685.268	0.02
685.591	0.02
685.914	0.02
686.237	0.02
686.56	0.02
686.883	0.02
687.206	0.02
687.529	0.02
687.852	0.02
688.175	0.02
688.497	0.02
688.82	0.02
689.142	0.02
689.465	0.02
689.787	0.02
690.11	0.02
690.432	0.02
690.755	0.02
691.077	0.02
691.399	0.02
691.721	0.02
692.043	0.01
692.365	0.01
692.687	0.01
693.009	0.01
693.331	0.01
693.653	0.01
693.974	0.01
694.296	0.01
694.618	0.01
694.939	0.01
695.261	0.01
695.582	0.01
695.904	0.01
696.225	0.01
696.546	0.01
696.868	0.01
697.189	0.01
697.51	0.01
697.831	0.01
698.152	0.01
698.473	0.01
698.794	0.01
699.114	0.01
699.435	0
699.756	0.01
700.077	0.01
700.397	0.01
700.718	0.01
701.038	0.01
701.359	0.01
701.679	0.01
701.999	0.01
702.32	0.01
702.64	0.01
702.96	0.01
703.28	0.01
703.6	0.01
703.92	0
704.24	0
704.56	0
704.879	0
705.199	0.01
705.519	0.01
705.838	0.01
706.158	0.01
706.478	0.01
706.797	0.01
707.116	0.01
707.436	0.01
707.755	0.01
708.074	0.01
708.393	0.01
708.712	0
709.031	0
709.35	0
709.669	0
709.988	0
710.307	0.01
710.626	0
710.944	0.01
711.263	0.01
711.582	0.01
711.9	0.01
712.219	0.01
712.537	0.01
712.855	0.01
713.174	0
713.492	0
713.81	0
714.128	0
714.446	0
714.764	0
715.082	0
715.4	0
715.718	0
716.035	0
716.353	0
716.671	0.01
716.988	0.01
717.306	0.01
717.623	0.01
717.941	0.01
718.258	0.01
718.575	0.01
718.893	0.01
719.21	0.01
719.527	0.01
719.844	0.01
720.161	0.01
720.478	0.01
720.795	0.01
721.112	0.01
721.428	0.01
721.745	0.01
722.062	0.01
722.378	0.01
722.695	0.01
723.011	0.01
723.328	0.01
723.644	0.01
723.96	0.01
724.276	0.01
724.593	0.01
724.909	0.01
725.225	0.01
725.541	0.01
725.857	0.01
726.173	0.01
726.488	0.01
726.804	0.01
727.12	0.01
727.435	0.01
727.751	0.01
728.067	0.01
728.382	0.01
728.697	0.01
729.013	0.01
729.328	0.01
729.643	0.01
729.958	0.01
730.273	0.01
730.588	0.01
730.903	0.01
731.218	0.01
731.533	0.01
731.848	0.01
732.163	0.01
732.477	0
732.792	0
733.107	0
733.421	0
733.736	0.01
734.05	0.01
734.364	0.01
734.678	0.01
734.993	0.01
735.307	0.01
735.621	0.01
735.935	0.01
736.249	0.01
736.563	0.01
736.877	0.01
737.19	0.01
737.504	0.01
737.818	0.01
738.131	0.01
738.445	0.01
738.758	0.01
739.072	0.01
739.385	0.01
739.698	0.01
740.012	0.01
740.325	0.01
740.638	0.01
740.951	0.01
741.264	0.01
741.577	0.01
741.89	0.01
742.203	0.01
742.515	0.01
742.828	0.01
743.141	0
743.453	0
743.766	0.01
744.078	0
744.391	0.01
744.703	0.01
745.015	0.01
745.327	0.01
745.639	0.01
745.952	0.01
746.264	0.01
746.575	0.01
746.887	0.01
747.199	0.01
747.511	0.01
747.823	0.01
748.134	0
748.446	0
748.757	0
749.069	0.01
749.38	0
749.692	0
750.003	0
750.314	0
750.625	0
750.936	0
751.248	0
751.559	-0
751.869	-0
752.18	0
752.491	0
752.802	0
753.112	0
753.423	0
753.734	0
754.044	0
754.355	-0
754.665	-0
754.975	-0
755.285	0
755.596	0
755.906	-0
756.216	-0
756.526	-0
756.836	-0
757.146	0
757.455	-0
757.765	-0
758.075	0
758.385	-0
758.694	0
759.004	0
759.313	0
759.622	0
759.932	0
760.241	0
760.55	0
760.859	0
761.168	0
761.477	0
761.786	0
762.095	0
762.404	0
762.713	0
763.021	-0
763.33	-0
763.639	0
763.947	-0
764.256	-0
764.564	-0
764.872	-0
765.181	-0
765.489	0
765.797	-0
766.105	-0
766.413	-0
766.721	-0
767.029	-0
767.337	-0
767.644	-0
767.952	0
768.26	0
768.567	0
768.875	0
769.182	0
769.49	0
769.797	0
770.104	0
770.411	-0
770.718	-0
771.026	-0
771.333	-0
771.639	-0
771.946	-0
772.253	-0
772.56	-0
772.867	-0
773.173	-0
773.48	-0
773.786	0
774.093	-0
774.399	-0
774.705	-0
775.012	-0
775.318	-0
775.624	-0
775.93	-0
776.236	-0
776.542	-0
776.848	0
777.154	-0
777.459	-0
777.765	-0
778.071	-0
778.376	-0
778.682	-0
778.987	-0
779.292	-0
779.598	-0
779.903	-0
780.208	-0.01
780.513	-0.01
780.818	-0.01
781.123	-0
781.428	-0
781.733	-0.01
782.038	-0.01
782.343	-0.01
782.647	-0.01
782.952	-0.01
783.256	-0.01
783.561	-0.01
783.865	-0.01
784.17	-0.01
784.474	-0.01
784.778	-0.01
785.082	-0.01
785.386	-0.01
785.69	-0.01
785.994	-0.01
786.298	-0.01
786.602	-0.01
786.906	-0
787.209	-0
787.513	-0
787.817	0
788.12	-0
788.424	0
788.727	-0
789.03	-0
789.333	-0
789.637	-0
789.94	-0
790.243	-0
790.546	-0
790.849	-0
791.152	-0
791.454	-0
791.757	-0
792.06	-0
792.362	0
792.665	-0
792.967	-0
793.27	-0
793.572	-0
793.874	0
794.177	-0
794.479	-0.01
794.781	-0.01
795.083	-0
795.385	-0
795.687	-0
795.989	-0
796.29	-0
796.592	-0
796.894	0
797.195	0
797.497	-0
797.798	-0
798.1	-0
798.401	-0.01
798.702	-0.01
799.003	-0.01
799.304	-0
799.605	-0
799.906	-0
800.207	-0
800.508	-0.01
800.809	-0
801.11	-0
801.41	-0
801.711	-0
802.011	-0.01
802.312	-0.01
802.612	-0.01
802.913	-0.01
803.213	-0.01
803.513	-0.01
803.813	-0
804.113	-0.01
804.413	-0
804.713	-0
805.013	-0
805.313	0
805.613	-0.01
805.912	-0
806.212	-0
806.511	-0
806.811	0
807.11	-0
807.41	-0
807.709	-0
808.008	-0
808.307	-0.01
808.606	-0.01
808.905	-0.01
809.204	-0.01
809.503	-0.01
809.802	-0.01
810.101	-0.01
810.399	-0.01
810.698	-0.01
810.997	-0.01
811.295	-0.01
811.593	-0
811.892	-0
812.19	-0.01
812.488	-0.01
812.786	-0.01
813.084	-0.01
813.383	-0
813.68	-0
813.978	-0
814.276	-0
814.574	-0
814.872	-0
815.169	-0
815.467	-0.01
815.764	-0
816.062	-0
816.359	-0.01
816.656	-0.01
816.954	-0.01
817.251	-0
817.548	-0
817.845	-0
818.142	-0
818.439	-0
818.735	0
819.032	0
819.329	0
819.626	0
819.922	0.01
820.219	0.01
820.515	0
820.811	0.01
821.108	0
821.404	0
821.7	0
821.996	0
822.292	0.01
822.588	0.01
822.884	0.01
823.18	0.01
823.475	0.01
823.771	0.01
824.067	0
824.362	0
824.658	0.01
824.953	0
825.249	-0
825.544	-0
825.839	0.01
826.134	-0
826.429	0
826.724	-0
827.019	0
827.314	0
827.609	0
827.904	-0
828.198	-0
828.493	0
828.787	0
829.082	0.01
829.376	0.01
829.671	0.01
829.965	0.01
830.259	0.01
830.553	0.01
830.847	0.01
831.141	0.01
831.435	0.01
831.729	0.01
832.023	0
832.317	0.01
832.61	0.01
832.904	0.01
833.197	0.01
833.491	0.01
833.784	0.01
834.077	0
834.371	0.01
834.664	0.01
834.957	0.01
835.25	0
835.543	0.01
835.836	0
836.129	0.01
836.421	0
836.714	0
837.007	0.01
837.299	0.01
837.592	0.01
837.884	0.01
838.177	0
838.469	0
838.761	0
839.053	0.01
839.345	0.01
839.637	-0
839.929	0.01
840.221	0.01
840.513	0.01
840.805	0.02
841.096	0.01
841.388	0.01
841.68	0.01
841.971	0.01
842.262	0.01
842.554	0
842.845	0
843.136	-0.01
843.427	0
843.718	0.01
844.009	0.01
844.3	-0
844.591	0
844.882	0.01
845.173	0.02
845.463	0.01
845.754	0.02
846.044	0.01
846.335	0.01
846.625	0
846.915	0.01
847.206	0
847.496	0.01
847.786	0.01
848.076	0
848.366	-0.01
848.656	0
848.945	0
849.235	-0.01
849.525	-0
849.814	-0
850.104	-0.01
850.393	0
850.683	0.01
850.972	0.01
851.261	0.01
851.551	0.01
851.84	0.01
852.129	0.01
852.418	0.01
852.707	0.01
852.995	0
853.284	0.01
853.573	0
853.862	-0.01
854.15	0
854.439	-0.01
854.727	-0
855.015	0.01
855.304	0.01
855.592	0.01
855.88	-0
856.168	0
856.456	-0.01
856.744	0
857.032	-0
857.32	0
857.607	-0.01
857.895	0.01
858.183	0.01
858.47	-0.01
858.757	-0.01
859.045	0.01
859.332	0.01
859.619	0.01
859.907	0
860.194	-0.01
860.481	0.03
860.768	0.01
861.054	-0.01
861.341	-0.02
861.628	0.01
861.915	0
862.201	0.02
862.488	0.03
862.774	0.02
863.061	0.02
863.347	0.01
863.633	0.02
863.919	0.01
864.205	-0
864.491	-0
864.777	0.02
865.063	-0.01
865.349	0.01
865.635	0
865.92	0.02
866.206	0
866.492	0.01
866.777	0.01
867.062	0.03
867.348	0.01
867.633	0
867.918	0.01
868.203	0.01
868.488	0.02
868.773	0.05
869.058	0.03
869.343	0.02
869.628	0
869.912	-0.02
870.197	-0
870.482	0.02
870.766	0.04
871.05	0
871.335	0.02
871.619	-0.01
871.903	0.01
872.187	0.01
872.471	0.02
872.755	0
873.039	-0.01
873.323	0
873.607	0.03
873.89	0.04
874.174	0.04
874.458	0.04
874.741	-0.04
875.024	0.02
875.308	0
875.591	0
875.874	-0
876.157	-0.05
876.44	-0.03
876.723	-0.04
877.006	-0.05
877.289	-0.02
877.572	0.06
877.854	-0
878.137	0.03
878.42	-0.01
878.702	0.02
878.984	0.08
879.267	0.07
879.549	0.04
879.831	-0.12
880.113	-0.03
880.395	-0.04
880.677	-0.16
880.959	-0.04
