Data from Rubpy_BV_1800_EDTA_Buffered_Absorbance_15-12-14-847.txt Node
Date: Wed Jul 01 15:12:14 BST 2026
User: fpm-admin
Spectrometer: OFX00224
Trigger mode: 0
Integration Time (sec): 7.000000E-2
Scans to average: 3
Nonlinearity correction enabled: false
Boxcar width: 0
Storing dark spectrum: false
XAxis mode: Wavelengths
Number of Pixels in Spectrum: 2136
>>>>>Begin Spectral Data<<<<<
154.91	-0.48
155.289	-0
155.669	-1.02
156.048	-0.66
156.428	-0
156.807	0.12
157.186	1
157.566	-0
157.945	-0.19
158.325	-0
158.704	-0
159.083	-0
159.462	-0
159.842	-0
160.221	-0.4
160.6	0.21
160.979	-0.2
161.359	-0
161.738	0.15
162.117	0.2
162.496	0.08
162.875	0.19
163.254	-0
163.633	-0
164.012	-0
164.391	-0.1
164.77	-0
165.149	-0
165.528	-1.11
165.907	-0
166.286	0.37
166.665	0.18
167.044	0.65
167.423	-0.12
167.802	-0
168.181	-0.18
168.559	-0
168.938	-0.41
169.317	-0
169.696	-0
170.074	-0.05
170.453	1.32
170.832	-0.85
171.21	-0
171.589	-0
171.968	0.53
172.346	-0
172.725	-0
173.103	0.8
173.482	0.24
173.861	-0
174.239	0.15
174.617	-0
174.996	0.1
175.374	0.09
175.753	-0.3
176.131	-0
176.51	-0.13
176.888	0.56
177.266	-0
177.645	-0.04
178.023	1.67
178.401	0.03
178.779	-0.02
179.158	-0.85
179.536	-0.67
179.914	0.18
180.292	-0
180.67	0.15
181.048	-0
181.427	-0
181.805	-0
182.183	-1.28
182.561	0.03
182.939	0.15
183.317	-0
183.695	0.03
184.073	0.06
184.451	-0
184.829	-0.55
185.206	-0
185.584	0.08
185.962	-0
186.34	0.44
186.718	1
187.096	-0.24
187.473	-0
187.851	-0
188.229	-0
188.607	0.27
188.984	0.2
189.362	0.33
189.74	0.27
190.117	0.5
190.495	0.26
190.872	0.51
191.25	0.41
191.627	0.25
192.005	0.32
192.382	0.14
192.76	0.28
193.137	0.28
193.515	0.37
193.892	0.51
194.269	0.38
194.647	0.32
195.024	0.19
195.401	0.42
195.779	0.42
196.156	0.19
196.533	0.22
196.91	0.31
197.288	0.29
197.665	0.25
198.042	0.34
198.419	0.37
198.796	0.27
199.173	0.3
199.55	0.28
199.927	0.19
200.304	0.39
200.681	0.37
201.058	0.43
201.435	0.31
201.812	0.32
202.189	0.33
202.566	0.37
202.943	0.11
203.32	0.31
203.697	0.34
204.073	0.38
204.45	0.35
204.827	0.49
205.204	0.24
205.58	0.32
205.957	0.34
206.334	0.34
206.71	0.26
207.087	0.24
207.464	0.4
207.84	0.35
208.217	0.51
208.593	0.36
208.97	0.32
209.346	0.46
209.723	0.28
210.099	0.36
210.476	0.21
210.852	0.25
211.228	0.48
211.605	0.37
211.981	0.47
212.357	0.26
212.733	0.26
213.11	0.19
213.486	0.38
213.862	0.53
214.238	0.34
214.614	0.34
214.991	0.28
215.367	0.37
215.743	0.28
216.119	0.36
216.495	0.29
216.871	0.36
217.247	0.18
217.623	0.37
217.999	0.3
218.375	0.33
218.751	0.4
219.127	0.27
219.502	0.37
219.878	0.28
220.254	0.37
220.63	0.28
221.006	0.38
221.381	0.35
221.757	0.3
222.133	0.3
222.508	0.47
222.884	0.34
223.26	0.29
223.635	0.26
224.011	0.38
224.386	0.27
224.762	0.36
225.137	0.49
225.513	0.31
225.888	0.39
226.264	0.29
226.639	0.56
227.014	0.24
227.39	0.37
227.765	0.37
228.14	0.45
228.516	0.81
228.891	0.33
229.266	0.2
229.641	0.23
230.017	0.3
230.392	0.41
230.767	0.2
231.142	0.25
231.517	0.17
231.892	0.34
232.267	0.38
232.642	0.4
233.017	0.39
233.392	0.35
233.767	0.35
234.142	0.26
234.517	0.35
234.892	0.28
235.267	0.3
235.641	0.21
236.016	0.3
236.391	0.33
236.766	0.32
237.14	0.5
237.515	0.43
237.89	0.31
238.264	0.32
238.639	0.43
239.014	0.45
239.388	0.34
239.763	0.48
240.137	0.3
240.512	0.22
240.886	0.38
241.261	0.33
241.635	0.3
242.009	0.34
242.384	0.28
242.758	0.26
243.132	0.4
243.507	0.41
243.881	0.36
244.255	0.32
244.629	0.42
245.004	0.41
245.378	0.38
245.752	0.21
246.126	0.37
246.5	0.48
246.874	0.24
247.248	0.5
247.622	0.29
247.996	0.27
248.37	0.28
248.744	0.3
249.118	0.45
249.492	0.47
249.866	0.42
250.24	0.35
250.613	0.35
250.987	0.38
251.361	0.45
251.735	0.3
252.108	0.22
252.482	0.22
252.856	0.31
253.229	0.33
253.603	0.31
253.977	0.22
254.35	0.28
254.724	0.33
255.097	0.41
255.471	0.46
255.844	0.38
256.218	0.26
256.591	0.27
256.964	0.33
257.338	0.26
257.711	0.29
258.084	0.32
258.458	0.38
258.831	0.39
259.204	0.49
259.577	0.28
259.95	0.33
260.323	0.31
260.697	0.22
261.07	0.4
261.443	0.24
261.816	0.21
262.189	0.34
262.562	0.43
262.935	0.43
263.308	0.28
263.68	0.46
264.053	0.34
264.426	0.4
264.799	0.35
265.172	0.28
265.545	0.32
265.917	0.34
266.29	0.28
266.663	0.4
267.035	0.32
267.408	0.27
267.781	0.45
268.153	0.37
268.526	0.3
268.898	0.33
269.271	0.32
269.643	0.35
270.016	0.31
270.388	0.33
270.76	0.38
271.133	0.4
271.505	0.31
271.877	0.39
272.25	0.37
272.622	0.5
272.994	0.49
273.366	0.45
273.739	0.33
274.111	0.26
274.483	0.34
274.855	0.36
275.227	0.29
275.599	0.36
275.971	0.35
276.343	0.3
276.715	0.34
277.087	0.32
277.459	0.38
277.831	0.46
278.203	0.36
278.574	0.28
278.946	0.38
279.318	0.23
279.69	0.34
280.061	0.35
280.433	0.31
280.805	0.42
281.176	0.32
281.548	0.35
281.92	0.26
282.291	0.36
282.663	0.38
283.034	0.3
283.406	0.33
283.777	0.4
284.148	0.42
284.52	0.41
284.891	0.25
285.262	0.28
285.634	0.34
286.005	0.27
286.376	0.37
286.747	0.34
287.119	0.31
287.49	0.31
287.861	0.36
288.232	0.23
288.603	0.46
288.974	0.31
289.345	0.35
289.716	0.35
290.087	0.37
290.458	0.37
290.829	0.37
291.2	0.21
291.571	0.31
291.941	0.47
292.312	0.32
292.683	0.3
293.054	0.33
293.424	0.4
293.795	0.33
294.166	0.39
294.536	0.31
294.907	0.44
295.277	0.4
295.648	0.45
296.018	0.31
296.389	0.29
296.759	0.25
297.13	0.28
297.5	0.32
297.871	0.34
298.241	0.47
298.611	0.49
298.981	0.35
299.352	0.38
299.722	0.38
300.092	0.36
300.462	0.37
300.832	0.43
301.202	0.35
301.573	0.33
301.943	0.35
302.313	0.36
302.683	0.39
303.053	0.36
303.422	0.38
303.792	0.29
304.162	0.38
304.532	0.35
304.902	0.43
305.272	0.33
305.641	0.39
306.011	0.32
306.381	0.32
306.75	0.28
307.12	0.32
307.49	0.36
307.859	0.3
308.229	0.31
308.598	0.28
308.968	0.32
309.337	0.26
309.707	0.29
310.076	0.3
310.445	0.3
310.815	0.28
311.184	0.29
311.553	0.25
311.923	0.28
312.292	0.29
312.661	0.31
313.03	0.27
313.399	0.28
313.768	0.28
314.137	0.29
314.506	0.28
314.875	0.28
315.244	0.27
315.613	0.27
315.982	0.3
316.351	0.33
316.72	0.31
317.089	0.32
317.458	0.31
317.826	0.33
318.195	0.32
318.564	0.33
318.933	0.31
319.301	0.34
319.67	0.34
320.038	0.34
320.407	0.35
320.775	0.35
321.144	0.36
321.512	0.36
321.881	0.36
322.249	0.37
322.618	0.37
322.986	0.37
323.354	0.37
323.723	0.39
324.091	0.39
324.459	0.4
324.827	0.39
325.195	0.4
325.564	0.41
325.932	0.43
326.3	0.43
326.668	0.43
327.036	0.43
327.404	0.44
327.772	0.46
328.14	0.47
328.508	0.46
328.875	0.49
329.243	0.49
329.611	0.48
329.979	0.49
330.346	0.5
330.714	0.51
331.082	0.52
331.449	0.52
331.817	0.53
332.185	0.54
332.552	0.54
332.92	0.57
333.287	0.56
333.655	0.58
334.022	0.6
334.389	0.6
334.757	0.61
335.124	0.62
335.491	0.63
335.859	0.66
336.226	0.67
336.593	0.68
336.96	0.69
337.327	0.7
337.695	0.71
338.062	0.73
338.429	0.73
338.796	0.75
339.163	0.77
339.53	0.78
339.897	0.79
340.263	0.8
340.63	0.82
340.997	0.84
341.364	0.85
341.731	0.86
342.097	0.88
342.464	0.89
342.831	0.91
343.197	0.92
343.564	0.93
343.931	0.94
344.297	0.96
344.664	0.97
345.03	0.98
345.396	1
345.763	1.02
346.129	1.04
346.496	1.05
346.862	1.07
347.228	1.08
347.594	1.09
347.961	1.11
348.327	1.14
348.693	1.14
349.059	1.16
349.425	1.15
349.791	1.18
350.157	1.19
350.523	1.2
350.889	1.2
351.255	1.22
351.621	1.23
351.987	1.25
352.353	1.25
352.719	1.28
353.084	1.29
353.45	1.32
353.816	1.33
354.181	1.33
354.547	1.35
354.913	1.35
355.278	1.38
355.644	1.41
356.009	1.41
356.375	1.45
356.74	1.44
357.106	1.46
357.471	1.47
357.836	1.49
358.202	1.52
358.567	1.51
358.932	1.54
359.297	1.59
359.663	1.58
360.028	1.61
360.393	1.6
360.758	1.63
361.123	1.62
361.488	1.69
361.853	1.7
362.218	1.7
362.583	1.7
362.948	1.72
363.312	1.77
363.677	1.78
364.042	1.78
364.407	1.78
364.772	1.78
365.136	1.8
365.501	1.84
365.865	1.81
366.23	1.8
366.595	1.85
366.959	1.85
367.324	1.85
367.688	1.81
368.052	1.88
368.417	1.94
368.781	2
369.145	1.97
369.51	1.92
369.874	1.93
370.238	1.94
370.602	1.95
370.967	1.98
371.331	1.92
371.695	1.94
372.059	1.93
372.423	1.92
372.787	1.93
373.151	1.95
373.515	1.89
373.878	1.86
374.242	1.93
374.606	1.95
374.97	1.89
375.334	1.91
375.697	1.9
376.061	1.87
376.425	1.85
376.788	1.86
377.152	1.9
377.515	1.84
377.879	1.84
378.242	1.83
378.606	1.81
378.969	1.78
379.333	1.78
379.696	1.72
380.059	1.74
380.422	1.75
380.786	1.73
381.149	1.69
381.512	1.66
381.875	1.66
382.238	1.64
382.601	1.63
382.964	1.62
383.327	1.58
383.69	1.55
384.053	1.54
384.416	1.55
384.779	1.54
385.142	1.51
385.504	1.48
385.867	1.48
386.23	1.49
386.593	1.48
386.955	1.46
387.318	1.45
387.68	1.43
388.043	1.44
388.405	1.43
388.768	1.41
389.13	1.42
389.493	1.39
389.855	1.37
390.217	1.38
390.58	1.36
390.942	1.34
391.304	1.34
391.666	1.33
392.028	1.3
392.391	1.28
392.753	1.26
393.115	1.25
393.477	1.24
393.839	1.23
394.201	1.21
394.563	1.2
394.924	1.2
395.286	1.2
395.648	1.2
396.01	1.19
396.371	1.21
396.733	1.23
397.095	1.25
397.456	1.26
397.818	1.28
398.18	1.3
398.541	1.33
398.903	1.37
399.264	1.38
399.625	1.42
399.987	1.43
400.348	1.45
400.709	1.46
401.071	1.47
401.432	1.48
401.793	1.47
402.154	1.46
402.515	1.46
402.876	1.43
403.238	1.41
403.599	1.36
403.96	1.33
404.32	1.27
404.681	1.23
405.042	1.2
405.403	1.16
405.764	1.09
406.125	1.05
406.485	0.99
406.846	0.94
407.207	0.9
407.567	0.85
407.928	0.81
408.288	0.76
408.649	0.73
409.009	0.69
409.37	0.65
409.73	0.63
410.091	0.58
410.451	0.55
410.811	0.53
411.171	0.51
411.532	0.47
411.892	0.46
412.252	0.44
412.612	0.41
412.972	0.4
413.332	0.38
413.692	0.37
414.052	0.35
414.412	0.35
414.772	0.33
415.132	0.32
415.492	0.31
415.851	0.3
416.211	0.28
416.571	0.28
416.931	0.28
417.29	0.26
417.65	0.25
418.009	0.25
418.369	0.25
418.728	0.25
419.088	0.24
419.447	0.23
419.807	0.22
420.166	0.22
420.525	0.22
420.884	0.21
421.244	0.21
421.603	0.21
421.962	0.2
422.321	0.2
422.68	0.19
423.039	0.19
423.398	0.18
423.757	0.18
424.116	0.19
424.475	0.18
424.834	0.18
425.193	0.17
425.551	0.18
425.91	0.17
426.269	0.17
426.628	0.17
426.986	0.18
427.345	0.17
427.703	0.17
428.062	0.17
428.42	0.16
428.779	0.17
429.137	0.16
429.496	0.16
429.854	0.16
430.212	0.16
430.57	0.16
430.929	0.15
431.287	0.15
431.645	0.15
432.003	0.15
432.361	0.15
432.719	0.16
433.077	0.16
433.435	0.15
433.793	0.16
434.151	0.16
434.509	0.16
434.866	0.14
435.224	0.15
435.582	0.16
435.94	0.16
436.297	0.16
436.655	0.15
437.012	0.15
437.37	0.15
437.727	0.15
438.085	0.15
438.442	0.16
438.8	0.15
439.157	0.16
439.514	0.15
439.872	0.15
440.229	0.15
440.586	0.16
440.943	0.15
441.3	0.15
441.657	0.15
442.014	0.14
442.371	0.15
442.728	0.15
443.085	0.16
443.442	0.15
443.799	0.16
444.156	0.16
444.513	0.16
444.869	0.15
445.226	0.16
445.583	0.17
445.939	0.16
446.296	0.15
446.652	0.16
447.009	0.16
447.365	0.16
447.722	0.16
448.078	0.16
448.434	0.16
448.791	0.16
449.147	0.17
449.503	0.16
449.859	0.16
450.215	0.16
450.571	0.17
450.928	0.16
451.284	0.17
451.64	0.16
451.995	0.17
452.351	0.16
452.707	0.16
453.063	0.17
453.419	0.15
453.775	0.16
454.13	0.17
454.486	0.16
454.842	0.15
455.197	0.16
455.553	0.15
455.908	0.15
456.264	0.14
456.619	0.15
456.975	0.16
457.33	0.16
457.685	0.14
458.04	0.15
458.396	0.15
458.751	0.14
459.106	0.14
459.461	0.15
459.816	0.13
460.171	0.14
460.526	0.14
460.881	0.11
461.236	0.12
461.591	0.13
461.946	0.12
462.301	0.12
462.655	0.12
463.01	0.12
463.365	0.11
463.719	0.11
464.074	0.1
464.428	0.1
464.783	0.09
465.137	0.1
465.492	0.09
465.846	0.09
466.201	0.1
466.555	0.09
466.909	0.1
467.263	0.11
467.618	0.11
467.972	0.12
468.326	0.11
468.68	0.1
469.034	0.1
469.388	0.09
469.742	0.1
470.096	0.11
470.45	0.11
470.804	0.11
471.157	0.11
471.511	0.12
471.865	0.11
472.218	0.12
472.572	0.14
472.926	0.13
473.279	0.14
473.633	0.15
473.986	0.17
474.34	0.17
474.693	0.18
475.046	0.19
475.4	0.2
475.753	0.21
476.106	0.22
476.459	0.23
476.812	0.24
477.165	0.25
477.519	0.26
477.872	0.26
478.224	0.27
478.577	0.28
478.93	0.29
479.283	0.29
479.636	0.29
479.989	0.3
480.341	0.32
480.694	0.33
481.047	0.33
481.399	0.34
481.752	0.35
482.104	0.35
482.457	0.36
482.809	0.37
483.162	0.38
483.514	0.38
483.866	0.39
484.219	0.38
484.571	0.39
484.923	0.39
485.275	0.41
485.627	0.41
485.979	0.41
486.331	0.42
486.683	0.43
487.035	0.43
487.387	0.44
487.739	0.45
488.091	0.46
488.443	0.46
488.794	0.46
489.146	0.46
489.498	0.47
489.849	0.47
490.201	0.47
490.552	0.48
490.904	0.48
491.255	0.49
491.607	0.49
491.958	0.5
492.309	0.51
492.661	0.51
493.012	0.52
493.363	0.52
493.714	0.52
494.065	0.52
494.416	0.53
494.767	0.54
495.118	0.55
495.469	0.55
495.82	0.55
496.171	0.56
496.522	0.56
496.872	0.57
497.223	0.57
497.574	0.57
497.924	0.58
498.275	0.59
498.626	0.59
498.976	0.6
499.327	0.61
499.677	0.61
500.027	0.61
500.378	0.62
500.728	0.62
501.078	0.62
501.428	0.63
501.779	0.64
502.129	0.64
502.479	0.64
502.829	0.65
503.179	0.65
503.529	0.66
503.879	0.67
504.229	0.66
504.578	0.67
504.928	0.67
505.278	0.67
505.628	0.68
505.977	0.69
506.327	0.69
506.676	0.7
507.026	0.7
507.375	0.71
507.725	0.7
508.074	0.72
508.424	0.72
508.773	0.72
509.122	0.73
509.471	0.73
509.82	0.74
510.17	0.73
510.519	0.74
510.868	0.75
511.217	0.75
511.566	0.75
511.915	0.76
512.263	0.77
512.612	0.77
512.961	0.77
513.31	0.78
513.659	0.77
514.007	0.78
514.356	0.78
514.704	0.79
515.053	0.79
515.401	0.78
515.75	0.81
516.098	0.8
516.447	0.81
516.795	0.81
517.143	0.81
517.491	0.82
517.839	0.81
518.188	0.82
518.536	0.82
518.884	0.83
519.232	0.84
519.58	0.83
519.928	0.84
520.275	0.85
520.623	0.85
520.971	0.85
521.319	0.86
521.666	0.86
522.014	0.86
522.362	0.86
522.709	0.87
523.057	0.87
523.404	0.86
523.752	0.87
524.099	0.88
524.446	0.88
524.794	0.88
525.141	0.88
525.488	0.89
525.835	0.9
526.182	0.89
526.529	0.89
526.876	0.9
527.223	0.9
527.57	0.9
527.917	0.9
528.264	0.9
528.611	0.9
528.958	0.91
529.304	0.91
529.651	0.91
529.998	0.92
530.344	0.92
530.691	0.92
531.037	0.92
531.384	0.93
531.73	0.93
532.076	0.93
532.423	0.93
532.769	0.93
533.115	0.93
533.461	0.94
533.807	0.95
534.154	0.95
534.5	0.94
534.846	0.95
535.192	0.95
535.537	0.95
535.883	0.95
536.229	0.96
536.575	0.96
536.921	0.97
537.266	0.97
537.612	0.96
537.957	0.96
538.303	0.96
538.649	0.95
538.994	0.96
539.339	0.96
539.685	0.97
540.03	0.97
540.375	0.97
540.721	0.98
541.066	0.98
541.411	0.97
541.756	0.98
542.101	0.98
542.446	0.97
542.791	0.98
543.136	0.98
543.481	0.98
543.825	0.98
544.17	0.98
544.515	0.98
544.86	0.98
545.204	0.98
545.549	0.99
545.893	0.99
546.238	0.98
546.582	0.99
546.927	0.99
547.271	0.99
547.615	0.99
547.96	0.99
548.304	0.99
548.648	0.99
548.992	0.99
549.336	0.99
549.68	0.99
550.024	1
550.368	1
550.712	0.99
551.056	0.99
551.4	1
551.743	0.99
552.087	0.99
552.431	1
552.774	1
553.118	0.99
553.462	1
553.805	0.99
554.148	1
554.492	0.99
554.835	0.99
555.178	0.99
555.522	0.98
555.865	0.99
556.208	0.99
556.551	0.99
556.894	0.99
557.237	0.99
557.58	0.99
557.923	0.99
558.266	0.99
558.609	0.99
558.952	0.98
559.294	0.99
559.637	0.98
559.98	0.98
560.322	0.98
560.665	0.98
561.007	0.98
561.35	0.98
561.692	0.98
562.034	0.97
562.377	0.97
562.719	0.98
563.061	0.97
563.403	0.97
563.745	0.97
564.088	0.97
564.43	0.97
564.772	0.97
565.113	0.97
565.455	0.96
565.797	0.96
566.139	0.96
566.481	0.96
566.822	0.97
567.164	0.96
567.506	0.95
567.847	0.96
568.189	0.96
568.53	0.95
568.872	0.96
569.213	0.94
569.554	0.94
569.895	0.94
570.237	0.94
570.578	0.94
570.919	0.94
571.26	0.94
571.601	0.93
571.942	0.93
572.283	0.93
572.624	0.94
572.965	0.92
573.306	0.92
573.646	0.92
573.987	0.92
574.328	0.92
574.668	0.92
575.009	0.91
575.349	0.91
575.69	0.91
576.03	0.9
576.37	0.9
576.711	0.9
577.051	0.9
577.391	0.9
577.731	0.9
578.072	0.9
578.412	0.89
578.752	0.89
579.092	0.88
579.431	0.87
579.771	0.85
580.111	0.85
580.451	0.86
580.791	0.88
581.13	0.88
581.47	0.87
581.81	0.88
582.149	0.87
582.489	0.87
582.828	0.86
583.167	0.82
583.507	0.79
583.846	0.79
584.185	0.83
584.525	0.85
584.864	0.86
585.203	0.86
585.542	0.87
585.881	0.86
586.22	0.85
586.559	0.85
586.898	0.83
587.236	0.83
587.575	0.84
587.914	0.85
588.252	0.85
588.591	0.85
588.93	0.85
589.268	0.84
589.607	0.84
589.945	0.84
590.283	0.84
590.622	0.85
590.96	0.85
591.298	0.84
591.636	0.85
591.974	0.85
592.313	0.85
592.651	0.85
592.989	0.85
593.326	0.85
593.664	0.84
594.002	0.84
594.34	0.84
594.678	0.83
595.015	0.83
595.353	0.83
595.691	0.84
596.028	0.84
596.366	0.84
596.703	0.84
597.04	0.84
597.378	0.84
597.715	0.84
598.052	0.84
598.389	0.84
598.726	0.84
599.064	0.84
599.401	0.84
599.738	0.84
600.074	0.83
600.411	0.82
600.748	0.82
601.085	0.82
601.422	0.82
601.758	0.82
602.095	0.82
602.432	0.82
602.768	0.82
603.105	0.82
603.441	0.82
603.777	0.82
604.114	0.82
604.45	0.82
604.786	0.81
605.122	0.81
605.459	0.8
605.795	0.81
606.131	0.81
606.467	0.81
606.803	0.8
607.139	0.81
607.474	0.8
607.81	0.79
608.146	0.8
608.482	0.8
608.817	0.79
609.153	0.79
609.488	0.78
609.824	0.78
610.159	0.78
610.495	0.78
610.83	0.78
611.165	0.78
611.5	0.77
611.836	0.77
612.171	0.76
612.506	0.76
612.841	0.76
613.176	0.76
613.511	0.76
613.845	0.75
614.18	0.75
614.515	0.75
614.85	0.74
615.184	0.74
615.519	0.74
615.854	0.74
616.188	0.74
616.523	0.73
616.857	0.73
617.191	0.73
617.526	0.73
617.86	0.73
618.194	0.73
618.528	0.73
618.862	0.72
619.196	0.72
619.53	0.72
619.864	0.71
620.198	0.71
620.532	0.71
620.866	0.7
621.2	0.7
621.533	0.7
621.867	0.7
622.201	0.69
622.534	0.69
622.868	0.69
623.201	0.68
623.534	0.68
623.868	0.68
624.201	0.68
624.534	0.67
624.868	0.67
625.201	0.66
625.534	0.67
625.867	0.66
626.2	0.66
626.533	0.65
626.865	0.65
627.198	0.65
627.531	0.65
627.864	0.64
628.196	0.64
628.529	0.63
628.862	0.64
629.194	0.64
629.527	0.63
629.859	0.63
630.191	0.62
630.524	0.62
630.856	0.61
631.188	0.61
631.52	0.61
631.852	0.6
632.184	0.59
632.516	0.59
632.848	0.59
633.18	0.59
633.512	0.59
633.844	0.58
634.175	0.58
634.507	0.57
634.839	0.57
635.17	0.57
635.502	0.56
635.833	0.56
636.165	0.56
636.496	0.55
636.827	0.55
637.159	0.54
637.49	0.54
637.821	0.54
638.152	0.54
638.483	0.53
638.814	0.53
639.145	0.53
639.476	0.52
639.807	0.52
640.137	0.51
640.468	0.51
640.799	0.5
641.129	0.5
641.46	0.5
641.791	0.5
642.121	0.5
642.451	0.5
642.782	0.49
643.112	0.48
643.442	0.49
643.773	0.48
644.103	0.47
644.433	0.48
644.763	0.47
645.093	0.47
645.423	0.47
645.753	0.47
646.082	0.46
646.412	0.46
646.742	0.46
647.072	0.46
647.401	0.45
647.731	0.45
648.06	0.45
648.39	0.45
648.719	0.45
649.048	0.45
649.378	0.45
649.707	0.44
650.036	0.43
650.365	0.44
650.694	0.43
651.023	0.43
651.352	0.43
651.681	0.43
652.01	0.43
652.339	0.43
652.668	0.43
652.996	0.42
653.325	0.42
653.654	0.42
653.982	0.41
654.311	0.42
654.639	0.41
654.967	0.42
655.296	0.42
655.624	0.41
655.952	0.41
656.28	0.41
656.609	0.41
656.937	0.4
657.265	0.38
657.593	0.23
657.92	0.14
658.248	0.11
658.576	0.18
658.904	0.31
659.231	0.39
659.559	0.4
659.887	0.4
660.214	0.39
660.542	0.39
660.869	0.39
661.196	0.38
661.524	0.39
661.851	0.38
662.178	0.38
662.505	0.38
662.832	0.38
663.159	0.38
663.486	0.38
663.813	0.37
664.14	0.37
664.467	0.37
664.794	0.37
665.12	0.37
665.447	0.37
665.774	0.37
666.1	0.36
666.427	0.36
666.753	0.35
667.079	0.35
667.406	0.35
667.732	0.35
668.058	0.35
668.384	0.35
668.71	0.35
669.036	0.35
669.362	0.35
669.688	0.34
670.014	0.34
670.34	0.34
670.666	0.33
670.991	0.33
671.317	0.33
671.643	0.33
671.968	0.32
672.294	0.32
672.619	0.32
672.945	0.31
673.27	0.31
673.595	0.31
673.92	0.3
674.246	0.31
674.571	0.3
674.896	0.3
675.221	0.3
675.546	0.3
675.87	0.3
676.195	0.29
676.52	0.29
676.845	0.29
677.169	0.29
677.494	0.29
677.819	0.28
678.143	0.28
678.468	0.28
678.792	0.27
679.116	0.28
679.44	0.27
679.765	0.27
680.089	0.26
680.413	0.26
680.737	0.26
681.061	0.25
681.385	0.25
681.709	0.25
682.033	0.25
682.356	0.24
682.68	0.24
683.004	0.24
683.327	0.24
683.651	0.23
683.974	0.23
684.298	0.23
684.621	0.23
684.944	0.22
685.268	0.22
685.591	0.22
685.914	0.22
686.237	0.21
686.56	0.21
686.883	0.21
687.206	0.2
687.529	0.2
687.852	0.2
688.175	0.2
688.497	0.2
688.82	0.2
689.142	0.19
689.465	0.19
689.787	0.19
690.11	0.19
690.432	0.19
690.755	0.18
691.077	0.18
691.399	0.18
691.721	0.17
692.043	0.17
692.365	0.17
692.687	0.17
693.009	0.16
693.331	0.16
693.653	0.16
693.974	0.16
694.296	0.16
694.618	0.16
694.939	0.15
695.261	0.15
695.582	0.15
695.904	0.15
696.225	0.15
696.546	0.15
696.868	0.15
697.189	0.15
697.51	0.14
697.831	0.14
698.152	0.14
698.473	0.14
698.794	0.13
699.114	0.13
699.435	0.12
699.756	0.13
700.077	0.13
700.397	0.13
700.718	0.12
701.038	0.13
701.359	0.13
701.679	0.13
701.999	0.13
702.32	0.12
702.64	0.12
702.96	0.12
703.28	0.12
703.6	0.12
703.92	0.12
704.24	0.12
704.56	0.11
704.879	0.11
705.199	0.12
705.519	0.12
705.838	0.11
706.158	0.12
706.478	0.12
706.797	0.12
707.116	0.12
707.436	0.12
707.755	0.11
708.074	0.11
708.393	0.11
708.712	0.1
709.031	0.09
709.35	0.09
709.669	0.1
709.988	0.1
710.307	0.1
710.626	0.1
710.944	0.11
711.263	0.11
711.582	0.11
711.9	0.11
712.219	0.11
712.537	0.1
712.855	0.1
713.174	0.11
713.492	0.11
713.81	0.11
714.128	0.11
714.446	0.11
714.764	0.1
715.082	0.09
715.4	0.1
715.718	0.1
716.035	0.1
716.353	0.11
716.671	0.1
716.988	0.11
717.306	0.1
717.623	0.11
717.941	0.11
718.258	0.11
718.575	0.12
718.893	0.11
719.21	0.11
719.527	0.11
719.844	0.11
720.161	0.11
720.478	0.11
720.795	0.11
721.112	0.11
721.428	0.11
721.745	0.11
722.062	0.12
722.378	0.12
722.695	0.12
723.011	0.12
723.328	0.12
723.644	0.12
723.96	0.12
724.276	0.12
724.593	0.12
724.909	0.12
725.225	0.12
725.541	0.12
725.857	0.12
726.173	0.12
726.488	0.12
726.804	0.11
727.12	0.11
727.435	0.11
727.751	0.11
728.067	0.11
728.382	0.11
728.697	0.11
729.013	0.12
729.328	0.11
729.643	0.11
729.958	0.11
730.273	0.11
730.588	0.11
730.903	0.11
731.218	0.11
731.533	0.11
731.848	0.11
732.163	0.11
732.477	0.11
732.792	0.11
733.107	0.1
733.421	0.11
733.736	0.11
734.05	0.11
734.364	0.1
734.678	0.1
734.993	0.1
735.307	0.11
735.621	0.1
735.935	0.1
736.249	0.1
736.563	0.1
736.877	0.1
737.19	0.11
737.504	0.11
737.818	0.1
738.131	0.1
738.445	0.11
738.758	0.11
739.072	0.11
739.385	0.11
739.698	0.11
740.012	0.11
740.325	0.11
740.638	0.1
740.951	0.1
741.264	0.1
741.577	0.1
741.89	0.1
742.203	0.1
742.515	0.1
742.828	0.1
743.141	0.1
743.453	0.1
743.766	0.1
744.078	0.09
744.391	0.09
744.703	0.09
745.015	0.09
745.327	0.09
745.639	0.09
745.952	0.09
746.264	0.09
746.575	0.09
746.887	0.09
747.199	0.09
747.511	0.09
747.823	0.09
748.134	0.09
748.446	0.08
748.757	0.08
749.069	0.08
749.38	0.08
749.692	0.08
750.003	0.07
750.314	0.07
750.625	0.07
750.936	0.07
751.248	0.07
751.559	0.08
751.869	0.08
752.18	0.08
752.491	0.07
752.802	0.07
753.112	0.07
753.423	0.07
753.734	0.07
754.044	0.07
754.355	0.07
754.665	0.06
754.975	0.06
755.285	0.06
755.596	0.06
755.906	0.06
756.216	0.06
756.526	0.06
756.836	0.06
757.146	0.06
757.455	0.06
757.765	0.06
758.075	0.06
758.385	0.05
758.694	0.06
759.004	0.05
759.313	0.05
759.622	0.05
759.932	0.06
760.241	0.06
760.55	0.06
760.859	0.06
761.168	0.06
761.477	0.06
761.786	0.06
762.095	0.06
762.404	0.06
762.713	0.06
763.021	0.06
763.33	0.06
763.639	0.06
763.947	0.06
764.256	0.06
764.564	0.06
764.872	0.06
765.181	0.06
765.489	0.05
765.797	0.05
766.105	0.05
766.413	0.05
766.721	0.05
767.029	0.05
767.337	0.05
767.644	0.06
767.952	0.06
768.26	0.06
768.567	0.06
768.875	0.06
769.182	0.05
769.49	0.05
769.797	0.06
770.104	0.05
770.411	0.05
770.718	0.05
771.026	0.05
771.333	0.05
771.639	0.05
771.946	0.05
772.253	0.05
772.56	0.05
772.867	0.05
773.173	0.05
773.48	0.05
773.786	0.05
774.093	0.05
774.399	0.05
774.705	0.05
775.012	0.06
775.318	0.06
775.624	0.06
775.93	0.06
776.236	0.06
776.542	0.06
776.848	0.06
777.154	0.06
777.459	0.06
777.765	0.06
778.071	0.06
778.376	0.06
778.682	0.06
778.987	0.06
779.292	0.06
779.598	0.05
779.903	0.05
780.208	0.05
780.513	0.05
780.818	0.05
781.123	0.05
781.428	0.06
781.733	0.06
782.038	0.05
782.343	0.05
782.647	0.05
782.952	0.05
783.256	0.05
783.561	0.05
783.865	0.05
784.17	0.05
784.474	0.05
784.778	0.05
785.082	0.05
785.386	0.05
785.69	0.05
785.994	0.05
786.298	0.05
786.602	0.06
786.906	0.05
787.209	0.06
787.513	0.06
787.817	0.06
788.12	0.06
788.424	0.07
788.727	0.07
789.03	0.07
789.333	0.06
789.637	0.07
789.94	0.06
790.243	0.07
790.546	0.07
790.849	0.07
791.152	0.07
791.454	0.07
791.757	0.07
792.06	0.07
792.362	0.07
792.665	0.07
792.967	0.06
793.27	0.06
793.572	0.07
793.874	0.07
794.177	0.07
794.479	0.07
794.781	0.07
795.083	0.07
795.385	0.07
795.687	0.07
795.989	0.07
796.29	0.08
796.592	0.08
796.894	0.08
797.195	0.08
797.497	0.07
797.798	0.08
798.1	0.07
798.401	0.08
798.702	0.08
799.003	0.07
799.304	0.07
799.605	0.07
799.906	0.07
800.207	0.07
800.508	0.07
800.809	0.08
801.11	0.08
801.41	0.08
801.711	0.08
802.011	0.08
802.312	0.08
802.612	0.08
802.913	0.08
803.213	0.08
803.513	0.08
803.813	0.08
804.113	0.08
804.413	0.08
804.713	0.08
805.013	0.09
805.313	0.09
805.613	0.08
805.912	0.09
806.212	0.08
806.511	0.08
806.811	0.08
807.11	0.08
807.41	0.08
807.709	0.09
808.008	0.09
808.307	0.09
808.606	0.09
808.905	0.09
809.204	0.08
809.503	0.08
809.802	0.09
810.101	0.09
810.399	0.09
810.698	0.09
810.997	0.09
811.295	0.09
811.593	0.09
811.892	0.1
812.19	0.09
812.488	0.09
812.786	0.09
813.084	0.09
813.383	0.1
813.68	0.1
813.978	0.1
814.276	0.1
814.574	0.1
814.872	0.1
815.169	0.1
815.467	0.09
815.764	0.09
816.062	0.1
816.359	0.09
816.656	0.09
816.954	0.09
817.251	0.1
817.548	0.1
817.845	0.1
818.142	0.11
818.439	0.11
818.735	0.11
819.032	0.11
819.329	0.11
819.626	0.11
819.922	0.11
820.219	0.11
820.515	0.12
820.811	0.11
821.108	0.11
821.404	0.11
821.7	0.11
821.996	0.11
822.292	0.11
822.588	0.11
822.884	0.12
823.18	0.12
823.475	0.12
823.771	0.13
824.067	0.12
824.362	0.12
824.658	0.13
824.953	0.13
825.249	0.12
825.544	0.12
825.839	0.12
826.134	0.12
826.429	0.12
826.724	0.11
827.019	0.12
827.314	0.12
827.609	0.13
827.904	0.12
828.198	0.12
828.493	0.13
828.787	0.12
829.082	0.13
829.376	0.13
829.671	0.14
829.965	0.14
830.259	0.14
830.553	0.13
830.847	0.13
831.141	0.13
831.435	0.14
831.729	0.14
832.023	0.14
832.317	0.14
832.61	0.13
832.904	0.14
833.197	0.14
833.491	0.13
833.784	0.14
834.077	0.14
834.371	0.14
834.664	0.14
834.957	0.14
835.25	0.14
835.543	0.14
835.836	0.14
836.129	0.14
836.421	0.14
836.714	0.14
837.007	0.14
837.299	0.14
837.592	0.14
837.884	0.14
838.177	0.14
838.469	0.14
838.761	0.14
839.053	0.15
839.345	0.15
839.637	0.15
839.929	0.15
840.221	0.14
840.513	0.15
840.805	0.15
841.096	0.15
841.388	0.16
841.68	0.15
841.971	0.15
842.262	0.15
842.554	0.16
842.845	0.16
843.136	0.15
843.427	0.16
843.718	0.15
844.009	0.15
844.3	0.15
844.591	0.15
844.882	0.16
845.173	0.16
845.463	0.15
845.754	0.16
846.044	0.15
846.335	0.16
846.625	0.17
846.915	0.15
847.206	0.15
847.496	0.17
847.786	0.16
848.076	0.15
848.366	0.16
848.656	0.15
848.945	0.15
849.235	0.15
849.525	0.15
849.814	0.15
850.104	0.15
850.393	0.17
850.683	0.18
850.972	0.17
851.261	0.16
851.551	0.17
851.84	0.19
852.129	0.17
852.418	0.16
852.707	0.19
852.995	0.16
853.284	0.17
853.573	0.16
853.862	0.17
854.15	0.18
854.439	0.18
854.727	0.15
855.015	0.18
855.304	0.19
855.592	0.17
855.88	0.18
856.168	0.17
856.456	0.18
856.744	0.17
857.032	0.16
857.32	0.16
857.607	0.17
857.895	0.17
858.183	0.18
858.47	0.16
858.757	0.18
859.045	0.18
859.332	0.18
859.619	0.18
859.907	0.17
860.194	0.17
860.481	0.19
860.768	0.18
861.054	0.18
861.341	0.17
861.628	0.2
861.915	0.17
862.201	0.19
862.488	0.18
862.774	0.18
863.061	0.19
863.347	0.2
863.633	0.2
863.919	0.19
864.205	0.21
864.491	0.18
864.777	0.22
865.063	0.18
865.349	0.19
865.635	0.19
865.92	0.19
866.206	0.19
866.492	0.19
866.777	0.22
867.062	0.18
867.348	0.18
867.633	0.18
867.918	0.23
868.203	0.16
868.488	0.19
868.773	0.2
869.058	0.22
869.343	0.15
869.628	0.22
869.912	0.21
870.197	0.24
870.482	0.17
870.766	0.3
871.05	0.18
871.335	0.21
871.619	0.2
871.903	0.21
872.187	0.16
872.471	0.25
872.755	0.18
873.039	0.21
873.323	0.18
873.607	0.17
873.89	0.14
874.174	0.19
874.458	0.25
874.741	0.19
875.024	0.22
875.308	0.22
875.591	0.24
875.874	0.21
876.157	0.1
876.44	0.21
876.723	0.15
877.006	0.13
877.289	0.14
877.572	0.19
877.854	0.18
878.137	0.18
878.42	0.15
878.702	0.21
878.984	0.34
879.267	0.28
879.549	0.19
879.831	0.14
880.113	0.11
880.395	0.26
880.677	0.06
880.959	0.15
