Data from Rubpy_BV_1800_EDTA_Buffered_Absorbance_15-10-53-895.txt Node
Date: Wed Jul 01 15:10:53 BST 2026
User: fpm-admin
Spectrometer: OFX00224
Trigger mode: 0
Integration Time (sec): 7.000000E-2
Scans to average: 3
Nonlinearity correction enabled: false
Boxcar width: 0
Storing dark spectrum: false
XAxis mode: Wavelengths
Number of Pixels in Spectrum: 2136
>>>>>Begin Spectral Data<<<<<
154.91	-0.39
155.289	0.14
155.669	-0.85
156.048	-0
156.428	-0
156.807	-0
157.186	0.4
157.566	-0.75
157.945	-0
158.325	-0
158.704	-0
159.083	-0
159.462	-0
159.842	-0
160.221	-0
160.6	-0.28
160.979	0.48
161.359	0.19
161.738	-0.17
162.117	-0.08
162.496	-0.15
162.875	-0
163.254	0.36
163.633	-0
164.012	0.3
164.391	-0.78
164.77	-0
165.149	-0
165.528	-0
165.907	-0
166.286	-0.06
166.665	0.38
167.044	-0
167.423	0.04
167.802	0.3
168.181	0.1
168.559	-0.52
168.938	-0.75
169.317	-0
169.696	-0
170.074	-0.36
170.453	0.72
170.832	-1.02
171.21	-0
171.589	-0
171.968	1.23
172.346	-0
172.725	-0
173.103	0.12
173.482	0.06
173.861	-0
174.239	0.26
174.617	-0
174.996	0.59
175.374	-0
175.753	-0
176.131	-0
176.51	-0.01
176.888	-0
177.266	-0
177.645	0.03
178.023	0.77
178.401	-0.12
178.779	0.17
179.158	-0.9
179.536	-0.73
179.914	-0.3
180.292	-0
180.67	-0.53
181.048	-0
181.427	-0
181.805	-0.73
182.183	-1.32
182.561	-0
182.939	-0.46
183.317	-0
183.695	-0
184.073	-0.35
184.451	-0
184.829	-0
185.206	-0
185.584	0.68
185.962	-0.48
186.34	-0
186.718	-0.32
187.096	-0
187.473	0.19
187.851	-0
188.229	-0
188.607	0.3
188.984	0.32
189.362	0.33
189.74	0.39
190.117	0.24
190.495	0.25
190.872	0.37
191.25	0.34
191.627	0.35
192.005	0.2
192.382	0.25
192.76	0.45
193.137	0.34
193.515	0.31
193.892	0.44
194.269	0.37
194.647	0.31
195.024	0.32
195.401	0.19
195.779	0.33
196.156	0.36
196.533	0.33
196.91	0.28
197.288	0.23
197.665	0.32
198.042	0.44
198.419	0.21
198.796	0.19
199.173	0.27
199.55	0.29
199.927	0.26
200.304	0.35
200.681	0.38
201.058	0.18
201.435	0.29
201.812	0.28
202.189	0.44
202.566	0.48
202.943	0.24
203.32	0.44
203.697	0.33
204.073	0.6
204.45	0.26
204.827	0.32
205.204	0.39
205.58	0.39
205.957	0.25
206.334	0.24
206.71	0.29
207.087	0.65
207.464	0.31
207.84	0.29
208.217	0.4
208.593	0.41
208.97	0.34
209.346	0.36
209.723	0.35
210.099	0.46
210.476	0.29
210.852	0.45
211.228	0.34
211.605	0.42
211.981	0.33
212.357	0.37
212.733	0.38
213.11	0.33
213.486	0.24
213.862	0.45
214.238	0.52
214.614	0.43
214.991	0.5
215.367	0.41
215.743	0.3
216.119	0.47
216.495	0.37
216.871	0.27
217.247	0.18
217.623	0.36
217.999	0.31
218.375	0.33
218.751	0.35
219.127	0.33
219.502	0.27
219.878	0.39
220.254	0.43
220.63	0.38
221.006	0.41
221.381	0.34
221.757	0.35
222.133	0.31
222.508	0.59
222.884	0.35
223.26	0.43
223.635	0.49
224.011	0.57
224.386	0.3
224.762	0.35
225.137	0.41
225.513	0.3
225.888	0.45
226.264	0.24
226.639	0.35
227.014	0.24
227.39	0.38
227.765	0.29
228.14	0.45
228.516	0.59
228.891	0.37
229.266	0.35
229.641	0.37
230.017	0.32
230.392	0.35
230.767	0.33
231.142	0.25
231.517	0.23
231.892	0.38
232.267	0.37
232.642	0.36
233.017	0.36
233.392	0.39
233.767	0.51
234.142	0.31
234.517	0.39
234.892	0.27
235.267	0.27
235.641	0.37
236.016	0.23
236.391	0.41
236.766	0.42
237.14	0.44
237.515	0.36
237.89	0.19
238.264	0.4
238.639	0.23
239.014	0.4
239.388	0.34
239.763	0.39
240.137	0.38
240.512	0.26
240.886	0.35
241.261	0.33
241.635	0.15
242.009	0.38
242.384	0.43
242.758	0.36
243.132	0.25
243.507	0.36
243.881	0.37
244.255	0.31
244.629	0.43
245.004	0.39
245.378	0.36
245.752	0.31
246.126	0.3
246.5	0.6
246.874	0.26
247.248	0.47
247.622	0.47
247.996	0.42
248.37	0.27
248.744	0.5
249.118	0.33
249.492	0.23
249.866	0.32
250.24	0.41
250.613	0.53
250.987	0.29
251.361	0.51
251.735	0.32
252.108	0.28
252.482	0.33
252.856	0.42
253.229	0.3
253.603	0.24
253.977	0.38
254.35	0.29
254.724	0.32
255.097	0.38
255.471	0.34
255.844	0.33
256.218	0.39
256.591	0.3
256.964	0.38
257.338	0.39
257.711	0.41
258.084	0.27
258.458	0.35
258.831	0.49
259.204	0.47
259.577	0.45
259.95	0.44
260.323	0.31
260.697	0.43
261.07	0.31
261.443	0.4
261.816	0.31
262.189	0.44
262.562	0.39
262.935	0.45
263.308	0.34
263.68	0.42
264.053	0.27
264.426	0.37
264.799	0.46
265.172	0.39
265.545	0.28
265.917	0.28
266.29	0.34
266.663	0.43
267.035	0.27
267.408	0.32
267.781	0.35
268.153	0.41
268.526	0.33
268.898	0.36
269.271	0.4
269.643	0.39
270.016	0.31
270.388	0.5
270.76	0.38
271.133	0.37
271.505	0.32
271.877	0.47
272.25	0.49
272.622	0.46
272.994	0.56
273.366	0.33
273.739	0.37
274.111	0.34
274.483	0.4
274.855	0.39
275.227	0.31
275.599	0.41
275.971	0.36
276.343	0.35
276.715	0.4
277.087	0.39
277.459	0.31
277.831	0.27
278.203	0.43
278.574	0.32
278.946	0.36
279.318	0.43
279.69	0.41
280.061	0.33
280.433	0.42
280.805	0.36
281.176	0.23
281.548	0.34
281.92	0.32
282.291	0.27
282.663	0.49
283.034	0.28
283.406	0.38
283.777	0.36
284.148	0.33
284.52	0.36
284.891	0.32
285.262	0.34
285.634	0.41
286.005	0.3
286.376	0.32
286.747	0.43
287.119	0.35
287.49	0.35
287.861	0.36
288.232	0.37
288.603	0.38
288.974	0.34
289.345	0.33
289.716	0.36
290.087	0.34
290.458	0.45
290.829	0.37
291.2	0.34
291.571	0.42
291.941	0.42
292.312	0.48
292.683	0.37
293.054	0.37
293.424	0.42
293.795	0.39
294.166	0.37
294.536	0.39
294.907	0.41
295.277	0.41
295.648	0.41
296.018	0.38
296.389	0.41
296.759	0.45
297.13	0.34
297.5	0.38
297.871	0.44
298.241	0.37
298.611	0.4
298.981	0.43
299.352	0.38
299.722	0.47
300.092	0.4
300.462	0.44
300.832	0.39
301.202	0.48
301.573	0.5
301.943	0.4
302.313	0.39
302.683	0.41
303.053	0.31
303.422	0.42
303.792	0.36
304.162	0.35
304.532	0.33
304.902	0.34
305.272	0.41
305.641	0.32
306.011	0.29
306.381	0.3
306.75	0.37
307.12	0.28
307.49	0.33
307.859	0.34
308.229	0.29
308.598	0.34
308.968	0.28
309.337	0.27
309.707	0.35
310.076	0.32
310.445	0.29
310.815	0.28
311.184	0.27
311.553	0.29
311.923	0.27
312.292	0.28
312.661	0.29
313.03	0.28
313.399	0.23
313.768	0.3
314.137	0.29
314.506	0.28
314.875	0.27
315.244	0.29
315.613	0.27
315.982	0.3
316.351	0.31
316.72	0.29
317.089	0.3
317.458	0.3
317.826	0.31
318.195	0.31
318.564	0.32
318.933	0.29
319.301	0.33
319.67	0.33
320.038	0.33
320.407	0.35
320.775	0.33
321.144	0.34
321.512	0.34
321.881	0.36
322.249	0.34
322.618	0.35
322.986	0.38
323.354	0.37
323.723	0.37
324.091	0.37
324.459	0.38
324.827	0.38
325.195	0.4
325.564	0.4
325.932	0.4
326.3	0.42
326.668	0.42
327.036	0.42
327.404	0.44
327.772	0.44
328.14	0.44
328.508	0.45
328.875	0.46
329.243	0.46
329.611	0.47
329.979	0.48
330.346	0.48
330.714	0.5
331.082	0.5
331.449	0.51
331.817	0.51
332.185	0.53
332.552	0.54
332.92	0.55
333.287	0.56
333.655	0.56
334.022	0.58
334.389	0.59
334.757	0.59
335.124	0.6
335.491	0.62
335.859	0.63
336.226	0.63
336.593	0.65
336.96	0.67
337.327	0.68
337.695	0.69
338.062	0.7
338.429	0.7
338.796	0.73
339.163	0.74
339.53	0.75
339.897	0.75
340.263	0.78
340.63	0.8
340.997	0.81
341.364	0.82
341.731	0.83
342.097	0.84
342.464	0.86
342.831	0.87
343.197	0.89
343.564	0.9
343.931	0.91
344.297	0.92
344.664	0.94
345.03	0.96
345.396	0.97
345.763	0.99
346.129	1
346.496	1
346.862	1.03
347.228	1.03
347.594	1.05
347.961	1.07
348.327	1.08
348.693	1.09
349.059	1.11
349.425	1.12
349.791	1.12
350.157	1.15
350.523	1.16
350.889	1.18
351.255	1.18
351.621	1.19
351.987	1.2
352.353	1.22
352.719	1.25
353.084	1.24
353.45	1.25
353.816	1.28
354.181	1.28
354.547	1.31
354.913	1.32
355.278	1.33
355.644	1.34
356.009	1.35
356.375	1.38
356.74	1.4
357.106	1.42
357.471	1.43
357.836	1.46
358.202	1.46
358.567	1.48
358.932	1.48
359.297	1.51
359.663	1.52
360.028	1.56
360.393	1.56
360.758	1.57
361.123	1.59
361.488	1.66
361.853	1.62
362.218	1.65
362.583	1.67
362.948	1.67
363.312	1.73
363.677	1.73
364.042	1.74
364.407	1.72
364.772	1.77
365.136	1.76
365.501	1.8
365.865	1.79
366.23	1.78
366.595	1.8
366.959	1.83
367.324	1.82
367.688	1.85
368.052	1.83
368.417	1.88
368.781	1.92
369.145	1.88
369.51	1.85
369.874	1.91
370.238	1.9
370.602	1.9
370.967	1.9
371.331	1.86
371.695	1.95
372.059	1.88
372.423	1.87
372.787	1.9
373.151	1.93
373.515	1.89
373.878	1.87
374.242	1.95
374.606	1.91
374.97	1.94
375.334	1.87
375.697	1.84
376.061	1.82
376.425	1.82
376.788	1.82
377.152	1.81
377.515	1.79
377.879	1.79
378.242	1.77
378.606	1.77
378.969	1.72
379.333	1.77
379.696	1.67
380.059	1.71
380.422	1.69
380.786	1.66
381.149	1.65
381.512	1.63
381.875	1.57
382.238	1.59
382.601	1.57
382.964	1.58
383.327	1.56
383.69	1.53
384.053	1.51
384.416	1.48
384.779	1.48
385.142	1.46
385.504	1.44
385.867	1.45
386.23	1.44
386.593	1.42
386.955	1.43
387.318	1.41
387.68	1.4
388.043	1.39
388.405	1.39
388.768	1.38
389.13	1.39
389.493	1.38
389.855	1.36
390.217	1.34
390.58	1.33
390.942	1.32
391.304	1.31
391.666	1.28
392.028	1.28
392.391	1.26
392.753	1.24
393.115	1.23
393.477	1.21
393.839	1.2
394.201	1.17
394.563	1.18
394.924	1.17
395.286	1.17
395.648	1.16
396.01	1.17
396.371	1.19
396.733	1.19
397.095	1.21
397.456	1.23
397.818	1.24
398.18	1.27
398.541	1.3
398.903	1.33
399.264	1.36
399.625	1.37
399.987	1.41
400.348	1.42
400.709	1.44
401.071	1.45
401.432	1.45
401.793	1.46
402.154	1.44
402.515	1.43
402.876	1.39
403.238	1.36
403.599	1.32
403.96	1.29
404.32	1.25
404.681	1.21
405.042	1.17
405.403	1.12
405.764	1.07
406.125	1.02
406.485	0.96
406.846	0.92
407.207	0.87
407.567	0.83
407.928	0.79
408.288	0.75
408.649	0.72
409.009	0.68
409.37	0.64
409.73	0.61
410.091	0.57
410.451	0.54
410.811	0.51
411.171	0.5
411.532	0.46
411.892	0.45
412.252	0.43
412.612	0.4
412.972	0.39
413.332	0.37
413.692	0.36
414.052	0.34
414.412	0.33
414.772	0.32
415.132	0.31
415.492	0.3
415.851	0.29
416.211	0.28
416.571	0.28
416.931	0.27
417.29	0.26
417.65	0.25
418.009	0.24
418.369	0.24
418.728	0.24
419.088	0.23
419.447	0.22
419.807	0.22
420.166	0.21
420.525	0.21
420.884	0.21
421.244	0.2
421.603	0.2
421.962	0.19
422.321	0.2
422.68	0.19
423.039	0.19
423.398	0.18
423.757	0.18
424.116	0.19
424.475	0.18
424.834	0.18
425.193	0.17
425.551	0.18
425.91	0.17
426.269	0.17
426.628	0.15
426.986	0.17
427.345	0.17
427.703	0.16
428.062	0.16
428.42	0.16
428.779	0.16
429.137	0.16
429.496	0.15
429.854	0.15
430.212	0.15
430.57	0.17
430.929	0.15
431.287	0.15
431.645	0.16
432.003	0.15
432.361	0.15
432.719	0.15
433.077	0.15
433.435	0.15
433.793	0.15
434.151	0.15
434.509	0.16
434.866	0.14
435.224	0.15
435.582	0.15
435.94	0.15
436.297	0.15
436.655	0.14
437.012	0.15
437.37	0.16
437.727	0.14
438.085	0.14
438.442	0.15
438.8	0.14
439.157	0.15
439.514	0.15
439.872	0.15
440.229	0.15
440.586	0.14
440.943	0.15
441.3	0.15
441.657	0.15
442.014	0.15
442.371	0.14
442.728	0.15
443.085	0.16
443.442	0.14
443.799	0.14
444.156	0.15
444.513	0.16
444.869	0.15
445.226	0.15
445.583	0.15
445.939	0.16
446.296	0.16
446.652	0.15
447.009	0.15
447.365	0.15
447.722	0.15
448.078	0.16
448.434	0.16
448.791	0.16
449.147	0.16
449.503	0.16
449.859	0.16
450.215	0.15
450.571	0.15
450.928	0.15
451.284	0.16
451.64	0.16
451.995	0.16
452.351	0.15
452.707	0.15
453.063	0.16
453.419	0.16
453.775	0.15
454.13	0.15
454.486	0.16
454.842	0.15
455.197	0.15
455.553	0.14
455.908	0.15
456.264	0.15
456.619	0.15
456.975	0.15
457.33	0.15
457.685	0.14
458.04	0.14
458.396	0.14
458.751	0.14
459.106	0.13
459.461	0.13
459.816	0.12
460.171	0.13
460.526	0.13
460.881	0.11
461.236	0.11
461.591	0.12
461.946	0.12
462.301	0.12
462.655	0.1
463.01	0.11
463.365	0.1
463.719	0.1
464.074	0.1
464.428	0.09
464.783	0.08
465.137	0.09
465.492	0.09
465.846	0.09
466.201	0.09
466.555	0.1
466.909	0.09
467.263	0.1
467.618	0.1
467.972	0.11
468.326	0.1
468.68	0.1
469.034	0.1
469.388	0.09
469.742	0.1
470.096	0.11
470.45	0.11
470.804	0.11
471.157	0.11
471.511	0.11
471.865	0.11
472.218	0.11
472.572	0.13
472.926	0.13
473.279	0.13
473.633	0.15
473.986	0.16
474.34	0.16
474.693	0.17
475.046	0.18
475.4	0.19
475.753	0.2
476.106	0.21
476.459	0.22
476.812	0.22
477.165	0.24
477.519	0.24
477.872	0.25
478.224	0.25
478.577	0.26
478.93	0.27
479.283	0.27
479.636	0.28
479.989	0.3
480.341	0.3
480.694	0.31
481.047	0.31
481.399	0.32
481.752	0.34
482.104	0.34
482.457	0.34
482.809	0.35
483.162	0.36
483.514	0.36
483.866	0.37
484.219	0.37
484.571	0.37
484.923	0.37
485.275	0.39
485.627	0.39
485.979	0.39
486.331	0.4
486.683	0.41
487.035	0.42
487.387	0.42
487.739	0.43
488.091	0.44
488.443	0.44
488.794	0.45
489.146	0.44
489.498	0.45
489.849	0.46
490.201	0.46
490.552	0.47
490.904	0.47
491.255	0.48
491.607	0.48
491.958	0.48
492.309	0.48
492.661	0.49
493.012	0.5
493.363	0.51
493.714	0.5
494.065	0.51
494.416	0.52
494.767	0.52
495.118	0.53
495.469	0.53
495.82	0.54
496.171	0.54
496.522	0.54
496.872	0.55
497.223	0.56
497.574	0.55
497.924	0.56
498.275	0.57
498.626	0.57
498.976	0.58
499.327	0.58
499.677	0.58
500.027	0.59
500.378	0.59
500.728	0.6
501.078	0.6
501.428	0.61
501.779	0.61
502.129	0.62
502.479	0.62
502.829	0.63
503.179	0.63
503.529	0.63
503.879	0.64
504.229	0.64
504.578	0.65
504.928	0.65
505.278	0.65
505.628	0.66
505.977	0.66
506.327	0.67
506.676	0.68
507.026	0.68
507.375	0.68
507.725	0.68
508.074	0.69
508.424	0.69
508.773	0.69
509.122	0.7
509.471	0.71
509.82	0.71
510.17	0.71
510.519	0.71
510.868	0.71
511.217	0.72
511.566	0.73
511.915	0.73
512.263	0.74
512.612	0.73
512.961	0.75
513.31	0.75
513.659	0.75
514.007	0.75
514.356	0.76
514.704	0.77
515.053	0.76
515.401	0.76
515.75	0.77
516.098	0.78
516.447	0.78
516.795	0.78
517.143	0.78
517.491	0.79
517.839	0.79
518.188	0.79
518.536	0.79
518.884	0.8
519.232	0.8
519.58	0.8
519.928	0.81
520.275	0.81
520.623	0.82
520.971	0.81
521.319	0.82
521.666	0.83
522.014	0.83
522.362	0.82
522.709	0.83
523.057	0.84
523.404	0.84
523.752	0.85
524.099	0.85
524.446	0.84
524.794	0.85
525.141	0.85
525.488	0.86
525.835	0.86
526.182	0.86
526.529	0.86
526.876	0.86
527.223	0.87
527.57	0.87
527.917	0.87
528.264	0.87
528.611	0.87
528.958	0.87
529.304	0.88
529.651	0.88
529.998	0.88
530.344	0.89
530.691	0.89
531.037	0.89
531.384	0.9
531.73	0.89
532.076	0.89
532.423	0.9
532.769	0.9
533.115	0.9
533.461	0.9
533.807	0.91
534.154	0.91
534.5	0.91
534.846	0.91
535.192	0.91
535.537	0.92
535.883	0.92
536.229	0.92
536.575	0.92
536.921	0.92
537.266	0.93
537.612	0.92
537.957	0.92
538.303	0.93
538.649	0.92
538.994	0.93
539.339	0.93
539.685	0.93
540.03	0.94
540.375	0.93
540.721	0.94
541.066	0.94
541.411	0.94
541.756	0.94
542.101	0.94
542.446	0.94
542.791	0.94
543.136	0.95
543.481	0.94
543.825	0.94
544.17	0.95
544.515	0.96
544.86	0.95
545.204	0.96
545.549	0.96
545.893	0.96
546.238	0.95
546.582	0.95
546.927	0.96
547.271	0.95
547.615	0.96
547.96	0.95
548.304	0.96
548.648	0.96
548.992	0.95
549.336	0.95
549.68	0.95
550.024	0.97
550.368	0.97
550.712	0.96
551.056	0.96
551.4	0.96
551.743	0.96
552.087	0.96
552.431	0.96
552.774	0.95
553.118	0.96
553.462	0.96
553.805	0.96
554.148	0.96
554.492	0.96
554.835	0.96
555.178	0.96
555.522	0.97
555.865	0.96
556.208	0.96
556.551	0.96
556.894	0.96
557.237	0.96
557.58	0.96
557.923	0.95
558.266	0.95
558.609	0.95
558.952	0.95
559.294	0.96
559.637	0.94
559.98	0.95
560.322	0.95
560.665	0.95
561.007	0.94
561.35	0.94
561.692	0.94
562.034	0.94
562.377	0.94
562.719	0.94
563.061	0.94
563.403	0.94
563.745	0.93
564.088	0.94
564.43	0.94
564.772	0.93
565.113	0.93
565.455	0.94
565.797	0.93
566.139	0.93
566.481	0.93
566.822	0.93
567.164	0.93
567.506	0.92
567.847	0.92
568.189	0.92
568.53	0.92
568.872	0.92
569.213	0.91
569.554	0.91
569.895	0.91
570.237	0.91
570.578	0.9
570.919	0.91
571.26	0.91
571.601	0.9
571.942	0.9
572.283	0.9
572.624	0.9
572.965	0.89
573.306	0.89
573.646	0.89
573.987	0.89
574.328	0.89
574.668	0.88
575.009	0.88
575.349	0.87
575.69	0.88
576.03	0.88
576.37	0.87
576.711	0.87
577.051	0.87
577.391	0.87
577.731	0.87
578.072	0.87
578.412	0.86
578.752	0.86
579.092	0.85
579.431	0.84
579.771	0.82
580.111	0.82
580.451	0.84
580.791	0.85
581.13	0.85
581.47	0.84
581.81	0.85
582.149	0.84
582.489	0.85
582.828	0.83
583.167	0.8
583.507	0.76
583.846	0.76
584.185	0.8
584.525	0.82
584.864	0.83
585.203	0.83
585.542	0.84
585.881	0.83
586.22	0.83
586.559	0.82
586.898	0.81
587.236	0.8
587.575	0.81
587.914	0.81
588.252	0.82
588.591	0.82
588.93	0.82
589.268	0.81
589.607	0.81
589.945	0.82
590.283	0.82
590.622	0.82
590.96	0.82
591.298	0.82
591.636	0.82
591.974	0.82
592.313	0.82
592.651	0.82
592.989	0.82
593.326	0.82
593.664	0.82
594.002	0.82
594.34	0.81
594.678	0.81
595.015	0.8
595.353	0.8
595.691	0.81
596.028	0.81
596.366	0.82
596.703	0.81
597.04	0.81
597.378	0.81
597.715	0.81
598.052	0.81
598.389	0.81
598.726	0.81
599.064	0.81
599.401	0.81
599.738	0.81
600.074	0.81
600.411	0.8
600.748	0.8
601.085	0.8
601.422	0.79
601.758	0.79
602.095	0.79
602.432	0.79
602.768	0.8
603.105	0.8
603.441	0.8
603.777	0.8
604.114	0.79
604.45	0.79
604.786	0.79
605.122	0.79
605.459	0.78
605.795	0.78
606.131	0.78
606.467	0.78
606.803	0.78
607.139	0.78
607.474	0.78
607.81	0.78
608.146	0.77
608.482	0.77
608.817	0.77
609.153	0.76
609.488	0.76
609.824	0.76
610.159	0.76
610.495	0.76
610.83	0.75
611.165	0.76
611.5	0.75
611.836	0.74
612.171	0.74
612.506	0.74
612.841	0.74
613.176	0.74
613.511	0.74
613.845	0.73
614.18	0.73
614.515	0.73
614.85	0.72
615.184	0.73
615.519	0.72
615.854	0.72
616.188	0.72
616.523	0.71
616.857	0.71
617.191	0.71
617.526	0.71
617.86	0.71
618.194	0.7
618.528	0.7
618.862	0.7
619.196	0.7
619.53	0.69
619.864	0.69
620.198	0.69
620.532	0.68
620.866	0.69
621.2	0.68
621.533	0.68
621.867	0.68
622.201	0.67
622.534	0.67
622.868	0.67
623.201	0.67
623.534	0.66
623.868	0.65
624.201	0.66
624.534	0.65
624.868	0.65
625.201	0.65
625.534	0.64
625.867	0.64
626.2	0.64
626.533	0.64
626.865	0.63
627.198	0.63
627.531	0.63
627.864	0.62
628.196	0.62
628.529	0.62
628.862	0.61
629.194	0.61
629.527	0.61
629.859	0.61
630.191	0.6
630.524	0.6
630.856	0.6
631.188	0.59
631.52	0.59
631.852	0.59
632.184	0.58
632.516	0.57
632.848	0.58
633.18	0.57
633.512	0.57
633.844	0.56
634.175	0.56
634.507	0.56
634.839	0.55
635.17	0.55
635.502	0.55
635.833	0.54
636.165	0.54
636.496	0.53
636.827	0.53
637.159	0.53
637.49	0.53
637.821	0.52
638.152	0.52
638.483	0.51
638.814	0.51
639.145	0.51
639.476	0.51
639.807	0.5
640.137	0.5
640.468	0.49
640.799	0.49
641.129	0.49
641.46	0.48
641.791	0.48
642.121	0.48
642.451	0.48
642.782	0.47
643.112	0.47
643.442	0.47
643.773	0.46
644.103	0.46
644.433	0.46
644.763	0.46
645.093	0.46
645.423	0.45
645.753	0.45
646.082	0.45
646.412	0.45
646.742	0.45
647.072	0.44
647.401	0.44
647.731	0.44
648.06	0.44
648.39	0.44
648.719	0.44
649.048	0.44
649.378	0.43
649.707	0.43
650.036	0.42
650.365	0.42
650.694	0.42
651.023	0.42
651.352	0.42
651.681	0.42
652.01	0.42
652.339	0.41
652.668	0.41
652.996	0.41
653.325	0.41
653.654	0.41
653.982	0.4
654.311	0.41
654.639	0.4
654.967	0.4
655.296	0.4
655.624	0.4
655.952	0.4
656.28	0.39
656.609	0.39
656.937	0.39
657.265	0.37
657.593	0.22
657.92	0.13
658.248	0.1
658.576	0.17
658.904	0.3
659.231	0.38
659.559	0.38
659.887	0.38
660.214	0.38
660.542	0.38
660.869	0.38
661.196	0.38
661.524	0.37
661.851	0.37
662.178	0.37
662.505	0.37
662.832	0.37
663.159	0.37
663.486	0.36
663.813	0.36
664.14	0.36
664.467	0.36
664.794	0.36
665.12	0.36
665.447	0.35
665.774	0.35
666.1	0.35
666.427	0.35
666.753	0.35
667.079	0.34
667.406	0.34
667.732	0.34
668.058	0.34
668.384	0.34
668.71	0.34
669.036	0.34
669.362	0.34
669.688	0.33
670.014	0.33
670.34	0.33
670.666	0.32
670.991	0.32
671.317	0.32
671.643	0.32
671.968	0.31
672.294	0.31
672.619	0.31
672.945	0.31
673.27	0.3
673.595	0.3
673.92	0.3
674.246	0.3
674.571	0.3
674.896	0.29
675.221	0.29
675.546	0.29
675.87	0.29
676.195	0.28
676.52	0.28
676.845	0.28
677.169	0.28
677.494	0.28
677.819	0.28
678.143	0.27
678.468	0.27
678.792	0.27
679.116	0.27
679.44	0.26
679.765	0.26
680.089	0.26
680.413	0.25
680.737	0.25
681.061	0.25
681.385	0.25
681.709	0.24
682.033	0.24
682.356	0.24
682.68	0.24
683.004	0.24
683.327	0.23
683.651	0.23
683.974	0.22
684.298	0.23
684.621	0.22
684.944	0.22
685.268	0.21
685.591	0.21
685.914	0.21
686.237	0.2
686.56	0.2
686.883	0.2
687.206	0.2
687.529	0.19
687.852	0.19
688.175	0.19
688.497	0.2
688.82	0.19
689.142	0.19
689.465	0.19
689.787	0.19
690.11	0.18
690.432	0.18
690.755	0.18
691.077	0.17
691.399	0.17
691.721	0.17
692.043	0.17
692.365	0.17
692.687	0.16
693.009	0.16
693.331	0.16
693.653	0.15
693.974	0.16
694.296	0.15
694.618	0.15
694.939	0.15
695.261	0.15
695.582	0.15
695.904	0.15
696.225	0.15
696.546	0.15
696.868	0.14
697.189	0.14
697.51	0.14
697.831	0.14
698.152	0.14
698.473	0.13
698.794	0.12
699.114	0.12
699.435	0.11
699.756	0.12
700.077	0.12
700.397	0.12
700.718	0.12
701.038	0.12
701.359	0.13
701.679	0.12
701.999	0.12
702.32	0.12
702.64	0.12
702.96	0.12
703.28	0.12
703.6	0.12
703.92	0.11
704.24	0.11
704.56	0.11
704.879	0.11
705.199	0.11
705.519	0.11
705.838	0.11
706.158	0.11
706.478	0.11
706.797	0.11
707.116	0.11
707.436	0.11
707.755	0.11
708.074	0.11
708.393	0.1
708.712	0.1
709.031	0.09
709.35	0.09
709.669	0.09
709.988	0.09
710.307	0.1
710.626	0.1
710.944	0.1
711.263	0.1
711.582	0.1
711.9	0.11
712.219	0.1
712.537	0.1
712.855	0.1
713.174	0.1
713.492	0.1
713.81	0.11
714.128	0.11
714.446	0.11
714.764	0.1
715.082	0.09
715.4	0.1
715.718	0.1
716.035	0.1
716.353	0.1
716.671	0.1
716.988	0.1
717.306	0.1
717.623	0.1
717.941	0.11
718.258	0.11
718.575	0.11
718.893	0.11
719.21	0.11
719.527	0.11
719.844	0.11
720.161	0.1
720.478	0.1
720.795	0.11
721.112	0.11
721.428	0.11
721.745	0.11
722.062	0.11
722.378	0.12
722.695	0.11
723.011	0.11
723.328	0.11
723.644	0.11
723.96	0.11
724.276	0.11
724.593	0.11
724.909	0.11
725.225	0.11
725.541	0.11
725.857	0.11
726.173	0.11
726.488	0.11
726.804	0.11
727.12	0.11
727.435	0.11
727.751	0.11
728.067	0.11
728.382	0.11
728.697	0.11
729.013	0.11
729.328	0.11
729.643	0.11
729.958	0.1
730.273	0.11
730.588	0.1
730.903	0.11
731.218	0.1
731.533	0.11
731.848	0.11
732.163	0.11
732.477	0.1
732.792	0.1
733.107	0.09
733.421	0.1
733.736	0.1
734.05	0.1
734.364	0.1
734.678	0.1
734.993	0.1
735.307	0.1
735.621	0.09
735.935	0.1
736.249	0.1
736.563	0.1
736.877	0.1
737.19	0.1
737.504	0.1
737.818	0.1
738.131	0.1
738.445	0.1
738.758	0.1
739.072	0.1
739.385	0.1
739.698	0.11
740.012	0.11
740.325	0.1
740.638	0.1
740.951	0.1
741.264	0.09
741.577	0.1
741.89	0.1
742.203	0.1
742.515	0.1
742.828	0.1
743.141	0.1
743.453	0.09
743.766	0.1
744.078	0.09
744.391	0.09
744.703	0.09
745.015	0.09
745.327	0.09
745.639	0.09
745.952	0.09
746.264	0.09
746.575	0.09
746.887	0.09
747.199	0.09
747.511	0.09
747.823	0.09
748.134	0.08
748.446	0.08
748.757	0.08
749.069	0.08
749.38	0.08
749.692	0.07
750.003	0.07
750.314	0.07
750.625	0.07
750.936	0.07
751.248	0.07
751.559	0.07
751.869	0.07
752.18	0.07
752.491	0.07
752.802	0.07
753.112	0.07
753.423	0.07
753.734	0.07
754.044	0.06
754.355	0.06
754.665	0.06
754.975	0.06
755.285	0.06
755.596	0.06
755.906	0.06
756.216	0.06
756.526	0.06
756.836	0.06
757.146	0.06
757.455	0.06
757.765	0.06
758.075	0.06
758.385	0.05
758.694	0.05
759.004	0.05
759.313	0.05
759.622	0.05
759.932	0.05
760.241	0.06
760.55	0.06
760.859	0.06
761.168	0.06
761.477	0.06
761.786	0.06
762.095	0.05
762.404	0.05
762.713	0.06
763.021	0.05
763.33	0.05
763.639	0.06
763.947	0.06
764.256	0.05
764.564	0.06
764.872	0.06
765.181	0.05
765.489	0.05
765.797	0.05
766.105	0.05
766.413	0.05
766.721	0.05
767.029	0.05
767.337	0.05
767.644	0.05
767.952	0.05
768.26	0.05
768.567	0.05
768.875	0.05
769.182	0.05
769.49	0.05
769.797	0.05
770.104	0.05
770.411	0.05
770.718	0.05
771.026	0.05
771.333	0.05
771.639	0.05
771.946	0.05
772.253	0.05
772.56	0.05
772.867	0.05
773.173	0.05
773.48	0.05
773.786	0.05
774.093	0.05
774.399	0.05
774.705	0.06
775.012	0.06
775.318	0.05
775.624	0.06
775.93	0.05
776.236	0.05
776.542	0.06
776.848	0.06
777.154	0.06
777.459	0.06
777.765	0.06
778.071	0.06
778.376	0.06
778.682	0.05
778.987	0.06
779.292	0.05
779.598	0.05
779.903	0.05
780.208	0.05
780.513	0.05
780.818	0.05
781.123	0.05
781.428	0.05
781.733	0.05
782.038	0.05
782.343	0.05
782.647	0.05
782.952	0.05
783.256	0.05
783.561	0.05
783.865	0.05
784.17	0.05
784.474	0.05
784.778	0.05
785.082	0.05
785.386	0.05
785.69	0.05
785.994	0.05
786.298	0.05
786.602	0.05
786.906	0.05
787.209	0.06
787.513	0.06
787.817	0.06
788.12	0.06
788.424	0.06
788.727	0.07
789.03	0.06
789.333	0.06
789.637	0.06
789.94	0.06
790.243	0.07
790.546	0.07
790.849	0.07
791.152	0.07
791.454	0.06
791.757	0.07
792.06	0.07
792.362	0.07
792.665	0.06
792.967	0.06
793.27	0.06
793.572	0.06
793.874	0.07
794.177	0.06
794.479	0.07
794.781	0.07
795.083	0.07
795.385	0.07
795.687	0.07
795.989	0.07
796.29	0.07
796.592	0.07
796.894	0.07
797.195	0.07
797.497	0.07
797.798	0.07
798.1	0.07
798.401	0.07
798.702	0.07
799.003	0.07
799.304	0.07
799.605	0.07
799.906	0.06
800.207	0.07
800.508	0.07
800.809	0.07
801.11	0.07
801.41	0.07
801.711	0.08
802.011	0.08
802.312	0.08
802.612	0.08
802.913	0.08
803.213	0.08
803.513	0.08
803.813	0.07
804.113	0.08
804.413	0.08
804.713	0.08
805.013	0.08
805.313	0.08
805.613	0.08
805.912	0.08
806.212	0.08
806.511	0.08
806.811	0.08
807.11	0.08
807.41	0.08
807.709	0.08
808.008	0.08
808.307	0.08
808.606	0.08
808.905	0.08
809.204	0.08
809.503	0.08
809.802	0.08
810.101	0.09
810.399	0.09
810.698	0.09
810.997	0.09
811.295	0.09
811.593	0.09
811.892	0.09
812.19	0.09
812.488	0.09
812.786	0.09
813.084	0.09
813.383	0.1
813.68	0.09
813.978	0.1
814.276	0.09
814.574	0.1
814.872	0.1
815.169	0.09
815.467	0.09
815.764	0.09
816.062	0.09
816.359	0.09
816.656	0.09
816.954	0.09
817.251	0.1
817.548	0.1
817.845	0.1
818.142	0.1
818.439	0.1
818.735	0.1
819.032	0.1
819.329	0.1
819.626	0.1
819.922	0.11
820.219	0.11
820.515	0.11
820.811	0.11
821.108	0.11
821.404	0.1
821.7	0.1
821.996	0.1
822.292	0.1
822.588	0.11
822.884	0.11
823.18	0.11
823.475	0.12
823.771	0.12
824.067	0.12
824.362	0.12
824.658	0.11
824.953	0.11
825.249	0.11
825.544	0.11
825.839	0.12
826.134	0.11
826.429	0.12
826.724	0.11
827.019	0.11
827.314	0.11
827.609	0.12
827.904	0.12
828.198	0.11
828.493	0.12
828.787	0.12
829.082	0.12
829.376	0.12
829.671	0.13
829.965	0.13
830.259	0.13
830.553	0.14
830.847	0.13
831.141	0.13
831.435	0.13
831.729	0.14
832.023	0.13
832.317	0.13
832.61	0.13
832.904	0.13
833.197	0.13
833.491	0.13
833.784	0.13
834.077	0.13
834.371	0.13
834.664	0.14
834.957	0.14
835.25	0.13
835.543	0.14
835.836	0.14
836.129	0.14
836.421	0.14
836.714	0.13
837.007	0.13
837.299	0.13
837.592	0.13
837.884	0.14
838.177	0.13
838.469	0.14
838.761	0.14
839.053	0.15
839.345	0.15
839.637	0.14
839.929	0.14
840.221	0.14
840.513	0.14
840.805	0.15
841.096	0.14
841.388	0.15
841.68	0.15
841.971	0.15
842.262	0.14
842.554	0.15
842.845	0.15
843.136	0.14
843.427	0.16
843.718	0.15
844.009	0.15
844.3	0.15
844.591	0.15
844.882	0.15
845.173	0.16
845.463	0.15
845.754	0.16
846.044	0.16
846.335	0.16
846.625	0.15
846.915	0.16
847.206	0.15
847.496	0.16
847.786	0.16
848.076	0.14
848.366	0.15
848.656	0.15
848.945	0.15
849.235	0.14
849.525	0.15
849.814	0.15
850.104	0.14
850.393	0.16
850.683	0.16
850.972	0.16
851.261	0.16
851.551	0.16
851.84	0.17
852.129	0.17
852.418	0.18
852.707	0.17
852.995	0.16
853.284	0.17
853.573	0.17
853.862	0.15
854.15	0.16
854.439	0.16
854.727	0.15
855.015	0.17
855.304	0.16
855.592	0.18
855.88	0.17
856.168	0.17
856.456	0.16
856.744	0.16
857.032	0.17
857.32	0.15
857.607	0.17
857.895	0.17
858.183	0.19
858.47	0.17
858.757	0.17
859.045	0.18
859.332	0.17
859.619	0.18
859.907	0.17
860.194	0.16
860.481	0.19
860.768	0.18
861.054	0.18
861.341	0.17
861.628	0.19
861.915	0.18
862.201	0.17
862.488	0.18
862.774	0.17
863.061	0.2
863.347	0.18
863.633	0.2
863.919	0.17
864.205	0.2
864.491	0.17
864.777	0.2
865.063	0.17
865.349	0.19
865.635	0.19
865.92	0.16
866.206	0.2
866.492	0.19
866.777	0.22
867.062	0.21
867.348	0.18
867.633	0.19
867.918	0.2
868.203	0.18
868.488	0.21
868.773	0.22
869.058	0.19
869.343	0.19
869.628	0.2
869.912	0.2
870.197	0.23
870.482	0.18
870.766	0.23
871.05	0.19
871.335	0.22
871.619	0.2
871.903	0.2
872.187	0.17
872.471	0.25
872.755	0.19
873.039	0.18
873.323	0.22
873.607	0.23
873.89	0.17
874.174	0.18
874.458	0.24
874.741	0.22
875.024	0.16
875.308	0.19
875.591	0.26
875.874	0.22
876.157	0.11
876.44	0.19
876.723	0.17
877.006	0.19
877.289	0.15
877.572	0.21
877.854	0.18
878.137	0.3
878.42	0.12
878.702	0.13
878.984	0.24
879.267	0.35
879.549	0.16
879.831	0.23
880.113	0.07
880.395	0.18
880.677	0.12
880.959	0.1
