Data from Rubpy_BV_1800_EDTA_Buffered_Absorbance_15-10-08-974.txt Node
Date: Wed Jul 01 15:10:08 BST 2026
User: fpm-admin
Spectrometer: OFX00224
Trigger mode: 0
Integration Time (sec): 7.000000E-2
Scans to average: 3
Nonlinearity correction enabled: false
Boxcar width: 0
Storing dark spectrum: false
XAxis mode: Wavelengths
Number of Pixels in Spectrum: 2136
>>>>>Begin Spectral Data<<<<<
154.91	-0.23
155.289	0.09
155.669	-0.65
156.048	-0.26
156.428	-0
156.807	-0
157.186	-0.08
157.566	0.37
157.945	-0.21
158.325	-0.1
158.704	-0
159.083	-0.34
159.462	-0
159.842	-0
160.221	0.3
160.6	-0.21
160.979	-0.34
161.359	0.13
161.738	-0
162.117	-0.3
162.496	-0.41
162.875	-0
163.254	0.32
163.633	-0
164.012	-0
164.391	-1.07
164.77	-0.76
165.149	-0
165.528	-0
165.907	-1.2
166.286	0.05
166.665	-0.38
167.044	0.21
167.423	0.14
167.802	-0
168.181	0.4
168.559	-0.75
168.938	-0.56
169.317	0.13
169.696	-0
170.074	0.1
170.453	0.3
170.832	-0.69
171.21	-0
171.589	-0.34
171.968	1.23
172.346	0.7
172.725	0.02
173.103	0.26
173.482	0.06
173.861	-0.93
174.239	0.16
174.617	-0.15
174.996	0.52
175.374	-0
175.753	-0
176.131	-0
176.51	-0.02
176.888	-0
177.266	-0
177.645	0.06
178.023	0.59
178.401	-0.08
178.779	-0.06
179.158	-0
179.536	-0.54
179.914	0.33
180.292	0.6
180.67	-0.29
181.048	-0.22
181.427	-0
181.805	-0
182.183	-1.3
182.561	-0.3
182.939	0.54
183.317	-0
183.695	0.12
184.073	0.7
184.451	0.09
184.829	0.44
185.206	-0.29
185.584	0.34
185.962	-0.86
186.34	0.29
186.718	-0
187.096	-0.54
187.473	-0.22
187.851	-0
188.229	-0.21
188.607	0.28
188.984	0.15
189.362	0.31
189.74	0.33
190.117	0.35
190.495	0.23
190.872	0.43
191.25	0.27
191.627	0.24
192.005	0.11
192.382	0.17
192.76	0.15
193.137	0.38
193.515	0.23
193.892	0.36
194.269	0.29
194.647	0.19
195.024	0.24
195.401	0.28
195.779	0.3
196.156	0.12
196.533	0.29
196.91	0.25
197.288	0.22
197.665	0.23
198.042	0.15
198.419	0.26
198.796	0.09
199.173	0.25
199.55	0.21
199.927	0.21
200.304	0.22
200.681	0.47
201.058	0.17
201.435	0.22
201.812	0.26
202.189	0.37
202.566	0.38
202.943	0.16
203.32	0.22
203.697	0.3
204.073	0.38
204.45	0.32
204.827	0.29
205.204	0.26
205.58	0.32
205.957	0.37
206.334	0.26
206.71	0.28
207.087	0.31
207.464	0.24
207.84	0.37
208.217	0.27
208.593	0.25
208.97	0.42
209.346	0.5
209.723	0.34
210.099	0.49
210.476	0.17
210.852	0.31
211.228	0.33
211.605	0.35
211.981	0.33
212.357	0.3
212.733	0.36
213.11	0.31
213.486	0.24
213.862	0.43
214.238	0.37
214.614	0.34
214.991	0.35
215.367	0.28
215.743	0.45
216.119	0.32
216.495	0.21
216.871	0.34
217.247	0.22
217.623	0.32
217.999	0.28
218.375	0.19
218.751	0.31
219.127	0.27
219.502	0.37
219.878	0.32
220.254	0.42
220.63	0.39
221.006	0.3
221.381	0.28
221.757	0.23
222.133	0.38
222.508	0.49
222.884	0.33
223.26	0.24
223.635	0.4
224.011	0.35
224.386	0.41
224.762	0.42
225.137	0.25
225.513	0.32
225.888	0.23
226.264	0.26
226.639	0.51
227.014	0.21
227.39	0.42
227.765	0.31
228.14	0.32
228.516	0.63
228.891	0.3
229.266	0.27
229.641	0.47
230.017	0.32
230.392	0.3
230.767	0.31
231.142	0.32
231.517	0.13
231.892	0.29
232.267	0.33
232.642	0.43
233.017	0.26
233.392	0.43
233.767	0.4
234.142	0.23
234.517	0.32
234.892	0.24
235.267	0.21
235.641	0.3
236.016	0.27
236.391	0.21
236.766	0.27
237.14	0.32
237.515	0.48
237.89	0.25
238.264	0.22
238.639	0.22
239.014	0.37
239.388	0.41
239.763	0.4
240.137	0.33
240.512	0.26
240.886	0.31
241.261	0.26
241.635	0.29
242.009	0.31
242.384	0.3
242.758	0.4
243.132	0.37
243.507	0.37
243.881	0.35
244.255	0.33
244.629	0.46
245.004	0.31
245.378	0.3
245.752	0.26
246.126	0.4
246.5	0.37
246.874	0.32
247.248	0.39
247.622	0.32
247.996	0.33
248.37	0.31
248.744	0.31
249.118	0.38
249.492	0.27
249.866	0.38
250.24	0.43
250.613	0.33
250.987	0.22
251.361	0.33
251.735	0.28
252.108	0.27
252.482	0.38
252.856	0.33
253.229	0.35
253.603	0.26
253.977	0.26
254.35	0.31
254.724	0.29
255.097	0.33
255.471	0.36
255.844	0.48
256.218	0.25
256.591	0.45
256.964	0.33
257.338	0.29
257.711	0.22
258.084	0.25
258.458	0.39
258.831	0.42
259.204	0.27
259.577	0.28
259.95	0.34
260.323	0.33
260.697	0.3
261.07	0.37
261.443	0.21
261.816	0.35
262.189	0.45
262.562	0.4
262.935	0.33
263.308	0.36
263.68	0.45
264.053	0.39
264.426	0.37
264.799	0.49
265.172	0.37
265.545	0.31
265.917	0.3
266.29	0.35
266.663	0.54
267.035	0.3
267.408	0.35
267.781	0.43
268.153	0.35
268.526	0.4
268.898	0.34
269.271	0.33
269.643	0.41
270.016	0.28
270.388	0.32
270.76	0.43
271.133	0.36
271.505	0.3
271.877	0.32
272.25	0.43
272.622	0.39
272.994	0.51
273.366	0.38
273.739	0.28
274.111	0.27
274.483	0.31
274.855	0.3
275.227	0.27
275.599	0.37
275.971	0.37
276.343	0.44
276.715	0.31
277.087	0.3
277.459	0.27
277.831	0.36
278.203	0.35
278.574	0.27
278.946	0.39
279.318	0.5
279.69	0.38
280.061	0.31
280.433	0.3
280.805	0.35
281.176	0.24
281.548	0.35
281.92	0.31
282.291	0.34
282.663	0.42
283.034	0.22
283.406	0.38
283.777	0.41
284.148	0.36
284.52	0.3
284.891	0.36
285.262	0.26
285.634	0.29
286.005	0.32
286.376	0.35
286.747	0.3
287.119	0.26
287.49	0.32
287.861	0.32
288.232	0.22
288.603	0.43
288.974	0.31
289.345	0.3
289.716	0.32
290.087	0.31
290.458	0.29
290.829	0.39
291.2	0.38
291.571	0.39
291.941	0.38
292.312	0.31
292.683	0.38
293.054	0.35
293.424	0.38
293.795	0.27
294.166	0.32
294.536	0.36
294.907	0.42
295.277	0.35
295.648	0.35
296.018	0.34
296.389	0.32
296.759	0.33
297.13	0.32
297.5	0.36
297.871	0.36
298.241	0.35
298.611	0.36
298.981	0.35
299.352	0.36
299.722	0.4
300.092	0.35
300.462	0.29
300.832	0.36
301.202	0.35
301.573	0.39
301.943	0.29
302.313	0.36
302.683	0.35
303.053	0.34
303.422	0.37
303.792	0.33
304.162	0.4
304.532	0.29
304.902	0.34
305.272	0.41
305.641	0.29
306.011	0.31
306.381	0.33
306.75	0.34
307.12	0.3
307.49	0.36
307.859	0.28
308.229	0.3
308.598	0.32
308.968	0.32
309.337	0.27
309.707	0.26
310.076	0.29
310.445	0.26
310.815	0.27
311.184	0.27
311.553	0.24
311.923	0.24
312.292	0.27
312.661	0.26
313.03	0.24
313.399	0.26
313.768	0.27
314.137	0.26
314.506	0.28
314.875	0.25
315.244	0.3
315.613	0.27
315.982	0.3
316.351	0.28
316.72	0.3
317.089	0.27
317.458	0.29
317.826	0.3
318.195	0.32
318.564	0.3
318.933	0.3
319.301	0.32
319.67	0.31
320.038	0.33
320.407	0.32
320.775	0.32
321.144	0.33
321.512	0.35
321.881	0.34
322.249	0.34
322.618	0.35
322.986	0.35
323.354	0.34
323.723	0.37
324.091	0.37
324.459	0.37
324.827	0.36
325.195	0.39
325.564	0.4
325.932	0.38
326.3	0.42
326.668	0.41
327.036	0.42
327.404	0.41
327.772	0.44
328.14	0.45
328.508	0.44
328.875	0.44
329.243	0.45
329.611	0.45
329.979	0.47
330.346	0.47
330.714	0.48
331.082	0.47
331.449	0.48
331.817	0.5
332.185	0.51
332.552	0.51
332.92	0.52
333.287	0.54
333.655	0.55
334.022	0.55
334.389	0.56
334.757	0.57
335.124	0.58
335.491	0.59
335.859	0.61
336.226	0.62
336.593	0.64
336.96	0.65
337.327	0.66
337.695	0.67
338.062	0.67
338.429	0.69
338.796	0.7
339.163	0.71
339.53	0.73
339.897	0.73
340.263	0.76
340.63	0.77
340.997	0.78
341.364	0.79
341.731	0.81
342.097	0.82
342.464	0.84
342.831	0.85
343.197	0.86
343.564	0.88
343.931	0.88
344.297	0.89
344.664	0.92
345.03	0.93
345.396	0.94
345.763	0.95
346.129	0.98
346.496	0.99
346.862	0.99
347.228	1.02
347.594	1.01
347.961	1.03
348.327	1.05
348.693	1.07
349.059	1.09
349.425	1.08
349.791	1.09
350.157	1.12
350.523	1.13
350.889	1.14
351.255	1.14
351.621	1.15
351.987	1.17
352.353	1.19
352.719	1.2
353.084	1.2
353.45	1.22
353.816	1.24
354.181	1.26
354.547	1.28
354.913	1.27
355.278	1.3
355.644	1.31
356.009	1.32
356.375	1.37
356.74	1.35
357.106	1.38
357.471	1.39
357.836	1.41
358.202	1.44
358.567	1.46
358.932	1.46
359.297	1.46
359.663	1.45
360.028	1.52
360.393	1.53
360.758	1.55
361.123	1.54
361.488	1.59
361.853	1.62
362.218	1.62
362.583	1.62
362.948	1.64
363.312	1.67
363.677	1.66
364.042	1.67
364.407	1.69
364.772	1.7
365.136	1.72
365.501	1.71
365.865	1.76
366.23	1.75
366.595	1.77
366.959	1.8
367.324	1.77
367.688	1.77
368.052	1.77
368.417	1.83
368.781	1.82
369.145	1.84
369.51	1.83
369.874	1.85
370.238	1.83
370.602	1.86
370.967	1.87
371.331	1.86
371.695	1.86
372.059	1.84
372.423	1.86
372.787	1.88
373.151	1.84
373.515	1.82
373.878	1.83
374.242	1.9
374.606	1.88
374.97	1.89
375.334	1.8
375.697	1.78
376.061	1.82
376.425	1.78
376.788	1.76
377.152	1.77
377.515	1.75
377.879	1.74
378.242	1.73
378.606	1.72
378.969	1.69
379.333	1.69
379.696	1.66
380.059	1.66
380.422	1.68
380.786	1.66
381.149	1.62
381.512	1.57
381.875	1.58
382.238	1.54
382.601	1.53
382.964	1.52
383.327	1.5
383.69	1.51
384.053	1.48
384.416	1.47
384.779	1.46
385.142	1.43
385.504	1.41
385.867	1.41
386.23	1.41
386.593	1.41
386.955	1.4
387.318	1.37
387.68	1.36
388.043	1.37
388.405	1.36
388.768	1.34
389.13	1.36
389.493	1.33
389.855	1.31
390.217	1.31
390.58	1.31
390.942	1.28
391.304	1.28
391.666	1.27
392.028	1.26
392.391	1.24
392.753	1.2
393.115	1.2
393.477	1.18
393.839	1.17
394.201	1.16
394.563	1.16
394.924	1.14
395.286	1.14
395.648	1.16
396.01	1.15
396.371	1.15
396.733	1.16
397.095	1.19
397.456	1.2
397.818	1.22
398.18	1.24
398.541	1.26
398.903	1.3
399.264	1.34
399.625	1.34
399.987	1.37
400.348	1.38
400.709	1.42
401.071	1.42
401.432	1.44
401.793	1.41
402.154	1.41
402.515	1.39
402.876	1.38
403.238	1.34
403.599	1.32
403.96	1.27
404.32	1.22
404.681	1.21
405.042	1.15
405.403	1.09
405.764	1.05
406.125	1.01
406.485	0.95
406.846	0.9
407.207	0.86
407.567	0.82
407.928	0.78
408.288	0.73
408.649	0.69
409.009	0.66
409.37	0.62
409.73	0.59
410.091	0.56
410.451	0.52
410.811	0.5
411.171	0.49
411.532	0.44
411.892	0.44
412.252	0.42
412.612	0.39
412.972	0.38
413.332	0.36
413.692	0.35
414.052	0.34
414.412	0.33
414.772	0.32
415.132	0.3
415.492	0.3
415.851	0.28
416.211	0.27
416.571	0.27
416.931	0.26
417.29	0.25
417.65	0.24
418.009	0.24
418.369	0.24
418.728	0.24
419.088	0.22
419.447	0.22
419.807	0.21
420.166	0.21
420.525	0.2
420.884	0.2
421.244	0.2
421.603	0.19
421.962	0.19
422.321	0.19
422.68	0.18
423.039	0.18
423.398	0.17
423.757	0.18
424.116	0.18
424.475	0.17
424.834	0.17
425.193	0.16
425.551	0.17
425.91	0.17
426.269	0.17
426.628	0.15
426.986	0.17
427.345	0.16
427.703	0.16
428.062	0.16
428.42	0.15
428.779	0.16
429.137	0.16
429.496	0.15
429.854	0.14
430.212	0.15
430.57	0.16
430.929	0.15
431.287	0.14
431.645	0.15
432.003	0.14
432.361	0.14
432.719	0.14
433.077	0.15
433.435	0.14
433.793	0.16
434.151	0.15
434.509	0.15
434.866	0.13
435.224	0.15
435.582	0.15
435.94	0.15
436.297	0.15
436.655	0.15
437.012	0.14
437.37	0.14
437.727	0.14
438.085	0.15
438.442	0.15
438.8	0.15
439.157	0.15
439.514	0.14
439.872	0.15
440.229	0.14
440.586	0.15
440.943	0.14
441.3	0.15
441.657	0.16
442.014	0.14
442.371	0.14
442.728	0.14
443.085	0.14
443.442	0.15
443.799	0.15
444.156	0.15
444.513	0.15
444.869	0.14
445.226	0.15
445.583	0.15
445.939	0.15
446.296	0.15
446.652	0.15
447.009	0.15
447.365	0.16
447.722	0.15
448.078	0.15
448.434	0.15
448.791	0.15
449.147	0.15
449.503	0.15
449.859	0.15
450.215	0.15
450.571	0.15
450.928	0.15
451.284	0.16
451.64	0.15
451.995	0.16
452.351	0.15
452.707	0.15
453.063	0.15
453.419	0.14
453.775	0.14
454.13	0.14
454.486	0.15
454.842	0.14
455.197	0.14
455.553	0.14
455.908	0.14
456.264	0.14
456.619	0.15
456.975	0.14
457.33	0.14
457.685	0.13
458.04	0.14
458.396	0.14
458.751	0.13
459.106	0.12
459.461	0.13
459.816	0.11
460.171	0.13
460.526	0.12
460.881	0.11
461.236	0.11
461.591	0.11
461.946	0.1
462.301	0.11
462.655	0.11
463.01	0.11
463.365	0.1
463.719	0.09
464.074	0.08
464.428	0.08
464.783	0.07
465.137	0.08
465.492	0.09
465.846	0.07
466.201	0.08
466.555	0.08
466.909	0.09
467.263	0.1
467.618	0.1
467.972	0.1
468.326	0.1
468.68	0.09
469.034	0.09
469.388	0.09
469.742	0.09
470.096	0.1
470.45	0.1
470.804	0.1
471.157	0.1
471.511	0.11
471.865	0.1
472.218	0.1
472.572	0.12
472.926	0.13
473.279	0.13
473.633	0.14
473.986	0.15
474.34	0.16
474.693	0.16
475.046	0.17
475.4	0.18
475.753	0.19
476.106	0.2
476.459	0.21
476.812	0.22
477.165	0.23
477.519	0.24
477.872	0.24
478.224	0.25
478.577	0.26
478.93	0.27
479.283	0.27
479.636	0.27
479.989	0.29
480.341	0.29
480.694	0.3
481.047	0.3
481.399	0.32
481.752	0.33
482.104	0.33
482.457	0.33
482.809	0.34
483.162	0.34
483.514	0.35
483.866	0.36
484.219	0.36
484.571	0.36
484.923	0.37
485.275	0.39
485.627	0.38
485.979	0.39
486.331	0.39
486.683	0.4
487.035	0.41
487.387	0.41
487.739	0.43
488.091	0.43
488.443	0.43
488.794	0.43
489.146	0.44
489.498	0.44
489.849	0.45
490.201	0.45
490.552	0.45
490.904	0.45
491.255	0.47
491.607	0.46
491.958	0.47
492.309	0.47
492.661	0.48
493.012	0.49
493.363	0.49
493.714	0.49
494.065	0.49
494.416	0.5
494.767	0.51
495.118	0.51
495.469	0.51
495.82	0.52
496.171	0.52
496.522	0.53
496.872	0.54
497.223	0.54
497.574	0.53
497.924	0.55
498.275	0.55
498.626	0.56
498.976	0.56
499.327	0.56
499.677	0.57
500.027	0.58
500.378	0.58
500.728	0.59
501.078	0.59
501.428	0.59
501.779	0.59
502.129	0.59
502.479	0.6
502.829	0.61
503.179	0.61
503.529	0.62
503.879	0.62
504.229	0.63
504.578	0.63
504.928	0.63
505.278	0.64
505.628	0.64
505.977	0.65
506.327	0.65
506.676	0.66
507.026	0.66
507.375	0.66
507.725	0.66
508.074	0.67
508.424	0.68
508.773	0.67
509.122	0.68
509.471	0.68
509.82	0.69
510.17	0.69
510.519	0.69
510.868	0.69
511.217	0.7
511.566	0.71
511.915	0.71
512.263	0.72
512.612	0.72
512.961	0.73
513.31	0.73
513.659	0.74
514.007	0.74
514.356	0.74
514.704	0.74
515.053	0.75
515.401	0.75
515.75	0.75
516.098	0.75
516.447	0.75
516.795	0.76
517.143	0.76
517.491	0.77
517.839	0.77
518.188	0.77
518.536	0.77
518.884	0.78
519.232	0.78
519.58	0.79
519.928	0.78
520.275	0.79
520.623	0.79
520.971	0.8
521.319	0.8
521.666	0.81
522.014	0.81
522.362	0.8
522.709	0.81
523.057	0.81
523.404	0.82
523.752	0.81
524.099	0.81
524.446	0.82
524.794	0.82
525.141	0.83
525.488	0.83
525.835	0.83
526.182	0.84
526.529	0.84
526.876	0.83
527.223	0.84
527.57	0.85
527.917	0.85
528.264	0.85
528.611	0.85
528.958	0.85
529.304	0.86
529.651	0.86
529.998	0.86
530.344	0.86
530.691	0.88
531.037	0.87
531.384	0.87
531.73	0.88
532.076	0.87
532.423	0.88
532.769	0.88
533.115	0.89
533.461	0.88
533.807	0.88
534.154	0.88
534.5	0.89
534.846	0.89
535.192	0.9
535.537	0.89
535.883	0.9
536.229	0.9
536.575	0.9
536.921	0.9
537.266	0.89
537.612	0.9
537.957	0.9
538.303	0.9
538.649	0.91
538.994	0.91
539.339	0.91
539.685	0.91
540.03	0.92
540.375	0.91
540.721	0.92
541.066	0.92
541.411	0.92
541.756	0.91
542.101	0.92
542.446	0.92
542.791	0.92
543.136	0.92
543.481	0.92
543.825	0.92
544.17	0.93
544.515	0.92
544.86	0.92
545.204	0.93
545.549	0.93
545.893	0.93
546.238	0.93
546.582	0.93
546.927	0.93
547.271	0.93
547.615	0.93
547.96	0.93
548.304	0.94
548.648	0.94
548.992	0.93
549.336	0.93
549.68	0.94
550.024	0.94
550.368	0.94
550.712	0.95
551.056	0.94
551.4	0.93
551.743	0.94
552.087	0.93
552.431	0.94
552.774	0.93
553.118	0.94
553.462	0.94
553.805	0.94
554.148	0.93
554.492	0.93
554.835	0.93
555.178	0.93
555.522	0.94
555.865	0.94
556.208	0.93
556.551	0.94
556.894	0.93
557.237	0.94
557.58	0.93
557.923	0.93
558.266	0.92
558.609	0.92
558.952	0.93
559.294	0.93
559.637	0.93
559.98	0.93
560.322	0.93
560.665	0.92
561.007	0.92
561.35	0.92
561.692	0.91
562.034	0.92
562.377	0.92
562.719	0.92
563.061	0.91
563.403	0.91
563.745	0.91
564.088	0.92
564.43	0.91
564.772	0.91
565.113	0.91
565.455	0.9
565.797	0.91
566.139	0.91
566.481	0.91
566.822	0.9
567.164	0.9
567.506	0.91
567.847	0.9
568.189	0.9
568.53	0.9
568.872	0.9
569.213	0.89
569.554	0.89
569.895	0.89
570.237	0.89
570.578	0.89
570.919	0.89
571.26	0.88
571.601	0.88
571.942	0.88
572.283	0.88
572.624	0.88
572.965	0.87
573.306	0.87
573.646	0.87
573.987	0.88
574.328	0.86
574.668	0.87
575.009	0.86
575.349	0.86
575.69	0.85
576.03	0.86
576.37	0.85
576.711	0.85
577.051	0.85
577.391	0.85
577.731	0.85
578.072	0.85
578.412	0.84
578.752	0.84
579.092	0.83
579.431	0.83
579.771	0.81
580.111	0.8
580.451	0.81
580.791	0.83
581.13	0.83
581.47	0.83
581.81	0.83
582.149	0.82
582.489	0.82
582.828	0.8
583.167	0.78
583.507	0.73
583.846	0.74
584.185	0.78
584.525	0.8
584.864	0.81
585.203	0.82
585.542	0.82
585.881	0.81
586.22	0.81
586.559	0.8
586.898	0.79
587.236	0.79
587.575	0.79
587.914	0.79
588.252	0.81
588.591	0.8
588.93	0.8
589.268	0.79
589.607	0.8
589.945	0.8
590.283	0.8
590.622	0.8
590.96	0.8
591.298	0.8
591.636	0.81
591.974	0.8
592.313	0.8
592.651	0.8
592.989	0.8
593.326	0.8
593.664	0.8
594.002	0.8
594.34	0.8
594.678	0.79
595.015	0.79
595.353	0.78
595.691	0.79
596.028	0.8
596.366	0.8
596.703	0.79
597.04	0.79
597.378	0.79
597.715	0.8
598.052	0.8
598.389	0.8
598.726	0.8
599.064	0.8
599.401	0.8
599.738	0.79
600.074	0.79
600.411	0.79
600.748	0.78
601.085	0.78
601.422	0.77
601.758	0.78
602.095	0.77
602.432	0.78
602.768	0.78
603.105	0.78
603.441	0.78
603.777	0.78
604.114	0.78
604.45	0.78
604.786	0.77
605.122	0.77
605.459	0.77
605.795	0.76
606.131	0.76
606.467	0.76
606.803	0.77
607.139	0.76
607.474	0.76
607.81	0.76
608.146	0.76
608.482	0.76
608.817	0.75
609.153	0.75
609.488	0.74
609.824	0.74
610.159	0.74
610.495	0.74
610.83	0.74
611.165	0.74
611.5	0.73
611.836	0.73
612.171	0.72
612.506	0.73
612.841	0.72
613.176	0.72
613.511	0.72
613.845	0.71
614.18	0.71
614.515	0.71
614.85	0.71
615.184	0.71
615.519	0.71
615.854	0.71
616.188	0.7
616.523	0.7
616.857	0.69
617.191	0.7
617.526	0.69
617.86	0.69
618.194	0.69
618.528	0.69
618.862	0.69
619.196	0.68
619.53	0.68
619.864	0.68
620.198	0.68
620.532	0.67
620.866	0.67
621.2	0.66
621.533	0.66
621.867	0.66
622.201	0.66
622.534	0.65
622.868	0.65
623.201	0.65
623.534	0.64
623.868	0.64
624.201	0.64
624.534	0.64
624.868	0.64
625.201	0.63
625.534	0.63
625.867	0.63
626.2	0.63
626.533	0.62
626.865	0.62
627.198	0.62
627.531	0.62
627.864	0.61
628.196	0.61
628.529	0.61
628.862	0.61
629.194	0.61
629.527	0.6
629.859	0.6
630.191	0.59
630.524	0.59
630.856	0.58
631.188	0.58
631.52	0.58
631.852	0.57
632.184	0.57
632.516	0.56
632.848	0.56
633.18	0.56
633.512	0.56
633.844	0.55
634.175	0.55
634.507	0.55
634.839	0.54
635.17	0.54
635.502	0.53
635.833	0.53
636.165	0.53
636.496	0.52
636.827	0.52
637.159	0.51
637.49	0.51
637.821	0.51
638.152	0.51
638.483	0.51
638.814	0.5
639.145	0.5
639.476	0.49
639.807	0.49
640.137	0.49
640.468	0.49
640.799	0.48
641.129	0.48
641.46	0.47
641.791	0.47
642.121	0.47
642.451	0.47
642.782	0.46
643.112	0.46
643.442	0.46
643.773	0.45
644.103	0.45
644.433	0.45
644.763	0.45
645.093	0.45
645.423	0.45
645.753	0.45
646.082	0.44
646.412	0.44
646.742	0.44
647.072	0.43
647.401	0.43
647.731	0.43
648.06	0.43
648.39	0.43
648.719	0.43
649.048	0.42
649.378	0.42
649.707	0.42
650.036	0.42
650.365	0.41
650.694	0.41
651.023	0.41
651.352	0.41
651.681	0.41
652.01	0.4
652.339	0.4
652.668	0.4
652.996	0.4
653.325	0.4
653.654	0.4
653.982	0.4
654.311	0.4
654.639	0.4
654.967	0.39
655.296	0.4
655.624	0.39
655.952	0.39
656.28	0.39
656.609	0.39
656.937	0.39
657.265	0.37
657.593	0.21
657.92	0.12
658.248	0.1
658.576	0.17
658.904	0.29
659.231	0.37
659.559	0.38
659.887	0.37
660.214	0.37
660.542	0.37
660.869	0.37
661.196	0.36
661.524	0.36
661.851	0.36
662.178	0.36
662.505	0.36
662.832	0.36
663.159	0.36
663.486	0.36
663.813	0.36
664.14	0.35
664.467	0.35
664.794	0.35
665.12	0.35
665.447	0.35
665.774	0.34
666.1	0.34
666.427	0.34
666.753	0.34
667.079	0.34
667.406	0.33
667.732	0.34
668.058	0.33
668.384	0.33
668.71	0.33
669.036	0.33
669.362	0.33
669.688	0.32
670.014	0.32
670.34	0.32
670.666	0.32
670.991	0.32
671.317	0.31
671.643	0.31
671.968	0.31
672.294	0.3
672.619	0.3
672.945	0.3
673.27	0.3
673.595	0.29
673.92	0.29
674.246	0.29
674.571	0.29
674.896	0.29
675.221	0.29
675.546	0.28
675.87	0.28
676.195	0.28
676.52	0.28
676.845	0.28
677.169	0.27
677.494	0.27
677.819	0.27
678.143	0.26
678.468	0.26
678.792	0.26
679.116	0.26
679.44	0.26
679.765	0.26
680.089	0.25
680.413	0.25
680.737	0.25
681.061	0.24
681.385	0.24
681.709	0.24
682.033	0.24
682.356	0.23
682.68	0.23
683.004	0.23
683.327	0.23
683.651	0.22
683.974	0.22
684.298	0.22
684.621	0.22
684.944	0.21
685.268	0.21
685.591	0.21
685.914	0.2
686.237	0.2
686.56	0.2
686.883	0.19
687.206	0.19
687.529	0.19
687.852	0.19
688.175	0.19
688.497	0.19
688.82	0.19
689.142	0.19
689.465	0.18
689.787	0.18
690.11	0.18
690.432	0.18
690.755	0.17
691.077	0.17
691.399	0.17
691.721	0.16
692.043	0.17
692.365	0.16
692.687	0.16
693.009	0.16
693.331	0.15
693.653	0.15
693.974	0.15
694.296	0.15
694.618	0.15
694.939	0.15
695.261	0.14
695.582	0.14
695.904	0.14
696.225	0.15
696.546	0.15
696.868	0.14
697.189	0.14
697.51	0.14
697.831	0.14
698.152	0.14
698.473	0.13
698.794	0.12
699.114	0.12
699.435	0.11
699.756	0.12
700.077	0.12
700.397	0.12
700.718	0.12
701.038	0.12
701.359	0.12
701.679	0.12
701.999	0.12
702.32	0.12
702.64	0.12
702.96	0.12
703.28	0.12
703.6	0.12
703.92	0.11
704.24	0.11
704.56	0.11
704.879	0.11
705.199	0.11
705.519	0.11
705.838	0.11
706.158	0.11
706.478	0.11
706.797	0.11
707.116	0.11
707.436	0.11
707.755	0.11
708.074	0.11
708.393	0.1
708.712	0.1
709.031	0.09
709.35	0.09
709.669	0.09
709.988	0.09
710.307	0.1
710.626	0.1
710.944	0.1
711.263	0.1
711.582	0.1
711.9	0.1
712.219	0.1
712.537	0.1
712.855	0.1
713.174	0.1
713.492	0.1
713.81	0.11
714.128	0.1
714.446	0.1
714.764	0.09
715.082	0.09
715.4	0.1
715.718	0.09
716.035	0.09
716.353	0.1
716.671	0.1
716.988	0.1
717.306	0.1
717.623	0.1
717.941	0.11
718.258	0.11
718.575	0.11
718.893	0.11
719.21	0.11
719.527	0.1
719.844	0.1
720.161	0.1
720.478	0.1
720.795	0.1
721.112	0.11
721.428	0.11
721.745	0.11
722.062	0.11
722.378	0.11
722.695	0.11
723.011	0.11
723.328	0.11
723.644	0.11
723.96	0.11
724.276	0.11
724.593	0.11
724.909	0.11
725.225	0.11
725.541	0.11
725.857	0.11
726.173	0.11
726.488	0.11
726.804	0.11
727.12	0.11
727.435	0.1
727.751	0.1
728.067	0.1
728.382	0.11
728.697	0.11
729.013	0.11
729.328	0.11
729.643	0.1
729.958	0.1
730.273	0.1
730.588	0.1
730.903	0.1
731.218	0.1
731.533	0.1
731.848	0.1
732.163	0.1
732.477	0.1
732.792	0.1
733.107	0.09
733.421	0.1
733.736	0.1
734.05	0.1
734.364	0.09
734.678	0.1
734.993	0.1
735.307	0.1
735.621	0.09
735.935	0.09
736.249	0.09
736.563	0.1
736.877	0.1
737.19	0.1
737.504	0.1
737.818	0.1
738.131	0.1
738.445	0.1
738.758	0.1
739.072	0.1
739.385	0.1
739.698	0.1
740.012	0.1
740.325	0.1
740.638	0.1
740.951	0.1
741.264	0.09
741.577	0.09
741.89	0.1
742.203	0.09
742.515	0.1
742.828	0.1
743.141	0.1
743.453	0.09
743.766	0.1
744.078	0.09
744.391	0.09
744.703	0.09
745.015	0.09
745.327	0.09
745.639	0.09
745.952	0.09
746.264	0.09
746.575	0.09
746.887	0.09
747.199	0.09
747.511	0.08
747.823	0.08
748.134	0.08
748.446	0.08
748.757	0.08
749.069	0.08
749.38	0.08
749.692	0.07
750.003	0.07
750.314	0.07
750.625	0.07
750.936	0.07
751.248	0.07
751.559	0.07
751.869	0.07
752.18	0.07
752.491	0.07
752.802	0.07
753.112	0.07
753.423	0.06
753.734	0.07
754.044	0.06
754.355	0.06
754.665	0.06
754.975	0.06
755.285	0.06
755.596	0.06
755.906	0.06
756.216	0.05
756.526	0.06
756.836	0.05
757.146	0.06
757.455	0.06
757.765	0.06
758.075	0.05
758.385	0.05
758.694	0.05
759.004	0.05
759.313	0.05
759.622	0.05
759.932	0.05
760.241	0.05
760.55	0.06
760.859	0.06
761.168	0.06
761.477	0.05
761.786	0.05
762.095	0.05
762.404	0.05
762.713	0.05
763.021	0.05
763.33	0.05
763.639	0.05
763.947	0.05
764.256	0.05
764.564	0.05
764.872	0.06
765.181	0.06
765.489	0.05
765.797	0.05
766.105	0.05
766.413	0.04
766.721	0.05
767.029	0.05
767.337	0.05
767.644	0.05
767.952	0.05
768.26	0.05
768.567	0.05
768.875	0.05
769.182	0.05
769.49	0.05
769.797	0.05
770.104	0.05
770.411	0.05
770.718	0.05
771.026	0.05
771.333	0.05
771.639	0.04
771.946	0.04
772.253	0.05
772.56	0.05
772.867	0.05
773.173	0.05
773.48	0.05
773.786	0.05
774.093	0.05
774.399	0.05
774.705	0.05
775.012	0.05
775.318	0.05
775.624	0.05
775.93	0.05
776.236	0.05
776.542	0.06
776.848	0.06
777.154	0.06
777.459	0.06
777.765	0.06
778.071	0.05
778.376	0.05
778.682	0.05
778.987	0.05
779.292	0.05
779.598	0.05
779.903	0.05
780.208	0.05
780.513	0.05
780.818	0.05
781.123	0.05
781.428	0.05
781.733	0.05
782.038	0.05
782.343	0.05
782.647	0.05
782.952	0.04
783.256	0.05
783.561	0.05
783.865	0.04
784.17	0.04
784.474	0.04
784.778	0.04
785.082	0.05
785.386	0.05
785.69	0.05
785.994	0.05
786.298	0.05
786.602	0.05
786.906	0.05
787.209	0.06
787.513	0.05
787.817	0.06
788.12	0.06
788.424	0.06
788.727	0.06
789.03	0.06
789.333	0.06
789.637	0.06
789.94	0.06
790.243	0.06
790.546	0.06
790.849	0.06
791.152	0.06
791.454	0.06
791.757	0.06
792.06	0.06
792.362	0.07
792.665	0.06
792.967	0.06
793.27	0.06
793.572	0.06
793.874	0.07
794.177	0.06
794.479	0.06
794.781	0.06
795.083	0.07
795.385	0.07
795.687	0.07
795.989	0.07
796.29	0.07
796.592	0.07
796.894	0.07
797.195	0.07
797.497	0.07
797.798	0.07
798.1	0.07
798.401	0.07
798.702	0.07
799.003	0.07
799.304	0.07
799.605	0.07
799.906	0.06
800.207	0.07
800.508	0.06
800.809	0.07
801.11	0.07
801.41	0.07
801.711	0.07
802.011	0.08
802.312	0.08
802.612	0.07
802.913	0.08
803.213	0.08
803.513	0.07
803.813	0.07
804.113	0.07
804.413	0.08
804.713	0.08
805.013	0.08
805.313	0.09
805.613	0.08
805.912	0.08
806.212	0.08
806.511	0.08
806.811	0.08
807.11	0.08
807.41	0.08
807.709	0.08
808.008	0.08
808.307	0.08
808.606	0.08
808.905	0.08
809.204	0.08
809.503	0.08
809.802	0.08
810.101	0.08
810.399	0.08
810.698	0.08
810.997	0.08
811.295	0.08
811.593	0.08
811.892	0.09
812.19	0.09
812.488	0.09
812.786	0.09
813.084	0.09
813.383	0.09
813.68	0.09
813.978	0.09
814.276	0.09
814.574	0.09
814.872	0.09
815.169	0.09
815.467	0.09
815.764	0.09
816.062	0.09
816.359	0.09
816.656	0.09
816.954	0.09
817.251	0.09
817.548	0.09
817.845	0.1
818.142	0.1
818.439	0.1
818.735	0.1
819.032	0.1
819.329	0.1
819.626	0.1
819.922	0.1
820.219	0.1
820.515	0.11
820.811	0.11
821.108	0.11
821.404	0.1
821.7	0.1
821.996	0.1
822.292	0.1
822.588	0.1
822.884	0.11
823.18	0.12
823.475	0.11
823.771	0.12
824.067	0.12
824.362	0.11
824.658	0.11
824.953	0.11
825.249	0.11
825.544	0.11
825.839	0.12
826.134	0.11
826.429	0.11
826.724	0.11
827.019	0.11
827.314	0.12
827.609	0.12
827.904	0.11
828.198	0.11
828.493	0.11
828.787	0.11
829.082	0.12
829.376	0.12
829.671	0.13
829.965	0.12
830.259	0.12
830.553	0.13
830.847	0.13
831.141	0.13
831.435	0.13
831.729	0.14
832.023	0.13
832.317	0.13
832.61	0.13
832.904	0.13
833.197	0.13
833.491	0.13
833.784	0.13
834.077	0.13
834.371	0.13
834.664	0.13
834.957	0.14
835.25	0.12
835.543	0.13
835.836	0.14
836.129	0.13
836.421	0.14
836.714	0.13
837.007	0.13
837.299	0.13
837.592	0.13
837.884	0.13
838.177	0.13
838.469	0.14
838.761	0.14
839.053	0.14
839.345	0.14
839.637	0.14
839.929	0.14
840.221	0.13
840.513	0.15
840.805	0.15
841.096	0.15
841.388	0.15
841.68	0.15
841.971	0.14
842.262	0.15
842.554	0.14
842.845	0.14
843.136	0.14
843.427	0.15
843.718	0.15
844.009	0.14
844.3	0.14
844.591	0.15
844.882	0.15
845.173	0.15
845.463	0.14
845.754	0.16
846.044	0.14
846.335	0.14
846.625	0.15
846.915	0.15
847.206	0.15
847.496	0.16
847.786	0.15
848.076	0.14
848.366	0.16
848.656	0.14
848.945	0.15
849.235	0.14
849.525	0.14
849.814	0.14
850.104	0.13
850.393	0.15
850.683	0.17
850.972	0.16
851.261	0.16
851.551	0.16
851.84	0.17
852.129	0.16
852.418	0.16
852.707	0.16
852.995	0.16
853.284	0.15
853.573	0.15
853.862	0.16
854.15	0.15
854.439	0.15
854.727	0.15
855.015	0.16
855.304	0.16
855.592	0.16
855.88	0.17
856.168	0.16
856.456	0.15
856.744	0.16
857.032	0.15
857.32	0.16
857.607	0.16
857.895	0.18
858.183	0.18
858.47	0.18
858.757	0.17
859.045	0.17
859.332	0.17
859.619	0.17
859.907	0.18
860.194	0.16
860.481	0.17
860.768	0.17
861.054	0.16
861.341	0.15
861.628	0.16
861.915	0.17
862.201	0.17
862.488	0.17
862.774	0.19
863.061	0.2
863.347	0.17
863.633	0.18
863.919	0.16
864.205	0.16
864.491	0.18
864.777	0.19
865.063	0.17
865.349	0.18
865.635	0.17
865.92	0.17
866.206	0.17
866.492	0.15
866.777	0.21
867.062	0.17
867.348	0.19
867.633	0.16
867.918	0.18
868.203	0.19
868.488	0.16
868.773	0.24
869.058	0.22
869.343	0.19
869.628	0.18
869.912	0.17
870.197	0.18
870.482	0.15
870.766	0.17
871.05	0.15
871.335	0.23
871.619	0.16
871.903	0.21
872.187	0.14
872.471	0.12
872.755	0.2
873.039	0.18
873.323	0.17
873.607	0.2
873.89	0.14
874.174	0.14
874.458	0.18
874.741	0.14
875.024	0.21
875.308	0.15
875.591	0.22
875.874	0.16
876.157	0.14
876.44	0.09
876.723	0.14
877.006	0.07
877.289	0.16
877.572	0.27
877.854	0.12
878.137	0.16
878.42	0.13
878.702	0.16
878.984	0.29
879.267	0.21
879.549	0.12
879.831	0.13
880.113	0.04
880.395	0.07
880.677	-0.01
880.959	0.1
