Data from Rubpy_BV_1800_EDTA_Buffered_Absorbance_15-15-09-092.txt Node
Date: Wed Jul 01 15:15:09 BST 2026
User: fpm-admin
Spectrometer: OFX00224
Trigger mode: 0
Integration Time (sec): 7.000000E-2
Scans to average: 3
Nonlinearity correction enabled: false
Boxcar width: 0
Storing dark spectrum: false
XAxis mode: Wavelengths
Number of Pixels in Spectrum: 2136
>>>>>Begin Spectral Data<<<<<
154.91	-0.2
155.289	0.74
155.669	-0.59
156.048	-0.66
156.428	-0.02
156.807	-0
157.186	-0
157.566	0.24
157.945	0.27
158.325	-0
158.704	-0
159.083	-0
159.462	-0
159.842	-0
160.221	-0.93
160.6	-0.09
160.979	-0.19
161.359	0.79
161.738	-0.05
162.117	-0.24
162.496	0.08
162.875	-0
163.254	0.98
163.633	-0
164.012	-0
164.391	-0.92
164.77	-0
165.149	0.18
165.528	-1.28
165.907	-0
166.286	0.01
166.665	-0
167.044	0.26
167.423	0.17
167.802	-0.12
168.181	-0
168.559	-0.73
168.938	-0.64
169.317	-0
169.696	-0
170.074	-0.33
170.453	0.62
170.832	-0.53
171.21	-0
171.589	-0
171.968	1.05
172.346	-0
172.725	1.26
173.103	0.86
173.482	0.65
173.861	-0
174.239	0.55
174.617	-0
174.996	0.41
175.374	0.34
175.753	0.03
176.131	-0
176.51	-0.04
176.888	1.34
177.266	-0
177.645	0.01
178.023	0.74
178.401	-0.03
178.779	0.3
179.158	-1.18
179.536	-0.12
179.914	-0.34
180.292	0.85
180.67	-0.36
181.048	-0
181.427	-0
181.805	-0
182.183	-1.18
182.561	0.51
182.939	-0.65
183.317	-0
183.695	-0
184.073	-0.15
184.451	0.15
184.829	1.04
185.206	0.43
185.584	-0
185.962	0.3
186.34	1.29
186.718	1
187.096	-0.86
187.473	-0
187.851	-0
188.229	-0
188.607	0.3
188.984	0.19
189.362	0.4
189.74	0.39
190.117	0.34
190.495	0.45
190.872	0.37
191.25	0.29
191.627	0.35
192.005	0.28
192.382	0.23
192.76	0.26
193.137	0.29
193.515	0.38
193.892	0.39
194.269	0.46
194.647	0.46
195.024	0.2
195.401	0.28
195.779	0.47
196.156	0.21
196.533	0.27
196.91	0.27
197.288	0.32
197.665	0.25
198.042	0.29
198.419	0.22
198.796	0.3
199.173	0.3
199.55	0.43
199.927	0.29
200.304	0.3
200.681	0.47
201.058	0.28
201.435	0.3
201.812	0.28
202.189	0.48
202.566	0.38
202.943	0.24
203.32	0.35
203.697	0.21
204.073	0.19
204.45	0.26
204.827	0.38
205.204	0.32
205.58	0.43
205.957	0.43
206.334	0.36
206.71	0.38
207.087	0.44
207.464	0.3
207.84	0.38
208.217	0.35
208.593	0.47
208.97	0.44
209.346	0.54
209.723	0.49
210.099	0.52
210.476	0.33
210.852	0.25
211.228	0.38
211.605	0.35
211.981	0.45
212.357	0.41
212.733	0.42
213.11	0.29
213.486	0.29
213.862	0.46
214.238	0.45
214.614	0.38
214.991	0.32
215.367	0.39
215.743	0.36
216.119	0.44
216.495	0.27
216.871	0.37
217.247	0.24
217.623	0.41
217.999	0.27
218.375	0.29
218.751	0.35
219.127	0.31
219.502	0.23
219.878	0.48
220.254	0.4
220.63	0.32
221.006	0.39
221.381	0.37
221.757	0.26
222.133	0.29
222.508	0.44
222.884	0.28
223.26	0.33
223.635	0.51
224.011	0.34
224.386	0.4
224.762	0.36
225.137	0.4
225.513	0.42
225.888	0.44
226.264	0.24
226.639	0.51
227.014	0.25
227.39	0.34
227.765	0.31
228.14	0.37
228.516	0.73
228.891	0.41
229.266	0.38
229.641	0.28
230.017	0.29
230.392	0.36
230.767	0.36
231.142	0.26
231.517	0.35
231.892	0.33
232.267	0.28
232.642	0.35
233.017	0.41
233.392	0.42
233.767	0.4
234.142	0.33
234.517	0.41
234.892	0.34
235.267	0.37
235.641	0.44
236.016	0.25
236.391	0.4
236.766	0.3
237.14	0.37
237.515	0.34
237.89	0.37
238.264	0.33
238.639	0.21
239.014	0.48
239.388	0.43
239.763	0.35
240.137	0.57
240.512	0.32
240.886	0.42
241.261	0.3
241.635	0.35
242.009	0.38
242.384	0.45
242.758	0.35
243.132	0.48
243.507	0.46
243.881	0.3
244.255	0.34
244.629	0.38
245.004	0.39
245.378	0.33
245.752	0.39
246.126	0.34
246.5	0.27
246.874	0.44
247.248	0.53
247.622	0.26
247.996	0.32
248.37	0.34
248.744	0.33
249.118	0.23
249.492	0.37
249.866	0.44
250.24	0.4
250.613	0.41
250.987	0.36
251.361	0.5
251.735	0.28
252.108	0.32
252.482	0.33
252.856	0.36
253.229	0.4
253.603	0.37
253.977	0.31
254.35	0.32
254.724	0.39
255.097	0.34
255.471	0.28
255.844	0.38
256.218	0.27
256.591	0.34
256.964	0.41
257.338	0.37
257.711	0.28
258.084	0.38
258.458	0.36
258.831	0.44
259.204	0.38
259.577	0.39
259.95	0.34
260.323	0.38
260.697	0.38
261.07	0.33
261.443	0.37
261.816	0.23
262.189	0.37
262.562	0.33
262.935	0.41
263.308	0.52
263.68	0.27
264.053	0.26
264.426	0.31
264.799	0.41
265.172	0.29
265.545	0.39
265.917	0.38
266.29	0.32
266.663	0.53
267.035	0.31
267.408	0.33
267.781	0.46
268.153	0.45
268.526	0.31
268.898	0.43
269.271	0.4
269.643	0.39
270.016	0.32
270.388	0.42
270.76	0.34
271.133	0.43
271.505	0.41
271.877	0.53
272.25	0.38
272.622	0.34
272.994	0.54
273.366	0.38
273.739	0.32
274.111	0.24
274.483	0.39
274.855	0.33
275.227	0.36
275.599	0.4
275.971	0.36
276.343	0.33
276.715	0.38
277.087	0.49
277.459	0.31
277.831	0.42
278.203	0.41
278.574	0.47
278.946	0.49
279.318	0.34
279.69	0.41
280.061	0.3
280.433	0.45
280.805	0.39
281.176	0.28
281.548	0.42
281.92	0.37
282.291	0.38
282.663	0.32
283.034	0.36
283.406	0.33
283.777	0.39
284.148	0.37
284.52	0.41
284.891	0.31
285.262	0.37
285.634	0.36
286.005	0.41
286.376	0.4
286.747	0.38
287.119	0.32
287.49	0.36
287.861	0.32
288.232	0.38
288.603	0.37
288.974	0.32
289.345	0.33
289.716	0.37
290.087	0.44
290.458	0.31
290.829	0.39
291.2	0.34
291.571	0.36
291.941	0.42
292.312	0.39
292.683	0.39
293.054	0.33
293.424	0.38
293.795	0.33
294.166	0.45
294.536	0.42
294.907	0.44
295.277	0.41
295.648	0.4
296.018	0.42
296.389	0.32
296.759	0.39
297.13	0.38
297.5	0.45
297.871	0.47
298.241	0.39
298.611	0.42
298.981	0.39
299.352	0.39
299.722	0.39
300.092	0.46
300.462	0.3
300.832	0.42
301.202	0.38
301.573	0.37
301.943	0.32
302.313	0.39
302.683	0.32
303.053	0.36
303.422	0.36
303.792	0.38
304.162	0.35
304.532	0.31
304.902	0.36
305.272	0.35
305.641	0.37
306.011	0.36
306.381	0.43
306.75	0.31
307.12	0.38
307.49	0.38
307.859	0.3
308.229	0.29
308.598	0.29
308.968	0.29
309.337	0.31
309.707	0.33
310.076	0.33
310.445	0.29
310.815	0.29
311.184	0.3
311.553	0.3
311.923	0.26
312.292	0.29
312.661	0.31
313.03	0.3
313.399	0.27
313.768	0.29
314.137	0.28
314.506	0.29
314.875	0.29
315.244	0.31
315.613	0.32
315.982	0.33
316.351	0.34
316.72	0.31
317.089	0.34
317.458	0.34
317.826	0.33
318.195	0.35
318.564	0.36
318.933	0.36
319.301	0.36
319.67	0.36
320.038	0.36
320.407	0.38
320.775	0.36
321.144	0.38
321.512	0.38
321.881	0.38
322.249	0.38
322.618	0.39
322.986	0.39
323.354	0.39
323.723	0.42
324.091	0.42
324.459	0.43
324.827	0.43
325.195	0.44
325.564	0.46
325.932	0.45
326.3	0.46
326.668	0.46
327.036	0.47
327.404	0.48
327.772	0.49
328.14	0.49
328.508	0.52
328.875	0.5
329.243	0.52
329.611	0.52
329.979	0.53
330.346	0.54
330.714	0.54
331.082	0.54
331.449	0.56
331.817	0.57
332.185	0.59
332.552	0.59
332.92	0.6
333.287	0.62
333.655	0.62
334.022	0.64
334.389	0.66
334.757	0.67
335.124	0.68
335.491	0.69
335.859	0.71
336.226	0.71
336.593	0.72
336.96	0.74
337.327	0.76
337.695	0.76
338.062	0.77
338.429	0.78
338.796	0.81
339.163	0.82
339.53	0.84
339.897	0.85
340.263	0.87
340.63	0.88
340.997	0.9
341.364	0.9
341.731	0.92
342.097	0.94
342.464	0.96
342.831	0.98
343.197	0.99
343.564	1.01
343.931	1.01
344.297	1.03
344.664	1.05
345.03	1.07
345.396	1.08
345.763	1.1
346.129	1.11
346.496	1.13
346.862	1.14
347.228	1.15
347.594	1.17
347.961	1.19
348.327	1.2
348.693	1.22
349.059	1.24
349.425	1.24
349.791	1.26
350.157	1.27
350.523	1.28
350.889	1.3
351.255	1.31
351.621	1.32
351.987	1.33
352.353	1.35
352.719	1.36
353.084	1.38
353.45	1.41
353.816	1.42
354.181	1.42
354.547	1.42
354.913	1.47
355.278	1.49
355.644	1.49
356.009	1.51
356.375	1.53
356.74	1.53
357.106	1.56
357.471	1.57
357.836	1.61
358.202	1.6
358.567	1.65
358.932	1.65
359.297	1.64
359.663	1.66
360.028	1.71
360.393	1.69
360.758	1.72
361.123	1.74
361.488	1.74
361.853	1.8
362.218	1.78
362.583	1.84
362.948	1.78
363.312	1.83
363.677	1.83
364.042	1.85
364.407	1.89
364.772	1.88
365.136	1.85
365.501	1.9
365.865	1.91
366.23	1.87
366.595	1.94
366.959	1.94
367.324	1.92
367.688	1.95
368.052	1.97
368.417	1.98
368.781	2.02
369.145	2
369.51	1.99
369.874	2
370.238	2.09
370.602	1.97
370.967	2
371.331	2.02
371.695	1.99
372.059	2.04
372.423	2.03
372.787	2
373.151	1.96
373.515	2
373.878	1.98
374.242	1.98
374.606	2.09
374.97	2.02
375.334	1.93
375.697	1.96
376.061	1.97
376.425	1.94
376.788	1.93
377.152	1.99
377.515	1.93
377.879	1.9
378.242	1.94
378.606	1.94
378.969	1.84
379.333	1.86
379.696	1.82
380.059	1.84
380.422	1.86
380.786	1.84
381.149	1.78
381.512	1.77
381.875	1.72
382.238	1.71
382.601	1.71
382.964	1.7
383.327	1.7
383.69	1.66
384.053	1.65
384.416	1.61
384.779	1.63
385.142	1.58
385.504	1.57
385.867	1.57
386.23	1.56
386.593	1.56
386.955	1.57
387.318	1.53
387.68	1.53
388.043	1.5
388.405	1.51
388.768	1.49
389.13	1.49
389.493	1.49
389.855	1.47
390.217	1.46
390.58	1.45
390.942	1.42
391.304	1.41
391.666	1.4
392.028	1.37
392.391	1.35
392.753	1.34
393.115	1.32
393.477	1.31
393.839	1.28
394.201	1.27
394.563	1.27
394.924	1.27
395.286	1.28
395.648	1.27
396.01	1.26
396.371	1.27
396.733	1.29
397.095	1.3
397.456	1.32
397.818	1.33
398.18	1.37
398.541	1.4
398.903	1.43
399.264	1.46
399.625	1.47
399.987	1.49
400.348	1.51
400.709	1.54
401.071	1.55
401.432	1.53
401.793	1.55
402.154	1.53
402.515	1.53
402.876	1.48
403.238	1.47
403.599	1.42
403.96	1.35
404.32	1.31
404.681	1.3
405.042	1.27
405.403	1.21
405.764	1.15
406.125	1.08
406.485	1.04
406.846	0.99
407.207	0.95
407.567	0.9
407.928	0.85
408.288	0.8
408.649	0.77
409.009	0.72
409.37	0.68
409.73	0.65
410.091	0.61
410.451	0.59
410.811	0.56
411.171	0.54
411.532	0.5
411.892	0.49
412.252	0.46
412.612	0.44
412.972	0.42
413.332	0.4
413.692	0.39
414.052	0.37
414.412	0.36
414.772	0.36
415.132	0.33
415.492	0.33
415.851	0.32
416.211	0.3
416.571	0.3
416.931	0.29
417.29	0.27
417.65	0.27
418.009	0.26
418.369	0.26
418.728	0.26
419.088	0.25
419.447	0.24
419.807	0.24
420.166	0.24
420.525	0.22
420.884	0.22
421.244	0.22
421.603	0.22
421.962	0.21
422.321	0.21
422.68	0.21
423.039	0.21
423.398	0.19
423.757	0.2
424.116	0.2
424.475	0.19
424.834	0.19
425.193	0.19
425.551	0.19
425.91	0.18
426.269	0.18
426.628	0.18
426.986	0.19
427.345	0.18
427.703	0.18
428.062	0.17
428.42	0.18
428.779	0.18
429.137	0.17
429.496	0.17
429.854	0.17
430.212	0.17
430.57	0.17
430.929	0.17
431.287	0.16
431.645	0.17
432.003	0.16
432.361	0.17
432.719	0.16
433.077	0.17
433.435	0.17
433.793	0.17
434.151	0.17
434.509	0.16
434.866	0.15
435.224	0.16
435.582	0.16
435.94	0.16
436.297	0.16
436.655	0.17
437.012	0.16
437.37	0.17
437.727	0.16
438.085	0.16
438.442	0.16
438.8	0.16
439.157	0.16
439.514	0.17
439.872	0.17
440.229	0.16
440.586	0.16
440.943	0.17
441.3	0.16
441.657	0.17
442.014	0.18
442.371	0.16
442.728	0.17
443.085	0.16
443.442	0.16
443.799	0.17
444.156	0.17
444.513	0.17
444.869	0.17
445.226	0.17
445.583	0.18
445.939	0.18
446.296	0.17
446.652	0.17
447.009	0.17
447.365	0.17
447.722	0.17
448.078	0.17
448.434	0.18
448.791	0.18
449.147	0.18
449.503	0.18
449.859	0.17
450.215	0.18
450.571	0.17
450.928	0.18
451.284	0.18
451.64	0.17
451.995	0.19
452.351	0.18
452.707	0.18
453.063	0.17
453.419	0.18
453.775	0.18
454.13	0.18
454.486	0.18
454.842	0.17
455.197	0.17
455.553	0.17
455.908	0.16
456.264	0.16
456.619	0.17
456.975	0.17
457.33	0.17
457.685	0.16
458.04	0.17
458.396	0.15
458.751	0.16
459.106	0.14
459.461	0.15
459.816	0.14
460.171	0.15
460.526	0.14
460.881	0.13
461.236	0.13
461.591	0.14
461.946	0.13
462.301	0.14
462.655	0.13
463.01	0.13
463.365	0.13
463.719	0.11
464.074	0.12
464.428	0.11
464.783	0.1
465.137	0.11
465.492	0.11
465.846	0.1
466.201	0.11
466.555	0.11
466.909	0.11
467.263	0.12
467.618	0.12
467.972	0.13
468.326	0.13
468.68	0.12
469.034	0.12
469.388	0.11
469.742	0.12
470.096	0.12
470.45	0.13
470.804	0.13
471.157	0.13
471.511	0.13
471.865	0.13
472.218	0.14
472.572	0.15
472.926	0.16
473.279	0.16
473.633	0.17
473.986	0.18
474.34	0.19
474.693	0.2
475.046	0.2
475.4	0.22
475.753	0.23
476.106	0.24
476.459	0.25
476.812	0.26
477.165	0.27
477.519	0.28
477.872	0.29
478.224	0.29
478.577	0.3
478.93	0.31
479.283	0.31
479.636	0.32
479.989	0.34
480.341	0.34
480.694	0.35
481.047	0.36
481.399	0.36
481.752	0.38
482.104	0.38
482.457	0.39
482.809	0.39
483.162	0.4
483.514	0.4
483.866	0.41
484.219	0.42
484.571	0.42
484.923	0.42
485.275	0.44
485.627	0.44
485.979	0.45
486.331	0.45
486.683	0.47
487.035	0.46
487.387	0.47
487.739	0.49
488.091	0.5
488.443	0.5
488.794	0.5
489.146	0.5
489.498	0.51
489.849	0.51
490.201	0.52
490.552	0.52
490.904	0.53
491.255	0.53
491.607	0.54
491.958	0.54
492.309	0.54
492.661	0.55
493.012	0.56
493.363	0.56
493.714	0.56
494.065	0.57
494.416	0.58
494.767	0.58
495.118	0.58
495.469	0.59
495.82	0.6
496.171	0.61
496.522	0.61
496.872	0.62
497.223	0.62
497.574	0.62
497.924	0.63
498.275	0.64
498.626	0.64
498.976	0.64
499.327	0.65
499.677	0.65
500.027	0.66
500.378	0.66
500.728	0.67
501.078	0.67
501.428	0.68
501.779	0.68
502.129	0.68
502.479	0.69
502.829	0.69
503.179	0.7
503.529	0.71
503.879	0.72
504.229	0.72
504.578	0.73
504.928	0.73
505.278	0.73
505.628	0.74
505.977	0.75
506.327	0.75
506.676	0.75
507.026	0.76
507.375	0.76
507.725	0.76
508.074	0.77
508.424	0.78
508.773	0.78
509.122	0.78
509.471	0.79
509.82	0.79
510.17	0.8
510.519	0.8
510.868	0.8
511.217	0.81
511.566	0.81
511.915	0.8
512.263	0.83
512.612	0.82
512.961	0.83
513.31	0.83
513.659	0.84
514.007	0.84
514.356	0.85
514.704	0.85
515.053	0.86
515.401	0.84
515.75	0.86
516.098	0.87
516.447	0.87
516.795	0.87
517.143	0.88
517.491	0.87
517.839	0.88
518.188	0.88
518.536	0.88
518.884	0.89
519.232	0.9
519.58	0.9
519.928	0.9
520.275	0.9
520.623	0.92
520.971	0.93
521.319	0.92
521.666	0.92
522.014	0.92
522.362	0.92
522.709	0.93
523.057	0.93
523.404	0.93
523.752	0.93
524.099	0.94
524.446	0.95
524.794	0.94
525.141	0.95
525.488	0.95
525.835	0.95
526.182	0.96
526.529	0.97
526.876	0.96
527.223	0.96
527.57	0.97
527.917	0.97
528.264	0.97
528.611	0.98
528.958	0.97
529.304	0.98
529.651	0.99
529.998	0.98
530.344	0.99
530.691	0.99
531.037	1
531.384	1
531.73	1.01
532.076	1.01
532.423	0.99
532.769	0.99
533.115	1.01
533.461	1.01
533.807	1.02
534.154	1.02
534.5	1.02
534.846	1.02
535.192	1.01
535.537	1.01
535.883	1.02
536.229	1.03
536.575	1.02
536.921	1.03
537.266	1.03
537.612	1.04
537.957	1.03
538.303	1.03
538.649	1.03
538.994	1.03
539.339	1.04
539.685	1.05
540.03	1.04
540.375	1.03
540.721	1.05
541.066	1.05
541.411	1.05
541.756	1.06
542.101	1.06
542.446	1.04
542.791	1.06
543.136	1.05
543.481	1.05
543.825	1.04
544.17	1.05
544.515	1.06
544.86	1.06
545.204	1.06
545.549	1.05
545.893	1.06
546.238	1.06
546.582	1.07
546.927	1.06
547.271	1.06
547.615	1.07
547.96	1.06
548.304	1.06
548.648	1.07
548.992	1.06
549.336	1.06
549.68	1.07
550.024	1.07
550.368	1.07
550.712	1.07
551.056	1.06
551.4	1.07
551.743	1.07
552.087	1.06
552.431	1.07
552.774	1.06
553.118	1.07
553.462	1.07
553.805	1.06
554.148	1.06
554.492	1.07
554.835	1.06
555.178	1.06
555.522	1.07
555.865	1.06
556.208	1.06
556.551	1.06
556.894	1.06
557.237	1.06
557.58	1.05
557.923	1.06
558.266	1.06
558.609	1.06
558.952	1.06
559.294	1.06
559.637	1.05
559.98	1.05
560.322	1.06
560.665	1.05
561.007	1.04
561.35	1.04
561.692	1.04
562.034	1.04
562.377	1.04
562.719	1.04
563.061	1.04
563.403	1.04
563.745	1.04
564.088	1.04
564.43	1.03
564.772	1.03
565.113	1.03
565.455	1.03
565.797	1.03
566.139	1.04
566.481	1.03
566.822	1.02
567.164	1.02
567.506	1.02
567.847	1.02
568.189	1.02
568.53	1.03
568.872	1.02
569.213	1.01
569.554	1.01
569.895	1.01
570.237	1.01
570.578	1.01
570.919	1
571.26	1
571.601	1
571.942	1
572.283	1
572.624	1
572.965	0.99
573.306	0.98
573.646	0.98
573.987	0.98
574.328	0.98
574.668	0.98
575.009	0.98
575.349	0.97
575.69	0.97
576.03	0.97
576.37	0.96
576.711	0.96
577.051	0.96
577.391	0.96
577.731	0.96
578.072	0.96
578.412	0.95
578.752	0.95
579.092	0.94
579.431	0.93
579.771	0.92
580.111	0.91
580.451	0.93
580.791	0.94
581.13	0.94
581.47	0.94
581.81	0.93
582.149	0.93
582.489	0.93
582.828	0.91
583.167	0.88
583.507	0.84
583.846	0.84
584.185	0.89
584.525	0.91
584.864	0.92
585.203	0.93
585.542	0.92
585.881	0.92
586.22	0.91
586.559	0.91
586.898	0.89
587.236	0.89
587.575	0.89
587.914	0.9
588.252	0.91
588.591	0.91
588.93	0.91
589.268	0.89
589.607	0.9
589.945	0.9
590.283	0.9
590.622	0.91
590.96	0.91
591.298	0.9
591.636	0.91
591.974	0.9
592.313	0.9
592.651	0.9
592.989	0.9
593.326	0.9
593.664	0.91
594.002	0.9
594.34	0.9
594.678	0.89
595.015	0.89
595.353	0.88
595.691	0.89
596.028	0.9
596.366	0.89
596.703	0.89
597.04	0.89
597.378	0.89
597.715	0.89
598.052	0.9
598.389	0.89
598.726	0.89
599.064	0.89
599.401	0.89
599.738	0.89
600.074	0.89
600.411	0.88
600.748	0.88
601.085	0.87
601.422	0.87
601.758	0.87
602.095	0.87
602.432	0.87
602.768	0.87
603.105	0.87
603.441	0.87
603.777	0.87
604.114	0.87
604.45	0.88
604.786	0.86
605.122	0.86
605.459	0.86
605.795	0.86
606.131	0.86
606.467	0.86
606.803	0.85
607.139	0.86
607.474	0.85
607.81	0.85
608.146	0.84
608.482	0.85
608.817	0.84
609.153	0.84
609.488	0.83
609.824	0.83
610.159	0.83
610.495	0.83
610.83	0.84
611.165	0.82
611.5	0.82
611.836	0.81
612.171	0.81
612.506	0.81
612.841	0.81
613.176	0.81
613.511	0.8
613.845	0.8
614.18	0.8
614.515	0.79
614.85	0.79
615.184	0.79
615.519	0.79
615.854	0.79
616.188	0.78
616.523	0.77
616.857	0.77
617.191	0.77
617.526	0.78
617.86	0.77
618.194	0.76
618.528	0.77
618.862	0.77
619.196	0.76
619.53	0.76
619.864	0.76
620.198	0.75
620.532	0.75
620.866	0.75
621.2	0.74
621.533	0.74
621.867	0.73
622.201	0.73
622.534	0.73
622.868	0.73
623.201	0.72
623.534	0.72
623.868	0.71
624.201	0.72
624.534	0.72
624.868	0.71
625.201	0.71
625.534	0.7
625.867	0.7
626.2	0.69
626.533	0.69
626.865	0.69
627.198	0.69
627.531	0.69
627.864	0.69
628.196	0.68
628.529	0.68
628.862	0.68
629.194	0.67
629.527	0.67
629.859	0.66
630.191	0.66
630.524	0.66
630.856	0.65
631.188	0.65
631.52	0.65
631.852	0.64
632.184	0.63
632.516	0.63
632.848	0.63
633.18	0.62
633.512	0.62
633.844	0.62
634.175	0.61
634.507	0.61
634.839	0.6
635.17	0.61
635.502	0.6
635.833	0.6
636.165	0.59
636.496	0.58
636.827	0.58
637.159	0.58
637.49	0.58
637.821	0.57
638.152	0.57
638.483	0.56
638.814	0.56
639.145	0.56
639.476	0.55
639.807	0.55
640.137	0.54
640.468	0.54
640.799	0.54
641.129	0.53
641.46	0.53
641.791	0.53
642.121	0.52
642.451	0.53
642.782	0.52
643.112	0.52
643.442	0.51
643.773	0.51
644.103	0.5
644.433	0.5
644.763	0.5
645.093	0.5
645.423	0.5
645.753	0.5
646.082	0.49
646.412	0.49
646.742	0.49
647.072	0.48
647.401	0.48
647.731	0.48
648.06	0.48
648.39	0.48
648.719	0.48
649.048	0.48
649.378	0.47
649.707	0.47
650.036	0.47
650.365	0.46
650.694	0.46
651.023	0.46
651.352	0.46
651.681	0.46
652.01	0.45
652.339	0.45
652.668	0.45
652.996	0.45
653.325	0.44
653.654	0.45
653.982	0.44
654.311	0.45
654.639	0.44
654.967	0.44
655.296	0.44
655.624	0.44
655.952	0.44
656.28	0.43
656.609	0.43
656.937	0.43
657.265	0.41
657.593	0.25
657.92	0.16
658.248	0.13
658.576	0.21
658.904	0.34
659.231	0.41
659.559	0.42
659.887	0.42
660.214	0.41
660.542	0.41
660.869	0.41
661.196	0.41
661.524	0.41
661.851	0.41
662.178	0.4
662.505	0.4
662.832	0.4
663.159	0.4
663.486	0.4
663.813	0.4
664.14	0.39
664.467	0.39
664.794	0.39
665.12	0.39
665.447	0.39
665.774	0.39
666.1	0.39
666.427	0.38
666.753	0.38
667.079	0.38
667.406	0.37
667.732	0.37
668.058	0.37
668.384	0.37
668.71	0.37
669.036	0.37
669.362	0.37
669.688	0.36
670.014	0.36
670.34	0.35
670.666	0.35
670.991	0.35
671.317	0.35
671.643	0.34
671.968	0.34
672.294	0.34
672.619	0.34
672.945	0.34
673.27	0.33
673.595	0.33
673.92	0.32
674.246	0.32
674.571	0.33
674.896	0.32
675.221	0.31
675.546	0.31
675.87	0.31
676.195	0.31
676.52	0.32
676.845	0.31
677.169	0.31
677.494	0.3
677.819	0.3
678.143	0.29
678.468	0.29
678.792	0.29
679.116	0.29
679.44	0.29
679.765	0.28
680.089	0.28
680.413	0.27
680.737	0.27
681.061	0.27
681.385	0.27
681.709	0.26
682.033	0.26
682.356	0.26
682.68	0.26
683.004	0.26
683.327	0.25
683.651	0.25
683.974	0.24
684.298	0.25
684.621	0.24
684.944	0.24
685.268	0.23
685.591	0.23
685.914	0.23
686.237	0.23
686.56	0.23
686.883	0.22
687.206	0.22
687.529	0.22
687.852	0.21
688.175	0.21
688.497	0.21
688.82	0.21
689.142	0.21
689.465	0.21
689.787	0.2
690.11	0.2
690.432	0.2
690.755	0.2
691.077	0.19
691.399	0.19
691.721	0.19
692.043	0.18
692.365	0.19
692.687	0.18
693.009	0.18
693.331	0.17
693.653	0.17
693.974	0.17
694.296	0.17
694.618	0.17
694.939	0.16
695.261	0.16
695.582	0.16
695.904	0.16
696.225	0.16
696.546	0.16
696.868	0.16
697.189	0.15
697.51	0.15
697.831	0.15
698.152	0.15
698.473	0.14
698.794	0.14
699.114	0.14
699.435	0.13
699.756	0.13
700.077	0.14
700.397	0.14
700.718	0.13
701.038	0.14
701.359	0.14
701.679	0.14
701.999	0.14
702.32	0.13
702.64	0.13
702.96	0.13
703.28	0.13
703.6	0.13
703.92	0.13
704.24	0.13
704.56	0.12
704.879	0.12
705.199	0.13
705.519	0.12
705.838	0.12
706.158	0.12
706.478	0.12
706.797	0.13
707.116	0.12
707.436	0.12
707.755	0.12
708.074	0.12
708.393	0.12
708.712	0.11
709.031	0.1
709.35	0.1
709.669	0.1
709.988	0.1
710.307	0.11
710.626	0.11
710.944	0.12
711.263	0.11
711.582	0.12
711.9	0.12
712.219	0.11
712.537	0.11
712.855	0.11
713.174	0.11
713.492	0.11
713.81	0.12
714.128	0.12
714.446	0.11
714.764	0.11
715.082	0.1
715.4	0.11
715.718	0.11
716.035	0.11
716.353	0.11
716.671	0.11
716.988	0.12
717.306	0.11
717.623	0.12
717.941	0.12
718.258	0.12
718.575	0.12
718.893	0.12
719.21	0.12
719.527	0.12
719.844	0.12
720.161	0.12
720.478	0.12
720.795	0.12
721.112	0.12
721.428	0.12
721.745	0.12
722.062	0.12
722.378	0.13
722.695	0.12
723.011	0.12
723.328	0.12
723.644	0.12
723.96	0.12
724.276	0.12
724.593	0.12
724.909	0.12
725.225	0.12
725.541	0.13
725.857	0.12
726.173	0.12
726.488	0.12
726.804	0.12
727.12	0.12
727.435	0.12
727.751	0.12
728.067	0.12
728.382	0.12
728.697	0.12
729.013	0.12
729.328	0.12
729.643	0.12
729.958	0.11
730.273	0.12
730.588	0.12
730.903	0.12
731.218	0.12
731.533	0.12
731.848	0.12
732.163	0.12
732.477	0.11
732.792	0.11
733.107	0.11
733.421	0.11
733.736	0.11
734.05	0.11
734.364	0.11
734.678	0.11
734.993	0.11
735.307	0.11
735.621	0.11
735.935	0.11
736.249	0.11
736.563	0.11
736.877	0.11
737.19	0.11
737.504	0.11
737.818	0.11
738.131	0.11
738.445	0.11
738.758	0.11
739.072	0.11
739.385	0.12
739.698	0.12
740.012	0.12
740.325	0.11
740.638	0.11
740.951	0.11
741.264	0.11
741.577	0.11
741.89	0.11
742.203	0.11
742.515	0.11
742.828	0.11
743.141	0.11
743.453	0.11
743.766	0.11
744.078	0.1
744.391	0.1
744.703	0.1
745.015	0.1
745.327	0.1
745.639	0.1
745.952	0.1
746.264	0.1
746.575	0.1
746.887	0.1
747.199	0.1
747.511	0.09
747.823	0.09
748.134	0.09
748.446	0.09
748.757	0.09
749.069	0.09
749.38	0.09
749.692	0.08
750.003	0.08
750.314	0.07
750.625	0.08
750.936	0.08
751.248	0.08
751.559	0.08
751.869	0.08
752.18	0.08
752.491	0.08
752.802	0.08
753.112	0.08
753.423	0.07
753.734	0.07
754.044	0.07
754.355	0.07
754.665	0.07
754.975	0.06
755.285	0.06
755.596	0.07
755.906	0.07
756.216	0.06
756.526	0.07
756.836	0.07
757.146	0.07
757.455	0.06
757.765	0.07
758.075	0.06
758.385	0.06
758.694	0.06
759.004	0.06
759.313	0.05
759.622	0.06
759.932	0.06
760.241	0.06
760.55	0.06
760.859	0.06
761.168	0.06
761.477	0.06
761.786	0.06
762.095	0.06
762.404	0.06
762.713	0.06
763.021	0.06
763.33	0.06
763.639	0.06
763.947	0.06
764.256	0.06
764.564	0.06
764.872	0.06
765.181	0.06
765.489	0.06
765.797	0.06
766.105	0.05
766.413	0.06
766.721	0.06
767.029	0.06
767.337	0.06
767.644	0.06
767.952	0.06
768.26	0.06
768.567	0.06
768.875	0.06
769.182	0.06
769.49	0.06
769.797	0.06
770.104	0.06
770.411	0.06
770.718	0.06
771.026	0.06
771.333	0.06
771.639	0.05
771.946	0.05
772.253	0.06
772.56	0.06
772.867	0.06
773.173	0.06
773.48	0.06
773.786	0.06
774.093	0.06
774.399	0.06
774.705	0.06
775.012	0.06
775.318	0.06
775.624	0.06
775.93	0.06
776.236	0.06
776.542	0.07
776.848	0.07
777.154	0.07
777.459	0.07
777.765	0.07
778.071	0.07
778.376	0.06
778.682	0.06
778.987	0.06
779.292	0.06
779.598	0.06
779.903	0.06
780.208	0.06
780.513	0.06
780.818	0.06
781.123	0.06
781.428	0.06
781.733	0.06
782.038	0.06
782.343	0.06
782.647	0.06
782.952	0.06
783.256	0.06
783.561	0.05
783.865	0.05
784.17	0.05
784.474	0.05
784.778	0.05
785.082	0.05
785.386	0.06
785.69	0.06
785.994	0.06
786.298	0.06
786.602	0.06
786.906	0.06
787.209	0.06
787.513	0.06
787.817	0.07
788.12	0.07
788.424	0.07
788.727	0.07
789.03	0.07
789.333	0.07
789.637	0.07
789.94	0.07
790.243	0.07
790.546	0.07
790.849	0.07
791.152	0.07
791.454	0.08
791.757	0.07
792.06	0.08
792.362	0.08
792.665	0.07
792.967	0.07
793.27	0.07
793.572	0.07
793.874	0.08
794.177	0.08
794.479	0.07
794.781	0.08
795.083	0.08
795.385	0.08
795.687	0.08
795.989	0.09
796.29	0.08
796.592	0.09
796.894	0.09
797.195	0.08
797.497	0.08
797.798	0.08
798.1	0.08
798.401	0.08
798.702	0.08
799.003	0.08
799.304	0.08
799.605	0.08
799.906	0.08
800.207	0.08
800.508	0.08
800.809	0.08
801.11	0.08
801.41	0.09
801.711	0.08
802.011	0.09
802.312	0.09
802.612	0.09
802.913	0.09
803.213	0.09
803.513	0.09
803.813	0.09
804.113	0.08
804.413	0.09
804.713	0.09
805.013	0.09
805.313	0.1
805.613	0.09
805.912	0.09
806.212	0.09
806.511	0.09
806.811	0.09
807.11	0.1
807.41	0.09
807.709	0.09
808.008	0.1
808.307	0.1
808.606	0.09
808.905	0.09
809.204	0.09
809.503	0.09
809.802	0.09
810.101	0.09
810.399	0.1
810.698	0.09
810.997	0.1
811.295	0.1
811.593	0.1
811.892	0.11
812.19	0.1
812.488	0.1
812.786	0.1
813.084	0.1
813.383	0.1
813.68	0.11
813.978	0.1
814.276	0.11
814.574	0.11
814.872	0.1
815.169	0.11
815.467	0.1
815.764	0.1
816.062	0.1
816.359	0.1
816.656	0.1
816.954	0.1
817.251	0.11
817.548	0.11
817.845	0.11
818.142	0.11
818.439	0.11
818.735	0.11
819.032	0.11
819.329	0.12
819.626	0.12
819.922	0.12
820.219	0.12
820.515	0.12
820.811	0.12
821.108	0.12
821.404	0.12
821.7	0.12
821.996	0.12
822.292	0.12
822.588	0.12
822.884	0.13
823.18	0.13
823.475	0.13
823.771	0.13
824.067	0.13
824.362	0.14
824.658	0.14
824.953	0.13
825.249	0.13
825.544	0.13
825.839	0.13
826.134	0.12
826.429	0.13
826.724	0.13
827.019	0.13
827.314	0.13
827.609	0.14
827.904	0.13
828.198	0.13
828.493	0.14
828.787	0.14
829.082	0.14
829.376	0.14
829.671	0.15
829.965	0.15
830.259	0.15
830.553	0.15
830.847	0.15
831.141	0.15
831.435	0.15
831.729	0.15
832.023	0.15
832.317	0.15
832.61	0.15
832.904	0.15
833.197	0.15
833.491	0.15
833.784	0.15
834.077	0.15
834.371	0.15
834.664	0.15
834.957	0.15
835.25	0.15
835.543	0.15
835.836	0.16
836.129	0.16
836.421	0.15
836.714	0.15
837.007	0.16
837.299	0.15
837.592	0.15
837.884	0.16
838.177	0.16
838.469	0.16
838.761	0.16
839.053	0.16
839.345	0.16
839.637	0.15
839.929	0.16
840.221	0.16
840.513	0.16
840.805	0.17
841.096	0.17
841.388	0.17
841.68	0.17
841.971	0.17
842.262	0.17
842.554	0.17
842.845	0.16
843.136	0.16
843.427	0.17
843.718	0.17
844.009	0.16
844.3	0.18
844.591	0.16
844.882	0.18
845.173	0.18
845.463	0.17
845.754	0.18
846.044	0.17
846.335	0.17
846.625	0.17
846.915	0.17
847.206	0.17
847.496	0.18
847.786	0.17
848.076	0.17
848.366	0.17
848.656	0.17
848.945	0.17
849.235	0.17
849.525	0.16
849.814	0.17
850.104	0.16
850.393	0.19
850.683	0.19
850.972	0.18
851.261	0.18
851.551	0.19
851.84	0.19
852.129	0.18
852.418	0.19
852.707	0.19
852.995	0.18
853.284	0.18
853.573	0.17
853.862	0.17
854.15	0.18
854.439	0.17
854.727	0.18
855.015	0.18
855.304	0.19
855.592	0.19
855.88	0.2
856.168	0.18
856.456	0.19
856.744	0.17
857.032	0.18
857.32	0.18
857.607	0.19
857.895	0.19
858.183	0.21
858.47	0.21
858.757	0.19
859.045	0.2
859.332	0.19
859.619	0.19
859.907	0.2
860.194	0.18
860.481	0.2
860.768	0.2
861.054	0.19
861.341	0.19
861.628	0.21
861.915	0.21
862.201	0.2
862.488	0.2
862.774	0.21
863.061	0.22
863.347	0.19
863.633	0.21
863.919	0.17
864.205	0.19
864.491	0.2
864.777	0.24
865.063	0.2
865.349	0.2
865.635	0.22
865.92	0.2
866.206	0.2
866.492	0.21
866.777	0.23
867.062	0.24
867.348	0.21
867.633	0.17
867.918	0.21
868.203	0.18
868.488	0.21
868.773	0.24
869.058	0.25
869.343	0.2
869.628	0.22
869.912	0.19
870.197	0.21
870.482	0.22
870.766	0.23
871.05	0.2
871.335	0.19
871.619	0.2
871.903	0.22
872.187	0.23
872.471	0.21
872.755	0.26
873.039	0.19
873.323	0.24
873.607	0.21
873.89	0.18
874.174	0.25
874.458	0.22
874.741	0.17
875.024	0.19
875.308	0.25
875.591	0.18
875.874	0.22
876.157	0.22
876.44	0.14
876.723	0.14
877.006	0.32
877.289	0.15
877.572	0.28
877.854	0.24
878.137	0.19
878.42	0.11
878.702	0.15
878.984	0.27
879.267	0.26
879.549	0.13
879.831	0.2
880.113	0.29
880.395	0.12
880.677	0.14
880.959	0.21
