Data from Rubpy_EV_EDTA_Test_Absorbance_16-47-23-057.txt Node
Date: Thu Jun 25 16:47:23 BST 2026
User: fpm-admin
Spectrometer: OFX00224
Trigger mode: 0
Integration Time (sec): 6.000000E-2
Scans to average: 1
Nonlinearity correction enabled: false
Boxcar width: 0
Storing dark spectrum: false
XAxis mode: Wavelengths
Number of Pixels in Spectrum: 2136
>>>>>Begin Spectral Data<<<<<
154.91	-0.15
155.289	-0
155.669	-0
156.048	0.16
156.428	-0.68
156.807	-0.05
157.186	0.3
157.566	0.73
157.945	-0
158.325	1.18
158.704	0.35
159.083	-0.23
159.462	-0.21
159.842	-0.02
160.221	-0.67
160.6	-0.6
160.979	1.13
161.359	0.15
161.738	-0
162.117	0.78
162.496	-0
162.875	0.15
163.254	-0
163.633	-0
164.012	0.16
164.391	-0.26
164.77	0.66
165.149	-0
165.528	-0
165.907	0.22
166.286	-0
166.665	-0
167.044	-0
167.423	-0.15
167.802	-0
168.181	-0
168.559	-0
168.938	-0.51
169.317	-0.6
169.696	-0
170.074	0.15
170.453	0.45
170.832	0.08
171.21	-0.78
171.589	-0
171.968	-0
172.346	-0.08
172.725	-0.3
173.103	-0
173.482	-0
173.861	-0
174.239	-0.78
174.617	-0
174.996	-0.04
175.374	-0
175.753	-0
176.131	0.15
176.51	0.23
176.888	-0.95
177.266	-0
177.645	0.12
178.023	0.77
178.401	-0.23
178.779	-0.3
179.158	-0.16
179.536	0.17
179.914	1.15
180.292	0.04
180.67	-0
181.048	-0
181.427	-0
181.805	0.3
182.183	-0.25
182.561	-0
182.939	0.07
183.317	0.1
183.695	-0
184.073	0.4
184.451	0.4
184.829	-0.05
185.206	-0
185.584	-0
185.962	-0
186.34	-0.48
186.718	-0
187.096	-0
187.473	0.62
187.851	0.7
188.229	-0.2
188.607	0.47
188.984	0.31
189.362	0.49
189.74	0.34
190.117	0.29
190.495	0.73
190.872	0.5
191.25	0.29
191.627	0.17
192.005	0.42
192.382	0.41
192.76	0.33
193.137	0.3
193.515	0.18
193.892	0.22
194.269	0.29
194.647	0.4
195.024	0.4
195.401	0.53
195.779	0.39
196.156	0.49
196.533	0.48
196.91	0.5
197.288	0.44
197.665	0.59
198.042	0.37
198.419	0.32
198.796	0.46
199.173	0.34
199.55	0.28
199.927	0.61
200.304	0.38
200.681	0.39
201.058	0.46
201.435	0.43
201.812	0.34
202.189	0.76
202.566	0.21
202.943	0.5
203.32	0.65
203.697	0.34
204.073	0.5
204.45	0.54
204.827	0.55
205.204	0.58
205.58	0.56
205.957	0.43
206.334	0.28
206.71	0.27
207.087	0.53
207.464	0.36
207.84	0.36
208.217	0.64
208.593	0.33
208.97	0.47
209.346	0.24
209.723	0.61
210.099	0.96
210.476	0.53
210.852	0.62
211.228	0.34
211.605	0.48
211.981	0.59
212.357	0.17
212.733	0.71
213.11	0.55
213.486	0.39
213.862	0.45
214.238	0.41
214.614	0.29
214.991	0.41
215.367	0.4
215.743	0.33
216.119	1.02
216.495	1.31
216.871	0.24
217.247	0.55
217.623	0.55
217.999	0.6
218.375	0.69
218.751	0.52
219.127	0.52
219.502	0.38
219.878	0.47
220.254	0.5
220.63	0.44
221.006	0.39
221.381	0.48
221.757	0.41
222.133	0.48
222.508	0.45
222.884	0.43
223.26	0.58
223.635	0.52
224.011	0.51
224.386	0.39
224.762	0.4
225.137	0.51
225.513	0.42
225.888	0.29
226.264	0.66
226.639	0.43
227.014	0.37
227.39	0.49
227.765	0.56
228.14	0.61
228.516	0.54
228.891	0.54
229.266	0.49
229.641	0.57
230.017	0.6
230.392	0.63
230.767	0.4
231.142	0.31
231.517	0.46
231.892	0.44
232.267	0.56
232.642	0.87
233.017	0.45
233.392	0.5
233.767	0.56
234.142	0.65
234.517	0.52
234.892	0.54
235.267	0.48
235.641	0.57
236.016	0.54
236.391	0.67
236.766	0.65
237.14	0.59
237.515	0.74
237.89	0.6
238.264	0.53
238.639	0.75
239.014	0.5
239.388	0.62
239.763	0.65
240.137	0.61
240.512	0.79
240.886	0.64
241.261	0.72
241.635	0.53
242.009	0.9
242.384	0.62
242.758	0.58
243.132	0.54
243.507	0.78
243.881	0.65
244.255	0.51
244.629	0.75
245.004	0.76
245.378	0.63
245.752	0.62
246.126	0.72
246.5	0.59
246.874	0.72
247.248	0.68
247.622	0.63
247.996	0.82
248.37	0.6
248.744	0.68
249.118	0.89
249.492	0.51
249.866	0.79
250.24	0.75
250.613	0.65
250.987	0.75
251.361	0.76
251.735	0.87
252.108	0.69
252.482	0.9
252.856	0.88
253.229	0.93
253.603	1.16
253.977	0.99
254.35	1.21
254.724	1.19
255.097	1.24
255.471	1.28
255.844	1.52
256.218	1.29
256.591	1.63
256.964	1.43
257.338	1.42
257.711	1.69
258.084	1.77
258.458	1.72
258.831	1.98
259.204	1.77
259.577	1.72
259.95	1.8
260.323	1.76
260.697	1.85
261.07	1.91
261.443	1.94
261.816	1.85
262.189	2.01
262.562	1.84
262.935	1.76
263.308	1.82
263.68	1.9
264.053	1.78
264.426	1.95
264.799	1.82
265.172	1.98
265.545	1.87
265.917	2.08
266.29	1.99
266.663	2.03
267.035	2.08
267.408	1.81
267.781	2.11
268.153	1.95
268.526	2.09
268.898	2.2
269.271	2.12
269.643	2.06
270.016	2.12
270.388	2.14
270.76	2.07
271.133	2.11
271.505	2.26
271.877	2.1
272.25	2.4
272.622	2.29
272.994	2.2
273.366	2.55
273.739	2.26
274.111	2.16
274.483	2.2
274.855	2.33
275.227	2.34
275.599	2.1
275.971	2.06
276.343	2.14
276.715	2.23
277.087	2.33
277.459	2.31
277.831	2.35
278.203	2.21
278.574	2.29
278.946	2.31
279.318	2.12
279.69	2.3
280.061	2.21
280.433	2.38
280.805	2.26
281.176	2.24
281.548	2.39
281.92	2.25
282.291	2.38
282.663	2.29
283.034	2.39
283.406	2.26
283.777	2.23
284.148	2.3
284.52	2.18
284.891	2.34
285.262	2.37
285.634	2.22
286.005	2.33
286.376	2.35
286.747	2.28
287.119	2.26
287.49	2.4
287.861	2.31
288.232	2.32
288.603	2.19
288.974	2.23
289.345	2.21
289.716	2.14
290.087	2.26
290.458	2.22
290.829	2.22
291.2	2.33
291.571	2.25
291.941	2.36
292.312	2.24
292.683	2.18
293.054	2.21
293.424	2.25
293.795	2.24
294.166	2.22
294.536	2.11
294.907	2.25
295.277	2.3
295.648	2.37
296.018	2.28
296.389	2.25
296.759	2.23
297.13	2.19
297.5	2.11
297.871	2.1
298.241	2.12
298.611	2.09
298.981	2.02
299.352	1.92
299.722	1.85
300.092	1.88
300.462	1.8
300.832	1.75
301.202	1.7
301.573	1.63
301.943	1.55
302.313	1.54
302.683	1.48
303.053	1.44
303.422	1.38
303.792	1.35
304.162	1.33
304.532	1.28
304.902	1.25
305.272	1.21
305.641	1.19
306.011	1.15
306.381	1.12
306.75	1.1
307.12	1.08
307.49	1.06
307.859	1.03
308.229	1
308.598	1.01
308.968	0.98
309.337	0.97
309.707	0.94
310.076	0.92
310.445	0.91
310.815	0.89
311.184	0.89
311.553	0.88
311.923	0.87
312.292	0.85
312.661	0.86
313.03	0.84
313.399	0.83
313.768	0.81
314.137	0.8
314.506	0.81
314.875	0.81
315.244	0.79
315.613	0.78
315.982	0.78
316.351	0.78
316.72	0.78
317.089	0.78
317.458	0.76
317.826	0.76
318.195	0.76
318.564	0.76
318.933	0.75
319.301	0.75
319.67	0.74
320.038	0.74
320.407	0.73
320.775	0.73
321.144	0.73
321.512	0.72
321.881	0.72
322.249	0.72
322.618	0.71
322.986	0.71
323.354	0.7
323.723	0.69
324.091	0.7
324.459	0.69
324.827	0.69
325.195	0.68
325.564	0.68
325.932	0.68
326.3	0.66
326.668	0.67
327.036	0.65
327.404	0.65
327.772	0.64
328.14	0.65
328.508	0.63
328.875	0.63
329.243	0.62
329.611	0.62
329.979	0.6
330.346	0.6
330.714	0.59
331.082	0.58
331.449	0.57
331.817	0.58
332.185	0.58
332.552	0.57
332.92	0.57
333.287	0.57
333.655	0.57
334.022	0.56
334.389	0.54
334.757	0.54
335.124	0.52
335.491	0.52
335.859	0.52
336.226	0.52
336.593	0.52
336.96	0.52
337.327	0.52
337.695	0.51
338.062	0.5
338.429	0.51
338.796	0.5
339.163	0.49
339.53	0.49
339.897	0.49
340.263	0.49
340.63	0.49
340.997	0.49
341.364	0.48
341.731	0.47
342.097	0.47
342.464	0.47
342.831	0.47
343.197	0.47
343.564	0.47
343.931	0.47
344.297	0.46
344.664	0.46
345.03	0.46
345.396	0.46
345.763	0.46
346.129	0.46
346.496	0.47
346.862	0.46
347.228	0.46
347.594	0.46
347.961	0.46
348.327	0.46
348.693	0.46
349.059	0.46
349.425	0.46
349.791	0.46
350.157	0.46
350.523	0.46
350.889	0.46
351.255	0.46
351.621	0.46
351.987	0.46
352.353	0.46
352.719	0.46
353.084	0.45
353.45	0.46
353.816	0.45
354.181	0.46
354.547	0.46
354.913	0.46
355.278	0.45
355.644	0.45
356.009	0.45
356.375	0.45
356.74	0.45
357.106	0.45
357.471	0.45
357.836	0.45
358.202	0.44
358.567	0.44
358.932	0.44
359.297	0.43
359.663	0.43
360.028	0.43
360.393	0.43
360.758	0.42
361.123	0.42
361.488	0.42
361.853	0.42
362.218	0.42
362.583	0.41
362.948	0.41
363.312	0.4
363.677	0.4
364.042	0.4
364.407	0.41
364.772	0.4
365.136	0.4
365.501	0.4
365.865	0.4
366.23	0.4
366.595	0.4
366.959	0.4
367.324	0.4
367.688	0.4
368.052	0.4
368.417	0.39
368.781	0.39
369.145	0.39
369.51	0.39
369.874	0.38
370.238	0.39
370.602	0.39
370.967	0.39
371.331	0.39
371.695	0.39
372.059	0.39
372.423	0.39
372.787	0.39
373.151	0.4
373.515	0.39
373.878	0.38
374.242	0.39
374.606	0.39
374.97	0.39
375.334	0.39
375.697	0.39
376.061	0.38
376.425	0.39
376.788	0.39
377.152	0.39
377.515	0.4
377.879	0.39
378.242	0.4
378.606	0.4
378.969	0.41
379.333	0.41
379.696	0.41
380.059	0.41
380.422	0.41
380.786	0.42
381.149	0.42
381.512	0.43
381.875	0.44
382.238	0.44
382.601	0.44
382.964	0.46
383.327	0.46
383.69	0.46
384.053	0.47
384.416	0.47
384.779	0.47
385.142	0.48
385.504	0.47
385.867	0.48
386.23	0.48
386.593	0.48
386.955	0.48
387.318	0.48
387.68	0.49
388.043	0.49
388.405	0.49
388.768	0.5
389.13	0.5
389.493	0.5
389.855	0.5
390.217	0.51
390.58	0.51
390.942	0.52
391.304	0.52
391.666	0.53
392.028	0.54
392.391	0.54
392.753	0.56
393.115	0.56
393.477	0.57
393.839	0.57
394.201	0.59
394.563	0.59
394.924	0.6
395.286	0.6
395.648	0.61
396.01	0.61
396.371	0.61
396.733	0.61
397.095	0.61
397.456	0.61
397.818	0.61
398.18	0.6
398.541	0.59
398.903	0.58
399.264	0.58
399.625	0.58
399.987	0.57
400.348	0.57
400.709	0.56
401.071	0.56
401.432	0.55
401.793	0.55
402.154	0.55
402.515	0.54
402.876	0.54
403.238	0.54
403.599	0.54
403.96	0.54
404.32	0.54
404.681	0.54
405.042	0.54
405.403	0.55
405.764	0.54
406.125	0.55
406.485	0.55
406.846	0.56
407.207	0.55
407.567	0.56
407.928	0.57
408.288	0.57
408.649	0.58
409.009	0.59
409.37	0.59
409.73	0.59
410.091	0.6
410.451	0.6
410.811	0.61
411.171	0.62
411.532	0.62
411.892	0.62
412.252	0.64
412.612	0.64
412.972	0.65
413.332	0.65
413.692	0.67
414.052	0.68
414.412	0.69
414.772	0.69
415.132	0.69
415.492	0.7
415.851	0.7
416.211	0.72
416.571	0.72
416.931	0.73
417.29	0.71
417.65	0.74
418.009	0.75
418.369	0.74
418.728	0.75
419.088	0.75
419.447	0.76
419.807	0.76
420.166	0.76
420.525	0.76
420.884	0.78
421.244	0.78
421.603	0.79
421.962	0.78
422.321	0.79
422.68	0.8
423.039	0.79
423.398	0.8
423.757	0.81
424.116	0.81
424.475	0.81
424.834	0.81
425.193	0.82
425.551	0.81
425.91	0.81
426.269	0.82
426.628	0.83
426.986	0.82
427.345	0.82
427.703	0.83
428.062	0.83
428.42	0.83
428.779	0.83
429.137	0.84
429.496	0.86
429.854	0.84
430.212	0.83
430.57	0.84
430.929	0.85
431.287	0.84
431.645	0.85
432.003	0.85
432.361	0.85
432.719	0.85
433.077	0.86
433.435	0.85
433.793	0.85
434.151	0.86
434.509	0.86
434.866	0.86
435.224	0.86
435.582	0.87
435.94	0.86
436.297	0.87
436.655	0.88
437.012	0.88
437.37	0.87
437.727	0.86
438.085	0.86
438.442	0.86
438.8	0.87
439.157	0.88
439.514	0.87
439.872	0.87
440.229	0.89
440.586	0.88
440.943	0.88
441.3	0.89
441.657	0.89
442.014	0.89
442.371	0.9
442.728	0.89
443.085	0.91
443.442	0.91
443.799	0.91
444.156	0.92
444.513	0.91
444.869	0.92
445.226	0.92
445.583	0.93
445.939	0.92
446.296	0.93
446.652	0.93
447.009	0.94
447.365	0.93
447.722	0.95
448.078	0.94
448.434	0.95
448.791	0.95
449.147	0.95
449.503	0.95
449.859	0.94
450.215	0.95
450.571	0.96
450.928	0.95
451.284	0.95
451.64	0.95
451.995	0.96
452.351	0.95
452.707	0.96
453.063	0.95
453.419	0.95
453.775	0.96
454.13	0.94
454.486	0.94
454.842	0.93
455.197	0.94
455.553	0.94
455.908	0.94
456.264	0.93
456.619	0.94
456.975	0.92
457.33	0.92
457.685	0.92
458.04	0.91
458.396	0.91
458.751	0.9
459.106	0.9
459.461	0.89
459.816	0.89
460.171	0.88
460.526	0.89
460.881	0.87
461.236	0.86
461.591	0.87
461.946	0.84
462.301	0.83
462.655	0.82
463.01	0.81
463.365	0.8
463.719	0.8
464.074	0.79
464.428	0.77
464.783	0.78
465.137	0.77
465.492	0.76
465.846	0.75
466.201	0.75
466.555	0.73
466.909	0.72
467.263	0.71
467.618	0.7
467.972	0.68
468.326	0.68
468.68	0.67
469.034	0.67
469.388	0.65
469.742	0.64
470.096	0.63
470.45	0.62
470.804	0.61
471.157	0.61
471.511	0.59
471.865	0.59
472.218	0.58
472.572	0.57
472.926	0.57
473.279	0.57
473.633	0.56
473.986	0.55
474.34	0.53
474.693	0.54
475.046	0.53
475.4	0.52
475.753	0.52
476.106	0.51
476.459	0.5
476.812	0.5
477.165	0.48
477.519	0.48
477.872	0.47
478.224	0.47
478.577	0.46
478.93	0.44
479.283	0.44
479.636	0.43
479.989	0.43
480.341	0.43
480.694	0.42
481.047	0.42
481.399	0.41
481.752	0.4
482.104	0.4
482.457	0.4
482.809	0.38
483.162	0.38
483.514	0.37
483.866	0.36
484.219	0.37
484.571	0.36
484.923	0.35
485.275	0.34
485.627	0.34
485.979	0.34
486.331	0.33
486.683	0.33
487.035	0.32
487.387	0.32
487.739	0.32
488.091	0.31
488.443	0.3
488.794	0.3
489.146	0.29
489.498	0.3
489.849	0.29
490.201	0.29
490.552	0.28
490.904	0.28
491.255	0.28
491.607	0.27
491.958	0.27
492.309	0.27
492.661	0.26
493.012	0.26
493.363	0.26
493.714	0.25
494.065	0.25
494.416	0.25
494.767	0.25
495.118	0.25
495.469	0.24
495.82	0.24
496.171	0.24
496.522	0.23
496.872	0.24
497.223	0.23
497.574	0.22
497.924	0.23
498.275	0.21
498.626	0.22
498.976	0.23
499.327	0.23
499.677	0.22
500.027	0.22
500.378	0.22
500.728	0.21
501.078	0.21
501.428	0.22
501.779	0.21
502.129	0.22
502.479	0.21
502.829	0.21
503.179	0.21
503.529	0.21
503.879	0.21
504.229	0.21
504.578	0.21
504.928	0.2
505.278	0.21
505.628	0.2
505.977	0.21
506.327	0.2
506.676	0.2
507.026	0.2
507.375	0.2
507.725	0.19
508.074	0.2
508.424	0.19
508.773	0.19
509.122	0.19
509.471	0.19
509.82	0.19
510.17	0.19
510.519	0.19
510.868	0.19
511.217	0.19
511.566	0.19
511.915	0.19
512.263	0.18
512.612	0.18
512.961	0.18
513.31	0.18
513.659	0.18
514.007	0.18
514.356	0.19
514.704	0.18
515.053	0.18
515.401	0.18
515.75	0.19
516.098	0.18
516.447	0.18
516.795	0.19
517.143	0.18
517.491	0.17
517.839	0.18
518.188	0.19
518.536	0.19
518.884	0.17
519.232	0.18
519.58	0.18
519.928	0.17
520.275	0.17
520.623	0.18
520.971	0.18
521.319	0.17
521.666	0.18
522.014	0.18
522.362	0.18
522.709	0.17
523.057	0.17
523.404	0.17
523.752	0.17
524.099	0.17
524.446	0.17
524.794	0.17
525.141	0.17
525.488	0.17
525.835	0.17
526.182	0.17
526.529	0.17
526.876	0.17
527.223	0.18
527.57	0.16
527.917	0.17
528.264	0.17
528.611	0.17
528.958	0.17
529.304	0.17
529.651	0.17
529.998	0.17
530.344	0.16
530.691	0.16
531.037	0.16
531.384	0.16
531.73	0.17
532.076	0.16
532.423	0.16
532.769	0.16
533.115	0.16
533.461	0.17
533.807	0.16
534.154	0.16
534.5	0.16
534.846	0.15
535.192	0.17
535.537	0.17
535.883	0.17
536.229	0.16
536.575	0.16
536.921	0.16
537.266	0.16
537.612	0.15
537.957	0.16
538.303	0.15
538.649	0.16
538.994	0.16
539.339	0.16
539.685	0.15
540.03	0.17
540.375	0.16
540.721	0.15
541.066	0.16
541.411	0.15
541.756	0.16
542.101	0.15
542.446	0.16
542.791	0.15
543.136	0.15
543.481	0.16
543.825	0.16
544.17	0.16
544.515	0.16
544.86	0.16
545.204	0.16
545.549	0.16
545.893	0.16
546.238	0.16
546.582	0.16
546.927	0.16
547.271	0.16
547.615	0.16
547.96	0.16
548.304	0.16
548.648	0.15
548.992	0.16
549.336	0.15
549.68	0.15
550.024	0.15
550.368	0.15
550.712	0.14
551.056	0.16
551.4	0.15
551.743	0.16
552.087	0.16
552.431	0.16
552.774	0.16
553.118	0.15
553.462	0.15
553.805	0.15
554.148	0.15
554.492	0.15
554.835	0.16
555.178	0.16
555.522	0.15
555.865	0.16
556.208	0.15
556.551	0.15
556.894	0.15
557.237	0.15
557.58	0.15
557.923	0.15
558.266	0.15
558.609	0.15
558.952	0.15
559.294	0.15
559.637	0.16
559.98	0.16
560.322	0.16
560.665	0.15
561.007	0.15
561.35	0.15
561.692	0.15
562.034	0.15
562.377	0.15
562.719	0.15
563.061	0.15
563.403	0.15
563.745	0.15
564.088	0.15
564.43	0.15
564.772	0.15
565.113	0.15
565.455	0.15
565.797	0.15
566.139	0.14
566.481	0.15
566.822	0.15
567.164	0.15
567.506	0.15
567.847	0.15
568.189	0.15
568.53	0.15
568.872	0.15
569.213	0.15
569.554	0.15
569.895	0.15
570.237	0.15
570.578	0.14
570.919	0.14
571.26	0.14
571.601	0.14
571.942	0.14
572.283	0.14
572.624	0.14
572.965	0.14
573.306	0.14
573.646	0.14
573.987	0.14
574.328	0.14
574.668	0.14
575.009	0.14
575.349	0.15
575.69	0.14
576.03	0.14
576.37	0.13
576.711	0.14
577.051	0.14
577.391	0.13
577.731	0.14
578.072	0.14
578.412	0.13
578.752	0.13
579.092	0.13
579.431	0.13
579.771	0.13
580.111	0.13
580.451	0.13
580.791	0.14
581.13	0.13
581.47	0.14
581.81	0.13
582.149	0.13
582.489	0.13
582.828	0.12
583.167	0.12
583.507	0.12
583.846	0.13
584.185	0.13
584.525	0.13
584.864	0.14
585.203	0.14
585.542	0.13
585.881	0.14
586.22	0.13
586.559	0.13
586.898	0.13
587.236	0.13
587.575	0.14
587.914	0.14
588.252	0.14
588.591	0.14
588.93	0.13
589.268	0.14
589.607	0.13
589.945	0.14
590.283	0.13
590.622	0.14
590.96	0.14
591.298	0.14
591.636	0.14
591.974	0.15
592.313	0.14
592.651	0.15
592.989	0.15
593.326	0.15
593.664	0.15
594.002	0.14
594.34	0.14
594.678	0.14
595.015	0.14
595.353	0.14
595.691	0.14
596.028	0.14
596.366	0.14
596.703	0.14
597.04	0.14
597.378	0.15
597.715	0.15
598.052	0.15
598.389	0.15
598.726	0.14
599.064	0.15
599.401	0.15
599.738	0.14
600.074	0.15
600.411	0.14
600.748	0.14
601.085	0.14
601.422	0.14
601.758	0.15
602.095	0.14
602.432	0.14
602.768	0.15
603.105	0.15
603.441	0.15
603.777	0.15
604.114	0.15
604.45	0.15
604.786	0.14
605.122	0.15
605.459	0.14
605.795	0.15
606.131	0.15
606.467	0.16
606.803	0.16
607.139	0.15
607.474	0.15
607.81	0.15
608.146	0.15
608.482	0.15
608.817	0.14
609.153	0.14
609.488	0.14
609.824	0.15
610.159	0.15
610.495	0.15
610.83	0.15
611.165	0.15
611.5	0.16
611.836	0.16
612.171	0.15
612.506	0.15
612.841	0.15
613.176	0.15
613.511	0.16
613.845	0.15
614.18	0.15
614.515	0.15
614.85	0.15
615.184	0.15
615.519	0.15
615.854	0.15
616.188	0.14
616.523	0.15
616.857	0.15
617.191	0.15
617.526	0.15
617.86	0.15
618.194	0.15
618.528	0.15
618.862	0.15
619.196	0.15
619.53	0.15
619.864	0.15
620.198	0.15
620.532	0.15
620.866	0.16
621.2	0.15
621.533	0.15
621.867	0.15
622.201	0.15
622.534	0.16
622.868	0.15
623.201	0.16
623.534	0.15
623.868	0.15
624.201	0.15
624.534	0.15
624.868	0.15
625.201	0.15
625.534	0.15
625.867	0.15
626.2	0.16
626.533	0.15
626.865	0.15
627.198	0.16
627.531	0.15
627.864	0.15
628.196	0.15
628.529	0.15
628.862	0.15
629.194	0.15
629.527	0.15
629.859	0.15
630.191	0.15
630.524	0.15
630.856	0.15
631.188	0.15
631.52	0.15
631.852	0.15
632.184	0.15
632.516	0.15
632.848	0.15
633.18	0.15
633.512	0.15
633.844	0.15
634.175	0.15
634.507	0.14
634.839	0.15
635.17	0.15
635.502	0.15
635.833	0.15
636.165	0.15
636.496	0.15
636.827	0.15
637.159	0.15
637.49	0.14
637.821	0.15
638.152	0.14
638.483	0.15
638.814	0.15
639.145	0.14
639.476	0.14
639.807	0.14
640.137	0.13
640.468	0.13
640.799	0.14
641.129	0.14
641.46	0.14
641.791	0.14
642.121	0.14
642.451	0.14
642.782	0.14
643.112	0.14
643.442	0.14
643.773	0.14
644.103	0.14
644.433	0.14
644.763	0.14
645.093	0.14
645.423	0.15
645.753	0.15
646.082	0.15
646.412	0.14
646.742	0.15
647.072	0.14
647.401	0.14
647.731	0.14
648.06	0.14
648.39	0.14
648.719	0.14
649.048	0.14
649.378	0.14
649.707	0.14
650.036	0.14
650.365	0.14
650.694	0.13
651.023	0.14
651.352	0.14
651.681	0.14
652.01	0.14
652.339	0.14
652.668	0.14
652.996	0.14
653.325	0.14
653.654	0.14
653.982	0.14
654.311	0.14
654.639	0.14
654.967	0.13
655.296	0.14
655.624	0.13
655.952	0.14
656.28	0.08
656.609	0.03
656.937	0.05
657.265	0.09
657.593	0.08
657.92	0.09
658.248	0.11
658.576	0.14
658.904	0.14
659.231	0.14
659.559	0.14
659.887	0.14
660.214	0.14
660.542	0.14
660.869	0.14
661.196	0.14
661.524	0.14
661.851	0.14
662.178	0.15
662.505	0.15
662.832	0.14
663.159	0.14
663.486	0.14
663.813	0.14
664.14	0.14
664.467	0.14
664.794	0.13
665.12	0.14
665.447	0.14
665.774	0.14
666.1	0.14
666.427	0.14
666.753	0.14
667.079	0.14
667.406	0.15
667.732	0.14
668.058	0.14
668.384	0.14
668.71	0.15
669.036	0.14
669.362	0.14
669.688	0.14
670.014	0.14
670.34	0.14
670.666	0.14
670.991	0.14
671.317	0.14
671.643	0.14
671.968	0.14
672.294	0.14
672.619	0.14
672.945	0.13
673.27	0.14
673.595	0.14
673.92	0.14
674.246	0.14
674.571	0.15
674.896	0.14
675.221	0.15
675.546	0.14
675.87	0.14
676.195	0.14
676.52	0.14
676.845	0.15
677.169	0.14
677.494	0.14
677.819	0.14
678.143	0.14
678.468	0.14
678.792	0.15
679.116	0.14
679.44	0.14
679.765	0.14
680.089	0.14
680.413	0.14
680.737	0.13
681.061	0.14
681.385	0.14
681.709	0.14
682.033	0.14
682.356	0.14
682.68	0.14
683.004	0.14
683.327	0.14
683.651	0.14
683.974	0.14
684.298	0.14
684.621	0.14
684.944	0.14
685.268	0.14
685.591	0.13
685.914	0.13
686.237	0.14
686.56	0.13
686.883	0.13
687.206	0.14
687.529	0.14
687.852	0.13
688.175	0.13
688.497	0.13
688.82	0.13
689.142	0.13
689.465	0.13
689.787	0.14
690.11	0.14
690.432	0.13
690.755	0.13
691.077	0.14
691.399	0.14
691.721	0.14
692.043	0.13
692.365	0.13
692.687	0.14
693.009	0.13
693.331	0.14
693.653	0.14
693.974	0.14
694.296	0.14
694.618	0.14
694.939	0.13
695.261	0.13
695.582	0.13
695.904	0.14
696.225	0.14
696.546	0.14
696.868	0.14
697.189	0.13
697.51	0.13
697.831	0.13
698.152	0.13
698.473	0.13
698.794	0.13
699.114	0.14
699.435	0.13
699.756	0.14
700.077	0.15
700.397	0.14
700.718	0.15
701.038	0.14
701.359	0.14
701.679	0.14
701.999	0.14
702.32	0.14
702.64	0.14
702.96	0.14
703.28	0.13
703.6	0.14
703.92	0.14
704.24	0.14
704.56	0.14
704.879	0.14
705.199	0.13
705.519	0.13
705.838	0.14
706.158	0.14
706.478	0.14
706.797	0.14
707.116	0.14
707.436	0.14
707.755	0.14
708.074	0.14
708.393	0.14
708.712	0.14
709.031	0.14
709.35	0.14
709.669	0.13
709.988	0.14
710.307	0.13
710.626	0.14
710.944	0.14
711.263	0.14
711.582	0.14
711.9	0.14
712.219	0.15
712.537	0.15
712.855	0.14
713.174	0.15
713.492	0.14
713.81	0.14
714.128	0.14
714.446	0.15
714.764	0.14
715.082	0.14
715.4	0.14
715.718	0.14
716.035	0.14
716.353	0.13
716.671	0.14
716.988	0.15
717.306	0.14
717.623	0.14
717.941	0.14
718.258	0.15
718.575	0.15
718.893	0.15
719.21	0.15
719.527	0.15
719.844	0.15
720.161	0.15
720.478	0.15
720.795	0.15
721.112	0.15
721.428	0.15
721.745	0.15
722.062	0.15
722.378	0.14
722.695	0.15
723.011	0.15
723.328	0.14
723.644	0.15
723.96	0.15
724.276	0.14
724.593	0.15
724.909	0.15
725.225	0.15
725.541	0.15
725.857	0.14
726.173	0.15
726.488	0.15
726.804	0.15
727.12	0.15
727.435	0.15
727.751	0.16
728.067	0.15
728.382	0.16
728.697	0.15
729.013	0.15
729.328	0.15
729.643	0.14
729.958	0.15
730.273	0.14
730.588	0.15
730.903	0.15
731.218	0.15
731.533	0.15
731.848	0.15
732.163	0.15
732.477	0.15
732.792	0.15
733.107	0.15
733.421	0.15
733.736	0.15
734.05	0.15
734.364	0.15
734.678	0.15
734.993	0.15
735.307	0.15
735.621	0.15
735.935	0.15
736.249	0.15
736.563	0.15
736.877	0.15
737.19	0.15
737.504	0.15
737.818	0.14
738.131	0.15
738.445	0.15
738.758	0.15
739.072	0.16
739.385	0.15
739.698	0.15
740.012	0.15
740.325	0.16
740.638	0.16
740.951	0.16
741.264	0.16
741.577	0.15
741.89	0.16
742.203	0.16
742.515	0.15
742.828	0.16
743.141	0.16
743.453	0.15
743.766	0.15
744.078	0.15
744.391	0.15
744.703	0.15
745.015	0.15
745.327	0.15
745.639	0.15
745.952	0.16
746.264	0.15
746.575	0.15
746.887	0.16
747.199	0.15
747.511	0.15
747.823	0.15
748.134	0.16
748.446	0.16
748.757	0.15
749.069	0.14
749.38	0.15
749.692	0.15
750.003	0.15
750.314	0.15
750.625	0.15
750.936	0.15
751.248	0.14
751.559	0.14
751.869	0.15
752.18	0.14
752.491	0.14
752.802	0.15
753.112	0.14
753.423	0.14
753.734	0.15
754.044	0.15
754.355	0.14
754.665	0.14
754.975	0.14
755.285	0.15
755.596	0.15
755.906	0.15
756.216	0.14
756.526	0.15
756.836	0.15
757.146	0.15
757.455	0.14
757.765	0.14
758.075	0.14
758.385	0.14
758.694	0.13
759.004	0.14
759.313	0.14
759.622	0.14
759.932	0.14
760.241	0.15
760.55	0.14
760.859	0.14
761.168	0.14
761.477	0.14
761.786	0.14
762.095	0.14
762.404	0.15
762.713	0.15
763.021	0.14
763.33	0.14
763.639	0.14
763.947	0.14
764.256	0.13
764.564	0.14
764.872	0.14
765.181	0.13
765.489	0.13
765.797	0.13
766.105	0.13
766.413	0.14
766.721	0.12
767.029	0.13
767.337	0.13
767.644	0.13
767.952	0.13
768.26	0.13
768.567	0.13
768.875	0.14
769.182	0.13
769.49	0.13
769.797	0.13
770.104	0.13
770.411	0.14
770.718	0.14
771.026	0.13
771.333	0.14
771.639	0.14
771.946	0.13
772.253	0.13
772.56	0.13
772.867	0.13
773.173	0.12
773.48	0.13
773.786	0.12
774.093	0.13
774.399	0.13
774.705	0.13
775.012	0.13
775.318	0.14
775.624	0.13
775.93	0.12
776.236	0.13
776.542	0.13
776.848	0.14
777.154	0.13
777.459	0.14
777.765	0.13
778.071	0.13
778.376	0.13
778.682	0.14
778.987	0.13
779.292	0.13
779.598	0.14
779.903	0.14
780.208	0.13
780.513	0.13
780.818	0.13
781.123	0.13
781.428	0.13
781.733	0.12
782.038	0.13
782.343	0.13
782.647	0.13
782.952	0.13
783.256	0.14
783.561	0.13
783.865	0.13
784.17	0.13
784.474	0.13
784.778	0.12
785.082	0.13
785.386	0.13
785.69	0.13
785.994	0.13
786.298	0.13
786.602	0.14
786.906	0.13
787.209	0.13
787.513	0.13
787.817	0.14
788.12	0.13
788.424	0.13
788.727	0.13
789.03	0.13
789.333	0.12
789.637	0.12
789.94	0.13
790.243	0.12
790.546	0.11
790.849	0.11
791.152	0.12
791.454	0.11
791.757	0.11
792.06	0.11
792.362	0.1
792.665	0.11
792.967	0.11
793.27	0.12
793.572	0.12
793.874	0.11
794.177	0.11
794.479	0.11
794.781	0.11
795.083	0.11
795.385	0.1
795.687	0.11
795.989	0.11
796.29	0.11
796.592	0.11
796.894	0.11
797.195	0.11
797.497	0.12
797.798	0.12
798.1	0.12
798.401	0.12
798.702	0.12
799.003	0.13
799.304	0.1
799.605	0.11
799.906	0.12
800.207	0.12
800.508	0.1
800.809	0.11
801.11	0.11
801.41	0.11
801.711	0.11
802.011	0.1
802.312	0.11
802.612	0.11
802.913	0.11
803.213	0.12
803.513	0.1
803.813	0.1
804.113	0.1
804.413	0.1
804.713	0.1
805.013	0.1
805.313	0.11
805.613	0.11
805.912	0.1
806.212	0.1
806.511	0.1
806.811	0.1
807.11	0.1
807.41	0.1
807.709	0.1
808.008	0.09
808.307	0.1
808.606	0.1
808.905	0.1
809.204	0.09
809.503	0.09
809.802	0.1
810.101	0.1
810.399	0.09
810.698	0.09
810.997	0.1
811.295	0.11
811.593	0.1
811.892	0.1
812.19	0.09
812.488	0.09
812.786	0.08
813.084	0.09
813.383	0.09
813.68	0.09
813.978	0.09
814.276	0.09
814.574	0.08
814.872	0.08
815.169	0.08
815.467	0.08
815.764	0.08
816.062	0.07
816.359	0.07
816.656	0.07
816.954	0.07
817.251	0.07
817.548	0.07
817.845	0.07
818.142	0.07
818.439	0.07
818.735	0.07
819.032	0.08
819.329	0.06
819.626	0.07
819.922	0.08
820.219	0.08
820.515	0.08
820.811	0.08
821.108	0.08
821.404	0.07
821.7	0.07
821.996	0.06
822.292	0.06
822.588	0.06
822.884	0.06
823.18	0.07
823.475	0.06
823.771	0.06
824.067	0.07
824.362	0.05
824.658	0.07
824.953	0.06
825.249	0.07
825.544	0.08
825.839	0.06
826.134	0.06
826.429	0.07
826.724	0.06
827.019	0.05
827.314	0.06
827.609	0.06
827.904	0.05
828.198	0.05
828.493	0.05
828.787	0.06
829.082	0.05
829.376	0.03
829.671	0.04
829.965	0.06
830.259	0.04
830.553	0.07
830.847	0.05
831.141	0.05
831.435	0.04
831.729	0.05
832.023	0.04
832.317	0.05
832.61	0.04
832.904	0.05
833.197	0.06
833.491	0.05
833.784	0.04
834.077	0.04
834.371	0.04
834.664	0.05
834.957	0.04
835.25	0.03
835.543	0.01
835.836	0.05
836.129	0.02
836.421	0.03
836.714	0.02
837.007	0.03
837.299	0.04
837.592	0.03
837.884	0.03
838.177	0.04
838.469	0.04
838.761	-0
839.053	0.01
839.345	0.01
839.637	0.01
839.929	0.02
840.221	0.01
840.513	0
840.805	0
841.096	0.01
841.388	0
841.68	0.03
841.971	0
842.262	0.01
842.554	0.03
842.845	0.02
843.136	0.02
843.427	0.03
843.718	0.02
844.009	0.02
844.3	0.02
844.591	0.02
844.882	0.02
845.173	0
845.463	-0
845.754	0.02
846.044	0
846.335	0.02
846.625	0.02
846.915	-0.02
847.206	-0.01
847.496	-0
847.786	-0.01
848.076	-0.01
848.366	-0.02
848.656	-0.01
848.945	-0.01
849.235	-0.03
849.525	-0.01
849.814	-0.03
850.104	-0.03
850.393	-0.01
850.683	-0.03
850.972	-0.02
851.261	-0.03
851.551	-0.01
851.84	-0.01
852.129	0
852.418	0
852.707	0.01
852.995	-0.05
853.284	-0.01
853.573	-0.03
853.862	0.01
854.15	-0.02
854.439	-0.03
854.727	-0
855.015	-0.01
855.304	-0
855.592	-0.05
855.88	-0.02
856.168	-0.03
856.456	-0.03
856.744	-0.01
857.032	-0.01
857.32	-0.01
857.607	0
857.895	-0.03
858.183	-0.01
858.47	-0.04
858.757	-0.06
859.045	-0.03
859.332	-0.05
859.619	-0.06
859.907	-0.07
860.194	-0.08
860.481	-0.01
860.768	0
861.054	-0.08
861.341	-0.06
861.628	-0.06
861.915	-0.02
862.201	-0.06
862.488	-0.06
862.774	-0.03
863.061	0
863.347	-0.03
863.633	-0.07
863.919	-0.05
864.205	-0.07
864.491	-0.06
864.777	-0.08
865.063	-0.08
865.349	-0.06
865.635	-0.06
865.92	-0.05
866.206	-0.09
866.492	-0.06
866.777	-0.02
867.062	-0.09
867.348	-0.05
867.633	-0.12
867.918	-0.1
868.203	-0.06
868.488	-0.07
868.773	-0.09
869.058	-0.16
869.343	-0.04
869.628	-0.14
869.912	-0.02
870.197	-0.07
870.482	-0.1
870.766	-0.16
871.05	-0.09
871.335	-0.17
871.619	-0
871.903	-0.12
872.187	-0.12
872.471	-0.14
872.755	-0.07
873.039	-0.13
873.323	-0.05
873.607	-0.03
873.89	-0.17
874.174	-0.15
874.458	-0.11
874.741	-0.01
875.024	-0.04
875.308	-0.12
875.591	0.01
875.874	-0.15
876.157	-0.14
876.44	-0.11
876.723	-0.09
877.006	-0.04
877.289	-0.19
877.572	-0
877.854	-0.37
878.137	0.12
878.42	-0.09
878.702	0.05
878.984	-0.2
879.267	-0.15
879.549	-0.2
879.831	-0.21
880.113	-0.21
880.395	-0.23
880.677	0.11
880.959	-0.2
