Data from Rubpy_BV_1800_EDTA_Buffered_Absorbance_16-43-46-515.txt Node
Date: Wed Jul 01 16:43:46 BST 2026
User: fpm-admin
Spectrometer: OFX00224
Trigger mode: 0
Integration Time (sec): 7.000000E-2
Scans to average: 3
Nonlinearity correction enabled: false
Boxcar width: 0
Storing dark spectrum: false
XAxis mode: Wavelengths
Number of Pixels in Spectrum: 2136
>>>>>Begin Spectral Data<<<<<
154.91	-0
155.289	-0.12
155.669	-0
156.048	-0
156.428	-0
156.807	0.04
157.186	-0
157.566	0.05
157.945	-0
158.325	0.64
158.704	-0.26
159.083	-0.02
159.462	-0.8
159.842	-0
160.221	-0
160.6	-0.6
160.979	-0
161.359	-0
161.738	0.54
162.117	-0
162.496	0.94
162.875	-0.13
163.254	0.41
163.633	-0
164.012	-0
164.391	0.13
164.77	-0.04
165.149	-0
165.528	0.3
165.907	0.72
166.286	-0
166.665	0.28
167.044	-0.06
167.423	0.24
167.802	-0.44
168.181	-0
168.559	-0.34
168.938	0.44
169.317	-0.42
169.696	-1.53
170.074	0.1
170.453	-0.25
170.832	-0
171.21	-0.09
171.589	-0
171.968	0.25
172.346	-0.68
172.725	-0
173.103	-0
173.482	0.24
173.861	-0.6
174.239	-0.41
174.617	0.6
174.996	0.54
175.374	0.3
175.753	-0
176.131	0.18
176.51	0.3
176.888	-0
177.266	-0
177.645	-0.05
178.023	0.65
178.401	-0.34
178.779	-0.05
179.158	-0.18
179.536	-0
179.914	-0
180.292	-0
180.67	0.2
181.048	-0.16
181.427	-0.57
181.805	-0.34
182.183	-0.06
182.561	-0
182.939	1.18
183.317	0.3
183.695	1.43
184.073	-0
184.451	-0.66
184.829	-0.05
185.206	-0.4
185.584	-0.03
185.962	-0
186.34	-0
186.718	0.29
187.096	-0
187.473	-0
187.851	-0.29
188.229	0.3
188.607	0.09
188.984	0.18
189.362	-0
189.74	0.17
190.117	0.18
190.495	0.17
190.872	0.13
191.25	0.21
191.627	0.09
192.005	0.17
192.382	0.14
192.76	0.2
193.137	0.17
193.515	0.22
193.892	0.23
194.269	0.16
194.647	0.14
195.024	0.07
195.401	0.2
195.779	0.12
196.156	0.29
196.533	0.19
196.91	0.1
197.288	0.27
197.665	0.16
198.042	0.18
198.419	0.18
198.796	0.04
199.173	0.14
199.55	0.18
199.927	0.05
200.304	0.21
200.681	0.11
201.058	0.12
201.435	0.16
201.812	0.2
202.189	0.17
202.566	0.16
202.943	0.18
203.32	0.19
203.697	0.26
204.073	0.02
204.45	0.17
204.827	0.12
205.204	0.04
205.58	0.2
205.957	0.2
206.334	0.14
206.71	0.11
207.087	0.15
207.464	0.1
207.84	0.17
208.217	0.29
208.593	0.07
208.97	0.15
209.346	0.2
209.723	0.14
210.099	0.15
210.476	0.21
210.852	0.27
211.228	0.29
211.605	0.11
211.981	0.16
212.357	0.3
212.733	0.12
213.11	0.16
213.486	0.12
213.862	0.2
214.238	0.23
214.614	0.16
214.991	0.17
215.367	0.11
215.743	0.11
216.119	0.27
216.495	0.28
216.871	0.09
217.247	0.07
217.623	0.14
217.999	0.22
218.375	0.24
218.751	0.09
219.127	0.29
219.502	0.05
219.878	0.15
220.254	0.24
220.63	0.14
221.006	0.14
221.381	0.2
221.757	0.15
222.133	0.12
222.508	0.18
222.884	0.14
223.26	0.11
223.635	0.18
224.011	0.15
224.386	0.17
224.762	0.23
225.137	0.22
225.513	0.17
225.888	0.07
226.264	0.13
226.639	0.17
227.014	0.31
227.39	0.23
227.765	0.18
228.14	0.1
228.516	0.21
228.891	0.23
229.266	0.23
229.641	0.17
230.017	0.21
230.392	0.23
230.767	0.31
231.142	0.26
231.517	0.17
231.892	0.19
232.267	0.17
232.642	0.19
233.017	0.21
233.392	0.26
233.767	0.22
234.142	0.15
234.517	0.02
234.892	0.19
235.267	0.25
235.641	0.28
236.016	0.24
236.391	0.18
236.766	0.12
237.14	0.23
237.515	0.31
237.89	0.15
238.264	0.23
238.639	0.14
239.014	0.22
239.388	0.15
239.763	0.19
240.137	0.05
240.512	0.18
240.886	0.22
241.261	0.16
241.635	0.16
242.009	0.3
242.384	0.24
242.758	0.23
243.132	0.16
243.507	0.26
243.881	0.21
244.255	0.17
244.629	0.22
245.004	0.18
245.378	0.31
245.752	0.29
246.126	0.11
246.5	0.16
246.874	0.16
247.248	0.28
247.622	0.24
247.996	0.27
248.37	0.3
248.744	0.09
249.118	0.15
249.492	0.1
249.866	0.12
250.24	0.21
250.613	0.29
250.987	0.21
251.361	0.29
251.735	0.25
252.108	0.16
252.482	0.21
252.856	0.02
253.229	0.18
253.603	0.15
253.977	0.2
254.35	0.15
254.724	0.16
255.097	0.17
255.471	0.17
255.844	0.11
256.218	0.22
256.591	0.11
256.964	0.22
257.338	0.17
257.711	0.22
258.084	0.19
258.458	0.2
258.831	0.23
259.204	0.16
259.577	0.14
259.95	0.1
260.323	0.17
260.697	0.1
261.07	0.17
261.443	0.27
261.816	0.22
262.189	0.15
262.562	0.16
262.935	0.13
263.308	0.06
263.68	0.21
264.053	0.24
264.426	0.23
264.799	0.23
265.172	0.23
265.545	0.17
265.917	0.15
266.29	0.21
266.663	0.22
267.035	0.22
267.408	0.23
267.781	0.25
268.153	0.16
268.526	0.21
268.898	0.21
269.271	0.12
269.643	0.19
270.016	0.16
270.388	0.12
270.76	0.21
271.133	0.19
271.505	0.21
271.877	0.12
272.25	0.18
272.622	0.24
272.994	0.24
273.366	0.2
273.739	0.18
274.111	0.22
274.483	0.15
274.855	0.17
275.227	0.27
275.599	0.18
275.971	0.19
276.343	0.17
276.715	0.23
277.087	0.21
277.459	0.14
277.831	0.2
278.203	0.2
278.574	0.18
278.946	0.23
279.318	0.23
279.69	0.18
280.061	0.2
280.433	0.11
280.805	0.23
281.176	0.2
281.548	0.26
281.92	0.24
282.291	0.2
282.663	0.25
283.034	0.19
283.406	0.25
283.777	0.25
284.148	0.19
284.52	0.25
284.891	0.28
285.262	0.25
285.634	0.27
286.005	0.22
286.376	0.26
286.747	0.22
287.119	0.17
287.49	0.25
287.861	0.21
288.232	0.17
288.603	0.21
288.974	0.12
289.345	0.21
289.716	0.2
290.087	0.15
290.458	0.14
290.829	0.25
291.2	0.24
291.571	0.25
291.941	0.14
292.312	0.22
292.683	0.19
293.054	0.16
293.424	0.19
293.795	0.22
294.166	0.26
294.536	0.25
294.907	0.19
295.277	0.2
295.648	0.26
296.018	0.2
296.389	0.14
296.759	0.17
297.13	0.17
297.5	0.26
297.871	0.22
298.241	0.16
298.611	0.17
298.981	0.16
299.352	0.23
299.722	0.17
300.092	0.21
300.462	0.25
300.832	0.21
301.202	0.13
301.573	0.17
301.943	0.18
302.313	0.16
302.683	0.31
303.053	0.22
303.422	0.21
303.792	0.18
304.162	0.16
304.532	0.25
304.902	0.16
305.272	0.2
305.641	0.23
306.011	0.18
306.381	0.17
306.75	0.21
307.12	0.18
307.49	0.21
307.859	0.12
308.229	0.18
308.598	0.13
308.968	0.17
309.337	0.18
309.707	0.15
310.076	0.11
310.445	0.14
310.815	0.18
311.184	0.18
311.553	0.15
311.923	0.16
312.292	0.15
312.661	0.12
313.03	0.16
313.399	0.17
313.768	0.15
314.137	0.15
314.506	0.16
314.875	0.15
315.244	0.14
315.613	0.16
315.982	0.16
316.351	0.16
316.72	0.17
317.089	0.15
317.458	0.18
317.826	0.17
318.195	0.17
318.564	0.16
318.933	0.18
319.301	0.18
319.67	0.17
320.038	0.17
320.407	0.19
320.775	0.18
321.144	0.18
321.512	0.18
321.881	0.19
322.249	0.18
322.618	0.2
322.986	0.2
323.354	0.19
323.723	0.2
324.091	0.19
324.459	0.21
324.827	0.21
325.195	0.21
325.564	0.2
325.932	0.21
326.3	0.21
326.668	0.22
327.036	0.21
327.404	0.23
327.772	0.23
328.14	0.22
328.508	0.23
328.875	0.23
329.243	0.24
329.611	0.25
329.979	0.24
330.346	0.24
330.714	0.25
331.082	0.25
331.449	0.25
331.817	0.25
332.185	0.27
332.552	0.27
332.92	0.27
333.287	0.27
333.655	0.28
334.022	0.29
334.389	0.28
334.757	0.3
335.124	0.31
335.491	0.31
335.859	0.32
336.226	0.32
336.593	0.33
336.96	0.34
337.327	0.34
337.695	0.35
338.062	0.35
338.429	0.36
338.796	0.37
339.163	0.37
339.53	0.37
339.897	0.38
340.263	0.39
340.63	0.4
340.997	0.41
341.364	0.42
341.731	0.42
342.097	0.42
342.464	0.43
342.831	0.44
343.197	0.45
343.564	0.46
343.931	0.45
344.297	0.47
344.664	0.47
345.03	0.49
345.396	0.48
345.763	0.5
346.129	0.5
346.496	0.51
346.862	0.52
347.228	0.52
347.594	0.53
347.961	0.54
348.327	0.55
348.693	0.55
349.059	0.56
349.425	0.57
349.791	0.58
350.157	0.58
350.523	0.59
350.889	0.59
351.255	0.61
351.621	0.6
351.987	0.61
352.353	0.62
352.719	0.62
353.084	0.64
353.45	0.64
353.816	0.65
354.181	0.65
354.547	0.67
354.913	0.67
355.278	0.68
355.644	0.69
356.009	0.71
356.375	0.71
356.74	0.72
357.106	0.73
357.471	0.74
357.836	0.74
358.202	0.76
358.567	0.76
358.932	0.78
359.297	0.79
359.663	0.8
360.028	0.81
360.393	0.81
360.758	0.84
361.123	0.85
361.488	0.86
361.853	0.88
362.218	0.88
362.583	0.89
362.948	0.91
363.312	0.91
363.677	0.91
364.042	0.92
364.407	0.95
364.772	0.95
365.136	0.96
365.501	0.97
365.865	0.98
366.23	0.99
366.595	0.99
366.959	1
367.324	1.02
367.688	1.01
368.052	1.03
368.417	1.04
368.781	1.05
369.145	1.06
369.51	1.07
369.874	1.07
370.238	1.08
370.602	1.09
370.967	1.08
371.331	1.08
371.695	1.1
372.059	1.09
372.423	1.11
372.787	1.09
373.151	1.08
373.515	1.1
373.878	1.1
374.242	1.07
374.606	1.08
374.97	1.08
375.334	1.06
375.697	1.05
376.061	1.04
376.425	1.03
376.788	1.03
377.152	1.02
377.515	1.01
377.879	1.01
378.242	0.98
378.606	0.98
378.969	0.96
379.333	0.97
379.696	0.94
380.059	0.94
380.422	0.92
380.786	0.91
381.149	0.91
381.512	0.89
381.875	0.89
382.238	0.88
382.601	0.86
382.964	0.87
383.327	0.85
383.69	0.85
384.053	0.83
384.416	0.83
384.779	0.83
385.142	0.82
385.504	0.81
385.867	0.82
386.23	0.81
386.593	0.81
386.955	0.81
387.318	0.81
387.68	0.81
388.043	0.81
388.405	0.8
388.768	0.81
389.13	0.81
389.493	0.81
389.855	0.8
390.217	0.79
390.58	0.78
390.942	0.78
391.304	0.77
391.666	0.77
392.028	0.76
392.391	0.75
392.753	0.74
393.115	0.73
393.477	0.72
393.839	0.72
394.201	0.72
394.563	0.7
394.924	0.71
395.286	0.71
395.648	0.71
396.01	0.72
396.371	0.73
396.733	0.74
397.095	0.75
397.456	0.77
397.818	0.79
398.18	0.8
398.541	0.83
398.903	0.84
399.264	0.86
399.625	0.88
399.987	0.9
400.348	0.92
400.709	0.94
401.071	0.93
401.432	0.93
401.793	0.93
402.154	0.93
402.515	0.91
402.876	0.9
403.238	0.88
403.599	0.86
403.96	0.84
404.32	0.81
404.681	0.78
405.042	0.74
405.403	0.71
405.764	0.67
406.125	0.64
406.485	0.62
406.846	0.58
407.207	0.54
407.567	0.52
407.928	0.49
408.288	0.46
408.649	0.43
409.009	0.41
409.37	0.39
409.73	0.37
410.091	0.34
410.451	0.33
410.811	0.31
411.171	0.3
411.532	0.28
411.892	0.26
412.252	0.25
412.612	0.24
412.972	0.23
413.332	0.22
413.692	0.21
414.052	0.2
414.412	0.19
414.772	0.19
415.132	0.18
415.492	0.18
415.851	0.17
416.211	0.17
416.571	0.16
416.931	0.16
417.29	0.15
417.65	0.15
418.009	0.14
418.369	0.13
418.728	0.14
419.088	0.13
419.447	0.13
419.807	0.13
420.166	0.12
420.525	0.12
420.884	0.12
421.244	0.11
421.603	0.11
421.962	0.11
422.321	0.11
422.68	0.11
423.039	0.1
423.398	0.11
423.757	0.1
424.116	0.1
424.475	0.1
424.834	0.1
425.193	0.1
425.551	0.1
425.91	0.1
426.269	0.1
426.628	0.09
426.986	0.09
427.345	0.09
427.703	0.1
428.062	0.09
428.42	0.1
428.779	0.09
429.137	0.1
429.496	0.08
429.854	0.08
430.212	0.09
430.57	0.09
430.929	0.08
431.287	0.08
431.645	0.08
432.003	0.09
432.361	0.09
432.719	0.08
433.077	0.08
433.435	0.08
433.793	0.08
434.151	0.07
434.509	0.09
434.866	0.07
435.224	0.07
435.582	0.08
435.94	0.08
436.297	0.09
436.655	0.09
437.012	0.08
437.37	0.08
437.727	0.07
438.085	0.09
438.442	0.08
438.8	0.09
439.157	0.08
439.514	0.07
439.872	0.08
440.229	0.07
440.586	0.07
440.943	0.08
441.3	0.08
441.657	0.08
442.014	0.08
442.371	0.07
442.728	0.08
443.085	0.08
443.442	0.07
443.799	0.07
444.156	0.08
444.513	0.07
444.869	0.07
445.226	0.08
445.583	0.08
445.939	0.08
446.296	0.07
446.652	0.08
447.009	0.07
447.365	0.08
447.722	0.07
448.078	0.07
448.434	0.07
448.791	0.07
449.147	0.07
449.503	0.07
449.859	0.06
450.215	0.07
450.571	0.08
450.928	0.08
451.284	0.08
451.64	0.08
451.995	0.07
452.351	0.07
452.707	0.06
453.063	0.07
453.419	0.06
453.775	0.06
454.13	0.06
454.486	0.06
454.842	0.06
455.197	0.06
455.553	0.06
455.908	0.05
456.264	0.04
456.619	0.04
456.975	0.05
457.33	0.05
457.685	0.04
458.04	0.04
458.396	0.04
458.751	0.03
459.106	0.03
459.461	0.03
459.816	0.04
460.171	0.02
460.526	0.02
460.881	0.02
461.236	0.01
461.591	0.01
461.946	0.01
462.301	0.01
462.655	0
463.01	0.01
463.365	-0.01
463.719	-0.01
464.074	-0.01
464.428	-0.02
464.783	-0.02
465.137	-0.02
465.492	-0.03
465.846	-0.02
466.201	-0.02
466.555	-0.02
466.909	-0.02
467.263	-0.01
467.618	-0.02
467.972	-0.01
468.326	-0.01
468.68	-0.02
469.034	-0.02
469.388	-0.03
469.742	-0.02
470.096	-0.01
470.45	-0.01
470.804	-0.01
471.157	-0.01
471.511	-0.01
471.865	-0.02
472.218	-0.01
472.572	-0
472.926	-0
473.279	0.01
473.633	0.02
473.986	0.02
474.34	0.02
474.693	0.03
475.046	0.04
475.4	0.05
475.753	0.06
476.106	0.05
476.459	0.07
476.812	0.08
477.165	0.08
477.519	0.08
477.872	0.1
478.224	0.1
478.577	0.1
478.93	0.11
479.283	0.11
479.636	0.11
479.989	0.12
480.341	0.12
480.694	0.13
481.047	0.14
481.399	0.14
481.752	0.14
482.104	0.14
482.457	0.15
482.809	0.16
483.162	0.16
483.514	0.17
483.866	0.17
484.219	0.17
484.571	0.17
484.923	0.17
485.275	0.18
485.627	0.18
485.979	0.19
486.331	0.19
486.683	0.19
487.035	0.2
487.387	0.2
487.739	0.21
488.091	0.21
488.443	0.21
488.794	0.21
489.146	0.21
489.498	0.22
489.849	0.22
490.201	0.22
490.552	0.22
490.904	0.22
491.255	0.23
491.607	0.23
491.958	0.23
492.309	0.23
492.661	0.24
493.012	0.24
493.363	0.24
493.714	0.24
494.065	0.25
494.416	0.25
494.767	0.25
495.118	0.26
495.469	0.26
495.82	0.26
496.171	0.26
496.522	0.27
496.872	0.27
497.223	0.27
497.574	0.27
497.924	0.27
498.275	0.28
498.626	0.28
498.976	0.28
499.327	0.29
499.677	0.29
500.027	0.29
500.378	0.29
500.728	0.3
501.078	0.3
501.428	0.3
501.779	0.31
502.129	0.31
502.479	0.31
502.829	0.31
503.179	0.32
503.529	0.32
503.879	0.32
504.229	0.32
504.578	0.33
504.928	0.32
505.278	0.33
505.628	0.33
505.977	0.33
506.327	0.33
506.676	0.34
507.026	0.34
507.375	0.35
507.725	0.34
508.074	0.34
508.424	0.34
508.773	0.35
509.122	0.35
509.471	0.35
509.82	0.36
510.17	0.36
510.519	0.36
510.868	0.36
511.217	0.36
511.566	0.36
511.915	0.37
512.263	0.36
512.612	0.37
512.961	0.38
513.31	0.37
513.659	0.37
514.007	0.38
514.356	0.38
514.704	0.38
515.053	0.38
515.401	0.39
515.75	0.39
516.098	0.39
516.447	0.4
516.795	0.4
517.143	0.39
517.491	0.4
517.839	0.4
518.188	0.4
518.536	0.41
518.884	0.4
519.232	0.4
519.58	0.41
519.928	0.4
520.275	0.42
520.623	0.41
520.971	0.42
521.319	0.42
521.666	0.42
522.014	0.42
522.362	0.42
522.709	0.42
523.057	0.42
523.404	0.43
523.752	0.43
524.099	0.43
524.446	0.43
524.794	0.44
525.141	0.44
525.488	0.44
525.835	0.44
526.182	0.44
526.529	0.44
526.876	0.44
527.223	0.44
527.57	0.45
527.917	0.45
528.264	0.45
528.611	0.45
528.958	0.45
529.304	0.45
529.651	0.45
529.998	0.46
530.344	0.45
530.691	0.46
531.037	0.45
531.384	0.46
531.73	0.46
532.076	0.47
532.423	0.47
532.769	0.47
533.115	0.46
533.461	0.46
533.807	0.47
534.154	0.47
534.5	0.47
534.846	0.47
535.192	0.47
535.537	0.47
535.883	0.47
536.229	0.47
536.575	0.48
536.921	0.48
537.266	0.48
537.612	0.48
537.957	0.48
538.303	0.48
538.649	0.48
538.994	0.49
539.339	0.48
539.685	0.48
540.03	0.49
540.375	0.49
540.721	0.49
541.066	0.49
541.411	0.49
541.756	0.49
542.101	0.49
542.446	0.49
542.791	0.49
543.136	0.5
543.481	0.49
543.825	0.49
544.17	0.49
544.515	0.5
544.86	0.49
545.204	0.5
545.549	0.5
545.893	0.5
546.238	0.5
546.582	0.49
546.927	0.5
547.271	0.5
547.615	0.51
547.96	0.5
548.304	0.5
548.648	0.5
548.992	0.51
549.336	0.5
549.68	0.5
550.024	0.51
550.368	0.5
550.712	0.51
551.056	0.51
551.4	0.51
551.743	0.51
552.087	0.5
552.431	0.5
552.774	0.51
553.118	0.5
553.462	0.51
553.805	0.51
554.148	0.51
554.492	0.51
554.835	0.51
555.178	0.51
555.522	0.51
555.865	0.51
556.208	0.51
556.551	0.51
556.894	0.51
557.237	0.51
557.58	0.51
557.923	0.51
558.266	0.51
558.609	0.51
558.952	0.51
559.294	0.5
559.637	0.51
559.98	0.51
560.322	0.51
560.665	0.51
561.007	0.51
561.35	0.5
561.692	0.51
562.034	0.5
562.377	0.5
562.719	0.5
563.061	0.5
563.403	0.5
563.745	0.5
564.088	0.5
564.43	0.5
564.772	0.5
565.113	0.5
565.455	0.5
565.797	0.5
566.139	0.5
566.481	0.5
566.822	0.5
567.164	0.5
567.506	0.5
567.847	0.5
568.189	0.5
568.53	0.5
568.872	0.5
569.213	0.5
569.554	0.5
569.895	0.49
570.237	0.49
570.578	0.49
570.919	0.49
571.26	0.49
571.601	0.49
571.942	0.49
572.283	0.48
572.624	0.49
572.965	0.48
573.306	0.48
573.646	0.48
573.987	0.48
574.328	0.48
574.668	0.48
575.009	0.47
575.349	0.48
575.69	0.47
576.03	0.47
576.37	0.47
576.711	0.46
577.051	0.47
577.391	0.47
577.731	0.47
578.072	0.47
578.412	0.47
578.752	0.47
579.092	0.46
579.431	0.46
579.771	0.44
580.111	0.44
580.451	0.45
580.791	0.46
581.13	0.46
581.47	0.46
581.81	0.46
582.149	0.46
582.489	0.46
582.828	0.45
583.167	0.43
583.507	0.4
583.846	0.39
584.185	0.43
584.525	0.45
584.864	0.45
585.203	0.46
585.542	0.46
585.881	0.46
586.22	0.46
586.559	0.45
586.898	0.44
587.236	0.44
587.575	0.44
587.914	0.44
588.252	0.45
588.591	0.45
588.93	0.45
589.268	0.45
589.607	0.45
589.945	0.45
590.283	0.45
590.622	0.45
590.96	0.45
591.298	0.46
591.636	0.45
591.974	0.46
592.313	0.46
592.651	0.46
592.989	0.46
593.326	0.46
593.664	0.45
594.002	0.45
594.34	0.45
594.678	0.45
595.015	0.45
595.353	0.44
595.691	0.45
596.028	0.46
596.366	0.45
596.703	0.46
597.04	0.45
597.378	0.46
597.715	0.46
598.052	0.46
598.389	0.46
598.726	0.45
599.064	0.45
599.401	0.45
599.738	0.45
600.074	0.45
600.411	0.45
600.748	0.45
601.085	0.45
601.422	0.45
601.758	0.45
602.095	0.45
602.432	0.45
602.768	0.45
603.105	0.45
603.441	0.45
603.777	0.45
604.114	0.46
604.45	0.45
604.786	0.45
605.122	0.45
605.459	0.44
605.795	0.44
606.131	0.44
606.467	0.45
606.803	0.44
607.139	0.44
607.474	0.44
607.81	0.44
608.146	0.44
608.482	0.44
608.817	0.44
609.153	0.44
609.488	0.44
609.824	0.44
610.159	0.43
610.495	0.43
610.83	0.43
611.165	0.43
611.5	0.43
611.836	0.43
612.171	0.43
612.506	0.43
612.841	0.43
613.176	0.42
613.511	0.42
613.845	0.42
614.18	0.42
614.515	0.42
614.85	0.42
615.184	0.42
615.519	0.41
615.854	0.41
616.188	0.41
616.523	0.41
616.857	0.41
617.191	0.41
617.526	0.41
617.86	0.4
618.194	0.4
618.528	0.4
618.862	0.4
619.196	0.4
619.53	0.4
619.864	0.4
620.198	0.4
620.532	0.4
620.866	0.39
621.2	0.39
621.533	0.39
621.867	0.39
622.201	0.39
622.534	0.39
622.868	0.39
623.201	0.38
623.534	0.38
623.868	0.38
624.201	0.38
624.534	0.38
624.868	0.37
625.201	0.37
625.534	0.37
625.867	0.37
626.2	0.37
626.533	0.37
626.865	0.37
627.198	0.37
627.531	0.37
627.864	0.36
628.196	0.37
628.529	0.36
628.862	0.36
629.194	0.35
629.527	0.35
629.859	0.35
630.191	0.35
630.524	0.35
630.856	0.35
631.188	0.34
631.52	0.34
631.852	0.34
632.184	0.34
632.516	0.33
632.848	0.33
633.18	0.33
633.512	0.33
633.844	0.33
634.175	0.32
634.507	0.33
634.839	0.32
635.17	0.32
635.502	0.32
635.833	0.32
636.165	0.31
636.496	0.31
636.827	0.31
637.159	0.31
637.49	0.31
637.821	0.3
638.152	0.3
638.483	0.3
638.814	0.3
639.145	0.29
639.476	0.29
639.807	0.29
640.137	0.29
640.468	0.29
640.799	0.29
641.129	0.29
641.46	0.28
641.791	0.28
642.121	0.28
642.451	0.27
642.782	0.27
643.112	0.27
643.442	0.27
643.773	0.27
644.103	0.27
644.433	0.27
644.763	0.27
645.093	0.27
645.423	0.26
645.753	0.27
646.082	0.26
646.412	0.26
646.742	0.26
647.072	0.26
647.401	0.26
647.731	0.25
648.06	0.25
648.39	0.25
648.719	0.25
649.048	0.25
649.378	0.25
649.707	0.25
650.036	0.25
650.365	0.24
650.694	0.24
651.023	0.24
651.352	0.24
651.681	0.24
652.01	0.24
652.339	0.24
652.668	0.24
652.996	0.24
653.325	0.24
653.654	0.24
653.982	0.24
654.311	0.23
654.639	0.24
654.967	0.23
655.296	0.24
655.624	0.23
655.952	0.24
656.28	0.23
656.609	0.23
656.937	0.23
657.265	0.22
657.593	0.09
657.92	0.01
658.248	0
658.576	0.05
658.904	0.17
659.231	0.22
659.559	0.23
659.887	0.22
660.214	0.23
660.542	0.22
660.869	0.22
661.196	0.22
661.524	0.22
661.851	0.22
662.178	0.22
662.505	0.22
662.832	0.22
663.159	0.22
663.486	0.21
663.813	0.22
664.14	0.22
664.467	0.21
664.794	0.21
665.12	0.21
665.447	0.21
665.774	0.21
666.1	0.21
666.427	0.21
666.753	0.21
667.079	0.21
667.406	0.2
667.732	0.2
668.058	0.2
668.384	0.2
668.71	0.2
669.036	0.2
669.362	0.2
669.688	0.2
670.014	0.2
670.34	0.19
670.666	0.19
670.991	0.19
671.317	0.19
671.643	0.19
671.968	0.19
672.294	0.19
672.619	0.18
672.945	0.19
673.27	0.19
673.595	0.18
673.92	0.18
674.246	0.18
674.571	0.18
674.896	0.18
675.221	0.17
675.546	0.17
675.87	0.17
676.195	0.17
676.52	0.17
676.845	0.17
677.169	0.16
677.494	0.16
677.819	0.16
678.143	0.16
678.468	0.16
678.792	0.16
679.116	0.16
679.44	0.16
679.765	0.15
680.089	0.15
680.413	0.15
680.737	0.15
681.061	0.15
681.385	0.15
681.709	0.14
682.033	0.14
682.356	0.14
682.68	0.14
683.004	0.14
683.327	0.14
683.651	0.14
683.974	0.14
684.298	0.13
684.621	0.13
684.944	0.13
685.268	0.13
685.591	0.13
685.914	0.12
686.237	0.12
686.56	0.12
686.883	0.12
687.206	0.12
687.529	0.12
687.852	0.12
688.175	0.12
688.497	0.11
688.82	0.11
689.142	0.11
689.465	0.11
689.787	0.11
690.11	0.11
690.432	0.11
690.755	0.11
691.077	0.1
691.399	0.1
691.721	0.1
692.043	0.1
692.365	0.1
692.687	0.1
693.009	0.09
693.331	0.09
693.653	0.09
693.974	0.09
694.296	0.09
694.618	0.09
694.939	0.09
695.261	0.09
695.582	0.09
695.904	0.09
696.225	0.09
696.546	0.08
696.868	0.09
697.189	0.08
697.51	0.08
697.831	0.08
698.152	0.08
698.473	0.08
698.794	0.08
699.114	0.08
699.435	0.07
699.756	0.08
700.077	0.08
700.397	0.08
700.718	0.08
701.038	0.08
701.359	0.08
701.679	0.08
701.999	0.08
702.32	0.08
702.64	0.08
702.96	0.08
703.28	0.07
703.6	0.07
703.92	0.07
704.24	0.07
704.56	0.07
704.879	0.07
705.199	0.07
705.519	0.07
705.838	0.07
706.158	0.07
706.478	0.07
706.797	0.07
707.116	0.07
707.436	0.07
707.755	0.07
708.074	0.07
708.393	0.06
708.712	0.06
709.031	0.06
709.35	0.06
709.669	0.06
709.988	0.06
710.307	0.06
710.626	0.06
710.944	0.06
711.263	0.06
711.582	0.06
711.9	0.07
712.219	0.06
712.537	0.07
712.855	0.07
713.174	0.07
713.492	0.07
713.81	0.07
714.128	0.07
714.446	0.07
714.764	0.06
715.082	0.06
715.4	0.07
715.718	0.06
716.035	0.06
716.353	0.06
716.671	0.07
716.988	0.06
717.306	0.06
717.623	0.07
717.941	0.07
718.258	0.07
718.575	0.07
718.893	0.07
719.21	0.07
719.527	0.07
719.844	0.07
720.161	0.07
720.478	0.07
720.795	0.07
721.112	0.07
721.428	0.07
721.745	0.07
722.062	0.07
722.378	0.07
722.695	0.07
723.011	0.07
723.328	0.07
723.644	0.07
723.96	0.07
724.276	0.07
724.593	0.07
724.909	0.07
725.225	0.07
725.541	0.07
725.857	0.07
726.173	0.07
726.488	0.07
726.804	0.07
727.12	0.07
727.435	0.07
727.751	0.07
728.067	0.07
728.382	0.07
728.697	0.07
729.013	0.07
729.328	0.07
729.643	0.07
729.958	0.07
730.273	0.07
730.588	0.07
730.903	0.07
731.218	0.07
731.533	0.07
731.848	0.07
732.163	0.07
732.477	0.07
732.792	0.07
733.107	0.06
733.421	0.07
733.736	0.07
734.05	0.07
734.364	0.07
734.678	0.06
734.993	0.06
735.307	0.07
735.621	0.06
735.935	0.06
736.249	0.07
736.563	0.07
736.877	0.07
737.19	0.06
737.504	0.07
737.818	0.07
738.131	0.06
738.445	0.07
738.758	0.07
739.072	0.07
739.385	0.06
739.698	0.07
740.012	0.07
740.325	0.06
740.638	0.06
740.951	0.06
741.264	0.06
741.577	0.06
741.89	0.06
742.203	0.06
742.515	0.06
742.828	0.06
743.141	0.06
743.453	0.06
743.766	0.05
744.078	0.06
744.391	0.06
744.703	0.05
745.015	0.05
745.327	0.06
745.639	0.05
745.952	0.06
746.264	0.05
746.575	0.06
746.887	0.05
747.199	0.05
747.511	0.05
747.823	0.05
748.134	0.05
748.446	0.05
748.757	0.05
749.069	0.05
749.38	0.05
749.692	0.05
750.003	0.05
750.314	0.05
750.625	0.05
750.936	0.04
751.248	0.04
751.559	0.05
751.869	0.04
752.18	0.04
752.491	0.04
752.802	0.04
753.112	0.04
753.423	0.04
753.734	0.04
754.044	0.04
754.355	0.04
754.665	0.04
754.975	0.04
755.285	0.04
755.596	0.04
755.906	0.04
756.216	0.04
756.526	0.04
756.836	0.04
757.146	0.04
757.455	0.04
757.765	0.04
758.075	0.04
758.385	0.04
758.694	0.03
759.004	0.03
759.313	0.03
759.622	0.04
759.932	0.04
760.241	0.03
760.55	0.04
760.859	0.03
761.168	0.04
761.477	0.03
761.786	0.03
762.095	0.03
762.404	0.03
762.713	0.03
763.021	0.03
763.33	0.03
763.639	0.03
763.947	0.03
764.256	0.03
764.564	0.03
764.872	0.03
765.181	0.03
765.489	0.03
765.797	0.03
766.105	0.03
766.413	0.03
766.721	0.03
767.029	0.03
767.337	0.03
767.644	0.03
767.952	0.03
768.26	0.03
768.567	0.03
768.875	0.03
769.182	0.03
769.49	0.03
769.797	0.03
770.104	0.03
770.411	0.03
770.718	0.03
771.026	0.03
771.333	0.03
771.639	0.03
771.946	0.03
772.253	0.03
772.56	0.03
772.867	0.03
773.173	0.03
773.48	0.03
773.786	0.03
774.093	0.03
774.399	0.03
774.705	0.03
775.012	0.03
775.318	0.03
775.624	0.03
775.93	0.03
776.236	0.03
776.542	0.03
776.848	0.03
777.154	0.03
777.459	0.03
777.765	0.03
778.071	0.03
778.376	0.03
778.682	0.03
778.987	0.03
779.292	0.03
779.598	0.03
779.903	0.03
780.208	0.03
780.513	0.03
780.818	0.03
781.123	0.03
781.428	0.03
781.733	0.03
782.038	0.03
782.343	0.03
782.647	0.03
782.952	0.03
783.256	0.03
783.561	0.03
783.865	0.03
784.17	0.03
784.474	0.03
784.778	0.03
785.082	0.03
785.386	0.03
785.69	0.03
785.994	0.03
786.298	0.03
786.602	0.03
786.906	0.03
787.209	0.03
787.513	0.03
787.817	0.03
788.12	0.03
788.424	0.03
788.727	0.03
789.03	0.03
789.333	0.03
789.637	0.03
789.94	0.03
790.243	0.03
790.546	0.03
790.849	0.03
791.152	0.03
791.454	0.03
791.757	0.02
792.06	0.03
792.362	0.03
792.665	0.03
792.967	0.03
793.27	0.03
793.572	0.03
793.874	0.03
794.177	0.03
794.479	0.03
794.781	0.03
795.083	0.03
795.385	0.03
795.687	0.03
795.989	0.03
796.29	0.03
796.592	0.04
796.894	0.03
797.195	0.04
797.497	0.04
797.798	0.04
798.1	0.04
798.401	0.04
798.702	0.04
799.003	0.04
799.304	0.04
799.605	0.04
799.906	0.04
800.207	0.03
800.508	0.04
800.809	0.04
801.11	0.04
801.41	0.04
801.711	0.04
802.011	0.04
802.312	0.04
802.612	0.04
802.913	0.04
803.213	0.04
803.513	0.04
803.813	0.04
804.113	0.03
804.413	0.03
804.713	0.03
805.013	0.04
805.313	0.04
805.613	0.04
805.912	0.04
806.212	0.04
806.511	0.04
806.811	0.04
807.11	0.04
807.41	0.04
807.709	0.04
808.008	0.04
808.307	0.04
808.606	0.04
808.905	0.04
809.204	0.04
809.503	0.04
809.802	0.04
810.101	0.04
810.399	0.04
810.698	0.04
810.997	0.04
811.295	0.04
811.593	0.04
811.892	0.04
812.19	0.04
812.488	0.04
812.786	0.04
813.084	0.04
813.383	0.04
813.68	0.05
813.978	0.05
814.276	0.04
814.574	0.05
814.872	0.05
815.169	0.05
815.467	0.05
815.764	0.04
816.062	0.05
816.359	0.04
816.656	0.04
816.954	0.05
817.251	0.05
817.548	0.05
817.845	0.05
818.142	0.05
818.439	0.05
818.735	0.05
819.032	0.05
819.329	0.05
819.626	0.05
819.922	0.05
820.219	0.05
820.515	0.06
820.811	0.05
821.108	0.05
821.404	0.04
821.7	0.05
821.996	0.05
822.292	0.05
822.588	0.05
822.884	0.05
823.18	0.05
823.475	0.04
823.771	0.05
824.067	0.04
824.362	0.05
824.658	0.05
824.953	0.05
825.249	0.05
825.544	0.05
825.839	0.05
826.134	0.05
826.429	0.05
826.724	0.05
827.019	0.05
827.314	0.05
827.609	0.05
827.904	0.06
828.198	0.06
828.493	0.05
828.787	0.04
829.082	0.05
829.376	0.05
829.671	0.05
829.965	0.06
830.259	0.06
830.553	0.05
830.847	0.05
831.141	0.05
831.435	0.06
831.729	0.06
832.023	0.06
832.317	0.06
832.61	0.05
832.904	0.06
833.197	0.05
833.491	0.06
833.784	0.05
834.077	0.05
834.371	0.06
834.664	0.05
834.957	0.05
835.25	0.06
835.543	0.06
835.836	0.06
836.129	0.06
836.421	0.06
836.714	0.06
837.007	0.05
837.299	0.06
837.592	0.06
837.884	0.06
838.177	0.06
838.469	0.06
838.761	0.06
839.053	0.05
839.345	0.06
839.637	0.06
839.929	0.05
840.221	0.06
840.513	0.06
840.805	0.06
841.096	0.06
841.388	0.06
841.68	0.06
841.971	0.05
842.262	0.06
842.554	0.06
842.845	0.06
843.136	0.06
843.427	0.06
843.718	0.06
844.009	0.06
844.3	0.06
844.591	0.06
844.882	0.06
845.173	0.06
845.463	0.07
845.754	0.06
846.044	0.05
846.335	0.06
846.625	0.06
846.915	0.05
847.206	0.06
847.496	0.07
847.786	0.06
848.076	0.08
848.366	0.06
848.656	0.07
848.945	0.07
849.235	0.06
849.525	0.07
849.814	0.06
850.104	0.06
850.393	0.06
850.683	0.07
850.972	0.07
851.261	0.06
851.551	0.07
851.84	0.07
852.129	0.06
852.418	0.06
852.707	0.07
852.995	0.07
853.284	0.07
853.573	0.07
853.862	0.07
854.15	0.08
854.439	0.07
854.727	0.07
855.015	0.08
855.304	0.07
855.592	0.07
855.88	0.07
856.168	0.07
856.456	0.07
856.744	0.07
857.032	0.07
857.32	0.07
857.607	0.08
857.895	0.07
858.183	0.08
858.47	0.07
858.757	0.07
859.045	0.06
859.332	0.06
859.619	0.07
859.907	0.07
860.194	0.09
860.481	0.08
860.768	0.07
861.054	0.07
861.341	0.07
861.628	0.06
861.915	0.07
862.201	0.09
862.488	0.06
862.774	0.08
863.061	0.07
863.347	0.07
863.633	0.1
863.919	0.06
864.205	0.07
864.491	0.07
864.777	0.08
865.063	0.05
865.349	0.05
865.635	0.06
865.92	0.04
866.206	0.06
866.492	0.05
866.777	0.06
867.062	0.05
867.348	0.04
867.633	0.06
867.918	0.07
868.203	0.07
868.488	0.05
868.773	0.1
869.058	0.08
869.343	0.1
869.628	0.05
869.912	0.04
870.197	0.1
870.482	0.08
870.766	0.03
871.05	0.06
871.335	0.05
871.619	0.05
871.903	0.05
872.187	0.05
872.471	0.08
872.755	0.08
873.039	0.08
873.323	0.05
873.607	0.06
873.89	0.07
874.174	0.02
874.458	0.04
874.741	0.05
875.024	0.09
875.308	0.08
875.591	-0.02
875.874	0.06
876.157	-0.02
876.44	0.11
876.723	0.04
877.006	0.06
877.289	0.04
877.572	0.18
877.854	0.03
878.137	-0.03
878.42	0.06
878.702	0.02
878.984	-0.08
879.267	0.01
879.549	0.06
879.831	0.08
880.113	0.01
880.395	0.03
880.677	0.03
880.959	-0.07
