Data from Rubpy_BV_1800_EDTA_Buffered_Absorbance_16-42-04-610.txt Node
Date: Wed Jul 01 16:42:04 BST 2026
User: fpm-admin
Spectrometer: OFX00224
Trigger mode: 0
Integration Time (sec): 7.000000E-2
Scans to average: 3
Nonlinearity correction enabled: false
Boxcar width: 0
Storing dark spectrum: false
XAxis mode: Wavelengths
Number of Pixels in Spectrum: 2136
>>>>>Begin Spectral Data<<<<<
154.91	-0
155.289	-0.14
155.669	-0
156.048	-0
156.428	0.64
156.807	0.24
157.186	-0
157.566	0.3
157.945	-0.3
158.325	-0.04
158.704	-0.21
159.083	0.26
159.462	-0
159.842	-0
160.221	1.18
160.6	-0
160.979	-0
161.359	-0
161.738	-0
162.117	-0.88
162.496	-0
162.875	-0.36
163.254	0.66
163.633	1.45
164.012	0.02
164.391	0.5
164.77	-0.02
165.149	-0.85
165.528	-0
165.907	0.07
166.286	-0
166.665	1.32
167.044	0.43
167.423	0.52
167.802	0.48
168.181	-0
168.559	-0.85
168.938	0.4
169.317	0.45
169.696	-0
170.074	-0
170.453	-0.51
170.832	-0.9
171.21	0.29
171.589	-0
171.968	0.25
172.346	0.05
172.725	-0.3
173.103	-0
173.482	-0
173.861	-0
174.239	-0
174.617	-0.1
174.996	0.15
175.374	-0
175.753	-0.82
176.131	0.73
176.51	-0.41
176.888	-0
177.266	-0
177.645	-0.08
178.023	-0
178.401	-0.16
178.779	-0
179.158	0.78
179.536	-0
179.914	0.26
180.292	0.4
180.67	-0
181.048	0.46
181.427	-0
181.805	-0.08
182.183	-0
182.561	-0
182.939	-0
183.317	1
183.695	0.65
184.073	-0
184.451	-0.38
184.829	-0
185.206	-0.39
185.584	0.16
185.962	0.22
186.34	-0.41
186.718	0.41
187.096	-0.27
187.473	-0
187.851	-0
188.229	-0.06
188.607	0.02
188.984	0.08
189.362	0.1
189.74	0.22
190.117	-0.03
190.495	0.2
190.872	0.04
191.25	0.05
191.627	0.06
192.005	0.17
192.382	0.15
192.76	0.09
193.137	0.13
193.515	0.15
193.892	0.14
194.269	0.18
194.647	0.11
195.024	0.11
195.401	0.11
195.779	0.04
196.156	0.24
196.533	0.22
196.91	0.1
197.288	0.1
197.665	0.17
198.042	0.16
198.419	0.08
198.796	0.06
199.173	0.23
199.55	0.21
199.927	0.15
200.304	0.09
200.681	0.11
201.058	-0.03
201.435	0.24
201.812	0.1
202.189	0.09
202.566	0.21
202.943	0.08
203.32	0.19
203.697	0.13
204.073	0.07
204.45	0.13
204.827	0.15
205.204	0.05
205.58	0.09
205.957	0.11
206.334	0.17
206.71	0.15
207.087	0.11
207.464	0.17
207.84	0.19
208.217	0.08
208.593	-0.02
208.97	0.17
209.346	0.16
209.723	0.16
210.099	0.25
210.476	0.14
210.852	0.3
211.228	0.15
211.605	0.12
211.981	0.19
212.357	0.26
212.733	0.11
213.11	0.21
213.486	0.23
213.862	0.09
214.238	0.14
214.614	0.15
214.991	0.15
215.367	0.25
215.743	0.17
216.119	0.17
216.495	0.17
216.871	0.2
217.247	0.17
217.623	0.18
217.999	0.14
218.375	0.15
218.751	0.15
219.127	0.18
219.502	0.16
219.878	0.09
220.254	0.18
220.63	0.15
221.006	0.2
221.381	0.24
221.757	0.14
222.133	0.1
222.508	0.2
222.884	0.12
223.26	0.11
223.635	0.12
224.011	0.06
224.386	0.06
224.762	0.19
225.137	0.11
225.513	0.12
225.888	0.15
226.264	0.12
226.639	0.14
227.014	0.26
227.39	0.15
227.765	0.14
228.14	0.18
228.516	0.11
228.891	0.13
229.266	0.2
229.641	0.13
230.017	0.24
230.392	0.15
230.767	0.24
231.142	0.16
231.517	0.02
231.892	0.21
232.267	0.18
232.642	0.18
233.017	0.24
233.392	0.21
233.767	0.19
234.142	0.13
234.517	-0.01
234.892	0.18
235.267	0.16
235.641	0.23
236.016	0.17
236.391	0.11
236.766	0.2
237.14	0.19
237.515	0.27
237.89	0.19
238.264	0.22
238.639	0.14
239.014	0.24
239.388	0.27
239.763	0.12
240.137	0.04
240.512	0.17
240.886	0.19
241.261	0.18
241.635	0.22
242.009	0.19
242.384	0.09
242.758	0.28
243.132	0.1
243.507	0.22
243.881	0.13
244.255	0.19
244.629	0.19
245.004	0.12
245.378	0.2
245.752	0.16
246.126	0.12
246.5	0.15
246.874	0.09
247.248	0.13
247.622	0.25
247.996	0.1
248.37	0.17
248.744	0.09
249.118	0.1
249.492	0.1
249.866	0.22
250.24	0.16
250.613	0.24
250.987	0.21
251.361	0.2
251.735	0.2
252.108	0.15
252.482	0.15
252.856	0.1
253.229	0.13
253.603	0.11
253.977	0.32
254.35	0.17
254.724	0.21
255.097	0.12
255.471	0.12
255.844	0.16
256.218	0.21
256.591	0.14
256.964	0.16
257.338	0.18
257.711	0.2
258.084	0.16
258.458	0.17
258.831	0.27
259.204	0.14
259.577	0.12
259.95	0.23
260.323	0.16
260.697	0.11
261.07	0.11
261.443	0.22
261.816	0.18
262.189	0.14
262.562	0.19
262.935	0.15
263.308	0.08
263.68	0.16
264.053	0.27
264.426	0.21
264.799	0.16
265.172	0.27
265.545	0.11
265.917	0.21
266.29	0.19
266.663	0.19
267.035	0.14
267.408	0.28
267.781	0.21
268.153	0.11
268.526	0.13
268.898	0.16
269.271	0.2
269.643	0.12
270.016	0.29
270.388	0.08
270.76	0.22
271.133	0.19
271.505	0.09
271.877	0.09
272.25	0.21
272.622	0.23
272.994	0.19
273.366	0.27
273.739	0.15
274.111	0.16
274.483	0.14
274.855	0.14
275.227	0.24
275.599	0.2
275.971	0.07
276.343	0.16
276.715	0.08
277.087	0.2
277.459	0.22
277.831	0.15
278.203	0.13
278.574	0.22
278.946	0.13
279.318	0.16
279.69	0.21
280.061	0.2
280.433	0.13
280.805	0.23
281.176	0.17
281.548	0.2
281.92	0.15
282.291	0.17
282.663	0.15
283.034	0.16
283.406	0.16
283.777	0.21
284.148	0.19
284.52	0.22
284.891	0.18
285.262	0.13
285.634	0.18
286.005	0.12
286.376	0.2
286.747	0.15
287.119	0.16
287.49	0.26
287.861	0.18
288.232	0.16
288.603	0.19
288.974	0.07
289.345	0.14
289.716	0.16
290.087	0.07
290.458	0.13
290.829	0.13
291.2	0.15
291.571	0.2
291.941	0.26
292.312	0.13
292.683	0.13
293.054	0.19
293.424	0.12
293.795	0.15
294.166	0.13
294.536	0.15
294.907	0.12
295.277	0.16
295.648	0.22
296.018	0.23
296.389	0.07
296.759	0.12
297.13	0.24
297.5	0.17
297.871	0.15
298.241	0.2
298.611	0.13
298.981	0.15
299.352	0.17
299.722	0.17
300.092	0.18
300.462	0.19
300.832	0.2
301.202	0.23
301.573	0.13
301.943	0.12
302.313	0.12
302.683	0.19
303.053	0.18
303.422	0.16
303.792	0.16
304.162	0.13
304.532	0.15
304.902	0.15
305.272	0.15
305.641	0.19
306.011	0.13
306.381	0.15
306.75	0.23
307.12	0.16
307.49	0.16
307.859	0.09
308.229	0.13
308.598	0.13
308.968	0.16
309.337	0.11
309.707	0.12
310.076	0.09
310.445	0.09
310.815	0.12
311.184	0.11
311.553	0.12
311.923	0.12
312.292	0.12
312.661	0.11
313.03	0.12
313.399	0.12
313.768	0.11
314.137	0.09
314.506	0.11
314.875	0.11
315.244	0.09
315.613	0.12
315.982	0.13
316.351	0.11
316.72	0.1
317.089	0.11
317.458	0.12
317.826	0.11
318.195	0.1
318.564	0.11
318.933	0.11
319.301	0.11
319.67	0.11
320.038	0.13
320.407	0.12
320.775	0.12
321.144	0.12
321.512	0.13
321.881	0.12
322.249	0.13
322.618	0.13
322.986	0.13
323.354	0.13
323.723	0.14
324.091	0.13
324.459	0.14
324.827	0.13
325.195	0.13
325.564	0.14
325.932	0.14
326.3	0.13
326.668	0.15
327.036	0.15
327.404	0.16
327.772	0.15
328.14	0.14
328.508	0.14
328.875	0.15
329.243	0.16
329.611	0.16
329.979	0.15
330.346	0.16
330.714	0.16
331.082	0.17
331.449	0.16
331.817	0.17
332.185	0.17
332.552	0.17
332.92	0.18
333.287	0.18
333.655	0.17
334.022	0.19
334.389	0.19
334.757	0.2
335.124	0.19
335.491	0.2
335.859	0.2
336.226	0.2
336.593	0.21
336.96	0.22
337.327	0.21
337.695	0.22
338.062	0.23
338.429	0.23
338.796	0.23
339.163	0.24
339.53	0.24
339.897	0.25
340.263	0.25
340.63	0.26
340.997	0.26
341.364	0.26
341.731	0.27
342.097	0.27
342.464	0.28
342.831	0.28
343.197	0.28
343.564	0.3
343.931	0.29
344.297	0.29
344.664	0.3
345.03	0.31
345.396	0.31
345.763	0.32
346.129	0.32
346.496	0.33
346.862	0.33
347.228	0.33
347.594	0.34
347.961	0.35
348.327	0.35
348.693	0.35
349.059	0.36
349.425	0.36
349.791	0.37
350.157	0.37
350.523	0.38
350.889	0.38
351.255	0.39
351.621	0.38
351.987	0.39
352.353	0.4
352.719	0.4
353.084	0.41
353.45	0.41
353.816	0.42
354.181	0.42
354.547	0.42
354.913	0.43
355.278	0.44
355.644	0.44
356.009	0.45
356.375	0.45
356.74	0.46
357.106	0.47
357.471	0.47
357.836	0.48
358.202	0.49
358.567	0.49
358.932	0.5
359.297	0.51
359.663	0.51
360.028	0.53
360.393	0.52
360.758	0.53
361.123	0.54
361.488	0.55
361.853	0.56
362.218	0.57
362.583	0.58
362.948	0.59
363.312	0.59
363.677	0.59
364.042	0.61
364.407	0.61
364.772	0.62
365.136	0.62
365.501	0.62
365.865	0.64
366.23	0.64
366.595	0.64
366.959	0.66
367.324	0.66
367.688	0.67
368.052	0.67
368.417	0.67
368.781	0.69
369.145	0.69
369.51	0.7
369.874	0.71
370.238	0.71
370.602	0.71
370.967	0.72
371.331	0.73
371.695	0.73
372.059	0.72
372.423	0.73
372.787	0.73
373.151	0.73
373.515	0.73
373.878	0.72
374.242	0.72
374.606	0.71
374.97	0.71
375.334	0.7
375.697	0.7
376.061	0.69
376.425	0.69
376.788	0.68
377.152	0.68
377.515	0.68
377.879	0.66
378.242	0.66
378.606	0.65
378.969	0.65
379.333	0.64
379.696	0.63
380.059	0.62
380.422	0.61
380.786	0.61
381.149	0.61
381.512	0.6
381.875	0.6
382.238	0.59
382.601	0.59
382.964	0.58
383.327	0.58
383.69	0.58
384.053	0.56
384.416	0.57
384.779	0.57
385.142	0.56
385.504	0.56
385.867	0.56
386.23	0.56
386.593	0.56
386.955	0.57
387.318	0.57
387.68	0.57
388.043	0.57
388.405	0.56
388.768	0.57
389.13	0.57
389.493	0.57
389.855	0.57
390.217	0.57
390.58	0.56
390.942	0.56
391.304	0.55
391.666	0.55
392.028	0.54
392.391	0.54
392.753	0.54
393.115	0.53
393.477	0.52
393.839	0.52
394.201	0.52
394.563	0.51
394.924	0.51
395.286	0.51
395.648	0.53
396.01	0.52
396.371	0.53
396.733	0.54
397.095	0.55
397.456	0.56
397.818	0.58
398.18	0.59
398.541	0.61
398.903	0.63
399.264	0.64
399.625	0.65
399.987	0.67
400.348	0.68
400.709	0.7
401.071	0.69
401.432	0.7
401.793	0.7
402.154	0.69
402.515	0.69
402.876	0.68
403.238	0.66
403.599	0.65
403.96	0.63
404.32	0.6
404.681	0.59
405.042	0.55
405.403	0.53
405.764	0.5
406.125	0.48
406.485	0.45
406.846	0.43
407.207	0.4
407.567	0.38
407.928	0.37
408.288	0.35
408.649	0.32
409.009	0.3
409.37	0.28
409.73	0.27
410.091	0.25
410.451	0.24
410.811	0.23
411.171	0.21
411.532	0.2
411.892	0.2
412.252	0.19
412.612	0.17
412.972	0.17
413.332	0.17
413.692	0.16
414.052	0.15
414.412	0.14
414.772	0.14
415.132	0.13
415.492	0.12
415.851	0.12
416.211	0.12
416.571	0.12
416.931	0.11
417.29	0.1
417.65	0.11
418.009	0.1
418.369	0.1
418.728	0.1
419.088	0.09
419.447	0.1
419.807	0.09
420.166	0.09
420.525	0.09
420.884	0.09
421.244	0.08
421.603	0.09
421.962	0.08
422.321	0.08
422.68	0.07
423.039	0.07
423.398	0.07
423.757	0.08
424.116	0.07
424.475	0.07
424.834	0.07
425.193	0.06
425.551	0.08
425.91	0.07
426.269	0.07
426.628	0.06
426.986	0.07
427.345	0.06
427.703	0.06
428.062	0.06
428.42	0.06
428.779	0.06
429.137	0.07
429.496	0.05
429.854	0.06
430.212	0.06
430.57	0.06
430.929	0.05
431.287	0.06
431.645	0.06
432.003	0.06
432.361	0.06
432.719	0.06
433.077	0.06
433.435	0.05
433.793	0.06
434.151	0.05
434.509	0.06
434.866	0.05
435.224	0.05
435.582	0.06
435.94	0.06
436.297	0.06
436.655	0.07
437.012	0.05
437.37	0.05
437.727	0.05
438.085	0.05
438.442	0.06
438.8	0.05
439.157	0.05
439.514	0.05
439.872	0.05
440.229	0.05
440.586	0.05
440.943	0.06
441.3	0.06
441.657	0.06
442.014	0.05
442.371	0.05
442.728	0.05
443.085	0.05
443.442	0.05
443.799	0.05
444.156	0.04
444.513	0.05
444.869	0.04
445.226	0.05
445.583	0.05
445.939	0.04
446.296	0.03
446.652	0.04
447.009	0.05
447.365	0.04
447.722	0.05
448.078	0.05
448.434	0.05
448.791	0.04
449.147	0.04
449.503	0.04
449.859	0.04
450.215	0.04
450.571	0.04
450.928	0.04
451.284	0.04
451.64	0.04
451.995	0.04
452.351	0.04
452.707	0.04
453.063	0.02
453.419	0.03
453.775	0.03
454.13	0.02
454.486	0.03
454.842	0.03
455.197	0.02
455.553	0.02
455.908	0.02
456.264	0.02
456.619	0.02
456.975	0.02
457.33	0.01
457.685	0.01
458.04	0
458.396	0.01
458.751	-0
459.106	-0.01
459.461	-0
459.816	-0
460.171	-0.01
460.526	-0.01
460.881	-0.02
461.236	-0.02
461.591	-0.02
461.946	-0.03
462.301	-0.02
462.655	-0.03
463.01	-0.03
463.365	-0.04
463.719	-0.04
464.074	-0.05
464.428	-0.05
464.783	-0.05
465.137	-0.06
465.492	-0.06
465.846	-0.06
466.201	-0.05
466.555	-0.05
466.909	-0.05
467.263	-0.05
467.618	-0.05
467.972	-0.05
468.326	-0.05
468.68	-0.05
469.034	-0.06
469.388	-0.06
469.742	-0.06
470.096	-0.05
470.45	-0.06
470.804	-0.05
471.157	-0.05
471.511	-0.06
471.865	-0.06
472.218	-0.05
472.572	-0.04
472.926	-0.05
473.279	-0.04
473.633	-0.03
473.986	-0.02
474.34	-0.03
474.693	-0.01
475.046	-0
475.4	0
475.753	0
476.106	0.01
476.459	0.01
476.812	0.02
477.165	0.02
477.519	0.02
477.872	0.04
478.224	0.04
478.577	0.04
478.93	0.05
479.283	0.05
479.636	0.05
479.989	0.06
480.341	0.06
480.694	0.06
481.047	0.07
481.399	0.07
481.752	0.07
482.104	0.07
482.457	0.08
482.809	0.09
483.162	0.08
483.514	0.09
483.866	0.1
484.219	0.1
484.571	0.1
484.923	0.1
485.275	0.11
485.627	0.1
485.979	0.11
486.331	0.11
486.683	0.12
487.035	0.12
487.387	0.12
487.739	0.13
488.091	0.12
488.443	0.13
488.794	0.13
489.146	0.13
489.498	0.13
489.849	0.13
490.201	0.13
490.552	0.14
490.904	0.13
491.255	0.14
491.607	0.14
491.958	0.14
492.309	0.14
492.661	0.15
493.012	0.15
493.363	0.15
493.714	0.15
494.065	0.15
494.416	0.15
494.767	0.16
495.118	0.16
495.469	0.16
495.82	0.16
496.171	0.16
496.522	0.16
496.872	0.17
497.223	0.17
497.574	0.16
497.924	0.17
498.275	0.18
498.626	0.18
498.976	0.18
499.327	0.18
499.677	0.18
500.027	0.18
500.378	0.18
500.728	0.19
501.078	0.19
501.428	0.19
501.779	0.19
502.129	0.19
502.479	0.19
502.829	0.2
503.179	0.2
503.529	0.2
503.879	0.2
504.229	0.21
504.578	0.21
504.928	0.2
505.278	0.21
505.628	0.21
505.977	0.21
506.327	0.21
506.676	0.22
507.026	0.22
507.375	0.22
507.725	0.22
508.074	0.22
508.424	0.22
508.773	0.22
509.122	0.22
509.471	0.22
509.82	0.23
510.17	0.23
510.519	0.23
510.868	0.23
511.217	0.23
511.566	0.23
511.915	0.24
512.263	0.24
512.612	0.24
512.961	0.24
513.31	0.24
513.659	0.24
514.007	0.25
514.356	0.24
514.704	0.24
515.053	0.25
515.401	0.24
515.75	0.24
516.098	0.25
516.447	0.25
516.795	0.25
517.143	0.25
517.491	0.25
517.839	0.26
518.188	0.25
518.536	0.26
518.884	0.26
519.232	0.26
519.58	0.26
519.928	0.26
520.275	0.27
520.623	0.26
520.971	0.27
521.319	0.27
521.666	0.27
522.014	0.27
522.362	0.27
522.709	0.27
523.057	0.27
523.404	0.28
523.752	0.27
524.099	0.27
524.446	0.28
524.794	0.28
525.141	0.28
525.488	0.29
525.835	0.28
526.182	0.28
526.529	0.29
526.876	0.28
527.223	0.28
527.57	0.29
527.917	0.29
528.264	0.29
528.611	0.29
528.958	0.29
529.304	0.29
529.651	0.29
529.998	0.29
530.344	0.3
530.691	0.3
531.037	0.3
531.384	0.3
531.73	0.3
532.076	0.3
532.423	0.3
532.769	0.3
533.115	0.3
533.461	0.3
533.807	0.3
534.154	0.3
534.5	0.3
534.846	0.3
535.192	0.3
535.537	0.3
535.883	0.31
536.229	0.31
536.575	0.31
536.921	0.31
537.266	0.31
537.612	0.31
537.957	0.31
538.303	0.31
538.649	0.31
538.994	0.31
539.339	0.32
539.685	0.32
540.03	0.32
540.375	0.32
540.721	0.32
541.066	0.32
541.411	0.32
541.756	0.32
542.101	0.32
542.446	0.32
542.791	0.32
543.136	0.33
543.481	0.32
543.825	0.32
544.17	0.32
544.515	0.32
544.86	0.33
545.204	0.33
545.549	0.33
545.893	0.32
546.238	0.33
546.582	0.33
546.927	0.33
547.271	0.33
547.615	0.33
547.96	0.33
548.304	0.33
548.648	0.33
548.992	0.33
549.336	0.33
549.68	0.33
550.024	0.34
550.368	0.33
550.712	0.34
551.056	0.34
551.4	0.33
551.743	0.34
552.087	0.34
552.431	0.34
552.774	0.34
553.118	0.34
553.462	0.34
553.805	0.34
554.148	0.34
554.492	0.34
554.835	0.34
555.178	0.34
555.522	0.34
555.865	0.33
556.208	0.34
556.551	0.33
556.894	0.34
557.237	0.34
557.58	0.34
557.923	0.34
558.266	0.34
558.609	0.34
558.952	0.33
559.294	0.34
559.637	0.34
559.98	0.34
560.322	0.34
560.665	0.34
561.007	0.34
561.35	0.33
561.692	0.34
562.034	0.33
562.377	0.34
562.719	0.34
563.061	0.33
563.403	0.33
563.745	0.34
564.088	0.34
564.43	0.34
564.772	0.33
565.113	0.34
565.455	0.33
565.797	0.33
566.139	0.33
566.481	0.34
566.822	0.33
567.164	0.34
567.506	0.34
567.847	0.34
568.189	0.33
568.53	0.33
568.872	0.34
569.213	0.33
569.554	0.33
569.895	0.33
570.237	0.33
570.578	0.33
570.919	0.33
571.26	0.33
571.601	0.33
571.942	0.33
572.283	0.32
572.624	0.32
572.965	0.32
573.306	0.33
573.646	0.32
573.987	0.32
574.328	0.32
574.668	0.32
575.009	0.32
575.349	0.32
575.69	0.32
576.03	0.32
576.37	0.32
576.711	0.31
577.051	0.31
577.391	0.32
577.731	0.32
578.072	0.31
578.412	0.31
578.752	0.31
579.092	0.31
579.431	0.3
579.771	0.29
580.111	0.29
580.451	0.3
580.791	0.31
581.13	0.31
581.47	0.31
581.81	0.31
582.149	0.31
582.489	0.31
582.828	0.3
583.167	0.28
583.507	0.25
583.846	0.25
584.185	0.28
584.525	0.3
584.864	0.31
585.203	0.31
585.542	0.31
585.881	0.31
586.22	0.31
586.559	0.3
586.898	0.3
587.236	0.29
587.575	0.29
587.914	0.3
588.252	0.31
588.591	0.3
588.93	0.3
589.268	0.3
589.607	0.3
589.945	0.3
590.283	0.3
590.622	0.31
590.96	0.31
591.298	0.31
591.636	0.31
591.974	0.31
592.313	0.31
592.651	0.31
592.989	0.31
593.326	0.31
593.664	0.31
594.002	0.31
594.34	0.31
594.678	0.31
595.015	0.3
595.353	0.3
595.691	0.3
596.028	0.31
596.366	0.31
596.703	0.31
597.04	0.31
597.378	0.31
597.715	0.31
598.052	0.32
598.389	0.31
598.726	0.31
599.064	0.31
599.401	0.31
599.738	0.31
600.074	0.31
600.411	0.31
600.748	0.31
601.085	0.31
601.422	0.31
601.758	0.31
602.095	0.31
602.432	0.31
602.768	0.31
603.105	0.31
603.441	0.32
603.777	0.31
604.114	0.32
604.45	0.31
604.786	0.31
605.122	0.31
605.459	0.31
605.795	0.3
606.131	0.31
606.467	0.31
606.803	0.31
607.139	0.31
607.474	0.3
607.81	0.3
608.146	0.3
608.482	0.3
608.817	0.3
609.153	0.3
609.488	0.3
609.824	0.3
610.159	0.31
610.495	0.3
610.83	0.31
611.165	0.3
611.5	0.3
611.836	0.3
612.171	0.3
612.506	0.3
612.841	0.3
613.176	0.3
613.511	0.3
613.845	0.3
614.18	0.29
614.515	0.29
614.85	0.29
615.184	0.29
615.519	0.29
615.854	0.29
616.188	0.29
616.523	0.29
616.857	0.29
617.191	0.28
617.526	0.28
617.86	0.28
618.194	0.28
618.528	0.28
618.862	0.29
619.196	0.28
619.53	0.28
619.864	0.28
620.198	0.28
620.532	0.28
620.866	0.28
621.2	0.28
621.533	0.27
621.867	0.28
622.201	0.27
622.534	0.27
622.868	0.27
623.201	0.27
623.534	0.27
623.868	0.27
624.201	0.27
624.534	0.27
624.868	0.27
625.201	0.26
625.534	0.26
625.867	0.26
626.2	0.26
626.533	0.26
626.865	0.26
627.198	0.26
627.531	0.26
627.864	0.26
628.196	0.26
628.529	0.25
628.862	0.25
629.194	0.25
629.527	0.25
629.859	0.25
630.191	0.25
630.524	0.25
630.856	0.24
631.188	0.24
631.52	0.24
631.852	0.24
632.184	0.24
632.516	0.24
632.848	0.24
633.18	0.23
633.512	0.23
633.844	0.23
634.175	0.23
634.507	0.23
634.839	0.23
635.17	0.23
635.502	0.22
635.833	0.22
636.165	0.22
636.496	0.22
636.827	0.22
637.159	0.22
637.49	0.22
637.821	0.21
638.152	0.21
638.483	0.21
638.814	0.21
639.145	0.21
639.476	0.2
639.807	0.2
640.137	0.2
640.468	0.2
640.799	0.2
641.129	0.2
641.46	0.2
641.791	0.2
642.121	0.2
642.451	0.19
642.782	0.19
643.112	0.19
643.442	0.19
643.773	0.19
644.103	0.19
644.433	0.19
644.763	0.19
645.093	0.18
645.423	0.18
645.753	0.18
646.082	0.18
646.412	0.18
646.742	0.19
647.072	0.18
647.401	0.18
647.731	0.18
648.06	0.18
648.39	0.18
648.719	0.18
649.048	0.18
649.378	0.17
649.707	0.18
650.036	0.17
650.365	0.17
650.694	0.17
651.023	0.17
651.352	0.17
651.681	0.17
652.01	0.17
652.339	0.17
652.668	0.17
652.996	0.17
653.325	0.17
653.654	0.17
653.982	0.17
654.311	0.17
654.639	0.17
654.967	0.17
655.296	0.17
655.624	0.17
655.952	0.17
656.28	0.17
656.609	0.17
656.937	0.16
657.265	0.16
657.593	0.03
657.92	0
658.248	0
658.576	0
658.904	0.1
659.231	0.15
659.559	0.16
659.887	0.16
660.214	0.16
660.542	0.16
660.869	0.16
661.196	0.16
661.524	0.16
661.851	0.16
662.178	0.16
662.505	0.16
662.832	0.15
663.159	0.16
663.486	0.15
663.813	0.15
664.14	0.15
664.467	0.15
664.794	0.15
665.12	0.15
665.447	0.15
665.774	0.15
666.1	0.15
666.427	0.15
666.753	0.15
667.079	0.15
667.406	0.15
667.732	0.15
668.058	0.15
668.384	0.15
668.71	0.15
669.036	0.15
669.362	0.14
669.688	0.14
670.014	0.14
670.34	0.14
670.666	0.14
670.991	0.14
671.317	0.14
671.643	0.14
671.968	0.14
672.294	0.13
672.619	0.13
672.945	0.13
673.27	0.13
673.595	0.13
673.92	0.13
674.246	0.13
674.571	0.13
674.896	0.13
675.221	0.12
675.546	0.13
675.87	0.12
676.195	0.12
676.52	0.12
676.845	0.12
677.169	0.12
677.494	0.12
677.819	0.11
678.143	0.12
678.468	0.11
678.792	0.11
679.116	0.11
679.44	0.11
679.765	0.11
680.089	0.11
680.413	0.11
680.737	0.11
681.061	0.1
681.385	0.11
681.709	0.1
682.033	0.1
682.356	0.1
682.68	0.1
683.004	0.1
683.327	0.1
683.651	0.1
683.974	0.1
684.298	0.1
684.621	0.1
684.944	0.09
685.268	0.09
685.591	0.09
685.914	0.09
686.237	0.09
686.56	0.09
686.883	0.09
687.206	0.08
687.529	0.08
687.852	0.08
688.175	0.08
688.497	0.08
688.82	0.08
689.142	0.08
689.465	0.08
689.787	0.08
690.11	0.08
690.432	0.08
690.755	0.08
691.077	0.08
691.399	0.07
691.721	0.07
692.043	0.07
692.365	0.07
692.687	0.07
693.009	0.07
693.331	0.07
693.653	0.07
693.974	0.07
694.296	0.07
694.618	0.07
694.939	0.06
695.261	0.06
695.582	0.06
695.904	0.06
696.225	0.06
696.546	0.06
696.868	0.06
697.189	0.06
697.51	0.06
697.831	0.06
698.152	0.06
698.473	0.06
698.794	0.05
699.114	0.06
699.435	0.05
699.756	0.05
700.077	0.05
700.397	0.06
700.718	0.06
701.038	0.06
701.359	0.05
701.679	0.05
701.999	0.05
702.32	0.05
702.64	0.06
702.96	0.06
703.28	0.05
703.6	0.05
703.92	0.05
704.24	0.05
704.56	0.05
704.879	0.05
705.199	0.05
705.519	0.05
705.838	0.05
706.158	0.05
706.478	0.05
706.797	0.05
707.116	0.05
707.436	0.05
707.755	0.05
708.074	0.05
708.393	0.05
708.712	0.04
709.031	0.04
709.35	0.04
709.669	0.04
709.988	0.04
710.307	0.04
710.626	0.04
710.944	0.04
711.263	0.05
711.582	0.05
711.9	0.05
712.219	0.05
712.537	0.05
712.855	0.05
713.174	0.05
713.492	0.05
713.81	0.05
714.128	0.05
714.446	0.05
714.764	0.04
715.082	0.04
715.4	0.05
715.718	0.05
716.035	0.04
716.353	0.05
716.671	0.05
716.988	0.05
717.306	0.05
717.623	0.05
717.941	0.05
718.258	0.05
718.575	0.05
718.893	0.05
719.21	0.05
719.527	0.05
719.844	0.05
720.161	0.05
720.478	0.05
720.795	0.05
721.112	0.05
721.428	0.05
721.745	0.05
722.062	0.05
722.378	0.05
722.695	0.05
723.011	0.05
723.328	0.05
723.644	0.05
723.96	0.05
724.276	0.05
724.593	0.05
724.909	0.05
725.225	0.05
725.541	0.05
725.857	0.05
726.173	0.05
726.488	0.05
726.804	0.05
727.12	0.05
727.435	0.05
727.751	0.05
728.067	0.05
728.382	0.05
728.697	0.05
729.013	0.05
729.328	0.05
729.643	0.05
729.958	0.05
730.273	0.05
730.588	0.05
730.903	0.05
731.218	0.05
731.533	0.05
731.848	0.05
732.163	0.05
732.477	0.05
732.792	0.05
733.107	0.05
733.421	0.05
733.736	0.05
734.05	0.05
734.364	0.05
734.678	0.05
734.993	0.05
735.307	0.05
735.621	0.05
735.935	0.05
736.249	0.05
736.563	0.05
736.877	0.05
737.19	0.05
737.504	0.05
737.818	0.05
738.131	0.05
738.445	0.05
738.758	0.05
739.072	0.05
739.385	0.05
739.698	0.05
740.012	0.05
740.325	0.04
740.638	0.04
740.951	0.04
741.264	0.04
741.577	0.04
741.89	0.04
742.203	0.04
742.515	0.04
742.828	0.04
743.141	0.04
743.453	0.04
743.766	0.04
744.078	0.04
744.391	0.04
744.703	0.04
745.015	0.04
745.327	0.04
745.639	0.04
745.952	0.04
746.264	0.04
746.575	0.04
746.887	0.04
747.199	0.04
747.511	0.04
747.823	0.03
748.134	0.03
748.446	0.04
748.757	0.04
749.069	0.04
749.38	0.04
749.692	0.03
750.003	0.03
750.314	0.03
750.625	0.03
750.936	0.03
751.248	0.03
751.559	0.03
751.869	0.03
752.18	0.03
752.491	0.03
752.802	0.03
753.112	0.03
753.423	0.03
753.734	0.03
754.044	0.03
754.355	0.03
754.665	0.03
754.975	0.03
755.285	0.03
755.596	0.03
755.906	0.03
756.216	0.03
756.526	0.03
756.836	0.03
757.146	0.03
757.455	0.02
757.765	0.02
758.075	0.02
758.385	0.02
758.694	0.02
759.004	0.02
759.313	0.02
759.622	0.02
759.932	0.02
760.241	0.02
760.55	0.02
760.859	0.02
761.168	0.02
761.477	0.02
761.786	0.02
762.095	0.02
762.404	0.02
762.713	0.02
763.021	0.02
763.33	0.02
763.639	0.02
763.947	0.02
764.256	0.02
764.564	0.02
764.872	0.02
765.181	0.02
765.489	0.02
765.797	0.02
766.105	0.02
766.413	0.02
766.721	0.02
767.029	0.02
767.337	0.02
767.644	0.02
767.952	0.02
768.26	0.02
768.567	0.02
768.875	0.02
769.182	0.02
769.49	0.02
769.797	0.02
770.104	0.02
770.411	0.02
770.718	0.02
771.026	0.02
771.333	0.02
771.639	0.02
771.946	0.02
772.253	0.02
772.56	0.02
772.867	0.02
773.173	0.02
773.48	0.02
773.786	0.02
774.093	0.02
774.399	0.02
774.705	0.02
775.012	0.02
775.318	0.02
775.624	0.02
775.93	0.02
776.236	0.01
776.542	0.02
776.848	0.02
777.154	0.02
777.459	0.02
777.765	0.02
778.071	0.02
778.376	0.02
778.682	0.02
778.987	0.02
779.292	0.02
779.598	0.02
779.903	0.02
780.208	0.02
780.513	0.02
780.818	0.02
781.123	0.02
781.428	0.02
781.733	0.02
782.038	0.02
782.343	0.02
782.647	0.02
782.952	0.02
783.256	0.02
783.561	0.02
783.865	0.02
784.17	0.02
784.474	0.02
784.778	0.02
785.082	0.02
785.386	0.02
785.69	0.02
785.994	0.02
786.298	0.02
786.602	0.02
786.906	0.02
787.209	0.02
787.513	0.02
787.817	0.02
788.12	0.02
788.424	0.02
788.727	0.02
789.03	0.02
789.333	0.02
789.637	0.02
789.94	0.02
790.243	0.02
790.546	0.02
790.849	0.02
791.152	0.02
791.454	0.02
791.757	0.02
792.06	0.02
792.362	0.02
792.665	0.02
792.967	0.02
793.27	0.02
793.572	0.02
793.874	0.02
794.177	0.02
794.479	0.02
794.781	0.02
795.083	0.02
795.385	0.02
795.687	0.02
795.989	0.02
796.29	0.02
796.592	0.02
796.894	0.02
797.195	0.02
797.497	0.02
797.798	0.02
798.1	0.02
798.401	0.02
798.702	0.02
799.003	0.02
799.304	0.03
799.605	0.02
799.906	0.03
800.207	0.02
800.508	0.02
800.809	0.02
801.11	0.02
801.41	0.02
801.711	0.02
802.011	0.02
802.312	0.02
802.612	0.02
802.913	0.02
803.213	0.02
803.513	0.02
803.813	0.02
804.113	0.02
804.413	0.02
804.713	0.02
805.013	0.02
805.313	0.03
805.613	0.02
805.912	0.03
806.212	0.03
806.511	0.02
806.811	0.02
807.11	0.03
807.41	0.03
807.709	0.03
808.008	0.02
808.307	0.02
808.606	0.03
808.905	0.02
809.204	0.03
809.503	0.03
809.802	0.03
810.101	0.03
810.399	0.03
810.698	0.03
810.997	0.03
811.295	0.03
811.593	0.03
811.892	0.03
812.19	0.03
812.488	0.02
812.786	0.02
813.084	0.02
813.383	0.03
813.68	0.03
813.978	0.03
814.276	0.03
814.574	0.03
814.872	0.03
815.169	0.03
815.467	0.03
815.764	0.03
816.062	0.03
816.359	0.03
816.656	0.03
816.954	0.03
817.251	0.03
817.548	0.03
817.845	0.03
818.142	0.03
818.439	0.03
818.735	0.03
819.032	0.04
819.329	0.03
819.626	0.03
819.922	0.03
820.219	0.03
820.515	0.03
820.811	0.03
821.108	0.03
821.404	0.03
821.7	0.04
821.996	0.03
822.292	0.03
822.588	0.03
822.884	0.03
823.18	0.04
823.475	0.03
823.771	0.03
824.067	0.03
824.362	0.03
824.658	0.03
824.953	0.03
825.249	0.03
825.544	0.03
825.839	0.03
826.134	0.03
826.429	0.03
826.724	0.03
827.019	0.03
827.314	0.03
827.609	0.03
827.904	0.03
828.198	0.03
828.493	0.03
828.787	0.03
829.082	0.03
829.376	0.03
829.671	0.03
829.965	0.03
830.259	0.04
830.553	0.03
830.847	0.04
831.141	0.03
831.435	0.03
831.729	0.03
832.023	0.04
832.317	0.03
832.61	0.03
832.904	0.03
833.197	0.03
833.491	0.04
833.784	0.03
834.077	0.04
834.371	0.03
834.664	0.03
834.957	0.03
835.25	0.04
835.543	0.03
835.836	0.04
836.129	0.03
836.421	0.03
836.714	0.03
837.007	0.03
837.299	0.03
837.592	0.04
837.884	0.03
838.177	0.03
838.469	0.04
838.761	0.04
839.053	0.03
839.345	0.04
839.637	0.04
839.929	0.03
840.221	0.03
840.513	0.03
840.805	0.03
841.096	0.03
841.388	0.03
841.68	0.03
841.971	0.03
842.262	0.03
842.554	0.03
842.845	0.03
843.136	0.03
843.427	0.04
843.718	0.03
844.009	0.04
844.3	0.04
844.591	0.04
844.882	0.04
845.173	0.04
845.463	0.04
845.754	0.03
846.044	0.04
846.335	0.04
846.625	0.04
846.915	0.03
847.206	0.04
847.496	0.03
847.786	0.03
848.076	0.04
848.366	0.04
848.656	0.04
848.945	0.04
849.235	0.04
849.525	0.03
849.814	0.03
850.104	0.03
850.393	0.03
850.683	0.05
850.972	0.05
851.261	0.04
851.551	0.04
851.84	0.04
852.129	0.03
852.418	0.04
852.707	0.04
852.995	0.03
853.284	0.04
853.573	0.04
853.862	0.04
854.15	0.05
854.439	0.05
854.727	0.04
855.015	0.05
855.304	0.04
855.592	0.05
855.88	0.04
856.168	0.05
856.456	0.05
856.744	0.04
857.032	0.04
857.32	0.05
857.607	0.05
857.895	0.05
858.183	0.06
858.47	0.05
858.757	0.04
859.045	0.05
859.332	0.03
859.619	0.03
859.907	0.04
860.194	0.04
860.481	0.05
860.768	0.02
861.054	0.05
861.341	0.04
861.628	0.05
861.915	0.06
862.201	0.05
862.488	0.04
862.774	0.03
863.061	0.07
863.347	0.05
863.633	0.05
863.919	0.03
864.205	0.04
864.491	0.04
864.777	0.05
865.063	0.05
865.349	0.02
865.635	0.05
865.92	0.04
866.206	0.02
866.492	0.04
866.777	0.03
867.062	0.03
867.348	0.03
867.633	0.06
867.918	0.03
868.203	0.06
868.488	0.03
868.773	0.05
869.058	0.03
869.343	0.06
869.628	0.05
869.912	0.02
870.197	0.07
870.482	0.08
870.766	0.05
871.05	0.03
871.335	0.05
871.619	-0.01
871.903	0.01
872.187	0.08
872.471	0.04
872.755	0.07
873.039	0.01
873.323	0.03
873.607	0.02
873.89	0.09
874.174	0.03
874.458	0.02
874.741	0.07
875.024	0.01
875.308	0.04
875.591	0.08
875.874	0.02
876.157	0
876.44	0.05
876.723	-0.01
877.006	0.07
877.289	0
877.572	0.14
877.854	-0.04
878.137	0.05
878.42	0
878.702	-0.02
878.984	-0.11
879.267	0.02
879.549	0.06
879.831	0.06
880.113	0.03
880.395	0.01
880.677	0.06
880.959	-0
