Data from Rubpy_BV_1800_EDTA_Buffered_Absorbance_16-52-18-678.txt Node
Date: Wed Jul 01 16:52:18 BST 2026
User: fpm-admin
Spectrometer: OFX00224
Trigger mode: 0
Integration Time (sec): 7.000000E-2
Scans to average: 3
Nonlinearity correction enabled: false
Boxcar width: 0
Storing dark spectrum: false
XAxis mode: Wavelengths
Number of Pixels in Spectrum: 2136
>>>>>Begin Spectral Data<<<<<
154.91	-0
155.289	0.08
155.669	-0
156.048	-0
156.428	-0.09
156.807	-0.22
157.186	-0
157.566	0.19
157.945	-0.56
158.325	0.44
158.704	-0.2
159.083	0.09
159.462	-0.63
159.842	-0
160.221	0.4
160.6	-0.4
160.979	-0
161.359	-0
161.738	-0
162.117	-0.72
162.496	0.37
162.875	-0.46
163.254	0.04
163.633	-0.19
164.012	-0
164.391	0.39
164.77	-0.12
165.149	-1.12
165.528	0.24
165.907	0.09
166.286	-0.18
166.665	-0
167.044	-0.15
167.423	-0.19
167.802	-0.3
168.181	-1.23
168.559	-0.68
168.938	0.02
169.317	-0.05
169.696	-0
170.074	-0.32
170.453	0.11
170.832	-0
171.21	-0
171.589	-0
171.968	0.49
172.346	-0
172.725	-0
173.103	-0.03
173.482	0.54
173.861	1
174.239	-0.11
174.617	-0
174.996	-0.12
175.374	-0.22
175.753	-0.12
176.131	0.16
176.51	-0
176.888	-0
177.266	-0
177.645	-0.01
178.023	0.58
178.401	-0.18
178.779	0.19
179.158	-0
179.536	0.49
179.914	-0
180.292	-0.03
180.67	-0
181.048	1.54
181.427	-0
181.805	-0.08
182.183	-0.41
182.561	1.3
182.939	-0.08
183.317	-0.36
183.695	0.13
184.073	-0
184.451	-0.53
184.829	-0
185.206	-0.26
185.584	-0
185.962	0.18
186.34	0.34
186.718	0.13
187.096	0.43
187.473	-0
187.851	-0.06
188.229	-0.35
188.607	0.15
188.984	0.38
189.362	0.34
189.74	0.27
190.117	0.37
190.495	0.35
190.872	0.22
191.25	0.37
191.627	0.25
192.005	0.29
192.382	0.22
192.76	0.26
193.137	0.42
193.515	0.32
193.892	0.24
194.269	0.38
194.647	0.32
195.024	0.18
195.401	0.43
195.779	0.31
196.156	0.32
196.533	0.31
196.91	0.21
197.288	0.31
197.665	0.26
198.042	0.21
198.419	0.29
198.796	0.18
199.173	0.33
199.55	0.32
199.927	0.31
200.304	0.2
200.681	0.12
201.058	0.26
201.435	0.39
201.812	0.28
202.189	0.25
202.566	0.29
202.943	0.18
203.32	0.34
203.697	0.22
204.073	0.32
204.45	0.3
204.827	0.23
205.204	0.16
205.58	0.17
205.957	0.33
206.334	0.35
206.71	0.27
207.087	0.5
207.464	0.42
207.84	0.34
208.217	0.25
208.593	0.23
208.97	0.31
209.346	0.3
209.723	0.23
210.099	0.54
210.476	0.24
210.852	0.52
211.228	0.22
211.605	0.33
211.981	0.22
212.357	0.46
212.733	0.26
213.11	0.35
213.486	0.36
213.862	0.35
214.238	0.23
214.614	0.38
214.991	0.27
215.367	0.25
215.743	0.37
216.119	0.25
216.495	0.31
216.871	0.21
217.247	0.27
217.623	0.33
217.999	0.33
218.375	0.43
218.751	0.2
219.127	0.34
219.502	0.16
219.878	0.23
220.254	0.33
220.63	0.46
221.006	0.35
221.381	0.35
221.757	0.3
222.133	0.35
222.508	0.32
222.884	0.3
223.26	0.32
223.635	0.32
224.011	0.2
224.386	0.32
224.762	0.42
225.137	0.4
225.513	0.42
225.888	0.33
226.264	0.28
226.639	0.21
227.014	0.4
227.39	0.35
227.765	0.33
228.14	0.33
228.516	0.47
228.891	0.44
229.266	0.31
229.641	0.54
230.017	0.34
230.392	0.35
230.767	0.41
231.142	0.51
231.517	0.3
231.892	0.45
232.267	0.44
232.642	0.4
233.017	0.36
233.392	0.38
233.767	0.31
234.142	0.35
234.517	0.26
234.892	0.35
235.267	0.26
235.641	0.48
236.016	0.4
236.391	0.27
236.766	0.51
237.14	0.44
237.515	0.61
237.89	0.34
238.264	0.35
238.639	0.26
239.014	0.42
239.388	0.35
239.763	0.41
240.137	0.26
240.512	0.32
240.886	0.36
241.261	0.31
241.635	0.33
242.009	0.35
242.384	0.28
242.758	0.34
243.132	0.2
243.507	0.36
243.881	0.55
244.255	0.3
244.629	0.2
245.004	0.47
245.378	0.22
245.752	0.45
246.126	0.25
246.5	0.48
246.874	0.38
247.248	0.26
247.622	0.39
247.996	0.31
248.37	0.27
248.744	0.31
249.118	0.62
249.492	0.24
249.866	0.27
250.24	0.34
250.613	0.37
250.987	0.46
251.361	0.51
251.735	0.43
252.108	0.5
252.482	0.25
252.856	0.27
253.229	0.3
253.603	0.29
253.977	0.34
254.35	0.4
254.724	0.35
255.097	0.29
255.471	0.24
255.844	0.33
256.218	0.26
256.591	0.23
256.964	0.35
257.338	0.31
257.711	0.56
258.084	0.36
258.458	0.31
258.831	0.38
259.204	0.28
259.577	0.32
259.95	0.37
260.323	0.29
260.697	0.24
261.07	0.34
261.443	0.34
261.816	0.38
262.189	0.45
262.562	0.27
262.935	0.48
263.308	0.18
263.68	0.45
264.053	0.45
264.426	0.33
264.799	0.35
265.172	0.36
265.545	0.33
265.917	0.38
266.29	0.33
266.663	0.42
267.035	0.36
267.408	0.37
267.781	0.52
268.153	0.34
268.526	0.31
268.898	0.36
269.271	0.34
269.643	0.33
270.016	0.36
270.388	0.21
270.76	0.31
271.133	0.27
271.505	0.43
271.877	0.22
272.25	0.28
272.622	0.34
272.994	0.37
273.366	0.37
273.739	0.34
274.111	0.3
274.483	0.29
274.855	0.34
275.227	0.44
275.599	0.37
275.971	0.34
276.343	0.33
276.715	0.28
277.087	0.39
277.459	0.45
277.831	0.32
278.203	0.36
278.574	0.39
278.946	0.21
279.318	0.29
279.69	0.37
280.061	0.34
280.433	0.3
280.805	0.41
281.176	0.24
281.548	0.28
281.92	0.57
282.291	0.33
282.663	0.37
283.034	0.44
283.406	0.37
283.777	0.4
284.148	0.41
284.52	0.43
284.891	0.4
285.262	0.41
285.634	0.44
286.005	0.44
286.376	0.45
286.747	0.35
287.119	0.33
287.49	0.47
287.861	0.37
288.232	0.31
288.603	0.46
288.974	0.28
289.345	0.38
289.716	0.43
290.087	0.26
290.458	0.27
290.829	0.26
291.2	0.47
291.571	0.3
291.941	0.3
292.312	0.35
292.683	0.42
293.054	0.47
293.424	0.34
293.795	0.3
294.166	0.36
294.536	0.34
294.907	0.37
295.277	0.32
295.648	0.44
296.018	0.34
296.389	0.3
296.759	0.32
297.13	0.42
297.5	0.45
297.871	0.33
298.241	0.35
298.611	0.42
298.981	0.3
299.352	0.39
299.722	0.31
300.092	0.32
300.462	0.3
300.832	0.41
301.202	0.41
301.573	0.29
301.943	0.48
302.313	0.43
302.683	0.37
303.053	0.4
303.422	0.29
303.792	0.34
304.162	0.4
304.532	0.42
304.902	0.29
305.272	0.37
305.641	0.4
306.011	0.37
306.381	0.36
306.75	0.37
307.12	0.24
307.49	0.3
307.859	0.27
308.229	0.37
308.598	0.32
308.968	0.31
309.337	0.28
309.707	0.26
310.076	0.29
310.445	0.29
310.815	0.28
311.184	0.32
311.553	0.28
311.923	0.28
312.292	0.26
312.661	0.28
313.03	0.26
313.399	0.32
313.768	0.29
314.137	0.27
314.506	0.29
314.875	0.3
315.244	0.29
315.613	0.31
315.982	0.31
316.351	0.33
316.72	0.3
317.089	0.32
317.458	0.33
317.826	0.33
318.195	0.34
318.564	0.34
318.933	0.33
319.301	0.34
319.67	0.34
320.038	0.35
320.407	0.38
320.775	0.35
321.144	0.38
321.512	0.37
321.881	0.39
322.249	0.4
322.618	0.4
322.986	0.41
323.354	0.39
323.723	0.4
324.091	0.42
324.459	0.44
324.827	0.43
325.195	0.43
325.564	0.45
325.932	0.44
326.3	0.44
326.668	0.46
327.036	0.45
327.404	0.48
327.772	0.48
328.14	0.47
328.508	0.48
328.875	0.5
329.243	0.52
329.611	0.52
329.979	0.53
330.346	0.53
330.714	0.53
331.082	0.56
331.449	0.55
331.817	0.55
332.185	0.58
332.552	0.58
332.92	0.6
333.287	0.6
333.655	0.62
334.022	0.64
334.389	0.65
334.757	0.66
335.124	0.67
335.491	0.69
335.859	0.7
336.226	0.71
336.593	0.72
336.96	0.73
337.327	0.74
337.695	0.77
338.062	0.78
338.429	0.79
338.796	0.8
339.163	0.81
339.53	0.84
339.897	0.85
340.263	0.86
340.63	0.88
340.997	0.89
341.364	0.92
341.731	0.93
342.097	0.93
342.464	0.95
342.831	0.96
343.197	0.98
343.564	1
343.931	1
344.297	1.02
344.664	1.05
345.03	1.06
345.396	1.07
345.763	1.1
346.129	1.11
346.496	1.12
346.862	1.14
347.228	1.15
347.594	1.16
347.961	1.17
348.327	1.2
348.693	1.21
349.059	1.23
349.425	1.24
349.791	1.25
350.157	1.27
350.523	1.3
350.889	1.29
351.255	1.29
351.621	1.32
351.987	1.33
352.353	1.33
352.719	1.37
353.084	1.39
353.45	1.39
353.816	1.39
354.181	1.41
354.547	1.41
354.913	1.44
355.278	1.47
355.644	1.47
356.009	1.48
356.375	1.52
356.74	1.53
357.106	1.55
357.471	1.55
357.836	1.58
358.202	1.58
358.567	1.6
358.932	1.66
359.297	1.65
359.663	1.69
360.028	1.68
360.393	1.7
360.758	1.72
361.123	1.73
361.488	1.76
361.853	1.74
362.218	1.76
362.583	1.82
362.948	1.86
363.312	1.79
363.677	1.85
364.042	1.86
364.407	1.9
364.772	1.84
365.136	1.86
365.501	1.91
365.865	1.94
366.23	1.92
366.595	1.94
366.959	1.98
367.324	1.95
367.688	1.98
368.052	1.96
368.417	1.98
368.781	1.97
369.145	2.03
369.51	2.06
369.874	2.03
370.238	2.02
370.602	1.94
370.967	2.06
371.331	1.98
371.695	2
372.059	2.02
372.423	2.05
372.787	2.01
373.151	1.97
373.515	1.96
373.878	2.04
374.242	1.96
374.606	1.94
374.97	2.03
375.334	2.07
375.697	1.95
376.061	1.95
376.425	1.94
376.788	1.94
377.152	1.95
377.515	1.92
377.879	1.93
378.242	1.85
378.606	1.85
378.969	1.85
379.333	1.81
379.696	1.87
380.059	1.83
380.422	1.77
380.786	1.78
381.149	1.79
381.512	1.73
381.875	1.72
382.238	1.7
382.601	1.73
382.964	1.68
383.327	1.64
383.69	1.65
384.053	1.6
384.416	1.6
384.779	1.59
385.142	1.57
385.504	1.58
385.867	1.55
386.23	1.54
386.593	1.51
386.955	1.51
387.318	1.49
387.68	1.5
388.043	1.47
388.405	1.47
388.768	1.49
389.13	1.47
389.493	1.46
389.855	1.43
390.217	1.44
390.58	1.42
390.942	1.4
391.304	1.37
391.666	1.37
392.028	1.34
392.391	1.32
392.753	1.3
393.115	1.29
393.477	1.28
393.839	1.26
394.201	1.25
394.563	1.24
394.924	1.23
395.286	1.25
395.648	1.23
396.01	1.24
396.371	1.24
396.733	1.26
397.095	1.27
397.456	1.29
397.818	1.33
398.18	1.34
398.541	1.35
398.903	1.39
399.264	1.42
399.625	1.45
399.987	1.48
400.348	1.48
400.709	1.49
401.071	1.48
401.432	1.5
401.793	1.52
402.154	1.48
402.515	1.45
402.876	1.47
403.238	1.44
403.599	1.37
403.96	1.36
404.32	1.3
404.681	1.27
405.042	1.19
405.403	1.17
405.764	1.11
406.125	1.07
406.485	1.02
406.846	0.97
407.207	0.91
407.567	0.87
407.928	0.82
408.288	0.78
408.649	0.74
409.009	0.7
409.37	0.66
409.73	0.63
410.091	0.6
410.451	0.56
410.811	0.54
411.171	0.51
411.532	0.49
411.892	0.47
412.252	0.45
412.612	0.43
412.972	0.41
413.332	0.39
413.692	0.38
414.052	0.36
414.412	0.36
414.772	0.34
415.132	0.33
415.492	0.31
415.851	0.31
416.211	0.3
416.571	0.29
416.931	0.29
417.29	0.27
417.65	0.27
418.009	0.26
418.369	0.24
418.728	0.25
419.088	0.25
419.447	0.24
419.807	0.24
420.166	0.23
420.525	0.22
420.884	0.22
421.244	0.21
421.603	0.21
421.962	0.2
422.321	0.2
422.68	0.21
423.039	0.2
423.398	0.2
423.757	0.2
424.116	0.19
424.475	0.19
424.834	0.19
425.193	0.18
425.551	0.18
425.91	0.18
426.269	0.18
426.628	0.18
426.986	0.17
427.345	0.17
427.703	0.17
428.062	0.17
428.42	0.17
428.779	0.18
429.137	0.18
429.496	0.17
429.854	0.16
430.212	0.18
430.57	0.17
430.929	0.16
431.287	0.17
431.645	0.16
432.003	0.17
432.361	0.16
432.719	0.16
433.077	0.16
433.435	0.16
433.793	0.16
434.151	0.16
434.509	0.17
434.866	0.15
435.224	0.15
435.582	0.16
435.94	0.15
436.297	0.16
436.655	0.16
437.012	0.16
437.37	0.16
437.727	0.16
438.085	0.16
438.442	0.16
438.8	0.16
439.157	0.16
439.514	0.17
439.872	0.16
440.229	0.15
440.586	0.16
440.943	0.17
441.3	0.16
441.657	0.17
442.014	0.16
442.371	0.16
442.728	0.15
443.085	0.17
443.442	0.16
443.799	0.16
444.156	0.16
444.513	0.17
444.869	0.16
445.226	0.17
445.583	0.17
445.939	0.17
446.296	0.16
446.652	0.17
447.009	0.17
447.365	0.17
447.722	0.17
448.078	0.17
448.434	0.17
448.791	0.17
449.147	0.17
449.503	0.16
449.859	0.16
450.215	0.17
450.571	0.18
450.928	0.17
451.284	0.17
451.64	0.18
451.995	0.17
452.351	0.18
452.707	0.17
453.063	0.17
453.419	0.16
453.775	0.17
454.13	0.15
454.486	0.16
454.842	0.16
455.197	0.17
455.553	0.16
455.908	0.17
456.264	0.16
456.619	0.15
456.975	0.16
457.33	0.15
457.685	0.16
458.04	0.15
458.396	0.15
458.751	0.14
459.106	0.14
459.461	0.14
459.816	0.14
460.171	0.13
460.526	0.13
460.881	0.13
461.236	0.12
461.591	0.12
461.946	0.11
462.301	0.12
462.655	0.12
463.01	0.11
463.365	0.1
463.719	0.1
464.074	0.09
464.428	0.09
464.783	0.08
465.137	0.09
465.492	0.09
465.846	0.09
466.201	0.08
466.555	0.09
466.909	0.09
467.263	0.1
467.618	0.11
467.972	0.11
468.326	0.1
468.68	0.1
469.034	0.1
469.388	0.09
469.742	0.1
470.096	0.1
470.45	0.1
470.804	0.11
471.157	0.11
471.511	0.11
471.865	0.11
472.218	0.12
472.572	0.13
472.926	0.14
473.279	0.14
473.633	0.15
473.986	0.17
474.34	0.17
474.693	0.18
475.046	0.2
475.4	0.2
475.753	0.21
476.106	0.22
476.459	0.23
476.812	0.25
477.165	0.25
477.519	0.26
477.872	0.28
478.224	0.28
478.577	0.29
478.93	0.3
479.283	0.31
479.636	0.31
479.989	0.32
480.341	0.33
480.694	0.33
481.047	0.35
481.399	0.35
481.752	0.36
482.104	0.36
482.457	0.38
482.809	0.38
483.162	0.38
483.514	0.4
483.866	0.4
484.219	0.41
484.571	0.42
484.923	0.42
485.275	0.43
485.627	0.43
485.979	0.44
486.331	0.45
486.683	0.46
487.035	0.45
487.387	0.47
487.739	0.48
488.091	0.48
488.443	0.49
488.794	0.49
489.146	0.5
489.498	0.5
489.849	0.51
490.201	0.51
490.552	0.51
490.904	0.51
491.255	0.53
491.607	0.52
491.958	0.53
492.309	0.54
492.661	0.55
493.012	0.55
493.363	0.56
493.714	0.56
494.065	0.56
494.416	0.57
494.767	0.57
495.118	0.58
495.469	0.59
495.82	0.59
496.171	0.59
496.522	0.6
496.872	0.61
497.223	0.61
497.574	0.61
497.924	0.62
498.275	0.63
498.626	0.64
498.976	0.65
499.327	0.65
499.677	0.64
500.027	0.66
500.378	0.66
500.728	0.67
501.078	0.67
501.428	0.68
501.779	0.68
502.129	0.68
502.479	0.69
502.829	0.69
503.179	0.71
503.529	0.71
503.879	0.72
504.229	0.71
504.578	0.72
504.928	0.72
505.278	0.74
505.628	0.73
505.977	0.74
506.327	0.75
506.676	0.75
507.026	0.76
507.375	0.76
507.725	0.76
508.074	0.76
508.424	0.76
508.773	0.78
509.122	0.78
509.471	0.78
509.82	0.79
510.17	0.8
510.519	0.8
510.868	0.8
511.217	0.8
511.566	0.82
511.915	0.81
512.263	0.81
512.612	0.82
512.961	0.83
513.31	0.82
513.659	0.83
514.007	0.84
514.356	0.84
514.704	0.84
515.053	0.85
515.401	0.85
515.75	0.85
516.098	0.86
516.447	0.86
516.795	0.87
517.143	0.87
517.491	0.88
517.839	0.88
518.188	0.89
518.536	0.89
518.884	0.89
519.232	0.89
519.58	0.89
519.928	0.89
520.275	0.9
520.623	0.9
520.971	0.91
521.319	0.92
521.666	0.91
522.014	0.92
522.362	0.92
522.709	0.92
523.057	0.93
523.404	0.94
523.752	0.93
524.099	0.93
524.446	0.95
524.794	0.94
525.141	0.94
525.488	0.95
525.835	0.96
526.182	0.95
526.529	0.96
526.876	0.96
527.223	0.96
527.57	0.98
527.917	0.96
528.264	0.98
528.611	0.97
528.958	0.98
529.304	0.98
529.651	0.98
529.998	0.98
530.344	0.98
530.691	0.99
531.037	0.99
531.384	1
531.73	0.99
532.076	1
532.423	1
532.769	1
533.115	0.99
533.461	1
533.807	1
534.154	1.01
534.5	1
534.846	1.02
535.192	1.01
535.537	1.02
535.883	1.01
536.229	1.02
536.575	1.02
536.921	1.02
537.266	1.03
537.612	1.02
537.957	1.03
538.303	1.03
538.649	1.03
538.994	1.03
539.339	1.03
539.685	1.03
540.03	1.05
540.375	1.04
540.721	1.04
541.066	1.04
541.411	1.04
541.756	1.04
542.101	1.05
542.446	1.04
542.791	1.05
543.136	1.05
543.481	1.05
543.825	1.05
544.17	1.05
544.515	1.05
544.86	1.05
545.204	1.05
545.549	1.06
545.893	1.06
546.238	1.05
546.582	1.06
546.927	1.05
547.271	1.06
547.615	1.06
547.96	1.07
548.304	1.06
548.648	1.06
548.992	1.06
549.336	1.06
549.68	1.05
550.024	1.07
550.368	1.06
550.712	1.07
551.056	1.06
551.4	1.06
551.743	1.05
552.087	1.05
552.431	1.06
552.774	1.06
553.118	1.05
553.462	1.06
553.805	1.06
554.148	1.06
554.492	1.06
554.835	1.06
555.178	1.05
555.522	1.05
555.865	1.05
556.208	1.06
556.551	1.05
556.894	1.04
557.237	1.05
557.58	1.05
557.923	1.05
558.266	1.06
558.609	1.05
558.952	1.04
559.294	1.04
559.637	1.05
559.98	1.05
560.322	1.04
560.665	1.05
561.007	1.04
561.35	1.03
561.692	1.04
562.034	1.04
562.377	1.04
562.719	1.03
563.061	1.03
563.403	1.03
563.745	1.03
564.088	1.02
564.43	1.03
564.772	1.02
565.113	1.03
565.455	1.02
565.797	1.02
566.139	1.02
566.481	1.02
566.822	1.02
567.164	1.02
567.506	1.02
567.847	1.02
568.189	1.01
568.53	1.01
568.872	1.01
569.213	1.01
569.554	1.01
569.895	1
570.237	1.01
570.578	1
570.919	1
571.26	0.99
571.601	1
571.942	0.99
572.283	0.99
572.624	0.99
572.965	0.98
573.306	0.98
573.646	0.98
573.987	0.98
574.328	0.98
574.668	0.97
575.009	0.97
575.349	0.97
575.69	0.97
576.03	0.97
576.37	0.96
576.711	0.95
577.051	0.95
577.391	0.95
577.731	0.96
578.072	0.95
578.412	0.95
578.752	0.95
579.092	0.94
579.431	0.93
579.771	0.92
580.111	0.92
580.451	0.93
580.791	0.94
581.13	0.94
581.47	0.93
581.81	0.92
582.149	0.93
582.489	0.93
582.828	0.91
583.167	0.9
583.507	0.86
583.846	0.86
584.185	0.9
584.525	0.91
584.864	0.91
585.203	0.92
585.542	0.91
585.881	0.91
586.22	0.91
586.559	0.91
586.898	0.9
587.236	0.89
587.575	0.89
587.914	0.9
588.252	0.9
588.591	0.9
588.93	0.9
589.268	0.89
589.607	0.89
589.945	0.9
590.283	0.9
590.622	0.9
590.96	0.9
591.298	0.9
591.636	0.89
591.974	0.9
592.313	0.89
592.651	0.9
592.989	0.89
593.326	0.89
593.664	0.89
594.002	0.89
594.34	0.88
594.678	0.89
595.015	0.88
595.353	0.88
595.691	0.88
596.028	0.89
596.366	0.89
596.703	0.89
597.04	0.89
597.378	0.88
597.715	0.88
598.052	0.89
598.389	0.88
598.726	0.88
599.064	0.88
599.401	0.87
599.738	0.88
600.074	0.88
600.411	0.87
600.748	0.88
601.085	0.87
601.422	0.87
601.758	0.87
602.095	0.87
602.432	0.86
602.768	0.87
603.105	0.86
603.441	0.87
603.777	0.86
604.114	0.86
604.45	0.86
604.786	0.86
605.122	0.86
605.459	0.85
605.795	0.85
606.131	0.85
606.467	0.85
606.803	0.85
607.139	0.85
607.474	0.83
607.81	0.84
608.146	0.84
608.482	0.84
608.817	0.83
609.153	0.83
609.488	0.83
609.824	0.82
610.159	0.83
610.495	0.82
610.83	0.82
611.165	0.82
611.5	0.81
611.836	0.81
612.171	0.81
612.506	0.8
612.841	0.8
613.176	0.8
613.511	0.8
613.845	0.8
614.18	0.79
614.515	0.79
614.85	0.78
615.184	0.79
615.519	0.78
615.854	0.78
616.188	0.77
616.523	0.77
616.857	0.77
617.191	0.77
617.526	0.77
617.86	0.76
618.194	0.76
618.528	0.76
618.862	0.76
619.196	0.76
619.53	0.75
619.864	0.75
620.198	0.75
620.532	0.74
620.866	0.74
621.2	0.74
621.533	0.73
621.867	0.73
622.201	0.72
622.534	0.73
622.868	0.72
623.201	0.72
623.534	0.71
623.868	0.71
624.201	0.71
624.534	0.71
624.868	0.7
625.201	0.7
625.534	0.7
625.867	0.7
626.2	0.69
626.533	0.69
626.865	0.69
627.198	0.69
627.531	0.68
627.864	0.67
628.196	0.67
628.529	0.67
628.862	0.67
629.194	0.66
629.527	0.66
629.859	0.65
630.191	0.65
630.524	0.65
630.856	0.65
631.188	0.64
631.52	0.64
631.852	0.63
632.184	0.63
632.516	0.63
632.848	0.62
633.18	0.62
633.512	0.62
633.844	0.61
634.175	0.61
634.507	0.6
634.839	0.6
635.17	0.6
635.502	0.59
635.833	0.59
636.165	0.59
636.496	0.58
636.827	0.58
637.159	0.57
637.49	0.57
637.821	0.57
638.152	0.56
638.483	0.56
638.814	0.55
639.145	0.55
639.476	0.55
639.807	0.54
640.137	0.54
640.468	0.53
640.799	0.53
641.129	0.53
641.46	0.52
641.791	0.52
642.121	0.52
642.451	0.52
642.782	0.51
643.112	0.51
643.442	0.51
643.773	0.5
644.103	0.5
644.433	0.5
644.763	0.49
645.093	0.49
645.423	0.49
645.753	0.49
646.082	0.49
646.412	0.48
646.742	0.48
647.072	0.48
647.401	0.48
647.731	0.47
648.06	0.47
648.39	0.47
648.719	0.47
649.048	0.46
649.378	0.46
649.707	0.46
650.036	0.45
650.365	0.45
650.694	0.45
651.023	0.45
651.352	0.45
651.681	0.45
652.01	0.45
652.339	0.45
652.668	0.45
652.996	0.44
653.325	0.44
653.654	0.44
653.982	0.44
654.311	0.44
654.639	0.44
654.967	0.43
655.296	0.43
655.624	0.43
655.952	0.43
656.28	0.43
656.609	0.43
656.937	0.42
657.265	0.41
657.593	0.26
657.92	0.17
658.248	0.15
658.576	0.23
658.904	0.35
659.231	0.41
659.559	0.41
659.887	0.41
660.214	0.41
660.542	0.41
660.869	0.41
661.196	0.4
661.524	0.4
661.851	0.4
662.178	0.4
662.505	0.4
662.832	0.4
663.159	0.4
663.486	0.39
663.813	0.39
664.14	0.39
664.467	0.39
664.794	0.39
665.12	0.39
665.447	0.39
665.774	0.38
666.1	0.38
666.427	0.38
666.753	0.38
667.079	0.37
667.406	0.37
667.732	0.37
668.058	0.37
668.384	0.37
668.71	0.36
669.036	0.36
669.362	0.36
669.688	0.36
670.014	0.35
670.34	0.35
670.666	0.35
670.991	0.35
671.317	0.34
671.643	0.34
671.968	0.34
672.294	0.34
672.619	0.34
672.945	0.34
673.27	0.33
673.595	0.33
673.92	0.32
674.246	0.32
674.571	0.32
674.896	0.32
675.221	0.32
675.546	0.32
675.87	0.31
676.195	0.31
676.52	0.3
676.845	0.3
677.169	0.3
677.494	0.3
677.819	0.3
678.143	0.29
678.468	0.29
678.792	0.29
679.116	0.29
679.44	0.28
679.765	0.28
680.089	0.28
680.413	0.27
680.737	0.27
681.061	0.27
681.385	0.26
681.709	0.26
682.033	0.26
682.356	0.26
682.68	0.26
683.004	0.25
683.327	0.25
683.651	0.24
683.974	0.25
684.298	0.24
684.621	0.24
684.944	0.24
685.268	0.24
685.591	0.23
685.914	0.23
686.237	0.23
686.56	0.22
686.883	0.22
687.206	0.22
687.529	0.22
687.852	0.21
688.175	0.21
688.497	0.21
688.82	0.21
689.142	0.2
689.465	0.21
689.787	0.21
690.11	0.2
690.432	0.2
690.755	0.19
691.077	0.19
691.399	0.19
691.721	0.19
692.043	0.19
692.365	0.18
692.687	0.18
693.009	0.17
693.331	0.17
693.653	0.17
693.974	0.17
694.296	0.17
694.618	0.17
694.939	0.17
695.261	0.17
695.582	0.16
695.904	0.16
696.225	0.17
696.546	0.16
696.868	0.16
697.189	0.16
697.51	0.16
697.831	0.16
698.152	0.15
698.473	0.15
698.794	0.15
699.114	0.15
699.435	0.14
699.756	0.15
700.077	0.15
700.397	0.14
700.718	0.14
701.038	0.14
701.359	0.14
701.679	0.14
701.999	0.14
702.32	0.14
702.64	0.14
702.96	0.14
703.28	0.14
703.6	0.14
703.92	0.13
704.24	0.13
704.56	0.13
704.879	0.13
705.199	0.13
705.519	0.13
705.838	0.13
706.158	0.13
706.478	0.13
706.797	0.13
707.116	0.13
707.436	0.13
707.755	0.13
708.074	0.12
708.393	0.12
708.712	0.12
709.031	0.11
709.35	0.11
709.669	0.11
709.988	0.12
710.307	0.12
710.626	0.12
710.944	0.12
711.263	0.12
711.582	0.12
711.9	0.12
712.219	0.12
712.537	0.12
712.855	0.12
713.174	0.12
713.492	0.12
713.81	0.12
714.128	0.12
714.446	0.12
714.764	0.12
715.082	0.12
715.4	0.12
715.718	0.12
716.035	0.12
716.353	0.12
716.671	0.12
716.988	0.12
717.306	0.12
717.623	0.12
717.941	0.12
718.258	0.12
718.575	0.12
718.893	0.12
719.21	0.12
719.527	0.12
719.844	0.12
720.161	0.12
720.478	0.12
720.795	0.12
721.112	0.13
721.428	0.13
721.745	0.12
722.062	0.13
722.378	0.13
722.695	0.13
723.011	0.13
723.328	0.12
723.644	0.13
723.96	0.13
724.276	0.13
724.593	0.13
724.909	0.13
725.225	0.13
725.541	0.13
725.857	0.13
726.173	0.13
726.488	0.13
726.804	0.13
727.12	0.13
727.435	0.13
727.751	0.13
728.067	0.13
728.382	0.13
728.697	0.13
729.013	0.13
729.328	0.13
729.643	0.13
729.958	0.13
730.273	0.13
730.588	0.12
730.903	0.13
731.218	0.12
731.533	0.13
731.848	0.12
732.163	0.12
732.477	0.12
732.792	0.12
733.107	0.12
733.421	0.12
733.736	0.12
734.05	0.12
734.364	0.12
734.678	0.12
734.993	0.12
735.307	0.12
735.621	0.12
735.935	0.12
736.249	0.12
736.563	0.12
736.877	0.12
737.19	0.12
737.504	0.12
737.818	0.12
738.131	0.12
738.445	0.12
738.758	0.12
739.072	0.12
739.385	0.11
739.698	0.11
740.012	0.12
740.325	0.11
740.638	0.11
740.951	0.11
741.264	0.11
741.577	0.11
741.89	0.11
742.203	0.11
742.515	0.11
742.828	0.11
743.141	0.11
743.453	0.11
743.766	0.1
744.078	0.1
744.391	0.1
744.703	0.1
745.015	0.1
745.327	0.1
745.639	0.1
745.952	0.1
746.264	0.1
746.575	0.1
746.887	0.1
747.199	0.1
747.511	0.1
747.823	0.09
748.134	0.09
748.446	0.09
748.757	0.09
749.069	0.09
749.38	0.09
749.692	0.09
750.003	0.09
750.314	0.09
750.625	0.09
750.936	0.08
751.248	0.08
751.559	0.08
751.869	0.08
752.18	0.08
752.491	0.08
752.802	0.08
753.112	0.08
753.423	0.08
753.734	0.08
754.044	0.08
754.355	0.08
754.665	0.08
754.975	0.07
755.285	0.07
755.596	0.07
755.906	0.08
756.216	0.08
756.526	0.07
756.836	0.07
757.146	0.07
757.455	0.07
757.765	0.07
758.075	0.07
758.385	0.07
758.694	0.06
759.004	0.07
759.313	0.07
759.622	0.07
759.932	0.07
760.241	0.07
760.55	0.07
760.859	0.07
761.168	0.07
761.477	0.07
761.786	0.06
762.095	0.07
762.404	0.06
762.713	0.07
763.021	0.07
763.33	0.07
763.639	0.06
763.947	0.07
764.256	0.07
764.564	0.07
764.872	0.06
765.181	0.06
765.489	0.06
765.797	0.06
766.105	0.06
766.413	0.06
766.721	0.07
767.029	0.07
767.337	0.07
767.644	0.06
767.952	0.07
768.26	0.06
768.567	0.06
768.875	0.06
769.182	0.06
769.49	0.06
769.797	0.06
770.104	0.06
770.411	0.06
770.718	0.06
771.026	0.06
771.333	0.06
771.639	0.07
771.946	0.06
772.253	0.06
772.56	0.07
772.867	0.06
773.173	0.07
773.48	0.07
773.786	0.06
774.093	0.07
774.399	0.06
774.705	0.06
775.012	0.06
775.318	0.06
775.624	0.06
775.93	0.06
776.236	0.06
776.542	0.06
776.848	0.06
777.154	0.06
777.459	0.06
777.765	0.06
778.071	0.07
778.376	0.07
778.682	0.07
778.987	0.07
779.292	0.07
779.598	0.06
779.903	0.07
780.208	0.06
780.513	0.07
780.818	0.06
781.123	0.07
781.428	0.07
781.733	0.07
782.038	0.07
782.343	0.07
782.647	0.07
782.952	0.07
783.256	0.07
783.561	0.07
783.865	0.07
784.17	0.07
784.474	0.07
784.778	0.07
785.082	0.07
785.386	0.07
785.69	0.07
785.994	0.07
786.298	0.07
786.602	0.07
786.906	0.07
787.209	0.07
787.513	0.07
787.817	0.07
788.12	0.07
788.424	0.07
788.727	0.07
789.03	0.07
789.333	0.07
789.637	0.07
789.94	0.07
790.243	0.07
790.546	0.07
790.849	0.07
791.152	0.08
791.454	0.07
791.757	0.07
792.06	0.07
792.362	0.08
792.665	0.08
792.967	0.07
793.27	0.08
793.572	0.08
793.874	0.08
794.177	0.08
794.479	0.08
794.781	0.08
795.083	0.07
795.385	0.08
795.687	0.08
795.989	0.08
796.29	0.08
796.592	0.08
796.894	0.08
797.195	0.08
797.497	0.09
797.798	0.09
798.1	0.08
798.401	0.09
798.702	0.09
799.003	0.09
799.304	0.09
799.605	0.08
799.906	0.09
800.207	0.08
800.508	0.09
800.809	0.08
801.11	0.09
801.41	0.09
801.711	0.09
802.011	0.09
802.312	0.09
802.612	0.09
802.913	0.08
803.213	0.09
803.513	0.09
803.813	0.09
804.113	0.09
804.413	0.09
804.713	0.09
805.013	0.09
805.313	0.09
805.613	0.09
805.912	0.09
806.212	0.1
806.511	0.09
806.811	0.09
807.11	0.09
807.41	0.1
807.709	0.09
808.008	0.09
808.307	0.09
808.606	0.1
808.905	0.09
809.204	0.09
809.503	0.1
809.802	0.1
810.101	0.1
810.399	0.1
810.698	0.1
810.997	0.1
811.295	0.1
811.593	0.1
811.892	0.1
812.19	0.1
812.488	0.11
812.786	0.1
813.084	0.1
813.383	0.11
813.68	0.11
813.978	0.11
814.276	0.1
814.574	0.11
814.872	0.1
815.169	0.11
815.467	0.11
815.764	0.1
816.062	0.11
816.359	0.1
816.656	0.11
816.954	0.1
817.251	0.11
817.548	0.11
817.845	0.11
818.142	0.11
818.439	0.11
818.735	0.11
819.032	0.11
819.329	0.11
819.626	0.12
819.922	0.11
820.219	0.12
820.515	0.12
820.811	0.12
821.108	0.12
821.404	0.12
821.7	0.12
821.996	0.11
822.292	0.12
822.588	0.12
822.884	0.11
823.18	0.11
823.475	0.11
823.771	0.12
824.067	0.12
824.362	0.11
824.658	0.11
824.953	0.12
825.249	0.12
825.544	0.12
825.839	0.12
826.134	0.12
826.429	0.12
826.724	0.12
827.019	0.12
827.314	0.12
827.609	0.12
827.904	0.12
828.198	0.12
828.493	0.13
828.787	0.12
829.082	0.12
829.376	0.12
829.671	0.12
829.965	0.13
830.259	0.13
830.553	0.13
830.847	0.14
831.141	0.13
831.435	0.14
831.729	0.13
832.023	0.14
832.317	0.14
832.61	0.13
832.904	0.14
833.197	0.14
833.491	0.14
833.784	0.14
834.077	0.13
834.371	0.14
834.664	0.14
834.957	0.13
835.25	0.14
835.543	0.14
835.836	0.14
836.129	0.14
836.421	0.14
836.714	0.14
837.007	0.14
837.299	0.14
837.592	0.15
837.884	0.15
838.177	0.14
838.469	0.14
838.761	0.14
839.053	0.15
839.345	0.15
839.637	0.15
839.929	0.15
840.221	0.14
840.513	0.15
840.805	0.14
841.096	0.15
841.388	0.14
841.68	0.15
841.971	0.15
842.262	0.15
842.554	0.14
842.845	0.16
843.136	0.16
843.427	0.15
843.718	0.15
844.009	0.15
844.3	0.15
844.591	0.15
844.882	0.15
845.173	0.15
845.463	0.16
845.754	0.15
846.044	0.15
846.335	0.16
846.625	0.16
846.915	0.14
847.206	0.16
847.496	0.15
847.786	0.16
848.076	0.17
848.366	0.15
848.656	0.17
848.945	0.16
849.235	0.15
849.525	0.17
849.814	0.16
850.104	0.16
850.393	0.16
850.683	0.16
850.972	0.17
851.261	0.16
851.551	0.16
851.84	0.17
852.129	0.16
852.418	0.15
852.707	0.16
852.995	0.17
853.284	0.17
853.573	0.17
853.862	0.16
854.15	0.17
854.439	0.18
854.727	0.18
855.015	0.18
855.304	0.16
855.592	0.16
855.88	0.17
856.168	0.18
856.456	0.17
856.744	0.18
857.032	0.17
857.32	0.19
857.607	0.19
857.895	0.18
858.183	0.18
858.47	0.19
858.757	0.18
859.045	0.18
859.332	0.17
859.619	0.17
859.907	0.19
860.194	0.2
860.481	0.18
860.768	0.16
861.054	0.19
861.341	0.16
861.628	0.18
861.915	0.2
862.201	0.18
862.488	0.17
862.774	0.17
863.061	0.18
863.347	0.2
863.633	0.19
863.919	0.17
864.205	0.18
864.491	0.17
864.777	0.19
865.063	0.18
865.349	0.2
865.635	0.19
865.92	0.15
866.206	0.16
866.492	0.16
866.777	0.16
867.062	0.17
867.348	0.16
867.633	0.2
867.918	0.18
868.203	0.21
868.488	0.16
868.773	0.22
869.058	0.21
869.343	0.22
869.628	0.15
869.912	0.19
870.197	0.22
870.482	0.2
870.766	0.17
871.05	0.19
871.335	0.16
871.619	0.11
871.903	0.17
872.187	0.16
872.471	0.15
872.755	0.25
873.039	0.14
873.323	0.17
873.607	0.13
873.89	0.15
874.174	0.24
874.458	0.18
874.741	0.16
875.024	0.18
875.308	0.12
875.591	0.25
875.874	0.18
876.157	0.09
876.44	0.17
876.723	0.17
877.006	0.22
877.289	0.21
877.572	0.22
877.854	0.09
878.137	0.2
878.42	0.12
878.702	0.17
878.984	0.04
879.267	0.08
879.549	0.25
879.831	0.21
880.113	0.05
880.395	0.2
880.677	0.04
880.959	-0.04
