Data from Rubpy_BV_1800_EDTA_Buffered_Absorbance_16-54-28-690.txt Node
Date: Wed Jul 01 16:54:28 BST 2026
User: fpm-admin
Spectrometer: OFX00224
Trigger mode: 0
Integration Time (sec): 7.000000E-2
Scans to average: 3
Nonlinearity correction enabled: false
Boxcar width: 0
Storing dark spectrum: false
XAxis mode: Wavelengths
Number of Pixels in Spectrum: 2136
>>>>>Begin Spectral Data<<<<<
154.91	-0
155.289	0.78
155.669	-0
156.048	-0
156.428	-0
156.807	0.03
157.186	-0
157.566	0.6
157.945	-0
158.325	0.87
158.704	-0.34
159.083	-0.05
159.462	-0.48
159.842	-0
160.221	0.18
160.6	-0
160.979	-0
161.359	0.09
161.738	-0
162.117	-0
162.496	-0.05
162.875	-0.27
163.254	0.23
163.633	1.45
164.012	0.14
164.391	0.73
164.77	0.01
165.149	-0.64
165.528	-0.11
165.907	0.21
166.286	-0.45
166.665	-0.23
167.044	-0.08
167.423	0.02
167.802	0.95
168.181	-1.15
168.559	-0
168.938	-0
169.317	0.23
169.696	-0
170.074	-0.18
170.453	0.11
170.832	-0.6
171.21	0.19
171.589	-0
171.968	-0.11
172.346	-0
172.725	-0
173.103	-0
173.482	-0
173.861	-0
174.239	0.1
174.617	-0.41
174.996	-0
175.374	-0.7
175.753	-0.52
176.131	-0.02
176.51	0.7
176.888	-0
177.266	-0
177.645	0.04
178.023	0.9
178.401	-0.08
178.779	0.05
179.158	1.38
179.536	0.08
179.914	-0
180.292	-0.26
180.67	-0
181.048	0.34
181.427	0.06
181.805	-0
182.183	-0.2
182.561	-0
182.939	-0
183.317	-0.54
183.695	-0
184.073	-0
184.451	-0.26
184.829	-0.08
185.206	-0.19
185.584	-0
185.962	-0.38
186.34	-0.15
186.718	0.39
187.096	-0
187.473	-0.23
187.851	-0.15
188.229	-0.41
188.607	0.26
188.984	0.28
189.362	0.32
189.74	0.4
190.117	0.47
190.495	0.33
190.872	0.33
191.25	0.35
191.627	0.21
192.005	0.27
192.382	0.25
192.76	0.35
193.137	0.55
193.515	0.33
193.892	0.31
194.269	0.24
194.647	0.29
195.024	0.23
195.401	0.37
195.779	0.43
196.156	0.44
196.533	0.28
196.91	0.4
197.288	0.25
197.665	0.26
198.042	0.25
198.419	0.27
198.796	0.2
199.173	0.35
199.55	0.32
199.927	0.26
200.304	0.31
200.681	0.39
201.058	0.35
201.435	0.87
201.812	0.25
202.189	0.32
202.566	0.4
202.943	0.34
203.32	0.33
203.697	0.38
204.073	0.28
204.45	0.37
204.827	0.43
205.204	0.35
205.58	0.42
205.957	0.34
206.334	0.31
206.71	0.46
207.087	0.57
207.464	0.21
207.84	0.56
208.217	0.32
208.593	0.22
208.97	0.34
209.346	0.26
209.723	0.29
210.099	0.38
210.476	0.41
210.852	0.46
211.228	0.39
211.605	0.27
211.981	0.38
212.357	0.5
212.733	0.27
213.11	0.36
213.486	0.37
213.862	0.29
214.238	0.29
214.614	0.31
214.991	0.34
215.367	0.39
215.743	0.32
216.119	0.34
216.495	0.38
216.871	0.37
217.247	0.39
217.623	0.37
217.999	0.53
218.375	0.38
218.751	0.34
219.127	0.53
219.502	0.29
219.878	0.28
220.254	0.48
220.63	0.57
221.006	0.44
221.381	0.28
221.757	0.31
222.133	0.24
222.508	0.53
222.884	0.29
223.26	0.37
223.635	0.27
224.011	0.27
224.386	0.5
224.762	0.49
225.137	0.45
225.513	0.34
225.888	0.39
226.264	0.35
226.639	0.31
227.014	0.41
227.39	0.3
227.765	0.39
228.14	0.35
228.516	0.39
228.891	0.41
229.266	0.33
229.641	0.37
230.017	0.34
230.392	0.43
230.767	0.46
231.142	0.32
231.517	0.52
231.892	0.38
232.267	0.42
232.642	0.38
233.017	0.38
233.392	0.39
233.767	0.37
234.142	0.28
234.517	0.33
234.892	0.38
235.267	0.45
235.641	0.38
236.016	0.33
236.391	0.24
236.766	0.26
237.14	0.45
237.515	0.67
237.89	0.34
238.264	0.48
238.639	0.3
239.014	0.37
239.388	0.45
239.763	0.44
240.137	0.25
240.512	0.44
240.886	0.5
241.261	0.37
241.635	0.23
242.009	0.44
242.384	0.39
242.758	0.43
243.132	0.37
243.507	0.42
243.881	0.36
244.255	0.39
244.629	0.43
245.004	0.52
245.378	0.44
245.752	0.36
246.126	0.4
246.5	0.34
246.874	0.37
247.248	0.33
247.622	0.48
247.996	0.3
248.37	0.41
248.744	0.41
249.118	0.39
249.492	0.35
249.866	0.28
250.24	0.52
250.613	0.38
250.987	0.39
251.361	0.53
251.735	0.44
252.108	0.54
252.482	0.25
252.856	0.32
253.229	0.63
253.603	0.34
253.977	0.38
254.35	0.34
254.724	0.34
255.097	0.28
255.471	0.4
255.844	0.36
256.218	0.34
256.591	0.3
256.964	0.39
257.338	0.33
257.711	0.46
258.084	0.36
258.458	0.43
258.831	0.43
259.204	0.41
259.577	0.35
259.95	0.45
260.323	0.34
260.697	0.45
261.07	0.37
261.443	0.44
261.816	0.4
262.189	0.32
262.562	0.32
262.935	0.4
263.308	0.25
263.68	0.27
264.053	0.36
264.426	0.43
264.799	0.37
265.172	0.47
265.545	0.45
265.917	0.39
266.29	0.4
266.663	0.33
267.035	0.37
267.408	0.41
267.781	0.49
268.153	0.4
268.526	0.44
268.898	0.43
269.271	0.4
269.643	0.38
270.016	0.47
270.388	0.26
270.76	0.44
271.133	0.34
271.505	0.41
271.877	0.27
272.25	0.27
272.622	0.36
272.994	0.47
273.366	0.42
273.739	0.42
274.111	0.48
274.483	0.33
274.855	0.42
275.227	0.5
275.599	0.52
275.971	0.35
276.343	0.41
276.715	0.37
277.087	0.37
277.459	0.35
277.831	0.33
278.203	0.4
278.574	0.38
278.946	0.37
279.318	0.27
279.69	0.38
280.061	0.37
280.433	0.42
280.805	0.36
281.176	0.41
281.548	0.43
281.92	0.36
282.291	0.32
282.663	0.32
283.034	0.32
283.406	0.38
283.777	0.35
284.148	0.35
284.52	0.35
284.891	0.43
285.262	0.38
285.634	0.32
286.005	0.37
286.376	0.41
286.747	0.44
287.119	0.35
287.49	0.5
287.861	0.38
288.232	0.34
288.603	0.51
288.974	0.28
289.345	0.42
289.716	0.38
290.087	0.32
290.458	0.48
290.829	0.23
291.2	0.29
291.571	0.39
291.941	0.37
292.312	0.36
292.683	0.34
293.054	0.45
293.424	0.29
293.795	0.38
294.166	0.39
294.536	0.44
294.907	0.35
295.277	0.38
295.648	0.4
296.018	0.45
296.389	0.41
296.759	0.37
297.13	0.35
297.5	0.43
297.871	0.4
298.241	0.46
298.611	0.31
298.981	0.37
299.352	0.39
299.722	0.38
300.092	0.46
300.462	0.39
300.832	0.35
301.202	0.38
301.573	0.4
301.943	0.39
302.313	0.35
302.683	0.4
303.053	0.35
303.422	0.32
303.792	0.36
304.162	0.36
304.532	0.45
304.902	0.39
305.272	0.45
305.641	0.46
306.011	0.3
306.381	0.36
306.75	0.47
307.12	0.31
307.49	0.35
307.859	0.37
308.229	0.32
308.598	0.33
308.968	0.31
309.337	0.29
309.707	0.32
310.076	0.29
310.445	0.32
310.815	0.3
311.184	0.36
311.553	0.31
311.923	0.29
312.292	0.31
312.661	0.32
313.03	0.3
313.399	0.31
313.768	0.31
314.137	0.3
314.506	0.3
314.875	0.34
315.244	0.32
315.613	0.31
315.982	0.35
316.351	0.35
316.72	0.34
317.089	0.35
317.458	0.35
317.826	0.35
318.195	0.35
318.564	0.36
318.933	0.39
319.301	0.38
319.67	0.39
320.038	0.39
320.407	0.39
320.775	0.41
321.144	0.41
321.512	0.4
321.881	0.42
322.249	0.44
322.618	0.44
322.986	0.42
323.354	0.44
323.723	0.43
324.091	0.46
324.459	0.46
324.827	0.47
325.195	0.47
325.564	0.49
325.932	0.48
326.3	0.47
326.668	0.5
327.036	0.5
327.404	0.52
327.772	0.52
328.14	0.53
328.508	0.55
328.875	0.55
329.243	0.56
329.611	0.56
329.979	0.58
330.346	0.57
330.714	0.59
331.082	0.61
331.449	0.61
331.817	0.61
332.185	0.63
332.552	0.64
332.92	0.66
333.287	0.66
333.655	0.67
334.022	0.69
334.389	0.69
334.757	0.72
335.124	0.73
335.491	0.74
335.859	0.76
336.226	0.77
336.593	0.79
336.96	0.8
337.327	0.82
337.695	0.83
338.062	0.86
338.429	0.86
338.796	0.89
339.163	0.89
339.53	0.9
339.897	0.93
340.263	0.95
340.63	0.97
340.997	0.98
341.364	1
341.731	0.99
342.097	1.02
342.464	1.05
342.831	1.05
343.197	1.07
343.564	1.1
343.931	1.1
344.297	1.12
344.664	1.14
345.03	1.16
345.396	1.17
345.763	1.2
346.129	1.22
346.496	1.22
346.862	1.25
347.228	1.26
347.594	1.29
347.961	1.29
348.327	1.3
348.693	1.32
349.059	1.33
349.425	1.34
349.791	1.35
350.157	1.39
350.523	1.4
350.889	1.42
351.255	1.42
351.621	1.45
351.987	1.45
352.353	1.46
352.719	1.48
353.084	1.49
353.45	1.51
353.816	1.51
354.181	1.53
354.547	1.57
354.913	1.57
355.278	1.58
355.644	1.58
356.009	1.63
356.375	1.62
356.74	1.65
357.106	1.71
357.471	1.68
357.836	1.71
358.202	1.76
358.567	1.74
358.932	1.75
359.297	1.79
359.663	1.79
360.028	1.8
360.393	1.85
360.758	1.86
361.123	1.88
361.488	1.88
361.853	1.88
362.218	1.93
362.583	1.96
362.948	1.95
363.312	1.97
363.677	1.96
364.042	1.93
364.407	2.03
364.772	2.01
365.136	1.98
365.501	2
365.865	2.03
366.23	1.99
366.595	1.98
366.959	2.07
367.324	2.08
367.688	2.03
368.052	2.12
368.417	2.08
368.781	2.12
369.145	2.14
369.51	2.11
369.874	2.14
370.238	2.08
370.602	2.03
370.967	2.17
371.331	2.1
371.695	2.11
372.059	2.15
372.423	2.05
372.787	2.11
373.151	2.04
373.515	2.13
373.878	2.12
374.242	2.12
374.606	2.01
374.97	2.08
375.334	2.14
375.697	1.99
376.061	2.07
376.425	2.04
376.788	2.03
377.152	2.05
377.515	2.06
377.879	2.03
378.242	1.95
378.606	2
378.969	1.97
379.333	1.98
379.696	2
380.059	1.95
380.422	1.91
380.786	1.88
381.149	1.93
381.512	1.86
381.875	1.91
382.238	1.8
382.601	1.83
382.964	1.77
383.327	1.82
383.69	1.74
384.053	1.71
384.416	1.73
384.779	1.69
385.142	1.7
385.504	1.69
385.867	1.66
386.23	1.66
386.593	1.65
386.955	1.63
387.318	1.6
387.68	1.59
388.043	1.6
388.405	1.57
388.768	1.58
389.13	1.57
389.493	1.57
389.855	1.55
390.217	1.53
390.58	1.51
390.942	1.49
391.304	1.47
391.666	1.45
392.028	1.44
392.391	1.41
392.753	1.4
393.115	1.37
393.477	1.35
393.839	1.34
394.201	1.35
394.563	1.34
394.924	1.32
395.286	1.32
395.648	1.3
396.01	1.31
396.371	1.33
396.733	1.33
397.095	1.34
397.456	1.37
397.818	1.4
398.18	1.41
398.541	1.44
398.903	1.48
399.264	1.49
399.625	1.53
399.987	1.56
400.348	1.56
400.709	1.57
401.071	1.6
401.432	1.58
401.793	1.59
402.154	1.59
402.515	1.55
402.876	1.55
403.238	1.5
403.599	1.46
403.96	1.45
404.32	1.38
404.681	1.34
405.042	1.28
405.403	1.23
405.764	1.18
406.125	1.12
406.485	1.08
406.846	1.03
407.207	0.97
407.567	0.92
407.928	0.88
408.288	0.84
408.649	0.79
409.009	0.75
409.37	0.7
409.73	0.67
410.091	0.64
410.451	0.61
410.811	0.58
411.171	0.56
411.532	0.52
411.892	0.51
412.252	0.48
412.612	0.46
412.972	0.44
413.332	0.42
413.692	0.41
414.052	0.39
414.412	0.37
414.772	0.36
415.132	0.35
415.492	0.34
415.851	0.33
416.211	0.32
416.571	0.31
416.931	0.3
417.29	0.28
417.65	0.29
418.009	0.28
418.369	0.26
418.728	0.27
419.088	0.26
419.447	0.26
419.807	0.26
420.166	0.25
420.525	0.24
420.884	0.23
421.244	0.23
421.603	0.23
421.962	0.21
422.321	0.23
422.68	0.22
423.039	0.21
423.398	0.21
423.757	0.21
424.116	0.21
424.475	0.2
424.834	0.2
425.193	0.2
425.551	0.2
425.91	0.2
426.269	0.2
426.628	0.19
426.986	0.19
427.345	0.18
427.703	0.19
428.062	0.19
428.42	0.19
428.779	0.18
429.137	0.18
429.496	0.18
429.854	0.19
430.212	0.19
430.57	0.18
430.929	0.17
431.287	0.17
431.645	0.17
432.003	0.18
432.361	0.17
432.719	0.18
433.077	0.18
433.435	0.17
433.793	0.18
434.151	0.18
434.509	0.18
434.866	0.17
435.224	0.17
435.582	0.18
435.94	0.17
436.297	0.18
436.655	0.18
437.012	0.17
437.37	0.17
437.727	0.17
438.085	0.18
438.442	0.17
438.8	0.18
439.157	0.18
439.514	0.18
439.872	0.17
440.229	0.18
440.586	0.17
440.943	0.18
441.3	0.17
441.657	0.19
442.014	0.18
442.371	0.17
442.728	0.17
443.085	0.18
443.442	0.17
443.799	0.18
444.156	0.19
444.513	0.19
444.869	0.17
445.226	0.18
445.583	0.19
445.939	0.19
446.296	0.18
446.652	0.18
447.009	0.18
447.365	0.19
447.722	0.18
448.078	0.19
448.434	0.19
448.791	0.19
449.147	0.18
449.503	0.18
449.859	0.18
450.215	0.18
450.571	0.19
450.928	0.19
451.284	0.19
451.64	0.19
451.995	0.19
452.351	0.19
452.707	0.18
453.063	0.19
453.419	0.18
453.775	0.18
454.13	0.18
454.486	0.18
454.842	0.18
455.197	0.18
455.553	0.18
455.908	0.18
456.264	0.17
456.619	0.17
456.975	0.17
457.33	0.17
457.685	0.17
458.04	0.16
458.396	0.16
458.751	0.16
459.106	0.16
459.461	0.16
459.816	0.16
460.171	0.15
460.526	0.15
460.881	0.14
461.236	0.14
461.591	0.13
461.946	0.13
462.301	0.14
462.655	0.13
463.01	0.13
463.365	0.12
463.719	0.12
464.074	0.11
464.428	0.1
464.783	0.1
465.137	0.1
465.492	0.1
465.846	0.1
466.201	0.1
466.555	0.11
466.909	0.11
467.263	0.12
467.618	0.12
467.972	0.13
468.326	0.12
468.68	0.12
469.034	0.11
469.388	0.11
469.742	0.12
470.096	0.13
470.45	0.12
470.804	0.13
471.157	0.13
471.511	0.13
471.865	0.13
472.218	0.14
472.572	0.15
472.926	0.15
473.279	0.17
473.633	0.17
473.986	0.18
474.34	0.18
474.693	0.2
475.046	0.22
475.4	0.22
475.753	0.24
476.106	0.25
476.459	0.25
476.812	0.28
477.165	0.28
477.519	0.29
477.872	0.3
478.224	0.31
478.577	0.33
478.93	0.33
479.283	0.33
479.636	0.34
479.989	0.35
480.341	0.37
480.694	0.37
481.047	0.38
481.399	0.39
481.752	0.39
482.104	0.4
482.457	0.42
482.809	0.43
483.162	0.42
483.514	0.44
483.866	0.45
484.219	0.45
484.571	0.46
484.923	0.46
485.275	0.47
485.627	0.46
485.979	0.49
486.331	0.49
486.683	0.5
487.035	0.5
487.387	0.52
487.739	0.53
488.091	0.53
488.443	0.54
488.794	0.54
489.146	0.54
489.498	0.55
489.849	0.56
490.201	0.56
490.552	0.56
490.904	0.56
491.255	0.57
491.607	0.58
491.958	0.59
492.309	0.59
492.661	0.59
493.012	0.61
493.363	0.61
493.714	0.61
494.065	0.62
494.416	0.63
494.767	0.63
495.118	0.64
495.469	0.64
495.82	0.64
496.171	0.66
496.522	0.66
496.872	0.66
497.223	0.67
497.574	0.67
497.924	0.68
498.275	0.7
498.626	0.69
498.976	0.7
499.327	0.71
499.677	0.71
500.027	0.72
500.378	0.72
500.728	0.72
501.078	0.73
501.428	0.73
501.779	0.74
502.129	0.75
502.479	0.76
502.829	0.76
503.179	0.77
503.529	0.77
503.879	0.78
504.229	0.79
504.578	0.79
504.928	0.79
505.278	0.8
505.628	0.8
505.977	0.82
506.327	0.81
506.676	0.81
507.026	0.81
507.375	0.83
507.725	0.83
508.074	0.84
508.424	0.84
508.773	0.85
509.122	0.85
509.471	0.85
509.82	0.87
510.17	0.87
510.519	0.87
510.868	0.87
511.217	0.87
511.566	0.88
511.915	0.89
512.263	0.9
512.612	0.89
512.961	0.91
513.31	0.91
513.659	0.91
514.007	0.92
514.356	0.93
514.704	0.92
515.053	0.93
515.401	0.93
515.75	0.93
516.098	0.95
516.447	0.94
516.795	0.94
517.143	0.94
517.491	0.96
517.839	0.95
518.188	0.96
518.536	0.98
518.884	0.97
519.232	0.97
519.58	0.97
519.928	0.99
520.275	0.99
520.623	0.99
520.971	0.99
521.319	1.01
521.666	1.01
522.014	1
522.362	1.01
522.709	1.02
523.057	1.02
523.404	1.02
523.752	1.03
524.099	1.01
524.446	1.03
524.794	1.04
525.141	1.03
525.488	1.05
525.835	1.04
526.182	1.05
526.529	1.04
526.876	1.04
527.223	1.05
527.57	1.05
527.917	1.06
528.264	1.06
528.611	1.06
528.958	1.07
529.304	1.07
529.651	1.07
529.998	1.07
530.344	1.07
530.691	1.08
531.037	1.08
531.384	1.08
531.73	1.08
532.076	1.09
532.423	1.09
532.769	1.1
533.115	1.09
533.461	1.09
533.807	1.1
534.154	1.09
534.5	1.11
534.846	1.11
535.192	1.11
535.537	1.11
535.883	1.12
536.229	1.13
536.575	1.11
536.921	1.11
537.266	1.13
537.612	1.12
537.957	1.11
538.303	1.12
538.649	1.13
538.994	1.13
539.339	1.12
539.685	1.14
540.03	1.13
540.375	1.13
540.721	1.14
541.066	1.13
541.411	1.13
541.756	1.14
542.101	1.15
542.446	1.14
542.791	1.14
543.136	1.13
543.481	1.15
543.825	1.15
544.17	1.14
544.515	1.15
544.86	1.14
545.204	1.15
545.549	1.15
545.893	1.15
546.238	1.14
546.582	1.15
546.927	1.15
547.271	1.16
547.615	1.15
547.96	1.16
548.304	1.16
548.648	1.16
548.992	1.16
549.336	1.15
549.68	1.15
550.024	1.16
550.368	1.16
550.712	1.16
551.056	1.16
551.4	1.16
551.743	1.15
552.087	1.15
552.431	1.14
552.774	1.16
553.118	1.15
553.462	1.16
553.805	1.16
554.148	1.15
554.492	1.15
554.835	1.15
555.178	1.15
555.522	1.16
555.865	1.15
556.208	1.14
556.551	1.14
556.894	1.15
557.237	1.15
557.58	1.15
557.923	1.14
558.266	1.14
558.609	1.13
558.952	1.14
559.294	1.14
559.637	1.15
559.98	1.12
560.322	1.13
560.665	1.13
561.007	1.12
561.35	1.13
561.692	1.13
562.034	1.13
562.377	1.13
562.719	1.12
563.061	1.13
563.403	1.12
563.745	1.12
564.088	1.12
564.43	1.12
564.772	1.11
565.113	1.11
565.455	1.11
565.797	1.11
566.139	1.11
566.481	1.11
566.822	1.1
567.164	1.11
567.506	1.1
567.847	1.1
568.189	1.1
568.53	1.09
568.872	1.1
569.213	1.1
569.554	1.09
569.895	1.09
570.237	1.09
570.578	1.09
570.919	1.09
571.26	1.08
571.601	1.08
571.942	1.07
572.283	1.07
572.624	1.07
572.965	1.07
573.306	1.06
573.646	1.06
573.987	1.06
574.328	1.06
574.668	1.05
575.009	1.05
575.349	1.05
575.69	1.05
576.03	1.05
576.37	1.04
576.711	1.04
577.051	1.04
577.391	1.04
577.731	1.03
578.072	1.03
578.412	1.04
578.752	1.03
579.092	1.02
579.431	1.01
579.771	1
580.111	0.99
580.451	1.01
580.791	1.01
581.13	1.01
581.47	1.01
581.81	1.01
582.149	1
582.489	1
582.828	0.99
583.167	0.97
583.507	0.94
583.846	0.94
584.185	0.97
584.525	0.99
584.864	0.99
585.203	1
585.542	1
585.881	0.99
586.22	0.98
586.559	0.98
586.898	0.97
587.236	0.97
587.575	0.97
587.914	0.97
588.252	0.98
588.591	0.97
588.93	0.97
589.268	0.97
589.607	0.97
589.945	0.97
590.283	0.97
590.622	0.97
590.96	0.97
591.298	0.97
591.636	0.96
591.974	0.97
592.313	0.97
592.651	0.97
592.989	0.97
593.326	0.96
593.664	0.96
594.002	0.96
594.34	0.95
594.678	0.95
595.015	0.95
595.353	0.95
595.691	0.96
596.028	0.96
596.366	0.96
596.703	0.95
597.04	0.96
597.378	0.95
597.715	0.96
598.052	0.96
598.389	0.95
598.726	0.95
599.064	0.95
599.401	0.95
599.738	0.95
600.074	0.95
600.411	0.94
600.748	0.94
601.085	0.94
601.422	0.94
601.758	0.94
602.095	0.93
602.432	0.93
602.768	0.93
603.105	0.93
603.441	0.94
603.777	0.93
604.114	0.93
604.45	0.93
604.786	0.93
605.122	0.92
605.459	0.92
605.795	0.92
606.131	0.91
606.467	0.92
606.803	0.91
607.139	0.91
607.474	0.9
607.81	0.91
608.146	0.9
608.482	0.9
608.817	0.89
609.153	0.89
609.488	0.89
609.824	0.89
610.159	0.89
610.495	0.89
610.83	0.89
611.165	0.88
611.5	0.88
611.836	0.87
612.171	0.87
612.506	0.87
612.841	0.87
613.176	0.87
613.511	0.86
613.845	0.86
614.18	0.85
614.515	0.85
614.85	0.85
615.184	0.84
615.519	0.84
615.854	0.84
616.188	0.83
616.523	0.83
616.857	0.83
617.191	0.82
617.526	0.82
617.86	0.82
618.194	0.82
618.528	0.82
618.862	0.81
619.196	0.81
619.53	0.81
619.864	0.8
620.198	0.8
620.532	0.8
620.866	0.8
621.2	0.8
621.533	0.79
621.867	0.79
622.201	0.78
622.534	0.78
622.868	0.78
623.201	0.77
623.534	0.77
623.868	0.77
624.201	0.76
624.534	0.76
624.868	0.75
625.201	0.76
625.534	0.74
625.867	0.74
626.2	0.74
626.533	0.74
626.865	0.74
627.198	0.73
627.531	0.73
627.864	0.72
628.196	0.73
628.529	0.72
628.862	0.72
629.194	0.71
629.527	0.71
629.859	0.7
630.191	0.7
630.524	0.7
630.856	0.69
631.188	0.69
631.52	0.68
631.852	0.68
632.184	0.68
632.516	0.67
632.848	0.67
633.18	0.66
633.512	0.66
633.844	0.66
634.175	0.66
634.507	0.65
634.839	0.64
635.17	0.64
635.502	0.63
635.833	0.63
636.165	0.63
636.496	0.62
636.827	0.62
637.159	0.62
637.49	0.62
637.821	0.61
638.152	0.6
638.483	0.6
638.814	0.6
639.145	0.59
639.476	0.59
639.807	0.58
640.137	0.58
640.468	0.58
640.799	0.57
641.129	0.57
641.46	0.56
641.791	0.56
642.121	0.56
642.451	0.55
642.782	0.55
643.112	0.55
643.442	0.54
643.773	0.54
644.103	0.54
644.433	0.54
644.763	0.53
645.093	0.53
645.423	0.53
645.753	0.53
646.082	0.52
646.412	0.52
646.742	0.52
647.072	0.52
647.401	0.51
647.731	0.51
648.06	0.51
648.39	0.5
648.719	0.5
649.048	0.5
649.378	0.5
649.707	0.5
650.036	0.49
650.365	0.49
650.694	0.48
651.023	0.49
651.352	0.48
651.681	0.48
652.01	0.48
652.339	0.48
652.668	0.48
652.996	0.48
653.325	0.47
653.654	0.48
653.982	0.47
654.311	0.47
654.639	0.47
654.967	0.46
655.296	0.46
655.624	0.46
655.952	0.47
656.28	0.46
656.609	0.46
656.937	0.46
657.265	0.44
657.593	0.3
657.92	0.2
658.248	0.18
658.576	0.26
658.904	0.39
659.231	0.44
659.559	0.44
659.887	0.44
660.214	0.44
660.542	0.44
660.869	0.43
661.196	0.43
661.524	0.44
661.851	0.43
662.178	0.43
662.505	0.43
662.832	0.43
663.159	0.42
663.486	0.42
663.813	0.42
664.14	0.42
664.467	0.42
664.794	0.41
665.12	0.41
665.447	0.41
665.774	0.41
666.1	0.41
666.427	0.4
666.753	0.4
667.079	0.4
667.406	0.4
667.732	0.39
668.058	0.39
668.384	0.39
668.71	0.39
669.036	0.39
669.362	0.39
669.688	0.38
670.014	0.38
670.34	0.38
670.666	0.37
670.991	0.37
671.317	0.37
671.643	0.37
671.968	0.37
672.294	0.36
672.619	0.36
672.945	0.36
673.27	0.36
673.595	0.35
673.92	0.35
674.246	0.35
674.571	0.34
674.896	0.34
675.221	0.34
675.546	0.34
675.87	0.34
676.195	0.33
676.52	0.33
676.845	0.33
677.169	0.32
677.494	0.32
677.819	0.32
678.143	0.31
678.468	0.31
678.792	0.31
679.116	0.31
679.44	0.31
679.765	0.3
680.089	0.3
680.413	0.29
680.737	0.29
681.061	0.28
681.385	0.28
681.709	0.28
682.033	0.28
682.356	0.28
682.68	0.28
683.004	0.27
683.327	0.27
683.651	0.26
683.974	0.26
684.298	0.26
684.621	0.26
684.944	0.26
685.268	0.25
685.591	0.25
685.914	0.25
686.237	0.24
686.56	0.24
686.883	0.24
687.206	0.23
687.529	0.23
687.852	0.23
688.175	0.23
688.497	0.23
688.82	0.23
689.142	0.22
689.465	0.22
689.787	0.22
690.11	0.22
690.432	0.21
690.755	0.21
691.077	0.21
691.399	0.2
691.721	0.2
692.043	0.2
692.365	0.2
692.687	0.19
693.009	0.19
693.331	0.19
693.653	0.18
693.974	0.19
694.296	0.18
694.618	0.18
694.939	0.18
695.261	0.18
695.582	0.18
695.904	0.17
696.225	0.18
696.546	0.17
696.868	0.17
697.189	0.17
697.51	0.17
697.831	0.17
698.152	0.17
698.473	0.16
698.794	0.16
699.114	0.16
699.435	0.15
699.756	0.16
700.077	0.16
700.397	0.16
700.718	0.16
701.038	0.15
701.359	0.15
701.679	0.15
701.999	0.15
702.32	0.15
702.64	0.15
702.96	0.15
703.28	0.15
703.6	0.15
703.92	0.14
704.24	0.14
704.56	0.14
704.879	0.14
705.199	0.14
705.519	0.14
705.838	0.14
706.158	0.14
706.478	0.14
706.797	0.14
707.116	0.14
707.436	0.14
707.755	0.14
708.074	0.14
708.393	0.13
708.712	0.13
709.031	0.12
709.35	0.12
709.669	0.12
709.988	0.12
710.307	0.12
710.626	0.13
710.944	0.13
711.263	0.13
711.582	0.13
711.9	0.13
712.219	0.13
712.537	0.13
712.855	0.13
713.174	0.13
713.492	0.13
713.81	0.13
714.128	0.13
714.446	0.13
714.764	0.13
715.082	0.12
715.4	0.13
715.718	0.13
716.035	0.13
716.353	0.13
716.671	0.13
716.988	0.13
717.306	0.13
717.623	0.13
717.941	0.13
718.258	0.13
718.575	0.13
718.893	0.13
719.21	0.13
719.527	0.13
719.844	0.13
720.161	0.13
720.478	0.13
720.795	0.13
721.112	0.14
721.428	0.14
721.745	0.14
722.062	0.14
722.378	0.14
722.695	0.14
723.011	0.14
723.328	0.14
723.644	0.14
723.96	0.14
724.276	0.14
724.593	0.14
724.909	0.14
725.225	0.14
725.541	0.14
725.857	0.14
726.173	0.14
726.488	0.14
726.804	0.14
727.12	0.14
727.435	0.14
727.751	0.14
728.067	0.14
728.382	0.14
728.697	0.14
729.013	0.14
729.328	0.13
729.643	0.13
729.958	0.14
730.273	0.14
730.588	0.13
730.903	0.13
731.218	0.13
731.533	0.13
731.848	0.13
732.163	0.13
732.477	0.13
732.792	0.13
733.107	0.12
733.421	0.13
733.736	0.13
734.05	0.13
734.364	0.13
734.678	0.13
734.993	0.13
735.307	0.13
735.621	0.13
735.935	0.13
736.249	0.12
736.563	0.13
736.877	0.13
737.19	0.13
737.504	0.13
737.818	0.13
738.131	0.12
738.445	0.13
738.758	0.13
739.072	0.12
739.385	0.13
739.698	0.12
740.012	0.13
740.325	0.12
740.638	0.12
740.951	0.12
741.264	0.12
741.577	0.12
741.89	0.12
742.203	0.12
742.515	0.12
742.828	0.12
743.141	0.11
743.453	0.11
743.766	0.11
744.078	0.11
744.391	0.11
744.703	0.11
745.015	0.11
745.327	0.11
745.639	0.11
745.952	0.11
746.264	0.11
746.575	0.11
746.887	0.1
747.199	0.1
747.511	0.1
747.823	0.1
748.134	0.1
748.446	0.1
748.757	0.1
749.069	0.1
749.38	0.1
749.692	0.1
750.003	0.1
750.314	0.09
750.625	0.09
750.936	0.09
751.248	0.09
751.559	0.09
751.869	0.09
752.18	0.09
752.491	0.09
752.802	0.09
753.112	0.09
753.423	0.09
753.734	0.09
754.044	0.08
754.355	0.09
754.665	0.08
754.975	0.08
755.285	0.08
755.596	0.08
755.906	0.08
756.216	0.08
756.526	0.08
756.836	0.08
757.146	0.08
757.455	0.08
757.765	0.08
758.075	0.08
758.385	0.07
758.694	0.07
759.004	0.07
759.313	0.07
759.622	0.08
759.932	0.07
760.241	0.07
760.55	0.08
760.859	0.07
761.168	0.08
761.477	0.07
761.786	0.07
762.095	0.07
762.404	0.07
762.713	0.07
763.021	0.07
763.33	0.07
763.639	0.07
763.947	0.07
764.256	0.07
764.564	0.07
764.872	0.07
765.181	0.07
765.489	0.07
765.797	0.07
766.105	0.07
766.413	0.07
766.721	0.07
767.029	0.07
767.337	0.07
767.644	0.07
767.952	0.07
768.26	0.07
768.567	0.07
768.875	0.07
769.182	0.07
769.49	0.07
769.797	0.07
770.104	0.07
770.411	0.07
770.718	0.07
771.026	0.07
771.333	0.07
771.639	0.07
771.946	0.07
772.253	0.07
772.56	0.07
772.867	0.07
773.173	0.07
773.48	0.07
773.786	0.07
774.093	0.07
774.399	0.07
774.705	0.07
775.012	0.07
775.318	0.07
775.624	0.07
775.93	0.07
776.236	0.07
776.542	0.07
776.848	0.07
777.154	0.07
777.459	0.07
777.765	0.07
778.071	0.08
778.376	0.07
778.682	0.07
778.987	0.07
779.292	0.07
779.598	0.07
779.903	0.07
780.208	0.07
780.513	0.07
780.818	0.07
781.123	0.07
781.428	0.08
781.733	0.08
782.038	0.08
782.343	0.08
782.647	0.07
782.952	0.08
783.256	0.08
783.561	0.08
783.865	0.08
784.17	0.08
784.474	0.08
784.778	0.08
785.082	0.08
785.386	0.08
785.69	0.08
785.994	0.08
786.298	0.08
786.602	0.08
786.906	0.08
787.209	0.08
787.513	0.08
787.817	0.08
788.12	0.08
788.424	0.08
788.727	0.08
789.03	0.08
789.333	0.08
789.637	0.08
789.94	0.08
790.243	0.08
790.546	0.08
790.849	0.08
791.152	0.08
791.454	0.08
791.757	0.08
792.06	0.08
792.362	0.08
792.665	0.08
792.967	0.08
793.27	0.08
793.572	0.08
793.874	0.08
794.177	0.09
794.479	0.08
794.781	0.09
795.083	0.08
795.385	0.09
795.687	0.09
795.989	0.09
796.29	0.09
796.592	0.09
796.894	0.09
797.195	0.09
797.497	0.1
797.798	0.1
798.1	0.09
798.401	0.09
798.702	0.1
799.003	0.09
799.304	0.09
799.605	0.09
799.906	0.1
800.207	0.09
800.508	0.1
800.809	0.09
801.11	0.09
801.41	0.09
801.711	0.1
802.011	0.1
802.312	0.09
802.612	0.1
802.913	0.1
803.213	0.1
803.513	0.1
803.813	0.1
804.113	0.1
804.413	0.1
804.713	0.1
805.013	0.1
805.313	0.1
805.613	0.1
805.912	0.1
806.212	0.1
806.511	0.1
806.811	0.1
807.11	0.1
807.41	0.1
807.709	0.1
808.008	0.11
808.307	0.1
808.606	0.11
808.905	0.1
809.204	0.1
809.503	0.11
809.802	0.11
810.101	0.11
810.399	0.11
810.698	0.11
810.997	0.11
811.295	0.11
811.593	0.11
811.892	0.11
812.19	0.12
812.488	0.11
812.786	0.11
813.084	0.11
813.383	0.12
813.68	0.11
813.978	0.12
814.276	0.11
814.574	0.12
814.872	0.12
815.169	0.12
815.467	0.11
815.764	0.12
816.062	0.12
816.359	0.12
816.656	0.12
816.954	0.12
817.251	0.12
817.548	0.12
817.845	0.12
818.142	0.12
818.439	0.12
818.735	0.13
819.032	0.12
819.329	0.12
819.626	0.13
819.922	0.13
820.219	0.13
820.515	0.13
820.811	0.13
821.108	0.13
821.404	0.13
821.7	0.13
821.996	0.13
822.292	0.13
822.588	0.13
822.884	0.13
823.18	0.13
823.475	0.13
823.771	0.13
824.067	0.13
824.362	0.13
824.658	0.13
824.953	0.14
825.249	0.13
825.544	0.13
825.839	0.13
826.134	0.13
826.429	0.13
826.724	0.14
827.019	0.14
827.314	0.14
827.609	0.14
827.904	0.14
828.198	0.14
828.493	0.14
828.787	0.14
829.082	0.14
829.376	0.13
829.671	0.14
829.965	0.14
830.259	0.14
830.553	0.14
830.847	0.15
831.141	0.14
831.435	0.14
831.729	0.15
832.023	0.15
832.317	0.15
832.61	0.15
832.904	0.15
833.197	0.15
833.491	0.16
833.784	0.15
834.077	0.15
834.371	0.15
834.664	0.15
834.957	0.14
835.25	0.16
835.543	0.15
835.836	0.15
836.129	0.15
836.421	0.16
836.714	0.15
837.007	0.15
837.299	0.16
837.592	0.16
837.884	0.16
838.177	0.15
838.469	0.16
838.761	0.16
839.053	0.16
839.345	0.16
839.637	0.16
839.929	0.16
840.221	0.16
840.513	0.17
840.805	0.16
841.096	0.16
841.388	0.16
841.68	0.16
841.971	0.17
842.262	0.17
842.554	0.16
842.845	0.17
843.136	0.18
843.427	0.17
843.718	0.16
844.009	0.17
844.3	0.17
844.591	0.17
844.882	0.17
845.173	0.17
845.463	0.18
845.754	0.17
846.044	0.16
846.335	0.17
846.625	0.16
846.915	0.17
847.206	0.17
847.496	0.18
847.786	0.18
848.076	0.18
848.366	0.18
848.656	0.18
848.945	0.18
849.235	0.18
849.525	0.18
849.814	0.18
850.104	0.17
850.393	0.17
850.683	0.18
850.972	0.18
851.261	0.18
851.551	0.19
851.84	0.19
852.129	0.18
852.418	0.18
852.707	0.19
852.995	0.19
853.284	0.19
853.573	0.18
853.862	0.19
854.15	0.2
854.439	0.19
854.727	0.19
855.015	0.19
855.304	0.19
855.592	0.18
855.88	0.19
856.168	0.2
856.456	0.19
856.744	0.2
857.032	0.19
857.32	0.19
857.607	0.21
857.895	0.21
858.183	0.19
858.47	0.2
858.757	0.18
859.045	0.18
859.332	0.18
859.619	0.19
859.907	0.2
860.194	0.2
860.481	0.2
860.768	0.19
861.054	0.2
861.341	0.18
861.628	0.2
861.915	0.21
862.201	0.19
862.488	0.19
862.774	0.18
863.061	0.21
863.347	0.22
863.633	0.21
863.919	0.17
864.205	0.19
864.491	0.2
864.777	0.21
865.063	0.2
865.349	0.22
865.635	0.21
865.92	0.2
866.206	0.2
866.492	0.16
866.777	0.2
867.062	0.19
867.348	0.21
867.633	0.21
867.918	0.22
868.203	0.22
868.488	0.21
868.773	0.21
869.058	0.19
869.343	0.25
869.628	0.2
869.912	0.15
870.197	0.2
870.482	0.24
870.766	0.2
871.05	0.18
871.335	0.16
871.619	0.18
871.903	0.17
872.187	0.21
872.471	0.17
872.755	0.22
873.039	0.14
873.323	0.2
873.607	0.24
873.89	0.22
874.174	0.13
874.458	0.11
874.741	0.16
875.024	0.21
875.308	0.07
875.591	0.14
875.874	0.21
876.157	0.14
876.44	0.19
876.723	0.22
877.006	0.24
877.289	0.2
877.572	0.29
877.854	0.17
878.137	0.22
878.42	0.15
878.702	0.22
878.984	0.26
879.267	0.19
879.549	0.39
879.831	0.38
880.113	0.17
880.395	0.17
880.677	0.26
880.959	0.25
