Data from Rubpy_BV_1800_EDTA_Buffered_Absorbance_16-40-59-579.txt Node
Date: Wed Jul 01 16:40:59 BST 2026
User: fpm-admin
Spectrometer: OFX00224
Trigger mode: 0
Integration Time (sec): 7.000000E-2
Scans to average: 3
Nonlinearity correction enabled: false
Boxcar width: 0
Storing dark spectrum: false
XAxis mode: Wavelengths
Number of Pixels in Spectrum: 2136
>>>>>Begin Spectral Data<<<<<
154.91	0.23
155.289	-0.16
155.669	0.92
156.048	-0
156.428	-0
156.807	0.27
157.186	-0
157.566	-0
157.945	-0.12
158.325	1.34
158.704	-0.04
159.083	-0.03
159.462	-0.51
159.842	-0
160.221	0.88
160.6	-0
160.979	-0
161.359	-0.18
161.738	-0
162.117	-0.18
162.496	-0.27
162.875	0.24
163.254	0.12
163.633	0.33
164.012	0.35
164.391	0.33
164.77	-0.05
165.149	-1.1
165.528	-0
165.907	-0
166.286	0.03
166.665	-0
167.044	-0
167.423	-0.04
167.802	-0.22
168.181	-0
168.559	-0.34
168.938	0.1
169.317	-0.23
169.696	-0
170.074	-0
170.453	-0
170.832	-1
171.21	0.54
171.589	-0.65
171.968	-0
172.346	-0.04
172.725	-0
173.103	0.03
173.482	0.31
173.861	-0.15
174.239	-0.28
174.617	1.2
174.996	0.72
175.374	-0
175.753	-0.37
176.131	0.28
176.51	-0.34
176.888	0.25
177.266	0.76
177.645	-0.02
178.023	0.06
178.401	-0.3
178.779	0.07
179.158	-0.25
179.536	0.35
179.914	-0
180.292	-0.06
180.67	0.43
181.048	-0.06
181.427	-0
181.805	0.7
182.183	-0
182.561	-0
182.939	-0
183.317	-0.04
183.695	-0.05
184.073	-0
184.451	-0.62
184.829	-0
185.206	-0.31
185.584	0.51
185.962	-0.03
186.34	-0
186.718	-0
187.096	-0
187.473	-0
187.851	0.2
188.229	-0.29
188.607	-0.01
188.984	-0.01
189.362	0.03
189.74	0.15
190.117	-0.04
190.495	-0.01
190.872	0.1
191.25	-0.07
191.627	-0.03
192.005	0.06
192.382	0.08
192.76	-0
193.137	0.04
193.515	0.05
193.892	0.04
194.269	-0.02
194.647	-0
195.024	0.03
195.401	0.11
195.779	-0.01
196.156	0.1
196.533	0.21
196.91	0.13
197.288	0.05
197.665	0.05
198.042	0.02
198.419	0.05
198.796	0.05
199.173	0.04
199.55	0.05
199.927	0.05
200.304	0.03
200.681	-0.06
201.058	-0.02
201.435	0.12
201.812	0.05
202.189	0.05
202.566	0.09
202.943	0.05
203.32	0.11
203.697	0.03
204.073	0.01
204.45	0.06
204.827	0.06
205.204	-0
205.58	0.07
205.957	0.12
206.334	0.07
206.71	0.03
207.087	0.05
207.464	-0.01
207.84	0.08
208.217	0.03
208.593	-0.12
208.97	0.07
209.346	0.14
209.723	0.04
210.099	0.12
210.476	0.13
210.852	0.08
211.228	0.07
211.605	0.18
211.981	0.08
212.357	0.14
212.733	0.03
213.11	0.12
213.486	0.16
213.862	0.09
214.238	0.04
214.614	0.04
214.991	0.14
215.367	0.09
215.743	0.09
216.119	0.09
216.495	0.19
216.871	0.06
217.247	0.08
217.623	0.03
217.999	0.12
218.375	0.1
218.751	0.06
219.127	0.07
219.502	-0.02
219.878	-0.04
220.254	0.12
220.63	0.07
221.006	0.07
221.381	0.08
221.757	0.11
222.133	0.09
222.508	0.08
222.884	0.01
223.26	0.02
223.635	0.09
224.011	0.01
224.386	0.01
224.762	0.14
225.137	0.09
225.513	-0.02
225.888	0.1
226.264	-0.05
226.639	0.07
227.014	0.13
227.39	0.01
227.765	0.05
228.14	0.05
228.516	0.01
228.891	0.01
229.266	0.02
229.641	-0.08
230.017	0.05
230.392	0.1
230.767	0.05
231.142	0.07
231.517	0.08
231.892	0.02
232.267	0.11
232.642	0.05
233.017	0.04
233.392	0.03
233.767	0.07
234.142	0.03
234.517	-0.05
234.892	0.09
235.267	0.03
235.641	0.04
236.016	0.06
236.391	-0.01
236.766	0.01
237.14	0.04
237.515	0.16
237.89	0.1
238.264	0.11
238.639	0.08
239.014	0.21
239.388	0.09
239.763	0.06
240.137	-0.06
240.512	0.01
240.886	0.06
241.261	-0.05
241.635	0.06
242.009	0.09
242.384	0.03
242.758	0.06
243.132	0.03
243.507	0.07
243.881	0.05
244.255	0.04
244.629	-0.05
245.004	0.01
245.378	0.08
245.752	-0.05
246.126	0.01
246.5	0.01
246.874	0.04
247.248	0.1
247.622	0.19
247.996	0.11
248.37	-0.01
248.744	0.02
249.118	-0.08
249.492	0.1
249.866	0.13
250.24	0.12
250.613	0.15
250.987	0.08
251.361	0.05
251.735	0.08
252.108	0.12
252.482	0.05
252.856	-0.01
253.229	0.08
253.603	0.05
253.977	0.14
254.35	0.09
254.724	0.11
255.097	0.05
255.471	0.08
255.844	-0.01
256.218	0.07
256.591	0.06
256.964	0.09
257.338	0.02
257.711	0.08
258.084	0.08
258.458	0.15
258.831	0.06
259.204	0.08
259.577	0.06
259.95	0.05
260.323	0.04
260.697	-0.04
261.07	0.01
261.443	0.17
261.816	0.1
262.189	0.08
262.562	0.05
262.935	0.04
263.308	0.03
263.68	0.02
264.053	0.16
264.426	0.13
264.799	0.12
265.172	0.04
265.545	0.04
265.917	0.1
266.29	0.06
266.663	0.11
267.035	0.09
267.408	0.09
267.781	0.09
268.153	0.09
268.526	0.06
268.898	0.1
269.271	0.05
269.643	0.03
270.016	0.17
270.388	0.04
270.76	0.11
271.133	0.07
271.505	0.07
271.877	-0.01
272.25	0.01
272.622	0.09
272.994	0.08
273.366	0.08
273.739	0.02
274.111	0.07
274.483	0.04
274.855	0.04
275.227	0.13
275.599	0.05
275.971	0.04
276.343	-0
276.715	0.05
277.087	0.1
277.459	0.09
277.831	0.02
278.203	0.09
278.574	0.07
278.946	0.05
279.318	0.11
279.69	0.13
280.061	0.06
280.433	0.08
280.805	0.07
281.176	0.1
281.548	0.08
281.92	0.08
282.291	0.03
282.663	0.19
283.034	0.04
283.406	0.11
283.777	0.17
284.148	0.07
284.52	0.13
284.891	0.09
285.262	0.06
285.634	0.08
286.005	0.05
286.376	0.08
286.747	0.01
287.119	0.11
287.49	0.09
287.861	0.05
288.232	0.03
288.603	0.15
288.974	0.02
289.345	0.09
289.716	0.11
290.087	0.08
290.458	0.06
290.829	0.07
291.2	0.03
291.571	0.13
291.941	-0
292.312	-0.01
292.683	0.06
293.054	0.04
293.424	0.02
293.795	0.06
294.166	0.06
294.536	0.01
294.907	0.03
295.277	0.06
295.648	0.14
296.018	0.08
296.389	-0.01
296.759	0.07
297.13	0.04
297.5	0.09
297.871	0.07
298.241	0.11
298.611	0.05
298.981	0.1
299.352	0.1
299.722	0.07
300.092	0.12
300.462	0.05
300.832	0.06
301.202	0.04
301.573	0.08
301.943	0.03
302.313	0.03
302.683	0.08
303.053	0.1
303.422	0.04
303.792	0.06
304.162	0.07
304.532	0.16
304.902	0.06
305.272	0.06
305.641	0.08
306.011	0.03
306.381	0.06
306.75	0.08
307.12	0.1
307.49	0.06
307.859	0.04
308.229	0.09
308.598	0.09
308.968	0.08
309.337	0.07
309.707	0.07
310.076	0.05
310.445	0.03
310.815	0.07
311.184	0.08
311.553	0.07
311.923	0.06
312.292	0.04
312.661	0.05
313.03	0.04
313.399	0.06
313.768	0.05
314.137	0.03
314.506	0.04
314.875	0.05
315.244	0.03
315.613	0.04
315.982	0.05
316.351	0.05
316.72	0.05
317.089	0.05
317.458	0.05
317.826	0.06
318.195	0.04
318.564	0.05
318.933	0.05
319.301	0.04
319.67	0.04
320.038	0.04
320.407	0.06
320.775	0.06
321.144	0.06
321.512	0.05
321.881	0.06
322.249	0.06
322.618	0.06
322.986	0.06
323.354	0.05
323.723	0.05
324.091	0.06
324.459	0.05
324.827	0.06
325.195	0.06
325.564	0.06
325.932	0.06
326.3	0.06
326.668	0.06
327.036	0.06
327.404	0.06
327.772	0.06
328.14	0.06
328.508	0.06
328.875	0.06
329.243	0.07
329.611	0.06
329.979	0.07
330.346	0.07
330.714	0.07
331.082	0.07
331.449	0.07
331.817	0.07
332.185	0.07
332.552	0.07
332.92	0.07
333.287	0.07
333.655	0.07
334.022	0.08
334.389	0.07
334.757	0.08
335.124	0.07
335.491	0.09
335.859	0.09
336.226	0.08
336.593	0.08
336.96	0.09
337.327	0.08
337.695	0.09
338.062	0.1
338.429	0.09
338.796	0.1
339.163	0.1
339.53	0.1
339.897	0.1
340.263	0.1
340.63	0.1
340.997	0.11
341.364	0.11
341.731	0.11
342.097	0.11
342.464	0.11
342.831	0.12
343.197	0.12
343.564	0.12
343.931	0.12
344.297	0.12
344.664	0.12
345.03	0.13
345.396	0.12
345.763	0.13
346.129	0.13
346.496	0.14
346.862	0.14
347.228	0.14
347.594	0.14
347.961	0.14
348.327	0.14
348.693	0.15
349.059	0.15
349.425	0.16
349.791	0.15
350.157	0.15
350.523	0.15
350.889	0.15
351.255	0.16
351.621	0.16
351.987	0.17
352.353	0.16
352.719	0.17
353.084	0.17
353.45	0.17
353.816	0.17
354.181	0.18
354.547	0.18
354.913	0.18
355.278	0.18
355.644	0.18
356.009	0.19
356.375	0.19
356.74	0.19
357.106	0.19
357.471	0.2
357.836	0.2
358.202	0.21
358.567	0.2
358.932	0.21
359.297	0.21
359.663	0.22
360.028	0.22
360.393	0.22
360.758	0.23
361.123	0.22
361.488	0.24
361.853	0.24
362.218	0.24
362.583	0.24
362.948	0.25
363.312	0.25
363.677	0.25
364.042	0.25
364.407	0.26
364.772	0.26
365.136	0.26
365.501	0.27
365.865	0.27
366.23	0.27
366.595	0.27
366.959	0.28
367.324	0.28
367.688	0.28
368.052	0.29
368.417	0.29
368.781	0.29
369.145	0.3
369.51	0.31
369.874	0.31
370.238	0.3
370.602	0.31
370.967	0.31
371.331	0.31
371.695	0.32
372.059	0.32
372.423	0.32
372.787	0.32
373.151	0.32
373.515	0.32
373.878	0.32
374.242	0.31
374.606	0.32
374.97	0.31
375.334	0.32
375.697	0.31
376.061	0.3
376.425	0.3
376.788	0.3
377.152	0.3
377.515	0.3
377.879	0.3
378.242	0.29
378.606	0.29
378.969	0.28
379.333	0.29
379.696	0.28
380.059	0.29
380.422	0.28
380.786	0.27
381.149	0.27
381.512	0.27
381.875	0.27
382.238	0.27
382.601	0.27
382.964	0.27
383.327	0.27
383.69	0.26
384.053	0.26
384.416	0.27
384.779	0.27
385.142	0.27
385.504	0.27
385.867	0.27
386.23	0.27
386.593	0.27
386.955	0.28
387.318	0.28
387.68	0.28
388.043	0.28
388.405	0.28
388.768	0.29
389.13	0.29
389.493	0.29
389.855	0.29
390.217	0.29
390.58	0.29
390.942	0.29
391.304	0.28
391.666	0.28
392.028	0.28
392.391	0.28
392.753	0.28
393.115	0.28
393.477	0.27
393.839	0.27
394.201	0.28
394.563	0.27
394.924	0.27
395.286	0.27
395.648	0.27
396.01	0.27
396.371	0.28
396.733	0.29
397.095	0.29
397.456	0.3
397.818	0.31
398.18	0.32
398.541	0.33
398.903	0.34
399.264	0.34
399.625	0.36
399.987	0.37
400.348	0.37
400.709	0.38
401.071	0.38
401.432	0.39
401.793	0.39
402.154	0.38
402.515	0.37
402.876	0.37
403.238	0.36
403.599	0.35
403.96	0.34
404.32	0.33
404.681	0.32
405.042	0.3
405.403	0.29
405.764	0.28
406.125	0.26
406.485	0.25
406.846	0.23
407.207	0.21
407.567	0.21
407.928	0.2
408.288	0.19
408.649	0.17
409.009	0.16
409.37	0.15
409.73	0.15
410.091	0.13
410.451	0.13
410.811	0.12
411.171	0.11
411.532	0.11
411.892	0.1
412.252	0.1
412.612	0.09
412.972	0.09
413.332	0.08
413.692	0.08
414.052	0.08
414.412	0.07
414.772	0.07
415.132	0.07
415.492	0.07
415.851	0.06
416.211	0.06
416.571	0.06
416.931	0.06
417.29	0.05
417.65	0.05
418.009	0.05
418.369	0.05
418.728	0.06
419.088	0.05
419.447	0.05
419.807	0.05
420.166	0.04
420.525	0.04
420.884	0.04
421.244	0.04
421.603	0.04
421.962	0.04
422.321	0.04
422.68	0.05
423.039	0.03
423.398	0.03
423.757	0.03
424.116	0.04
424.475	0.04
424.834	0.03
425.193	0.04
425.551	0.04
425.91	0.04
426.269	0.03
426.628	0.03
426.986	0.03
427.345	0.02
427.703	0.03
428.062	0.03
428.42	0.03
428.779	0.03
429.137	0.04
429.496	0.03
429.854	0.03
430.212	0.03
430.57	0.03
430.929	0.02
431.287	0.03
431.645	0.02
432.003	0.03
432.361	0.02
432.719	0.03
433.077	0.02
433.435	0.03
433.793	0.03
434.151	0.03
434.509	0.03
434.866	0.03
435.224	0.02
435.582	0.03
435.94	0.02
436.297	0.03
436.655	0.03
437.012	0.02
437.37	0.02
437.727	0.02
438.085	0.02
438.442	0.02
438.8	0.03
439.157	0.02
439.514	0.02
439.872	0.02
440.229	0.03
440.586	0.02
440.943	0.03
441.3	0.02
441.657	0.03
442.014	0.02
442.371	0.02
442.728	0.02
443.085	0.03
443.442	0.01
443.799	0.02
444.156	0.02
444.513	0.02
444.869	0.01
445.226	0.02
445.583	0.02
445.939	0.02
446.296	0.01
446.652	0.01
447.009	0.01
447.365	0.02
447.722	0.01
448.078	0.01
448.434	0.02
448.791	0.02
449.147	0.01
449.503	0
449.859	0
450.215	0
450.571	0.01
450.928	0.01
451.284	0.01
451.64	0.01
451.995	0.01
452.351	0.01
452.707	0
453.063	0
453.419	0
453.775	-0
454.13	-0.01
454.486	-0
454.842	-0.01
455.197	-0.01
455.553	-0.02
455.908	-0.02
456.264	-0.02
456.619	-0.02
456.975	-0.02
457.33	-0.02
457.685	-0.03
458.04	-0.03
458.396	-0.03
458.751	-0.04
459.106	-0.04
459.461	-0.04
459.816	-0.04
460.171	-0.05
460.526	-0.04
460.881	-0.05
461.236	-0.05
461.591	-0.06
461.946	-0.06
462.301	-0.06
462.655	-0.07
463.01	-0.07
463.365	-0.08
463.719	-0.08
464.074	-0.09
464.428	-0.09
464.783	-0.1
465.137	-0.09
465.492	-0.1
465.846	-0.09
466.201	-0.1
466.555	-0.09
466.909	-0.09
467.263	-0.09
467.618	-0.09
467.972	-0.09
468.326	-0.1
468.68	-0.1
469.034	-0.1
469.388	-0.1
469.742	-0.1
470.096	-0.1
470.45	-0.1
470.804	-0.09
471.157	-0.1
471.511	-0.1
471.865	-0.1
472.218	-0.09
472.572	-0.09
472.926	-0.09
473.279	-0.08
473.633	-0.08
473.986	-0.07
474.34	-0.07
474.693	-0.07
475.046	-0.06
475.4	-0.05
475.753	-0.05
476.106	-0.05
476.459	-0.05
476.812	-0.03
477.165	-0.03
477.519	-0.03
477.872	-0.02
478.224	-0.02
478.577	-0.02
478.93	-0.01
479.283	-0.01
479.636	-0.01
479.989	-0
480.341	-0
480.694	-0
481.047	0
481.399	0.01
481.752	0.01
482.104	0.01
482.457	0.01
482.809	0.02
483.162	0.01
483.514	0.02
483.866	0.02
484.219	0.02
484.571	0.02
484.923	0.02
485.275	0.03
485.627	0.02
485.979	0.03
486.331	0.03
486.683	0.03
487.035	0.04
487.387	0.04
487.739	0.04
488.091	0.04
488.443	0.04
488.794	0.04
489.146	0.04
489.498	0.04
489.849	0.05
490.201	0.05
490.552	0.04
490.904	0.04
491.255	0.05
491.607	0.05
491.958	0.05
492.309	0.05
492.661	0.05
493.012	0.05
493.363	0.05
493.714	0.05
494.065	0.05
494.416	0.06
494.767	0.06
495.118	0.06
495.469	0.06
495.82	0.06
496.171	0.06
496.522	0.06
496.872	0.06
497.223	0.06
497.574	0.06
497.924	0.07
498.275	0.07
498.626	0.07
498.976	0.07
499.327	0.07
499.677	0.07
500.027	0.07
500.378	0.07
500.728	0.07
501.078	0.07
501.428	0.07
501.779	0.07
502.129	0.07
502.479	0.07
502.829	0.08
503.179	0.08
503.529	0.08
503.879	0.08
504.229	0.08
504.578	0.08
504.928	0.08
505.278	0.08
505.628	0.08
505.977	0.09
506.327	0.08
506.676	0.09
507.026	0.09
507.375	0.09
507.725	0.09
508.074	0.09
508.424	0.09
508.773	0.09
509.122	0.09
509.471	0.09
509.82	0.09
510.17	0.09
510.519	0.09
510.868	0.09
511.217	0.09
511.566	0.1
511.915	0.09
512.263	0.09
512.612	0.09
512.961	0.1
513.31	0.1
513.659	0.09
514.007	0.1
514.356	0.1
514.704	0.1
515.053	0.1
515.401	0.1
515.75	0.1
516.098	0.11
516.447	0.1
516.795	0.1
517.143	0.1
517.491	0.1
517.839	0.11
518.188	0.1
518.536	0.11
518.884	0.11
519.232	0.1
519.58	0.11
519.928	0.11
520.275	0.11
520.623	0.11
520.971	0.11
521.319	0.11
521.666	0.12
522.014	0.11
522.362	0.11
522.709	0.11
523.057	0.11
523.404	0.12
523.752	0.12
524.099	0.11
524.446	0.12
524.794	0.12
525.141	0.12
525.488	0.12
525.835	0.12
526.182	0.12
526.529	0.12
526.876	0.12
527.223	0.12
527.57	0.12
527.917	0.12
528.264	0.12
528.611	0.12
528.958	0.12
529.304	0.12
529.651	0.12
529.998	0.13
530.344	0.12
530.691	0.13
531.037	0.12
531.384	0.13
531.73	0.13
532.076	0.13
532.423	0.13
532.769	0.13
533.115	0.13
533.461	0.13
533.807	0.13
534.154	0.13
534.5	0.13
534.846	0.13
535.192	0.13
535.537	0.13
535.883	0.13
536.229	0.13
536.575	0.13
536.921	0.14
537.266	0.14
537.612	0.13
537.957	0.13
538.303	0.14
538.649	0.14
538.994	0.14
539.339	0.14
539.685	0.13
540.03	0.14
540.375	0.14
540.721	0.14
541.066	0.14
541.411	0.14
541.756	0.14
542.101	0.14
542.446	0.14
542.791	0.14
543.136	0.14
543.481	0.14
543.825	0.14
544.17	0.14
544.515	0.14
544.86	0.14
545.204	0.15
545.549	0.14
545.893	0.15
546.238	0.15
546.582	0.14
546.927	0.15
547.271	0.15
547.615	0.15
547.96	0.15
548.304	0.14
548.648	0.15
548.992	0.15
549.336	0.15
549.68	0.15
550.024	0.15
550.368	0.15
550.712	0.15
551.056	0.15
551.4	0.15
551.743	0.15
552.087	0.15
552.431	0.15
552.774	0.15
553.118	0.14
553.462	0.15
553.805	0.15
554.148	0.15
554.492	0.15
554.835	0.15
555.178	0.15
555.522	0.15
555.865	0.15
556.208	0.15
556.551	0.15
556.894	0.15
557.237	0.15
557.58	0.15
557.923	0.15
558.266	0.15
558.609	0.15
558.952	0.15
559.294	0.15
559.637	0.15
559.98	0.15
560.322	0.15
560.665	0.15
561.007	0.15
561.35	0.15
561.692	0.15
562.034	0.16
562.377	0.15
562.719	0.15
563.061	0.15
563.403	0.15
563.745	0.15
564.088	0.15
564.43	0.15
564.772	0.15
565.113	0.15
565.455	0.15
565.797	0.15
566.139	0.15
566.481	0.16
566.822	0.15
567.164	0.15
567.506	0.15
567.847	0.16
568.189	0.15
568.53	0.15
568.872	0.15
569.213	0.15
569.554	0.15
569.895	0.15
570.237	0.15
570.578	0.15
570.919	0.15
571.26	0.15
571.601	0.15
571.942	0.15
572.283	0.15
572.624	0.15
572.965	0.15
573.306	0.15
573.646	0.15
573.987	0.15
574.328	0.15
574.668	0.14
575.009	0.14
575.349	0.15
575.69	0.14
576.03	0.14
576.37	0.14
576.711	0.14
577.051	0.14
577.391	0.14
577.731	0.14
578.072	0.14
578.412	0.14
578.752	0.14
579.092	0.14
579.431	0.14
579.771	0.12
580.111	0.12
580.451	0.14
580.791	0.14
581.13	0.14
581.47	0.14
581.81	0.14
582.149	0.14
582.489	0.14
582.828	0.13
583.167	0.12
583.507	0.09
583.846	0.09
584.185	0.12
584.525	0.13
584.864	0.14
585.203	0.14
585.542	0.15
585.881	0.14
586.22	0.14
586.559	0.14
586.898	0.13
587.236	0.13
587.575	0.13
587.914	0.14
588.252	0.14
588.591	0.14
588.93	0.14
589.268	0.14
589.607	0.14
589.945	0.14
590.283	0.14
590.622	0.14
590.96	0.14
591.298	0.15
591.636	0.14
591.974	0.15
592.313	0.15
592.651	0.15
592.989	0.15
593.326	0.15
593.664	0.15
594.002	0.15
594.34	0.15
594.678	0.14
595.015	0.14
595.353	0.14
595.691	0.14
596.028	0.15
596.366	0.15
596.703	0.15
597.04	0.15
597.378	0.15
597.715	0.15
598.052	0.15
598.389	0.15
598.726	0.15
599.064	0.15
599.401	0.15
599.738	0.15
600.074	0.15
600.411	0.15
600.748	0.15
601.085	0.15
601.422	0.15
601.758	0.14
602.095	0.14
602.432	0.15
602.768	0.15
603.105	0.15
603.441	0.15
603.777	0.15
604.114	0.15
604.45	0.15
604.786	0.15
605.122	0.15
605.459	0.15
605.795	0.15
606.131	0.15
606.467	0.15
606.803	0.15
607.139	0.15
607.474	0.15
607.81	0.15
608.146	0.15
608.482	0.15
608.817	0.15
609.153	0.14
609.488	0.15
609.824	0.15
610.159	0.15
610.495	0.15
610.83	0.15
611.165	0.15
611.5	0.14
611.836	0.14
612.171	0.15
612.506	0.15
612.841	0.15
613.176	0.14
613.511	0.14
613.845	0.14
614.18	0.14
614.515	0.14
614.85	0.14
615.184	0.14
615.519	0.14
615.854	0.14
616.188	0.14
616.523	0.14
616.857	0.14
617.191	0.14
617.526	0.14
617.86	0.14
618.194	0.14
618.528	0.14
618.862	0.14
619.196	0.14
619.53	0.14
619.864	0.14
620.198	0.14
620.532	0.14
620.866	0.14
621.2	0.14
621.533	0.13
621.867	0.14
622.201	0.13
622.534	0.13
622.868	0.13
623.201	0.13
623.534	0.13
623.868	0.13
624.201	0.13
624.534	0.13
624.868	0.13
625.201	0.13
625.534	0.13
625.867	0.13
626.2	0.13
626.533	0.13
626.865	0.12
627.198	0.13
627.531	0.13
627.864	0.13
628.196	0.13
628.529	0.13
628.862	0.13
629.194	0.12
629.527	0.12
629.859	0.12
630.191	0.12
630.524	0.12
630.856	0.12
631.188	0.12
631.52	0.12
631.852	0.12
632.184	0.12
632.516	0.12
632.848	0.11
633.18	0.11
633.512	0.11
633.844	0.11
634.175	0.12
634.507	0.11
634.839	0.11
635.17	0.11
635.502	0.11
635.833	0.11
636.165	0.11
636.496	0.11
636.827	0.1
637.159	0.11
637.49	0.11
637.821	0.11
638.152	0.11
638.483	0.1
638.814	0.1
639.145	0.1
639.476	0.1
639.807	0.1
640.137	0.1
640.468	0.1
640.799	0.1
641.129	0.1
641.46	0.1
641.791	0.09
642.121	0.1
642.451	0.1
642.782	0.1
643.112	0.09
643.442	0.09
643.773	0.09
644.103	0.1
644.433	0.09
644.763	0.09
645.093	0.09
645.423	0.09
645.753	0.09
646.082	0.09
646.412	0.09
646.742	0.09
647.072	0.09
647.401	0.09
647.731	0.09
648.06	0.09
648.39	0.09
648.719	0.09
649.048	0.09
649.378	0.09
649.707	0.09
650.036	0.09
650.365	0.08
650.694	0.08
651.023	0.08
651.352	0.08
651.681	0.09
652.01	0.09
652.339	0.08
652.668	0.08
652.996	0.08
653.325	0.09
653.654	0.09
653.982	0.08
654.311	0.08
654.639	0.08
654.967	0.08
655.296	0.08
655.624	0.08
655.952	0.09
656.28	0.08
656.609	0.08
656.937	0.08
657.265	0.08
657.593	0
657.92	0
658.248	0
658.576	0
658.904	0.03
659.231	0.08
659.559	0.08
659.887	0.08
660.214	0.08
660.542	0.08
660.869	0.08
661.196	0.08
661.524	0.08
661.851	0.08
662.178	0.08
662.505	0.08
662.832	0.08
663.159	0.08
663.486	0.08
663.813	0.08
664.14	0.08
664.467	0.08
664.794	0.08
665.12	0.08
665.447	0.08
665.774	0.08
666.1	0.08
666.427	0.08
666.753	0.08
667.079	0.07
667.406	0.07
667.732	0.07
668.058	0.07
668.384	0.07
668.71	0.07
669.036	0.07
669.362	0.07
669.688	0.07
670.014	0.07
670.34	0.07
670.666	0.07
670.991	0.07
671.317	0.07
671.643	0.07
671.968	0.07
672.294	0.07
672.619	0.07
672.945	0.07
673.27	0.06
673.595	0.06
673.92	0.06
674.246	0.07
674.571	0.06
674.896	0.07
675.221	0.06
675.546	0.06
675.87	0.06
676.195	0.06
676.52	0.06
676.845	0.06
677.169	0.06
677.494	0.06
677.819	0.06
678.143	0.06
678.468	0.06
678.792	0.06
679.116	0.06
679.44	0.06
679.765	0.05
680.089	0.06
680.413	0.05
680.737	0.06
681.061	0.05
681.385	0.05
681.709	0.05
682.033	0.05
682.356	0.05
682.68	0.05
683.004	0.05
683.327	0.05
683.651	0.05
683.974	0.05
684.298	0.05
684.621	0.05
684.944	0.05
685.268	0.05
685.591	0.04
685.914	0.04
686.237	0.04
686.56	0.04
686.883	0.04
687.206	0.04
687.529	0.04
687.852	0.04
688.175	0.04
688.497	0.04
688.82	0.04
689.142	0.04
689.465	0.04
689.787	0.04
690.11	0.04
690.432	0.04
690.755	0.04
691.077	0.04
691.399	0.04
691.721	0.04
692.043	0.04
692.365	0.03
692.687	0.03
693.009	0.03
693.331	0.03
693.653	0.03
693.974	0.03
694.296	0.03
694.618	0.03
694.939	0.03
695.261	0.03
695.582	0.03
695.904	0.03
696.225	0.03
696.546	0.03
696.868	0.03
697.189	0.03
697.51	0.03
697.831	0.03
698.152	0.03
698.473	0.03
698.794	0.03
699.114	0.03
699.435	0.02
699.756	0.03
700.077	0.03
700.397	0.03
700.718	0.03
701.038	0.03
701.359	0.02
701.679	0.03
701.999	0.03
702.32	0.03
702.64	0.03
702.96	0.03
703.28	0.03
703.6	0.03
703.92	0.03
704.24	0.03
704.56	0.02
704.879	0.02
705.199	0.03
705.519	0.03
705.838	0.02
706.158	0.02
706.478	0.03
706.797	0.03
707.116	0.02
707.436	0.03
707.755	0.02
708.074	0.02
708.393	0.02
708.712	0.02
709.031	0.02
709.35	0.02
709.669	0.02
709.988	0.02
710.307	0.02
710.626	0.02
710.944	0.02
711.263	0.02
711.582	0.02
711.9	0.02
712.219	0.02
712.537	0.02
712.855	0.02
713.174	0.02
713.492	0.02
713.81	0.02
714.128	0.02
714.446	0.02
714.764	0.02
715.082	0.02
715.4	0.02
715.718	0.02
716.035	0.02
716.353	0.02
716.671	0.02
716.988	0.02
717.306	0.02
717.623	0.03
717.941	0.02
718.258	0.02
718.575	0.03
718.893	0.03
719.21	0.02
719.527	0.02
719.844	0.02
720.161	0.03
720.478	0.03
720.795	0.03
721.112	0.03
721.428	0.03
721.745	0.03
722.062	0.03
722.378	0.03
722.695	0.02
723.011	0.02
723.328	0.03
723.644	0.03
723.96	0.03
724.276	0.03
724.593	0.03
724.909	0.03
725.225	0.03
725.541	0.03
725.857	0.03
726.173	0.03
726.488	0.03
726.804	0.03
727.12	0.03
727.435	0.03
727.751	0.03
728.067	0.02
728.382	0.02
728.697	0.03
729.013	0.03
729.328	0.02
729.643	0.02
729.958	0.03
730.273	0.03
730.588	0.02
730.903	0.03
731.218	0.02
731.533	0.02
731.848	0.02
732.163	0.02
732.477	0.02
732.792	0.02
733.107	0.02
733.421	0.02
733.736	0.02
734.05	0.02
734.364	0.02
734.678	0.02
734.993	0.02
735.307	0.02
735.621	0.02
735.935	0.02
736.249	0.02
736.563	0.02
736.877	0.02
737.19	0.02
737.504	0.02
737.818	0.03
738.131	0.02
738.445	0.02
738.758	0.03
739.072	0.03
739.385	0.02
739.698	0.02
740.012	0.02
740.325	0.02
740.638	0.02
740.951	0.02
741.264	0.02
741.577	0.02
741.89	0.02
742.203	0.02
742.515	0.02
742.828	0.02
743.141	0.02
743.453	0.02
743.766	0.02
744.078	0.02
744.391	0.02
744.703	0.02
745.015	0.02
745.327	0.02
745.639	0.02
745.952	0.02
746.264	0.02
746.575	0.02
746.887	0.02
747.199	0.02
747.511	0.02
747.823	0.02
748.134	0.02
748.446	0.02
748.757	0.02
749.069	0.02
749.38	0.02
749.692	0.01
750.003	0.02
750.314	0.02
750.625	0.02
750.936	0.01
751.248	0.01
751.559	0.02
751.869	0.01
752.18	0.02
752.491	0.01
752.802	0.02
753.112	0.01
753.423	0.02
753.734	0.01
754.044	0.01
754.355	0.01
754.665	0.01
754.975	0.01
755.285	0.01
755.596	0.01
755.906	0.01
756.216	0.01
756.526	0.01
756.836	0.01
757.146	0.01
757.455	0.01
757.765	0.01
758.075	0.01
758.385	0.01
758.694	0.01
759.004	0.01
759.313	0.01
759.622	0.01
759.932	0.01
760.241	0.01
760.55	0.01
760.859	0.01
761.168	0.01
761.477	0.01
761.786	0.01
762.095	0.01
762.404	0.01
762.713	0.01
763.021	0.01
763.33	0.01
763.639	0.01
763.947	0.01
764.256	0.01
764.564	0.01
764.872	0.01
765.181	0.01
765.489	0.01
765.797	0.01
766.105	0.01
766.413	0.01
766.721	0.01
767.029	0.01
767.337	0.01
767.644	0.01
767.952	0.01
768.26	0.01
768.567	0.01
768.875	0.01
769.182	0.01
769.49	0.01
769.797	0.01
770.104	0.01
770.411	0.01
770.718	0.01
771.026	0.01
771.333	0.01
771.639	0.01
771.946	0.01
772.253	0.01
772.56	0.01
772.867	0.01
773.173	0.01
773.48	0.01
773.786	0.01
774.093	0.01
774.399	0.01
774.705	0.01
775.012	0.01
775.318	0.01
775.624	0.01
775.93	0.01
776.236	0
776.542	0.01
776.848	0.01
777.154	0.01
777.459	0.01
777.765	0.01
778.071	0.01
778.376	0.01
778.682	0.01
778.987	0
779.292	0.01
779.598	0
779.903	0.01
780.208	0.01
780.513	0.01
780.818	0.01
781.123	0.01
781.428	0.01
781.733	0.01
782.038	0.01
782.343	0.01
782.647	0.01
782.952	0.01
783.256	0.01
783.561	0.01
783.865	0.01
784.17	0.01
784.474	0.01
784.778	0.01
785.082	0.01
785.386	0.01
785.69	0
785.994	0.01
786.298	0.01
786.602	0.01
786.906	0.01
787.209	0.01
787.513	0.01
787.817	0
788.12	0.01
788.424	0.01
788.727	0.01
789.03	0
789.333	0.01
789.637	0.01
789.94	0.01
790.243	0
790.546	0.01
790.849	0.01
791.152	0.01
791.454	0
791.757	0
792.06	0
792.362	0.01
792.665	0.01
792.967	0.01
793.27	0.01
793.572	0.01
793.874	0.01
794.177	0.01
794.479	0.01
794.781	0.01
795.083	0
795.385	0.01
795.687	0.01
795.989	0.01
796.29	0
796.592	0.01
796.894	0.01
797.195	0.01
797.497	0.01
797.798	0.01
798.1	0.01
798.401	0.01
798.702	0.01
799.003	0.01
799.304	0.01
799.605	0.01
799.906	0.01
800.207	0.01
800.508	0.01
800.809	0.01
801.11	0.01
801.41	0.01
801.711	0.01
802.011	0.01
802.312	0.01
802.612	0.01
802.913	0.01
803.213	0.01
803.513	0.01
803.813	0.01
804.113	0.01
804.413	0.01
804.713	0.01
805.013	0.01
805.313	0.01
805.613	0.01
805.912	0.01
806.212	0.01
806.511	0.01
806.811	0.01
807.11	0.01
807.41	0.01
807.709	0.01
808.008	0.01
808.307	0.01
808.606	0.01
808.905	0.01
809.204	0.01
809.503	0.01
809.802	0.01
810.101	0.01
810.399	0.01
810.698	0.01
810.997	0.01
811.295	0.01
811.593	0.01
811.892	0.01
812.19	0.01
812.488	0.01
812.786	0.01
813.084	0.01
813.383	0.01
813.68	0.01
813.978	0.01
814.276	0.01
814.574	0.01
814.872	0.01
815.169	0.01
815.467	0.01
815.764	0.01
816.062	0.01
816.359	0.01
816.656	0.01
816.954	0.01
817.251	0.01
817.548	0.01
817.845	0.01
818.142	0.01
818.439	0.01
818.735	0.01
819.032	0.01
819.329	0.01
819.626	0.01
819.922	0.01
820.219	0.01
820.515	0.01
820.811	0.01
821.108	0.01
821.404	0.01
821.7	0.01
821.996	0.01
822.292	0.01
822.588	0.01
822.884	0.01
823.18	0.02
823.475	0.01
823.771	0.01
824.067	0.01
824.362	0.01
824.658	0.01
824.953	0.01
825.249	0.01
825.544	0.01
825.839	0.01
826.134	0.01
826.429	0.01
826.724	0.01
827.019	0.01
827.314	0.01
827.609	0.01
827.904	0.01
828.198	0.01
828.493	0.01
828.787	0.01
829.082	0.01
829.376	0
829.671	0.01
829.965	0.01
830.259	0.01
830.553	0.01
830.847	0.01
831.141	0.01
831.435	0.01
831.729	0.01
832.023	0.02
832.317	0.01
832.61	0.01
832.904	0.02
833.197	0.01
833.491	0.01
833.784	0.02
834.077	0.02
834.371	0.01
834.664	0.01
834.957	0.01
835.25	0.01
835.543	0.01
835.836	0.01
836.129	0.01
836.421	0.02
836.714	0.01
837.007	0.01
837.299	0.01
837.592	0.01
837.884	0
838.177	0
838.469	0.02
838.761	0.01
839.053	0
839.345	0.01
839.637	0.02
839.929	0.01
840.221	0.01
840.513	0.01
840.805	0.01
841.096	0.01
841.388	0.01
841.68	0.01
841.971	0
842.262	0.01
842.554	0.01
842.845	0.01
843.136	0.02
843.427	0.01
843.718	0.01
844.009	0.01
844.3	0.01
844.591	0.01
844.882	0.01
845.173	0.01
845.463	0.02
845.754	0.01
846.044	0.01
846.335	0
846.625	0.01
846.915	0.01
847.206	0.02
847.496	0.01
847.786	0.01
848.076	0.02
848.366	0.01
848.656	0.02
848.945	0.02
849.235	0.01
849.525	0.01
849.814	0.01
850.104	0.01
850.393	0.01
850.683	0.02
850.972	0.01
851.261	0.01
851.551	0.02
851.84	0.01
852.129	0.01
852.418	0.01
852.707	0.01
852.995	0.01
853.284	0.02
853.573	0.02
853.862	0.01
854.15	0.03
854.439	0.02
854.727	0.02
855.015	0.02
855.304	0.02
855.592	0.01
855.88	0.02
856.168	0.02
856.456	0.02
856.744	0.01
857.032	0.01
857.32	0.02
857.607	0.02
857.895	0.02
858.183	0.02
858.47	0.03
858.757	0.01
859.045	0.02
859.332	0
859.619	0.02
859.907	0.02
860.194	0.02
860.481	0.02
860.768	-0
861.054	0.03
861.341	0.01
861.628	0.02
861.915	0.02
862.201	0.01
862.488	-0
862.774	0.01
863.061	0.02
863.347	0.02
863.633	0.03
863.919	0
864.205	0.02
864.491	0.01
864.777	0.03
865.063	0.02
865.349	0
865.635	0.01
865.92	-0.01
866.206	-0.02
866.492	-0.02
866.777	0.01
867.062	-0.01
867.348	0
867.633	0.02
867.918	0.02
868.203	0.04
868.488	0
868.773	0.02
869.058	-0.01
869.343	0.07
869.628	0
869.912	0.02
870.197	0.06
870.482	0.06
870.766	-0.02
871.05	0.01
871.335	0.01
871.619	-0.04
871.903	-0.01
872.187	-0.03
872.471	0.01
872.755	0.04
873.039	0.02
873.323	-0.03
873.607	-0.02
873.89	0
874.174	-0.05
874.458	0.01
874.741	-0.04
875.024	-0
875.308	-0.03
875.591	-0.04
875.874	0.02
876.157	-0.03
876.44	-0.02
876.723	-0.05
877.006	0.05
877.289	0.01
877.572	0.08
877.854	0.01
878.137	0.05
878.42	0.01
878.702	0.06
878.984	-0.04
879.267	-0.05
879.549	0.02
879.831	-0.06
880.113	0.04
880.395	-0.03
880.677	-0.03
880.959	-0.07
