Data from Rubpy_BV_1800_EDTA_Buffered_Absorbance_16-48-00-560.txt Node
Date: Wed Jul 01 16:48:00 BST 2026
User: fpm-admin
Spectrometer: OFX00224
Trigger mode: 0
Integration Time (sec): 7.000000E-2
Scans to average: 3
Nonlinearity correction enabled: false
Boxcar width: 0
Storing dark spectrum: false
XAxis mode: Wavelengths
Number of Pixels in Spectrum: 2136
>>>>>Begin Spectral Data<<<<<
154.91	0.21
155.289	-0.26
155.669	0.23
156.048	-0
156.428	-0
156.807	0.17
157.186	-1.45
157.566	-0
157.945	-0
158.325	-0.3
158.704	0.2
159.083	0.35
159.462	-0
159.842	-0
160.221	-0
160.6	-0
160.979	0.33
161.359	0.12
161.738	-0
162.117	-0
162.496	1.41
162.875	-0.51
163.254	-0.09
163.633	0.33
164.012	1.16
164.391	0.21
164.77	0.12
165.149	-0.88
165.528	-0
165.907	1.02
166.286	0.2
166.665	-0
167.044	-0.21
167.423	0.05
167.802	-0
168.181	-0
168.559	-0
168.938	0.92
169.317	-0
169.696	-0
170.074	-0
170.453	0.26
170.832	-0
171.21	-0.03
171.589	-0
171.968	0.42
172.346	-0
172.725	-0
173.103	-0.22
173.482	0.15
173.861	1
174.239	-0.45
174.617	-0.03
174.996	0.21
175.374	-0.5
175.753	0.3
176.131	0.32
176.51	-0.36
176.888	-0
177.266	-0
177.645	-0.05
178.023	-0
178.401	-0.14
178.779	-0.1
179.158	0.68
179.536	-0
179.914	0.65
180.292	0.17
180.67	-0.33
181.048	-0
181.427	-0.4
181.805	0.22
182.183	-0.15
182.561	0.52
182.939	-0.08
183.317	-0.04
183.695	1.13
184.073	-0
184.451	0.1
184.829	-0
185.206	-0.16
185.584	-0
185.962	-0
186.34	-0.16
186.718	-0.05
187.096	-0.1
187.473	-0.43
187.851	-0
188.229	-0.11
188.607	0.11
188.984	0.2
189.362	0.15
189.74	0.38
190.117	0.22
190.495	0.18
190.872	0.19
191.25	0.29
191.627	0.26
192.005	0.3
192.382	0.36
192.76	0.39
193.137	0.32
193.515	0.32
193.892	0.23
194.269	0.37
194.647	0.21
195.024	0.29
195.401	0.34
195.779	0.26
196.156	0.34
196.533	0.29
196.91	0.27
197.288	0.36
197.665	0.22
198.042	0.26
198.419	0.16
198.796	0.15
199.173	0.34
199.55	0.31
199.927	0.32
200.304	0.22
200.681	0.26
201.058	0.15
201.435	0.3
201.812	0.17
202.189	0.16
202.566	0.4
202.943	0.24
203.32	0.26
203.697	0.28
204.073	0.18
204.45	0.29
204.827	0.29
205.204	0.25
205.58	0.42
205.957	0.38
206.334	0.3
206.71	0.33
207.087	0.27
207.464	0.24
207.84	0.43
208.217	0.35
208.593	0.2
208.97	0.25
209.346	0.47
209.723	0.27
210.099	0.31
210.476	0.16
210.852	0.29
211.228	0.26
211.605	0.35
211.981	0.32
212.357	0.33
212.733	0.47
213.11	0.26
213.486	0.3
213.862	0.24
214.238	0.31
214.614	0.32
214.991	0.36
215.367	0.4
215.743	0.23
216.119	0.25
216.495	0.43
216.871	0.34
217.247	0.27
217.623	0.32
217.999	0.53
218.375	0.37
218.751	0.2
219.127	0.25
219.502	0.21
219.878	0.23
220.254	0.36
220.63	0.26
221.006	0.26
221.381	0.33
221.757	0.27
222.133	0.29
222.508	0.36
222.884	0.37
223.26	0.29
223.635	0.33
224.011	0.34
224.386	0.28
224.762	0.38
225.137	0.27
225.513	0.25
225.888	0.37
226.264	0.34
226.639	0.2
227.014	0.29
227.39	0.25
227.765	0.47
228.14	0.34
228.516	0.57
228.891	0.27
229.266	0.3
229.641	0.22
230.017	0.31
230.392	0.32
230.767	0.42
231.142	0.29
231.517	0.28
231.892	0.42
232.267	0.31
232.642	0.25
233.017	0.39
233.392	0.38
233.767	0.3
234.142	0.24
234.517	0.32
234.892	0.25
235.267	0.34
235.641	0.27
236.016	0.29
236.391	0.3
236.766	0.3
237.14	0.4
237.515	0.4
237.89	0.31
238.264	0.45
238.639	0.25
239.014	0.48
239.388	0.29
239.763	0.26
240.137	0.3
240.512	0.31
240.886	0.3
241.261	0.28
241.635	0.42
242.009	0.24
242.384	0.3
242.758	0.29
243.132	0.33
243.507	0.37
243.881	0.31
244.255	0.45
244.629	0.3
245.004	0.4
245.378	0.41
245.752	0.22
246.126	0.27
246.5	0.36
246.874	0.38
247.248	0.29
247.622	0.42
247.996	0.32
248.37	0.31
248.744	0.24
249.118	0.32
249.492	0.29
249.866	0.3
250.24	0.44
250.613	0.5
250.987	0.33
251.361	0.31
251.735	0.45
252.108	0.27
252.482	0.33
252.856	0.16
253.229	0.39
253.603	0.24
253.977	0.3
254.35	0.31
254.724	0.34
255.097	0.24
255.471	0.24
255.844	0.34
256.218	0.36
256.591	0.28
256.964	0.45
257.338	0.28
257.711	0.33
258.084	0.42
258.458	0.51
258.831	0.26
259.204	0.3
259.577	0.3
259.95	0.45
260.323	0.26
260.697	0.16
261.07	0.19
261.443	0.37
261.816	0.31
262.189	0.4
262.562	0.34
262.935	0.34
263.308	0.27
263.68	0.34
264.053	0.4
264.426	0.38
264.799	0.29
265.172	0.38
265.545	0.25
265.917	0.33
266.29	0.53
266.663	0.28
267.035	0.36
267.408	0.31
267.781	0.3
268.153	0.19
268.526	0.26
268.898	0.36
269.271	0.36
269.643	0.33
270.016	0.4
270.388	0.28
270.76	0.38
271.133	0.27
271.505	0.42
271.877	0.2
272.25	0.25
272.622	0.26
272.994	0.29
273.366	0.4
273.739	0.37
274.111	0.32
274.483	0.22
274.855	0.36
275.227	0.41
275.599	0.29
275.971	0.29
276.343	0.39
276.715	0.28
277.087	0.34
277.459	0.49
277.831	0.32
278.203	0.4
278.574	0.28
278.946	0.15
279.318	0.2
279.69	0.28
280.061	0.39
280.433	0.29
280.805	0.31
281.176	0.31
281.548	0.34
281.92	0.45
282.291	0.25
282.663	0.35
283.034	0.35
283.406	0.46
283.777	0.33
284.148	0.36
284.52	0.43
284.891	0.27
285.262	0.34
285.634	0.32
286.005	0.25
286.376	0.3
286.747	0.26
287.119	0.29
287.49	0.45
287.861	0.3
288.232	0.37
288.603	0.32
288.974	0.27
289.345	0.35
289.716	0.37
290.087	0.22
290.458	0.31
290.829	0.35
291.2	0.26
291.571	0.3
291.941	0.4
292.312	0.35
292.683	0.32
293.054	0.43
293.424	0.33
293.795	0.36
294.166	0.3
294.536	0.36
294.907	0.29
295.277	0.46
295.648	0.38
296.018	0.3
296.389	0.27
296.759	0.25
297.13	0.35
297.5	0.4
297.871	0.3
298.241	0.33
298.611	0.35
298.981	0.35
299.352	0.34
299.722	0.28
300.092	0.37
300.462	0.34
300.832	0.34
301.202	0.33
301.573	0.37
301.943	0.3
302.313	0.37
302.683	0.29
303.053	0.36
303.422	0.33
303.792	0.29
304.162	0.32
304.532	0.35
304.902	0.3
305.272	0.35
305.641	0.42
306.011	0.29
306.381	0.3
306.75	0.29
307.12	0.29
307.49	0.23
307.859	0.31
308.229	0.26
308.598	0.27
308.968	0.3
309.337	0.27
309.707	0.28
310.076	0.18
310.445	0.25
310.815	0.23
311.184	0.24
311.553	0.23
311.923	0.21
312.292	0.23
312.661	0.23
313.03	0.24
313.399	0.27
313.768	0.24
314.137	0.22
314.506	0.24
314.875	0.25
315.244	0.23
315.613	0.23
315.982	0.28
316.351	0.26
316.72	0.26
317.089	0.25
317.458	0.25
317.826	0.27
318.195	0.24
318.564	0.26
318.933	0.28
319.301	0.26
319.67	0.27
320.038	0.28
320.407	0.29
320.775	0.29
321.144	0.3
321.512	0.29
321.881	0.31
322.249	0.3
322.618	0.31
322.986	0.31
323.354	0.3
323.723	0.31
324.091	0.33
324.459	0.34
324.827	0.33
325.195	0.35
325.564	0.35
325.932	0.35
326.3	0.35
326.668	0.37
327.036	0.36
327.404	0.38
327.772	0.38
328.14	0.38
328.508	0.39
328.875	0.38
329.243	0.4
329.611	0.38
329.979	0.4
330.346	0.42
330.714	0.42
331.082	0.43
331.449	0.43
331.817	0.43
332.185	0.44
332.552	0.45
332.92	0.46
333.287	0.46
333.655	0.47
334.022	0.49
334.389	0.49
334.757	0.5
335.124	0.52
335.491	0.53
335.859	0.54
336.226	0.53
336.593	0.55
336.96	0.55
337.327	0.57
337.695	0.58
338.062	0.59
338.429	0.6
338.796	0.61
339.163	0.63
339.53	0.64
339.897	0.65
340.263	0.66
340.63	0.68
340.997	0.69
341.364	0.7
341.731	0.7
342.097	0.72
342.464	0.74
342.831	0.74
343.197	0.76
343.564	0.77
343.931	0.77
344.297	0.78
344.664	0.8
345.03	0.81
345.396	0.82
345.763	0.84
346.129	0.86
346.496	0.87
346.862	0.88
347.228	0.88
347.594	0.91
347.961	0.91
348.327	0.92
348.693	0.93
349.059	0.94
349.425	0.96
349.791	0.97
350.157	0.98
350.523	0.98
350.889	0.99
351.255	1.01
351.621	1.03
351.987	1.03
352.353	1.05
352.719	1.06
353.084	1.07
353.45	1.07
353.816	1.09
354.181	1.11
354.547	1.12
354.913	1.13
355.278	1.14
355.644	1.15
356.009	1.18
356.375	1.19
356.74	1.2
357.106	1.22
357.471	1.21
357.836	1.24
358.202	1.27
358.567	1.27
358.932	1.29
359.297	1.3
359.663	1.32
360.028	1.33
360.393	1.34
360.758	1.36
361.123	1.39
361.488	1.41
361.853	1.43
362.218	1.44
362.583	1.43
362.948	1.47
363.312	1.48
363.677	1.48
364.042	1.51
364.407	1.54
364.772	1.54
365.136	1.56
365.501	1.54
365.865	1.61
366.23	1.55
366.595	1.61
366.959	1.62
367.324	1.62
367.688	1.64
368.052	1.64
368.417	1.65
368.781	1.68
369.145	1.67
369.51	1.68
369.874	1.69
370.238	1.69
370.602	1.65
370.967	1.75
371.331	1.7
371.695	1.67
372.059	1.72
372.423	1.72
372.787	1.72
373.151	1.7
373.515	1.68
373.878	1.7
374.242	1.69
374.606	1.66
374.97	1.68
375.334	1.66
375.697	1.65
376.061	1.64
376.425	1.64
376.788	1.63
377.152	1.61
377.515	1.59
377.879	1.56
378.242	1.54
378.606	1.55
378.969	1.53
379.333	1.53
379.696	1.51
380.059	1.48
380.422	1.45
380.786	1.43
381.149	1.44
381.512	1.41
381.875	1.39
382.238	1.38
382.601	1.38
382.964	1.35
383.327	1.35
383.69	1.34
384.053	1.31
384.416	1.28
384.779	1.28
385.142	1.27
385.504	1.26
385.867	1.26
386.23	1.26
386.593	1.25
386.955	1.24
387.318	1.24
387.68	1.22
388.043	1.22
388.405	1.21
388.768	1.22
389.13	1.2
389.493	1.19
389.855	1.18
390.217	1.18
390.58	1.17
390.942	1.16
391.304	1.13
391.666	1.13
392.028	1.11
392.391	1.1
392.753	1.08
393.115	1.07
393.477	1.05
393.839	1.05
394.201	1.04
394.563	1.03
394.924	1.02
395.286	1.02
395.648	1.02
396.01	1.03
396.371	1.03
396.733	1.05
397.095	1.08
397.456	1.08
397.818	1.12
398.18	1.13
398.541	1.15
398.903	1.18
399.264	1.22
399.625	1.22
399.987	1.25
400.348	1.27
400.709	1.29
401.071	1.29
401.432	1.29
401.793	1.28
402.154	1.27
402.515	1.26
402.876	1.25
403.238	1.21
403.599	1.19
403.96	1.15
404.32	1.11
404.681	1.08
405.042	1.02
405.403	1
405.764	0.94
406.125	0.9
406.485	0.86
406.846	0.81
407.207	0.77
407.567	0.72
407.928	0.69
408.288	0.66
408.649	0.61
409.009	0.59
409.37	0.56
409.73	0.52
410.091	0.49
410.451	0.48
410.811	0.45
411.171	0.43
411.532	0.4
411.892	0.39
412.252	0.37
412.612	0.36
412.972	0.34
413.332	0.33
413.692	0.31
414.052	0.3
414.412	0.28
414.772	0.28
415.132	0.27
415.492	0.26
415.851	0.25
416.211	0.24
416.571	0.23
416.931	0.24
417.29	0.22
417.65	0.21
418.009	0.21
418.369	0.2
418.728	0.2
419.088	0.2
419.447	0.19
419.807	0.19
420.166	0.18
420.525	0.18
420.884	0.18
421.244	0.17
421.603	0.17
421.962	0.16
422.321	0.17
422.68	0.17
423.039	0.16
423.398	0.16
423.757	0.16
424.116	0.15
424.475	0.15
424.834	0.15
425.193	0.15
425.551	0.15
425.91	0.15
426.269	0.15
426.628	0.14
426.986	0.14
427.345	0.14
427.703	0.14
428.062	0.14
428.42	0.14
428.779	0.14
429.137	0.15
429.496	0.14
429.854	0.13
430.212	0.14
430.57	0.13
430.929	0.13
431.287	0.13
431.645	0.13
432.003	0.13
432.361	0.13
432.719	0.13
433.077	0.13
433.435	0.12
433.793	0.13
434.151	0.12
434.509	0.13
434.866	0.13
435.224	0.12
435.582	0.13
435.94	0.13
436.297	0.12
436.655	0.13
437.012	0.13
437.37	0.12
437.727	0.12
438.085	0.13
438.442	0.12
438.8	0.13
439.157	0.12
439.514	0.12
439.872	0.13
440.229	0.12
440.586	0.12
440.943	0.13
441.3	0.13
441.657	0.13
442.014	0.13
442.371	0.12
442.728	0.12
443.085	0.13
443.442	0.12
443.799	0.12
444.156	0.13
444.513	0.14
444.869	0.12
445.226	0.14
445.583	0.13
445.939	0.13
446.296	0.13
446.652	0.14
447.009	0.14
447.365	0.13
447.722	0.13
448.078	0.13
448.434	0.14
448.791	0.14
449.147	0.12
449.503	0.12
449.859	0.13
450.215	0.12
450.571	0.13
450.928	0.14
451.284	0.14
451.64	0.14
451.995	0.12
452.351	0.13
452.707	0.13
453.063	0.12
453.419	0.12
453.775	0.12
454.13	0.12
454.486	0.12
454.842	0.13
455.197	0.12
455.553	0.12
455.908	0.12
456.264	0.11
456.619	0.12
456.975	0.12
457.33	0.11
457.685	0.11
458.04	0.11
458.396	0.11
458.751	0.1
459.106	0.09
459.461	0.09
459.816	0.1
460.171	0.09
460.526	0.1
460.881	0.09
461.236	0.08
461.591	0.08
461.946	0.07
462.301	0.07
462.655	0.08
463.01	0.07
463.365	0.06
463.719	0.06
464.074	0.05
464.428	0.05
464.783	0.04
465.137	0.04
465.492	0.04
465.846	0.04
466.201	0.04
466.555	0.05
466.909	0.05
467.263	0.06
467.618	0.06
467.972	0.06
468.326	0.06
468.68	0.05
469.034	0.05
469.388	0.05
469.742	0.06
470.096	0.06
470.45	0.06
470.804	0.07
471.157	0.06
471.511	0.06
471.865	0.06
472.218	0.07
472.572	0.08
472.926	0.08
473.279	0.09
473.633	0.1
473.986	0.1
474.34	0.11
474.693	0.12
475.046	0.13
475.4	0.14
475.753	0.15
476.106	0.16
476.459	0.17
476.812	0.18
477.165	0.18
477.519	0.19
477.872	0.21
478.224	0.2
478.577	0.21
478.93	0.22
479.283	0.23
479.636	0.23
479.989	0.24
480.341	0.25
480.694	0.26
481.047	0.26
481.399	0.26
481.752	0.27
482.104	0.27
482.457	0.29
482.809	0.29
483.162	0.29
483.514	0.3
483.866	0.31
484.219	0.31
484.571	0.31
484.923	0.31
485.275	0.33
485.627	0.32
485.979	0.33
486.331	0.34
486.683	0.35
487.035	0.35
487.387	0.36
487.739	0.37
488.091	0.37
488.443	0.37
488.794	0.37
489.146	0.38
489.498	0.38
489.849	0.39
490.201	0.39
490.552	0.39
490.904	0.39
491.255	0.4
491.607	0.41
491.958	0.41
492.309	0.41
492.661	0.42
493.012	0.42
493.363	0.43
493.714	0.42
494.065	0.43
494.416	0.44
494.767	0.44
495.118	0.44
495.469	0.45
495.82	0.45
496.171	0.46
496.522	0.47
496.872	0.47
497.223	0.47
497.574	0.48
497.924	0.48
498.275	0.49
498.626	0.49
498.976	0.5
499.327	0.49
499.677	0.5
500.027	0.5
500.378	0.51
500.728	0.51
501.078	0.51
501.428	0.52
501.779	0.52
502.129	0.52
502.479	0.52
502.829	0.53
503.179	0.54
503.529	0.54
503.879	0.55
504.229	0.55
504.578	0.56
504.928	0.55
505.278	0.56
505.628	0.56
505.977	0.57
506.327	0.57
506.676	0.57
507.026	0.59
507.375	0.59
507.725	0.58
508.074	0.58
508.424	0.59
508.773	0.6
509.122	0.59
509.471	0.6
509.82	0.6
510.17	0.6
510.519	0.61
510.868	0.61
511.217	0.61
511.566	0.62
511.915	0.62
512.263	0.63
512.612	0.63
512.961	0.64
513.31	0.63
513.659	0.64
514.007	0.64
514.356	0.64
514.704	0.65
515.053	0.65
515.401	0.66
515.75	0.65
516.098	0.67
516.447	0.67
516.795	0.67
517.143	0.67
517.491	0.67
517.839	0.67
518.188	0.68
518.536	0.69
518.884	0.68
519.232	0.68
519.58	0.69
519.928	0.69
520.275	0.7
520.623	0.7
520.971	0.71
521.319	0.7
521.666	0.71
522.014	0.71
522.362	0.72
522.709	0.72
523.057	0.72
523.404	0.72
523.752	0.72
524.099	0.73
524.446	0.73
524.794	0.73
525.141	0.73
525.488	0.74
525.835	0.74
526.182	0.74
526.529	0.74
526.876	0.74
527.223	0.74
527.57	0.75
527.917	0.75
528.264	0.75
528.611	0.75
528.958	0.75
529.304	0.76
529.651	0.76
529.998	0.76
530.344	0.76
530.691	0.77
531.037	0.77
531.384	0.77
531.73	0.77
532.076	0.78
532.423	0.77
532.769	0.77
533.115	0.76
533.461	0.77
533.807	0.77
534.154	0.78
534.5	0.78
534.846	0.79
535.192	0.78
535.537	0.79
535.883	0.79
536.229	0.79
536.575	0.79
536.921	0.79
537.266	0.8
537.612	0.8
537.957	0.79
538.303	0.8
538.649	0.8
538.994	0.8
539.339	0.8
539.685	0.81
540.03	0.81
540.375	0.8
540.721	0.81
541.066	0.8
541.411	0.8
541.756	0.81
542.101	0.81
542.446	0.81
542.791	0.81
543.136	0.82
543.481	0.82
543.825	0.8
544.17	0.81
544.515	0.82
544.86	0.82
545.204	0.82
545.549	0.82
545.893	0.82
546.238	0.82
546.582	0.82
546.927	0.82
547.271	0.82
547.615	0.83
547.96	0.83
548.304	0.82
548.648	0.83
548.992	0.82
549.336	0.83
549.68	0.82
550.024	0.83
550.368	0.82
550.712	0.83
551.056	0.83
551.4	0.83
551.743	0.83
552.087	0.83
552.431	0.82
552.774	0.83
553.118	0.82
553.462	0.83
553.805	0.83
554.148	0.83
554.492	0.82
554.835	0.83
555.178	0.82
555.522	0.82
555.865	0.83
556.208	0.82
556.551	0.82
556.894	0.82
557.237	0.82
557.58	0.83
557.923	0.82
558.266	0.82
558.609	0.81
558.952	0.82
559.294	0.81
559.637	0.82
559.98	0.82
560.322	0.82
560.665	0.82
561.007	0.81
561.35	0.81
561.692	0.82
562.034	0.81
562.377	0.81
562.719	0.81
563.061	0.81
563.403	0.81
563.745	0.81
564.088	0.81
564.43	0.81
564.772	0.8
565.113	0.8
565.455	0.81
565.797	0.8
566.139	0.8
566.481	0.8
566.822	0.8
567.164	0.8
567.506	0.8
567.847	0.81
568.189	0.79
568.53	0.79
568.872	0.8
569.213	0.79
569.554	0.79
569.895	0.79
570.237	0.78
570.578	0.79
570.919	0.79
571.26	0.78
571.601	0.78
571.942	0.79
572.283	0.78
572.624	0.77
572.965	0.77
573.306	0.78
573.646	0.77
573.987	0.77
574.328	0.77
574.668	0.76
575.009	0.76
575.349	0.76
575.69	0.76
576.03	0.76
576.37	0.75
576.711	0.74
577.051	0.75
577.391	0.75
577.731	0.75
578.072	0.75
578.412	0.75
578.752	0.75
579.092	0.74
579.431	0.73
579.771	0.72
580.111	0.72
580.451	0.73
580.791	0.74
581.13	0.74
581.47	0.73
581.81	0.73
582.149	0.73
582.489	0.73
582.828	0.72
583.167	0.7
583.507	0.66
583.846	0.66
584.185	0.7
584.525	0.71
584.864	0.72
585.203	0.72
585.542	0.73
585.881	0.72
586.22	0.72
586.559	0.72
586.898	0.71
587.236	0.7
587.575	0.71
587.914	0.71
588.252	0.71
588.591	0.71
588.93	0.71
589.268	0.71
589.607	0.71
589.945	0.71
590.283	0.71
590.622	0.71
590.96	0.71
591.298	0.72
591.636	0.71
591.974	0.71
592.313	0.71
592.651	0.71
592.989	0.71
593.326	0.71
593.664	0.71
594.002	0.71
594.34	0.7
594.678	0.7
595.015	0.7
595.353	0.7
595.691	0.7
596.028	0.71
596.366	0.71
596.703	0.7
597.04	0.71
597.378	0.71
597.715	0.71
598.052	0.71
598.389	0.7
598.726	0.7
599.064	0.71
599.401	0.7
599.738	0.71
600.074	0.7
600.411	0.7
600.748	0.7
601.085	0.7
601.422	0.69
601.758	0.69
602.095	0.69
602.432	0.69
602.768	0.69
603.105	0.7
603.441	0.7
603.777	0.69
604.114	0.69
604.45	0.69
604.786	0.69
605.122	0.69
605.459	0.68
605.795	0.68
606.131	0.68
606.467	0.68
606.803	0.68
607.139	0.68
607.474	0.67
607.81	0.67
608.146	0.67
608.482	0.67
608.817	0.66
609.153	0.66
609.488	0.66
609.824	0.66
610.159	0.67
610.495	0.67
610.83	0.66
611.165	0.66
611.5	0.65
611.836	0.66
612.171	0.65
612.506	0.65
612.841	0.65
613.176	0.65
613.511	0.65
613.845	0.64
614.18	0.64
614.515	0.64
614.85	0.63
615.184	0.63
615.519	0.63
615.854	0.63
616.188	0.62
616.523	0.62
616.857	0.62
617.191	0.62
617.526	0.62
617.86	0.62
618.194	0.61
618.528	0.61
618.862	0.61
619.196	0.61
619.53	0.61
619.864	0.6
620.198	0.6
620.532	0.6
620.866	0.6
621.2	0.59
621.533	0.59
621.867	0.59
622.201	0.59
622.534	0.59
622.868	0.58
623.201	0.58
623.534	0.58
623.868	0.58
624.201	0.58
624.534	0.57
624.868	0.57
625.201	0.56
625.534	0.56
625.867	0.56
626.2	0.56
626.533	0.56
626.865	0.56
627.198	0.55
627.531	0.55
627.864	0.55
628.196	0.55
628.529	0.54
628.862	0.54
629.194	0.54
629.527	0.54
629.859	0.53
630.191	0.53
630.524	0.52
630.856	0.52
631.188	0.52
631.52	0.52
631.852	0.51
632.184	0.51
632.516	0.51
632.848	0.5
633.18	0.5
633.512	0.5
633.844	0.49
634.175	0.49
634.507	0.49
634.839	0.48
635.17	0.48
635.502	0.48
635.833	0.48
636.165	0.47
636.496	0.47
636.827	0.47
637.159	0.46
637.49	0.46
637.821	0.46
638.152	0.45
638.483	0.45
638.814	0.45
639.145	0.44
639.476	0.44
639.807	0.44
640.137	0.44
640.468	0.43
640.799	0.43
641.129	0.43
641.46	0.42
641.791	0.42
642.121	0.42
642.451	0.42
642.782	0.41
643.112	0.41
643.442	0.41
643.773	0.41
644.103	0.41
644.433	0.4
644.763	0.4
645.093	0.4
645.423	0.4
645.753	0.4
646.082	0.39
646.412	0.39
646.742	0.39
647.072	0.39
647.401	0.39
647.731	0.38
648.06	0.38
648.39	0.38
648.719	0.38
649.048	0.38
649.378	0.38
649.707	0.37
650.036	0.37
650.365	0.37
650.694	0.37
651.023	0.36
651.352	0.36
651.681	0.36
652.01	0.36
652.339	0.36
652.668	0.36
652.996	0.36
653.325	0.36
653.654	0.36
653.982	0.36
654.311	0.35
654.639	0.35
654.967	0.35
655.296	0.35
655.624	0.35
655.952	0.35
656.28	0.35
656.609	0.35
656.937	0.35
657.265	0.33
657.593	0.19
657.92	0.1
658.248	0.08
658.576	0.15
658.904	0.28
659.231	0.33
659.559	0.34
659.887	0.34
660.214	0.33
660.542	0.33
660.869	0.33
661.196	0.33
661.524	0.33
661.851	0.33
662.178	0.32
662.505	0.33
662.832	0.33
663.159	0.32
663.486	0.32
663.813	0.32
664.14	0.32
664.467	0.32
664.794	0.32
665.12	0.31
665.447	0.31
665.774	0.31
666.1	0.31
666.427	0.31
666.753	0.31
667.079	0.3
667.406	0.31
667.732	0.3
668.058	0.3
668.384	0.3
668.71	0.3
669.036	0.3
669.362	0.29
669.688	0.29
670.014	0.29
670.34	0.29
670.666	0.29
670.991	0.29
671.317	0.28
671.643	0.28
671.968	0.28
672.294	0.28
672.619	0.27
672.945	0.27
673.27	0.27
673.595	0.27
673.92	0.26
674.246	0.26
674.571	0.26
674.896	0.26
675.221	0.26
675.546	0.26
675.87	0.26
676.195	0.25
676.52	0.25
676.845	0.25
677.169	0.25
677.494	0.25
677.819	0.24
678.143	0.24
678.468	0.24
678.792	0.24
679.116	0.23
679.44	0.24
679.765	0.23
680.089	0.23
680.413	0.22
680.737	0.22
681.061	0.22
681.385	0.22
681.709	0.21
682.033	0.21
682.356	0.21
682.68	0.21
683.004	0.21
683.327	0.2
683.651	0.2
683.974	0.2
684.298	0.2
684.621	0.2
684.944	0.2
685.268	0.19
685.591	0.19
685.914	0.19
686.237	0.18
686.56	0.18
686.883	0.18
687.206	0.18
687.529	0.18
687.852	0.17
688.175	0.17
688.497	0.17
688.82	0.17
689.142	0.17
689.465	0.17
689.787	0.17
690.11	0.17
690.432	0.16
690.755	0.16
691.077	0.16
691.399	0.15
691.721	0.15
692.043	0.15
692.365	0.15
692.687	0.15
693.009	0.14
693.331	0.14
693.653	0.14
693.974	0.14
694.296	0.14
694.618	0.14
694.939	0.14
695.261	0.13
695.582	0.14
695.904	0.13
696.225	0.13
696.546	0.13
696.868	0.13
697.189	0.13
697.51	0.13
697.831	0.13
698.152	0.13
698.473	0.12
698.794	0.12
699.114	0.12
699.435	0.11
699.756	0.12
700.077	0.12
700.397	0.12
700.718	0.11
701.038	0.12
701.359	0.12
701.679	0.11
701.999	0.12
702.32	0.11
702.64	0.11
702.96	0.11
703.28	0.11
703.6	0.11
703.92	0.11
704.24	0.11
704.56	0.11
704.879	0.11
705.199	0.11
705.519	0.11
705.838	0.11
706.158	0.11
706.478	0.11
706.797	0.1
707.116	0.1
707.436	0.11
707.755	0.1
708.074	0.1
708.393	0.1
708.712	0.1
709.031	0.09
709.35	0.09
709.669	0.09
709.988	0.09
710.307	0.09
710.626	0.1
710.944	0.1
711.263	0.1
711.582	0.1
711.9	0.1
712.219	0.1
712.537	0.1
712.855	0.1
713.174	0.1
713.492	0.1
713.81	0.1
714.128	0.1
714.446	0.1
714.764	0.1
715.082	0.09
715.4	0.1
715.718	0.1
716.035	0.1
716.353	0.1
716.671	0.1
716.988	0.1
717.306	0.1
717.623	0.1
717.941	0.1
718.258	0.1
718.575	0.1
718.893	0.1
719.21	0.1
719.527	0.1
719.844	0.1
720.161	0.1
720.478	0.1
720.795	0.1
721.112	0.1
721.428	0.1
721.745	0.1
722.062	0.1
722.378	0.1
722.695	0.11
723.011	0.1
723.328	0.1
723.644	0.11
723.96	0.11
724.276	0.11
724.593	0.11
724.909	0.11
725.225	0.1
725.541	0.11
725.857	0.11
726.173	0.11
726.488	0.11
726.804	0.11
727.12	0.11
727.435	0.11
727.751	0.1
728.067	0.1
728.382	0.1
728.697	0.1
729.013	0.11
729.328	0.1
729.643	0.1
729.958	0.1
730.273	0.1
730.588	0.1
730.903	0.1
731.218	0.1
731.533	0.1
731.848	0.1
732.163	0.1
732.477	0.1
732.792	0.1
733.107	0.09
733.421	0.1
733.736	0.1
734.05	0.1
734.364	0.1
734.678	0.1
734.993	0.1
735.307	0.1
735.621	0.1
735.935	0.1
736.249	0.1
736.563	0.1
736.877	0.1
737.19	0.1
737.504	0.1
737.818	0.1
738.131	0.1
738.445	0.1
738.758	0.1
739.072	0.1
739.385	0.09
739.698	0.09
740.012	0.1
740.325	0.09
740.638	0.09
740.951	0.09
741.264	0.09
741.577	0.09
741.89	0.09
742.203	0.09
742.515	0.09
742.828	0.09
743.141	0.09
743.453	0.09
743.766	0.08
744.078	0.08
744.391	0.08
744.703	0.08
745.015	0.08
745.327	0.08
745.639	0.08
745.952	0.08
746.264	0.08
746.575	0.08
746.887	0.08
747.199	0.08
747.511	0.08
747.823	0.08
748.134	0.07
748.446	0.08
748.757	0.07
749.069	0.07
749.38	0.07
749.692	0.07
750.003	0.07
750.314	0.07
750.625	0.07
750.936	0.07
751.248	0.07
751.559	0.07
751.869	0.07
752.18	0.07
752.491	0.06
752.802	0.07
753.112	0.06
753.423	0.06
753.734	0.06
754.044	0.06
754.355	0.06
754.665	0.06
754.975	0.06
755.285	0.06
755.596	0.06
755.906	0.06
756.216	0.06
756.526	0.06
756.836	0.06
757.146	0.06
757.455	0.06
757.765	0.06
758.075	0.06
758.385	0.05
758.694	0.05
759.004	0.05
759.313	0.05
759.622	0.05
759.932	0.05
760.241	0.05
760.55	0.06
760.859	0.05
761.168	0.06
761.477	0.05
761.786	0.05
762.095	0.05
762.404	0.05
762.713	0.05
763.021	0.05
763.33	0.05
763.639	0.05
763.947	0.05
764.256	0.05
764.564	0.05
764.872	0.05
765.181	0.05
765.489	0.05
765.797	0.05
766.105	0.05
766.413	0.05
766.721	0.05
767.029	0.05
767.337	0.05
767.644	0.05
767.952	0.05
768.26	0.05
768.567	0.05
768.875	0.05
769.182	0.05
769.49	0.05
769.797	0.05
770.104	0.05
770.411	0.05
770.718	0.05
771.026	0.05
771.333	0.05
771.639	0.05
771.946	0.05
772.253	0.05
772.56	0.05
772.867	0.05
773.173	0.05
773.48	0.05
773.786	0.05
774.093	0.05
774.399	0.05
774.705	0.05
775.012	0.05
775.318	0.05
775.624	0.05
775.93	0.05
776.236	0.05
776.542	0.05
776.848	0.05
777.154	0.05
777.459	0.05
777.765	0.05
778.071	0.05
778.376	0.05
778.682	0.05
778.987	0.05
779.292	0.05
779.598	0.05
779.903	0.05
780.208	0.05
780.513	0.05
780.818	0.05
781.123	0.05
781.428	0.05
781.733	0.05
782.038	0.05
782.343	0.05
782.647	0.05
782.952	0.05
783.256	0.05
783.561	0.06
783.865	0.06
784.17	0.06
784.474	0.05
784.778	0.05
785.082	0.05
785.386	0.05
785.69	0.05
785.994	0.05
786.298	0.06
786.602	0.05
786.906	0.06
787.209	0.06
787.513	0.06
787.817	0.05
788.12	0.06
788.424	0.06
788.727	0.05
789.03	0.05
789.333	0.06
789.637	0.05
789.94	0.05
790.243	0.05
790.546	0.05
790.849	0.05
791.152	0.05
791.454	0.05
791.757	0.05
792.06	0.06
792.362	0.06
792.665	0.06
792.967	0.06
793.27	0.06
793.572	0.06
793.874	0.06
794.177	0.06
794.479	0.06
794.781	0.06
795.083	0.06
795.385	0.06
795.687	0.06
795.989	0.06
796.29	0.06
796.592	0.06
796.894	0.06
797.195	0.07
797.497	0.06
797.798	0.07
798.1	0.06
798.401	0.06
798.702	0.07
799.003	0.06
799.304	0.07
799.605	0.06
799.906	0.07
800.207	0.06
800.508	0.06
800.809	0.07
801.11	0.06
801.41	0.07
801.711	0.07
802.011	0.07
802.312	0.06
802.612	0.07
802.913	0.07
803.213	0.07
803.513	0.07
803.813	0.07
804.113	0.06
804.413	0.06
804.713	0.07
805.013	0.07
805.313	0.07
805.613	0.07
805.912	0.07
806.212	0.07
806.511	0.07
806.811	0.07
807.11	0.07
807.41	0.07
807.709	0.07
808.008	0.07
808.307	0.07
808.606	0.07
808.905	0.07
809.204	0.07
809.503	0.07
809.802	0.07
810.101	0.08
810.399	0.07
810.698	0.07
810.997	0.08
811.295	0.08
811.593	0.08
811.892	0.08
812.19	0.08
812.488	0.08
812.786	0.07
813.084	0.08
813.383	0.08
813.68	0.08
813.978	0.08
814.276	0.08
814.574	0.08
814.872	0.08
815.169	0.08
815.467	0.08
815.764	0.08
816.062	0.08
816.359	0.08
816.656	0.08
816.954	0.08
817.251	0.08
817.548	0.08
817.845	0.08
818.142	0.08
818.439	0.08
818.735	0.08
819.032	0.09
819.329	0.08
819.626	0.09
819.922	0.08
820.219	0.09
820.515	0.09
820.811	0.08
821.108	0.09
821.404	0.09
821.7	0.08
821.996	0.09
822.292	0.09
822.588	0.09
822.884	0.09
823.18	0.09
823.475	0.08
823.771	0.09
824.067	0.09
824.362	0.09
824.658	0.09
824.953	0.09
825.249	0.09
825.544	0.09
825.839	0.09
826.134	0.1
826.429	0.09
826.724	0.1
827.019	0.09
827.314	0.09
827.609	0.09
827.904	0.09
828.198	0.09
828.493	0.09
828.787	0.09
829.082	0.09
829.376	0.09
829.671	0.1
829.965	0.09
830.259	0.1
830.553	0.1
830.847	0.1
831.141	0.1
831.435	0.1
831.729	0.1
832.023	0.1
832.317	0.1
832.61	0.1
832.904	0.1
833.197	0.1
833.491	0.1
833.784	0.1
834.077	0.1
834.371	0.11
834.664	0.1
834.957	0.1
835.25	0.11
835.543	0.1
835.836	0.11
836.129	0.11
836.421	0.11
836.714	0.11
837.007	0.1
837.299	0.1
837.592	0.1
837.884	0.11
838.177	0.1
838.469	0.11
838.761	0.1
839.053	0.11
839.345	0.11
839.637	0.11
839.929	0.11
840.221	0.1
840.513	0.1
840.805	0.11
841.096	0.1
841.388	0.11
841.68	0.1
841.971	0.11
842.262	0.11
842.554	0.11
842.845	0.12
843.136	0.11
843.427	0.11
843.718	0.11
844.009	0.11
844.3	0.12
844.591	0.12
844.882	0.11
845.173	0.11
845.463	0.13
845.754	0.11
846.044	0.11
846.335	0.12
846.625	0.12
846.915	0.11
847.206	0.12
847.496	0.12
847.786	0.12
848.076	0.13
848.366	0.12
848.656	0.12
848.945	0.12
849.235	0.12
849.525	0.12
849.814	0.11
850.104	0.12
850.393	0.11
850.683	0.12
850.972	0.12
851.261	0.12
851.551	0.13
851.84	0.12
852.129	0.12
852.418	0.11
852.707	0.12
852.995	0.12
853.284	0.11
853.573	0.12
853.862	0.12
854.15	0.14
854.439	0.13
854.727	0.14
855.015	0.12
855.304	0.14
855.592	0.12
855.88	0.12
856.168	0.13
856.456	0.13
856.744	0.13
857.032	0.13
857.32	0.13
857.607	0.14
857.895	0.14
858.183	0.13
858.47	0.15
858.757	0.13
859.045	0.12
859.332	0.13
859.619	0.14
859.907	0.14
860.194	0.13
860.481	0.15
860.768	0.1
861.054	0.15
861.341	0.13
861.628	0.13
861.915	0.15
862.201	0.13
862.488	0.14
862.774	0.14
863.061	0.16
863.347	0.16
863.633	0.12
863.919	0.13
864.205	0.13
864.491	0.14
864.777	0.11
865.063	0.14
865.349	0.12
865.635	0.11
865.92	0.11
866.206	0.13
866.492	0.13
866.777	0.11
867.062	0.12
867.348	0.14
867.633	0.12
867.918	0.14
868.203	0.14
868.488	0.14
868.773	0.19
869.058	0.17
869.343	0.15
869.628	0.13
869.912	0.1
870.197	0.16
870.482	0.18
870.766	0.17
871.05	0.14
871.335	0.14
871.619	0.1
871.903	0.11
872.187	0.14
872.471	0.15
872.755	0.18
873.039	0.09
873.323	0.13
873.607	0.17
873.89	0.13
874.174	0.12
874.458	0.12
874.741	0.17
875.024	0.12
875.308	0.12
875.591	0.1
875.874	0.14
876.157	0.11
876.44	0.14
876.723	0.08
877.006	0.18
877.289	0.12
877.572	0.2
877.854	0.16
878.137	0.19
878.42	0.04
878.702	0.11
878.984	0.12
879.267	0.12
879.549	0.24
879.831	0.08
880.113	0.04
880.395	-0.01
880.677	0.21
880.959	-0.02
