Data from Rubpy_BV_1800_EDTA_Buffered_Absorbance_16-47-18-711.txt Node
Date: Wed Jul 01 16:47:18 BST 2026
User: fpm-admin
Spectrometer: OFX00224
Trigger mode: 0
Integration Time (sec): 7.000000E-2
Scans to average: 3
Nonlinearity correction enabled: false
Boxcar width: 0
Storing dark spectrum: false
XAxis mode: Wavelengths
Number of Pixels in Spectrum: 2136
>>>>>Begin Spectral Data<<<<<
154.91	-0
155.289	-0.51
155.669	-0
156.048	-0
156.428	-0
156.807	0.05
157.186	-0
157.566	0.35
157.945	-0
158.325	-0.06
158.704	-0.01
159.083	0.44
159.462	-0
159.842	0.36
160.221	-0
160.6	-0
160.979	0.33
161.359	-0
161.738	-0.65
162.117	-0
162.496	-0.23
162.875	0.67
163.254	0.12
163.633	-0
164.012	-0
164.391	0.59
164.77	1.01
165.149	-0
165.528	-0
165.907	-0
166.286	0.25
166.665	-0.34
167.044	0.68
167.423	-0
167.802	-0.74
168.181	-1.4
168.559	-0.48
168.938	-0
169.317	-0
169.696	-0.3
170.074	-0
170.453	-0.12
170.832	-0
171.21	-0.14
171.589	-0
171.968	0.83
172.346	0.3
172.725	-0.97
173.103	-0
173.482	-0
173.861	-0
174.239	-0.45
174.617	-0.1
174.996	0.12
175.374	-0
175.753	-0.62
176.131	0.28
176.51	-0.62
176.888	-0
177.266	-0
177.645	-0.06
178.023	-0
178.401	-0
178.779	-0.08
179.158	-0.16
179.536	0.55
179.914	-0
180.292	-0.33
180.67	-0.59
181.048	1.07
181.427	-0.38
181.805	-0
182.183	-0.59
182.561	0.4
182.939	-0.03
183.317	-0.59
183.695	-0.1
184.073	-0
184.451	-0.89
184.829	0.88
185.206	-0.31
185.584	0.03
185.962	-0.36
186.34	0.17
186.718	-0.13
187.096	-0
187.473	-0.67
187.851	-0.35
188.229	-0.36
188.607	0.17
188.984	0.25
189.362	0.18
189.74	0.44
190.117	0.1
190.495	0.2
190.872	0.26
191.25	0.15
191.627	0.3
192.005	0.28
192.382	0.36
192.76	0.33
193.137	0.32
193.515	0.32
193.892	0.27
194.269	0.25
194.647	0.25
195.024	0.22
195.401	0.24
195.779	0.21
196.156	0.53
196.533	0.29
196.91	0.21
197.288	0.25
197.665	0.24
198.042	0.11
198.419	0.2
198.796	0.26
199.173	0.29
199.55	0.36
199.927	0.21
200.304	0.2
200.681	0.25
201.058	0.15
201.435	0.54
201.812	0.21
202.189	0.3
202.566	0.26
202.943	0.28
203.32	0.32
203.697	0.31
204.073	0.23
204.45	0.38
204.827	0.4
205.204	0.1
205.58	0.32
205.957	0.33
206.334	0.27
206.71	0.3
207.087	0.22
207.464	0.25
207.84	0.32
208.217	0.19
208.593	0.19
208.97	0.24
209.346	0.35
209.723	0.27
210.099	0.3
210.476	0.48
210.852	0.47
211.228	0.28
211.605	0.22
211.981	0.27
212.357	0.34
212.733	0.32
213.11	0.36
213.486	0.26
213.862	0.26
214.238	0.43
214.614	0.33
214.991	0.31
215.367	0.36
215.743	0.25
216.119	0.29
216.495	0.33
216.871	0.42
217.247	0.39
217.623	0.2
217.999	0.29
218.375	0.45
218.751	0.36
219.127	0.33
219.502	0.27
219.878	0.21
220.254	0.41
220.63	0.32
221.006	0.38
221.381	0.35
221.757	0.25
222.133	0.23
222.508	0.34
222.884	0.25
223.26	0.26
223.635	0.3
224.011	0.23
224.386	0.4
224.762	0.29
225.137	0.26
225.513	0.26
225.888	0.22
226.264	0.19
226.639	0.24
227.014	0.38
227.39	0.32
227.765	0.24
228.14	0.26
228.516	0.24
228.891	0.25
229.266	0.17
229.641	0.51
230.017	0.34
230.392	0.36
230.767	0.28
231.142	0.31
231.517	0.32
231.892	0.37
232.267	0.38
232.642	0.34
233.017	0.28
233.392	0.35
233.767	0.33
234.142	0.21
234.517	0.17
234.892	0.35
235.267	0.31
235.641	0.36
236.016	0.26
236.391	0.27
236.766	0.38
237.14	0.39
237.515	0.44
237.89	0.29
238.264	0.33
238.639	0.35
239.014	0.41
239.388	0.33
239.763	0.28
240.137	0.3
240.512	0.35
240.886	0.29
241.261	0.26
241.635	0.35
242.009	0.4
242.384	0.28
242.758	0.29
243.132	0.42
243.507	0.36
243.881	0.34
244.255	0.25
244.629	0.24
245.004	0.29
245.378	0.34
245.752	0.34
246.126	0.17
246.5	0.26
246.874	0.28
247.248	0.44
247.622	0.44
247.996	0.25
248.37	0.29
248.744	0.28
249.118	0.45
249.492	0.24
249.866	0.27
250.24	0.39
250.613	0.39
250.987	0.28
251.361	0.45
251.735	0.44
252.108	0.33
252.482	0.31
252.856	0.12
253.229	0.28
253.603	0.24
253.977	0.42
254.35	0.33
254.724	0.28
255.097	0.32
255.471	0.34
255.844	0.25
256.218	0.23
256.591	0.21
256.964	0.37
257.338	0.29
257.711	0.49
258.084	0.3
258.458	0.3
258.831	0.28
259.204	0.29
259.577	0.29
259.95	0.35
260.323	0.34
260.697	0.21
261.07	0.22
261.443	0.39
261.816	0.3
262.189	0.28
262.562	0.36
262.935	0.29
263.308	0.31
263.68	0.36
264.053	0.49
264.426	0.34
264.799	0.23
265.172	0.37
265.545	0.27
265.917	0.42
266.29	0.37
266.663	0.47
267.035	0.34
267.408	0.31
267.781	0.46
268.153	0.23
268.526	0.23
268.898	0.33
269.271	0.36
269.643	0.36
270.016	0.43
270.388	0.2
270.76	0.35
271.133	0.3
271.505	0.34
271.877	0.27
272.25	0.29
272.622	0.36
272.994	0.34
273.366	0.33
273.739	0.31
274.111	0.27
274.483	0.31
274.855	0.29
275.227	0.42
275.599	0.29
275.971	0.36
276.343	0.35
276.715	0.36
277.087	0.32
277.459	0.53
277.831	0.32
278.203	0.36
278.574	0.32
278.946	0.21
279.318	0.3
279.69	0.36
280.061	0.31
280.433	0.36
280.805	0.28
281.176	0.26
281.548	0.3
281.92	0.31
282.291	0.34
282.663	0.38
283.034	0.38
283.406	0.37
283.777	0.41
284.148	0.31
284.52	0.39
284.891	0.38
285.262	0.34
285.634	0.4
286.005	0.35
286.376	0.34
286.747	0.27
287.119	0.33
287.49	0.42
287.861	0.23
288.232	0.29
288.603	0.33
288.974	0.34
289.345	0.28
289.716	0.32
290.087	0.38
290.458	0.47
290.829	0.28
291.2	0.32
291.571	0.34
291.941	0.34
292.312	0.34
292.683	0.35
293.054	0.45
293.424	0.28
293.795	0.36
294.166	0.29
294.536	0.32
294.907	0.27
295.277	0.49
295.648	0.32
296.018	0.42
296.389	0.22
296.759	0.39
297.13	0.31
297.5	0.28
297.871	0.29
298.241	0.37
298.611	0.31
298.981	0.33
299.352	0.41
299.722	0.31
300.092	0.31
300.462	0.34
300.832	0.32
301.202	0.29
301.573	0.35
301.943	0.29
302.313	0.3
302.683	0.26
303.053	0.32
303.422	0.28
303.792	0.31
304.162	0.35
304.532	0.38
304.902	0.31
305.272	0.27
305.641	0.37
306.011	0.25
306.381	0.31
306.75	0.36
307.12	0.31
307.49	0.31
307.859	0.24
308.229	0.24
308.598	0.3
308.968	0.28
309.337	0.24
309.707	0.25
310.076	0.22
310.445	0.28
310.815	0.25
311.184	0.23
311.553	0.22
311.923	0.22
312.292	0.23
312.661	0.2
313.03	0.22
313.399	0.26
313.768	0.22
314.137	0.21
314.506	0.24
314.875	0.25
315.244	0.21
315.613	0.24
315.982	0.24
316.351	0.25
316.72	0.24
317.089	0.26
317.458	0.26
317.826	0.25
318.195	0.26
318.564	0.25
318.933	0.29
319.301	0.26
319.67	0.26
320.038	0.27
320.407	0.28
320.775	0.28
321.144	0.28
321.512	0.3
321.881	0.29
322.249	0.28
322.618	0.3
322.986	0.29
323.354	0.29
323.723	0.28
324.091	0.31
324.459	0.31
324.827	0.32
325.195	0.33
325.564	0.32
325.932	0.34
326.3	0.34
326.668	0.34
327.036	0.34
327.404	0.36
327.772	0.36
328.14	0.36
328.508	0.36
328.875	0.37
329.243	0.38
329.611	0.37
329.979	0.38
330.346	0.39
330.714	0.4
331.082	0.4
331.449	0.4
331.817	0.41
332.185	0.43
332.552	0.41
332.92	0.42
333.287	0.44
333.655	0.44
334.022	0.46
334.389	0.46
334.757	0.47
335.124	0.48
335.491	0.49
335.859	0.51
336.226	0.51
336.593	0.52
336.96	0.53
337.327	0.53
337.695	0.55
338.062	0.56
338.429	0.57
338.796	0.58
339.163	0.59
339.53	0.6
339.897	0.61
340.263	0.62
340.63	0.64
340.997	0.64
341.364	0.65
341.731	0.66
342.097	0.67
342.464	0.68
342.831	0.7
343.197	0.71
343.564	0.73
343.931	0.73
344.297	0.74
344.664	0.76
345.03	0.77
345.396	0.77
345.763	0.79
346.129	0.8
346.496	0.81
346.862	0.83
347.228	0.83
347.594	0.84
347.961	0.85
348.327	0.87
348.693	0.87
349.059	0.89
349.425	0.9
349.791	0.92
350.157	0.91
350.523	0.93
350.889	0.94
351.255	0.95
351.621	0.95
351.987	0.96
352.353	0.99
352.719	0.99
353.084	1.01
353.45	1.01
353.816	1.04
354.181	1.03
354.547	1.07
354.913	1.07
355.278	1.07
355.644	1.08
356.009	1.1
356.375	1.12
356.74	1.14
357.106	1.14
357.471	1.14
357.836	1.17
358.202	1.19
358.567	1.21
358.932	1.23
359.297	1.23
359.663	1.24
360.028	1.28
360.393	1.28
360.758	1.28
361.123	1.31
361.488	1.33
361.853	1.34
362.218	1.37
362.583	1.37
362.948	1.4
363.312	1.4
363.677	1.41
364.042	1.44
364.407	1.46
364.772	1.47
365.136	1.47
365.501	1.5
365.865	1.49
366.23	1.5
366.595	1.51
366.959	1.54
367.324	1.58
367.688	1.55
368.052	1.57
368.417	1.58
368.781	1.58
369.145	1.6
369.51	1.61
369.874	1.65
370.238	1.62
370.602	1.56
370.967	1.63
371.331	1.6
371.695	1.62
372.059	1.63
372.423	1.65
372.787	1.63
373.151	1.61
373.515	1.64
373.878	1.63
374.242	1.61
374.606	1.58
374.97	1.6
375.334	1.58
375.697	1.56
376.061	1.55
376.425	1.57
376.788	1.56
377.152	1.55
377.515	1.52
377.879	1.54
378.242	1.47
378.606	1.48
378.969	1.46
379.333	1.43
379.696	1.42
380.059	1.4
380.422	1.39
380.786	1.37
381.149	1.36
381.512	1.35
381.875	1.32
382.238	1.33
382.601	1.3
382.964	1.29
383.327	1.27
383.69	1.26
384.053	1.23
384.416	1.22
384.779	1.23
385.142	1.21
385.504	1.2
385.867	1.2
386.23	1.19
386.593	1.18
386.955	1.19
387.318	1.16
387.68	1.16
388.043	1.16
388.405	1.16
388.768	1.15
389.13	1.14
389.493	1.15
389.855	1.12
390.217	1.12
390.58	1.12
390.942	1.1
391.304	1.09
391.666	1.08
392.028	1.06
392.391	1.05
392.753	1.04
393.115	1.02
393.477	1
393.839	1.01
394.201	0.99
394.563	0.99
394.924	0.98
395.286	0.99
395.648	0.98
396.01	0.98
396.371	1
396.733	1.02
397.095	1.02
397.456	1.03
397.818	1.06
398.18	1.09
398.541	1.11
398.903	1.13
399.264	1.15
399.625	1.19
399.987	1.2
400.348	1.21
400.709	1.24
401.071	1.23
401.432	1.24
401.793	1.25
402.154	1.23
402.515	1.21
402.876	1.19
403.238	1.16
403.599	1.15
403.96	1.1
404.32	1.07
404.681	1.04
405.042	1
405.403	0.95
405.764	0.9
406.125	0.86
406.485	0.82
406.846	0.79
407.207	0.74
407.567	0.7
407.928	0.66
408.288	0.63
408.649	0.59
409.009	0.56
409.37	0.53
409.73	0.5
410.091	0.47
410.451	0.45
410.811	0.43
411.171	0.41
411.532	0.4
411.892	0.37
412.252	0.36
412.612	0.34
412.972	0.32
413.332	0.31
413.692	0.29
414.052	0.28
414.412	0.27
414.772	0.27
415.132	0.25
415.492	0.25
415.851	0.23
416.211	0.24
416.571	0.23
416.931	0.23
417.29	0.21
417.65	0.21
418.009	0.2
418.369	0.19
418.728	0.19
419.088	0.19
419.447	0.18
419.807	0.18
420.166	0.18
420.525	0.17
420.884	0.17
421.244	0.16
421.603	0.16
421.962	0.15
422.321	0.16
422.68	0.16
423.039	0.15
423.398	0.14
423.757	0.15
424.116	0.14
424.475	0.14
424.834	0.14
425.193	0.14
425.551	0.15
425.91	0.14
426.269	0.14
426.628	0.13
426.986	0.13
427.345	0.13
427.703	0.14
428.062	0.14
428.42	0.14
428.779	0.14
429.137	0.15
429.496	0.12
429.854	0.13
430.212	0.13
430.57	0.13
430.929	0.12
431.287	0.12
431.645	0.13
432.003	0.13
432.361	0.12
432.719	0.12
433.077	0.12
433.435	0.12
433.793	0.13
434.151	0.12
434.509	0.13
434.866	0.13
435.224	0.12
435.582	0.13
435.94	0.12
436.297	0.13
436.655	0.12
437.012	0.12
437.37	0.11
437.727	0.12
438.085	0.12
438.442	0.12
438.8	0.13
439.157	0.12
439.514	0.12
439.872	0.12
440.229	0.12
440.586	0.12
440.943	0.13
441.3	0.12
441.657	0.13
442.014	0.12
442.371	0.12
442.728	0.12
443.085	0.12
443.442	0.11
443.799	0.12
444.156	0.11
444.513	0.12
444.869	0.11
445.226	0.12
445.583	0.13
445.939	0.13
446.296	0.11
446.652	0.12
447.009	0.13
447.365	0.13
447.722	0.13
448.078	0.12
448.434	0.12
448.791	0.12
449.147	0.12
449.503	0.13
449.859	0.12
450.215	0.12
450.571	0.12
450.928	0.12
451.284	0.13
451.64	0.13
451.995	0.12
452.351	0.12
452.707	0.12
453.063	0.12
453.419	0.12
453.775	0.11
454.13	0.12
454.486	0.11
454.842	0.11
455.197	0.11
455.553	0.11
455.908	0.11
456.264	0.1
456.619	0.11
456.975	0.11
457.33	0.1
457.685	0.1
458.04	0.1
458.396	0.1
458.751	0.1
459.106	0.08
459.461	0.09
459.816	0.09
460.171	0.08
460.526	0.08
460.881	0.07
461.236	0.08
461.591	0.06
461.946	0.07
462.301	0.06
462.655	0.06
463.01	0.06
463.365	0.06
463.719	0.05
464.074	0.05
464.428	0.03
464.783	0.03
465.137	0.04
465.492	0.04
465.846	0.04
466.201	0.04
466.555	0.04
466.909	0.05
467.263	0.05
467.618	0.05
467.972	0.05
468.326	0.05
468.68	0.05
469.034	0.04
469.388	0.04
469.742	0.05
470.096	0.06
470.45	0.05
470.804	0.06
471.157	0.05
471.511	0.05
471.865	0.05
472.218	0.06
472.572	0.07
472.926	0.07
473.279	0.08
473.633	0.09
473.986	0.09
474.34	0.1
474.693	0.12
475.046	0.12
475.4	0.13
475.753	0.14
476.106	0.14
476.459	0.16
476.812	0.17
477.165	0.17
477.519	0.17
477.872	0.18
478.224	0.19
478.577	0.2
478.93	0.2
479.283	0.21
479.636	0.22
479.989	0.22
480.341	0.23
480.694	0.24
481.047	0.24
481.399	0.25
481.752	0.25
482.104	0.26
482.457	0.26
482.809	0.28
483.162	0.27
483.514	0.28
483.866	0.29
484.219	0.29
484.571	0.3
484.923	0.3
485.275	0.3
485.627	0.3
485.979	0.32
486.331	0.32
486.683	0.33
487.035	0.33
487.387	0.34
487.739	0.35
488.091	0.34
488.443	0.35
488.794	0.35
489.146	0.35
489.498	0.36
489.849	0.36
490.201	0.37
490.552	0.37
490.904	0.37
491.255	0.38
491.607	0.38
491.958	0.39
492.309	0.39
492.661	0.39
493.012	0.39
493.363	0.4
493.714	0.4
494.065	0.4
494.416	0.42
494.767	0.41
495.118	0.42
495.469	0.42
495.82	0.42
496.171	0.42
496.522	0.43
496.872	0.43
497.223	0.44
497.574	0.44
497.924	0.46
498.275	0.46
498.626	0.46
498.976	0.46
499.327	0.46
499.677	0.46
500.027	0.47
500.378	0.48
500.728	0.48
501.078	0.49
501.428	0.49
501.779	0.49
502.129	0.49
502.479	0.5
502.829	0.5
503.179	0.51
503.529	0.51
503.879	0.51
504.229	0.51
504.578	0.52
504.928	0.52
505.278	0.53
505.628	0.53
505.977	0.53
506.327	0.54
506.676	0.53
507.026	0.54
507.375	0.55
507.725	0.55
508.074	0.54
508.424	0.55
508.773	0.56
509.122	0.56
509.471	0.56
509.82	0.56
510.17	0.57
510.519	0.57
510.868	0.57
511.217	0.57
511.566	0.58
511.915	0.59
512.263	0.59
512.612	0.59
512.961	0.59
513.31	0.6
513.659	0.6
514.007	0.61
514.356	0.61
514.704	0.61
515.053	0.61
515.401	0.62
515.75	0.61
516.098	0.63
516.447	0.63
516.795	0.63
517.143	0.62
517.491	0.63
517.839	0.64
518.188	0.63
518.536	0.64
518.884	0.65
519.232	0.65
519.58	0.65
519.928	0.65
520.275	0.66
520.623	0.66
520.971	0.65
521.319	0.67
521.666	0.66
522.014	0.67
522.362	0.66
522.709	0.67
523.057	0.68
523.404	0.68
523.752	0.68
524.099	0.68
524.446	0.69
524.794	0.68
525.141	0.69
525.488	0.69
525.835	0.7
526.182	0.69
526.529	0.69
526.876	0.69
527.223	0.7
527.57	0.71
527.917	0.7
528.264	0.71
528.611	0.7
528.958	0.71
529.304	0.71
529.651	0.71
529.998	0.72
530.344	0.71
530.691	0.72
531.037	0.72
531.384	0.73
531.73	0.72
532.076	0.73
532.423	0.73
532.769	0.73
533.115	0.73
533.461	0.73
533.807	0.73
534.154	0.73
534.5	0.73
534.846	0.73
535.192	0.73
535.537	0.74
535.883	0.74
536.229	0.74
536.575	0.74
536.921	0.75
537.266	0.75
537.612	0.75
537.957	0.75
538.303	0.75
538.649	0.75
538.994	0.76
539.339	0.76
539.685	0.75
540.03	0.76
540.375	0.75
540.721	0.76
541.066	0.76
541.411	0.76
541.756	0.76
542.101	0.77
542.446	0.76
542.791	0.76
543.136	0.77
543.481	0.77
543.825	0.76
544.17	0.77
544.515	0.77
544.86	0.78
545.204	0.77
545.549	0.77
545.893	0.78
546.238	0.77
546.582	0.77
546.927	0.77
547.271	0.78
547.615	0.78
547.96	0.78
548.304	0.77
548.648	0.78
548.992	0.78
549.336	0.78
549.68	0.77
550.024	0.78
550.368	0.78
550.712	0.78
551.056	0.78
551.4	0.78
551.743	0.77
552.087	0.78
552.431	0.78
552.774	0.78
553.118	0.79
553.462	0.78
553.805	0.78
554.148	0.78
554.492	0.79
554.835	0.78
555.178	0.77
555.522	0.78
555.865	0.77
556.208	0.77
556.551	0.78
556.894	0.78
557.237	0.78
557.58	0.78
557.923	0.78
558.266	0.77
558.609	0.77
558.952	0.77
559.294	0.78
559.637	0.77
559.98	0.77
560.322	0.77
560.665	0.77
561.007	0.77
561.35	0.77
561.692	0.77
562.034	0.77
562.377	0.77
562.719	0.77
563.061	0.76
563.403	0.77
563.745	0.77
564.088	0.76
564.43	0.76
564.772	0.76
565.113	0.76
565.455	0.76
565.797	0.76
566.139	0.76
566.481	0.76
566.822	0.76
567.164	0.76
567.506	0.76
567.847	0.76
568.189	0.75
568.53	0.75
568.872	0.75
569.213	0.75
569.554	0.75
569.895	0.74
570.237	0.75
570.578	0.74
570.919	0.74
571.26	0.74
571.601	0.74
571.942	0.74
572.283	0.73
572.624	0.74
572.965	0.73
573.306	0.73
573.646	0.73
573.987	0.73
574.328	0.73
574.668	0.72
575.009	0.72
575.349	0.72
575.69	0.72
576.03	0.72
576.37	0.71
576.711	0.71
577.051	0.71
577.391	0.71
577.731	0.71
578.072	0.71
578.412	0.71
578.752	0.71
579.092	0.7
579.431	0.69
579.771	0.68
580.111	0.68
580.451	0.69
580.791	0.7
581.13	0.7
581.47	0.69
581.81	0.69
582.149	0.69
582.489	0.69
582.828	0.68
583.167	0.66
583.507	0.63
583.846	0.63
584.185	0.66
584.525	0.68
584.864	0.68
585.203	0.68
585.542	0.69
585.881	0.68
586.22	0.68
586.559	0.68
586.898	0.67
587.236	0.66
587.575	0.66
587.914	0.67
588.252	0.68
588.591	0.68
588.93	0.67
589.268	0.67
589.607	0.67
589.945	0.67
590.283	0.67
590.622	0.67
590.96	0.67
591.298	0.68
591.636	0.67
591.974	0.67
592.313	0.67
592.651	0.68
592.989	0.67
593.326	0.68
593.664	0.67
594.002	0.68
594.34	0.67
594.678	0.67
595.015	0.66
595.353	0.66
595.691	0.67
596.028	0.67
596.366	0.67
596.703	0.67
597.04	0.67
597.378	0.67
597.715	0.67
598.052	0.67
598.389	0.67
598.726	0.67
599.064	0.67
599.401	0.66
599.738	0.67
600.074	0.66
600.411	0.67
600.748	0.66
601.085	0.66
601.422	0.66
601.758	0.66
602.095	0.65
602.432	0.66
602.768	0.66
603.105	0.66
603.441	0.66
603.777	0.66
604.114	0.65
604.45	0.65
604.786	0.65
605.122	0.65
605.459	0.65
605.795	0.65
606.131	0.65
606.467	0.65
606.803	0.65
607.139	0.64
607.474	0.64
607.81	0.64
608.146	0.64
608.482	0.64
608.817	0.63
609.153	0.63
609.488	0.63
609.824	0.63
610.159	0.63
610.495	0.63
610.83	0.63
611.165	0.63
611.5	0.63
611.836	0.62
612.171	0.62
612.506	0.62
612.841	0.62
613.176	0.61
613.511	0.61
613.845	0.61
614.18	0.6
614.515	0.61
614.85	0.6
615.184	0.6
615.519	0.6
615.854	0.6
616.188	0.59
616.523	0.59
616.857	0.59
617.191	0.6
617.526	0.59
617.86	0.59
618.194	0.58
618.528	0.58
618.862	0.58
619.196	0.58
619.53	0.58
619.864	0.57
620.198	0.57
620.532	0.57
620.866	0.57
621.2	0.57
621.533	0.56
621.867	0.56
622.201	0.56
622.534	0.56
622.868	0.56
623.201	0.55
623.534	0.55
623.868	0.55
624.201	0.54
624.534	0.55
624.868	0.55
625.201	0.54
625.534	0.54
625.867	0.53
626.2	0.53
626.533	0.53
626.865	0.53
627.198	0.52
627.531	0.53
627.864	0.52
628.196	0.52
628.529	0.52
628.862	0.51
629.194	0.51
629.527	0.51
629.859	0.5
630.191	0.51
630.524	0.5
630.856	0.5
631.188	0.49
631.52	0.49
631.852	0.49
632.184	0.48
632.516	0.48
632.848	0.48
633.18	0.48
633.512	0.48
633.844	0.47
634.175	0.47
634.507	0.46
634.839	0.47
635.17	0.46
635.502	0.45
635.833	0.45
636.165	0.45
636.496	0.45
636.827	0.44
637.159	0.44
637.49	0.44
637.821	0.44
638.152	0.44
638.483	0.43
638.814	0.43
639.145	0.43
639.476	0.42
639.807	0.42
640.137	0.42
640.468	0.41
640.799	0.41
641.129	0.41
641.46	0.41
641.791	0.4
642.121	0.4
642.451	0.4
642.782	0.4
643.112	0.39
643.442	0.39
643.773	0.39
644.103	0.39
644.433	0.38
644.763	0.38
645.093	0.38
645.423	0.38
645.753	0.38
646.082	0.37
646.412	0.37
646.742	0.37
647.072	0.37
647.401	0.37
647.731	0.37
648.06	0.36
648.39	0.36
648.719	0.36
649.048	0.36
649.378	0.36
649.707	0.36
650.036	0.35
650.365	0.35
650.694	0.35
651.023	0.35
651.352	0.35
651.681	0.35
652.01	0.35
652.339	0.35
652.668	0.34
652.996	0.34
653.325	0.34
653.654	0.34
653.982	0.34
654.311	0.34
654.639	0.34
654.967	0.33
655.296	0.34
655.624	0.33
655.952	0.34
656.28	0.33
656.609	0.33
656.937	0.33
657.265	0.32
657.593	0.17
657.92	0.09
658.248	0.07
658.576	0.14
658.904	0.26
659.231	0.32
659.559	0.33
659.887	0.32
660.214	0.32
660.542	0.32
660.869	0.31
661.196	0.32
661.524	0.32
661.851	0.31
662.178	0.31
662.505	0.31
662.832	0.31
663.159	0.31
663.486	0.3
663.813	0.31
664.14	0.31
664.467	0.3
664.794	0.3
665.12	0.3
665.447	0.3
665.774	0.3
666.1	0.29
666.427	0.29
666.753	0.29
667.079	0.29
667.406	0.29
667.732	0.29
668.058	0.29
668.384	0.29
668.71	0.28
669.036	0.28
669.362	0.28
669.688	0.28
670.014	0.28
670.34	0.27
670.666	0.27
670.991	0.27
671.317	0.27
671.643	0.27
671.968	0.27
672.294	0.26
672.619	0.26
672.945	0.26
673.27	0.26
673.595	0.25
673.92	0.25
674.246	0.25
674.571	0.25
674.896	0.25
675.221	0.25
675.546	0.25
675.87	0.25
676.195	0.24
676.52	0.24
676.845	0.24
677.169	0.23
677.494	0.24
677.819	0.23
678.143	0.23
678.468	0.23
678.792	0.23
679.116	0.23
679.44	0.22
679.765	0.22
680.089	0.22
680.413	0.21
680.737	0.21
681.061	0.21
681.385	0.21
681.709	0.2
682.033	0.2
682.356	0.2
682.68	0.2
683.004	0.2
683.327	0.19
683.651	0.19
683.974	0.19
684.298	0.19
684.621	0.19
684.944	0.19
685.268	0.19
685.591	0.18
685.914	0.18
686.237	0.17
686.56	0.17
686.883	0.17
687.206	0.17
687.529	0.17
687.852	0.17
688.175	0.17
688.497	0.16
688.82	0.16
689.142	0.16
689.465	0.16
689.787	0.16
690.11	0.16
690.432	0.15
690.755	0.15
691.077	0.15
691.399	0.14
691.721	0.15
692.043	0.14
692.365	0.14
692.687	0.14
693.009	0.13
693.331	0.14
693.653	0.13
693.974	0.13
694.296	0.13
694.618	0.13
694.939	0.13
695.261	0.13
695.582	0.13
695.904	0.13
696.225	0.13
696.546	0.12
696.868	0.12
697.189	0.12
697.51	0.12
697.831	0.12
698.152	0.12
698.473	0.12
698.794	0.11
699.114	0.11
699.435	0.11
699.756	0.11
700.077	0.11
700.397	0.11
700.718	0.11
701.038	0.11
701.359	0.11
701.679	0.11
701.999	0.11
702.32	0.11
702.64	0.11
702.96	0.11
703.28	0.11
703.6	0.11
703.92	0.11
704.24	0.1
704.56	0.1
704.879	0.1
705.199	0.1
705.519	0.1
705.838	0.1
706.158	0.1
706.478	0.1
706.797	0.1
707.116	0.1
707.436	0.1
707.755	0.1
708.074	0.1
708.393	0.09
708.712	0.09
709.031	0.09
709.35	0.09
709.669	0.09
709.988	0.09
710.307	0.09
710.626	0.09
710.944	0.09
711.263	0.09
711.582	0.09
711.9	0.09
712.219	0.09
712.537	0.09
712.855	0.09
713.174	0.1
713.492	0.09
713.81	0.1
714.128	0.1
714.446	0.1
714.764	0.09
715.082	0.09
715.4	0.1
715.718	0.09
716.035	0.09
716.353	0.09
716.671	0.09
716.988	0.09
717.306	0.09
717.623	0.1
717.941	0.1
718.258	0.1
718.575	0.1
718.893	0.09
719.21	0.09
719.527	0.09
719.844	0.1
720.161	0.1
720.478	0.1
720.795	0.1
721.112	0.1
721.428	0.1
721.745	0.1
722.062	0.1
722.378	0.1
722.695	0.1
723.011	0.1
723.328	0.1
723.644	0.1
723.96	0.1
724.276	0.1
724.593	0.1
724.909	0.1
725.225	0.1
725.541	0.1
725.857	0.1
726.173	0.1
726.488	0.1
726.804	0.1
727.12	0.1
727.435	0.1
727.751	0.1
728.067	0.1
728.382	0.1
728.697	0.1
729.013	0.1
729.328	0.1
729.643	0.1
729.958	0.1
730.273	0.1
730.588	0.09
730.903	0.1
731.218	0.1
731.533	0.1
731.848	0.09
732.163	0.09
732.477	0.09
732.792	0.09
733.107	0.09
733.421	0.09
733.736	0.09
734.05	0.1
734.364	0.09
734.678	0.09
734.993	0.09
735.307	0.09
735.621	0.09
735.935	0.09
736.249	0.09
736.563	0.09
736.877	0.09
737.19	0.09
737.504	0.09
737.818	0.09
738.131	0.09
738.445	0.09
738.758	0.09
739.072	0.09
739.385	0.09
739.698	0.09
740.012	0.09
740.325	0.09
740.638	0.09
740.951	0.09
741.264	0.08
741.577	0.09
741.89	0.08
742.203	0.08
742.515	0.08
742.828	0.08
743.141	0.08
743.453	0.08
743.766	0.08
744.078	0.08
744.391	0.08
744.703	0.08
745.015	0.08
745.327	0.08
745.639	0.08
745.952	0.08
746.264	0.08
746.575	0.08
746.887	0.07
747.199	0.07
747.511	0.08
747.823	0.07
748.134	0.07
748.446	0.07
748.757	0.07
749.069	0.07
749.38	0.07
749.692	0.07
750.003	0.07
750.314	0.07
750.625	0.07
750.936	0.06
751.248	0.06
751.559	0.06
751.869	0.06
752.18	0.07
752.491	0.06
752.802	0.06
753.112	0.06
753.423	0.06
753.734	0.06
754.044	0.06
754.355	0.06
754.665	0.06
754.975	0.06
755.285	0.06
755.596	0.06
755.906	0.06
756.216	0.06
756.526	0.06
756.836	0.06
757.146	0.06
757.455	0.06
757.765	0.05
758.075	0.05
758.385	0.05
758.694	0.05
759.004	0.05
759.313	0.05
759.622	0.05
759.932	0.05
760.241	0.05
760.55	0.05
760.859	0.05
761.168	0.05
761.477	0.05
761.786	0.05
762.095	0.05
762.404	0.05
762.713	0.05
763.021	0.05
763.33	0.05
763.639	0.05
763.947	0.05
764.256	0.05
764.564	0.05
764.872	0.05
765.181	0.05
765.489	0.05
765.797	0.05
766.105	0.04
766.413	0.05
766.721	0.05
767.029	0.05
767.337	0.05
767.644	0.05
767.952	0.05
768.26	0.05
768.567	0.05
768.875	0.05
769.182	0.05
769.49	0.05
769.797	0.04
770.104	0.05
770.411	0.05
770.718	0.05
771.026	0.05
771.333	0.05
771.639	0.05
771.946	0.05
772.253	0.05
772.56	0.05
772.867	0.05
773.173	0.05
773.48	0.05
773.786	0.05
774.093	0.05
774.399	0.05
774.705	0.05
775.012	0.05
775.318	0.05
775.624	0.04
775.93	0.04
776.236	0.04
776.542	0.04
776.848	0.05
777.154	0.05
777.459	0.04
777.765	0.05
778.071	0.05
778.376	0.05
778.682	0.05
778.987	0.05
779.292	0.05
779.598	0.04
779.903	0.05
780.208	0.05
780.513	0.05
780.818	0.05
781.123	0.05
781.428	0.05
781.733	0.05
782.038	0.05
782.343	0.05
782.647	0.05
782.952	0.05
783.256	0.05
783.561	0.05
783.865	0.05
784.17	0.05
784.474	0.05
784.778	0.05
785.082	0.05
785.386	0.05
785.69	0.05
785.994	0.05
786.298	0.05
786.602	0.05
786.906	0.05
787.209	0.05
787.513	0.05
787.817	0.05
788.12	0.05
788.424	0.05
788.727	0.05
789.03	0.05
789.333	0.05
789.637	0.05
789.94	0.05
790.243	0.05
790.546	0.05
790.849	0.05
791.152	0.05
791.454	0.05
791.757	0.05
792.06	0.05
792.362	0.06
792.665	0.05
792.967	0.05
793.27	0.05
793.572	0.05
793.874	0.05
794.177	0.05
794.479	0.06
794.781	0.05
795.083	0.05
795.385	0.05
795.687	0.05
795.989	0.05
796.29	0.06
796.592	0.06
796.894	0.06
797.195	0.06
797.497	0.06
797.798	0.06
798.1	0.06
798.401	0.06
798.702	0.06
799.003	0.06
799.304	0.06
799.605	0.06
799.906	0.06
800.207	0.06
800.508	0.06
800.809	0.06
801.11	0.06
801.41	0.06
801.711	0.06
802.011	0.06
802.312	0.06
802.612	0.06
802.913	0.06
803.213	0.06
803.513	0.06
803.813	0.06
804.113	0.06
804.413	0.06
804.713	0.06
805.013	0.06
805.313	0.06
805.613	0.07
805.912	0.07
806.212	0.07
806.511	0.07
806.811	0.06
807.11	0.06
807.41	0.07
807.709	0.07
808.008	0.07
808.307	0.06
808.606	0.07
808.905	0.06
809.204	0.06
809.503	0.07
809.802	0.07
810.101	0.07
810.399	0.07
810.698	0.07
810.997	0.07
811.295	0.07
811.593	0.07
811.892	0.07
812.19	0.07
812.488	0.07
812.786	0.07
813.084	0.07
813.383	0.07
813.68	0.08
813.978	0.08
814.276	0.07
814.574	0.07
814.872	0.07
815.169	0.08
815.467	0.08
815.764	0.07
816.062	0.08
816.359	0.07
816.656	0.08
816.954	0.08
817.251	0.08
817.548	0.08
817.845	0.08
818.142	0.08
818.439	0.08
818.735	0.08
819.032	0.08
819.329	0.08
819.626	0.08
819.922	0.08
820.219	0.08
820.515	0.08
820.811	0.08
821.108	0.08
821.404	0.08
821.7	0.08
821.996	0.08
822.292	0.08
822.588	0.08
822.884	0.08
823.18	0.08
823.475	0.08
823.771	0.08
824.067	0.08
824.362	0.08
824.658	0.08
824.953	0.09
825.249	0.09
825.544	0.09
825.839	0.08
826.134	0.09
826.429	0.08
826.724	0.09
827.019	0.09
827.314	0.08
827.609	0.08
827.904	0.09
828.198	0.09
828.493	0.09
828.787	0.09
829.082	0.09
829.376	0.09
829.671	0.09
829.965	0.09
830.259	0.09
830.553	0.09
830.847	0.09
831.141	0.09
831.435	0.09
831.729	0.09
832.023	0.1
832.317	0.09
832.61	0.09
832.904	0.1
833.197	0.1
833.491	0.1
833.784	0.1
834.077	0.1
834.371	0.1
834.664	0.1
834.957	0.09
835.25	0.1
835.543	0.1
835.836	0.1
836.129	0.1
836.421	0.1
836.714	0.1
837.007	0.09
837.299	0.1
837.592	0.1
837.884	0.1
838.177	0.09
838.469	0.1
838.761	0.1
839.053	0.1
839.345	0.1
839.637	0.1
839.929	0.1
840.221	0.1
840.513	0.1
840.805	0.1
841.096	0.1
841.388	0.1
841.68	0.1
841.971	0.1
842.262	0.11
842.554	0.1
842.845	0.1
843.136	0.11
843.427	0.11
843.718	0.11
844.009	0.11
844.3	0.1
844.591	0.11
844.882	0.11
845.173	0.11
845.463	0.11
845.754	0.11
846.044	0.1
846.335	0.1
846.625	0.11
846.915	0.1
847.206	0.12
847.496	0.11
847.786	0.11
848.076	0.12
848.366	0.11
848.656	0.12
848.945	0.11
849.235	0.11
849.525	0.11
849.814	0.11
850.104	0.11
850.393	0.11
850.683	0.11
850.972	0.12
851.261	0.11
851.551	0.12
851.84	0.11
852.129	0.12
852.418	0.1
852.707	0.12
852.995	0.12
853.284	0.11
853.573	0.11
853.862	0.11
854.15	0.13
854.439	0.13
854.727	0.12
855.015	0.13
855.304	0.13
855.592	0.12
855.88	0.12
856.168	0.13
856.456	0.13
856.744	0.13
857.032	0.11
857.32	0.12
857.607	0.13
857.895	0.13
858.183	0.12
858.47	0.14
858.757	0.12
859.045	0.11
859.332	0.11
859.619	0.13
859.907	0.13
860.194	0.13
860.481	0.13
860.768	0.11
861.054	0.14
861.341	0.11
861.628	0.13
861.915	0.14
862.201	0.13
862.488	0.12
862.774	0.14
863.061	0.12
863.347	0.16
863.633	0.14
863.919	0.12
864.205	0.12
864.491	0.12
864.777	0.12
865.063	0.14
865.349	0.12
865.635	0.14
865.92	0.12
866.206	0.11
866.492	0.13
866.777	0.13
867.062	0.11
867.348	0.11
867.633	0.14
867.918	0.15
868.203	0.14
868.488	0.12
868.773	0.17
869.058	0.14
869.343	0.17
869.628	0.11
869.912	0.11
870.197	0.16
870.482	0.18
870.766	0.11
871.05	0.13
871.335	0.09
871.619	0.1
871.903	0.12
872.187	0.11
872.471	0.16
872.755	0.19
873.039	0.09
873.323	0.15
873.607	0.12
873.89	0.11
874.174	0.08
874.458	0.12
874.741	0.14
875.024	0.1
875.308	0.13
875.591	0.07
875.874	0.13
876.157	0.17
876.44	0.11
876.723	0.12
877.006	0.11
877.289	0.2
877.572	0.22
877.854	0.14
878.137	0.11
878.42	0.08
878.702	0.07
878.984	-0.01
879.267	0.04
879.549	0.21
879.831	0.14
880.113	0.06
880.395	0.14
880.677	0.09
880.959	0.05
