Data from Rubpy_BV_1800_EDTA_Buffered_Absorbance_16-58-27-524.txt Node
Date: Wed Jul 01 16:58:27 BST 2026
User: fpm-admin
Spectrometer: OFX00224
Trigger mode: 0
Integration Time (sec): 7.000000E-2
Scans to average: 3
Nonlinearity correction enabled: false
Boxcar width: 0
Storing dark spectrum: false
XAxis mode: Wavelengths
Number of Pixels in Spectrum: 2136
>>>>>Begin Spectral Data<<<<<
154.91	-0
155.289	0.11
155.669	-0
156.048	-0
156.428	-0
156.807	0.05
157.186	-0
157.566	-0.1
157.945	-0.64
158.325	-0.15
158.704	0.15
159.083	0.33
159.462	-0
159.842	-0
160.221	0.33
160.6	-0
160.979	-0
161.359	-0.03
161.738	-0.72
162.117	-0
162.496	-0.27
162.875	-0.25
163.254	0.66
163.633	0.67
164.012	0.51
164.391	0.29
164.77	0.15
165.149	-0
165.528	-0
165.907	1.32
166.286	-0.38
166.665	0.72
167.044	-0.06
167.423	0.46
167.802	-0.64
168.181	-1
168.559	-0.08
168.938	0.28
169.317	-0
169.696	-1.43
170.074	-0.04
170.453	-0.54
170.832	-0.95
171.21	1.01
171.589	-0
171.968	0.3
172.346	-0
172.725	-0
173.103	-0.4
173.482	-0
173.861	0.52
174.239	-0.53
174.617	0.73
174.996	0.12
175.374	-0.26
175.753	-0.48
176.131	0.28
176.51	-0.32
176.888	-0
177.266	-0
177.645	-0.01
178.023	0.65
178.401	-0.1
178.779	0.1
179.158	0.54
179.536	0.29
179.914	0.95
180.292	-0.05
180.67	-0.49
181.048	-0.01
181.427	0.06
181.805	0.05
182.183	-0.67
182.561	-0.1
182.939	-0
183.317	-0.79
183.695	0.07
184.073	-0
184.451	-0.2
184.829	-0.39
185.206	0.21
185.584	-0
185.962	-0.22
186.34	0.26
186.718	-0
187.096	-0
187.473	-0
187.851	0.1
188.229	0.3
188.607	0.25
188.984	0.23
189.362	0.25
189.74	0.53
190.117	0.4
190.495	0.35
190.872	0.48
191.25	0.31
191.627	0.41
192.005	0.34
192.382	0.36
192.76	0.51
193.137	0.68
193.515	0.34
193.892	0.35
194.269	0.43
194.647	0.42
195.024	0.32
195.401	0.41
195.779	0.4
196.156	0.43
196.533	0.26
196.91	0.37
197.288	0.39
197.665	0.22
198.042	0.22
198.419	0.32
198.796	0.22
199.173	0.45
199.55	0.38
199.927	0.38
200.304	0.39
200.681	0.37
201.058	0.27
201.435	0.47
201.812	0.47
202.189	0.27
202.566	0.42
202.943	0.27
203.32	0.42
203.697	0.33
204.073	0.31
204.45	0.5
204.827	0.58
205.204	0.29
205.58	0.42
205.957	0.33
206.334	0.42
206.71	0.53
207.087	0.35
207.464	0.38
207.84	0.41
208.217	0.4
208.593	0.21
208.97	0.43
209.346	0.49
209.723	0.4
210.099	0.32
210.476	0.49
210.852	0.64
211.228	0.44
211.605	0.31
211.981	0.45
212.357	0.52
212.733	0.38
213.11	0.39
213.486	0.39
213.862	0.4
214.238	0.71
214.614	0.35
214.991	0.53
215.367	0.43
215.743	0.28
216.119	0.31
216.495	0.66
216.871	0.37
217.247	0.3
217.623	0.44
217.999	0.44
218.375	0.42
218.751	0.23
219.127	0.5
219.502	0.34
219.878	0.25
220.254	0.45
220.63	0.3
221.006	0.49
221.381	0.42
221.757	0.42
222.133	0.28
222.508	0.65
222.884	0.38
223.26	0.43
223.635	0.59
224.011	0.38
224.386	0.36
224.762	0.51
225.137	0.54
225.513	0.33
225.888	0.52
226.264	0.41
226.639	0.33
227.014	0.46
227.39	0.45
227.765	0.44
228.14	0.4
228.516	0.62
228.891	0.41
229.266	0.43
229.641	0.49
230.017	0.59
230.392	0.29
230.767	0.36
231.142	0.45
231.517	0.54
231.892	0.46
232.267	0.49
232.642	0.51
233.017	0.4
233.392	0.49
233.767	0.3
234.142	0.46
234.517	0.38
234.892	0.48
235.267	0.45
235.641	0.44
236.016	0.43
236.391	0.34
236.766	0.48
237.14	0.25
237.515	0.6
237.89	0.4
238.264	0.58
238.639	0.34
239.014	0.7
239.388	0.53
239.763	0.34
240.137	0.33
240.512	0.41
240.886	0.47
241.261	0.29
241.635	0.42
242.009	0.7
242.384	0.37
242.758	0.33
243.132	0.35
243.507	0.46
243.881	0.44
244.255	0.39
244.629	0.51
245.004	0.57
245.378	0.57
245.752	0.52
246.126	0.45
246.5	0.37
246.874	0.34
247.248	0.43
247.622	0.4
247.996	0.55
248.37	0.45
248.744	0.43
249.118	0.29
249.492	0.33
249.866	0.51
250.24	0.56
250.613	0.58
250.987	0.59
251.361	0.61
251.735	0.53
252.108	0.49
252.482	0.43
252.856	0.38
253.229	0.49
253.603	0.41
253.977	0.42
254.35	0.38
254.724	0.37
255.097	0.36
255.471	0.42
255.844	0.33
256.218	0.47
256.591	0.32
256.964	0.57
257.338	0.53
257.711	0.52
258.084	0.46
258.458	0.48
258.831	0.41
259.204	0.53
259.577	0.37
259.95	0.47
260.323	0.56
260.697	0.35
261.07	0.34
261.443	0.75
261.816	0.31
262.189	0.62
262.562	0.46
262.935	0.71
263.308	0.42
263.68	0.34
264.053	0.39
264.426	0.54
264.799	0.48
265.172	0.53
265.545	0.45
265.917	0.53
266.29	0.37
266.663	0.52
267.035	0.41
267.408	0.35
267.781	0.48
268.153	0.36
268.526	0.38
268.898	0.38
269.271	0.41
269.643	0.36
270.016	0.55
270.388	0.36
270.76	0.48
271.133	0.45
271.505	0.47
271.877	0.36
272.25	0.34
272.622	0.42
272.994	0.49
273.366	0.43
273.739	0.25
274.111	0.54
274.483	0.39
274.855	0.51
275.227	0.55
275.599	0.44
275.971	0.37
276.343	0.4
276.715	0.39
277.087	0.35
277.459	0.6
277.831	0.35
278.203	0.52
278.574	0.46
278.946	0.38
279.318	0.39
279.69	0.43
280.061	0.48
280.433	0.46
280.805	0.47
281.176	0.52
281.548	0.43
281.92	0.48
282.291	0.41
282.663	0.42
283.034	0.58
283.406	0.5
283.777	0.64
284.148	0.46
284.52	0.42
284.891	0.47
285.262	0.43
285.634	0.48
286.005	0.4
286.376	0.49
286.747	0.41
287.119	0.36
287.49	0.51
287.861	0.46
288.232	0.44
288.603	0.48
288.974	0.42
289.345	0.51
289.716	0.51
290.087	0.42
290.458	0.45
290.829	0.54
291.2	0.49
291.571	0.55
291.941	0.37
292.312	0.49
292.683	0.51
293.054	0.49
293.424	0.43
293.795	0.51
294.166	0.43
294.536	0.37
294.907	0.43
295.277	0.52
295.648	0.51
296.018	0.49
296.389	0.31
296.759	0.4
297.13	0.43
297.5	0.41
297.871	0.51
298.241	0.45
298.611	0.42
298.981	0.43
299.352	0.62
299.722	0.47
300.092	0.5
300.462	0.44
300.832	0.47
301.202	0.39
301.573	0.43
301.943	0.39
302.313	0.4
302.683	0.41
303.053	0.41
303.422	0.45
303.792	0.42
304.162	0.48
304.532	0.45
304.902	0.38
305.272	0.56
305.641	0.48
306.011	0.39
306.381	0.4
306.75	0.44
307.12	0.4
307.49	0.42
307.859	0.43
308.229	0.37
308.598	0.44
308.968	0.38
309.337	0.36
309.707	0.38
310.076	0.32
310.445	0.35
310.815	0.34
311.184	0.38
311.553	0.35
311.923	0.38
312.292	0.35
312.661	0.37
313.03	0.35
313.399	0.38
313.768	0.35
314.137	0.36
314.506	0.34
314.875	0.4
315.244	0.34
315.613	0.38
315.982	0.38
316.351	0.38
316.72	0.39
317.089	0.39
317.458	0.41
317.826	0.42
318.195	0.4
318.564	0.42
318.933	0.44
319.301	0.43
319.67	0.43
320.038	0.44
320.407	0.45
320.775	0.47
321.144	0.45
321.512	0.47
321.881	0.47
322.249	0.5
322.618	0.5
322.986	0.48
323.354	0.5
323.723	0.5
324.091	0.52
324.459	0.54
324.827	0.55
325.195	0.56
325.564	0.55
325.932	0.54
326.3	0.57
326.668	0.56
327.036	0.58
327.404	0.6
327.772	0.6
328.14	0.61
328.508	0.61
328.875	0.62
329.243	0.64
329.611	0.65
329.979	0.66
330.346	0.67
330.714	0.69
331.082	0.69
331.449	0.69
331.817	0.7
332.185	0.74
332.552	0.74
332.92	0.74
333.287	0.75
333.655	0.78
334.022	0.78
334.389	0.8
334.757	0.81
335.124	0.83
335.491	0.86
335.859	0.87
336.226	0.88
336.593	0.89
336.96	0.92
337.327	0.94
337.695	0.96
338.062	0.98
338.429	0.99
338.796	1.01
339.163	1.03
339.53	1.03
339.897	1.07
340.263	1.07
340.63	1.1
340.997	1.12
341.364	1.14
341.731	1.15
342.097	1.18
342.464	1.19
342.831	1.21
343.197	1.23
343.564	1.24
343.931	1.29
344.297	1.27
344.664	1.29
345.03	1.31
345.396	1.33
345.763	1.36
346.129	1.38
346.496	1.39
346.862	1.41
347.228	1.43
347.594	1.46
347.961	1.44
348.327	1.47
348.693	1.49
349.059	1.52
349.425	1.52
349.791	1.56
350.157	1.56
350.523	1.58
350.889	1.58
351.255	1.62
351.621	1.61
351.987	1.65
352.353	1.65
352.719	1.69
353.084	1.74
353.45	1.71
353.816	1.75
354.181	1.76
354.547	1.75
354.913	1.78
355.278	1.82
355.644	1.76
356.009	1.8
356.375	1.85
356.74	1.86
357.106	1.9
357.471	1.86
357.836	1.87
358.202	1.97
358.567	1.92
358.932	1.96
359.297	1.92
359.663	1.96
360.028	2.02
360.393	2.05
360.758	2
361.123	2.1
361.488	2.07
361.853	2.03
362.218	2.13
362.583	2.08
362.948	2.09
363.312	2.02
363.677	2.09
364.042	2.1
364.407	2.22
364.772	2.18
365.136	2.12
365.501	2.11
365.865	2.3
366.23	2.22
366.595	2.17
366.959	2.17
367.324	2.24
367.688	2.14
368.052	2.23
368.417	2.29
368.781	2.2
369.145	2.27
369.51	2.23
369.874	2.26
370.238	2.24
370.602	2.15
370.967	2.27
371.331	2.17
371.695	2.19
372.059	2.23
372.423	2.16
372.787	2.18
373.151	2.11
373.515	2.19
373.878	2.31
374.242	2.22
374.606	2.14
374.97	2.16
375.334	2.25
375.697	2.15
376.061	2.16
376.425	2.23
376.788	2.2
377.152	2.23
377.515	2.18
377.879	2.15
378.242	2.11
378.606	2.2
378.969	2.12
379.333	2.15
379.696	2.18
380.059	2.11
380.422	2.05
380.786	2.07
381.149	2.12
381.512	2.03
381.875	2.07
382.238	1.98
382.601	2.02
382.964	1.97
383.327	1.94
383.69	1.97
384.053	1.92
384.416	1.86
384.779	1.89
385.142	1.86
385.504	1.85
385.867	1.86
386.23	1.83
386.593	1.82
386.955	1.78
387.318	1.75
387.68	1.77
388.043	1.75
388.405	1.75
388.768	1.77
389.13	1.73
389.493	1.74
389.855	1.69
390.217	1.7
390.58	1.69
390.942	1.65
391.304	1.61
391.666	1.6
392.028	1.57
392.391	1.55
392.753	1.55
393.115	1.52
393.477	1.5
393.839	1.49
394.201	1.49
394.563	1.48
394.924	1.46
395.286	1.45
395.648	1.45
396.01	1.46
396.371	1.46
396.733	1.47
397.095	1.47
397.456	1.5
397.818	1.51
398.18	1.51
398.541	1.57
398.903	1.59
399.264	1.63
399.625	1.64
399.987	1.69
400.348	1.69
400.709	1.72
401.071	1.72
401.432	1.72
401.793	1.72
402.154	1.7
402.515	1.66
402.876	1.67
403.238	1.65
403.599	1.61
403.96	1.56
404.32	1.5
404.681	1.46
405.042	1.38
405.403	1.35
405.764	1.3
406.125	1.24
406.485	1.18
406.846	1.11
407.207	1.07
407.567	1.02
407.928	0.96
408.288	0.92
408.649	0.87
409.009	0.82
409.37	0.78
409.73	0.74
410.091	0.7
410.451	0.67
410.811	0.63
411.171	0.61
411.532	0.58
411.892	0.56
412.252	0.53
412.612	0.51
412.972	0.49
413.332	0.47
413.692	0.45
414.052	0.43
414.412	0.42
414.772	0.4
415.132	0.39
415.492	0.38
415.851	0.37
416.211	0.36
416.571	0.35
416.931	0.34
417.29	0.32
417.65	0.32
418.009	0.31
418.369	0.3
418.728	0.3
419.088	0.29
419.447	0.29
419.807	0.28
420.166	0.27
420.525	0.26
420.884	0.26
421.244	0.26
421.603	0.25
421.962	0.24
422.321	0.25
422.68	0.25
423.039	0.24
423.398	0.23
423.757	0.24
424.116	0.23
424.475	0.23
424.834	0.23
425.193	0.22
425.551	0.22
425.91	0.22
426.269	0.22
426.628	0.21
426.986	0.22
427.345	0.21
427.703	0.21
428.062	0.22
428.42	0.21
428.779	0.21
429.137	0.21
429.496	0.2
429.854	0.21
430.212	0.2
430.57	0.2
430.929	0.19
431.287	0.19
431.645	0.2
432.003	0.2
432.361	0.21
432.719	0.2
433.077	0.2
433.435	0.2
433.793	0.2
434.151	0.19
434.509	0.21
434.866	0.19
435.224	0.19
435.582	0.2
435.94	0.2
436.297	0.21
436.655	0.2
437.012	0.2
437.37	0.19
437.727	0.19
438.085	0.2
438.442	0.2
438.8	0.2
439.157	0.2
439.514	0.2
439.872	0.2
440.229	0.2
440.586	0.19
440.943	0.21
441.3	0.2
441.657	0.21
442.014	0.21
442.371	0.2
442.728	0.21
443.085	0.21
443.442	0.2
443.799	0.21
444.156	0.21
444.513	0.21
444.869	0.19
445.226	0.22
445.583	0.21
445.939	0.21
446.296	0.2
446.652	0.21
447.009	0.21
447.365	0.21
447.722	0.21
448.078	0.22
448.434	0.22
448.791	0.22
449.147	0.22
449.503	0.21
449.859	0.2
450.215	0.21
450.571	0.21
450.928	0.22
451.284	0.22
451.64	0.22
451.995	0.22
452.351	0.22
452.707	0.22
453.063	0.21
453.419	0.21
453.775	0.21
454.13	0.21
454.486	0.22
454.842	0.21
455.197	0.21
455.553	0.2
455.908	0.21
456.264	0.2
456.619	0.21
456.975	0.21
457.33	0.2
457.685	0.21
458.04	0.2
458.396	0.2
458.751	0.19
459.106	0.19
459.461	0.19
459.816	0.18
460.171	0.17
460.526	0.18
460.881	0.17
461.236	0.17
461.591	0.17
461.946	0.16
462.301	0.16
462.655	0.17
463.01	0.17
463.365	0.15
463.719	0.15
464.074	0.14
464.428	0.13
464.783	0.13
465.137	0.13
465.492	0.13
465.846	0.14
466.201	0.13
466.555	0.14
466.909	0.15
467.263	0.16
467.618	0.16
467.972	0.16
468.326	0.15
468.68	0.15
469.034	0.14
469.388	0.14
469.742	0.15
470.096	0.15
470.45	0.16
470.804	0.17
471.157	0.16
471.511	0.16
471.865	0.16
472.218	0.17
472.572	0.18
472.926	0.19
473.279	0.2
473.633	0.21
473.986	0.22
474.34	0.23
474.693	0.24
475.046	0.25
475.4	0.27
475.753	0.28
476.106	0.29
476.459	0.3
476.812	0.32
477.165	0.32
477.519	0.34
477.872	0.34
478.224	0.36
478.577	0.37
478.93	0.38
479.283	0.39
479.636	0.39
479.989	0.41
480.341	0.42
480.694	0.42
481.047	0.44
481.399	0.45
481.752	0.45
482.104	0.46
482.457	0.47
482.809	0.49
483.162	0.49
483.514	0.5
483.866	0.51
484.219	0.52
484.571	0.53
484.923	0.53
485.275	0.54
485.627	0.54
485.979	0.55
486.331	0.56
486.683	0.57
487.035	0.57
487.387	0.59
487.739	0.6
488.091	0.61
488.443	0.61
488.794	0.61
489.146	0.63
489.498	0.63
489.849	0.63
490.201	0.63
490.552	0.63
490.904	0.65
491.255	0.66
491.607	0.67
491.958	0.67
492.309	0.68
492.661	0.68
493.012	0.68
493.363	0.69
493.714	0.7
494.065	0.7
494.416	0.71
494.767	0.72
495.118	0.72
495.469	0.73
495.82	0.74
496.171	0.75
496.522	0.75
496.872	0.76
497.223	0.77
497.574	0.77
497.924	0.78
498.275	0.79
498.626	0.8
498.976	0.8
499.327	0.82
499.677	0.81
500.027	0.82
500.378	0.82
500.728	0.82
501.078	0.83
501.428	0.84
501.779	0.85
502.129	0.85
502.479	0.85
502.829	0.88
503.179	0.88
503.529	0.88
503.879	0.9
504.229	0.9
504.578	0.9
504.928	0.9
505.278	0.91
505.628	0.92
505.977	0.94
506.327	0.92
506.676	0.95
507.026	0.94
507.375	0.95
507.725	0.95
508.074	0.96
508.424	0.96
508.773	0.96
509.122	0.96
509.471	0.97
509.82	0.99
510.17	0.99
510.519	0.99
510.868	0.98
511.217	1.01
511.566	1.02
511.915	1.02
512.263	1.03
512.612	1.02
512.961	1.03
513.31	1.03
513.659	1.04
514.007	1.04
514.356	1.05
514.704	1.06
515.053	1.06
515.401	1.06
515.75	1.06
516.098	1.07
516.447	1.08
516.795	1.07
517.143	1.07
517.491	1.09
517.839	1.09
518.188	1.11
518.536	1.11
518.884	1.1
519.232	1.12
519.58	1.11
519.928	1.1
520.275	1.12
520.623	1.12
520.971	1.15
521.319	1.14
521.666	1.14
522.014	1.14
522.362	1.15
522.709	1.16
523.057	1.16
523.404	1.17
523.752	1.17
524.099	1.17
524.446	1.18
524.794	1.18
525.141	1.18
525.488	1.2
525.835	1.18
526.182	1.2
526.529	1.19
526.876	1.19
527.223	1.2
527.57	1.2
527.917	1.21
528.264	1.21
528.611	1.21
528.958	1.21
529.304	1.22
529.651	1.22
529.998	1.23
530.344	1.22
530.691	1.23
531.037	1.23
531.384	1.23
531.73	1.23
532.076	1.24
532.423	1.24
532.769	1.24
533.115	1.24
533.461	1.26
533.807	1.26
534.154	1.25
534.5	1.25
534.846	1.26
535.192	1.26
535.537	1.26
535.883	1.27
536.229	1.26
536.575	1.27
536.921	1.28
537.266	1.28
537.612	1.28
537.957	1.26
538.303	1.28
538.649	1.28
538.994	1.28
539.339	1.28
539.685	1.29
540.03	1.29
540.375	1.29
540.721	1.29
541.066	1.29
541.411	1.29
541.756	1.3
542.101	1.3
542.446	1.3
542.791	1.3
543.136	1.3
543.481	1.3
543.825	1.3
544.17	1.3
544.515	1.3
544.86	1.3
545.204	1.31
545.549	1.31
545.893	1.31
546.238	1.3
546.582	1.3
546.927	1.3
547.271	1.32
547.615	1.31
547.96	1.31
548.304	1.31
548.648	1.31
548.992	1.3
549.336	1.31
549.68	1.3
550.024	1.31
550.368	1.3
550.712	1.32
551.056	1.31
551.4	1.3
551.743	1.31
552.087	1.31
552.431	1.3
552.774	1.3
553.118	1.3
553.462	1.31
553.805	1.31
554.148	1.3
554.492	1.3
554.835	1.31
555.178	1.3
555.522	1.3
555.865	1.29
556.208	1.29
556.551	1.29
556.894	1.3
557.237	1.3
557.58	1.3
557.923	1.29
558.266	1.29
558.609	1.29
558.952	1.3
559.294	1.29
559.637	1.29
559.98	1.28
560.322	1.28
560.665	1.28
561.007	1.28
561.35	1.27
561.692	1.26
562.034	1.27
562.377	1.27
562.719	1.27
563.061	1.28
563.403	1.27
563.745	1.27
564.088	1.27
564.43	1.27
564.772	1.26
565.113	1.26
565.455	1.26
565.797	1.26
566.139	1.26
566.481	1.25
566.822	1.24
567.164	1.25
567.506	1.24
567.847	1.24
568.189	1.24
568.53	1.24
568.872	1.23
569.213	1.24
569.554	1.23
569.895	1.23
570.237	1.22
570.578	1.23
570.919	1.22
571.26	1.22
571.601	1.22
571.942	1.21
572.283	1.21
572.624	1.2
572.965	1.2
573.306	1.2
573.646	1.2
573.987	1.2
574.328	1.19
574.668	1.2
575.009	1.19
575.349	1.19
575.69	1.18
576.03	1.18
576.37	1.17
576.711	1.16
577.051	1.17
577.391	1.17
577.731	1.17
578.072	1.17
578.412	1.17
578.752	1.16
579.092	1.15
579.431	1.14
579.771	1.13
580.111	1.13
580.451	1.14
580.791	1.14
581.13	1.13
581.47	1.14
581.81	1.13
582.149	1.13
582.489	1.13
582.828	1.12
583.167	1.1
583.507	1.06
583.846	1.06
584.185	1.1
584.525	1.11
584.864	1.11
585.203	1.12
585.542	1.12
585.881	1.11
586.22	1.11
586.559	1.1
586.898	1.1
587.236	1.09
587.575	1.09
587.914	1.1
588.252	1.1
588.591	1.09
588.93	1.09
589.268	1.09
589.607	1.09
589.945	1.09
590.283	1.09
590.622	1.09
590.96	1.09
591.298	1.09
591.636	1.09
591.974	1.08
592.313	1.09
592.651	1.09
592.989	1.08
593.326	1.08
593.664	1.08
594.002	1.08
594.34	1.08
594.678	1.08
595.015	1.07
595.353	1.07
595.691	1.07
596.028	1.07
596.366	1.08
596.703	1.07
597.04	1.07
597.378	1.07
597.715	1.07
598.052	1.07
598.389	1.07
598.726	1.06
599.064	1.07
599.401	1.06
599.738	1.07
600.074	1.05
600.411	1.06
600.748	1.05
601.085	1.05
601.422	1.05
601.758	1.04
602.095	1.05
602.432	1.04
602.768	1.04
603.105	1.04
603.441	1.04
603.777	1.04
604.114	1.04
604.45	1.04
604.786	1.03
605.122	1.03
605.459	1.03
605.795	1.02
606.131	1.02
606.467	1.02
606.803	1.02
607.139	1.02
607.474	1.01
607.81	1.01
608.146	1.01
608.482	1.01
608.817	0.99
609.153	0.99
609.488	0.99
609.824	1
610.159	0.99
610.495	0.99
610.83	0.99
611.165	0.98
611.5	0.97
611.836	0.98
612.171	0.97
612.506	0.97
612.841	0.97
613.176	0.96
613.511	0.96
613.845	0.96
614.18	0.95
614.515	0.95
614.85	0.95
615.184	0.94
615.519	0.94
615.854	0.94
616.188	0.93
616.523	0.93
616.857	0.92
617.191	0.92
617.526	0.92
617.86	0.91
618.194	0.91
618.528	0.91
618.862	0.91
619.196	0.9
619.53	0.9
619.864	0.89
620.198	0.9
620.532	0.89
620.866	0.89
621.2	0.88
621.533	0.88
621.867	0.88
622.201	0.87
622.534	0.87
622.868	0.87
623.201	0.86
623.534	0.85
623.868	0.85
624.201	0.85
624.534	0.84
624.868	0.84
625.201	0.84
625.534	0.83
625.867	0.83
626.2	0.83
626.533	0.83
626.865	0.82
627.198	0.82
627.531	0.81
627.864	0.81
628.196	0.81
628.529	0.8
628.862	0.79
629.194	0.79
629.527	0.78
629.859	0.79
630.191	0.78
630.524	0.78
630.856	0.77
631.188	0.76
631.52	0.76
631.852	0.76
632.184	0.75
632.516	0.75
632.848	0.74
633.18	0.74
633.512	0.74
633.844	0.73
634.175	0.73
634.507	0.72
634.839	0.71
635.17	0.71
635.502	0.71
635.833	0.7
636.165	0.7
636.496	0.7
636.827	0.69
637.159	0.69
637.49	0.69
637.821	0.68
638.152	0.67
638.483	0.67
638.814	0.66
639.145	0.66
639.476	0.65
639.807	0.65
640.137	0.65
640.468	0.64
640.799	0.64
641.129	0.64
641.46	0.63
641.791	0.62
642.121	0.62
642.451	0.61
642.782	0.62
643.112	0.61
643.442	0.61
643.773	0.6
644.103	0.6
644.433	0.6
644.763	0.6
645.093	0.59
645.423	0.59
645.753	0.59
646.082	0.58
646.412	0.58
646.742	0.58
647.072	0.58
647.401	0.57
647.731	0.57
648.06	0.56
648.39	0.56
648.719	0.56
649.048	0.56
649.378	0.55
649.707	0.56
650.036	0.54
650.365	0.54
650.694	0.54
651.023	0.54
651.352	0.54
651.681	0.54
652.01	0.54
652.339	0.53
652.668	0.53
652.996	0.53
653.325	0.53
653.654	0.53
653.982	0.52
654.311	0.52
654.639	0.52
654.967	0.52
655.296	0.52
655.624	0.51
655.952	0.52
656.28	0.51
656.609	0.51
656.937	0.5
657.265	0.49
657.593	0.34
657.92	0.25
658.248	0.23
658.576	0.31
658.904	0.43
659.231	0.49
659.559	0.5
659.887	0.49
660.214	0.49
660.542	0.49
660.869	0.48
661.196	0.48
661.524	0.48
661.851	0.47
662.178	0.47
662.505	0.47
662.832	0.47
663.159	0.47
663.486	0.47
663.813	0.47
664.14	0.46
664.467	0.46
664.794	0.46
665.12	0.46
665.447	0.46
665.774	0.45
666.1	0.45
666.427	0.45
666.753	0.45
667.079	0.44
667.406	0.44
667.732	0.44
668.058	0.44
668.384	0.44
668.71	0.43
669.036	0.43
669.362	0.43
669.688	0.42
670.014	0.42
670.34	0.41
670.666	0.41
670.991	0.41
671.317	0.41
671.643	0.4
671.968	0.4
672.294	0.4
672.619	0.4
672.945	0.4
673.27	0.4
673.595	0.39
673.92	0.38
674.246	0.39
674.571	0.38
674.896	0.38
675.221	0.38
675.546	0.37
675.87	0.37
676.195	0.37
676.52	0.36
676.845	0.36
677.169	0.36
677.494	0.36
677.819	0.35
678.143	0.35
678.468	0.34
678.792	0.34
679.116	0.34
679.44	0.34
679.765	0.33
680.089	0.33
680.413	0.32
680.737	0.32
681.061	0.32
681.385	0.32
681.709	0.31
682.033	0.31
682.356	0.31
682.68	0.31
683.004	0.3
683.327	0.3
683.651	0.29
683.974	0.29
684.298	0.29
684.621	0.29
684.944	0.28
685.268	0.28
685.591	0.28
685.914	0.27
686.237	0.27
686.56	0.27
686.883	0.26
687.206	0.26
687.529	0.26
687.852	0.26
688.175	0.25
688.497	0.25
688.82	0.25
689.142	0.25
689.465	0.24
689.787	0.24
690.11	0.24
690.432	0.23
690.755	0.23
691.077	0.23
691.399	0.23
691.721	0.23
692.043	0.22
692.365	0.22
692.687	0.22
693.009	0.21
693.331	0.21
693.653	0.21
693.974	0.21
694.296	0.21
694.618	0.2
694.939	0.2
695.261	0.2
695.582	0.2
695.904	0.2
696.225	0.19
696.546	0.19
696.868	0.19
697.189	0.19
697.51	0.19
697.831	0.19
698.152	0.19
698.473	0.18
698.794	0.18
699.114	0.18
699.435	0.17
699.756	0.18
700.077	0.18
700.397	0.17
700.718	0.17
701.038	0.17
701.359	0.17
701.679	0.17
701.999	0.17
702.32	0.17
702.64	0.17
702.96	0.17
703.28	0.16
703.6	0.16
703.92	0.16
704.24	0.16
704.56	0.16
704.879	0.16
705.199	0.16
705.519	0.16
705.838	0.16
706.158	0.16
706.478	0.16
706.797	0.16
707.116	0.16
707.436	0.15
707.755	0.15
708.074	0.15
708.393	0.15
708.712	0.15
709.031	0.14
709.35	0.14
709.669	0.14
709.988	0.14
710.307	0.14
710.626	0.14
710.944	0.15
711.263	0.15
711.582	0.14
711.9	0.15
712.219	0.14
712.537	0.15
712.855	0.14
713.174	0.15
713.492	0.15
713.81	0.15
714.128	0.15
714.446	0.14
714.764	0.14
715.082	0.14
715.4	0.15
715.718	0.14
716.035	0.14
716.353	0.14
716.671	0.14
716.988	0.15
717.306	0.14
717.623	0.15
717.941	0.15
718.258	0.15
718.575	0.15
718.893	0.15
719.21	0.15
719.527	0.15
719.844	0.15
720.161	0.15
720.478	0.15
720.795	0.15
721.112	0.15
721.428	0.15
721.745	0.15
722.062	0.15
722.378	0.15
722.695	0.15
723.011	0.15
723.328	0.15
723.644	0.15
723.96	0.15
724.276	0.16
724.593	0.15
724.909	0.15
725.225	0.15
725.541	0.15
725.857	0.15
726.173	0.15
726.488	0.16
726.804	0.15
727.12	0.15
727.435	0.15
727.751	0.15
728.067	0.15
728.382	0.15
728.697	0.15
729.013	0.15
729.328	0.15
729.643	0.15
729.958	0.15
730.273	0.15
730.588	0.15
730.903	0.15
731.218	0.15
731.533	0.15
731.848	0.15
732.163	0.15
732.477	0.14
732.792	0.14
733.107	0.14
733.421	0.15
733.736	0.14
734.05	0.15
734.364	0.14
734.678	0.14
734.993	0.14
735.307	0.15
735.621	0.14
735.935	0.14
736.249	0.14
736.563	0.14
736.877	0.14
737.19	0.14
737.504	0.14
737.818	0.14
738.131	0.14
738.445	0.14
738.758	0.14
739.072	0.14
739.385	0.14
739.698	0.14
740.012	0.14
740.325	0.14
740.638	0.13
740.951	0.13
741.264	0.13
741.577	0.13
741.89	0.13
742.203	0.13
742.515	0.13
742.828	0.13
743.141	0.13
743.453	0.13
743.766	0.12
744.078	0.12
744.391	0.12
744.703	0.12
745.015	0.12
745.327	0.12
745.639	0.12
745.952	0.12
746.264	0.12
746.575	0.12
746.887	0.12
747.199	0.12
747.511	0.12
747.823	0.12
748.134	0.11
748.446	0.11
748.757	0.11
749.069	0.11
749.38	0.11
749.692	0.11
750.003	0.11
750.314	0.11
750.625	0.11
750.936	0.1
751.248	0.1
751.559	0.11
751.869	0.1
752.18	0.1
752.491	0.1
752.802	0.1
753.112	0.1
753.423	0.1
753.734	0.1
754.044	0.1
754.355	0.1
754.665	0.1
754.975	0.09
755.285	0.09
755.596	0.09
755.906	0.1
756.216	0.09
756.526	0.09
756.836	0.09
757.146	0.09
757.455	0.09
757.765	0.09
758.075	0.09
758.385	0.08
758.694	0.08
759.004	0.08
759.313	0.08
759.622	0.08
759.932	0.08
760.241	0.08
760.55	0.08
760.859	0.08
761.168	0.08
761.477	0.08
761.786	0.08
762.095	0.08
762.404	0.08
762.713	0.08
763.021	0.08
763.33	0.08
763.639	0.08
763.947	0.08
764.256	0.08
764.564	0.08
764.872	0.08
765.181	0.08
765.489	0.08
765.797	0.08
766.105	0.08
766.413	0.08
766.721	0.08
767.029	0.08
767.337	0.08
767.644	0.08
767.952	0.08
768.26	0.08
768.567	0.08
768.875	0.08
769.182	0.08
769.49	0.08
769.797	0.08
770.104	0.08
770.411	0.08
770.718	0.08
771.026	0.08
771.333	0.08
771.639	0.08
771.946	0.08
772.253	0.08
772.56	0.08
772.867	0.08
773.173	0.08
773.48	0.08
773.786	0.08
774.093	0.08
774.399	0.08
774.705	0.08
775.012	0.08
775.318	0.08
775.624	0.08
775.93	0.08
776.236	0.08
776.542	0.08
776.848	0.08
777.154	0.08
777.459	0.08
777.765	0.08
778.071	0.09
778.376	0.09
778.682	0.08
778.987	0.08
779.292	0.08
779.598	0.08
779.903	0.08
780.208	0.08
780.513	0.08
780.818	0.09
781.123	0.09
781.428	0.09
781.733	0.09
782.038	0.09
782.343	0.09
782.647	0.09
782.952	0.09
783.256	0.09
783.561	0.09
783.865	0.09
784.17	0.09
784.474	0.09
784.778	0.09
785.082	0.09
785.386	0.09
785.69	0.09
785.994	0.09
786.298	0.09
786.602	0.09
786.906	0.09
787.209	0.09
787.513	0.09
787.817	0.09
788.12	0.1
788.424	0.09
788.727	0.09
789.03	0.09
789.333	0.09
789.637	0.09
789.94	0.09
790.243	0.09
790.546	0.09
790.849	0.09
791.152	0.09
791.454	0.09
791.757	0.09
792.06	0.1
792.362	0.1
792.665	0.1
792.967	0.1
793.27	0.1
793.572	0.1
793.874	0.1
794.177	0.1
794.479	0.1
794.781	0.1
795.083	0.1
795.385	0.1
795.687	0.1
795.989	0.1
796.29	0.1
796.592	0.11
796.894	0.11
797.195	0.11
797.497	0.11
797.798	0.11
798.1	0.11
798.401	0.11
798.702	0.11
799.003	0.11
799.304	0.11
799.605	0.11
799.906	0.11
800.207	0.11
800.508	0.11
800.809	0.11
801.11	0.11
801.41	0.11
801.711	0.11
802.011	0.11
802.312	0.11
802.612	0.11
802.913	0.11
803.213	0.12
803.513	0.11
803.813	0.11
804.113	0.11
804.413	0.11
804.713	0.11
805.013	0.11
805.313	0.12
805.613	0.12
805.912	0.12
806.212	0.12
806.511	0.12
806.811	0.12
807.11	0.12
807.41	0.12
807.709	0.12
808.008	0.12
808.307	0.12
808.606	0.12
808.905	0.12
809.204	0.12
809.503	0.12
809.802	0.12
810.101	0.13
810.399	0.13
810.698	0.13
810.997	0.13
811.295	0.13
811.593	0.13
811.892	0.13
812.19	0.13
812.488	0.13
812.786	0.13
813.084	0.13
813.383	0.13
813.68	0.13
813.978	0.14
814.276	0.13
814.574	0.13
814.872	0.13
815.169	0.13
815.467	0.14
815.764	0.13
816.062	0.14
816.359	0.13
816.656	0.14
816.954	0.14
817.251	0.14
817.548	0.14
817.845	0.14
818.142	0.14
818.439	0.14
818.735	0.15
819.032	0.15
819.329	0.15
819.626	0.15
819.922	0.15
820.219	0.15
820.515	0.15
820.811	0.15
821.108	0.15
821.404	0.14
821.7	0.15
821.996	0.15
822.292	0.15
822.588	0.15
822.884	0.15
823.18	0.15
823.475	0.14
823.771	0.15
824.067	0.15
824.362	0.15
824.658	0.15
824.953	0.16
825.249	0.15
825.544	0.16
825.839	0.16
826.134	0.16
826.429	0.16
826.724	0.15
827.019	0.16
827.314	0.16
827.609	0.15
827.904	0.17
828.198	0.17
828.493	0.17
828.787	0.16
829.082	0.16
829.376	0.16
829.671	0.16
829.965	0.16
830.259	0.16
830.553	0.17
830.847	0.17
831.141	0.16
831.435	0.17
831.729	0.17
832.023	0.18
832.317	0.17
832.61	0.17
832.904	0.17
833.197	0.18
833.491	0.18
833.784	0.18
834.077	0.17
834.371	0.17
834.664	0.17
834.957	0.17
835.25	0.19
835.543	0.18
835.836	0.19
836.129	0.17
836.421	0.18
836.714	0.18
837.007	0.17
837.299	0.18
837.592	0.18
837.884	0.18
838.177	0.17
838.469	0.19
838.761	0.18
839.053	0.18
839.345	0.18
839.637	0.19
839.929	0.19
840.221	0.18
840.513	0.19
840.805	0.19
841.096	0.19
841.388	0.19
841.68	0.19
841.971	0.19
842.262	0.19
842.554	0.18
842.845	0.19
843.136	0.2
843.427	0.19
843.718	0.19
844.009	0.19
844.3	0.2
844.591	0.2
844.882	0.2
845.173	0.2
845.463	0.21
845.754	0.2
846.044	0.2
846.335	0.19
846.625	0.21
846.915	0.2
847.206	0.21
847.496	0.2
847.786	0.2
848.076	0.21
848.366	0.19
848.656	0.22
848.945	0.21
849.235	0.2
849.525	0.2
849.814	0.21
850.104	0.19
850.393	0.2
850.683	0.21
850.972	0.21
851.261	0.2
851.551	0.22
851.84	0.22
852.129	0.21
852.418	0.21
852.707	0.21
852.995	0.22
853.284	0.22
853.573	0.22
853.862	0.21
854.15	0.23
854.439	0.21
854.727	0.23
855.015	0.22
855.304	0.22
855.592	0.22
855.88	0.23
856.168	0.23
856.456	0.23
856.744	0.23
857.032	0.22
857.32	0.23
857.607	0.24
857.895	0.22
858.183	0.25
858.47	0.22
858.757	0.22
859.045	0.23
859.332	0.22
859.619	0.24
859.907	0.25
860.194	0.23
860.481	0.24
860.768	0.22
861.054	0.23
861.341	0.22
861.628	0.23
861.915	0.23
862.201	0.25
862.488	0.25
862.774	0.23
863.061	0.24
863.347	0.23
863.633	0.23
863.919	0.2
864.205	0.23
864.491	0.24
864.777	0.24
865.063	0.23
865.349	0.23
865.635	0.23
865.92	0.24
866.206	0.24
866.492	0.22
866.777	0.2
867.062	0.23
867.348	0.21
867.633	0.24
867.918	0.25
868.203	0.23
868.488	0.24
868.773	0.23
869.058	0.24
869.343	0.25
869.628	0.18
869.912	0.22
870.197	0.28
870.482	0.24
870.766	0.28
871.05	0.22
871.335	0.23
871.619	0.15
871.903	0.17
872.187	0.21
872.471	0.2
872.755	0.27
873.039	0.18
873.323	0.27
873.607	0.26
873.89	0.24
874.174	0.27
874.458	0.19
874.741	0.21
875.024	0.24
875.308	0.2
875.591	0.32
875.874	0.26
876.157	0.16
876.44	0.25
876.723	0.24
877.006	0.23
877.289	0.26
877.572	0.27
877.854	0.27
878.137	0.28
878.42	0.11
878.702	0.25
878.984	0.15
879.267	0.18
879.549	0.29
879.831	0.26
880.113	0.26
880.395	0.16
880.677	0.26
880.959	0.21
