Data from Rubpy_BV_1800_EDTA_Buffered_Absorbance_17-06-11-581.txt Node
Date: Wed Jul 01 17:06:11 BST 2026
User: fpm-admin
Spectrometer: OFX00224
Trigger mode: 0
Integration Time (sec): 7.000000E-2
Scans to average: 3
Nonlinearity correction enabled: false
Boxcar width: 0
Storing dark spectrum: false
XAxis mode: Wavelengths
Number of Pixels in Spectrum: 2136
>>>>>Begin Spectral Data<<<<<
154.91	-0
155.289	-0.21
155.669	-0
156.048	-0
156.428	-0
156.807	0.29
157.186	-0
157.566	-0.36
157.945	-0.8
158.325	0.04
158.704	-0.07
159.083	0.44
159.462	-0.72
159.842	-0
160.221	0.4
160.6	-0
160.979	0.75
161.359	-0
161.738	-0
162.117	-0
162.496	-0.1
162.875	-0.13
163.254	0.07
163.633	0.49
164.012	-0.01
164.391	0.3
164.77	0.11
165.149	-0.3
165.528	-0
165.907	-0
166.286	0.3
166.665	1.32
167.044	0.98
167.423	0.13
167.802	-0.46
168.181	-1.63
168.559	-0.94
168.938	0.17
169.317	1.23
169.696	-1.48
170.074	0.52
170.453	0.11
170.832	-0
171.21	0.06
171.589	-0.37
171.968	0.49
172.346	-0.43
172.725	-0
173.103	-0.17
173.482	-0
173.861	-0
174.239	-0.52
174.617	0.51
174.996	0.07
175.374	-0.48
175.753	-0.56
176.131	0.98
176.51	-0
176.888	-0
177.266	-0
177.645	0.02
178.023	0.37
178.401	-0.18
178.779	0.25
179.158	0.78
179.536	0.16
179.914	0.02
180.292	-0.29
180.67	-0.24
181.048	0.18
181.427	-0.14
181.805	-0.65
182.183	-0.66
182.561	-0.2
182.939	0.7
183.317	-0
183.695	0.23
184.073	-0
184.451	-0.76
184.829	0.57
185.206	-0.68
185.584	-0
185.962	-0.12
186.34	0.09
186.718	0.11
187.096	-0
187.473	-0.46
187.851	-0
188.229	0.3
188.607	0.26
188.984	0.26
189.362	0.22
189.74	0.39
190.117	0.41
190.495	0.19
190.872	0.22
191.25	0.39
191.627	0.31
192.005	0.18
192.382	0.37
192.76	0.35
193.137	0.22
193.515	0.4
193.892	0.31
194.269	0.26
194.647	0.22
195.024	0.28
195.401	0.24
195.779	0.17
196.156	0.34
196.533	0.29
196.91	0.29
197.288	0.37
197.665	0.16
198.042	0.18
198.419	0.28
198.796	0.3
199.173	0.44
199.55	0.31
199.927	0.32
200.304	0.34
200.681	0.37
201.058	0.3
201.435	0.4
201.812	0.36
202.189	0.33
202.566	0.28
202.943	0.19
203.32	0.37
203.697	0.22
204.073	0.19
204.45	0.42
204.827	0.3
205.204	0.23
205.58	0.33
205.957	0.34
206.334	0.22
206.71	0.36
207.087	0.38
207.464	0.48
207.84	0.35
208.217	0.37
208.593	0.31
208.97	0.37
209.346	0.35
209.723	0.28
210.099	0.26
210.476	0.51
210.852	0.52
211.228	0.32
211.605	0.28
211.981	0.29
212.357	0.41
212.733	0.26
213.11	0.32
213.486	0.4
213.862	0.28
214.238	0.33
214.614	0.27
214.991	0.4
215.367	0.45
215.743	0.24
216.119	0.32
216.495	0.63
216.871	0.55
217.247	0.3
217.623	0.2
217.999	0.44
218.375	0.42
218.751	0.24
219.127	0.39
219.502	0.19
219.878	0.29
220.254	0.43
220.63	0.27
221.006	0.51
221.381	0.36
221.757	0.33
222.133	0.33
222.508	0.36
222.884	0.23
223.26	0.32
223.635	0.34
224.011	0.3
224.386	0.28
224.762	0.57
225.137	0.37
225.513	0.24
225.888	0.33
226.264	0.21
226.639	0.27
227.014	0.42
227.39	0.33
227.765	0.25
228.14	0.36
228.516	0.51
228.891	0.4
229.266	0.37
229.641	0.27
230.017	0.44
230.392	0.23
230.767	0.54
231.142	0.4
231.517	0.35
231.892	0.33
232.267	0.4
232.642	0.43
233.017	0.35
233.392	0.32
233.767	0.42
234.142	0.18
234.517	0.18
234.892	0.38
235.267	0.23
235.641	0.35
236.016	0.38
236.391	0.36
236.766	0.2
237.14	0.34
237.515	0.5
237.89	0.39
238.264	0.37
238.639	0.28
239.014	0.29
239.388	0.36
239.763	0.31
240.137	0.2
240.512	0.24
240.886	0.44
241.261	0.24
241.635	0.37
242.009	0.37
242.384	0.32
242.758	0.43
243.132	0.28
243.507	0.33
243.881	0.48
244.255	0.39
244.629	0.35
245.004	0.31
245.378	0.45
245.752	0.35
246.126	0.43
246.5	0.32
246.874	0.23
247.248	0.3
247.622	0.38
247.996	0.24
248.37	0.29
248.744	0.34
249.118	0.43
249.492	0.42
249.866	0.28
250.24	0.42
250.613	0.32
250.987	0.45
251.361	0.4
251.735	0.32
252.108	0.3
252.482	0.36
252.856	0.36
253.229	0.36
253.603	0.19
253.977	0.34
254.35	0.26
254.724	0.3
255.097	0.29
255.471	0.24
255.844	0.4
256.218	0.33
256.591	0.27
256.964	0.43
257.338	0.28
257.711	0.33
258.084	0.29
258.458	0.49
258.831	0.44
259.204	0.29
259.577	0.28
259.95	0.34
260.323	0.33
260.697	0.33
261.07	0.24
261.443	0.46
261.816	0.31
262.189	0.35
262.562	0.41
262.935	0.39
263.308	0.48
263.68	0.33
264.053	0.42
264.426	0.43
264.799	0.28
265.172	0.52
265.545	0.37
265.917	0.38
266.29	0.32
266.663	0.49
267.035	0.35
267.408	0.36
267.781	0.43
268.153	0.39
268.526	0.4
268.898	0.35
269.271	0.35
269.643	0.27
270.016	0.49
270.388	0.19
270.76	0.51
271.133	0.33
271.505	0.38
271.877	0.31
272.25	0.41
272.622	0.37
272.994	0.34
273.366	0.38
273.739	0.24
274.111	0.4
274.483	0.23
274.855	0.36
275.227	0.45
275.599	0.35
275.971	0.32
276.343	0.29
276.715	0.35
277.087	0.37
277.459	0.46
277.831	0.41
278.203	0.33
278.574	0.4
278.946	0.4
279.318	0.37
279.69	0.4
280.061	0.38
280.433	0.4
280.805	0.27
281.176	0.4
281.548	0.41
281.92	0.36
282.291	0.32
282.663	0.31
283.034	0.4
283.406	0.34
283.777	0.35
284.148	0.36
284.52	0.38
284.891	0.35
285.262	0.38
285.634	0.37
286.005	0.33
286.376	0.37
286.747	0.44
287.119	0.28
287.49	0.36
287.861	0.39
288.232	0.4
288.603	0.4
288.974	0.32
289.345	0.36
289.716	0.32
290.087	0.33
290.458	0.36
290.829	0.36
291.2	0.31
291.571	0.4
291.941	0.46
292.312	0.27
292.683	0.31
293.054	0.37
293.424	0.22
293.795	0.28
294.166	0.34
294.536	0.43
294.907	0.3
295.277	0.34
295.648	0.62
296.018	0.4
296.389	0.24
296.759	0.27
297.13	0.42
297.5	0.42
297.871	0.35
298.241	0.31
298.611	0.38
298.981	0.27
299.352	0.36
299.722	0.37
300.092	0.35
300.462	0.38
300.832	0.47
301.202	0.37
301.573	0.48
301.943	0.34
302.313	0.31
302.683	0.34
303.053	0.41
303.422	0.37
303.792	0.41
304.162	0.33
304.532	0.42
304.902	0.32
305.272	0.33
305.641	0.37
306.011	0.32
306.381	0.27
306.75	0.35
307.12	0.29
307.49	0.29
307.859	0.35
308.229	0.29
308.598	0.27
308.968	0.3
309.337	0.28
309.707	0.27
310.076	0.3
310.445	0.25
310.815	0.24
311.184	0.32
311.553	0.28
311.923	0.26
312.292	0.26
312.661	0.27
313.03	0.28
313.399	0.3
313.768	0.29
314.137	0.28
314.506	0.29
314.875	0.31
315.244	0.27
315.613	0.29
315.982	0.3
316.351	0.32
316.72	0.31
317.089	0.31
317.458	0.32
317.826	0.34
318.195	0.32
318.564	0.35
318.933	0.34
319.301	0.33
319.67	0.34
320.038	0.34
320.407	0.35
320.775	0.35
321.144	0.37
321.512	0.36
321.881	0.38
322.249	0.38
322.618	0.38
322.986	0.38
323.354	0.39
323.723	0.39
324.091	0.4
324.459	0.42
324.827	0.41
325.195	0.41
325.564	0.43
325.932	0.44
326.3	0.44
326.668	0.46
327.036	0.45
327.404	0.46
327.772	0.46
328.14	0.47
328.508	0.47
328.875	0.48
329.243	0.49
329.611	0.5
329.979	0.51
330.346	0.51
330.714	0.52
331.082	0.53
331.449	0.53
331.817	0.53
332.185	0.56
332.552	0.56
332.92	0.57
333.287	0.58
333.655	0.61
334.022	0.62
334.389	0.61
334.757	0.63
335.124	0.65
335.491	0.66
335.859	0.66
336.226	0.68
336.593	0.69
336.96	0.72
337.327	0.71
337.695	0.73
338.062	0.74
338.429	0.74
338.796	0.78
339.163	0.79
339.53	0.81
339.897	0.83
340.263	0.84
340.63	0.85
340.997	0.86
341.364	0.87
341.731	0.89
342.097	0.9
342.464	0.93
342.831	0.94
343.197	0.94
343.564	0.96
343.931	0.97
344.297	0.99
344.664	1
345.03	1.03
345.396	1.03
345.763	1.05
346.129	1.06
346.496	1.08
346.862	1.09
347.228	1.1
347.594	1.12
347.961	1.14
348.327	1.15
348.693	1.17
349.059	1.17
349.425	1.18
349.791	1.22
350.157	1.22
350.523	1.23
350.889	1.23
351.255	1.28
351.621	1.27
351.987	1.29
352.353	1.28
352.719	1.3
353.084	1.33
353.45	1.32
353.816	1.36
354.181	1.37
354.547	1.41
354.913	1.41
355.278	1.44
355.644	1.4
356.009	1.44
356.375	1.45
356.74	1.48
357.106	1.47
357.471	1.5
357.836	1.54
358.202	1.55
358.567	1.53
358.932	1.58
359.297	1.59
359.663	1.6
360.028	1.64
360.393	1.64
360.758	1.64
361.123	1.67
361.488	1.68
361.853	1.71
362.218	1.74
362.583	1.79
362.948	1.78
363.312	1.76
363.677	1.77
364.042	1.82
364.407	1.83
364.772	1.85
365.136	1.83
365.501	1.83
365.865	1.88
366.23	1.88
366.595	1.89
366.959	1.92
367.324	1.92
367.688	1.91
368.052	1.95
368.417	1.91
368.781	1.89
369.145	1.93
369.51	1.99
369.874	2.01
370.238	1.96
370.602	1.9
370.967	2.01
371.331	1.98
371.695	1.98
372.059	2
372.423	1.96
372.787	1.95
373.151	1.97
373.515	1.99
373.878	2
374.242	1.94
374.606	1.93
374.97	1.97
375.334	1.94
375.697	1.91
376.061	1.91
376.425	1.98
376.788	1.9
377.152	1.92
377.515	1.89
377.879	1.9
378.242	1.81
378.606	1.82
378.969	1.81
379.333	1.81
379.696	1.8
380.059	1.76
380.422	1.75
380.786	1.75
381.149	1.75
381.512	1.71
381.875	1.69
382.238	1.66
382.601	1.65
382.964	1.63
383.327	1.63
383.69	1.6
384.053	1.56
384.416	1.56
384.779	1.55
385.142	1.54
385.504	1.54
385.867	1.54
386.23	1.5
386.593	1.5
386.955	1.48
387.318	1.47
387.68	1.46
388.043	1.47
388.405	1.44
388.768	1.46
389.13	1.44
389.493	1.44
389.855	1.41
390.217	1.4
390.58	1.41
390.942	1.38
391.304	1.36
391.666	1.33
392.028	1.33
392.391	1.3
392.753	1.29
393.115	1.27
393.477	1.26
393.839	1.26
394.201	1.24
394.563	1.22
394.924	1.22
395.286	1.21
395.648	1.22
396.01	1.22
396.371	1.23
396.733	1.25
397.095	1.26
397.456	1.28
397.818	1.3
398.18	1.32
398.541	1.34
398.903	1.37
399.264	1.39
399.625	1.42
399.987	1.45
400.348	1.47
400.709	1.5
401.071	1.51
401.432	1.49
401.793	1.5
402.154	1.47
402.515	1.47
402.876	1.45
403.238	1.4
403.599	1.38
403.96	1.36
404.32	1.29
404.681	1.26
405.042	1.2
405.403	1.15
405.764	1.11
406.125	1.08
406.485	1.01
406.846	0.95
407.207	0.91
407.567	0.87
407.928	0.82
408.288	0.78
408.649	0.74
409.009	0.69
409.37	0.65
409.73	0.62
410.091	0.59
410.451	0.56
410.811	0.53
411.171	0.51
411.532	0.48
411.892	0.45
412.252	0.44
412.612	0.42
412.972	0.41
413.332	0.38
413.692	0.38
414.052	0.36
414.412	0.35
414.772	0.34
415.132	0.32
415.492	0.31
415.851	0.29
416.211	0.29
416.571	0.28
416.931	0.28
417.29	0.26
417.65	0.26
418.009	0.25
418.369	0.25
418.728	0.24
419.088	0.24
419.447	0.24
419.807	0.24
420.166	0.22
420.525	0.22
420.884	0.22
421.244	0.21
421.603	0.21
421.962	0.2
422.321	0.2
422.68	0.2
423.039	0.19
423.398	0.19
423.757	0.19
424.116	0.19
424.475	0.18
424.834	0.18
425.193	0.18
425.551	0.18
425.91	0.18
426.269	0.18
426.628	0.18
426.986	0.17
427.345	0.16
427.703	0.16
428.062	0.17
428.42	0.17
428.779	0.17
429.137	0.17
429.496	0.16
429.854	0.17
430.212	0.17
430.57	0.17
430.929	0.16
431.287	0.16
431.645	0.16
432.003	0.16
432.361	0.16
432.719	0.16
433.077	0.16
433.435	0.16
433.793	0.17
434.151	0.15
434.509	0.16
434.866	0.15
435.224	0.16
435.582	0.16
435.94	0.15
436.297	0.16
436.655	0.17
437.012	0.15
437.37	0.16
437.727	0.15
438.085	0.16
438.442	0.16
438.8	0.16
439.157	0.16
439.514	0.15
439.872	0.15
440.229	0.16
440.586	0.14
440.943	0.16
441.3	0.16
441.657	0.16
442.014	0.16
442.371	0.15
442.728	0.15
443.085	0.16
443.442	0.15
443.799	0.15
444.156	0.16
444.513	0.16
444.869	0.16
445.226	0.15
445.583	0.17
445.939	0.16
446.296	0.15
446.652	0.16
447.009	0.17
447.365	0.17
447.722	0.17
448.078	0.16
448.434	0.16
448.791	0.16
449.147	0.17
449.503	0.16
449.859	0.15
450.215	0.16
450.571	0.16
450.928	0.16
451.284	0.16
451.64	0.17
451.995	0.17
452.351	0.17
452.707	0.16
453.063	0.16
453.419	0.16
453.775	0.15
454.13	0.16
454.486	0.16
454.842	0.16
455.197	0.16
455.553	0.15
455.908	0.15
456.264	0.15
456.619	0.15
456.975	0.15
457.33	0.14
457.685	0.15
458.04	0.14
458.396	0.14
458.751	0.13
459.106	0.13
459.461	0.13
459.816	0.14
460.171	0.13
460.526	0.12
460.881	0.11
461.236	0.11
461.591	0.12
461.946	0.1
462.301	0.11
462.655	0.11
463.01	0.11
463.365	0.09
463.719	0.09
464.074	0.08
464.428	0.07
464.783	0.07
465.137	0.08
465.492	0.08
465.846	0.08
466.201	0.08
466.555	0.09
466.909	0.09
467.263	0.1
467.618	0.09
467.972	0.1
468.326	0.1
468.68	0.09
469.034	0.08
469.388	0.09
469.742	0.09
470.096	0.1
470.45	0.1
470.804	0.1
471.157	0.1
471.511	0.1
471.865	0.1
472.218	0.12
472.572	0.12
472.926	0.12
473.279	0.13
473.633	0.15
473.986	0.15
474.34	0.16
474.693	0.17
475.046	0.18
475.4	0.19
475.753	0.21
476.106	0.21
476.459	0.22
476.812	0.24
477.165	0.24
477.519	0.25
477.872	0.26
478.224	0.27
478.577	0.28
478.93	0.28
479.283	0.3
479.636	0.3
479.989	0.31
480.341	0.31
480.694	0.32
481.047	0.34
481.399	0.34
481.752	0.34
482.104	0.35
482.457	0.37
482.809	0.37
483.162	0.37
483.514	0.38
483.866	0.39
484.219	0.39
484.571	0.41
484.923	0.4
485.275	0.41
485.627	0.42
485.979	0.43
486.331	0.43
486.683	0.44
487.035	0.44
487.387	0.45
487.739	0.47
488.091	0.46
488.443	0.47
488.794	0.48
489.146	0.48
489.498	0.48
489.849	0.49
490.201	0.49
490.552	0.49
490.904	0.5
491.255	0.5
491.607	0.52
491.958	0.52
492.309	0.52
492.661	0.53
493.012	0.53
493.363	0.54
493.714	0.54
494.065	0.55
494.416	0.55
494.767	0.56
495.118	0.56
495.469	0.57
495.82	0.57
496.171	0.57
496.522	0.58
496.872	0.58
497.223	0.59
497.574	0.6
497.924	0.6
498.275	0.61
498.626	0.61
498.976	0.62
499.327	0.62
499.677	0.63
500.027	0.63
500.378	0.63
500.728	0.64
501.078	0.65
501.428	0.65
501.779	0.66
502.129	0.66
502.479	0.67
502.829	0.67
503.179	0.68
503.529	0.68
503.879	0.69
504.229	0.69
504.578	0.7
504.928	0.69
505.278	0.7
505.628	0.71
505.977	0.71
506.327	0.71
506.676	0.72
507.026	0.72
507.375	0.74
507.725	0.74
508.074	0.74
508.424	0.74
508.773	0.74
509.122	0.75
509.471	0.76
509.82	0.76
510.17	0.77
510.519	0.77
510.868	0.76
511.217	0.77
511.566	0.78
511.915	0.79
512.263	0.8
512.612	0.79
512.961	0.8
513.31	0.8
513.659	0.81
514.007	0.82
514.356	0.81
514.704	0.81
515.053	0.82
515.401	0.81
515.75	0.82
516.098	0.84
516.447	0.84
516.795	0.83
517.143	0.84
517.491	0.85
517.839	0.85
518.188	0.85
518.536	0.85
518.884	0.85
519.232	0.86
519.58	0.87
519.928	0.87
520.275	0.87
520.623	0.87
520.971	0.88
521.319	0.89
521.666	0.89
522.014	0.88
522.362	0.9
522.709	0.9
523.057	0.9
523.404	0.9
523.752	0.91
524.099	0.9
524.446	0.91
524.794	0.9
525.141	0.91
525.488	0.92
525.835	0.92
526.182	0.92
526.529	0.92
526.876	0.93
527.223	0.93
527.57	0.93
527.917	0.93
528.264	0.93
528.611	0.94
528.958	0.94
529.304	0.95
529.651	0.94
529.998	0.95
530.344	0.95
530.691	0.95
531.037	0.95
531.384	0.96
531.73	0.96
532.076	0.96
532.423	0.96
532.769	0.97
533.115	0.97
533.461	0.97
533.807	0.96
534.154	0.97
534.5	0.97
534.846	0.98
535.192	0.97
535.537	0.98
535.883	0.98
536.229	0.98
536.575	0.99
536.921	0.99
537.266	1
537.612	0.99
537.957	0.99
538.303	0.99
538.649	0.99
538.994	1
539.339	1
539.685	1.01
540.03	1.01
540.375	1.01
540.721	1
541.066	1.01
541.411	1
541.756	1
542.101	1
542.446	1.01
542.791	1.01
543.136	1.02
543.481	1.01
543.825	1.01
544.17	1.01
544.515	1.02
544.86	1.02
545.204	1.02
545.549	1.01
545.893	1.02
546.238	1.02
546.582	1.02
546.927	1.02
547.271	1.02
547.615	1.02
547.96	1.03
548.304	1.02
548.648	1.02
548.992	1.03
549.336	1.02
549.68	1.02
550.024	1.03
550.368	1.03
550.712	1.03
551.056	1.03
551.4	1.02
551.743	1.02
552.087	1.03
552.431	1.02
552.774	1.02
553.118	1.02
553.462	1.02
553.805	1.02
554.148	1.02
554.492	1.02
554.835	1.02
555.178	1.02
555.522	1.03
555.865	1.02
556.208	1.02
556.551	1.02
556.894	1.02
557.237	1.01
557.58	1.02
557.923	1.02
558.266	1.02
558.609	1.02
558.952	1.01
559.294	1.01
559.637	1.01
559.98	1.01
560.322	1.01
560.665	1.01
561.007	1.01
561.35	1
561.692	1
562.034	1
562.377	1
562.719	1.01
563.061	1
563.403	1
563.745	1
564.088	1
564.43	1
564.772	0.99
565.113	1
565.455	0.99
565.797	0.99
566.139	0.99
566.481	0.99
566.822	0.98
567.164	0.99
567.506	0.99
567.847	0.99
568.189	0.99
568.53	0.97
568.872	0.98
569.213	0.98
569.554	0.97
569.895	0.98
570.237	0.98
570.578	0.97
570.919	0.97
571.26	0.97
571.601	0.96
571.942	0.96
572.283	0.96
572.624	0.96
572.965	0.96
573.306	0.95
573.646	0.95
573.987	0.95
574.328	0.95
574.668	0.94
575.009	0.94
575.349	0.94
575.69	0.93
576.03	0.93
576.37	0.93
576.711	0.92
577.051	0.93
577.391	0.92
577.731	0.93
578.072	0.92
578.412	0.92
578.752	0.92
579.092	0.92
579.431	0.9
579.771	0.89
580.111	0.89
580.451	0.9
580.791	0.91
581.13	0.91
581.47	0.9
581.81	0.9
582.149	0.9
582.489	0.9
582.828	0.89
583.167	0.87
583.507	0.83
583.846	0.83
584.185	0.88
584.525	0.89
584.864	0.89
585.203	0.89
585.542	0.89
585.881	0.89
586.22	0.88
586.559	0.88
586.898	0.87
587.236	0.87
587.575	0.87
587.914	0.88
588.252	0.88
588.591	0.87
588.93	0.88
589.268	0.87
589.607	0.87
589.945	0.87
590.283	0.87
590.622	0.87
590.96	0.88
591.298	0.87
591.636	0.87
591.974	0.88
592.313	0.87
592.651	0.87
592.989	0.87
593.326	0.87
593.664	0.87
594.002	0.86
594.34	0.86
594.678	0.86
595.015	0.86
595.353	0.85
595.691	0.86
596.028	0.87
596.366	0.87
596.703	0.87
597.04	0.87
597.378	0.86
597.715	0.87
598.052	0.87
598.389	0.86
598.726	0.87
599.064	0.86
599.401	0.86
599.738	0.86
600.074	0.86
600.411	0.86
600.748	0.85
601.085	0.85
601.422	0.84
601.758	0.85
602.095	0.84
602.432	0.85
602.768	0.85
603.105	0.85
603.441	0.84
603.777	0.85
604.114	0.85
604.45	0.84
604.786	0.84
605.122	0.84
605.459	0.83
605.795	0.83
606.131	0.83
606.467	0.83
606.803	0.83
607.139	0.83
607.474	0.82
607.81	0.82
608.146	0.82
608.482	0.82
608.817	0.81
609.153	0.81
609.488	0.81
609.824	0.8
610.159	0.81
610.495	0.8
610.83	0.8
611.165	0.8
611.5	0.8
611.836	0.79
612.171	0.79
612.506	0.79
612.841	0.79
613.176	0.79
613.511	0.78
613.845	0.78
614.18	0.78
614.515	0.78
614.85	0.77
615.184	0.77
615.519	0.77
615.854	0.76
616.188	0.76
616.523	0.76
616.857	0.75
617.191	0.75
617.526	0.75
617.86	0.75
618.194	0.74
618.528	0.74
618.862	0.74
619.196	0.74
619.53	0.74
619.864	0.73
620.198	0.73
620.532	0.73
620.866	0.73
621.2	0.72
621.533	0.72
621.867	0.72
622.201	0.71
622.534	0.71
622.868	0.7
623.201	0.71
623.534	0.71
623.868	0.7
624.201	0.69
624.534	0.69
624.868	0.69
625.201	0.69
625.534	0.69
625.867	0.68
626.2	0.68
626.533	0.68
626.865	0.67
627.198	0.67
627.531	0.67
627.864	0.67
628.196	0.66
628.529	0.65
628.862	0.65
629.194	0.65
629.527	0.64
629.859	0.64
630.191	0.64
630.524	0.64
630.856	0.63
631.188	0.63
631.52	0.62
631.852	0.62
632.184	0.62
632.516	0.61
632.848	0.61
633.18	0.61
633.512	0.61
633.844	0.6
634.175	0.6
634.507	0.6
634.839	0.59
635.17	0.59
635.502	0.58
635.833	0.58
636.165	0.58
636.496	0.57
636.827	0.57
637.159	0.56
637.49	0.56
637.821	0.56
638.152	0.55
638.483	0.55
638.814	0.54
639.145	0.54
639.476	0.54
639.807	0.53
640.137	0.53
640.468	0.53
640.799	0.52
641.129	0.52
641.46	0.51
641.791	0.51
642.121	0.51
642.451	0.5
642.782	0.51
643.112	0.5
643.442	0.5
643.773	0.5
644.103	0.5
644.433	0.49
644.763	0.49
645.093	0.49
645.423	0.48
645.753	0.48
646.082	0.48
646.412	0.48
646.742	0.47
647.072	0.47
647.401	0.47
647.731	0.47
648.06	0.46
648.39	0.46
648.719	0.46
649.048	0.46
649.378	0.45
649.707	0.45
650.036	0.45
650.365	0.45
650.694	0.44
651.023	0.45
651.352	0.44
651.681	0.44
652.01	0.44
652.339	0.44
652.668	0.44
652.996	0.43
653.325	0.43
653.654	0.43
653.982	0.43
654.311	0.43
654.639	0.43
654.967	0.43
655.296	0.43
655.624	0.43
655.952	0.43
656.28	0.42
656.609	0.42
656.937	0.42
657.265	0.4
657.593	0.26
657.92	0.17
658.248	0.14
658.576	0.22
658.904	0.35
659.231	0.4
659.559	0.41
659.887	0.4
660.214	0.4
660.542	0.4
660.869	0.4
661.196	0.4
661.524	0.4
661.851	0.4
662.178	0.4
662.505	0.39
662.832	0.39
663.159	0.39
663.486	0.39
663.813	0.39
664.14	0.39
664.467	0.38
664.794	0.38
665.12	0.38
665.447	0.38
665.774	0.38
666.1	0.37
666.427	0.37
666.753	0.37
667.079	0.37
667.406	0.37
667.732	0.37
668.058	0.36
668.384	0.36
668.71	0.36
669.036	0.36
669.362	0.35
669.688	0.35
670.014	0.35
670.34	0.35
670.666	0.34
670.991	0.34
671.317	0.34
671.643	0.34
671.968	0.34
672.294	0.34
672.619	0.33
672.945	0.33
673.27	0.33
673.595	0.32
673.92	0.32
674.246	0.32
674.571	0.32
674.896	0.32
675.221	0.31
675.546	0.31
675.87	0.31
676.195	0.3
676.52	0.3
676.845	0.3
677.169	0.3
677.494	0.3
677.819	0.29
678.143	0.29
678.468	0.29
678.792	0.28
679.116	0.29
679.44	0.28
679.765	0.27
680.089	0.27
680.413	0.27
680.737	0.27
681.061	0.26
681.385	0.26
681.709	0.26
682.033	0.26
682.356	0.26
682.68	0.25
683.004	0.25
683.327	0.25
683.651	0.24
683.974	0.24
684.298	0.24
684.621	0.24
684.944	0.24
685.268	0.23
685.591	0.23
685.914	0.22
686.237	0.22
686.56	0.22
686.883	0.22
687.206	0.22
687.529	0.22
687.852	0.21
688.175	0.21
688.497	0.21
688.82	0.21
689.142	0.2
689.465	0.2
689.787	0.2
690.11	0.2
690.432	0.19
690.755	0.19
691.077	0.19
691.399	0.19
691.721	0.18
692.043	0.18
692.365	0.18
692.687	0.18
693.009	0.17
693.331	0.17
693.653	0.17
693.974	0.17
694.296	0.17
694.618	0.17
694.939	0.17
695.261	0.16
695.582	0.16
695.904	0.16
696.225	0.16
696.546	0.16
696.868	0.16
697.189	0.16
697.51	0.15
697.831	0.16
698.152	0.15
698.473	0.15
698.794	0.15
699.114	0.15
699.435	0.14
699.756	0.14
700.077	0.14
700.397	0.14
700.718	0.14
701.038	0.14
701.359	0.14
701.679	0.14
701.999	0.14
702.32	0.14
702.64	0.14
702.96	0.14
703.28	0.14
703.6	0.14
703.92	0.13
704.24	0.13
704.56	0.13
704.879	0.13
705.199	0.13
705.519	0.13
705.838	0.13
706.158	0.13
706.478	0.13
706.797	0.13
707.116	0.13
707.436	0.13
707.755	0.13
708.074	0.13
708.393	0.12
708.712	0.12
709.031	0.11
709.35	0.11
709.669	0.11
709.988	0.12
710.307	0.12
710.626	0.12
710.944	0.12
711.263	0.12
711.582	0.12
711.9	0.12
712.219	0.12
712.537	0.12
712.855	0.12
713.174	0.12
713.492	0.12
713.81	0.12
714.128	0.12
714.446	0.12
714.764	0.12
715.082	0.12
715.4	0.12
715.718	0.12
716.035	0.12
716.353	0.12
716.671	0.12
716.988	0.12
717.306	0.12
717.623	0.12
717.941	0.12
718.258	0.12
718.575	0.12
718.893	0.12
719.21	0.12
719.527	0.12
719.844	0.12
720.161	0.12
720.478	0.12
720.795	0.12
721.112	0.12
721.428	0.12
721.745	0.12
722.062	0.12
722.378	0.13
722.695	0.13
723.011	0.13
723.328	0.12
723.644	0.12
723.96	0.12
724.276	0.13
724.593	0.13
724.909	0.13
725.225	0.13
725.541	0.13
725.857	0.12
726.173	0.13
726.488	0.13
726.804	0.13
727.12	0.13
727.435	0.13
727.751	0.13
728.067	0.13
728.382	0.13
728.697	0.13
729.013	0.13
729.328	0.12
729.643	0.13
729.958	0.12
730.273	0.12
730.588	0.12
730.903	0.12
731.218	0.12
731.533	0.12
731.848	0.12
732.163	0.12
732.477	0.12
732.792	0.12
733.107	0.11
733.421	0.12
733.736	0.12
734.05	0.12
734.364	0.12
734.678	0.12
734.993	0.12
735.307	0.12
735.621	0.12
735.935	0.12
736.249	0.12
736.563	0.12
736.877	0.12
737.19	0.12
737.504	0.12
737.818	0.12
738.131	0.12
738.445	0.12
738.758	0.12
739.072	0.12
739.385	0.11
739.698	0.12
740.012	0.12
740.325	0.11
740.638	0.11
740.951	0.11
741.264	0.11
741.577	0.11
741.89	0.11
742.203	0.1
742.515	0.11
742.828	0.11
743.141	0.11
743.453	0.11
743.766	0.1
744.078	0.1
744.391	0.1
744.703	0.1
745.015	0.1
745.327	0.1
745.639	0.1
745.952	0.1
746.264	0.1
746.575	0.1
746.887	0.1
747.199	0.1
747.511	0.09
747.823	0.1
748.134	0.09
748.446	0.09
748.757	0.09
749.069	0.09
749.38	0.09
749.692	0.09
750.003	0.09
750.314	0.09
750.625	0.09
750.936	0.09
751.248	0.08
751.559	0.08
751.869	0.08
752.18	0.08
752.491	0.08
752.802	0.08
753.112	0.08
753.423	0.08
753.734	0.08
754.044	0.08
754.355	0.08
754.665	0.08
754.975	0.07
755.285	0.07
755.596	0.07
755.906	0.08
756.216	0.08
756.526	0.07
756.836	0.07
757.146	0.07
757.455	0.07
757.765	0.07
758.075	0.07
758.385	0.07
758.694	0.07
759.004	0.07
759.313	0.07
759.622	0.07
759.932	0.07
760.241	0.07
760.55	0.07
760.859	0.06
761.168	0.07
761.477	0.06
761.786	0.07
762.095	0.07
762.404	0.06
762.713	0.07
763.021	0.07
763.33	0.06
763.639	0.06
763.947	0.07
764.256	0.07
764.564	0.07
764.872	0.06
765.181	0.06
765.489	0.06
765.797	0.06
766.105	0.06
766.413	0.06
766.721	0.06
767.029	0.06
767.337	0.06
767.644	0.06
767.952	0.06
768.26	0.06
768.567	0.06
768.875	0.06
769.182	0.06
769.49	0.06
769.797	0.06
770.104	0.06
770.411	0.06
770.718	0.06
771.026	0.06
771.333	0.06
771.639	0.06
771.946	0.06
772.253	0.06
772.56	0.07
772.867	0.06
773.173	0.06
773.48	0.06
773.786	0.06
774.093	0.06
774.399	0.06
774.705	0.06
775.012	0.06
775.318	0.06
775.624	0.06
775.93	0.06
776.236	0.06
776.542	0.06
776.848	0.06
777.154	0.06
777.459	0.06
777.765	0.06
778.071	0.07
778.376	0.06
778.682	0.06
778.987	0.06
779.292	0.07
779.598	0.06
779.903	0.06
780.208	0.06
780.513	0.07
780.818	0.06
781.123	0.06
781.428	0.07
781.733	0.07
782.038	0.07
782.343	0.07
782.647	0.07
782.952	0.07
783.256	0.07
783.561	0.07
783.865	0.07
784.17	0.07
784.474	0.07
784.778	0.07
785.082	0.07
785.386	0.07
785.69	0.07
785.994	0.07
786.298	0.07
786.602	0.07
786.906	0.07
787.209	0.07
787.513	0.07
787.817	0.07
788.12	0.07
788.424	0.07
788.727	0.07
789.03	0.07
789.333	0.07
789.637	0.07
789.94	0.07
790.243	0.07
790.546	0.07
790.849	0.07
791.152	0.07
791.454	0.07
791.757	0.07
792.06	0.07
792.362	0.07
792.665	0.08
792.967	0.07
793.27	0.08
793.572	0.07
793.874	0.08
794.177	0.07
794.479	0.07
794.781	0.08
795.083	0.08
795.385	0.08
795.687	0.08
795.989	0.08
796.29	0.08
796.592	0.08
796.894	0.08
797.195	0.08
797.497	0.08
797.798	0.09
798.1	0.08
798.401	0.08
798.702	0.08
799.003	0.08
799.304	0.08
799.605	0.08
799.906	0.08
800.207	0.08
800.508	0.08
800.809	0.08
801.11	0.08
801.41	0.09
801.711	0.09
802.011	0.09
802.312	0.08
802.612	0.08
802.913	0.08
803.213	0.09
803.513	0.09
803.813	0.09
804.113	0.09
804.413	0.09
804.713	0.09
805.013	0.09
805.313	0.09
805.613	0.09
805.912	0.09
806.212	0.09
806.511	0.09
806.811	0.09
807.11	0.09
807.41	0.09
807.709	0.09
808.008	0.09
808.307	0.09
808.606	0.09
808.905	0.09
809.204	0.09
809.503	0.09
809.802	0.1
810.101	0.09
810.399	0.1
810.698	0.1
810.997	0.1
811.295	0.1
811.593	0.1
811.892	0.1
812.19	0.1
812.488	0.1
812.786	0.1
813.084	0.1
813.383	0.1
813.68	0.1
813.978	0.11
814.276	0.1
814.574	0.1
814.872	0.1
815.169	0.1
815.467	0.11
815.764	0.1
816.062	0.11
816.359	0.1
816.656	0.11
816.954	0.1
817.251	0.11
817.548	0.11
817.845	0.11
818.142	0.11
818.439	0.11
818.735	0.11
819.032	0.11
819.329	0.11
819.626	0.11
819.922	0.11
820.219	0.11
820.515	0.11
820.811	0.11
821.108	0.11
821.404	0.11
821.7	0.11
821.996	0.11
822.292	0.11
822.588	0.11
822.884	0.11
823.18	0.11
823.475	0.11
823.771	0.12
824.067	0.11
824.362	0.12
824.658	0.11
824.953	0.12
825.249	0.12
825.544	0.12
825.839	0.12
826.134	0.12
826.429	0.12
826.724	0.12
827.019	0.12
827.314	0.12
827.609	0.12
827.904	0.12
828.198	0.13
828.493	0.12
828.787	0.12
829.082	0.12
829.376	0.12
829.671	0.12
829.965	0.12
830.259	0.13
830.553	0.14
830.847	0.13
831.141	0.13
831.435	0.13
831.729	0.13
832.023	0.13
832.317	0.14
832.61	0.13
832.904	0.14
833.197	0.14
833.491	0.14
833.784	0.13
834.077	0.13
834.371	0.14
834.664	0.13
834.957	0.12
835.25	0.14
835.543	0.13
835.836	0.14
836.129	0.14
836.421	0.14
836.714	0.14
837.007	0.14
837.299	0.14
837.592	0.14
837.884	0.14
838.177	0.14
838.469	0.15
838.761	0.14
839.053	0.15
839.345	0.15
839.637	0.14
839.929	0.14
840.221	0.14
840.513	0.14
840.805	0.15
841.096	0.15
841.388	0.14
841.68	0.15
841.971	0.14
842.262	0.15
842.554	0.16
842.845	0.15
843.136	0.15
843.427	0.16
843.718	0.15
844.009	0.15
844.3	0.15
844.591	0.15
844.882	0.15
845.173	0.14
845.463	0.15
845.754	0.15
846.044	0.16
846.335	0.15
846.625	0.15
846.915	0.15
847.206	0.16
847.496	0.15
847.786	0.16
848.076	0.17
848.366	0.15
848.656	0.16
848.945	0.17
849.235	0.16
849.525	0.16
849.814	0.15
850.104	0.16
850.393	0.16
850.683	0.16
850.972	0.17
851.261	0.16
851.551	0.16
851.84	0.17
852.129	0.16
852.418	0.16
852.707	0.17
852.995	0.16
853.284	0.17
853.573	0.16
853.862	0.17
854.15	0.17
854.439	0.17
854.727	0.17
855.015	0.17
855.304	0.17
855.592	0.16
855.88	0.16
856.168	0.16
856.456	0.18
856.744	0.17
857.032	0.17
857.32	0.18
857.607	0.18
857.895	0.18
858.183	0.18
858.47	0.18
858.757	0.17
859.045	0.18
859.332	0.18
859.619	0.17
859.907	0.17
860.194	0.19
860.481	0.19
860.768	0.17
861.054	0.18
861.341	0.18
861.628	0.19
861.915	0.21
862.201	0.16
862.488	0.16
862.774	0.16
863.061	0.17
863.347	0.19
863.633	0.19
863.919	0.14
864.205	0.19
864.491	0.19
864.777	0.19
865.063	0.16
865.349	0.19
865.635	0.2
865.92	0.18
866.206	0.17
866.492	0.18
866.777	0.17
867.062	0.17
867.348	0.16
867.633	0.15
867.918	0.2
868.203	0.2
868.488	0.15
868.773	0.2
869.058	0.19
869.343	0.2
869.628	0.16
869.912	0.22
870.197	0.21
870.482	0.19
870.766	0.19
871.05	0.2
871.335	0.16
871.619	0.12
871.903	0.23
872.187	0.25
872.471	0.21
872.755	0.19
873.039	0.15
873.323	0.17
873.607	0.16
873.89	0.13
874.174	0.13
874.458	0.15
874.741	0.22
875.024	0.19
875.308	0.16
875.591	0.17
875.874	0.18
876.157	0.12
876.44	0.16
876.723	0.14
877.006	0.19
877.289	0.15
877.572	0.27
877.854	0.16
878.137	0.17
878.42	0.1
878.702	0.15
878.984	0.15
879.267	0.14
879.549	0.31
879.831	0.34
880.113	0.18
880.395	0.07
880.677	0.16
880.959	0.33
