Data from Rubpy_BV_1800_EDTA_Buffered_Absorbance_16-46-58-683.txt Node
Date: Wed Jul 01 16:46:58 BST 2026
User: fpm-admin
Spectrometer: OFX00224
Trigger mode: 0
Integration Time (sec): 7.000000E-2
Scans to average: 3
Nonlinearity correction enabled: false
Boxcar width: 0
Storing dark spectrum: false
XAxis mode: Wavelengths
Number of Pixels in Spectrum: 2136
>>>>>Begin Spectral Data<<<<<
154.91	-0
155.289	0.05
155.669	0.33
156.048	0.95
156.428	-0
156.807	0.11
157.186	-0
157.566	-0.2
157.945	-0
158.325	-0.45
158.704	0.22
159.083	-0
159.462	-0
159.842	0.6
160.221	-0
160.6	-0
160.979	-0
161.359	-0.21
161.738	-0.5
162.117	-0
162.496	-0.28
162.875	-0
163.254	-0.09
163.633	-0
164.012	0.03
164.391	0.41
164.77	0.06
165.149	-0.56
165.528	-0
165.907	-0
166.286	-0
166.665	-0.12
167.044	0.98
167.423	0.05
167.802	-0.59
168.181	-0
168.559	-0.89
168.938	-0
169.317	-0
169.696	-0
170.074	-0
170.453	-0.32
170.832	-1.11
171.21	-0.16
171.589	-0
171.968	0.07
172.346	0.22
172.725	-0
173.103	-0.39
173.482	0.4
173.861	-0
174.239	-0.62
174.617	-0.47
174.996	0.54
175.374	-0.74
175.753	-0.6
176.131	-0
176.51	-0.26
176.888	1.17
177.266	-0
177.645	0.03
178.023	-0
178.401	-0.36
178.779	0.04
179.158	1.08
179.536	0.13
179.914	0.95
180.292	-0.06
180.67	0.73
181.048	0.4
181.427	-0
181.805	-0
182.183	-0.73
182.561	-0
182.939	-0
183.317	-0.43
183.695	0.2
184.073	-0
184.451	-0.41
184.829	-0.39
185.206	-0.46
185.584	-0
185.962	-0.38
186.34	-0.2
186.718	-0.04
187.096	-0
187.473	1
187.851	0.02
188.229	-0.48
188.607	0.1
188.984	0.25
189.362	0.43
189.74	0.31
190.117	0.26
190.495	0.24
190.872	0.23
191.25	0.35
191.627	0.45
192.005	0.36
192.382	0.32
192.76	0.26
193.137	0.37
193.515	0.24
193.892	0.31
194.269	0.33
194.647	0.31
195.024	0.21
195.401	0.31
195.779	0.24
196.156	0.25
196.533	0.37
196.91	0.15
197.288	0.12
197.665	0.09
198.042	0.08
198.419	0.2
198.796	0.12
199.173	0.37
199.55	0.21
199.927	0.24
200.304	0.22
200.681	0.23
201.058	0.23
201.435	0.27
201.812	0.15
202.189	0.2
202.566	0.3
202.943	0.2
203.32	0.26
203.697	0.22
204.073	0.2
204.45	0.26
204.827	0.21
205.204	0.12
205.58	0.25
205.957	0.26
206.334	0.24
206.71	0.24
207.087	0.27
207.464	0.25
207.84	0.26
208.217	0.26
208.593	0.16
208.97	0.2
209.346	0.27
209.723	0.31
210.099	0.4
210.476	0.37
210.852	0.37
211.228	0.24
211.605	0.23
211.981	0.21
212.357	0.34
212.733	0.31
213.11	0.24
213.486	0.21
213.862	0.18
214.238	0.28
214.614	0.24
214.991	0.25
215.367	0.27
215.743	0.27
216.119	0.32
216.495	0.34
216.871	0.32
217.247	0.16
217.623	0.2
217.999	0.32
218.375	0.37
218.751	0.26
219.127	0.26
219.502	0.2
219.878	0.26
220.254	0.26
220.63	0.3
221.006	0.33
221.381	0.34
221.757	0.2
222.133	0.21
222.508	0.42
222.884	0.26
223.26	0.31
223.635	0.25
224.011	0.3
224.386	0.26
224.762	0.5
225.137	0.27
225.513	0.33
225.888	0.24
226.264	0.39
226.639	0.21
227.014	0.41
227.39	0.21
227.765	0.24
228.14	0.33
228.516	0.35
228.891	0.32
229.266	0.25
229.641	0.21
230.017	0.24
230.392	0.3
230.767	0.44
231.142	0.23
231.517	0.19
231.892	0.43
232.267	0.27
232.642	0.25
233.017	0.21
233.392	0.32
233.767	0.2
234.142	0.17
234.517	0.22
234.892	0.34
235.267	0.32
235.641	0.28
236.016	0.29
236.391	0.28
236.766	0.43
237.14	0.39
237.515	0.41
237.89	0.26
238.264	0.32
238.639	0.2
239.014	0.35
239.388	0.29
239.763	0.3
240.137	0.18
240.512	0.24
240.886	0.3
241.261	0.34
241.635	0.36
242.009	0.27
242.384	0.21
242.758	0.36
243.132	0.33
243.507	0.24
243.881	0.3
244.255	0.28
244.629	0.23
245.004	0.37
245.378	0.27
245.752	0.2
246.126	0.26
246.5	0.3
246.874	0.24
247.248	0.33
247.622	0.45
247.996	0.23
248.37	0.31
248.744	0.39
249.118	0.14
249.492	0.22
249.866	0.33
250.24	0.41
250.613	0.36
250.987	0.39
251.361	0.4
251.735	0.31
252.108	0.29
252.482	0.24
252.856	0.19
253.229	0.26
253.603	0.16
253.977	0.43
254.35	0.39
254.724	0.34
255.097	0.29
255.471	0.33
255.844	0.29
256.218	0.33
256.591	0.21
256.964	0.39
257.338	0.27
257.711	0.33
258.084	0.24
258.458	0.33
258.831	0.47
259.204	0.3
259.577	0.27
259.95	0.34
260.323	0.4
260.697	0.25
261.07	0.23
261.443	0.29
261.816	0.32
262.189	0.3
262.562	0.23
262.935	0.32
263.308	0.25
263.68	0.34
264.053	0.35
264.426	0.34
264.799	0.25
265.172	0.33
265.545	0.3
265.917	0.4
266.29	0.27
266.663	0.34
267.035	0.29
267.408	0.36
267.781	0.26
268.153	0.18
268.526	0.34
268.898	0.31
269.271	0.3
269.643	0.29
270.016	0.36
270.388	0.18
270.76	0.29
271.133	0.21
271.505	0.28
271.877	0.21
272.25	0.21
272.622	0.31
272.994	0.38
273.366	0.35
273.739	0.23
274.111	0.35
274.483	0.25
274.855	0.27
275.227	0.32
275.599	0.32
275.971	0.46
276.343	0.33
276.715	0.28
277.087	0.34
277.459	0.23
277.831	0.26
278.203	0.32
278.574	0.29
278.946	0.33
279.318	0.35
279.69	0.29
280.061	0.31
280.433	0.2
280.805	0.32
281.176	0.31
281.548	0.32
281.92	0.38
282.291	0.26
282.663	0.25
283.034	0.38
283.406	0.31
283.777	0.35
284.148	0.36
284.52	0.28
284.891	0.42
285.262	0.31
285.634	0.26
286.005	0.29
286.376	0.3
286.747	0.28
287.119	0.32
287.49	0.28
287.861	0.35
288.232	0.27
288.603	0.46
288.974	0.24
289.345	0.31
289.716	0.35
290.087	0.22
290.458	0.22
290.829	0.27
291.2	0.35
291.571	0.31
291.941	0.29
292.312	0.31
292.683	0.34
293.054	0.26
293.424	0.26
293.795	0.28
294.166	0.28
294.536	0.33
294.907	0.24
295.277	0.3
295.648	0.34
296.018	0.34
296.389	0.24
296.759	0.4
297.13	0.34
297.5	0.29
297.871	0.36
298.241	0.43
298.611	0.32
298.981	0.32
299.352	0.37
299.722	0.22
300.092	0.3
300.462	0.36
300.832	0.34
301.202	0.25
301.573	0.26
301.943	0.3
302.313	0.27
302.683	0.31
303.053	0.31
303.422	0.23
303.792	0.29
304.162	0.28
304.532	0.31
304.902	0.23
305.272	0.3
305.641	0.35
306.011	0.27
306.381	0.3
306.75	0.28
307.12	0.29
307.49	0.25
307.859	0.27
308.229	0.24
308.598	0.24
308.968	0.28
309.337	0.23
309.707	0.24
310.076	0.21
310.445	0.22
310.815	0.19
311.184	0.24
311.553	0.2
311.923	0.24
312.292	0.22
312.661	0.21
313.03	0.23
313.399	0.25
313.768	0.24
314.137	0.22
314.506	0.22
314.875	0.22
315.244	0.21
315.613	0.24
315.982	0.25
316.351	0.22
316.72	0.23
317.089	0.23
317.458	0.25
317.826	0.25
318.195	0.24
318.564	0.26
318.933	0.25
319.301	0.25
319.67	0.25
320.038	0.26
320.407	0.27
320.775	0.27
321.144	0.27
321.512	0.26
321.881	0.27
322.249	0.28
322.618	0.3
322.986	0.28
323.354	0.29
323.723	0.29
324.091	0.3
324.459	0.31
324.827	0.32
325.195	0.33
325.564	0.33
325.932	0.33
326.3	0.33
326.668	0.33
327.036	0.34
327.404	0.32
327.772	0.34
328.14	0.34
328.508	0.34
328.875	0.35
329.243	0.37
329.611	0.36
329.979	0.37
330.346	0.38
330.714	0.38
331.082	0.4
331.449	0.39
331.817	0.4
332.185	0.41
332.552	0.41
332.92	0.41
333.287	0.42
333.655	0.43
334.022	0.45
334.389	0.44
334.757	0.45
335.124	0.47
335.491	0.48
335.859	0.49
336.226	0.49
336.593	0.5
336.96	0.51
337.327	0.51
337.695	0.53
338.062	0.54
338.429	0.55
338.796	0.56
339.163	0.57
339.53	0.58
339.897	0.59
340.263	0.6
340.63	0.61
340.997	0.63
341.364	0.63
341.731	0.65
342.097	0.65
342.464	0.66
342.831	0.68
343.197	0.69
343.564	0.7
343.931	0.71
344.297	0.71
344.664	0.73
345.03	0.74
345.396	0.74
345.763	0.77
346.129	0.77
346.496	0.79
346.862	0.79
347.228	0.8
347.594	0.82
347.961	0.83
348.327	0.83
348.693	0.85
349.059	0.86
349.425	0.87
349.791	0.89
350.157	0.89
350.523	0.91
350.889	0.91
351.255	0.92
351.621	0.93
351.987	0.94
352.353	0.95
352.719	0.96
353.084	0.97
353.45	1
353.816	0.99
354.181	1
354.547	1.02
354.913	1.03
355.278	1.05
355.644	1.05
356.009	1.07
356.375	1.08
356.74	1.1
357.106	1.11
357.471	1.12
357.836	1.12
358.202	1.16
358.567	1.16
358.932	1.18
359.297	1.19
359.663	1.2
360.028	1.22
360.393	1.24
360.758	1.25
361.123	1.27
361.488	1.3
361.853	1.3
362.218	1.33
362.583	1.34
362.948	1.35
363.312	1.36
363.677	1.36
364.042	1.39
364.407	1.41
364.772	1.41
365.136	1.41
365.501	1.43
365.865	1.45
366.23	1.46
366.595	1.48
366.959	1.48
367.324	1.5
367.688	1.52
368.052	1.53
368.417	1.51
368.781	1.53
369.145	1.54
369.51	1.55
369.874	1.57
370.238	1.56
370.602	1.56
370.967	1.6
371.331	1.57
371.695	1.58
372.059	1.59
372.423	1.57
372.787	1.6
373.151	1.57
373.515	1.56
373.878	1.59
374.242	1.56
374.606	1.56
374.97	1.56
375.334	1.54
375.697	1.53
376.061	1.52
376.425	1.52
376.788	1.5
377.152	1.48
377.515	1.47
377.879	1.46
378.242	1.42
378.606	1.42
378.969	1.42
379.333	1.4
379.696	1.37
380.059	1.37
380.422	1.34
380.786	1.34
381.149	1.33
381.512	1.3
381.875	1.29
382.238	1.27
382.601	1.26
382.964	1.24
383.327	1.23
383.69	1.22
384.053	1.19
384.416	1.2
384.779	1.18
385.142	1.18
385.504	1.16
385.867	1.15
386.23	1.16
386.593	1.15
386.955	1.14
387.318	1.13
387.68	1.14
388.043	1.13
388.405	1.12
388.768	1.12
389.13	1.12
389.493	1.12
389.855	1.1
390.217	1.09
390.58	1.09
390.942	1.09
391.304	1.06
391.666	1.05
392.028	1.04
392.391	1.02
392.753	1.01
393.115	0.99
393.477	0.98
393.839	0.98
394.201	0.98
394.563	0.97
394.924	0.95
395.286	0.96
395.648	0.96
396.01	0.97
396.371	0.98
396.733	0.99
397.095	1
397.456	1.02
397.818	1.03
398.18	1.06
398.541	1.09
398.903	1.1
399.264	1.14
399.625	1.16
399.987	1.18
400.348	1.19
400.709	1.22
401.071	1.2
401.432	1.22
401.793	1.22
402.154	1.21
402.515	1.19
402.876	1.18
403.238	1.15
403.599	1.12
403.96	1.09
404.32	1.05
404.681	1.01
405.042	0.96
405.403	0.94
405.764	0.88
406.125	0.83
406.485	0.81
406.846	0.76
407.207	0.72
407.567	0.68
407.928	0.65
408.288	0.61
408.649	0.57
409.009	0.55
409.37	0.52
409.73	0.49
410.091	0.46
410.451	0.44
410.811	0.41
411.171	0.4
411.532	0.38
411.892	0.36
412.252	0.34
412.612	0.33
412.972	0.32
413.332	0.31
413.692	0.29
414.052	0.28
414.412	0.26
414.772	0.26
415.132	0.25
415.492	0.24
415.851	0.23
416.211	0.22
416.571	0.22
416.931	0.21
417.29	0.21
417.65	0.21
418.009	0.2
418.369	0.19
418.728	0.2
419.088	0.19
419.447	0.18
419.807	0.18
420.166	0.17
420.525	0.16
420.884	0.16
421.244	0.16
421.603	0.15
421.962	0.16
422.321	0.15
422.68	0.15
423.039	0.14
423.398	0.14
423.757	0.14
424.116	0.14
424.475	0.15
424.834	0.13
425.193	0.13
425.551	0.14
425.91	0.14
426.269	0.13
426.628	0.13
426.986	0.13
427.345	0.12
427.703	0.13
428.062	0.13
428.42	0.13
428.779	0.12
429.137	0.14
429.496	0.12
429.854	0.12
430.212	0.12
430.57	0.12
430.929	0.12
431.287	0.12
431.645	0.12
432.003	0.12
432.361	0.12
432.719	0.12
433.077	0.12
433.435	0.12
433.793	0.13
434.151	0.12
434.509	0.13
434.866	0.12
435.224	0.11
435.582	0.12
435.94	0.12
436.297	0.12
436.655	0.13
437.012	0.11
437.37	0.12
437.727	0.12
438.085	0.11
438.442	0.12
438.8	0.11
439.157	0.11
439.514	0.11
439.872	0.11
440.229	0.12
440.586	0.12
440.943	0.13
441.3	0.12
441.657	0.12
442.014	0.12
442.371	0.11
442.728	0.11
443.085	0.12
443.442	0.11
443.799	0.11
444.156	0.12
444.513	0.12
444.869	0.1
445.226	0.12
445.583	0.12
445.939	0.12
446.296	0.11
446.652	0.12
447.009	0.12
447.365	0.12
447.722	0.12
448.078	0.12
448.434	0.12
448.791	0.12
449.147	0.11
449.503	0.11
449.859	0.11
450.215	0.12
450.571	0.12
450.928	0.12
451.284	0.12
451.64	0.12
451.995	0.12
452.351	0.11
452.707	0.11
453.063	0.11
453.419	0.12
453.775	0.1
454.13	0.12
454.486	0.11
454.842	0.1
455.197	0.1
455.553	0.09
455.908	0.1
456.264	0.1
456.619	0.1
456.975	0.1
457.33	0.1
457.685	0.09
458.04	0.09
458.396	0.09
458.751	0.08
459.106	0.08
459.461	0.08
459.816	0.08
460.171	0.08
460.526	0.07
460.881	0.07
461.236	0.06
461.591	0.06
461.946	0.06
462.301	0.05
462.655	0.06
463.01	0.06
463.365	0.05
463.719	0.04
464.074	0.04
464.428	0.03
464.783	0.02
465.137	0.03
465.492	0.02
465.846	0.03
466.201	0.03
466.555	0.04
466.909	0.03
467.263	0.05
467.618	0.04
467.972	0.04
468.326	0.04
468.68	0.04
469.034	0.03
469.388	0.03
469.742	0.04
470.096	0.04
470.45	0.04
470.804	0.04
471.157	0.04
471.511	0.04
471.865	0.04
472.218	0.05
472.572	0.06
472.926	0.06
473.279	0.07
473.633	0.08
473.986	0.08
474.34	0.09
474.693	0.1
475.046	0.11
475.4	0.12
475.753	0.13
476.106	0.13
476.459	0.14
476.812	0.15
477.165	0.16
477.519	0.16
477.872	0.17
478.224	0.17
478.577	0.18
478.93	0.19
479.283	0.2
479.636	0.21
479.989	0.21
480.341	0.22
480.694	0.22
481.047	0.23
481.399	0.23
481.752	0.24
482.104	0.24
482.457	0.26
482.809	0.26
483.162	0.26
483.514	0.26
483.866	0.27
484.219	0.28
484.571	0.28
484.923	0.29
485.275	0.29
485.627	0.29
485.979	0.3
486.331	0.31
486.683	0.31
487.035	0.31
487.387	0.32
487.739	0.33
488.091	0.33
488.443	0.34
488.794	0.34
489.146	0.34
489.498	0.35
489.849	0.35
490.201	0.35
490.552	0.35
490.904	0.35
491.255	0.36
491.607	0.36
491.958	0.37
492.309	0.38
492.661	0.38
493.012	0.38
493.363	0.38
493.714	0.38
494.065	0.39
494.416	0.39
494.767	0.4
495.118	0.4
495.469	0.4
495.82	0.41
496.171	0.41
496.522	0.42
496.872	0.41
497.223	0.42
497.574	0.43
497.924	0.43
498.275	0.44
498.626	0.44
498.976	0.45
499.327	0.45
499.677	0.46
500.027	0.46
500.378	0.45
500.728	0.46
501.078	0.47
501.428	0.47
501.779	0.47
502.129	0.47
502.479	0.48
502.829	0.49
503.179	0.49
503.529	0.49
503.879	0.5
504.229	0.49
504.578	0.5
504.928	0.5
505.278	0.5
505.628	0.51
505.977	0.52
506.327	0.52
506.676	0.52
507.026	0.52
507.375	0.53
507.725	0.54
508.074	0.53
508.424	0.54
508.773	0.54
509.122	0.54
509.471	0.54
509.82	0.55
510.17	0.56
510.519	0.55
510.868	0.55
511.217	0.56
511.566	0.57
511.915	0.56
512.263	0.57
512.612	0.57
512.961	0.57
513.31	0.57
513.659	0.58
514.007	0.59
514.356	0.59
514.704	0.59
515.053	0.6
515.401	0.59
515.75	0.6
516.098	0.6
516.447	0.61
516.795	0.61
517.143	0.61
517.491	0.62
517.839	0.61
518.188	0.61
518.536	0.62
518.884	0.62
519.232	0.62
519.58	0.63
519.928	0.63
520.275	0.63
520.623	0.63
520.971	0.64
521.319	0.64
521.666	0.64
522.014	0.64
522.362	0.64
522.709	0.65
523.057	0.65
523.404	0.66
523.752	0.66
524.099	0.65
524.446	0.66
524.794	0.66
525.141	0.66
525.488	0.66
525.835	0.67
526.182	0.67
526.529	0.67
526.876	0.66
527.223	0.67
527.57	0.68
527.917	0.68
528.264	0.68
528.611	0.68
528.958	0.69
529.304	0.68
529.651	0.69
529.998	0.69
530.344	0.69
530.691	0.7
531.037	0.7
531.384	0.7
531.73	0.69
532.076	0.71
532.423	0.7
532.769	0.7
533.115	0.71
533.461	0.7
533.807	0.71
534.154	0.7
534.5	0.71
534.846	0.71
535.192	0.71
535.537	0.71
535.883	0.72
536.229	0.72
536.575	0.72
536.921	0.73
537.266	0.72
537.612	0.72
537.957	0.72
538.303	0.73
538.649	0.73
538.994	0.73
539.339	0.72
539.685	0.73
540.03	0.74
540.375	0.74
540.721	0.74
541.066	0.74
541.411	0.74
541.756	0.74
542.101	0.74
542.446	0.74
542.791	0.74
543.136	0.74
543.481	0.74
543.825	0.74
544.17	0.74
544.515	0.74
544.86	0.75
545.204	0.74
545.549	0.74
545.893	0.75
546.238	0.75
546.582	0.75
546.927	0.75
547.271	0.75
547.615	0.76
547.96	0.75
548.304	0.75
548.648	0.75
548.992	0.76
549.336	0.75
549.68	0.75
550.024	0.76
550.368	0.76
550.712	0.75
551.056	0.76
551.4	0.76
551.743	0.76
552.087	0.75
552.431	0.75
552.774	0.75
553.118	0.75
553.462	0.75
553.805	0.75
554.148	0.75
554.492	0.75
554.835	0.76
555.178	0.76
555.522	0.76
555.865	0.75
556.208	0.75
556.551	0.75
556.894	0.76
557.237	0.75
557.58	0.75
557.923	0.76
558.266	0.75
558.609	0.75
558.952	0.75
559.294	0.75
559.637	0.75
559.98	0.75
560.322	0.75
560.665	0.75
561.007	0.74
561.35	0.74
561.692	0.74
562.034	0.74
562.377	0.75
562.719	0.74
563.061	0.74
563.403	0.74
563.745	0.74
564.088	0.74
564.43	0.74
564.772	0.74
565.113	0.74
565.455	0.73
565.797	0.73
566.139	0.73
566.481	0.74
566.822	0.73
567.164	0.73
567.506	0.73
567.847	0.74
568.189	0.73
568.53	0.73
568.872	0.73
569.213	0.73
569.554	0.73
569.895	0.73
570.237	0.72
570.578	0.72
570.919	0.72
571.26	0.72
571.601	0.71
571.942	0.72
572.283	0.71
572.624	0.71
572.965	0.71
573.306	0.71
573.646	0.71
573.987	0.7
574.328	0.71
574.668	0.7
575.009	0.69
575.349	0.7
575.69	0.7
576.03	0.69
576.37	0.69
576.711	0.68
577.051	0.69
577.391	0.69
577.731	0.69
578.072	0.69
578.412	0.69
578.752	0.68
579.092	0.68
579.431	0.67
579.771	0.66
580.111	0.66
580.451	0.67
580.791	0.68
581.13	0.68
581.47	0.67
581.81	0.67
582.149	0.67
582.489	0.67
582.828	0.66
583.167	0.64
583.507	0.6
583.846	0.6
584.185	0.64
584.525	0.65
584.864	0.66
585.203	0.66
585.542	0.67
585.881	0.66
586.22	0.66
586.559	0.66
586.898	0.65
587.236	0.64
587.575	0.65
587.914	0.65
588.252	0.66
588.591	0.65
588.93	0.65
589.268	0.65
589.607	0.65
589.945	0.65
590.283	0.65
590.622	0.65
590.96	0.66
591.298	0.65
591.636	0.65
591.974	0.66
592.313	0.66
592.651	0.66
592.989	0.65
593.326	0.66
593.664	0.65
594.002	0.65
594.34	0.65
594.678	0.65
595.015	0.64
595.353	0.64
595.691	0.65
596.028	0.66
596.366	0.65
596.703	0.65
597.04	0.65
597.378	0.65
597.715	0.65
598.052	0.65
598.389	0.65
598.726	0.65
599.064	0.65
599.401	0.65
599.738	0.65
600.074	0.65
600.411	0.65
600.748	0.64
601.085	0.64
601.422	0.64
601.758	0.64
602.095	0.64
602.432	0.64
602.768	0.64
603.105	0.64
603.441	0.64
603.777	0.64
604.114	0.64
604.45	0.63
604.786	0.63
605.122	0.63
605.459	0.63
605.795	0.63
606.131	0.63
606.467	0.63
606.803	0.63
607.139	0.63
607.474	0.62
607.81	0.62
608.146	0.62
608.482	0.62
608.817	0.61
609.153	0.62
609.488	0.61
609.824	0.61
610.159	0.61
610.495	0.61
610.83	0.61
611.165	0.61
611.5	0.6
611.836	0.6
612.171	0.6
612.506	0.6
612.841	0.6
613.176	0.6
613.511	0.6
613.845	0.59
614.18	0.59
614.515	0.59
614.85	0.59
615.184	0.59
615.519	0.59
615.854	0.58
616.188	0.58
616.523	0.58
616.857	0.58
617.191	0.57
617.526	0.57
617.86	0.57
618.194	0.57
618.528	0.57
618.862	0.56
619.196	0.56
619.53	0.56
619.864	0.56
620.198	0.56
620.532	0.56
620.866	0.56
621.2	0.55
621.533	0.55
621.867	0.54
622.201	0.54
622.534	0.54
622.868	0.54
623.201	0.54
623.534	0.53
623.868	0.53
624.201	0.53
624.534	0.53
624.868	0.53
625.201	0.53
625.534	0.52
625.867	0.52
626.2	0.52
626.533	0.52
626.865	0.52
627.198	0.52
627.531	0.51
627.864	0.51
628.196	0.5
628.529	0.5
628.862	0.5
629.194	0.5
629.527	0.49
629.859	0.49
630.191	0.49
630.524	0.49
630.856	0.48
631.188	0.48
631.52	0.48
631.852	0.47
632.184	0.47
632.516	0.47
632.848	0.46
633.18	0.46
633.512	0.46
633.844	0.46
634.175	0.46
634.507	0.45
634.839	0.45
635.17	0.45
635.502	0.44
635.833	0.44
636.165	0.44
636.496	0.44
636.827	0.43
637.159	0.43
637.49	0.43
637.821	0.43
638.152	0.42
638.483	0.42
638.814	0.42
639.145	0.41
639.476	0.41
639.807	0.41
640.137	0.4
640.468	0.4
640.799	0.4
641.129	0.4
641.46	0.39
641.791	0.39
642.121	0.39
642.451	0.39
642.782	0.38
643.112	0.38
643.442	0.38
643.773	0.38
644.103	0.38
644.433	0.37
644.763	0.37
645.093	0.37
645.423	0.37
645.753	0.37
646.082	0.37
646.412	0.36
646.742	0.36
647.072	0.36
647.401	0.36
647.731	0.35
648.06	0.35
648.39	0.35
648.719	0.35
649.048	0.35
649.378	0.35
649.707	0.35
650.036	0.34
650.365	0.34
650.694	0.34
651.023	0.34
651.352	0.34
651.681	0.34
652.01	0.34
652.339	0.34
652.668	0.33
652.996	0.34
653.325	0.33
653.654	0.33
653.982	0.33
654.311	0.33
654.639	0.33
654.967	0.33
655.296	0.33
655.624	0.32
655.952	0.33
656.28	0.32
656.609	0.32
656.937	0.32
657.265	0.31
657.593	0.17
657.92	0.08
658.248	0.06
658.576	0.13
658.904	0.25
659.231	0.31
659.559	0.31
659.887	0.31
660.214	0.31
660.542	0.31
660.869	0.31
661.196	0.31
661.524	0.31
661.851	0.3
662.178	0.3
662.505	0.3
662.832	0.3
663.159	0.3
663.486	0.3
663.813	0.3
664.14	0.3
664.467	0.3
664.794	0.29
665.12	0.3
665.447	0.29
665.774	0.29
666.1	0.28
666.427	0.29
666.753	0.29
667.079	0.28
667.406	0.28
667.732	0.28
668.058	0.28
668.384	0.28
668.71	0.28
669.036	0.28
669.362	0.27
669.688	0.27
670.014	0.27
670.34	0.27
670.666	0.26
670.991	0.27
671.317	0.26
671.643	0.26
671.968	0.26
672.294	0.26
672.619	0.26
672.945	0.25
673.27	0.25
673.595	0.25
673.92	0.24
674.246	0.24
674.571	0.25
674.896	0.24
675.221	0.24
675.546	0.24
675.87	0.24
676.195	0.23
676.52	0.23
676.845	0.23
677.169	0.23
677.494	0.23
677.819	0.23
678.143	0.22
678.468	0.22
678.792	0.22
679.116	0.22
679.44	0.22
679.765	0.21
680.089	0.21
680.413	0.2
680.737	0.21
681.061	0.2
681.385	0.2
681.709	0.2
682.033	0.2
682.356	0.2
682.68	0.2
683.004	0.19
683.327	0.19
683.651	0.19
683.974	0.19
684.298	0.19
684.621	0.18
684.944	0.18
685.268	0.18
685.591	0.18
685.914	0.17
686.237	0.17
686.56	0.17
686.883	0.17
687.206	0.17
687.529	0.16
687.852	0.16
688.175	0.16
688.497	0.16
688.82	0.16
689.142	0.16
689.465	0.16
689.787	0.16
690.11	0.15
690.432	0.15
690.755	0.15
691.077	0.14
691.399	0.14
691.721	0.14
692.043	0.14
692.365	0.14
692.687	0.14
693.009	0.13
693.331	0.13
693.653	0.13
693.974	0.13
694.296	0.13
694.618	0.13
694.939	0.13
695.261	0.13
695.582	0.12
695.904	0.12
696.225	0.12
696.546	0.12
696.868	0.12
697.189	0.12
697.51	0.12
697.831	0.12
698.152	0.12
698.473	0.11
698.794	0.11
699.114	0.11
699.435	0.1
699.756	0.11
700.077	0.11
700.397	0.11
700.718	0.11
701.038	0.11
701.359	0.11
701.679	0.11
701.999	0.11
702.32	0.11
702.64	0.1
702.96	0.11
703.28	0.1
703.6	0.1
703.92	0.1
704.24	0.1
704.56	0.1
704.879	0.1
705.199	0.1
705.519	0.1
705.838	0.1
706.158	0.1
706.478	0.1
706.797	0.1
707.116	0.1
707.436	0.1
707.755	0.1
708.074	0.09
708.393	0.09
708.712	0.09
709.031	0.08
709.35	0.08
709.669	0.08
709.988	0.09
710.307	0.09
710.626	0.09
710.944	0.09
711.263	0.09
711.582	0.09
711.9	0.09
712.219	0.09
712.537	0.09
712.855	0.09
713.174	0.09
713.492	0.09
713.81	0.09
714.128	0.09
714.446	0.09
714.764	0.09
715.082	0.09
715.4	0.09
715.718	0.09
716.035	0.09
716.353	0.09
716.671	0.09
716.988	0.09
717.306	0.09
717.623	0.09
717.941	0.1
718.258	0.09
718.575	0.09
718.893	0.09
719.21	0.09
719.527	0.09
719.844	0.09
720.161	0.09
720.478	0.09
720.795	0.1
721.112	0.1
721.428	0.1
721.745	0.09
722.062	0.1
722.378	0.1
722.695	0.1
723.011	0.1
723.328	0.1
723.644	0.1
723.96	0.1
724.276	0.1
724.593	0.1
724.909	0.1
725.225	0.1
725.541	0.1
725.857	0.1
726.173	0.1
726.488	0.1
726.804	0.1
727.12	0.1
727.435	0.1
727.751	0.1
728.067	0.1
728.382	0.1
728.697	0.1
729.013	0.1
729.328	0.1
729.643	0.1
729.958	0.1
730.273	0.09
730.588	0.09
730.903	0.1
731.218	0.09
731.533	0.09
731.848	0.09
732.163	0.09
732.477	0.09
732.792	0.09
733.107	0.09
733.421	0.09
733.736	0.09
734.05	0.09
734.364	0.09
734.678	0.09
734.993	0.09
735.307	0.09
735.621	0.09
735.935	0.09
736.249	0.09
736.563	0.09
736.877	0.09
737.19	0.09
737.504	0.09
737.818	0.09
738.131	0.09
738.445	0.09
738.758	0.09
739.072	0.09
739.385	0.09
739.698	0.09
740.012	0.09
740.325	0.08
740.638	0.08
740.951	0.08
741.264	0.08
741.577	0.09
741.89	0.08
742.203	0.08
742.515	0.08
742.828	0.08
743.141	0.08
743.453	0.08
743.766	0.08
744.078	0.08
744.391	0.08
744.703	0.08
745.015	0.08
745.327	0.08
745.639	0.08
745.952	0.08
746.264	0.07
746.575	0.07
746.887	0.07
747.199	0.07
747.511	0.07
747.823	0.07
748.134	0.07
748.446	0.07
748.757	0.07
749.069	0.07
749.38	0.07
749.692	0.07
750.003	0.07
750.314	0.07
750.625	0.07
750.936	0.06
751.248	0.06
751.559	0.06
751.869	0.06
752.18	0.06
752.491	0.06
752.802	0.06
753.112	0.06
753.423	0.06
753.734	0.06
754.044	0.06
754.355	0.06
754.665	0.06
754.975	0.06
755.285	0.06
755.596	0.06
755.906	0.06
756.216	0.06
756.526	0.06
756.836	0.05
757.146	0.05
757.455	0.05
757.765	0.05
758.075	0.05
758.385	0.05
758.694	0.05
759.004	0.05
759.313	0.05
759.622	0.05
759.932	0.05
760.241	0.05
760.55	0.05
760.859	0.05
761.168	0.05
761.477	0.05
761.786	0.05
762.095	0.05
762.404	0.05
762.713	0.05
763.021	0.05
763.33	0.05
763.639	0.05
763.947	0.05
764.256	0.05
764.564	0.05
764.872	0.05
765.181	0.05
765.489	0.04
765.797	0.04
766.105	0.04
766.413	0.05
766.721	0.05
767.029	0.05
767.337	0.05
767.644	0.05
767.952	0.05
768.26	0.05
768.567	0.05
768.875	0.04
769.182	0.04
769.49	0.04
769.797	0.04
770.104	0.04
770.411	0.04
770.718	0.04
771.026	0.05
771.333	0.04
771.639	0.05
771.946	0.05
772.253	0.05
772.56	0.05
772.867	0.05
773.173	0.04
773.48	0.05
773.786	0.04
774.093	0.05
774.399	0.04
774.705	0.05
775.012	0.04
775.318	0.05
775.624	0.04
775.93	0.04
776.236	0.04
776.542	0.04
776.848	0.04
777.154	0.05
777.459	0.04
777.765	0.04
778.071	0.05
778.376	0.05
778.682	0.05
778.987	0.05
779.292	0.05
779.598	0.04
779.903	0.04
780.208	0.05
780.513	0.05
780.818	0.04
781.123	0.05
781.428	0.05
781.733	0.05
782.038	0.05
782.343	0.05
782.647	0.05
782.952	0.05
783.256	0.05
783.561	0.05
783.865	0.05
784.17	0.05
784.474	0.05
784.778	0.05
785.082	0.05
785.386	0.05
785.69	0.05
785.994	0.05
786.298	0.05
786.602	0.05
786.906	0.05
787.209	0.05
787.513	0.05
787.817	0.05
788.12	0.05
788.424	0.05
788.727	0.05
789.03	0.05
789.333	0.05
789.637	0.05
789.94	0.05
790.243	0.05
790.546	0.05
790.849	0.05
791.152	0.05
791.454	0.05
791.757	0.05
792.06	0.05
792.362	0.05
792.665	0.05
792.967	0.05
793.27	0.05
793.572	0.05
793.874	0.05
794.177	0.05
794.479	0.05
794.781	0.05
795.083	0.05
795.385	0.05
795.687	0.05
795.989	0.05
796.29	0.06
796.592	0.05
796.894	0.06
797.195	0.06
797.497	0.06
797.798	0.06
798.1	0.06
798.401	0.06
798.702	0.06
799.003	0.06
799.304	0.06
799.605	0.06
799.906	0.06
800.207	0.06
800.508	0.06
800.809	0.06
801.11	0.06
801.41	0.06
801.711	0.06
802.011	0.06
802.312	0.06
802.612	0.06
802.913	0.06
803.213	0.06
803.513	0.06
803.813	0.06
804.113	0.06
804.413	0.06
804.713	0.06
805.013	0.06
805.313	0.06
805.613	0.06
805.912	0.06
806.212	0.07
806.511	0.06
806.811	0.06
807.11	0.06
807.41	0.06
807.709	0.07
808.008	0.07
808.307	0.06
808.606	0.06
808.905	0.06
809.204	0.06
809.503	0.07
809.802	0.07
810.101	0.07
810.399	0.07
810.698	0.07
810.997	0.07
811.295	0.07
811.593	0.07
811.892	0.07
812.19	0.07
812.488	0.07
812.786	0.07
813.084	0.07
813.383	0.07
813.68	0.07
813.978	0.07
814.276	0.07
814.574	0.07
814.872	0.07
815.169	0.07
815.467	0.07
815.764	0.07
816.062	0.07
816.359	0.07
816.656	0.07
816.954	0.07
817.251	0.07
817.548	0.08
817.845	0.07
818.142	0.08
818.439	0.08
818.735	0.08
819.032	0.08
819.329	0.08
819.626	0.08
819.922	0.08
820.219	0.08
820.515	0.08
820.811	0.08
821.108	0.08
821.404	0.08
821.7	0.08
821.996	0.08
822.292	0.08
822.588	0.07
822.884	0.08
823.18	0.08
823.475	0.07
823.771	0.08
824.067	0.07
824.362	0.08
824.658	0.08
824.953	0.09
825.249	0.08
825.544	0.08
825.839	0.08
826.134	0.08
826.429	0.08
826.724	0.08
827.019	0.08
827.314	0.08
827.609	0.08
827.904	0.09
828.198	0.09
828.493	0.09
828.787	0.08
829.082	0.08
829.376	0.08
829.671	0.09
829.965	0.08
830.259	0.08
830.553	0.08
830.847	0.09
831.141	0.09
831.435	0.09
831.729	0.09
832.023	0.1
832.317	0.09
832.61	0.09
832.904	0.09
833.197	0.09
833.491	0.1
833.784	0.09
834.077	0.09
834.371	0.09
834.664	0.09
834.957	0.08
835.25	0.09
835.543	0.09
835.836	0.1
836.129	0.09
836.421	0.09
836.714	0.09
837.007	0.09
837.299	0.1
837.592	0.1
837.884	0.1
838.177	0.1
838.469	0.1
838.761	0.09
839.053	0.09
839.345	0.1
839.637	0.1
839.929	0.1
840.221	0.1
840.513	0.1
840.805	0.1
841.096	0.1
841.388	0.1
841.68	0.1
841.971	0.09
842.262	0.1
842.554	0.1
842.845	0.1
843.136	0.11
843.427	0.1
843.718	0.1
844.009	0.1
844.3	0.1
844.591	0.11
844.882	0.11
845.173	0.11
845.463	0.11
845.754	0.1
846.044	0.1
846.335	0.11
846.625	0.11
846.915	0.1
847.206	0.11
847.496	0.11
847.786	0.11
848.076	0.12
848.366	0.1
848.656	0.11
848.945	0.11
849.235	0.1
849.525	0.11
849.814	0.1
850.104	0.11
850.393	0.12
850.683	0.11
850.972	0.12
851.261	0.11
851.551	0.13
851.84	0.11
852.129	0.1
852.418	0.11
852.707	0.11
852.995	0.1
853.284	0.1
853.573	0.11
853.862	0.11
854.15	0.12
854.439	0.12
854.727	0.12
855.015	0.13
855.304	0.12
855.592	0.11
855.88	0.12
856.168	0.11
856.456	0.11
856.744	0.12
857.032	0.11
857.32	0.12
857.607	0.13
857.895	0.12
858.183	0.12
858.47	0.13
858.757	0.11
859.045	0.12
859.332	0.11
859.619	0.12
859.907	0.12
860.194	0.13
860.481	0.14
860.768	0.1
861.054	0.13
861.341	0.11
861.628	0.12
861.915	0.15
862.201	0.11
862.488	0.13
862.774	0.11
863.061	0.12
863.347	0.13
863.633	0.14
863.919	0.1
864.205	0.12
864.491	0.1
864.777	0.15
865.063	0.11
865.349	0.12
865.635	0.11
865.92	0.09
866.206	0.12
866.492	0.11
866.777	0.12
867.062	0.12
867.348	0.1
867.633	0.14
867.918	0.12
868.203	0.17
868.488	0.12
868.773	0.13
869.058	0.12
869.343	0.19
869.628	0.11
869.912	0.1
870.197	0.12
870.482	0.13
870.766	0.08
871.05	0.12
871.335	0.12
871.619	0.12
871.903	0.08
872.187	0.13
872.471	0.1
872.755	0.1
873.039	0.13
873.323	0.14
873.607	0.07
873.89	0.11
874.174	0.09
874.458	0.06
874.741	0.1
875.024	0.11
875.308	0.16
875.591	0.14
875.874	0.12
876.157	0.05
876.44	0.14
876.723	0.03
877.006	0.13
877.289	0.1
877.572	0.24
877.854	0.15
878.137	0.11
878.42	0.1
878.702	0.09
878.984	0.08
879.267	0.07
879.549	0.23
879.831	0.08
880.113	0.03
880.395	0.11
880.677	0.09
880.959	0.05
