Data from Rubpy_BV_1800_EDTA_Buffered_Absorbance_17-00-24-678.txt Node
Date: Wed Jul 01 17:00:24 BST 2026
User: fpm-admin
Spectrometer: OFX00224
Trigger mode: 0
Integration Time (sec): 7.000000E-2
Scans to average: 3
Nonlinearity correction enabled: false
Boxcar width: 0
Storing dark spectrum: false
XAxis mode: Wavelengths
Number of Pixels in Spectrum: 2136
>>>>>Begin Spectral Data<<<<<
154.91	-0
155.289	-0.19
155.669	-0
156.048	0.48
156.428	-0
156.807	0.01
157.186	-0.9
157.566	-0.23
157.945	-0.37
158.325	0.02
158.704	-0.11
159.083	0.65
159.462	-0
159.842	0.51
160.221	-0
160.6	-0
160.979	-0
161.359	-0.26
161.738	-0
162.117	-0
162.496	0.16
162.875	-0
163.254	-0
163.633	-0
164.012	-0.17
164.391	0.78
164.77	-0
165.149	-0
165.528	-0
165.907	0.28
166.286	-0.18
166.665	-0.09
167.044	-0.15
167.423	1.03
167.802	-0.49
168.181	-1.11
168.559	-0.78
168.938	-0
169.317	-0
169.696	-1.36
170.074	-0
170.453	-0
170.832	-1.41
171.21	-0.08
171.589	-0
171.968	0.12
172.346	-0
172.725	-0
173.103	-0
173.482	-0
173.861	-0
174.239	-0.36
174.617	-0.31
174.996	-0.25
175.374	-0.4
175.753	-0.3
176.131	-0.17
176.51	-0.2
176.888	1.17
177.266	-0
177.645	0.07
178.023	1.86
178.401	0.05
178.779	-0.02
179.158	0.18
179.536	-0.01
179.914	-0.09
180.292	-0.09
180.67	-0.45
181.048	-0
181.427	-0.18
181.805	-0
182.183	-0.62
182.561	-0.15
182.939	-0
183.317	-0.04
183.695	0.03
184.073	-0
184.451	-0.78
184.829	0.06
185.206	-0.16
185.584	-0
185.962	-0.2
186.34	-0.33
186.718	-0.21
187.096	-0
187.473	-0.11
187.851	-0.46
188.229	-0.37
188.607	0.26
188.984	0.54
189.362	0.26
189.74	0.89
190.117	0.52
190.495	0.4
190.872	0.35
191.25	0.9
191.627	0.61
192.005	0.26
192.382	0.33
192.76	0.4
193.137	0.44
193.515	0.37
193.892	0.3
194.269	0.43
194.647	0.56
195.024	0.27
195.401	0.27
195.779	0.28
196.156	0.45
196.533	0.35
196.91	0.22
197.288	0.31
197.665	0.4
198.042	0.28
198.419	0.3
198.796	0.23
199.173	0.43
199.55	0.35
199.927	0.39
200.304	0.34
200.681	0.26
201.058	0.42
201.435	0.76
201.812	0.28
202.189	0.48
202.566	0.31
202.943	0.34
203.32	0.4
203.697	0.43
204.073	0.23
204.45	0.46
204.827	0.38
205.204	0.29
205.58	0.3
205.957	0.56
206.334	0.51
206.71	0.41
207.087	0.34
207.464	0.38
207.84	0.5
208.217	0.52
208.593	0.35
208.97	0.46
209.346	0.51
209.723	0.27
210.099	0.51
210.476	0.42
210.852	0.71
211.228	0.24
211.605	0.43
211.981	0.4
212.357	0.57
212.733	0.33
213.11	0.31
213.486	0.44
213.862	0.31
214.238	0.6
214.614	0.39
214.991	0.43
215.367	0.61
215.743	0.23
216.119	0.27
216.495	0.28
216.871	0.4
217.247	0.46
217.623	0.58
217.999	0.34
218.375	0.56
218.751	0.45
219.127	0.45
219.502	0.24
219.878	0.49
220.254	0.54
220.63	0.34
221.006	0.6
221.381	0.43
221.757	0.44
222.133	0.29
222.508	0.44
222.884	0.36
223.26	0.39
223.635	0.49
224.011	0.41
224.386	0.51
224.762	0.48
225.137	0.37
225.513	0.59
225.888	0.42
226.264	0.4
226.639	0.31
227.014	0.55
227.39	0.33
227.765	0.36
228.14	0.47
228.516	0.5
228.891	0.52
229.266	0.58
229.641	0.55
230.017	0.44
230.392	0.47
230.767	0.64
231.142	0.29
231.517	0.59
231.892	0.85
232.267	0.43
232.642	0.9
233.017	0.36
233.392	0.33
233.767	0.36
234.142	0.36
234.517	0.31
234.892	0.32
235.267	0.33
235.641	0.47
236.016	0.38
236.391	0.33
236.766	0.43
237.14	0.55
237.515	0.55
237.89	0.28
238.264	0.44
238.639	0.34
239.014	0.5
239.388	0.55
239.763	0.49
240.137	0.4
240.512	0.2
240.886	0.53
241.261	0.54
241.635	0.43
242.009	0.59
242.384	0.43
242.758	0.44
243.132	0.28
243.507	0.33
243.881	0.45
244.255	0.34
244.629	0.34
245.004	0.71
245.378	0.46
245.752	0.57
246.126	0.31
246.5	0.34
246.874	0.34
247.248	0.41
247.622	0.41
247.996	0.45
248.37	0.53
248.744	0.38
249.118	0.27
249.492	0.52
249.866	0.38
250.24	0.6
250.613	0.52
250.987	0.54
251.361	0.53
251.735	0.54
252.108	0.39
252.482	0.36
252.856	0.36
253.229	0.45
253.603	0.47
253.977	0.55
254.35	0.48
254.724	0.42
255.097	0.42
255.471	0.37
255.844	0.33
256.218	0.48
256.591	0.38
256.964	0.54
257.338	0.32
257.711	0.61
258.084	0.45
258.458	0.45
258.831	0.72
259.204	0.36
259.577	0.35
259.95	0.4
260.323	0.43
260.697	0.64
261.07	0.4
261.443	0.68
261.816	0.54
262.189	0.51
262.562	0.41
262.935	0.36
263.308	0.35
263.68	0.31
264.053	0.42
264.426	0.47
264.799	0.43
265.172	0.39
265.545	0.46
265.917	0.45
266.29	0.47
266.663	0.58
267.035	0.54
267.408	0.45
267.781	0.71
268.153	0.47
268.526	0.55
268.898	0.51
269.271	0.57
269.643	0.48
270.016	0.56
270.388	0.36
270.76	0.43
271.133	0.42
271.505	0.52
271.877	0.44
272.25	0.49
272.622	0.44
272.994	0.64
273.366	0.55
273.739	0.41
274.111	0.53
274.483	0.43
274.855	0.51
275.227	0.5
275.599	0.54
275.971	0.56
276.343	0.58
276.715	0.5
277.087	0.49
277.459	0.42
277.831	0.48
278.203	0.49
278.574	0.42
278.946	0.58
279.318	0.29
279.69	0.34
280.061	0.47
280.433	0.47
280.805	0.44
281.176	0.4
281.548	0.52
281.92	0.65
282.291	0.57
282.663	0.46
283.034	0.52
283.406	0.59
283.777	0.44
284.148	0.44
284.52	0.5
284.891	0.47
285.262	0.38
285.634	0.53
286.005	0.52
286.376	0.45
286.747	0.53
287.119	0.5
287.49	0.5
287.861	0.47
288.232	0.49
288.603	0.54
288.974	0.44
289.345	0.46
289.716	0.42
290.087	0.37
290.458	0.48
290.829	0.46
291.2	0.43
291.571	0.52
291.941	0.47
292.312	0.45
292.683	0.53
293.054	0.56
293.424	0.38
293.795	0.4
294.166	0.49
294.536	0.5
294.907	0.46
295.277	0.52
295.648	0.56
296.018	0.5
296.389	0.43
296.759	0.42
297.13	0.46
297.5	0.53
297.871	0.46
298.241	0.55
298.611	0.45
298.981	0.48
299.352	0.59
299.722	0.4
300.092	0.46
300.462	0.57
300.832	0.64
301.202	0.52
301.573	0.46
301.943	0.55
302.313	0.36
302.683	0.5
303.053	0.55
303.422	0.43
303.792	0.41
304.162	0.45
304.532	0.55
304.902	0.44
305.272	0.46
305.641	0.46
306.011	0.36
306.381	0.42
306.75	0.51
307.12	0.39
307.49	0.33
307.859	0.39
308.229	0.36
308.598	0.38
308.968	0.39
309.337	0.34
309.707	0.36
310.076	0.31
310.445	0.37
310.815	0.37
311.184	0.4
311.553	0.34
311.923	0.34
312.292	0.37
312.661	0.4
313.03	0.35
313.399	0.36
313.768	0.36
314.137	0.38
314.506	0.36
314.875	0.39
315.244	0.39
315.613	0.39
315.982	0.42
316.351	0.4
316.72	0.39
317.089	0.39
317.458	0.43
317.826	0.42
318.195	0.43
318.564	0.45
318.933	0.45
319.301	0.44
319.67	0.44
320.038	0.47
320.407	0.48
320.775	0.47
321.144	0.49
321.512	0.48
321.881	0.48
322.249	0.49
322.618	0.52
322.986	0.52
323.354	0.52
323.723	0.54
324.091	0.54
324.459	0.55
324.827	0.56
325.195	0.58
325.564	0.56
325.932	0.58
326.3	0.6
326.668	0.61
327.036	0.61
327.404	0.62
327.772	0.61
328.14	0.64
328.508	0.64
328.875	0.67
329.243	0.68
329.611	0.67
329.979	0.71
330.346	0.69
330.714	0.71
331.082	0.74
331.449	0.73
331.817	0.73
332.185	0.74
332.552	0.76
332.92	0.78
333.287	0.79
333.655	0.82
334.022	0.83
334.389	0.84
334.757	0.85
335.124	0.87
335.491	0.9
335.859	0.92
336.226	0.92
336.593	0.95
336.96	0.97
337.327	0.98
337.695	1
338.062	1.02
338.429	1.04
338.796	1.05
339.163	1.08
339.53	1.1
339.897	1.11
340.263	1.13
340.63	1.17
340.997	1.16
341.364	1.19
341.731	1.2
342.097	1.22
342.464	1.24
342.831	1.26
343.197	1.28
343.564	1.31
343.931	1.31
344.297	1.34
344.664	1.36
345.03	1.37
345.396	1.41
345.763	1.43
346.129	1.44
346.496	1.46
346.862	1.46
347.228	1.51
347.594	1.54
347.961	1.54
348.327	1.55
348.693	1.56
349.059	1.57
349.425	1.61
349.791	1.63
350.157	1.61
350.523	1.65
350.889	1.65
351.255	1.66
351.621	1.68
351.987	1.76
352.353	1.7
352.719	1.7
353.084	1.77
353.45	1.79
353.816	1.81
354.181	1.78
354.547	1.83
354.913	1.83
355.278	1.89
355.644	1.85
356.009	1.87
356.375	1.92
356.74	1.94
357.106	1.92
357.471	1.94
357.836	1.98
358.202	2.07
358.567	1.99
358.932	2.04
359.297	2.08
359.663	2.07
360.028	2.04
360.393	2.13
360.758	2.14
361.123	2.09
361.488	2.15
361.853	2.09
362.218	2.18
362.583	2.15
362.948	2.16
363.312	2.17
363.677	2.09
364.042	2.19
364.407	2.24
364.772	2.17
365.136	2.25
365.501	2.14
365.865	2.23
366.23	2.22
366.595	2.18
366.959	2.28
367.324	2.18
367.688	2.19
368.052	2.28
368.417	2.22
368.781	2.23
369.145	2.28
369.51	2.38
369.874	2.26
370.238	2.23
370.602	2.08
370.967	2.26
371.331	2.2
371.695	2.21
372.059	2.24
372.423	2.23
372.787	2.19
373.151	2.19
373.515	2.24
373.878	2.29
374.242	2.21
374.606	2.22
374.97	2.17
375.334	2.26
375.697	2.12
376.061	2.27
376.425	2.34
376.788	2.22
377.152	2.28
377.515	2.26
377.879	2.28
378.242	2.16
378.606	2.19
378.969	2.26
379.333	2.18
379.696	2.18
380.059	2.15
380.422	2.09
380.786	2.07
381.149	2.18
381.512	2.13
381.875	2.08
382.238	2.05
382.601	2.03
382.964	2.02
383.327	2.01
383.69	2
384.053	1.95
384.416	1.9
384.779	1.92
385.142	1.91
385.504	1.92
385.867	1.91
386.23	1.91
386.593	1.88
386.955	1.87
387.318	1.84
387.68	1.83
388.043	1.8
388.405	1.79
388.768	1.83
389.13	1.81
389.493	1.81
389.855	1.76
390.217	1.76
390.58	1.75
390.942	1.71
391.304	1.67
391.666	1.67
392.028	1.63
392.391	1.61
392.753	1.65
393.115	1.56
393.477	1.56
393.839	1.56
394.201	1.52
394.563	1.52
394.924	1.5
395.286	1.5
395.648	1.5
396.01	1.48
396.371	1.5
396.733	1.51
397.095	1.53
397.456	1.56
397.818	1.57
398.18	1.59
398.541	1.6
398.903	1.67
399.264	1.67
399.625	1.68
399.987	1.71
400.348	1.74
400.709	1.78
401.071	1.76
401.432	1.76
401.793	1.81
402.154	1.74
402.515	1.72
402.876	1.71
403.238	1.68
403.599	1.62
403.96	1.61
404.32	1.55
404.681	1.5
405.042	1.44
405.403	1.39
405.764	1.33
406.125	1.27
406.485	1.23
406.846	1.16
407.207	1.12
407.567	1.06
407.928	1
408.288	0.94
408.649	0.89
409.009	0.85
409.37	0.82
409.73	0.77
410.091	0.72
410.451	0.7
410.811	0.66
411.171	0.63
411.532	0.61
411.892	0.58
412.252	0.55
412.612	0.53
412.972	0.5
413.332	0.49
413.692	0.47
414.052	0.45
414.412	0.43
414.772	0.42
415.132	0.41
415.492	0.39
415.851	0.39
416.211	0.37
416.571	0.36
416.931	0.35
417.29	0.33
417.65	0.33
418.009	0.32
418.369	0.31
418.728	0.31
419.088	0.31
419.447	0.3
419.807	0.3
420.166	0.28
420.525	0.28
420.884	0.28
421.244	0.27
421.603	0.27
421.962	0.26
422.321	0.26
422.68	0.26
423.039	0.25
423.398	0.24
423.757	0.24
424.116	0.24
424.475	0.24
424.834	0.24
425.193	0.23
425.551	0.23
425.91	0.23
426.269	0.22
426.628	0.23
426.986	0.22
427.345	0.21
427.703	0.21
428.062	0.22
428.42	0.22
428.779	0.22
429.137	0.21
429.496	0.21
429.854	0.22
430.212	0.21
430.57	0.22
430.929	0.21
431.287	0.2
431.645	0.21
432.003	0.2
432.361	0.2
432.719	0.21
433.077	0.2
433.435	0.2
433.793	0.21
434.151	0.2
434.509	0.21
434.866	0.2
435.224	0.2
435.582	0.21
435.94	0.2
436.297	0.2
436.655	0.21
437.012	0.2
437.37	0.2
437.727	0.2
438.085	0.2
438.442	0.2
438.8	0.21
439.157	0.21
439.514	0.21
439.872	0.2
440.229	0.2
440.586	0.2
440.943	0.21
441.3	0.21
441.657	0.21
442.014	0.22
442.371	0.21
442.728	0.22
443.085	0.23
443.442	0.21
443.799	0.21
444.156	0.21
444.513	0.22
444.869	0.21
445.226	0.22
445.583	0.23
445.939	0.23
446.296	0.21
446.652	0.22
447.009	0.23
447.365	0.22
447.722	0.22
448.078	0.22
448.434	0.23
448.791	0.24
449.147	0.23
449.503	0.22
449.859	0.22
450.215	0.23
450.571	0.23
450.928	0.23
451.284	0.24
451.64	0.23
451.995	0.23
452.351	0.23
452.707	0.23
453.063	0.24
453.419	0.23
453.775	0.22
454.13	0.22
454.486	0.23
454.842	0.23
455.197	0.23
455.553	0.23
455.908	0.22
456.264	0.22
456.619	0.22
456.975	0.22
457.33	0.22
457.685	0.21
458.04	0.2
458.396	0.22
458.751	0.2
459.106	0.2
459.461	0.21
459.816	0.2
460.171	0.19
460.526	0.2
460.881	0.19
461.236	0.18
461.591	0.19
461.946	0.18
462.301	0.18
462.655	0.18
463.01	0.17
463.365	0.16
463.719	0.16
464.074	0.15
464.428	0.14
464.783	0.14
465.137	0.14
465.492	0.14
465.846	0.14
466.201	0.14
466.555	0.15
466.909	0.16
467.263	0.17
467.618	0.16
467.972	0.17
468.326	0.16
468.68	0.16
469.034	0.15
469.388	0.15
469.742	0.16
470.096	0.16
470.45	0.17
470.804	0.17
471.157	0.17
471.511	0.18
471.865	0.17
472.218	0.18
472.572	0.19
472.926	0.2
473.279	0.21
473.633	0.22
473.986	0.23
474.34	0.23
474.693	0.26
475.046	0.27
475.4	0.28
475.753	0.29
476.106	0.31
476.459	0.32
476.812	0.34
477.165	0.34
477.519	0.35
477.872	0.36
478.224	0.37
478.577	0.39
478.93	0.4
479.283	0.41
479.636	0.41
479.989	0.42
480.341	0.44
480.694	0.45
481.047	0.46
481.399	0.47
481.752	0.48
482.104	0.48
482.457	0.5
482.809	0.51
483.162	0.5
483.514	0.53
483.866	0.53
484.219	0.53
484.571	0.54
484.923	0.55
485.275	0.56
485.627	0.57
485.979	0.58
486.331	0.59
486.683	0.59
487.035	0.61
487.387	0.62
487.739	0.64
488.091	0.64
488.443	0.64
488.794	0.65
489.146	0.66
489.498	0.66
489.849	0.66
490.201	0.67
490.552	0.67
490.904	0.68
491.255	0.68
491.607	0.7
491.958	0.71
492.309	0.71
492.661	0.71
493.012	0.72
493.363	0.73
493.714	0.73
494.065	0.74
494.416	0.74
494.767	0.75
495.118	0.76
495.469	0.77
495.82	0.77
496.171	0.79
496.522	0.79
496.872	0.79
497.223	0.8
497.574	0.81
497.924	0.82
498.275	0.84
498.626	0.83
498.976	0.84
499.327	0.85
499.677	0.85
500.027	0.86
500.378	0.87
500.728	0.87
501.078	0.88
501.428	0.89
501.779	0.89
502.129	0.89
502.479	0.9
502.829	0.92
503.179	0.93
503.529	0.92
503.879	0.94
504.229	0.94
504.578	0.94
504.928	0.95
505.278	0.96
505.628	0.97
505.977	0.97
506.327	0.98
506.676	0.98
507.026	0.99
507.375	1
507.725	0.99
508.074	1
508.424	1
508.773	1.01
509.122	1.01
509.471	1.02
509.82	1.03
510.17	1.04
510.519	1.04
510.868	1.04
511.217	1.05
511.566	1.05
511.915	1.08
512.263	1.07
512.612	1.07
512.961	1.08
513.31	1.09
513.659	1.09
514.007	1.11
514.356	1.12
514.704	1.11
515.053	1.12
515.401	1.11
515.75	1.13
516.098	1.13
516.447	1.14
516.795	1.14
517.143	1.14
517.491	1.15
517.839	1.15
518.188	1.15
518.536	1.15
518.884	1.17
519.232	1.16
519.58	1.17
519.928	1.16
520.275	1.17
520.623	1.19
520.971	1.19
521.319	1.2
521.666	1.2
522.014	1.2
522.362	1.21
522.709	1.2
523.057	1.22
523.404	1.22
523.752	1.22
524.099	1.22
524.446	1.23
524.794	1.23
525.141	1.24
525.488	1.24
525.835	1.24
526.182	1.24
526.529	1.24
526.876	1.25
527.223	1.26
527.57	1.26
527.917	1.26
528.264	1.27
528.611	1.26
528.958	1.27
529.304	1.28
529.651	1.28
529.998	1.28
530.344	1.27
530.691	1.29
531.037	1.3
531.384	1.3
531.73	1.29
532.076	1.31
532.423	1.3
532.769	1.3
533.115	1.3
533.461	1.31
533.807	1.31
534.154	1.31
534.5	1.31
534.846	1.33
535.192	1.32
535.537	1.33
535.883	1.32
536.229	1.34
536.575	1.33
536.921	1.34
537.266	1.33
537.612	1.34
537.957	1.32
538.303	1.34
538.649	1.34
538.994	1.34
539.339	1.34
539.685	1.35
540.03	1.35
540.375	1.35
540.721	1.36
541.066	1.35
541.411	1.36
541.756	1.36
542.101	1.36
542.446	1.34
542.791	1.35
543.136	1.36
543.481	1.35
543.825	1.35
544.17	1.36
544.515	1.37
544.86	1.35
545.204	1.36
545.549	1.37
545.893	1.36
546.238	1.37
546.582	1.37
546.927	1.37
547.271	1.37
547.615	1.37
547.96	1.39
548.304	1.38
548.648	1.38
548.992	1.37
549.336	1.36
549.68	1.36
550.024	1.38
550.368	1.39
550.712	1.38
551.056	1.37
551.4	1.37
551.743	1.38
552.087	1.38
552.431	1.38
552.774	1.37
553.118	1.37
553.462	1.37
553.805	1.37
554.148	1.36
554.492	1.35
554.835	1.37
555.178	1.37
555.522	1.36
555.865	1.36
556.208	1.36
556.551	1.35
556.894	1.35
557.237	1.35
557.58	1.35
557.923	1.35
558.266	1.35
558.609	1.35
558.952	1.36
559.294	1.34
559.637	1.35
559.98	1.34
560.322	1.33
560.665	1.33
561.007	1.33
561.35	1.33
561.692	1.32
562.034	1.33
562.377	1.34
562.719	1.33
563.061	1.33
563.403	1.32
563.745	1.33
564.088	1.33
564.43	1.32
564.772	1.32
565.113	1.33
565.455	1.32
565.797	1.32
566.139	1.32
566.481	1.31
566.822	1.3
567.164	1.31
567.506	1.3
567.847	1.31
568.189	1.31
568.53	1.3
568.872	1.3
569.213	1.29
569.554	1.29
569.895	1.29
570.237	1.28
570.578	1.27
570.919	1.28
571.26	1.27
571.601	1.27
571.942	1.28
572.283	1.27
572.624	1.26
572.965	1.26
573.306	1.26
573.646	1.25
573.987	1.25
574.328	1.25
574.668	1.25
575.009	1.24
575.349	1.24
575.69	1.24
576.03	1.23
576.37	1.23
576.711	1.22
577.051	1.23
577.391	1.22
577.731	1.23
578.072	1.22
578.412	1.21
578.752	1.22
579.092	1.21
579.431	1.19
579.771	1.19
580.111	1.18
580.451	1.2
580.791	1.2
581.13	1.19
581.47	1.19
581.81	1.18
582.149	1.18
582.489	1.18
582.828	1.17
583.167	1.15
583.507	1.12
583.846	1.12
584.185	1.14
584.525	1.17
584.864	1.16
585.203	1.17
585.542	1.17
585.881	1.16
586.22	1.17
586.559	1.16
586.898	1.15
587.236	1.14
587.575	1.14
587.914	1.15
588.252	1.15
588.591	1.15
588.93	1.15
589.268	1.14
589.607	1.14
589.945	1.14
590.283	1.14
590.622	1.14
590.96	1.14
591.298	1.13
591.636	1.13
591.974	1.15
592.313	1.13
592.651	1.13
592.989	1.13
593.326	1.13
593.664	1.13
594.002	1.12
594.34	1.13
594.678	1.13
595.015	1.12
595.353	1.11
595.691	1.12
596.028	1.12
596.366	1.12
596.703	1.11
597.04	1.12
597.378	1.11
597.715	1.12
598.052	1.12
598.389	1.11
598.726	1.11
599.064	1.11
599.401	1.11
599.738	1.11
600.074	1.11
600.411	1.11
600.748	1.1
601.085	1.09
601.422	1.09
601.758	1.09
602.095	1.09
602.432	1.09
602.768	1.09
603.105	1.09
603.441	1.09
603.777	1.08
604.114	1.09
604.45	1.08
604.786	1.08
605.122	1.07
605.459	1.07
605.795	1.06
606.131	1.07
606.467	1.07
606.803	1.06
607.139	1.06
607.474	1.05
607.81	1.05
608.146	1.05
608.482	1.05
608.817	1.04
609.153	1.04
609.488	1.04
609.824	1.03
610.159	1.03
610.495	1.03
610.83	1.03
611.165	1.03
611.5	1.02
611.836	1.02
612.171	1.01
612.506	1.01
612.841	1.01
613.176	1
613.511	0.99
613.845	1
614.18	0.99
614.515	0.99
614.85	0.99
615.184	0.99
615.519	0.98
615.854	0.97
616.188	0.96
616.523	0.97
616.857	0.96
617.191	0.96
617.526	0.96
617.86	0.95
618.194	0.96
618.528	0.95
618.862	0.95
619.196	0.95
619.53	0.94
619.864	0.93
620.198	0.93
620.532	0.93
620.866	0.93
621.2	0.92
621.533	0.91
621.867	0.91
622.201	0.9
622.534	0.9
622.868	0.91
623.201	0.9
623.534	0.89
623.868	0.89
624.201	0.88
624.534	0.88
624.868	0.88
625.201	0.87
625.534	0.87
625.867	0.87
626.2	0.86
626.533	0.86
626.865	0.86
627.198	0.85
627.531	0.85
627.864	0.84
628.196	0.84
628.529	0.84
628.862	0.83
629.194	0.82
629.527	0.82
629.859	0.82
630.191	0.81
630.524	0.81
630.856	0.81
631.188	0.79
631.52	0.79
631.852	0.79
632.184	0.79
632.516	0.78
632.848	0.77
633.18	0.77
633.512	0.77
633.844	0.76
634.175	0.75
634.507	0.75
634.839	0.74
635.17	0.75
635.502	0.74
635.833	0.73
636.165	0.73
636.496	0.73
636.827	0.72
637.159	0.71
637.49	0.71
637.821	0.7
638.152	0.7
638.483	0.7
638.814	0.69
639.145	0.68
639.476	0.68
639.807	0.68
640.137	0.67
640.468	0.66
640.799	0.67
641.129	0.66
641.46	0.66
641.791	0.65
642.121	0.65
642.451	0.64
642.782	0.64
643.112	0.63
643.442	0.63
643.773	0.63
644.103	0.63
644.433	0.62
644.763	0.62
645.093	0.62
645.423	0.61
645.753	0.61
646.082	0.61
646.412	0.61
646.742	0.6
647.072	0.6
647.401	0.59
647.731	0.59
648.06	0.59
648.39	0.59
648.719	0.58
649.048	0.58
649.378	0.58
649.707	0.57
650.036	0.57
650.365	0.57
650.694	0.56
651.023	0.56
651.352	0.56
651.681	0.56
652.01	0.56
652.339	0.56
652.668	0.55
652.996	0.55
653.325	0.55
653.654	0.55
653.982	0.54
654.311	0.54
654.639	0.54
654.967	0.54
655.296	0.53
655.624	0.54
655.952	0.54
656.28	0.53
656.609	0.53
656.937	0.53
657.265	0.51
657.593	0.37
657.92	0.27
658.248	0.25
658.576	0.33
658.904	0.46
659.231	0.51
659.559	0.52
659.887	0.51
660.214	0.5
660.542	0.5
660.869	0.5
661.196	0.5
661.524	0.5
661.851	0.5
662.178	0.5
662.505	0.49
662.832	0.49
663.159	0.49
663.486	0.49
663.813	0.48
664.14	0.48
664.467	0.48
664.794	0.47
665.12	0.48
665.447	0.48
665.774	0.47
666.1	0.47
666.427	0.47
666.753	0.47
667.079	0.46
667.406	0.46
667.732	0.45
668.058	0.46
668.384	0.45
668.71	0.45
669.036	0.45
669.362	0.44
669.688	0.44
670.014	0.44
670.34	0.44
670.666	0.43
670.991	0.43
671.317	0.43
671.643	0.42
671.968	0.42
672.294	0.42
672.619	0.41
672.945	0.41
673.27	0.41
673.595	0.4
673.92	0.4
674.246	0.4
674.571	0.4
674.896	0.39
675.221	0.39
675.546	0.39
675.87	0.38
676.195	0.38
676.52	0.38
676.845	0.38
677.169	0.37
677.494	0.37
677.819	0.36
678.143	0.36
678.468	0.36
678.792	0.36
679.116	0.35
679.44	0.35
679.765	0.35
680.089	0.34
680.413	0.34
680.737	0.34
681.061	0.33
681.385	0.33
681.709	0.33
682.033	0.32
682.356	0.32
682.68	0.32
683.004	0.32
683.327	0.31
683.651	0.3
683.974	0.3
684.298	0.3
684.621	0.3
684.944	0.29
685.268	0.29
685.591	0.29
685.914	0.29
686.237	0.28
686.56	0.28
686.883	0.27
687.206	0.27
687.529	0.27
687.852	0.27
688.175	0.27
688.497	0.26
688.82	0.26
689.142	0.26
689.465	0.25
689.787	0.25
690.11	0.25
690.432	0.24
690.755	0.24
691.077	0.24
691.399	0.23
691.721	0.23
692.043	0.23
692.365	0.23
692.687	0.23
693.009	0.22
693.331	0.22
693.653	0.21
693.974	0.22
694.296	0.22
694.618	0.21
694.939	0.21
695.261	0.21
695.582	0.21
695.904	0.2
696.225	0.2
696.546	0.2
696.868	0.2
697.189	0.2
697.51	0.19
697.831	0.2
698.152	0.2
698.473	0.19
698.794	0.18
699.114	0.18
699.435	0.18
699.756	0.18
700.077	0.18
700.397	0.18
700.718	0.18
701.038	0.18
701.359	0.18
701.679	0.18
701.999	0.18
702.32	0.18
702.64	0.17
702.96	0.17
703.28	0.17
703.6	0.17
703.92	0.17
704.24	0.17
704.56	0.16
704.879	0.16
705.199	0.17
705.519	0.17
705.838	0.16
706.158	0.17
706.478	0.16
706.797	0.16
707.116	0.16
707.436	0.16
707.755	0.16
708.074	0.16
708.393	0.15
708.712	0.15
709.031	0.14
709.35	0.14
709.669	0.14
709.988	0.15
710.307	0.15
710.626	0.15
710.944	0.15
711.263	0.15
711.582	0.15
711.9	0.15
712.219	0.15
712.537	0.15
712.855	0.15
713.174	0.15
713.492	0.15
713.81	0.15
714.128	0.15
714.446	0.15
714.764	0.15
715.082	0.15
715.4	0.15
715.718	0.15
716.035	0.14
716.353	0.15
716.671	0.15
716.988	0.15
717.306	0.15
717.623	0.15
717.941	0.16
718.258	0.16
718.575	0.15
718.893	0.15
719.21	0.15
719.527	0.15
719.844	0.15
720.161	0.15
720.478	0.15
720.795	0.16
721.112	0.16
721.428	0.16
721.745	0.15
722.062	0.15
722.378	0.16
722.695	0.16
723.011	0.16
723.328	0.16
723.644	0.16
723.96	0.16
724.276	0.16
724.593	0.16
724.909	0.16
725.225	0.16
725.541	0.16
725.857	0.16
726.173	0.16
726.488	0.16
726.804	0.16
727.12	0.16
727.435	0.16
727.751	0.16
728.067	0.16
728.382	0.16
728.697	0.16
729.013	0.16
729.328	0.16
729.643	0.16
729.958	0.16
730.273	0.16
730.588	0.15
730.903	0.16
731.218	0.15
731.533	0.16
731.848	0.15
732.163	0.15
732.477	0.15
732.792	0.15
733.107	0.15
733.421	0.15
733.736	0.15
734.05	0.15
734.364	0.15
734.678	0.15
734.993	0.15
735.307	0.15
735.621	0.15
735.935	0.15
736.249	0.15
736.563	0.15
736.877	0.15
737.19	0.15
737.504	0.15
737.818	0.15
738.131	0.15
738.445	0.15
738.758	0.15
739.072	0.14
739.385	0.14
739.698	0.15
740.012	0.15
740.325	0.14
740.638	0.14
740.951	0.14
741.264	0.13
741.577	0.14
741.89	0.14
742.203	0.13
742.515	0.14
742.828	0.14
743.141	0.13
743.453	0.13
743.766	0.13
744.078	0.13
744.391	0.13
744.703	0.13
745.015	0.12
745.327	0.13
745.639	0.13
745.952	0.13
746.264	0.13
746.575	0.13
746.887	0.12
747.199	0.12
747.511	0.12
747.823	0.12
748.134	0.12
748.446	0.12
748.757	0.12
749.069	0.12
749.38	0.12
749.692	0.12
750.003	0.11
750.314	0.11
750.625	0.11
750.936	0.11
751.248	0.11
751.559	0.11
751.869	0.11
752.18	0.11
752.491	0.1
752.802	0.11
753.112	0.1
753.423	0.1
753.734	0.1
754.044	0.1
754.355	0.1
754.665	0.1
754.975	0.1
755.285	0.1
755.596	0.1
755.906	0.1
756.216	0.1
756.526	0.1
756.836	0.1
757.146	0.09
757.455	0.09
757.765	0.09
758.075	0.09
758.385	0.09
758.694	0.09
759.004	0.09
759.313	0.09
759.622	0.09
759.932	0.09
760.241	0.09
760.55	0.09
760.859	0.09
761.168	0.09
761.477	0.09
761.786	0.09
762.095	0.09
762.404	0.08
762.713	0.09
763.021	0.08
763.33	0.08
763.639	0.09
763.947	0.09
764.256	0.09
764.564	0.09
764.872	0.08
765.181	0.09
765.489	0.08
765.797	0.08
766.105	0.08
766.413	0.08
766.721	0.08
767.029	0.08
767.337	0.08
767.644	0.08
767.952	0.09
768.26	0.08
768.567	0.08
768.875	0.08
769.182	0.08
769.49	0.08
769.797	0.08
770.104	0.08
770.411	0.08
770.718	0.08
771.026	0.08
771.333	0.08
771.639	0.09
771.946	0.08
772.253	0.09
772.56	0.09
772.867	0.09
773.173	0.09
773.48	0.09
773.786	0.08
774.093	0.09
774.399	0.09
774.705	0.09
775.012	0.09
775.318	0.09
775.624	0.09
775.93	0.08
776.236	0.08
776.542	0.08
776.848	0.09
777.154	0.09
777.459	0.08
777.765	0.09
778.071	0.09
778.376	0.09
778.682	0.09
778.987	0.09
779.292	0.09
779.598	0.09
779.903	0.09
780.208	0.09
780.513	0.09
780.818	0.09
781.123	0.09
781.428	0.09
781.733	0.09
782.038	0.09
782.343	0.09
782.647	0.09
782.952	0.09
783.256	0.09
783.561	0.1
783.865	0.1
784.17	0.1
784.474	0.1
784.778	0.1
785.082	0.1
785.386	0.09
785.69	0.1
785.994	0.1
786.298	0.1
786.602	0.1
786.906	0.1
787.209	0.1
787.513	0.1
787.817	0.1
788.12	0.1
788.424	0.1
788.727	0.1
789.03	0.1
789.333	0.1
789.637	0.1
789.94	0.1
790.243	0.1
790.546	0.1
790.849	0.1
791.152	0.1
791.454	0.1
791.757	0.1
792.06	0.1
792.362	0.1
792.665	0.1
792.967	0.1
793.27	0.1
793.572	0.1
793.874	0.1
794.177	0.1
794.479	0.1
794.781	0.11
795.083	0.11
795.385	0.11
795.687	0.11
795.989	0.11
796.29	0.11
796.592	0.11
796.894	0.11
797.195	0.12
797.497	0.11
797.798	0.11
798.1	0.12
798.401	0.11
798.702	0.11
799.003	0.11
799.304	0.11
799.605	0.11
799.906	0.12
800.207	0.11
800.508	0.11
800.809	0.12
801.11	0.11
801.41	0.12
801.711	0.12
802.011	0.12
802.312	0.11
802.612	0.12
802.913	0.12
803.213	0.12
803.513	0.12
803.813	0.12
804.113	0.12
804.413	0.12
804.713	0.12
805.013	0.12
805.313	0.12
805.613	0.12
805.912	0.12
806.212	0.13
806.511	0.12
806.811	0.12
807.11	0.12
807.41	0.13
807.709	0.12
808.008	0.12
808.307	0.12
808.606	0.13
808.905	0.12
809.204	0.13
809.503	0.13
809.802	0.13
810.101	0.13
810.399	0.13
810.698	0.13
810.997	0.13
811.295	0.13
811.593	0.13
811.892	0.14
812.19	0.14
812.488	0.14
812.786	0.14
813.084	0.14
813.383	0.14
813.68	0.14
813.978	0.14
814.276	0.14
814.574	0.14
814.872	0.14
815.169	0.15
815.467	0.14
815.764	0.15
816.062	0.15
816.359	0.14
816.656	0.15
816.954	0.15
817.251	0.15
817.548	0.15
817.845	0.15
818.142	0.15
818.439	0.15
818.735	0.15
819.032	0.15
819.329	0.15
819.626	0.15
819.922	0.15
820.219	0.16
820.515	0.16
820.811	0.15
821.108	0.15
821.404	0.15
821.7	0.15
821.996	0.16
822.292	0.16
822.588	0.16
822.884	0.15
823.18	0.16
823.475	0.16
823.771	0.16
824.067	0.16
824.362	0.16
824.658	0.16
824.953	0.17
825.249	0.16
825.544	0.17
825.839	0.16
826.134	0.17
826.429	0.16
826.724	0.16
827.019	0.16
827.314	0.17
827.609	0.17
827.904	0.17
828.198	0.17
828.493	0.17
828.787	0.17
829.082	0.17
829.376	0.16
829.671	0.17
829.965	0.17
830.259	0.18
830.553	0.18
830.847	0.18
831.141	0.18
831.435	0.18
831.729	0.18
832.023	0.18
832.317	0.19
832.61	0.18
832.904	0.18
833.197	0.19
833.491	0.19
833.784	0.19
834.077	0.18
834.371	0.18
834.664	0.18
834.957	0.18
835.25	0.19
835.543	0.19
835.836	0.19
836.129	0.18
836.421	0.19
836.714	0.19
837.007	0.18
837.299	0.19
837.592	0.19
837.884	0.2
838.177	0.18
838.469	0.2
838.761	0.2
839.053	0.2
839.345	0.2
839.637	0.2
839.929	0.2
840.221	0.19
840.513	0.2
840.805	0.2
841.096	0.2
841.388	0.2
841.68	0.2
841.971	0.2
842.262	0.21
842.554	0.21
842.845	0.21
843.136	0.21
843.427	0.21
843.718	0.2
844.009	0.21
844.3	0.2
844.591	0.2
844.882	0.2
845.173	0.2
845.463	0.21
845.754	0.21
846.044	0.21
846.335	0.2
846.625	0.21
846.915	0.2
847.206	0.22
847.496	0.21
847.786	0.22
848.076	0.22
848.366	0.2
848.656	0.22
848.945	0.21
849.235	0.21
849.525	0.21
849.814	0.21
850.104	0.22
850.393	0.22
850.683	0.23
850.972	0.23
851.261	0.23
851.551	0.22
851.84	0.22
852.129	0.22
852.418	0.23
852.707	0.23
852.995	0.22
853.284	0.22
853.573	0.23
853.862	0.22
854.15	0.24
854.439	0.23
854.727	0.23
855.015	0.24
855.304	0.21
855.592	0.23
855.88	0.22
856.168	0.23
856.456	0.23
856.744	0.23
857.032	0.23
857.32	0.25
857.607	0.24
857.895	0.24
858.183	0.25
858.47	0.24
858.757	0.25
859.045	0.23
859.332	0.24
859.619	0.23
859.907	0.24
860.194	0.25
860.481	0.24
860.768	0.23
861.054	0.23
861.341	0.24
861.628	0.25
861.915	0.26
862.201	0.24
862.488	0.23
862.774	0.24
863.061	0.26
863.347	0.25
863.633	0.25
863.919	0.22
864.205	0.23
864.491	0.25
864.777	0.23
865.063	0.24
865.349	0.24
865.635	0.25
865.92	0.22
866.206	0.23
866.492	0.22
866.777	0.24
867.062	0.25
867.348	0.24
867.633	0.23
867.918	0.26
868.203	0.25
868.488	0.23
868.773	0.29
869.058	0.24
869.343	0.3
869.628	0.23
869.912	0.22
870.197	0.25
870.482	0.26
870.766	0.26
871.05	0.27
871.335	0.23
871.619	0.2
871.903	0.2
872.187	0.28
872.471	0.31
872.755	0.29
873.039	0.2
873.323	0.23
873.607	0.31
873.89	0.2
874.174	0.25
874.458	0.18
874.741	0.27
875.024	0.27
875.308	0.3
875.591	0.37
875.874	0.24
876.157	0.18
876.44	0.27
876.723	0.25
877.006	0.18
877.289	0.24
877.572	0.41
877.854	0.19
878.137	0.25
878.42	0.15
878.702	0.2
878.984	0.09
879.267	0.19
879.549	0.39
879.831	0.25
880.113	0.17
880.395	0.14
880.677	0.22
880.959	0.12
