Data from Rubpy_BV_1800_EDTA_Buffered_Absorbance_16-57-56-565.txt Node
Date: Wed Jul 01 16:57:56 BST 2026
User: fpm-admin
Spectrometer: OFX00224
Trigger mode: 0
Integration Time (sec): 7.000000E-2
Scans to average: 3
Nonlinearity correction enabled: false
Boxcar width: 0
Storing dark spectrum: false
XAxis mode: Wavelengths
Number of Pixels in Spectrum: 2136
>>>>>Begin Spectral Data<<<<<
154.91	-0
155.289	-0.5
155.669	-0
156.048	-0
156.428	-0
156.807	0.31
157.186	-0
157.566	0.3
157.945	0.48
158.325	-0.12
158.704	-0.04
159.083	0.16
159.462	0.6
159.842	0.6
160.221	-0
160.6	-0
160.979	-0
161.359	0.43
161.738	-0.2
162.117	-0.54
162.496	-0.27
162.875	-0.15
163.254	0.53
163.633	0.09
164.012	-0
164.391	0.56
164.77	-0.02
165.149	-1.12
165.528	-0
165.907	-0
166.286	-0.16
166.665	0.02
167.044	0.98
167.423	0.22
167.802	-0.49
168.181	-1.64
168.559	-0.26
168.938	0.32
169.317	-0
169.696	-1.34
170.074	-0
170.453	-0
170.832	-0
171.21	0.29
171.589	-0
171.968	0.58
172.346	-0
172.725	-0
173.103	-0.05
173.482	0.29
173.861	-0
174.239	-0.57
174.617	0.12
174.996	-0.02
175.374	-0.8
175.753	-0.62
176.131	0.1
176.51	0.52
176.888	0.36
177.266	-0
177.645	0.11
178.023	1.86
178.401	-0.18
178.779	-0.09
179.158	0.68
179.536	0.29
179.914	-0.22
180.292	-0.11
180.67	-0.33
181.048	0.31
181.427	-0
181.805	-0
182.183	-0
182.561	-0
182.939	-0
183.317	-0.15
183.695	-0.26
184.073	-0
184.451	-0.45
184.829	-0.38
185.206	-0.42
185.584	-0
185.962	-0.27
186.34	-0.42
186.718	0.23
187.096	-0
187.473	-0.67
187.851	-0.23
188.229	-0.43
188.607	0.24
188.984	0.49
189.362	0.3
189.74	0.38
190.117	0.41
190.495	0.37
190.872	0.26
191.25	0.72
191.627	0.43
192.005	0.28
192.382	0.41
192.76	0.55
193.137	0.41
193.515	0.43
193.892	0.3
194.269	0.59
194.647	0.42
195.024	0.44
195.401	0.43
195.779	0.47
196.156	0.37
196.533	0.32
196.91	0.36
197.288	0.3
197.665	0.21
198.042	0.18
198.419	0.43
198.796	0.27
199.173	0.46
199.55	0.36
199.927	0.38
200.304	0.26
200.681	0.65
201.058	-0.02
201.435	0.87
201.812	0.41
202.189	0.28
202.566	0.38
202.943	0.34
203.32	0.57
203.697	0.33
204.073	0.32
204.45	0.42
204.827	0.46
205.204	0.38
205.58	0.37
205.957	0.29
206.334	0.34
206.71	0.46
207.087	0.57
207.464	0.44
207.84	0.53
208.217	0.39
208.593	0.29
208.97	0.51
209.346	0.4
209.723	0.28
210.099	0.65
210.476	0.5
210.852	0.6
211.228	0.34
211.605	0.47
211.981	0.37
212.357	0.46
212.733	0.33
213.11	0.29
213.486	0.38
213.862	0.26
214.238	0.31
214.614	0.37
214.991	0.31
215.367	0.26
215.743	0.23
216.119	0.41
216.495	0.45
216.871	0.5
217.247	0.3
217.623	0.34
217.999	0.43
218.375	0.42
218.751	0.39
219.127	0.43
219.502	0.4
219.878	0.36
220.254	0.52
220.63	0.4
221.006	0.33
221.381	0.42
221.757	0.32
222.133	0.35
222.508	0.65
222.884	0.38
223.26	0.39
223.635	0.28
224.011	0.39
224.386	0.41
224.762	0.45
225.137	0.59
225.513	0.37
225.888	0.52
226.264	0.3
226.639	0.37
227.014	0.49
227.39	0.46
227.765	0.28
228.14	0.44
228.516	0.42
228.891	0.4
229.266	0.56
229.641	0.5
230.017	0.46
230.392	0.39
230.767	0.45
231.142	0.53
231.517	0.35
231.892	0.28
232.267	0.54
232.642	0.43
233.017	0.47
233.392	0.47
233.767	0.64
234.142	0.48
234.517	0.5
234.892	0.42
235.267	0.45
235.641	0.52
236.016	0.43
236.391	0.45
236.766	0.31
237.14	0.35
237.515	0.51
237.89	0.35
238.264	0.54
238.639	0.28
239.014	0.69
239.388	0.49
239.763	0.45
240.137	0.35
240.512	0.35
240.886	0.41
241.261	0.35
241.635	0.57
242.009	0.7
242.384	0.32
242.758	0.39
243.132	0.42
243.507	0.43
243.881	0.39
244.255	0.36
244.629	0.36
245.004	0.62
245.378	0.48
245.752	0.6
246.126	0.41
246.5	0.48
246.874	0.49
247.248	0.41
247.622	0.53
247.996	0.56
248.37	0.37
248.744	0.32
249.118	0.66
249.492	0.4
249.866	0.34
250.24	0.47
250.613	0.71
250.987	0.56
251.361	0.5
251.735	0.34
252.108	0.38
252.482	0.39
252.856	0.35
253.229	0.39
253.603	0.38
253.977	0.44
254.35	0.44
254.724	0.5
255.097	0.4
255.471	0.32
255.844	0.4
256.218	0.47
256.591	0.34
256.964	0.52
257.338	0.38
257.711	0.59
258.084	0.42
258.458	0.4
258.831	0.45
259.204	0.46
259.577	0.34
259.95	0.41
260.323	0.39
260.697	0.35
261.07	0.37
261.443	0.55
261.816	0.44
262.189	0.48
262.562	0.37
262.935	0.47
263.308	0.32
263.68	0.36
264.053	0.43
264.426	0.42
264.799	0.48
265.172	0.53
265.545	0.42
265.917	0.46
266.29	0.52
266.663	0.5
267.035	0.61
267.408	0.47
267.781	0.48
268.153	0.52
268.526	0.34
268.898	0.53
269.271	0.45
269.643	0.38
270.016	0.5
270.388	0.37
270.76	0.43
271.133	0.38
271.505	0.62
271.877	0.4
272.25	0.39
272.622	0.55
272.994	0.4
273.366	0.37
273.739	0.53
274.111	0.43
274.483	0.39
274.855	0.42
275.227	0.61
275.599	0.39
275.971	0.44
276.343	0.31
276.715	0.35
277.087	0.43
277.459	0.5
277.831	0.43
278.203	0.49
278.574	0.42
278.946	0.35
279.318	0.34
279.69	0.44
280.061	0.51
280.433	0.41
280.805	0.54
281.176	0.5
281.548	0.35
281.92	0.44
282.291	0.38
282.663	0.44
283.034	0.45
283.406	0.43
283.777	0.53
284.148	0.42
284.52	0.5
284.891	0.54
285.262	0.53
285.634	0.42
286.005	0.39
286.376	0.39
286.747	0.46
287.119	0.35
287.49	0.57
287.861	0.42
288.232	0.56
288.603	0.54
288.974	0.36
289.345	0.51
289.716	0.41
290.087	0.43
290.458	0.48
290.829	0.49
291.2	0.54
291.571	0.43
291.941	0.59
292.312	0.5
292.683	0.5
293.054	0.56
293.424	0.34
293.795	0.42
294.166	0.49
294.536	0.5
294.907	0.39
295.277	0.45
295.648	0.48
296.018	0.5
296.389	0.3
296.759	0.39
297.13	0.5
297.5	0.49
297.871	0.41
298.241	0.69
298.611	0.5
298.981	0.42
299.352	0.43
299.722	0.41
300.092	0.48
300.462	0.44
300.832	0.45
301.202	0.42
301.573	0.35
301.943	0.56
302.313	0.34
302.683	0.42
303.053	0.36
303.422	0.39
303.792	0.37
304.162	0.49
304.532	0.55
304.902	0.32
305.272	0.36
305.641	0.39
306.011	0.36
306.381	0.39
306.75	0.41
307.12	0.35
307.49	0.37
307.859	0.37
308.229	0.36
308.598	0.37
308.968	0.38
309.337	0.38
309.707	0.34
310.076	0.33
310.445	0.34
310.815	0.32
311.184	0.35
311.553	0.31
311.923	0.35
312.292	0.35
312.661	0.34
313.03	0.37
313.399	0.38
313.768	0.34
314.137	0.35
314.506	0.34
314.875	0.38
315.244	0.35
315.613	0.36
315.982	0.39
316.351	0.38
316.72	0.39
317.089	0.38
317.458	0.4
317.826	0.41
318.195	0.41
318.564	0.41
318.933	0.44
319.301	0.41
319.67	0.41
320.038	0.43
320.407	0.44
320.775	0.43
321.144	0.47
321.512	0.46
321.881	0.46
322.249	0.46
322.618	0.49
322.986	0.48
323.354	0.5
323.723	0.49
324.091	0.51
324.459	0.51
324.827	0.54
325.195	0.54
325.564	0.54
325.932	0.54
326.3	0.56
326.668	0.56
327.036	0.57
327.404	0.58
327.772	0.59
328.14	0.58
328.508	0.6
328.875	0.62
329.243	0.63
329.611	0.64
329.979	0.64
330.346	0.67
330.714	0.65
331.082	0.69
331.449	0.67
331.817	0.68
332.185	0.71
332.552	0.71
332.92	0.74
333.287	0.73
333.655	0.76
334.022	0.77
334.389	0.79
334.757	0.8
335.124	0.82
335.491	0.84
335.859	0.85
336.226	0.86
336.593	0.88
336.96	0.9
337.327	0.92
337.695	0.93
338.062	0.94
338.429	0.97
338.796	0.98
339.163	1.01
339.53	1.01
339.897	1.04
340.263	1.06
340.63	1.08
340.997	1.1
341.364	1.11
341.731	1.14
342.097	1.16
342.464	1.17
342.831	1.19
343.197	1.21
343.564	1.23
343.931	1.25
344.297	1.24
344.664	1.27
345.03	1.3
345.396	1.31
345.763	1.35
346.129	1.35
346.496	1.38
346.862	1.41
347.228	1.42
347.594	1.42
347.961	1.44
348.327	1.46
348.693	1.49
349.059	1.49
349.425	1.51
349.791	1.53
350.157	1.53
350.523	1.55
350.889	1.57
351.255	1.59
351.621	1.62
351.987	1.61
352.353	1.63
352.719	1.64
353.084	1.67
353.45	1.66
353.816	1.69
354.181	1.71
354.547	1.7
354.913	1.75
355.278	1.74
355.644	1.73
356.009	1.79
356.375	1.8
356.74	1.84
357.106	1.82
357.471	1.86
357.836	1.86
358.202	1.89
358.567	1.93
358.932	1.96
359.297	1.95
359.663	1.97
360.028	2
360.393	2.03
360.758	2
361.123	2.01
361.488	2.08
361.853	2.04
362.218	2.09
362.583	2.07
362.948	2.04
363.312	2.05
363.677	2
364.042	2.11
364.407	2.16
364.772	2.18
365.136	2.2
365.501	2.1
365.865	2.19
366.23	2.04
366.595	2.12
366.959	2.17
367.324	2.17
367.688	2.19
368.052	2.16
368.417	2.2
368.781	2.3
369.145	2.17
369.51	2.19
369.874	2.27
370.238	2.29
370.602	2.02
370.967	2.25
371.331	2.06
371.695	2.15
372.059	2.2
372.423	2.13
372.787	2.12
373.151	2.13
373.515	2.14
373.878	2.22
374.242	2.27
374.606	2.16
374.97	2.17
375.334	2.25
375.697	2.13
376.061	2.19
376.425	2.28
376.788	2.19
377.152	2.2
377.515	2.17
377.879	2.16
378.242	2.07
378.606	2.19
378.969	2.16
379.333	2.14
379.696	2.1
380.059	2.09
380.422	2
380.786	2.03
381.149	2.1
381.512	2.03
381.875	2.06
382.238	1.99
382.601	2
382.964	1.92
383.327	1.91
383.69	1.93
384.053	1.9
384.416	1.87
384.779	1.85
385.142	1.86
385.504	1.85
385.867	1.84
386.23	1.83
386.593	1.78
386.955	1.79
387.318	1.75
387.68	1.74
388.043	1.73
388.405	1.73
388.768	1.73
389.13	1.74
389.493	1.72
389.855	1.67
390.217	1.65
390.58	1.67
390.942	1.63
391.304	1.61
391.666	1.57
392.028	1.55
392.391	1.54
392.753	1.53
393.115	1.5
393.477	1.47
393.839	1.47
394.201	1.46
394.563	1.45
394.924	1.44
395.286	1.44
395.648	1.44
396.01	1.43
396.371	1.43
396.733	1.46
397.095	1.46
397.456	1.48
397.818	1.51
398.18	1.53
398.541	1.55
398.903	1.6
399.264	1.61
399.625	1.63
399.987	1.64
400.348	1.67
400.709	1.7
401.071	1.69
401.432	1.7
401.793	1.7
402.154	1.69
402.515	1.65
402.876	1.68
403.238	1.6
403.599	1.57
403.96	1.53
404.32	1.49
404.681	1.44
405.042	1.38
405.403	1.33
405.764	1.26
406.125	1.22
406.485	1.16
406.846	1.12
407.207	1.05
407.567	0.99
407.928	0.96
408.288	0.91
408.649	0.85
409.009	0.81
409.37	0.76
409.73	0.73
410.091	0.69
410.451	0.66
410.811	0.63
411.171	0.61
411.532	0.58
411.892	0.55
412.252	0.52
412.612	0.49
412.972	0.48
413.332	0.46
413.692	0.44
414.052	0.43
414.412	0.41
414.772	0.4
415.132	0.38
415.492	0.37
415.851	0.36
416.211	0.36
416.571	0.34
416.931	0.33
417.29	0.32
417.65	0.32
418.009	0.3
418.369	0.3
418.728	0.3
419.088	0.29
419.447	0.28
419.807	0.27
420.166	0.28
420.525	0.26
420.884	0.26
421.244	0.25
421.603	0.25
421.962	0.24
422.321	0.25
422.68	0.24
423.039	0.23
423.398	0.23
423.757	0.22
424.116	0.22
424.475	0.22
424.834	0.23
425.193	0.22
425.551	0.22
425.91	0.21
426.269	0.22
426.628	0.21
426.986	0.22
427.345	0.2
427.703	0.21
428.062	0.2
428.42	0.21
428.779	0.21
429.137	0.21
429.496	0.2
429.854	0.2
430.212	0.2
430.57	0.2
430.929	0.2
431.287	0.2
431.645	0.2
432.003	0.2
432.361	0.19
432.719	0.19
433.077	0.19
433.435	0.19
433.793	0.21
434.151	0.19
434.509	0.2
434.866	0.19
435.224	0.19
435.582	0.19
435.94	0.19
436.297	0.2
436.655	0.19
437.012	0.19
437.37	0.19
437.727	0.19
438.085	0.19
438.442	0.19
438.8	0.19
439.157	0.19
439.514	0.2
439.872	0.2
440.229	0.19
440.586	0.19
440.943	0.21
441.3	0.2
441.657	0.2
442.014	0.2
442.371	0.19
442.728	0.2
443.085	0.21
443.442	0.19
443.799	0.2
444.156	0.2
444.513	0.21
444.869	0.19
445.226	0.21
445.583	0.21
445.939	0.21
446.296	0.2
446.652	0.22
447.009	0.21
447.365	0.2
447.722	0.21
448.078	0.21
448.434	0.21
448.791	0.21
449.147	0.21
449.503	0.21
449.859	0.21
450.215	0.21
450.571	0.21
450.928	0.22
451.284	0.22
451.64	0.21
451.995	0.21
452.351	0.22
452.707	0.21
453.063	0.21
453.419	0.22
453.775	0.21
454.13	0.21
454.486	0.21
454.842	0.22
455.197	0.21
455.553	0.21
455.908	0.2
456.264	0.21
456.619	0.2
456.975	0.2
457.33	0.2
457.685	0.2
458.04	0.19
458.396	0.19
458.751	0.19
459.106	0.18
459.461	0.18
459.816	0.19
460.171	0.18
460.526	0.18
460.881	0.16
461.236	0.17
461.591	0.16
461.946	0.16
462.301	0.16
462.655	0.16
463.01	0.16
463.365	0.14
463.719	0.14
464.074	0.14
464.428	0.13
464.783	0.12
465.137	0.12
465.492	0.12
465.846	0.13
466.201	0.13
466.555	0.14
466.909	0.14
467.263	0.15
467.618	0.15
467.972	0.15
468.326	0.15
468.68	0.14
469.034	0.14
469.388	0.14
469.742	0.15
470.096	0.15
470.45	0.15
470.804	0.16
471.157	0.15
471.511	0.15
471.865	0.15
472.218	0.16
472.572	0.18
472.926	0.18
473.279	0.2
473.633	0.2
473.986	0.21
474.34	0.22
474.693	0.24
475.046	0.25
475.4	0.26
475.753	0.27
476.106	0.28
476.459	0.29
476.812	0.31
477.165	0.32
477.519	0.33
477.872	0.34
478.224	0.35
478.577	0.36
478.93	0.37
479.283	0.38
479.636	0.39
479.989	0.4
480.341	0.4
480.694	0.42
481.047	0.43
481.399	0.44
481.752	0.45
482.104	0.46
482.457	0.47
482.809	0.48
483.162	0.48
483.514	0.5
483.866	0.5
484.219	0.5
484.571	0.52
484.923	0.52
485.275	0.53
485.627	0.53
485.979	0.53
486.331	0.55
486.683	0.56
487.035	0.56
487.387	0.58
487.739	0.6
488.091	0.59
488.443	0.59
488.794	0.6
489.146	0.61
489.498	0.62
489.849	0.63
490.201	0.63
490.552	0.63
490.904	0.64
491.255	0.65
491.607	0.65
491.958	0.66
492.309	0.67
492.661	0.67
493.012	0.68
493.363	0.68
493.714	0.69
494.065	0.69
494.416	0.7
494.767	0.71
495.118	0.72
495.469	0.72
495.82	0.72
496.171	0.74
496.522	0.74
496.872	0.75
497.223	0.74
497.574	0.76
497.924	0.77
498.275	0.78
498.626	0.79
498.976	0.79
499.327	0.8
499.677	0.81
500.027	0.81
500.378	0.81
500.728	0.82
501.078	0.83
501.428	0.83
501.779	0.84
502.129	0.83
502.479	0.85
502.829	0.86
503.179	0.86
503.529	0.87
503.879	0.87
504.229	0.87
504.578	0.89
504.928	0.89
505.278	0.9
505.628	0.9
505.977	0.9
506.327	0.91
506.676	0.92
507.026	0.92
507.375	0.93
507.725	0.93
508.074	0.94
508.424	0.94
508.773	0.95
509.122	0.95
509.471	0.96
509.82	0.97
510.17	0.98
510.519	0.98
510.868	0.97
511.217	0.98
511.566	1
511.915	1
512.263	1.01
512.612	1.01
512.961	1.01
513.31	1.01
513.659	1.01
514.007	1.03
514.356	1.04
514.704	1.04
515.053	1.05
515.401	1.05
515.75	1.04
516.098	1.06
516.447	1.06
516.795	1.07
517.143	1.06
517.491	1.06
517.839	1.08
518.188	1.08
518.536	1.09
518.884	1.09
519.232	1.1
519.58	1.1
519.928	1.09
520.275	1.1
520.623	1.12
520.971	1.12
521.319	1.12
521.666	1.13
522.014	1.12
522.362	1.13
522.709	1.14
523.057	1.14
523.404	1.15
523.752	1.16
524.099	1.16
524.446	1.16
524.794	1.15
525.141	1.15
525.488	1.17
525.835	1.16
526.182	1.17
526.529	1.17
526.876	1.18
527.223	1.2
527.57	1.18
527.917	1.19
528.264	1.19
528.611	1.19
528.958	1.2
529.304	1.2
529.651	1.2
529.998	1.2
530.344	1.2
530.691	1.2
531.037	1.2
531.384	1.22
531.73	1.22
532.076	1.22
532.423	1.23
532.769	1.23
533.115	1.22
533.461	1.23
533.807	1.23
534.154	1.22
534.5	1.22
534.846	1.24
535.192	1.24
535.537	1.25
535.883	1.25
536.229	1.25
536.575	1.25
536.921	1.25
537.266	1.25
537.612	1.25
537.957	1.24
538.303	1.26
538.649	1.25
538.994	1.26
539.339	1.24
539.685	1.27
540.03	1.26
540.375	1.26
540.721	1.28
541.066	1.27
541.411	1.27
541.756	1.27
542.101	1.27
542.446	1.27
542.791	1.28
543.136	1.28
543.481	1.28
543.825	1.26
544.17	1.28
544.515	1.28
544.86	1.28
545.204	1.27
545.549	1.28
545.893	1.29
546.238	1.29
546.582	1.29
546.927	1.27
547.271	1.29
547.615	1.29
547.96	1.29
548.304	1.3
548.648	1.28
548.992	1.28
549.336	1.29
549.68	1.28
550.024	1.3
550.368	1.29
550.712	1.29
551.056	1.29
551.4	1.28
551.743	1.28
552.087	1.29
552.431	1.28
552.774	1.29
553.118	1.28
553.462	1.27
553.805	1.29
554.148	1.28
554.492	1.27
554.835	1.29
555.178	1.28
555.522	1.28
555.865	1.28
556.208	1.27
556.551	1.27
556.894	1.28
557.237	1.27
557.58	1.27
557.923	1.28
558.266	1.27
558.609	1.27
558.952	1.27
559.294	1.27
559.637	1.27
559.98	1.26
560.322	1.25
560.665	1.25
561.007	1.25
561.35	1.26
561.692	1.25
562.034	1.26
562.377	1.25
562.719	1.26
563.061	1.25
563.403	1.25
563.745	1.25
564.088	1.25
564.43	1.24
564.772	1.24
565.113	1.24
565.455	1.24
565.797	1.24
566.139	1.24
566.481	1.24
566.822	1.23
567.164	1.23
567.506	1.21
567.847	1.23
568.189	1.22
568.53	1.22
568.872	1.22
569.213	1.22
569.554	1.21
569.895	1.21
570.237	1.21
570.578	1.2
570.919	1.2
571.26	1.21
571.601	1.2
571.942	1.2
572.283	1.19
572.624	1.19
572.965	1.19
573.306	1.18
573.646	1.18
573.987	1.18
574.328	1.18
574.668	1.17
575.009	1.16
575.349	1.17
575.69	1.16
576.03	1.16
576.37	1.16
576.711	1.15
577.051	1.15
577.391	1.15
577.731	1.16
578.072	1.15
578.412	1.14
578.752	1.14
579.092	1.14
579.431	1.13
579.771	1.12
580.111	1.11
580.451	1.13
580.791	1.13
581.13	1.12
581.47	1.12
581.81	1.11
582.149	1.12
582.489	1.11
582.828	1.1
583.167	1.08
583.507	1.04
583.846	1.05
584.185	1.09
584.525	1.1
584.864	1.1
585.203	1.1
585.542	1.1
585.881	1.1
586.22	1.1
586.559	1.09
586.898	1.08
587.236	1.07
587.575	1.07
587.914	1.09
588.252	1.09
588.591	1.08
588.93	1.07
589.268	1.08
589.607	1.08
589.945	1.08
590.283	1.08
590.622	1.07
590.96	1.08
591.298	1.08
591.636	1.07
591.974	1.07
592.313	1.07
592.651	1.08
592.989	1.07
593.326	1.07
593.664	1.06
594.002	1.06
594.34	1.06
594.678	1.07
595.015	1.05
595.353	1.05
595.691	1.05
596.028	1.06
596.366	1.06
596.703	1.05
597.04	1.05
597.378	1.06
597.715	1.06
598.052	1.06
598.389	1.06
598.726	1.05
599.064	1.05
599.401	1.05
599.738	1.05
600.074	1.05
600.411	1.04
600.748	1.04
601.085	1.04
601.422	1.03
601.758	1.03
602.095	1.03
602.432	1.03
602.768	1.03
603.105	1.03
603.441	1.03
603.777	1.02
604.114	1.02
604.45	1.02
604.786	1.02
605.122	1.01
605.459	1.01
605.795	1.01
606.131	1.01
606.467	1.01
606.803	1
607.139	1
607.474	0.99
607.81	1
608.146	0.99
608.482	0.99
608.817	0.98
609.153	0.98
609.488	0.98
609.824	0.98
610.159	0.98
610.495	0.98
610.83	0.97
611.165	0.97
611.5	0.96
611.836	0.96
612.171	0.96
612.506	0.96
612.841	0.96
613.176	0.95
613.511	0.95
613.845	0.94
614.18	0.94
614.515	0.93
614.85	0.93
615.184	0.93
615.519	0.93
615.854	0.92
616.188	0.92
616.523	0.92
616.857	0.91
617.191	0.91
617.526	0.91
617.86	0.91
618.194	0.9
618.528	0.9
618.862	0.9
619.196	0.89
619.53	0.89
619.864	0.88
620.198	0.88
620.532	0.88
620.866	0.87
621.2	0.87
621.533	0.86
621.867	0.87
622.201	0.86
622.534	0.85
622.868	0.86
623.201	0.85
623.534	0.85
623.868	0.84
624.201	0.84
624.534	0.84
624.868	0.83
625.201	0.83
625.534	0.82
625.867	0.82
626.2	0.82
626.533	0.82
626.865	0.81
627.198	0.81
627.531	0.8
627.864	0.8
628.196	0.79
628.529	0.79
628.862	0.78
629.194	0.78
629.527	0.78
629.859	0.77
630.191	0.77
630.524	0.77
630.856	0.76
631.188	0.76
631.52	0.75
631.852	0.75
632.184	0.74
632.516	0.74
632.848	0.74
633.18	0.73
633.512	0.73
633.844	0.72
634.175	0.71
634.507	0.71
634.839	0.71
635.17	0.71
635.502	0.7
635.833	0.7
636.165	0.69
636.496	0.69
636.827	0.68
637.159	0.68
637.49	0.67
637.821	0.67
638.152	0.67
638.483	0.66
638.814	0.66
639.145	0.65
639.476	0.64
639.807	0.64
640.137	0.64
640.468	0.63
640.799	0.63
641.129	0.62
641.46	0.62
641.791	0.61
642.121	0.61
642.451	0.61
642.782	0.61
643.112	0.6
643.442	0.6
643.773	0.6
644.103	0.59
644.433	0.59
644.763	0.59
645.093	0.58
645.423	0.58
645.753	0.58
646.082	0.58
646.412	0.58
646.742	0.57
647.072	0.57
647.401	0.56
647.731	0.56
648.06	0.56
648.39	0.55
648.719	0.55
649.048	0.55
649.378	0.55
649.707	0.55
650.036	0.54
650.365	0.54
650.694	0.53
651.023	0.54
651.352	0.53
651.681	0.53
652.01	0.53
652.339	0.53
652.668	0.52
652.996	0.52
653.325	0.52
653.654	0.52
653.982	0.52
654.311	0.51
654.639	0.51
654.967	0.51
655.296	0.51
655.624	0.51
655.952	0.51
656.28	0.5
656.609	0.5
656.937	0.5
657.265	0.48
657.593	0.33
657.92	0.25
658.248	0.22
658.576	0.3
658.904	0.43
659.231	0.48
659.559	0.49
659.887	0.48
660.214	0.48
660.542	0.48
660.869	0.48
661.196	0.48
661.524	0.48
661.851	0.47
662.178	0.47
662.505	0.47
662.832	0.47
663.159	0.46
663.486	0.46
663.813	0.46
664.14	0.46
664.467	0.45
664.794	0.45
665.12	0.45
665.447	0.45
665.774	0.45
666.1	0.44
666.427	0.44
666.753	0.44
667.079	0.44
667.406	0.44
667.732	0.44
668.058	0.43
668.384	0.43
668.71	0.43
669.036	0.43
669.362	0.42
669.688	0.42
670.014	0.42
670.34	0.41
670.666	0.41
670.991	0.41
671.317	0.41
671.643	0.4
671.968	0.4
672.294	0.4
672.619	0.39
672.945	0.39
673.27	0.39
673.595	0.38
673.92	0.38
674.246	0.38
674.571	0.38
674.896	0.38
675.221	0.37
675.546	0.37
675.87	0.37
676.195	0.36
676.52	0.36
676.845	0.36
677.169	0.35
677.494	0.35
677.819	0.35
678.143	0.34
678.468	0.34
678.792	0.34
679.116	0.34
679.44	0.33
679.765	0.33
680.089	0.32
680.413	0.32
680.737	0.32
681.061	0.31
681.385	0.31
681.709	0.31
682.033	0.3
682.356	0.31
682.68	0.3
683.004	0.3
683.327	0.29
683.651	0.29
683.974	0.29
684.298	0.29
684.621	0.28
684.944	0.28
685.268	0.28
685.591	0.28
685.914	0.27
686.237	0.27
686.56	0.27
686.883	0.26
687.206	0.26
687.529	0.26
687.852	0.25
688.175	0.25
688.497	0.25
688.82	0.25
689.142	0.24
689.465	0.24
689.787	0.24
690.11	0.24
690.432	0.23
690.755	0.23
691.077	0.22
691.399	0.23
691.721	0.22
692.043	0.22
692.365	0.22
692.687	0.22
693.009	0.21
693.331	0.21
693.653	0.21
693.974	0.21
694.296	0.2
694.618	0.2
694.939	0.2
695.261	0.2
695.582	0.19
695.904	0.19
696.225	0.19
696.546	0.19
696.868	0.19
697.189	0.19
697.51	0.19
697.831	0.19
698.152	0.18
698.473	0.18
698.794	0.17
699.114	0.18
699.435	0.17
699.756	0.17
700.077	0.17
700.397	0.17
700.718	0.17
701.038	0.17
701.359	0.17
701.679	0.17
701.999	0.17
702.32	0.17
702.64	0.16
702.96	0.16
703.28	0.16
703.6	0.16
703.92	0.16
704.24	0.16
704.56	0.16
704.879	0.16
705.199	0.16
705.519	0.16
705.838	0.16
706.158	0.16
706.478	0.15
706.797	0.15
707.116	0.15
707.436	0.16
707.755	0.15
708.074	0.15
708.393	0.15
708.712	0.14
709.031	0.14
709.35	0.14
709.669	0.14
709.988	0.14
710.307	0.14
710.626	0.14
710.944	0.14
711.263	0.14
711.582	0.14
711.9	0.14
712.219	0.14
712.537	0.14
712.855	0.14
713.174	0.15
713.492	0.15
713.81	0.15
714.128	0.14
714.446	0.14
714.764	0.14
715.082	0.14
715.4	0.15
715.718	0.14
716.035	0.14
716.353	0.14
716.671	0.14
716.988	0.14
717.306	0.14
717.623	0.15
717.941	0.15
718.258	0.15
718.575	0.15
718.893	0.15
719.21	0.14
719.527	0.14
719.844	0.15
720.161	0.15
720.478	0.15
720.795	0.15
721.112	0.15
721.428	0.15
721.745	0.15
722.062	0.15
722.378	0.15
722.695	0.15
723.011	0.15
723.328	0.15
723.644	0.15
723.96	0.15
724.276	0.15
724.593	0.15
724.909	0.15
725.225	0.15
725.541	0.16
725.857	0.15
726.173	0.15
726.488	0.15
726.804	0.15
727.12	0.15
727.435	0.15
727.751	0.15
728.067	0.15
728.382	0.15
728.697	0.15
729.013	0.15
729.328	0.15
729.643	0.15
729.958	0.15
730.273	0.15
730.588	0.14
730.903	0.15
731.218	0.15
731.533	0.15
731.848	0.14
732.163	0.14
732.477	0.14
732.792	0.14
733.107	0.14
733.421	0.14
733.736	0.14
734.05	0.14
734.364	0.14
734.678	0.14
734.993	0.14
735.307	0.14
735.621	0.14
735.935	0.14
736.249	0.14
736.563	0.14
736.877	0.14
737.19	0.14
737.504	0.14
737.818	0.14
738.131	0.14
738.445	0.14
738.758	0.14
739.072	0.14
739.385	0.14
739.698	0.14
740.012	0.14
740.325	0.13
740.638	0.13
740.951	0.13
741.264	0.13
741.577	0.13
741.89	0.13
742.203	0.13
742.515	0.13
742.828	0.13
743.141	0.13
743.453	0.13
743.766	0.12
744.078	0.12
744.391	0.12
744.703	0.12
745.015	0.12
745.327	0.12
745.639	0.12
745.952	0.12
746.264	0.12
746.575	0.12
746.887	0.12
747.199	0.12
747.511	0.11
747.823	0.11
748.134	0.11
748.446	0.11
748.757	0.11
749.069	0.11
749.38	0.11
749.692	0.11
750.003	0.11
750.314	0.1
750.625	0.1
750.936	0.1
751.248	0.1
751.559	0.1
751.869	0.1
752.18	0.1
752.491	0.1
752.802	0.1
753.112	0.1
753.423	0.1
753.734	0.1
754.044	0.09
754.355	0.09
754.665	0.09
754.975	0.09
755.285	0.09
755.596	0.09
755.906	0.09
756.216	0.09
756.526	0.09
756.836	0.09
757.146	0.09
757.455	0.09
757.765	0.09
758.075	0.09
758.385	0.09
758.694	0.08
759.004	0.08
759.313	0.08
759.622	0.08
759.932	0.08
760.241	0.08
760.55	0.08
760.859	0.08
761.168	0.08
761.477	0.08
761.786	0.08
762.095	0.08
762.404	0.08
762.713	0.08
763.021	0.08
763.33	0.08
763.639	0.08
763.947	0.08
764.256	0.08
764.564	0.08
764.872	0.08
765.181	0.08
765.489	0.08
765.797	0.08
766.105	0.08
766.413	0.08
766.721	0.08
767.029	0.08
767.337	0.08
767.644	0.08
767.952	0.08
768.26	0.08
768.567	0.08
768.875	0.08
769.182	0.08
769.49	0.08
769.797	0.08
770.104	0.08
770.411	0.08
770.718	0.08
771.026	0.08
771.333	0.08
771.639	0.08
771.946	0.08
772.253	0.08
772.56	0.08
772.867	0.08
773.173	0.08
773.48	0.08
773.786	0.08
774.093	0.08
774.399	0.08
774.705	0.08
775.012	0.08
775.318	0.08
775.624	0.08
775.93	0.08
776.236	0.08
776.542	0.08
776.848	0.08
777.154	0.08
777.459	0.08
777.765	0.08
778.071	0.09
778.376	0.08
778.682	0.08
778.987	0.08
779.292	0.08
779.598	0.08
779.903	0.08
780.208	0.08
780.513	0.08
780.818	0.08
781.123	0.08
781.428	0.09
781.733	0.08
782.038	0.09
782.343	0.08
782.647	0.09
782.952	0.09
783.256	0.09
783.561	0.09
783.865	0.09
784.17	0.09
784.474	0.09
784.778	0.09
785.082	0.09
785.386	0.09
785.69	0.09
785.994	0.09
786.298	0.09
786.602	0.09
786.906	0.09
787.209	0.09
787.513	0.09
787.817	0.09
788.12	0.09
788.424	0.09
788.727	0.09
789.03	0.09
789.333	0.09
789.637	0.09
789.94	0.09
790.243	0.09
790.546	0.09
790.849	0.09
791.152	0.1
791.454	0.09
791.757	0.09
792.06	0.09
792.362	0.1
792.665	0.1
792.967	0.09
793.27	0.1
793.572	0.1
793.874	0.09
794.177	0.1
794.479	0.1
794.781	0.1
795.083	0.09
795.385	0.1
795.687	0.1
795.989	0.1
796.29	0.1
796.592	0.1
796.894	0.1
797.195	0.1
797.497	0.11
797.798	0.11
798.1	0.11
798.401	0.1
798.702	0.11
799.003	0.1
799.304	0.11
799.605	0.11
799.906	0.11
800.207	0.11
800.508	0.11
800.809	0.11
801.11	0.11
801.41	0.11
801.711	0.11
802.011	0.11
802.312	0.11
802.612	0.11
802.913	0.11
803.213	0.11
803.513	0.11
803.813	0.11
804.113	0.11
804.413	0.11
804.713	0.11
805.013	0.11
805.313	0.11
805.613	0.12
805.912	0.12
806.212	0.12
806.511	0.11
806.811	0.11
807.11	0.12
807.41	0.12
807.709	0.12
808.008	0.11
808.307	0.11
808.606	0.12
808.905	0.12
809.204	0.12
809.503	0.12
809.802	0.12
810.101	0.12
810.399	0.13
810.698	0.12
810.997	0.12
811.295	0.13
811.593	0.12
811.892	0.13
812.19	0.13
812.488	0.13
812.786	0.13
813.084	0.13
813.383	0.13
813.68	0.13
813.978	0.13
814.276	0.13
814.574	0.13
814.872	0.13
815.169	0.13
815.467	0.13
815.764	0.13
816.062	0.14
816.359	0.13
816.656	0.14
816.954	0.13
817.251	0.14
817.548	0.14
817.845	0.14
818.142	0.14
818.439	0.14
818.735	0.14
819.032	0.14
819.329	0.14
819.626	0.14
819.922	0.14
820.219	0.14
820.515	0.14
820.811	0.15
821.108	0.14
821.404	0.14
821.7	0.14
821.996	0.14
822.292	0.15
822.588	0.15
822.884	0.15
823.18	0.15
823.475	0.14
823.771	0.15
824.067	0.15
824.362	0.15
824.658	0.15
824.953	0.15
825.249	0.16
825.544	0.15
825.839	0.15
826.134	0.16
826.429	0.15
826.724	0.16
827.019	0.15
827.314	0.16
827.609	0.16
827.904	0.16
828.198	0.16
828.493	0.16
828.787	0.16
829.082	0.16
829.376	0.15
829.671	0.16
829.965	0.16
830.259	0.16
830.553	0.16
830.847	0.17
831.141	0.16
831.435	0.16
831.729	0.17
832.023	0.17
832.317	0.18
832.61	0.17
832.904	0.17
833.197	0.17
833.491	0.17
833.784	0.18
834.077	0.17
834.371	0.17
834.664	0.17
834.957	0.17
835.25	0.18
835.543	0.17
835.836	0.18
836.129	0.17
836.421	0.18
836.714	0.18
837.007	0.17
837.299	0.18
837.592	0.18
837.884	0.18
838.177	0.18
838.469	0.19
838.761	0.18
839.053	0.18
839.345	0.18
839.637	0.18
839.929	0.18
840.221	0.18
840.513	0.18
840.805	0.19
841.096	0.18
841.388	0.19
841.68	0.18
841.971	0.18
842.262	0.19
842.554	0.19
842.845	0.19
843.136	0.2
843.427	0.19
843.718	0.19
844.009	0.18
844.3	0.19
844.591	0.2
844.882	0.19
845.173	0.2
845.463	0.2
845.754	0.19
846.044	0.19
846.335	0.19
846.625	0.2
846.915	0.18
847.206	0.2
847.496	0.2
847.786	0.2
848.076	0.21
848.366	0.19
848.656	0.21
848.945	0.2
849.235	0.2
849.525	0.2
849.814	0.2
850.104	0.19
850.393	0.19
850.683	0.21
850.972	0.2
851.261	0.21
851.551	0.21
851.84	0.21
852.129	0.2
852.418	0.2
852.707	0.21
852.995	0.21
853.284	0.21
853.573	0.21
853.862	0.2
854.15	0.22
854.439	0.21
854.727	0.21
855.015	0.21
855.304	0.22
855.592	0.21
855.88	0.21
856.168	0.22
856.456	0.21
856.744	0.22
857.032	0.21
857.32	0.22
857.607	0.23
857.895	0.22
858.183	0.24
858.47	0.24
858.757	0.23
859.045	0.24
859.332	0.22
859.619	0.23
859.907	0.22
860.194	0.23
860.481	0.23
860.768	0.23
861.054	0.22
861.341	0.22
861.628	0.22
861.915	0.24
862.201	0.24
862.488	0.21
862.774	0.21
863.061	0.24
863.347	0.24
863.633	0.25
863.919	0.22
864.205	0.22
864.491	0.22
864.777	0.22
865.063	0.25
865.349	0.2
865.635	0.22
865.92	0.22
866.206	0.23
866.492	0.21
866.777	0.24
867.062	0.22
867.348	0.22
867.633	0.22
867.918	0.17
868.203	0.26
868.488	0.24
868.773	0.25
869.058	0.24
869.343	0.29
869.628	0.23
869.912	0.22
870.197	0.23
870.482	0.26
870.766	0.23
871.05	0.19
871.335	0.19
871.619	0.21
871.903	0.2
872.187	0.26
872.471	0.23
872.755	0.3
873.039	0.21
873.323	0.25
873.607	0.22
873.89	0.22
874.174	0.22
874.458	0.19
874.741	0.28
875.024	0.23
875.308	0.17
875.591	0.2
875.874	0.21
876.157	0.17
876.44	0.17
876.723	0.17
877.006	0.25
877.289	0.22
877.572	0.26
877.854	0.22
878.137	0.17
878.42	0.13
878.702	0.23
878.984	0.18
879.267	0.1
879.549	0.39
879.831	0.18
880.113	0.15
880.395	0.24
880.677	0.13
880.959	0.17
