Data from Rubpy_BV_1800_EDTA_Buffered_Absorbance_16-53-32-653.txt Node
Date: Wed Jul 01 16:53:32 BST 2026
User: fpm-admin
Spectrometer: OFX00224
Trigger mode: 0
Integration Time (sec): 7.000000E-2
Scans to average: 3
Nonlinearity correction enabled: false
Boxcar width: 0
Storing dark spectrum: false
XAxis mode: Wavelengths
Number of Pixels in Spectrum: 2136
>>>>>Begin Spectral Data<<<<<
154.91	1.59
155.289	0.11
155.669	0.38
156.048	-0
156.428	-0
156.807	0.03
157.186	-1.2
157.566	0.52
157.945	-0
158.325	0.09
158.704	0.33
159.083	-0
159.462	-0.8
159.842	-0
160.221	-0
160.6	-0
160.979	-0
161.359	-0.31
161.738	-0
162.117	-0.54
162.496	0.27
162.875	-0.4
163.254	0.31
163.633	0.49
164.012	0.62
164.391	0.1
164.77	-0.12
165.149	-0.6
165.528	-0
165.907	0.72
166.286	-0
166.665	0.85
167.044	-0
167.423	-0.05
167.802	-0.44
168.181	-0.7
168.559	0.7
168.938	0.49
169.317	-0
169.696	-0.95
170.074	-0
170.453	0.18
170.832	-0.9
171.21	-0
171.589	-0
171.968	1.53
172.346	-0.26
172.725	-0
173.103	-0
173.482	0.54
173.861	-0
174.239	-0
174.617	-0.21
174.996	-0.11
175.374	0.48
175.753	-0.4
176.131	0.07
176.51	-0
176.888	0.94
177.266	-0
177.645	0.14
178.023	0.33
178.401	-0.18
178.779	-0
179.158	-0.02
179.536	0.17
179.914	-0
180.292	0.36
180.67	-0.31
181.048	0.03
181.427	-0.18
181.805	-0
182.183	-0.46
182.561	-0
182.939	0.18
183.317	-0.53
183.695	0.59
184.073	-0
184.451	-0
184.829	-0.27
185.206	-0.24
185.584	-0
185.962	-0.24
186.34	-0.26
186.718	0.07
187.096	-0.48
187.473	-0.08
187.851	0.16
188.229	-0.16
188.607	0.15
188.984	0.21
189.362	0.22
189.74	0.48
190.117	0.26
190.495	0.27
190.872	0.18
191.25	0.32
191.627	0.35
192.005	0.36
192.382	0.31
192.76	0.41
193.137	0.25
193.515	0.28
193.892	0.38
194.269	0.34
194.647	0.25
195.024	0.38
195.401	0.34
195.779	0.38
196.156	0.37
196.533	0.29
196.91	0.22
197.288	0.26
197.665	0.31
198.042	0.3
198.419	0.29
198.796	0.38
199.173	0.32
199.55	0.27
199.927	0.26
200.304	0.48
200.681	0.34
201.058	0.17
201.435	0.33
201.812	0.24
202.189	0.31
202.566	0.26
202.943	0.36
203.32	0.34
203.697	0.26
204.073	0.27
204.45	0.47
204.827	0.26
205.204	0.2
205.58	0.29
205.957	0.54
206.334	0.17
206.71	0.27
207.087	0.34
207.464	0.31
207.84	0.51
208.217	0.48
208.593	0.22
208.97	0.38
209.346	0.52
209.723	0.33
210.099	0.53
210.476	0.41
210.852	0.58
211.228	0.32
211.605	0.19
211.981	0.34
212.357	0.5
212.733	0.47
213.11	0.35
213.486	0.33
213.862	0.54
214.238	0.48
214.614	0.36
214.991	0.38
215.367	0.42
215.743	0.31
216.119	0.31
216.495	0.52
216.871	0.37
217.247	0.42
217.623	0.34
217.999	0.37
218.375	0.35
218.751	0.28
219.127	0.44
219.502	0.28
219.878	0.22
220.254	0.42
220.63	0.37
221.006	0.3
221.381	0.4
221.757	0.42
222.133	0.31
222.508	0.57
222.884	0.37
223.26	0.39
223.635	0.32
224.011	0.36
224.386	0.28
224.762	0.52
225.137	0.54
225.513	0.52
225.888	0.42
226.264	0.39
226.639	0.35
227.014	0.51
227.39	0.33
227.765	0.28
228.14	0.35
228.516	0.5
228.891	0.59
229.266	0.37
229.641	0.45
230.017	0.39
230.392	0.48
230.767	0.52
231.142	0.46
231.517	0.46
231.892	0.48
232.267	0.45
232.642	0.43
233.017	0.31
233.392	0.26
233.767	0.33
234.142	0.35
234.517	0.23
234.892	0.44
235.267	0.38
235.641	0.41
236.016	0.32
236.391	0.31
236.766	0.41
237.14	0.33
237.515	0.57
237.89	0.5
238.264	0.49
238.639	0.24
239.014	0.52
239.388	0.37
239.763	0.38
240.137	0.28
240.512	0.27
240.886	0.36
241.261	0.37
241.635	0.38
242.009	0.38
242.384	0.25
242.758	0.37
243.132	0.3
243.507	0.35
243.881	0.44
244.255	0.38
244.629	0.3
245.004	0.51
245.378	0.45
245.752	0.67
246.126	0.3
246.5	0.4
246.874	0.33
247.248	0.39
247.622	0.22
247.996	0.33
248.37	0.4
248.744	0.4
249.118	0.21
249.492	0.37
249.866	0.49
250.24	0.42
250.613	0.46
250.987	0.42
251.361	0.37
251.735	0.39
252.108	0.49
252.482	0.35
252.856	0.17
253.229	0.39
253.603	0.24
253.977	0.44
254.35	0.33
254.724	0.28
255.097	0.4
255.471	0.25
255.844	0.35
256.218	0.33
256.591	0.34
256.964	0.45
257.338	0.37
257.711	0.46
258.084	0.49
258.458	0.43
258.831	0.45
259.204	0.41
259.577	0.33
259.95	0.43
260.323	0.41
260.697	0.43
261.07	0.31
261.443	0.46
261.816	0.42
262.189	0.37
262.562	0.35
262.935	0.4
263.308	0.29
263.68	0.31
264.053	0.51
264.426	0.58
264.799	0.41
265.172	0.28
265.545	0.32
265.917	0.54
266.29	0.42
266.663	0.34
267.035	0.42
267.408	0.41
267.781	0.34
268.153	0.35
268.526	0.33
268.898	0.35
269.271	0.37
269.643	0.36
270.016	0.34
270.388	0.32
270.76	0.35
271.133	0.49
271.505	0.45
271.877	0.26
272.25	0.28
272.622	0.32
272.994	0.41
273.366	0.36
273.739	0.29
274.111	0.41
274.483	0.37
274.855	0.42
275.227	0.42
275.599	0.36
275.971	0.41
276.343	0.4
276.715	0.35
277.087	0.41
277.459	0.56
277.831	0.38
278.203	0.4
278.574	0.4
278.946	0.35
279.318	0.33
279.69	0.28
280.061	0.34
280.433	0.32
280.805	0.39
281.176	0.47
281.548	0.32
281.92	0.5
282.291	0.36
282.663	0.32
283.034	0.46
283.406	0.36
283.777	0.45
284.148	0.4
284.52	0.43
284.891	0.3
285.262	0.4
285.634	0.5
286.005	0.38
286.376	0.46
286.747	0.34
287.119	0.36
287.49	0.38
287.861	0.38
288.232	0.51
288.603	0.44
288.974	0.29
289.345	0.34
289.716	0.41
290.087	0.39
290.458	0.41
290.829	0.37
291.2	0.43
291.571	0.45
291.941	0.4
292.312	0.37
292.683	0.38
293.054	0.45
293.424	0.42
293.795	0.35
294.166	0.35
294.536	0.44
294.907	0.37
295.277	0.52
295.648	0.4
296.018	0.39
296.389	0.37
296.759	0.32
297.13	0.41
297.5	0.34
297.871	0.43
298.241	0.42
298.611	0.34
298.981	0.45
299.352	0.51
299.722	0.39
300.092	0.44
300.462	0.45
300.832	0.33
301.202	0.44
301.573	0.4
301.943	0.44
302.313	0.33
302.683	0.38
303.053	0.37
303.422	0.37
303.792	0.42
304.162	0.36
304.532	0.43
304.902	0.31
305.272	0.37
305.641	0.41
306.011	0.32
306.381	0.4
306.75	0.37
307.12	0.36
307.49	0.39
307.859	0.32
308.229	0.31
308.598	0.32
308.968	0.35
309.337	0.34
309.707	0.33
310.076	0.29
310.445	0.27
310.815	0.31
311.184	0.32
311.553	0.31
311.923	0.29
312.292	0.3
312.661	0.31
313.03	0.3
313.399	0.33
313.768	0.32
314.137	0.32
314.506	0.32
314.875	0.31
315.244	0.31
315.613	0.32
315.982	0.34
316.351	0.34
316.72	0.35
317.089	0.35
317.458	0.35
317.826	0.35
318.195	0.34
318.564	0.36
318.933	0.35
319.301	0.37
319.67	0.36
320.038	0.37
320.407	0.39
320.775	0.39
321.144	0.4
321.512	0.4
321.881	0.41
322.249	0.41
322.618	0.42
322.986	0.44
323.354	0.41
323.723	0.42
324.091	0.43
324.459	0.46
324.827	0.46
325.195	0.44
325.564	0.47
325.932	0.47
326.3	0.48
326.668	0.49
327.036	0.48
327.404	0.51
327.772	0.52
328.14	0.51
328.508	0.52
328.875	0.53
329.243	0.54
329.611	0.56
329.979	0.55
330.346	0.56
330.714	0.57
331.082	0.59
331.449	0.58
331.817	0.58
332.185	0.62
332.552	0.62
332.92	0.63
333.287	0.64
333.655	0.66
334.022	0.67
334.389	0.67
334.757	0.69
335.124	0.72
335.491	0.72
335.859	0.74
336.226	0.74
336.593	0.76
336.96	0.78
337.327	0.79
337.695	0.81
338.062	0.82
338.429	0.83
338.796	0.85
339.163	0.85
339.53	0.88
339.897	0.91
340.263	0.91
340.63	0.93
340.997	0.95
341.364	0.96
341.731	0.98
342.097	0.99
342.464	1
342.831	1.03
343.197	1.03
343.564	1.05
343.931	1.06
344.297	1.08
344.664	1.1
345.03	1.11
345.396	1.12
345.763	1.17
346.129	1.18
346.496	1.18
346.862	1.21
347.228	1.21
347.594	1.22
347.961	1.24
348.327	1.26
348.693	1.27
349.059	1.29
349.425	1.32
349.791	1.34
350.157	1.31
350.523	1.35
350.889	1.36
351.255	1.39
351.621	1.38
351.987	1.4
352.353	1.41
352.719	1.44
353.084	1.44
353.45	1.47
353.816	1.48
354.181	1.49
354.547	1.51
354.913	1.52
355.278	1.54
355.644	1.54
356.009	1.57
356.375	1.58
356.74	1.64
357.106	1.62
357.471	1.63
357.836	1.66
358.202	1.69
358.567	1.71
358.932	1.69
359.297	1.76
359.663	1.73
360.028	1.74
360.393	1.76
360.758	1.79
361.123	1.82
361.488	1.81
361.853	1.81
362.218	1.89
362.583	1.89
362.948	1.92
363.312	1.91
363.677	1.89
364.042	1.92
364.407	1.99
364.772	1.94
365.136	1.93
365.501	1.95
365.865	1.98
366.23	1.98
366.595	1.95
366.959	2.05
367.324	2.1
367.688	2.05
368.052	2.04
368.417	2.04
368.781	2.01
369.145	2.09
369.51	2.13
369.874	2.09
370.238	2.13
370.602	1.94
370.967	2.03
371.331	1.97
371.695	2.05
372.059	2.04
372.423	2.03
372.787	2.08
373.151	2.02
373.515	2.13
373.878	2.13
374.242	2.07
374.606	2.07
374.97	2.05
375.334	1.98
375.697	2.05
376.061	2.1
376.425	2.06
376.788	2.01
377.152	2.05
377.515	1.97
377.879	2.02
378.242	1.92
378.606	1.91
378.969	1.93
379.333	1.92
379.696	1.93
380.059	1.9
380.422	1.87
380.786	1.83
381.149	1.85
381.512	1.8
381.875	1.85
382.238	1.77
382.601	1.79
382.964	1.75
383.327	1.71
383.69	1.72
384.053	1.66
384.416	1.68
384.779	1.65
385.142	1.64
385.504	1.64
385.867	1.62
386.23	1.63
386.593	1.62
386.955	1.58
387.318	1.58
387.68	1.57
388.043	1.53
388.405	1.55
388.768	1.56
389.13	1.54
389.493	1.53
389.855	1.51
390.217	1.5
390.58	1.47
390.942	1.46
391.304	1.45
391.666	1.42
392.028	1.4
392.391	1.37
392.753	1.37
393.115	1.33
393.477	1.33
393.839	1.31
394.201	1.29
394.563	1.3
394.924	1.29
395.286	1.3
395.648	1.29
396.01	1.3
396.371	1.3
396.733	1.31
397.095	1.32
397.456	1.34
397.818	1.37
398.18	1.4
398.541	1.41
398.903	1.44
399.264	1.46
399.625	1.48
399.987	1.52
400.348	1.53
400.709	1.55
401.071	1.56
401.432	1.55
401.793	1.57
402.154	1.57
402.515	1.53
402.876	1.53
403.238	1.46
403.599	1.43
403.96	1.42
404.32	1.35
404.681	1.31
405.042	1.25
405.403	1.21
405.764	1.16
406.125	1.11
406.485	1.05
406.846	1
407.207	0.95
407.567	0.9
407.928	0.87
408.288	0.82
408.649	0.77
409.009	0.73
409.37	0.69
409.73	0.65
410.091	0.61
410.451	0.59
410.811	0.56
411.171	0.54
411.532	0.51
411.892	0.5
412.252	0.46
412.612	0.45
412.972	0.43
413.332	0.41
413.692	0.39
414.052	0.38
414.412	0.37
414.772	0.35
415.132	0.34
415.492	0.33
415.851	0.32
416.211	0.31
416.571	0.31
416.931	0.29
417.29	0.28
417.65	0.28
418.009	0.27
418.369	0.26
418.728	0.27
419.088	0.26
419.447	0.25
419.807	0.24
420.166	0.24
420.525	0.22
420.884	0.23
421.244	0.22
421.603	0.22
421.962	0.21
422.321	0.22
422.68	0.21
423.039	0.2
423.398	0.21
423.757	0.21
424.116	0.2
424.475	0.2
424.834	0.2
425.193	0.2
425.551	0.2
425.91	0.19
426.269	0.19
426.628	0.18
426.986	0.19
427.345	0.18
427.703	0.18
428.062	0.18
428.42	0.18
428.779	0.18
429.137	0.19
429.496	0.17
429.854	0.17
430.212	0.18
430.57	0.18
430.929	0.17
431.287	0.17
431.645	0.18
432.003	0.17
432.361	0.16
432.719	0.17
433.077	0.17
433.435	0.17
433.793	0.17
434.151	0.17
434.509	0.18
434.866	0.16
435.224	0.17
435.582	0.17
435.94	0.17
436.297	0.17
436.655	0.17
437.012	0.17
437.37	0.16
437.727	0.17
438.085	0.17
438.442	0.16
438.8	0.17
439.157	0.17
439.514	0.17
439.872	0.16
440.229	0.17
440.586	0.16
440.943	0.17
441.3	0.18
441.657	0.18
442.014	0.17
442.371	0.17
442.728	0.17
443.085	0.18
443.442	0.17
443.799	0.16
444.156	0.18
444.513	0.18
444.869	0.16
445.226	0.18
445.583	0.18
445.939	0.18
446.296	0.16
446.652	0.17
447.009	0.18
447.365	0.17
447.722	0.18
448.078	0.17
448.434	0.19
448.791	0.18
449.147	0.18
449.503	0.18
449.859	0.18
450.215	0.18
450.571	0.18
450.928	0.19
451.284	0.18
451.64	0.18
451.995	0.18
452.351	0.19
452.707	0.18
453.063	0.18
453.419	0.18
453.775	0.17
454.13	0.17
454.486	0.17
454.842	0.18
455.197	0.18
455.553	0.17
455.908	0.17
456.264	0.17
456.619	0.17
456.975	0.17
457.33	0.17
457.685	0.16
458.04	0.15
458.396	0.15
458.751	0.16
459.106	0.14
459.461	0.15
459.816	0.15
460.171	0.14
460.526	0.15
460.881	0.14
461.236	0.13
461.591	0.13
461.946	0.13
462.301	0.13
462.655	0.13
463.01	0.13
463.365	0.12
463.719	0.1
464.074	0.11
464.428	0.1
464.783	0.09
465.137	0.09
465.492	0.1
465.846	0.09
466.201	0.1
466.555	0.1
466.909	0.11
467.263	0.12
467.618	0.11
467.972	0.12
468.326	0.11
468.68	0.11
469.034	0.1
469.388	0.1
469.742	0.11
470.096	0.12
470.45	0.12
470.804	0.12
471.157	0.11
471.511	0.12
471.865	0.12
472.218	0.13
472.572	0.14
472.926	0.15
473.279	0.15
473.633	0.16
473.986	0.17
474.34	0.18
474.693	0.19
475.046	0.21
475.4	0.22
475.753	0.23
476.106	0.23
476.459	0.24
476.812	0.26
477.165	0.27
477.519	0.28
477.872	0.29
478.224	0.29
478.577	0.3
478.93	0.31
479.283	0.32
479.636	0.33
479.989	0.35
480.341	0.35
480.694	0.35
481.047	0.37
481.399	0.37
481.752	0.39
482.104	0.39
482.457	0.4
482.809	0.41
483.162	0.41
483.514	0.42
483.866	0.43
484.219	0.43
484.571	0.44
484.923	0.44
485.275	0.45
485.627	0.46
485.979	0.47
486.331	0.47
486.683	0.48
487.035	0.48
487.387	0.5
487.739	0.51
488.091	0.52
488.443	0.52
488.794	0.52
489.146	0.53
489.498	0.53
489.849	0.54
490.201	0.54
490.552	0.54
490.904	0.55
491.255	0.56
491.607	0.56
491.958	0.56
492.309	0.57
492.661	0.57
493.012	0.58
493.363	0.59
493.714	0.59
494.065	0.59
494.416	0.61
494.767	0.6
495.118	0.61
495.469	0.62
495.82	0.62
496.171	0.63
496.522	0.64
496.872	0.65
497.223	0.64
497.574	0.65
497.924	0.66
498.275	0.68
498.626	0.68
498.976	0.68
499.327	0.69
499.677	0.69
500.027	0.69
500.378	0.7
500.728	0.7
501.078	0.71
501.428	0.72
501.779	0.72
502.129	0.72
502.479	0.73
502.829	0.73
503.179	0.74
503.529	0.74
503.879	0.75
504.229	0.76
504.578	0.77
504.928	0.77
505.278	0.77
505.628	0.78
505.977	0.78
506.327	0.79
506.676	0.78
507.026	0.79
507.375	0.8
507.725	0.81
508.074	0.81
508.424	0.81
508.773	0.82
509.122	0.82
509.471	0.82
509.82	0.83
510.17	0.83
510.519	0.84
510.868	0.84
511.217	0.85
511.566	0.86
511.915	0.86
512.263	0.86
512.612	0.87
512.961	0.87
513.31	0.87
513.659	0.88
514.007	0.89
514.356	0.89
514.704	0.89
515.053	0.89
515.401	0.91
515.75	0.9
516.098	0.91
516.447	0.91
516.795	0.92
517.143	0.92
517.491	0.92
517.839	0.93
518.188	0.94
518.536	0.94
518.884	0.94
519.232	0.94
519.58	0.94
519.928	0.93
520.275	0.96
520.623	0.96
520.971	0.97
521.319	0.98
521.666	0.97
522.014	0.97
522.362	0.97
522.709	0.98
523.057	0.99
523.404	0.99
523.752	0.99
524.099	0.98
524.446	0.99
524.794	0.99
525.141	1
525.488	1
525.835	1.01
526.182	1.01
526.529	1.02
526.876	1
527.223	1.01
527.57	1.01
527.917	1.02
528.264	1.02
528.611	1.02
528.958	1.03
529.304	1.04
529.651	1.04
529.998	1.04
530.344	1.04
530.691	1.04
531.037	1.04
531.384	1.05
531.73	1.05
532.076	1.04
532.423	1.06
532.769	1.06
533.115	1.05
533.461	1.06
533.807	1.06
534.154	1.06
534.5	1.06
534.846	1.07
535.192	1.07
535.537	1.07
535.883	1.07
536.229	1.07
536.575	1.07
536.921	1.08
537.266	1.08
537.612	1.08
537.957	1.08
538.303	1.09
538.649	1.07
538.994	1.09
539.339	1.08
539.685	1.09
540.03	1.1
540.375	1.09
540.721	1.1
541.066	1.11
541.411	1.1
541.756	1.1
542.101	1.1
542.446	1.1
542.791	1.11
543.136	1.1
543.481	1.11
543.825	1.11
544.17	1.11
544.515	1.11
544.86	1.11
545.204	1.1
545.549	1.12
545.893	1.11
546.238	1.1
546.582	1.11
546.927	1.1
547.271	1.12
547.615	1.12
547.96	1.12
548.304	1.11
548.648	1.12
548.992	1.12
549.336	1.1
549.68	1.11
550.024	1.12
550.368	1.12
550.712	1.11
551.056	1.12
551.4	1.11
551.743	1.12
552.087	1.12
552.431	1.12
552.774	1.11
553.118	1.11
553.462	1.11
553.805	1.12
554.148	1.11
554.492	1.12
554.835	1.12
555.178	1.11
555.522	1.11
555.865	1.11
556.208	1.11
556.551	1.1
556.894	1.11
557.237	1.11
557.58	1.11
557.923	1.11
558.266	1.1
558.609	1.1
558.952	1.1
559.294	1.1
559.637	1.1
559.98	1.1
560.322	1.09
560.665	1.1
561.007	1.1
561.35	1.08
561.692	1.08
562.034	1.1
562.377	1.1
562.719	1.08
563.061	1.08
563.403	1.08
563.745	1.08
564.088	1.09
564.43	1.09
564.772	1.08
565.113	1.08
565.455	1.08
565.797	1.08
566.139	1.08
566.481	1.07
566.822	1.07
567.164	1.07
567.506	1.07
567.847	1.08
568.189	1.06
568.53	1.06
568.872	1.07
569.213	1.06
569.554	1.05
569.895	1.06
570.237	1.05
570.578	1.05
570.919	1.05
571.26	1.05
571.601	1.04
571.942	1.05
572.283	1.04
572.624	1.04
572.965	1.03
573.306	1.04
573.646	1.03
573.987	1.02
574.328	1.02
574.668	1.02
575.009	1.02
575.349	1.01
575.69	1.01
576.03	1.01
576.37	1.01
576.711	1
577.051	1
577.391	1
577.731	1.01
578.072	1
578.412	1
578.752	0.99
579.092	0.99
579.431	0.98
579.771	0.97
580.111	0.97
580.451	0.98
580.791	0.98
581.13	0.98
581.47	0.98
581.81	0.97
582.149	0.97
582.489	0.97
582.828	0.96
583.167	0.94
583.507	0.91
583.846	0.9
584.185	0.94
584.525	0.95
584.864	0.96
585.203	0.96
585.542	0.96
585.881	0.96
586.22	0.95
586.559	0.95
586.898	0.94
587.236	0.94
587.575	0.93
587.914	0.94
588.252	0.95
588.591	0.95
588.93	0.94
589.268	0.94
589.607	0.94
589.945	0.94
590.283	0.94
590.622	0.94
590.96	0.95
591.298	0.94
591.636	0.93
591.974	0.94
592.313	0.94
592.651	0.94
592.989	0.93
593.326	0.93
593.664	0.94
594.002	0.94
594.34	0.93
594.678	0.93
595.015	0.92
595.353	0.92
595.691	0.92
596.028	0.93
596.366	0.93
596.703	0.92
597.04	0.93
597.378	0.93
597.715	0.93
598.052	0.93
598.389	0.92
598.726	0.92
599.064	0.92
599.401	0.92
599.738	0.92
600.074	0.91
600.411	0.91
600.748	0.91
601.085	0.91
601.422	0.91
601.758	0.91
602.095	0.9
602.432	0.91
602.768	0.9
603.105	0.91
603.441	0.9
603.777	0.91
604.114	0.91
604.45	0.9
604.786	0.9
605.122	0.89
605.459	0.89
605.795	0.89
606.131	0.89
606.467	0.89
606.803	0.88
607.139	0.88
607.474	0.88
607.81	0.88
608.146	0.88
608.482	0.87
608.817	0.86
609.153	0.87
609.488	0.87
609.824	0.86
610.159	0.87
610.495	0.86
610.83	0.86
611.165	0.86
611.5	0.85
611.836	0.85
612.171	0.84
612.506	0.84
612.841	0.84
613.176	0.83
613.511	0.83
613.845	0.83
614.18	0.83
614.515	0.82
614.85	0.83
615.184	0.82
615.519	0.82
615.854	0.82
616.188	0.81
616.523	0.81
616.857	0.8
617.191	0.8
617.526	0.8
617.86	0.8
618.194	0.79
618.528	0.79
618.862	0.8
619.196	0.78
619.53	0.79
619.864	0.78
620.198	0.78
620.532	0.78
620.866	0.77
621.2	0.77
621.533	0.76
621.867	0.77
622.201	0.76
622.534	0.76
622.868	0.75
623.201	0.75
623.534	0.75
623.868	0.74
624.201	0.74
624.534	0.74
624.868	0.74
625.201	0.73
625.534	0.73
625.867	0.72
626.2	0.72
626.533	0.72
626.865	0.72
627.198	0.71
627.531	0.71
627.864	0.7
628.196	0.7
628.529	0.7
628.862	0.69
629.194	0.69
629.527	0.69
629.859	0.68
630.191	0.68
630.524	0.68
630.856	0.67
631.188	0.67
631.52	0.66
631.852	0.66
632.184	0.66
632.516	0.65
632.848	0.65
633.18	0.64
633.512	0.64
633.844	0.64
634.175	0.64
634.507	0.63
634.839	0.62
635.17	0.62
635.502	0.62
635.833	0.61
636.165	0.61
636.496	0.6
636.827	0.6
637.159	0.6
637.49	0.6
637.821	0.59
638.152	0.58
638.483	0.58
638.814	0.58
639.145	0.57
639.476	0.57
639.807	0.57
640.137	0.56
640.468	0.56
640.799	0.56
641.129	0.55
641.46	0.55
641.791	0.54
642.121	0.54
642.451	0.54
642.782	0.54
643.112	0.53
643.442	0.53
643.773	0.53
644.103	0.52
644.433	0.52
644.763	0.52
645.093	0.52
645.423	0.51
645.753	0.51
646.082	0.51
646.412	0.51
646.742	0.51
647.072	0.5
647.401	0.5
647.731	0.49
648.06	0.49
648.39	0.49
648.719	0.49
649.048	0.49
649.378	0.48
649.707	0.48
650.036	0.48
650.365	0.48
650.694	0.47
651.023	0.47
651.352	0.47
651.681	0.47
652.01	0.47
652.339	0.47
652.668	0.46
652.996	0.46
653.325	0.46
653.654	0.46
653.982	0.46
654.311	0.46
654.639	0.46
654.967	0.45
655.296	0.45
655.624	0.45
655.952	0.45
656.28	0.44
656.609	0.45
656.937	0.44
657.265	0.43
657.593	0.28
657.92	0.19
658.248	0.17
658.576	0.25
658.904	0.37
659.231	0.43
659.559	0.43
659.887	0.43
660.214	0.43
660.542	0.42
660.869	0.42
661.196	0.42
661.524	0.42
661.851	0.42
662.178	0.41
662.505	0.42
662.832	0.41
663.159	0.41
663.486	0.41
663.813	0.41
664.14	0.41
664.467	0.41
664.794	0.4
665.12	0.4
665.447	0.4
665.774	0.4
666.1	0.4
666.427	0.39
666.753	0.39
667.079	0.39
667.406	0.39
667.732	0.38
668.058	0.38
668.384	0.38
668.71	0.38
669.036	0.38
669.362	0.37
669.688	0.37
670.014	0.37
670.34	0.37
670.666	0.36
670.991	0.36
671.317	0.36
671.643	0.36
671.968	0.36
672.294	0.35
672.619	0.35
672.945	0.35
673.27	0.35
673.595	0.34
673.92	0.34
674.246	0.34
674.571	0.34
674.896	0.33
675.221	0.33
675.546	0.33
675.87	0.33
676.195	0.32
676.52	0.32
676.845	0.32
677.169	0.32
677.494	0.32
677.819	0.31
678.143	0.3
678.468	0.3
678.792	0.3
679.116	0.3
679.44	0.3
679.765	0.29
680.089	0.29
680.413	0.28
680.737	0.28
681.061	0.28
681.385	0.28
681.709	0.27
682.033	0.27
682.356	0.27
682.68	0.27
683.004	0.27
683.327	0.26
683.651	0.26
683.974	0.26
684.298	0.25
684.621	0.25
684.944	0.25
685.268	0.25
685.591	0.24
685.914	0.24
686.237	0.24
686.56	0.23
686.883	0.23
687.206	0.23
687.529	0.23
687.852	0.22
688.175	0.23
688.497	0.22
688.82	0.22
689.142	0.22
689.465	0.22
689.787	0.21
690.11	0.21
690.432	0.2
690.755	0.2
691.077	0.2
691.399	0.2
691.721	0.2
692.043	0.2
692.365	0.19
692.687	0.19
693.009	0.18
693.331	0.18
693.653	0.18
693.974	0.18
694.296	0.18
694.618	0.18
694.939	0.18
695.261	0.17
695.582	0.17
695.904	0.17
696.225	0.17
696.546	0.17
696.868	0.17
697.189	0.17
697.51	0.16
697.831	0.16
698.152	0.16
698.473	0.16
698.794	0.15
699.114	0.15
699.435	0.15
699.756	0.15
700.077	0.15
700.397	0.15
700.718	0.15
701.038	0.15
701.359	0.15
701.679	0.15
701.999	0.15
702.32	0.15
702.64	0.14
702.96	0.15
703.28	0.14
703.6	0.14
703.92	0.14
704.24	0.14
704.56	0.14
704.879	0.14
705.199	0.14
705.519	0.14
705.838	0.14
706.158	0.14
706.478	0.14
706.797	0.13
707.116	0.14
707.436	0.14
707.755	0.13
708.074	0.13
708.393	0.13
708.712	0.13
709.031	0.12
709.35	0.12
709.669	0.12
709.988	0.12
710.307	0.12
710.626	0.13
710.944	0.13
711.263	0.13
711.582	0.12
711.9	0.13
712.219	0.13
712.537	0.13
712.855	0.13
713.174	0.13
713.492	0.13
713.81	0.13
714.128	0.13
714.446	0.13
714.764	0.12
715.082	0.12
715.4	0.13
715.718	0.13
716.035	0.12
716.353	0.13
716.671	0.13
716.988	0.13
717.306	0.12
717.623	0.13
717.941	0.13
718.258	0.13
718.575	0.13
718.893	0.13
719.21	0.13
719.527	0.13
719.844	0.13
720.161	0.13
720.478	0.13
720.795	0.13
721.112	0.13
721.428	0.13
721.745	0.13
722.062	0.13
722.378	0.14
722.695	0.13
723.011	0.13
723.328	0.13
723.644	0.13
723.96	0.13
724.276	0.14
724.593	0.13
724.909	0.14
725.225	0.13
725.541	0.13
725.857	0.13
726.173	0.14
726.488	0.14
726.804	0.14
727.12	0.13
727.435	0.13
727.751	0.13
728.067	0.13
728.382	0.14
728.697	0.13
729.013	0.13
729.328	0.13
729.643	0.13
729.958	0.13
730.273	0.13
730.588	0.13
730.903	0.13
731.218	0.13
731.533	0.13
731.848	0.13
732.163	0.13
732.477	0.13
732.792	0.12
733.107	0.12
733.421	0.13
733.736	0.13
734.05	0.13
734.364	0.13
734.678	0.12
734.993	0.12
735.307	0.13
735.621	0.12
735.935	0.12
736.249	0.12
736.563	0.13
736.877	0.12
737.19	0.12
737.504	0.12
737.818	0.13
738.131	0.12
738.445	0.12
738.758	0.12
739.072	0.12
739.385	0.12
739.698	0.12
740.012	0.12
740.325	0.12
740.638	0.12
740.951	0.12
741.264	0.11
741.577	0.11
741.89	0.11
742.203	0.11
742.515	0.12
742.828	0.11
743.141	0.11
743.453	0.11
743.766	0.11
744.078	0.11
744.391	0.11
744.703	0.1
745.015	0.1
745.327	0.11
745.639	0.11
745.952	0.1
746.264	0.1
746.575	0.1
746.887	0.1
747.199	0.1
747.511	0.1
747.823	0.1
748.134	0.1
748.446	0.1
748.757	0.1
749.069	0.1
749.38	0.1
749.692	0.09
750.003	0.09
750.314	0.09
750.625	0.09
750.936	0.09
751.248	0.09
751.559	0.09
751.869	0.09
752.18	0.09
752.491	0.08
752.802	0.09
753.112	0.08
753.423	0.08
753.734	0.08
754.044	0.08
754.355	0.08
754.665	0.08
754.975	0.08
755.285	0.08
755.596	0.08
755.906	0.08
756.216	0.08
756.526	0.08
756.836	0.08
757.146	0.08
757.455	0.08
757.765	0.08
758.075	0.07
758.385	0.07
758.694	0.07
759.004	0.07
759.313	0.07
759.622	0.07
759.932	0.07
760.241	0.07
760.55	0.07
760.859	0.07
761.168	0.07
761.477	0.07
761.786	0.07
762.095	0.07
762.404	0.07
762.713	0.07
763.021	0.07
763.33	0.07
763.639	0.07
763.947	0.07
764.256	0.07
764.564	0.07
764.872	0.07
765.181	0.07
765.489	0.07
765.797	0.06
766.105	0.07
766.413	0.07
766.721	0.07
767.029	0.07
767.337	0.07
767.644	0.07
767.952	0.07
768.26	0.07
768.567	0.07
768.875	0.07
769.182	0.07
769.49	0.07
769.797	0.07
770.104	0.07
770.411	0.07
770.718	0.07
771.026	0.07
771.333	0.07
771.639	0.07
771.946	0.07
772.253	0.07
772.56	0.07
772.867	0.07
773.173	0.07
773.48	0.07
773.786	0.07
774.093	0.07
774.399	0.07
774.705	0.07
775.012	0.07
775.318	0.07
775.624	0.06
775.93	0.07
776.236	0.07
776.542	0.07
776.848	0.07
777.154	0.07
777.459	0.07
777.765	0.07
778.071	0.07
778.376	0.07
778.682	0.07
778.987	0.07
779.292	0.07
779.598	0.07
779.903	0.07
780.208	0.07
780.513	0.07
780.818	0.07
781.123	0.07
781.428	0.07
781.733	0.07
782.038	0.07
782.343	0.07
782.647	0.07
782.952	0.07
783.256	0.08
783.561	0.08
783.865	0.08
784.17	0.07
784.474	0.07
784.778	0.08
785.082	0.08
785.386	0.07
785.69	0.07
785.994	0.08
786.298	0.08
786.602	0.08
786.906	0.08
787.209	0.08
787.513	0.08
787.817	0.08
788.12	0.08
788.424	0.08
788.727	0.07
789.03	0.08
789.333	0.08
789.637	0.08
789.94	0.08
790.243	0.07
790.546	0.08
790.849	0.08
791.152	0.08
791.454	0.08
791.757	0.08
792.06	0.08
792.362	0.08
792.665	0.08
792.967	0.08
793.27	0.08
793.572	0.08
793.874	0.08
794.177	0.08
794.479	0.08
794.781	0.08
795.083	0.08
795.385	0.08
795.687	0.08
795.989	0.09
796.29	0.09
796.592	0.09
796.894	0.09
797.195	0.09
797.497	0.09
797.798	0.09
798.1	0.09
798.401	0.09
798.702	0.09
799.003	0.09
799.304	0.09
799.605	0.09
799.906	0.09
800.207	0.09
800.508	0.09
800.809	0.09
801.11	0.09
801.41	0.09
801.711	0.1
802.011	0.1
802.312	0.09
802.612	0.09
802.913	0.09
803.213	0.1
803.513	0.09
803.813	0.09
804.113	0.09
804.413	0.09
804.713	0.1
805.013	0.1
805.313	0.1
805.613	0.1
805.912	0.1
806.212	0.1
806.511	0.1
806.811	0.09
807.11	0.1
807.41	0.1
807.709	0.1
808.008	0.1
808.307	0.1
808.606	0.1
808.905	0.1
809.204	0.1
809.503	0.1
809.802	0.1
810.101	0.1
810.399	0.1
810.698	0.1
810.997	0.11
811.295	0.11
811.593	0.1
811.892	0.11
812.19	0.11
812.488	0.11
812.786	0.11
813.084	0.11
813.383	0.11
813.68	0.11
813.978	0.12
814.276	0.11
814.574	0.11
814.872	0.11
815.169	0.11
815.467	0.11
815.764	0.11
816.062	0.11
816.359	0.11
816.656	0.12
816.954	0.11
817.251	0.12
817.548	0.12
817.845	0.12
818.142	0.12
818.439	0.12
818.735	0.12
819.032	0.12
819.329	0.12
819.626	0.12
819.922	0.12
820.219	0.13
820.515	0.12
820.811	0.12
821.108	0.12
821.404	0.12
821.7	0.12
821.996	0.12
822.292	0.12
822.588	0.12
822.884	0.12
823.18	0.13
823.475	0.12
823.771	0.13
824.067	0.12
824.362	0.13
824.658	0.12
824.953	0.13
825.249	0.13
825.544	0.13
825.839	0.13
826.134	0.14
826.429	0.13
826.724	0.13
827.019	0.13
827.314	0.13
827.609	0.13
827.904	0.13
828.198	0.13
828.493	0.13
828.787	0.13
829.082	0.13
829.376	0.13
829.671	0.13
829.965	0.14
830.259	0.14
830.553	0.14
830.847	0.14
831.141	0.14
831.435	0.14
831.729	0.14
832.023	0.15
832.317	0.15
832.61	0.14
832.904	0.15
833.197	0.15
833.491	0.15
833.784	0.14
834.077	0.14
834.371	0.15
834.664	0.14
834.957	0.15
835.25	0.15
835.543	0.15
835.836	0.15
836.129	0.15
836.421	0.15
836.714	0.15
837.007	0.15
837.299	0.15
837.592	0.16
837.884	0.15
838.177	0.15
838.469	0.15
838.761	0.15
839.053	0.15
839.345	0.16
839.637	0.15
839.929	0.15
840.221	0.15
840.513	0.16
840.805	0.16
841.096	0.16
841.388	0.16
841.68	0.15
841.971	0.16
842.262	0.16
842.554	0.16
842.845	0.16
843.136	0.17
843.427	0.17
843.718	0.16
844.009	0.17
844.3	0.16
844.591	0.17
844.882	0.16
845.173	0.16
845.463	0.17
845.754	0.16
846.044	0.17
846.335	0.16
846.625	0.16
846.915	0.16
847.206	0.17
847.496	0.16
847.786	0.18
848.076	0.17
848.366	0.16
848.656	0.17
848.945	0.17
849.235	0.17
849.525	0.17
849.814	0.16
850.104	0.16
850.393	0.18
850.683	0.18
850.972	0.18
851.261	0.16
851.551	0.19
851.84	0.18
852.129	0.17
852.418	0.16
852.707	0.18
852.995	0.18
853.284	0.18
853.573	0.17
853.862	0.18
854.15	0.18
854.439	0.19
854.727	0.18
855.015	0.18
855.304	0.19
855.592	0.18
855.88	0.18
856.168	0.2
856.456	0.18
856.744	0.19
857.032	0.18
857.32	0.2
857.607	0.2
857.895	0.19
858.183	0.19
858.47	0.21
858.757	0.19
859.045	0.19
859.332	0.18
859.619	0.19
859.907	0.19
860.194	0.21
860.481	0.21
860.768	0.18
861.054	0.21
861.341	0.18
861.628	0.18
861.915	0.22
862.201	0.18
862.488	0.17
862.774	0.16
863.061	0.18
863.347	0.2
863.633	0.21
863.919	0.17
864.205	0.19
864.491	0.2
864.777	0.2
865.063	0.2
865.349	0.18
865.635	0.17
865.92	0.18
866.206	0.19
866.492	0.2
866.777	0.15
867.062	0.2
867.348	0.17
867.633	0.21
867.918	0.17
868.203	0.21
868.488	0.21
868.773	0.23
869.058	0.19
869.343	0.21
869.628	0.18
869.912	0.19
870.197	0.21
870.482	0.19
870.766	0.16
871.05	0.2
871.335	0.17
871.619	0.22
871.903	0.19
872.187	0.21
872.471	0.27
872.755	0.22
873.039	0.15
873.323	0.2
873.607	0.23
873.89	0.2
874.174	0.15
874.458	0.16
874.741	0.26
875.024	0.24
875.308	0.25
875.591	0.14
875.874	0.19
876.157	0.2
876.44	0.18
876.723	0.19
877.006	0.22
877.289	0.16
877.572	0.33
877.854	0.14
878.137	0.24
878.42	0.17
878.702	0.18
878.984	0.06
879.267	0.12
879.549	0.3
879.831	0.07
880.113	0.12
880.395	0.14
880.677	0.16
880.959	0.4
