Data from Rubpy_BV_1800_EDTA_Buffered_Absorbance_16-59-19-696.txt Node
Date: Wed Jul 01 16:59:19 BST 2026
User: fpm-admin
Spectrometer: OFX00224
Trigger mode: 0
Integration Time (sec): 7.000000E-2
Scans to average: 3
Nonlinearity correction enabled: false
Boxcar width: 0
Storing dark spectrum: false
XAxis mode: Wavelengths
Number of Pixels in Spectrum: 2136
>>>>>Begin Spectral Data<<<<<
154.91	0.41
155.289	0.35
155.669	0.03
156.048	-0
156.428	-0
156.807	-0.11
157.186	-0
157.566	-0
157.945	-0
158.325	-0
158.704	-0.17
159.083	0.44
159.462	-1.1
159.842	-0
160.221	0.18
160.6	-0
160.979	0.53
161.359	-0
161.738	0.85
162.117	-0.24
162.496	0.3
162.875	-0.23
163.254	-0
163.633	-0
164.012	-0
164.391	0.14
164.77	-0
165.149	-0.95
165.528	-0
165.907	0.07
166.286	-0.18
166.665	-0
167.044	-0.29
167.423	-0.04
167.802	-0
168.181	-0.85
168.559	-0.34
168.938	-0
169.317	-0.17
169.696	-0
170.074	0.52
170.453	-0.09
170.832	-1.36
171.21	0.29
171.589	-0
171.968	0.01
172.346	-0.34
172.725	-0
173.103	-0
173.482	0.34
173.861	1
174.239	-0.26
174.617	0.12
174.996	-0
175.374	-0
175.753	-0
176.131	0.38
176.51	-0
176.888	-0
177.266	-0
177.645	0.09
178.023	0.82
178.401	-0.15
178.779	0.01
179.158	1.38
179.536	-0.04
179.914	-0
180.292	-0.03
180.67	-0.38
181.048	0.7
181.427	0.43
181.805	-0.11
182.183	-0
182.561	0.1
182.939	-0
183.317	-0.56
183.695	0.13
184.073	-0
184.451	-0
184.829	-0.2
185.206	-0.26
185.584	-0
185.962	-0.1
186.34	-0
186.718	0.27
187.096	-0
187.473	-0
187.851	0.05
188.229	0.6
188.607	0.17
188.984	0.33
189.362	0.33
189.74	0.61
190.117	0.45
190.495	0.34
190.872	0.29
191.25	0.96
191.627	0.54
192.005	0.33
192.382	0.44
192.76	0.36
193.137	0.34
193.515	0.5
193.892	0.31
194.269	0.32
194.647	0.28
195.024	0.23
195.401	0.31
195.779	0.4
196.156	0.28
196.533	0.63
196.91	0.36
197.288	0.29
197.665	0.22
198.042	0.22
198.419	0.31
198.796	0.24
199.173	0.33
199.55	0.44
199.927	0.36
200.304	0.33
200.681	0.25
201.058	0.31
201.435	0.54
201.812	0.26
202.189	0.33
202.566	0.36
202.943	0.39
203.32	0.27
203.697	0.45
204.073	0.33
204.45	0.51
204.827	0.41
205.204	0.38
205.58	0.59
205.957	0.45
206.334	0.29
206.71	0.5
207.087	0.43
207.464	0.61
207.84	0.35
208.217	0.24
208.593	0.3
208.97	0.33
209.346	0.31
209.723	0.36
210.099	0.37
210.476	0.6
210.852	0.29
211.228	0.41
211.605	0.4
211.981	0.23
212.357	0.53
212.733	0.33
213.11	0.34
213.486	0.53
213.862	0.46
214.238	0.36
214.614	0.34
214.991	0.38
215.367	0.43
215.743	0.37
216.119	0.44
216.495	0.53
216.871	0.5
217.247	0.32
217.623	0.28
217.999	0.41
218.375	0.41
218.751	0.23
219.127	0.24
219.502	0.35
219.878	0.31
220.254	0.46
220.63	0.47
221.006	0.42
221.381	0.48
221.757	0.43
222.133	0.43
222.508	0.62
222.884	0.2
223.26	0.43
223.635	0.4
224.011	0.39
224.386	0.54
224.762	0.72
225.137	0.41
225.513	0.47
225.888	0.36
226.264	0.42
226.639	0.38
227.014	0.5
227.39	0.46
227.765	0.29
228.14	0.36
228.516	0.56
228.891	0.45
229.266	0.4
229.641	0.41
230.017	0.33
230.392	0.37
230.767	0.35
231.142	0.57
231.517	0.49
231.892	0.32
232.267	0.39
232.642	0.52
233.017	0.31
233.392	0.6
233.767	0.36
234.142	0.38
234.517	0.46
234.892	0.43
235.267	0.45
235.641	0.42
236.016	0.43
236.391	0.41
236.766	0.46
237.14	0.45
237.515	0.53
237.89	0.43
238.264	0.5
238.639	0.42
239.014	0.63
239.388	0.7
239.763	0.35
240.137	0.23
240.512	0.54
240.886	0.39
241.261	0.37
241.635	0.34
242.009	0.45
242.384	0.43
242.758	0.57
243.132	0.27
243.507	0.37
243.881	0.37
244.255	0.57
244.629	0.52
245.004	0.51
245.378	0.37
245.752	0.46
246.126	0.41
246.5	0.46
246.874	0.56
247.248	0.3
247.622	0.71
247.996	0.3
248.37	0.36
248.744	0.37
249.118	0.27
249.492	0.46
249.866	0.4
250.24	0.49
250.613	0.44
250.987	0.42
251.361	0.58
251.735	0.43
252.108	0.38
252.482	0.35
252.856	0.29
253.229	0.42
253.603	0.28
253.977	0.41
254.35	0.41
254.724	0.39
255.097	0.38
255.471	0.37
255.844	0.38
256.218	0.33
256.591	0.39
256.964	0.6
257.338	0.56
257.711	0.42
258.084	0.45
258.458	0.48
258.831	0.53
259.204	0.31
259.577	0.41
259.95	0.39
260.323	0.37
260.697	0.46
261.07	0.38
261.443	0.38
261.816	0.47
262.189	0.51
262.562	0.31
262.935	0.38
263.308	0.25
263.68	0.41
264.053	0.55
264.426	0.49
264.799	0.43
265.172	0.5
265.545	0.39
265.917	0.41
266.29	0.4
266.663	0.46
267.035	0.41
267.408	0.39
267.781	0.51
268.153	0.29
268.526	0.52
268.898	0.62
269.271	0.42
269.643	0.46
270.016	0.46
270.388	0.41
270.76	0.64
271.133	0.43
271.505	0.53
271.877	0.32
272.25	0.48
272.622	0.36
272.994	0.42
273.366	0.47
273.739	0.41
274.111	0.37
274.483	0.42
274.855	0.48
275.227	0.52
275.599	0.46
275.971	0.38
276.343	0.41
276.715	0.31
277.087	0.5
277.459	0.5
277.831	0.35
278.203	0.4
278.574	0.77
278.946	0.45
279.318	0.56
279.69	0.45
280.061	0.58
280.433	0.34
280.805	0.43
281.176	0.41
281.548	0.48
281.92	0.5
282.291	0.43
282.663	0.5
283.034	0.42
283.406	0.46
283.777	0.48
284.148	0.4
284.52	0.48
284.891	0.48
285.262	0.53
285.634	0.47
286.005	0.43
286.376	0.57
286.747	0.4
287.119	0.36
287.49	0.55
287.861	0.44
288.232	0.48
288.603	0.5
288.974	0.49
289.345	0.46
289.716	0.41
290.087	0.41
290.458	0.34
290.829	0.47
291.2	0.48
291.571	0.43
291.941	0.55
292.312	0.34
292.683	0.35
293.054	0.4
293.424	0.5
293.795	0.46
294.166	0.45
294.536	0.51
294.907	0.42
295.277	0.52
295.648	0.45
296.018	0.54
296.389	0.31
296.759	0.31
297.13	0.57
297.5	0.5
297.871	0.4
298.241	0.52
298.611	0.45
298.981	0.43
299.352	0.49
299.722	0.38
300.092	0.44
300.462	0.56
300.832	0.49
301.202	0.5
301.573	0.42
301.943	0.65
302.313	0.41
302.683	0.43
303.053	0.46
303.422	0.45
303.792	0.44
304.162	0.33
304.532	0.43
304.902	0.35
305.272	0.38
305.641	0.51
306.011	0.41
306.381	0.39
306.75	0.46
307.12	0.4
307.49	0.32
307.859	0.37
308.229	0.35
308.598	0.35
308.968	0.36
309.337	0.33
309.707	0.33
310.076	0.32
310.445	0.35
310.815	0.33
311.184	0.37
311.553	0.34
311.923	0.36
312.292	0.35
312.661	0.37
313.03	0.35
313.399	0.36
313.768	0.37
314.137	0.37
314.506	0.36
314.875	0.4
315.244	0.35
315.613	0.41
315.982	0.41
316.351	0.4
316.72	0.37
317.089	0.39
317.458	0.41
317.826	0.42
318.195	0.43
318.564	0.44
318.933	0.44
319.301	0.42
319.67	0.43
320.038	0.45
320.407	0.48
320.775	0.46
321.144	0.47
321.512	0.48
321.881	0.48
322.249	0.48
322.618	0.5
322.986	0.5
323.354	0.51
323.723	0.53
324.091	0.53
324.459	0.55
324.827	0.55
325.195	0.57
325.564	0.57
325.932	0.56
326.3	0.58
326.668	0.58
327.036	0.58
327.404	0.6
327.772	0.61
328.14	0.62
328.508	0.62
328.875	0.65
329.243	0.65
329.611	0.67
329.979	0.67
330.346	0.68
330.714	0.69
331.082	0.7
331.449	0.71
331.817	0.72
332.185	0.74
332.552	0.75
332.92	0.76
333.287	0.77
333.655	0.8
334.022	0.81
334.389	0.83
334.757	0.85
335.124	0.86
335.491	0.88
335.859	0.9
336.226	0.91
336.593	0.93
336.96	0.94
337.327	0.96
337.695	0.98
338.062	0.99
338.429	1.02
338.796	1.03
339.163	1.05
339.53	1.07
339.897	1.1
340.263	1.11
340.63	1.11
340.997	1.14
341.364	1.16
341.731	1.2
342.097	1.18
342.464	1.21
342.831	1.25
343.197	1.25
343.564	1.28
343.931	1.3
344.297	1.3
344.664	1.33
345.03	1.34
345.396	1.37
345.763	1.41
346.129	1.41
346.496	1.44
346.862	1.45
347.228	1.49
347.594	1.49
347.961	1.5
348.327	1.51
348.693	1.56
349.059	1.55
349.425	1.58
349.791	1.6
350.157	1.61
350.523	1.62
350.889	1.63
351.255	1.66
351.621	1.71
351.987	1.68
352.353	1.71
352.719	1.71
353.084	1.71
353.45	1.76
353.816	1.78
354.181	1.75
354.547	1.73
354.913	1.79
355.278	1.83
355.644	1.79
356.009	1.82
356.375	1.85
356.74	1.89
357.106	1.93
357.471	1.87
357.836	1.91
358.202	2.01
358.567	1.94
358.932	1.99
359.297	2.03
359.663	2.04
360.028	2.03
360.393	2.07
360.758	2.01
361.123	2.11
361.488	2.1
361.853	2.07
362.218	2.11
362.583	2.13
362.948	2.11
363.312	2.19
363.677	2.13
364.042	2.13
364.407	2.13
364.772	2.21
365.136	2.13
365.501	2.13
365.865	2.14
366.23	2.13
366.595	2.14
366.959	2.26
367.324	2.22
367.688	2.21
368.052	2.21
368.417	2.23
368.781	2.18
369.145	2.29
369.51	2.28
369.874	2.22
370.238	2.19
370.602	2.1
370.967	2.32
371.331	2.13
371.695	2.22
372.059	2.25
372.423	2.16
372.787	2.22
373.151	2.16
373.515	2.11
373.878	2.17
374.242	2.13
374.606	2.15
374.97	2.14
375.334	2.26
375.697	2.23
376.061	2.14
376.425	2.26
376.788	2.17
377.152	2.2
377.515	2.12
377.879	2.28
378.242	2.08
378.606	2.16
378.969	2.14
379.333	2.15
379.696	2.14
380.059	2.12
380.422	2.08
380.786	2.11
381.149	2.14
381.512	2.07
381.875	2
382.238	2
382.601	2.01
382.964	2
383.327	2
383.69	1.98
384.053	1.92
384.416	1.92
384.779	1.93
385.142	1.91
385.504	1.87
385.867	1.86
386.23	1.87
386.593	1.86
386.955	1.83
387.318	1.79
387.68	1.82
388.043	1.78
388.405	1.75
388.768	1.8
389.13	1.77
389.493	1.76
389.855	1.71
390.217	1.71
390.58	1.7
390.942	1.66
391.304	1.65
391.666	1.63
392.028	1.6
392.391	1.59
392.753	1.58
393.115	1.55
393.477	1.52
393.839	1.52
394.201	1.49
394.563	1.49
394.924	1.46
395.286	1.47
395.648	1.45
396.01	1.47
396.371	1.48
396.733	1.5
397.095	1.49
397.456	1.51
397.818	1.56
398.18	1.55
398.541	1.59
398.903	1.6
399.264	1.65
399.625	1.68
399.987	1.71
400.348	1.72
400.709	1.75
401.071	1.74
401.432	1.75
401.793	1.75
402.154	1.72
402.515	1.69
402.876	1.67
403.238	1.65
403.599	1.61
403.96	1.58
404.32	1.5
404.681	1.48
405.042	1.41
405.403	1.37
405.764	1.32
406.125	1.26
406.485	1.21
406.846	1.14
407.207	1.09
407.567	1.03
407.928	0.98
408.288	0.94
408.649	0.88
409.009	0.84
409.37	0.8
409.73	0.75
410.091	0.72
410.451	0.69
410.811	0.64
411.171	0.62
411.532	0.6
411.892	0.56
412.252	0.54
412.612	0.52
412.972	0.49
413.332	0.48
413.692	0.45
414.052	0.45
414.412	0.43
414.772	0.41
415.132	0.41
415.492	0.39
415.851	0.37
416.211	0.37
416.571	0.36
416.931	0.34
417.29	0.33
417.65	0.32
418.009	0.32
418.369	0.3
418.728	0.31
419.088	0.3
419.447	0.3
419.807	0.29
420.166	0.27
420.525	0.27
420.884	0.27
421.244	0.26
421.603	0.26
421.962	0.26
422.321	0.26
422.68	0.25
423.039	0.24
423.398	0.24
423.757	0.24
424.116	0.24
424.475	0.23
424.834	0.23
425.193	0.22
425.551	0.23
425.91	0.22
426.269	0.22
426.628	0.21
426.986	0.22
427.345	0.21
427.703	0.21
428.062	0.22
428.42	0.21
428.779	0.21
429.137	0.22
429.496	0.21
429.854	0.21
430.212	0.21
430.57	0.21
430.929	0.2
431.287	0.21
431.645	0.2
432.003	0.2
432.361	0.2
432.719	0.2
433.077	0.2
433.435	0.2
433.793	0.21
434.151	0.19
434.509	0.2
434.866	0.2
435.224	0.2
435.582	0.2
435.94	0.2
436.297	0.2
436.655	0.2
437.012	0.2
437.37	0.2
437.727	0.2
438.085	0.21
438.442	0.2
438.8	0.21
439.157	0.2
439.514	0.2
439.872	0.2
440.229	0.2
440.586	0.2
440.943	0.21
441.3	0.21
441.657	0.22
442.014	0.22
442.371	0.2
442.728	0.21
443.085	0.21
443.442	0.2
443.799	0.21
444.156	0.21
444.513	0.22
444.869	0.2
445.226	0.21
445.583	0.23
445.939	0.22
446.296	0.21
446.652	0.22
447.009	0.23
447.365	0.22
447.722	0.21
448.078	0.22
448.434	0.23
448.791	0.22
449.147	0.22
449.503	0.21
449.859	0.22
450.215	0.22
450.571	0.22
450.928	0.22
451.284	0.24
451.64	0.23
451.995	0.22
452.351	0.23
452.707	0.22
453.063	0.22
453.419	0.22
453.775	0.22
454.13	0.22
454.486	0.22
454.842	0.22
455.197	0.21
455.553	0.22
455.908	0.21
456.264	0.22
456.619	0.21
456.975	0.22
457.33	0.21
457.685	0.21
458.04	0.2
458.396	0.2
458.751	0.2
459.106	0.19
459.461	0.19
459.816	0.19
460.171	0.19
460.526	0.19
460.881	0.18
461.236	0.18
461.591	0.17
461.946	0.17
462.301	0.17
462.655	0.16
463.01	0.17
463.365	0.16
463.719	0.15
464.074	0.14
464.428	0.13
464.783	0.13
465.137	0.13
465.492	0.14
465.846	0.14
466.201	0.14
466.555	0.14
466.909	0.15
467.263	0.16
467.618	0.16
467.972	0.16
468.326	0.16
468.68	0.15
469.034	0.15
469.388	0.15
469.742	0.16
470.096	0.16
470.45	0.16
470.804	0.17
471.157	0.16
471.511	0.16
471.865	0.17
472.218	0.18
472.572	0.18
472.926	0.19
473.279	0.21
473.633	0.21
473.986	0.23
474.34	0.23
474.693	0.25
475.046	0.26
475.4	0.28
475.753	0.29
476.106	0.29
476.459	0.31
476.812	0.32
477.165	0.34
477.519	0.34
477.872	0.36
478.224	0.36
478.577	0.38
478.93	0.39
479.283	0.39
479.636	0.4
479.989	0.42
480.341	0.43
480.694	0.44
481.047	0.46
481.399	0.46
481.752	0.46
482.104	0.48
482.457	0.49
482.809	0.5
483.162	0.49
483.514	0.52
483.866	0.52
484.219	0.52
484.571	0.54
484.923	0.54
485.275	0.55
485.627	0.55
485.979	0.57
486.331	0.58
486.683	0.59
487.035	0.59
487.387	0.6
487.739	0.62
488.091	0.63
488.443	0.63
488.794	0.63
489.146	0.64
489.498	0.64
489.849	0.65
490.201	0.65
490.552	0.66
490.904	0.66
491.255	0.67
491.607	0.68
491.958	0.68
492.309	0.69
492.661	0.7
493.012	0.71
493.363	0.72
493.714	0.72
494.065	0.73
494.416	0.72
494.767	0.74
495.118	0.75
495.469	0.76
495.82	0.75
496.171	0.77
496.522	0.77
496.872	0.78
497.223	0.79
497.574	0.8
497.924	0.8
498.275	0.82
498.626	0.82
498.976	0.82
499.327	0.83
499.677	0.84
500.027	0.83
500.378	0.85
500.728	0.86
501.078	0.86
501.428	0.87
501.779	0.88
502.129	0.88
502.479	0.89
502.829	0.9
503.179	0.9
503.529	0.9
503.879	0.91
504.229	0.92
504.578	0.92
504.928	0.93
505.278	0.93
505.628	0.94
505.977	0.95
506.327	0.96
506.676	0.97
507.026	0.97
507.375	0.97
507.725	0.97
508.074	0.99
508.424	0.98
508.773	0.99
509.122	0.99
509.471	1
509.82	1.01
510.17	1.02
510.519	1.03
510.868	1.02
511.217	1.03
511.566	1.04
511.915	1.04
512.263	1.06
512.612	1.05
512.961	1.07
513.31	1.05
513.659	1.07
514.007	1.08
514.356	1.08
514.704	1.07
515.053	1.09
515.401	1.09
515.75	1.1
516.098	1.11
516.447	1.12
516.795	1.09
517.143	1.11
517.491	1.11
517.839	1.13
518.188	1.12
518.536	1.14
518.884	1.13
519.232	1.14
519.58	1.15
519.928	1.14
520.275	1.16
520.623	1.17
520.971	1.18
521.319	1.18
521.666	1.18
522.014	1.17
522.362	1.17
522.709	1.18
523.057	1.19
523.404	1.2
523.752	1.19
524.099	1.19
524.446	1.21
524.794	1.21
525.141	1.21
525.488	1.22
525.835	1.21
526.182	1.22
526.529	1.22
526.876	1.22
527.223	1.23
527.57	1.23
527.917	1.25
528.264	1.24
528.611	1.24
528.958	1.26
529.304	1.25
529.651	1.25
529.998	1.26
530.344	1.26
530.691	1.26
531.037	1.27
531.384	1.28
531.73	1.26
532.076	1.27
532.423	1.28
532.769	1.29
533.115	1.28
533.461	1.28
533.807	1.29
534.154	1.28
534.5	1.28
534.846	1.28
535.192	1.29
535.537	1.3
535.883	1.3
536.229	1.31
536.575	1.3
536.921	1.32
537.266	1.31
537.612	1.31
537.957	1.3
538.303	1.31
538.649	1.31
538.994	1.31
539.339	1.31
539.685	1.31
540.03	1.32
540.375	1.31
540.721	1.32
541.066	1.32
541.411	1.33
541.756	1.33
542.101	1.32
542.446	1.33
542.791	1.34
543.136	1.34
543.481	1.33
543.825	1.34
544.17	1.33
544.515	1.34
544.86	1.33
545.204	1.33
545.549	1.33
545.893	1.34
546.238	1.32
546.582	1.34
546.927	1.35
547.271	1.35
547.615	1.34
547.96	1.34
548.304	1.35
548.648	1.34
548.992	1.33
549.336	1.33
549.68	1.35
550.024	1.34
550.368	1.34
550.712	1.34
551.056	1.33
551.4	1.34
551.743	1.34
552.087	1.34
552.431	1.34
552.774	1.33
553.118	1.34
553.462	1.33
553.805	1.33
554.148	1.32
554.492	1.33
554.835	1.33
555.178	1.34
555.522	1.34
555.865	1.33
556.208	1.34
556.551	1.33
556.894	1.33
557.237	1.32
557.58	1.32
557.923	1.32
558.266	1.33
558.609	1.33
558.952	1.32
559.294	1.32
559.637	1.32
559.98	1.32
560.322	1.3
560.665	1.32
561.007	1.31
561.35	1.3
561.692	1.3
562.034	1.31
562.377	1.3
562.719	1.3
563.061	1.3
563.403	1.29
563.745	1.3
564.088	1.3
564.43	1.3
564.772	1.29
565.113	1.29
565.455	1.29
565.797	1.29
566.139	1.28
566.481	1.28
566.822	1.27
567.164	1.28
567.506	1.28
567.847	1.28
568.189	1.27
568.53	1.27
568.872	1.28
569.213	1.27
569.554	1.26
569.895	1.26
570.237	1.27
570.578	1.26
570.919	1.25
571.26	1.24
571.601	1.25
571.942	1.25
572.283	1.24
572.624	1.24
572.965	1.23
573.306	1.24
573.646	1.24
573.987	1.23
574.328	1.24
574.668	1.22
575.009	1.21
575.349	1.22
575.69	1.21
576.03	1.21
576.37	1.2
576.711	1.2
577.051	1.2
577.391	1.2
577.731	1.21
578.072	1.19
578.412	1.19
578.752	1.19
579.092	1.18
579.431	1.17
579.771	1.17
580.111	1.15
580.451	1.17
580.791	1.17
581.13	1.16
581.47	1.17
581.81	1.16
582.149	1.16
582.489	1.16
582.828	1.15
583.167	1.13
583.507	1.09
583.846	1.09
584.185	1.12
584.525	1.14
584.864	1.15
585.203	1.15
585.542	1.14
585.881	1.14
586.22	1.14
586.559	1.14
586.898	1.13
587.236	1.11
587.575	1.12
587.914	1.13
588.252	1.13
588.591	1.13
588.93	1.12
589.268	1.11
589.607	1.12
589.945	1.12
590.283	1.12
590.622	1.11
590.96	1.12
591.298	1.12
591.636	1.12
591.974	1.11
592.313	1.11
592.651	1.11
592.989	1.11
593.326	1.11
593.664	1.1
594.002	1.1
594.34	1.11
594.678	1.1
595.015	1.1
595.353	1.09
595.691	1.1
596.028	1.1
596.366	1.1
596.703	1.1
597.04	1.1
597.378	1.09
597.715	1.1
598.052	1.1
598.389	1.09
598.726	1.09
599.064	1.09
599.401	1.09
599.738	1.09
600.074	1.09
600.411	1.08
600.748	1.07
601.085	1.07
601.422	1.07
601.758	1.07
602.095	1.07
602.432	1.07
602.768	1.07
603.105	1.07
603.441	1.07
603.777	1.06
604.114	1.07
604.45	1.06
604.786	1.05
605.122	1.05
605.459	1.05
605.795	1.05
606.131	1.04
606.467	1.04
606.803	1.04
607.139	1.04
607.474	1.03
607.81	1.04
608.146	1.03
608.482	1.03
608.817	1.02
609.153	1.02
609.488	1.01
609.824	1.01
610.159	1.01
610.495	1.01
610.83	1.01
611.165	1.01
611.5	1
611.836	1
612.171	1
612.506	0.99
612.841	0.99
613.176	0.98
613.511	0.98
613.845	0.97
614.18	0.98
614.515	0.97
614.85	0.97
615.184	0.96
615.519	0.96
615.854	0.95
616.188	0.95
616.523	0.95
616.857	0.95
617.191	0.94
617.526	0.94
617.86	0.94
618.194	0.93
618.528	0.93
618.862	0.93
619.196	0.92
619.53	0.92
619.864	0.92
620.198	0.91
620.532	0.91
620.866	0.91
621.2	0.9
621.533	0.9
621.867	0.9
622.201	0.89
622.534	0.89
622.868	0.89
623.201	0.88
623.534	0.88
623.868	0.88
624.201	0.87
624.534	0.86
624.868	0.87
625.201	0.86
625.534	0.86
625.867	0.85
626.2	0.85
626.533	0.85
626.865	0.84
627.198	0.84
627.531	0.83
627.864	0.82
628.196	0.83
628.529	0.82
628.862	0.81
629.194	0.81
629.527	0.81
629.859	0.8
630.191	0.8
630.524	0.8
630.856	0.79
631.188	0.78
631.52	0.78
631.852	0.77
632.184	0.77
632.516	0.77
632.848	0.76
633.18	0.76
633.512	0.76
633.844	0.75
634.175	0.75
634.507	0.74
634.839	0.73
635.17	0.72
635.502	0.72
635.833	0.72
636.165	0.71
636.496	0.71
636.827	0.71
637.159	0.7
637.49	0.7
637.821	0.7
638.152	0.69
638.483	0.68
638.814	0.68
639.145	0.68
639.476	0.67
639.807	0.67
640.137	0.66
640.468	0.66
640.799	0.65
641.129	0.65
641.46	0.65
641.791	0.64
642.121	0.64
642.451	0.63
642.782	0.63
643.112	0.63
643.442	0.62
643.773	0.62
644.103	0.61
644.433	0.61
644.763	0.61
645.093	0.61
645.423	0.6
645.753	0.6
646.082	0.6
646.412	0.59
646.742	0.59
647.072	0.59
647.401	0.59
647.731	0.58
648.06	0.58
648.39	0.58
648.719	0.57
649.048	0.57
649.378	0.57
649.707	0.57
650.036	0.56
650.365	0.56
650.694	0.55
651.023	0.56
651.352	0.55
651.681	0.55
652.01	0.55
652.339	0.55
652.668	0.55
652.996	0.54
653.325	0.54
653.654	0.54
653.982	0.54
654.311	0.53
654.639	0.53
654.967	0.53
655.296	0.53
655.624	0.53
655.952	0.53
656.28	0.52
656.609	0.52
656.937	0.52
657.265	0.5
657.593	0.36
657.92	0.26
658.248	0.24
658.576	0.32
658.904	0.44
659.231	0.5
659.559	0.51
659.887	0.5
660.214	0.5
660.542	0.5
660.869	0.49
661.196	0.49
661.524	0.49
661.851	0.49
662.178	0.49
662.505	0.48
662.832	0.48
663.159	0.48
663.486	0.48
663.813	0.47
664.14	0.48
664.467	0.47
664.794	0.47
665.12	0.47
665.447	0.46
665.774	0.46
666.1	0.46
666.427	0.46
666.753	0.46
667.079	0.45
667.406	0.45
667.732	0.45
668.058	0.45
668.384	0.44
668.71	0.44
669.036	0.44
669.362	0.44
669.688	0.43
670.014	0.43
670.34	0.43
670.666	0.43
670.991	0.42
671.317	0.42
671.643	0.42
671.968	0.42
672.294	0.41
672.619	0.41
672.945	0.41
673.27	0.41
673.595	0.4
673.92	0.39
674.246	0.4
674.571	0.39
674.896	0.39
675.221	0.39
675.546	0.39
675.87	0.38
676.195	0.38
676.52	0.37
676.845	0.37
677.169	0.37
677.494	0.37
677.819	0.36
678.143	0.36
678.468	0.35
678.792	0.35
679.116	0.35
679.44	0.35
679.765	0.34
680.089	0.33
680.413	0.33
680.737	0.33
681.061	0.32
681.385	0.32
681.709	0.32
682.033	0.32
682.356	0.32
682.68	0.31
683.004	0.31
683.327	0.31
683.651	0.3
683.974	0.3
684.298	0.3
684.621	0.29
684.944	0.29
685.268	0.29
685.591	0.29
685.914	0.28
686.237	0.28
686.56	0.27
686.883	0.27
687.206	0.27
687.529	0.26
687.852	0.26
688.175	0.26
688.497	0.26
688.82	0.26
689.142	0.25
689.465	0.25
689.787	0.25
690.11	0.25
690.432	0.24
690.755	0.24
691.077	0.23
691.399	0.23
691.721	0.23
692.043	0.23
692.365	0.23
692.687	0.22
693.009	0.21
693.331	0.22
693.653	0.21
693.974	0.21
694.296	0.21
694.618	0.21
694.939	0.21
695.261	0.2
695.582	0.2
695.904	0.2
696.225	0.2
696.546	0.2
696.868	0.2
697.189	0.2
697.51	0.19
697.831	0.19
698.152	0.19
698.473	0.19
698.794	0.18
699.114	0.18
699.435	0.18
699.756	0.18
700.077	0.18
700.397	0.18
700.718	0.18
701.038	0.18
701.359	0.18
701.679	0.17
701.999	0.18
702.32	0.17
702.64	0.17
702.96	0.17
703.28	0.17
703.6	0.17
703.92	0.17
704.24	0.16
704.56	0.16
704.879	0.16
705.199	0.16
705.519	0.16
705.838	0.16
706.158	0.16
706.478	0.16
706.797	0.16
707.116	0.16
707.436	0.16
707.755	0.16
708.074	0.16
708.393	0.15
708.712	0.15
709.031	0.14
709.35	0.14
709.669	0.14
709.988	0.14
710.307	0.14
710.626	0.15
710.944	0.15
711.263	0.15
711.582	0.15
711.9	0.15
712.219	0.15
712.537	0.15
712.855	0.15
713.174	0.15
713.492	0.15
713.81	0.15
714.128	0.15
714.446	0.15
714.764	0.14
715.082	0.14
715.4	0.15
715.718	0.15
716.035	0.14
716.353	0.15
716.671	0.15
716.988	0.15
717.306	0.15
717.623	0.15
717.941	0.15
718.258	0.15
718.575	0.15
718.893	0.15
719.21	0.15
719.527	0.15
719.844	0.15
720.161	0.15
720.478	0.15
720.795	0.15
721.112	0.15
721.428	0.15
721.745	0.15
722.062	0.15
722.378	0.16
722.695	0.16
723.011	0.15
723.328	0.15
723.644	0.16
723.96	0.15
724.276	0.16
724.593	0.16
724.909	0.16
725.225	0.16
725.541	0.16
725.857	0.16
726.173	0.16
726.488	0.16
726.804	0.16
727.12	0.16
727.435	0.16
727.751	0.16
728.067	0.16
728.382	0.16
728.697	0.16
729.013	0.16
729.328	0.16
729.643	0.15
729.958	0.15
730.273	0.15
730.588	0.15
730.903	0.15
731.218	0.15
731.533	0.15
731.848	0.15
732.163	0.15
732.477	0.15
732.792	0.15
733.107	0.14
733.421	0.15
733.736	0.15
734.05	0.15
734.364	0.15
734.678	0.15
734.993	0.14
735.307	0.15
735.621	0.14
735.935	0.14
736.249	0.14
736.563	0.15
736.877	0.14
737.19	0.14
737.504	0.14
737.818	0.14
738.131	0.14
738.445	0.14
738.758	0.15
739.072	0.14
739.385	0.14
739.698	0.14
740.012	0.14
740.325	0.14
740.638	0.14
740.951	0.14
741.264	0.13
741.577	0.14
741.89	0.13
742.203	0.13
742.515	0.13
742.828	0.13
743.141	0.13
743.453	0.13
743.766	0.13
744.078	0.13
744.391	0.13
744.703	0.12
745.015	0.12
745.327	0.13
745.639	0.12
745.952	0.13
746.264	0.12
746.575	0.12
746.887	0.12
747.199	0.12
747.511	0.12
747.823	0.12
748.134	0.11
748.446	0.12
748.757	0.12
749.069	0.11
749.38	0.12
749.692	0.11
750.003	0.11
750.314	0.11
750.625	0.11
750.936	0.11
751.248	0.1
751.559	0.11
751.869	0.1
752.18	0.11
752.491	0.1
752.802	0.1
753.112	0.1
753.423	0.1
753.734	0.1
754.044	0.1
754.355	0.1
754.665	0.1
754.975	0.1
755.285	0.09
755.596	0.1
755.906	0.1
756.216	0.1
756.526	0.09
756.836	0.09
757.146	0.09
757.455	0.09
757.765	0.09
758.075	0.09
758.385	0.09
758.694	0.09
759.004	0.08
759.313	0.08
759.622	0.09
759.932	0.09
760.241	0.09
760.55	0.09
760.859	0.08
761.168	0.09
761.477	0.08
761.786	0.08
762.095	0.08
762.404	0.08
762.713	0.08
763.021	0.08
763.33	0.08
763.639	0.08
763.947	0.08
764.256	0.08
764.564	0.08
764.872	0.08
765.181	0.08
765.489	0.08
765.797	0.08
766.105	0.08
766.413	0.08
766.721	0.09
767.029	0.08
767.337	0.08
767.644	0.08
767.952	0.08
768.26	0.08
768.567	0.08
768.875	0.08
769.182	0.08
769.49	0.08
769.797	0.08
770.104	0.08
770.411	0.08
770.718	0.08
771.026	0.08
771.333	0.08
771.639	0.08
771.946	0.08
772.253	0.08
772.56	0.09
772.867	0.08
773.173	0.08
773.48	0.08
773.786	0.08
774.093	0.08
774.399	0.08
774.705	0.08
775.012	0.08
775.318	0.08
775.624	0.08
775.93	0.08
776.236	0.08
776.542	0.08
776.848	0.08
777.154	0.08
777.459	0.08
777.765	0.08
778.071	0.09
778.376	0.09
778.682	0.09
778.987	0.09
779.292	0.09
779.598	0.08
779.903	0.09
780.208	0.09
780.513	0.09
780.818	0.09
781.123	0.09
781.428	0.09
781.733	0.09
782.038	0.09
782.343	0.09
782.647	0.09
782.952	0.09
783.256	0.09
783.561	0.09
783.865	0.09
784.17	0.09
784.474	0.09
784.778	0.09
785.082	0.1
785.386	0.09
785.69	0.09
785.994	0.1
786.298	0.1
786.602	0.1
786.906	0.1
787.209	0.09
787.513	0.09
787.817	0.09
788.12	0.1
788.424	0.09
788.727	0.09
789.03	0.09
789.333	0.1
789.637	0.1
789.94	0.1
790.243	0.09
790.546	0.1
790.849	0.09
791.152	0.1
791.454	0.1
791.757	0.1
792.06	0.1
792.362	0.1
792.665	0.1
792.967	0.1
793.27	0.1
793.572	0.1
793.874	0.1
794.177	0.1
794.479	0.1
794.781	0.1
795.083	0.1
795.385	0.1
795.687	0.11
795.989	0.1
796.29	0.11
796.592	0.11
796.894	0.11
797.195	0.11
797.497	0.11
797.798	0.11
798.1	0.11
798.401	0.11
798.702	0.11
799.003	0.11
799.304	0.11
799.605	0.11
799.906	0.11
800.207	0.11
800.508	0.11
800.809	0.11
801.11	0.11
801.41	0.11
801.711	0.12
802.011	0.12
802.312	0.12
802.612	0.12
802.913	0.12
803.213	0.12
803.513	0.12
803.813	0.12
804.113	0.11
804.413	0.12
804.713	0.12
805.013	0.12
805.313	0.12
805.613	0.12
805.912	0.12
806.212	0.13
806.511	0.12
806.811	0.12
807.11	0.12
807.41	0.13
807.709	0.13
808.008	0.12
808.307	0.12
808.606	0.13
808.905	0.13
809.204	0.13
809.503	0.13
809.802	0.13
810.101	0.13
810.399	0.13
810.698	0.13
810.997	0.13
811.295	0.13
811.593	0.13
811.892	0.13
812.19	0.13
812.488	0.13
812.786	0.13
813.084	0.14
813.383	0.14
813.68	0.14
813.978	0.14
814.276	0.14
814.574	0.14
814.872	0.14
815.169	0.14
815.467	0.14
815.764	0.14
816.062	0.14
816.359	0.14
816.656	0.14
816.954	0.14
817.251	0.14
817.548	0.15
817.845	0.14
818.142	0.15
818.439	0.14
818.735	0.15
819.032	0.15
819.329	0.14
819.626	0.15
819.922	0.15
820.219	0.15
820.515	0.15
820.811	0.15
821.108	0.15
821.404	0.15
821.7	0.15
821.996	0.15
822.292	0.15
822.588	0.15
822.884	0.15
823.18	0.15
823.475	0.15
823.771	0.16
824.067	0.15
824.362	0.16
824.658	0.16
824.953	0.16
825.249	0.16
825.544	0.16
825.839	0.16
826.134	0.17
826.429	0.16
826.724	0.16
827.019	0.16
827.314	0.16
827.609	0.16
827.904	0.17
828.198	0.17
828.493	0.17
828.787	0.16
829.082	0.16
829.376	0.16
829.671	0.16
829.965	0.17
830.259	0.17
830.553	0.17
830.847	0.17
831.141	0.17
831.435	0.18
831.729	0.17
832.023	0.18
832.317	0.18
832.61	0.17
832.904	0.17
833.197	0.17
833.491	0.18
833.784	0.18
834.077	0.18
834.371	0.17
834.664	0.18
834.957	0.18
835.25	0.19
835.543	0.17
835.836	0.18
836.129	0.18
836.421	0.18
836.714	0.19
837.007	0.18
837.299	0.18
837.592	0.2
837.884	0.19
838.177	0.19
838.469	0.19
838.761	0.19
839.053	0.19
839.345	0.19
839.637	0.19
839.929	0.19
840.221	0.18
840.513	0.19
840.805	0.2
841.096	0.19
841.388	0.2
841.68	0.19
841.971	0.19
842.262	0.19
842.554	0.2
842.845	0.19
843.136	0.2
843.427	0.2
843.718	0.19
844.009	0.19
844.3	0.2
844.591	0.2
844.882	0.21
845.173	0.2
845.463	0.21
845.754	0.2
846.044	0.21
846.335	0.21
846.625	0.21
846.915	0.2
847.206	0.2
847.496	0.21
847.786	0.21
848.076	0.22
848.366	0.21
848.656	0.22
848.945	0.22
849.235	0.2
849.525	0.2
849.814	0.21
850.104	0.2
850.393	0.21
850.683	0.22
850.972	0.22
851.261	0.2
851.551	0.22
851.84	0.23
852.129	0.21
852.418	0.2
852.707	0.22
852.995	0.21
853.284	0.22
853.573	0.21
853.862	0.21
854.15	0.23
854.439	0.23
854.727	0.23
855.015	0.23
855.304	0.22
855.592	0.22
855.88	0.23
856.168	0.22
856.456	0.23
856.744	0.23
857.032	0.22
857.32	0.24
857.607	0.24
857.895	0.22
858.183	0.23
858.47	0.23
858.757	0.23
859.045	0.24
859.332	0.21
859.619	0.23
859.907	0.24
860.194	0.24
860.481	0.24
860.768	0.21
861.054	0.24
861.341	0.24
861.628	0.22
861.915	0.25
862.201	0.23
862.488	0.24
862.774	0.21
863.061	0.24
863.347	0.24
863.633	0.24
863.919	0.21
864.205	0.24
864.491	0.2
864.777	0.21
865.063	0.25
865.349	0.25
865.635	0.22
865.92	0.25
866.206	0.24
866.492	0.19
866.777	0.21
867.062	0.22
867.348	0.22
867.633	0.25
867.918	0.22
868.203	0.27
868.488	0.27
868.773	0.24
869.058	0.25
869.343	0.27
869.628	0.2
869.912	0.22
870.197	0.28
870.482	0.26
870.766	0.22
871.05	0.23
871.335	0.21
871.619	0.21
871.903	0.18
872.187	0.27
872.471	0.27
872.755	0.25
873.039	0.23
873.323	0.19
873.607	0.21
873.89	0.21
874.174	0.26
874.458	0.15
874.741	0.17
875.024	0.25
875.308	0.2
875.591	0.2
875.874	0.27
876.157	0.22
876.44	0.15
876.723	0.33
877.006	0.26
877.289	0.25
877.572	0.33
877.854	0.2
878.137	0.2
878.42	0.14
878.702	0.2
878.984	0.15
879.267	0.18
879.549	0.27
879.831	0.19
880.113	0.1
880.395	0.2
880.677	0.19
880.959	0.14
