Data from Rubpy_BV_1800_EDTA_Buffered_Absorbance_16-46-06-629.txt Node
Date: Wed Jul 01 16:46:06 BST 2026
User: fpm-admin
Spectrometer: OFX00224
Trigger mode: 0
Integration Time (sec): 7.000000E-2
Scans to average: 3
Nonlinearity correction enabled: false
Boxcar width: 0
Storing dark spectrum: false
XAxis mode: Wavelengths
Number of Pixels in Spectrum: 2136
>>>>>Begin Spectral Data<<<<<
154.91	-0
155.289	-0.53
155.669	0.62
156.048	-0
156.428	-0
156.807	0.1
157.186	-1.11
157.566	-0
157.945	-0
158.325	-0.06
158.704	-0.25
159.083	-0.09
159.462	-0
159.842	-0
160.221	-0
160.6	-0
160.979	0.19
161.359	-0
161.738	0.85
162.117	-0
162.496	-0.16
162.875	-0.03
163.254	1.31
163.633	0.45
164.012	0.23
164.391	-0.02
164.77	0.39
165.149	-1.07
165.528	-0
165.907	-0.04
166.286	0.73
166.665	-0.17
167.044	0.2
167.423	0.35
167.802	0.35
168.181	-1.4
168.559	-0.53
168.938	0.55
169.317	-0
169.696	-1.4
170.074	0.22
170.453	-0
170.832	-0
171.21	-0
171.589	-0
171.968	-0
172.346	-0
172.725	-0
173.103	0.7
173.482	-0
173.861	-0
174.239	0.05
174.617	-0
174.996	0.37
175.374	-0
175.753	-0.12
176.131	-0.06
176.51	-0.36
176.888	0.56
177.266	-0
177.645	-0
178.023	0.56
178.401	-0.16
178.779	-0.16
179.158	0.54
179.536	-0.14
179.914	-0
180.292	0.28
180.67	0.73
181.048	0.85
181.427	-0.35
181.805	-0
182.183	-0
182.561	0.35
182.939	-0.34
183.317	-0.36
183.695	0.15
184.073	-0
184.451	-0.48
184.829	-0.52
185.206	-0.4
185.584	-0
185.962	-0.17
186.34	0.02
186.718	0.1
187.096	-0
187.473	0.7
187.851	0.13
188.229	-0.16
188.607	0.19
188.984	0.16
189.362	0.13
189.74	0.22
190.117	0.07
190.495	0.21
190.872	0.17
191.25	0.19
191.627	0.06
192.005	0.18
192.382	0.33
192.76	0.16
193.137	0.23
193.515	0.32
193.892	0.17
194.269	0.27
194.647	0.12
195.024	0.18
195.401	0.37
195.779	0.18
196.156	0.29
196.533	0.36
196.91	0.27
197.288	0.13
197.665	0.07
198.042	0.19
198.419	0.33
198.796	0.07
199.173	0.35
199.55	0.21
199.927	0.19
200.304	0.16
200.681	0.21
201.058	0.18
201.435	0.4
201.812	0.18
202.189	0.31
202.566	0.14
202.943	0.21
203.32	0.25
203.697	0.29
204.073	0.17
204.45	0.17
204.827	0.1
205.204	0.21
205.58	0.25
205.957	0.16
206.334	0.29
206.71	0.18
207.087	0.26
207.464	0.21
207.84	0.23
208.217	0.26
208.593	0.09
208.97	0.26
209.346	0.28
209.723	0.16
210.099	0.29
210.476	0.33
210.852	0.27
211.228	0.28
211.605	0.25
211.981	0.27
212.357	0.36
212.733	0.2
213.11	0.31
213.486	0.23
213.862	0.24
214.238	0.29
214.614	0.27
214.991	0.24
215.367	0.37
215.743	0.32
216.119	0.3
216.495	0.23
216.871	0.22
217.247	0.22
217.623	0.19
217.999	0.21
218.375	0.24
218.751	0.16
219.127	0.41
219.502	0.26
219.878	0.17
220.254	0.28
220.63	0.27
221.006	0.24
221.381	0.3
221.757	0.19
222.133	0.24
222.508	0.29
222.884	0.15
223.26	0.2
223.635	0.22
224.011	0.36
224.386	0.23
224.762	0.48
225.137	0.26
225.513	0.36
225.888	0.21
226.264	0.11
226.639	0.17
227.014	0.35
227.39	0.2
227.765	0.28
228.14	0.4
228.516	0.3
228.891	0.31
229.266	0.21
229.641	0.22
230.017	0.25
230.392	0.24
230.767	0.3
231.142	0.3
231.517	0.3
231.892	0.19
232.267	0.34
232.642	0.35
233.017	0.17
233.392	0.32
233.767	0.24
234.142	0.17
234.517	0.13
234.892	0.31
235.267	0.14
235.641	0.39
236.016	0.19
236.391	0.16
236.766	0.11
237.14	0.31
237.515	0.22
237.89	0.23
238.264	0.33
238.639	0.2
239.014	0.33
239.388	0.29
239.763	0.29
240.137	0.16
240.512	0.28
240.886	0.25
241.261	0.16
241.635	0.27
242.009	0.28
242.384	0.25
242.758	0.23
243.132	0.26
243.507	0.15
243.881	0.27
244.255	0.2
244.629	0.11
245.004	0.22
245.378	0.39
245.752	0.27
246.126	0.1
246.5	0.39
246.874	0.19
247.248	0.21
247.622	0.26
247.996	0.3
248.37	0.19
248.744	0.16
249.118	0.08
249.492	0.27
249.866	0.31
250.24	0.33
250.613	0.28
250.987	0.31
251.361	0.35
251.735	0.26
252.108	0.23
252.482	0.2
252.856	0.19
253.229	0.3
253.603	0.2
253.977	0.33
254.35	0.33
254.724	0.3
255.097	0.22
255.471	0.16
255.844	0.17
256.218	0.31
256.591	0.27
256.964	0.24
257.338	0.24
257.711	0.3
258.084	0.38
258.458	0.26
258.831	0.27
259.204	0.3
259.577	0.17
259.95	0.23
260.323	0.17
260.697	0.1
261.07	0.15
261.443	0.23
261.816	0.24
262.189	0.28
262.562	0.26
262.935	0.35
263.308	0.21
263.68	0.3
264.053	0.33
264.426	0.22
264.799	0.26
265.172	0.31
265.545	0.27
265.917	0.37
266.29	0.27
266.663	0.28
267.035	0.2
267.408	0.4
267.781	0.25
268.153	0.22
268.526	0.17
268.898	0.32
269.271	0.31
269.643	0.25
270.016	0.27
270.388	0.27
270.76	0.25
271.133	0.25
271.505	0.25
271.877	0.2
272.25	0.22
272.622	0.37
272.994	0.22
273.366	0.32
273.739	0.37
274.111	0.29
274.483	0.22
274.855	0.3
275.227	0.27
275.599	0.35
275.971	0.26
276.343	0.32
276.715	0.28
277.087	0.29
277.459	0.32
277.831	0.26
278.203	0.3
278.574	0.31
278.946	0.21
279.318	0.22
279.69	0.25
280.061	0.24
280.433	0.24
280.805	0.23
281.176	0.33
281.548	0.2
281.92	0.26
282.291	0.25
282.663	0.32
283.034	0.17
283.406	0.25
283.777	0.23
284.148	0.25
284.52	0.23
284.891	0.33
285.262	0.29
285.634	0.36
286.005	0.23
286.376	0.24
286.747	0.24
287.119	0.26
287.49	0.34
287.861	0.31
288.232	0.27
288.603	0.26
288.974	0.22
289.345	0.22
289.716	0.2
290.087	0.23
290.458	0.27
290.829	0.32
291.2	0.26
291.571	0.35
291.941	0.24
292.312	0.28
292.683	0.29
293.054	0.25
293.424	0.2
293.795	0.29
294.166	0.25
294.536	0.28
294.907	0.26
295.277	0.3
295.648	0.32
296.018	0.37
296.389	0.17
296.759	0.18
297.13	0.28
297.5	0.27
297.871	0.18
298.241	0.29
298.611	0.27
298.981	0.2
299.352	0.29
299.722	0.28
300.092	0.29
300.462	0.28
300.832	0.3
301.202	0.23
301.573	0.29
301.943	0.28
302.313	0.22
302.683	0.29
303.053	0.29
303.422	0.21
303.792	0.19
304.162	0.28
304.532	0.32
304.902	0.23
305.272	0.23
305.641	0.3
306.011	0.2
306.381	0.23
306.75	0.27
307.12	0.25
307.49	0.22
307.859	0.24
308.229	0.18
308.598	0.22
308.968	0.21
309.337	0.19
309.707	0.22
310.076	0.2
310.445	0.18
310.815	0.22
311.184	0.21
311.553	0.22
311.923	0.19
312.292	0.2
312.661	0.19
313.03	0.21
313.399	0.2
313.768	0.21
314.137	0.19
314.506	0.2
314.875	0.23
315.244	0.18
315.613	0.2
315.982	0.23
316.351	0.23
316.72	0.21
317.089	0.2
317.458	0.2
317.826	0.21
318.195	0.23
318.564	0.23
318.933	0.23
319.301	0.22
319.67	0.22
320.038	0.24
320.407	0.25
320.775	0.24
321.144	0.24
321.512	0.25
321.881	0.25
322.249	0.25
322.618	0.27
322.986	0.25
323.354	0.26
323.723	0.27
324.091	0.28
324.459	0.29
324.827	0.29
325.195	0.29
325.564	0.3
325.932	0.3
326.3	0.29
326.668	0.3
327.036	0.3
327.404	0.31
327.772	0.31
328.14	0.31
328.508	0.31
328.875	0.31
329.243	0.33
329.611	0.33
329.979	0.32
330.346	0.34
330.714	0.35
331.082	0.35
331.449	0.35
331.817	0.35
332.185	0.37
332.552	0.37
332.92	0.38
333.287	0.38
333.655	0.39
334.022	0.4
334.389	0.41
334.757	0.43
335.124	0.42
335.491	0.43
335.859	0.45
336.226	0.45
336.593	0.46
336.96	0.46
337.327	0.46
337.695	0.48
338.062	0.5
338.429	0.5
338.796	0.51
339.163	0.52
339.53	0.52
339.897	0.53
340.263	0.54
340.63	0.56
340.997	0.57
341.364	0.58
341.731	0.59
342.097	0.58
342.464	0.61
342.831	0.62
343.197	0.62
343.564	0.63
343.931	0.64
344.297	0.64
344.664	0.66
345.03	0.67
345.396	0.68
345.763	0.69
346.129	0.7
346.496	0.72
346.862	0.72
347.228	0.73
347.594	0.74
347.961	0.75
348.327	0.76
348.693	0.76
349.059	0.78
349.425	0.79
349.791	0.81
350.157	0.81
350.523	0.82
350.889	0.83
351.255	0.84
351.621	0.85
351.987	0.85
352.353	0.85
352.719	0.86
353.084	0.89
353.45	0.89
353.816	0.9
354.181	0.91
354.547	0.92
354.913	0.94
355.278	0.94
355.644	0.95
356.009	0.98
356.375	0.98
356.74	0.99
357.106	1
357.471	1.02
357.836	1.03
358.202	1.05
358.567	1.05
358.932	1.07
359.297	1.09
359.663	1.09
360.028	1.11
360.393	1.13
360.758	1.15
361.123	1.15
361.488	1.18
361.853	1.19
362.218	1.21
362.583	1.22
362.948	1.23
363.312	1.24
363.677	1.26
364.042	1.27
364.407	1.28
364.772	1.3
365.136	1.29
365.501	1.31
365.865	1.33
366.23	1.32
366.595	1.34
366.959	1.38
367.324	1.37
367.688	1.38
368.052	1.39
368.417	1.39
368.781	1.4
369.145	1.43
369.51	1.44
369.874	1.44
370.238	1.43
370.602	1.43
370.967	1.47
371.331	1.44
371.695	1.47
372.059	1.46
372.423	1.48
372.787	1.48
373.151	1.45
373.515	1.45
373.878	1.47
374.242	1.46
374.606	1.44
374.97	1.44
375.334	1.44
375.697	1.4
376.061	1.39
376.425	1.4
376.788	1.39
377.152	1.37
377.515	1.35
377.879	1.34
378.242	1.31
378.606	1.31
378.969	1.3
379.333	1.28
379.696	1.26
380.059	1.26
380.422	1.24
380.786	1.21
381.149	1.22
381.512	1.2
381.875	1.19
382.238	1.17
382.601	1.16
382.964	1.15
383.327	1.14
383.69	1.13
384.053	1.1
384.416	1.09
384.779	1.09
385.142	1.09
385.504	1.08
385.867	1.07
386.23	1.06
386.593	1.05
386.955	1.06
387.318	1.06
387.68	1.05
388.043	1.05
388.405	1.04
388.768	1.03
389.13	1.05
389.493	1.03
389.855	1.03
390.217	1.02
390.58	1.01
390.942	1
391.304	0.99
391.666	0.97
392.028	0.96
392.391	0.95
392.753	0.95
393.115	0.93
393.477	0.91
393.839	0.91
394.201	0.9
394.563	0.89
394.924	0.89
395.286	0.89
395.648	0.9
396.01	0.9
396.371	0.91
396.733	0.93
397.095	0.93
397.456	0.95
397.818	0.98
398.18	0.99
398.541	1.02
398.903	1.05
399.264	1.06
399.625	1.08
399.987	1.11
400.348	1.12
400.709	1.15
401.071	1.14
401.432	1.14
401.793	1.15
402.154	1.14
402.515	1.12
402.876	1.11
403.238	1.08
403.599	1.06
403.96	1.02
404.32	0.99
404.681	0.96
405.042	0.92
405.403	0.88
405.764	0.83
406.125	0.8
406.485	0.76
406.846	0.72
407.207	0.68
407.567	0.64
407.928	0.62
408.288	0.57
408.649	0.54
409.009	0.52
409.37	0.48
409.73	0.47
410.091	0.43
410.451	0.41
410.811	0.39
411.171	0.37
411.532	0.35
411.892	0.33
412.252	0.32
412.612	0.31
412.972	0.29
413.332	0.28
413.692	0.27
414.052	0.26
414.412	0.25
414.772	0.24
415.132	0.24
415.492	0.22
415.851	0.21
416.211	0.21
416.571	0.21
416.931	0.2
417.29	0.19
417.65	0.18
418.009	0.18
418.369	0.18
418.728	0.18
419.088	0.17
419.447	0.17
419.807	0.17
420.166	0.16
420.525	0.15
420.884	0.16
421.244	0.15
421.603	0.15
421.962	0.14
422.321	0.14
422.68	0.14
423.039	0.13
423.398	0.14
423.757	0.13
424.116	0.13
424.475	0.13
424.834	0.13
425.193	0.13
425.551	0.13
425.91	0.13
426.269	0.12
426.628	0.12
426.986	0.12
427.345	0.12
427.703	0.12
428.062	0.12
428.42	0.12
428.779	0.12
429.137	0.13
429.496	0.11
429.854	0.12
430.212	0.12
430.57	0.12
430.929	0.11
431.287	0.11
431.645	0.1
432.003	0.11
432.361	0.11
432.719	0.11
433.077	0.11
433.435	0.11
433.793	0.11
434.151	0.11
434.509	0.11
434.866	0.11
435.224	0.11
435.582	0.11
435.94	0.11
436.297	0.1
436.655	0.11
437.012	0.1
437.37	0.11
437.727	0.11
438.085	0.1
438.442	0.11
438.8	0.11
439.157	0.11
439.514	0.11
439.872	0.09
440.229	0.1
440.586	0.1
440.943	0.11
441.3	0.11
441.657	0.11
442.014	0.11
442.371	0.1
442.728	0.1
443.085	0.11
443.442	0.1
443.799	0.1
444.156	0.11
444.513	0.11
444.869	0.09
445.226	0.11
445.583	0.11
445.939	0.11
446.296	0.09
446.652	0.11
447.009	0.1
447.365	0.11
447.722	0.11
448.078	0.1
448.434	0.11
448.791	0.11
449.147	0.1
449.503	0.1
449.859	0.1
450.215	0.1
450.571	0.11
450.928	0.11
451.284	0.11
451.64	0.11
451.995	0.1
452.351	0.11
452.707	0.1
453.063	0.1
453.419	0.1
453.775	0.09
454.13	0.1
454.486	0.1
454.842	0.1
455.197	0.09
455.553	0.09
455.908	0.09
456.264	0.09
456.619	0.08
456.975	0.08
457.33	0.09
457.685	0.08
458.04	0.08
458.396	0.07
458.751	0.07
459.106	0.07
459.461	0.06
459.816	0.06
460.171	0.06
460.526	0.06
460.881	0.05
461.236	0.05
461.591	0.05
461.946	0.04
462.301	0.05
462.655	0.05
463.01	0.04
463.365	0.03
463.719	0.03
464.074	0.02
464.428	0.02
464.783	0.01
465.137	0.01
465.492	0.01
465.846	0.02
466.201	0.02
466.555	0.02
466.909	0.02
467.263	0.03
467.618	0.03
467.972	0.03
468.326	0.02
468.68	0.03
469.034	0.02
469.388	0.01
469.742	0.02
470.096	0.02
470.45	0.02
470.804	0.03
471.157	0.02
471.511	0.03
471.865	0.03
472.218	0.03
472.572	0.04
472.926	0.05
473.279	0.06
473.633	0.06
473.986	0.06
474.34	0.07
474.693	0.08
475.046	0.09
475.4	0.1
475.753	0.11
476.106	0.11
476.459	0.12
476.812	0.13
477.165	0.14
477.519	0.14
477.872	0.15
478.224	0.16
478.577	0.16
478.93	0.17
479.283	0.18
479.636	0.18
479.989	0.18
480.341	0.19
480.694	0.2
481.047	0.21
481.399	0.21
481.752	0.21
482.104	0.22
482.457	0.23
482.809	0.24
483.162	0.23
483.514	0.24
483.866	0.25
484.219	0.24
484.571	0.26
484.923	0.26
485.275	0.26
485.627	0.26
485.979	0.27
486.331	0.27
486.683	0.28
487.035	0.28
487.387	0.29
487.739	0.3
488.091	0.3
488.443	0.3
488.794	0.3
489.146	0.3
489.498	0.31
489.849	0.32
490.201	0.32
490.552	0.32
490.904	0.32
491.255	0.32
491.607	0.33
491.958	0.34
492.309	0.34
492.661	0.34
493.012	0.34
493.363	0.35
493.714	0.35
494.065	0.36
494.416	0.36
494.767	0.36
495.118	0.36
495.469	0.37
495.82	0.37
496.171	0.38
496.522	0.38
496.872	0.38
497.223	0.38
497.574	0.38
497.924	0.39
498.275	0.4
498.626	0.39
498.976	0.4
499.327	0.41
499.677	0.41
500.027	0.41
500.378	0.41
500.728	0.42
501.078	0.42
501.428	0.42
501.779	0.43
502.129	0.43
502.479	0.43
502.829	0.44
503.179	0.44
503.529	0.44
503.879	0.45
504.229	0.45
504.578	0.46
504.928	0.45
505.278	0.46
505.628	0.46
505.977	0.47
506.327	0.47
506.676	0.47
507.026	0.48
507.375	0.48
507.725	0.48
508.074	0.48
508.424	0.48
508.773	0.49
509.122	0.49
509.471	0.49
509.82	0.49
510.17	0.5
510.519	0.5
510.868	0.5
511.217	0.5
511.566	0.51
511.915	0.52
512.263	0.52
512.612	0.52
512.961	0.52
513.31	0.52
513.659	0.52
514.007	0.53
514.356	0.54
514.704	0.54
515.053	0.54
515.401	0.54
515.75	0.54
516.098	0.54
516.447	0.55
516.795	0.55
517.143	0.55
517.491	0.55
517.839	0.55
518.188	0.56
518.536	0.57
518.884	0.56
519.232	0.57
519.58	0.57
519.928	0.57
520.275	0.57
520.623	0.57
520.971	0.58
521.319	0.58
521.666	0.58
522.014	0.58
522.362	0.58
522.709	0.59
523.057	0.59
523.404	0.59
523.752	0.59
524.099	0.59
524.446	0.6
524.794	0.6
525.141	0.6
525.488	0.61
525.835	0.61
526.182	0.61
526.529	0.61
526.876	0.61
527.223	0.62
527.57	0.61
527.917	0.62
528.264	0.62
528.611	0.62
528.958	0.62
529.304	0.62
529.651	0.63
529.998	0.63
530.344	0.62
530.691	0.63
531.037	0.64
531.384	0.63
531.73	0.64
532.076	0.64
532.423	0.64
532.769	0.64
533.115	0.64
533.461	0.64
533.807	0.64
534.154	0.65
534.5	0.65
534.846	0.65
535.192	0.64
535.537	0.65
535.883	0.65
536.229	0.66
536.575	0.66
536.921	0.66
537.266	0.66
537.612	0.66
537.957	0.66
538.303	0.66
538.649	0.66
538.994	0.67
539.339	0.66
539.685	0.67
540.03	0.67
540.375	0.67
540.721	0.67
541.066	0.67
541.411	0.66
541.756	0.67
542.101	0.67
542.446	0.67
542.791	0.68
543.136	0.68
543.481	0.68
543.825	0.67
544.17	0.68
544.515	0.68
544.86	0.68
545.204	0.68
545.549	0.68
545.893	0.68
546.238	0.68
546.582	0.68
546.927	0.69
547.271	0.69
547.615	0.69
547.96	0.69
548.304	0.69
548.648	0.69
548.992	0.69
549.336	0.68
549.68	0.68
550.024	0.69
550.368	0.69
550.712	0.69
551.056	0.69
551.4	0.69
551.743	0.69
552.087	0.69
552.431	0.69
552.774	0.69
553.118	0.69
553.462	0.69
553.805	0.69
554.148	0.69
554.492	0.69
554.835	0.69
555.178	0.69
555.522	0.69
555.865	0.69
556.208	0.69
556.551	0.69
556.894	0.69
557.237	0.69
557.58	0.69
557.923	0.69
558.266	0.69
558.609	0.68
558.952	0.68
559.294	0.69
559.637	0.69
559.98	0.68
560.322	0.69
560.665	0.69
561.007	0.68
561.35	0.68
561.692	0.68
562.034	0.68
562.377	0.68
562.719	0.68
563.061	0.68
563.403	0.68
563.745	0.68
564.088	0.68
564.43	0.68
564.772	0.68
565.113	0.68
565.455	0.68
565.797	0.67
566.139	0.67
566.481	0.67
566.822	0.67
567.164	0.68
567.506	0.67
567.847	0.67
568.189	0.66
568.53	0.67
568.872	0.67
569.213	0.66
569.554	0.66
569.895	0.67
570.237	0.66
570.578	0.66
570.919	0.66
571.26	0.66
571.601	0.66
571.942	0.65
572.283	0.65
572.624	0.65
572.965	0.65
573.306	0.65
573.646	0.65
573.987	0.65
574.328	0.65
574.668	0.64
575.009	0.64
575.349	0.64
575.69	0.64
576.03	0.64
576.37	0.63
576.711	0.63
577.051	0.63
577.391	0.63
577.731	0.64
578.072	0.63
578.412	0.63
578.752	0.63
579.092	0.62
579.431	0.62
579.771	0.6
580.111	0.6
580.451	0.62
580.791	0.62
581.13	0.62
581.47	0.62
581.81	0.62
582.149	0.61
582.489	0.62
582.828	0.6
583.167	0.58
583.507	0.55
583.846	0.55
584.185	0.59
584.525	0.6
584.864	0.61
585.203	0.61
585.542	0.62
585.881	0.61
586.22	0.61
586.559	0.6
586.898	0.59
587.236	0.59
587.575	0.59
587.914	0.6
588.252	0.61
588.591	0.6
588.93	0.6
589.268	0.6
589.607	0.6
589.945	0.6
590.283	0.6
590.622	0.6
590.96	0.61
591.298	0.6
591.636	0.6
591.974	0.61
592.313	0.6
592.651	0.61
592.989	0.6
593.326	0.6
593.664	0.6
594.002	0.6
594.34	0.6
594.678	0.6
595.015	0.59
595.353	0.59
595.691	0.6
596.028	0.6
596.366	0.6
596.703	0.6
597.04	0.6
597.378	0.6
597.715	0.6
598.052	0.6
598.389	0.6
598.726	0.6
599.064	0.6
599.401	0.6
599.738	0.6
600.074	0.6
600.411	0.6
600.748	0.59
601.085	0.59
601.422	0.59
601.758	0.59
602.095	0.59
602.432	0.59
602.768	0.59
603.105	0.59
603.441	0.59
603.777	0.59
604.114	0.59
604.45	0.59
604.786	0.59
605.122	0.58
605.459	0.58
605.795	0.58
606.131	0.58
606.467	0.58
606.803	0.59
607.139	0.58
607.474	0.57
607.81	0.58
608.146	0.57
608.482	0.57
608.817	0.57
609.153	0.57
609.488	0.57
609.824	0.57
610.159	0.57
610.495	0.57
610.83	0.57
611.165	0.57
611.5	0.56
611.836	0.56
612.171	0.56
612.506	0.56
612.841	0.56
613.176	0.55
613.511	0.55
613.845	0.55
614.18	0.55
614.515	0.55
614.85	0.55
615.184	0.54
615.519	0.54
615.854	0.54
616.188	0.53
616.523	0.53
616.857	0.53
617.191	0.53
617.526	0.53
617.86	0.53
618.194	0.53
618.528	0.52
618.862	0.52
619.196	0.52
619.53	0.52
619.864	0.52
620.198	0.52
620.532	0.52
620.866	0.52
621.2	0.51
621.533	0.51
621.867	0.51
622.201	0.5
622.534	0.5
622.868	0.5
623.201	0.5
623.534	0.49
623.868	0.49
624.201	0.49
624.534	0.49
624.868	0.49
625.201	0.49
625.534	0.48
625.867	0.48
626.2	0.48
626.533	0.48
626.865	0.48
627.198	0.48
627.531	0.48
627.864	0.47
628.196	0.47
628.529	0.46
628.862	0.46
629.194	0.46
629.527	0.45
629.859	0.45
630.191	0.45
630.524	0.46
630.856	0.45
631.188	0.44
631.52	0.44
631.852	0.44
632.184	0.44
632.516	0.44
632.848	0.43
633.18	0.43
633.512	0.43
633.844	0.42
634.175	0.42
634.507	0.42
634.839	0.42
635.17	0.41
635.502	0.41
635.833	0.41
636.165	0.41
636.496	0.41
636.827	0.4
637.159	0.4
637.49	0.4
637.821	0.4
638.152	0.39
638.483	0.39
638.814	0.38
639.145	0.38
639.476	0.38
639.807	0.38
640.137	0.38
640.468	0.37
640.799	0.37
641.129	0.37
641.46	0.36
641.791	0.36
642.121	0.36
642.451	0.36
642.782	0.36
643.112	0.35
643.442	0.36
643.773	0.35
644.103	0.35
644.433	0.34
644.763	0.34
645.093	0.34
645.423	0.34
645.753	0.34
646.082	0.34
646.412	0.34
646.742	0.34
647.072	0.33
647.401	0.33
647.731	0.33
648.06	0.33
648.39	0.33
648.719	0.32
649.048	0.33
649.378	0.32
649.707	0.32
650.036	0.32
650.365	0.32
650.694	0.31
651.023	0.32
651.352	0.31
651.681	0.32
652.01	0.32
652.339	0.31
652.668	0.31
652.996	0.31
653.325	0.31
653.654	0.31
653.982	0.31
654.311	0.31
654.639	0.3
654.967	0.3
655.296	0.3
655.624	0.3
655.952	0.31
656.28	0.3
656.609	0.3
656.937	0.3
657.265	0.29
657.593	0.15
657.92	0.06
658.248	0.04
658.576	0.11
658.904	0.23
659.231	0.29
659.559	0.29
659.887	0.29
660.214	0.29
660.542	0.29
660.869	0.28
661.196	0.29
661.524	0.29
661.851	0.28
662.178	0.28
662.505	0.28
662.832	0.28
663.159	0.28
663.486	0.27
663.813	0.28
664.14	0.28
664.467	0.28
664.794	0.27
665.12	0.27
665.447	0.27
665.774	0.27
666.1	0.27
666.427	0.27
666.753	0.27
667.079	0.26
667.406	0.26
667.732	0.26
668.058	0.26
668.384	0.26
668.71	0.26
669.036	0.26
669.362	0.25
669.688	0.25
670.014	0.25
670.34	0.25
670.666	0.25
670.991	0.25
671.317	0.24
671.643	0.24
671.968	0.24
672.294	0.24
672.619	0.24
672.945	0.24
673.27	0.23
673.595	0.23
673.92	0.23
674.246	0.23
674.571	0.23
674.896	0.23
675.221	0.22
675.546	0.22
675.87	0.22
676.195	0.22
676.52	0.22
676.845	0.22
677.169	0.21
677.494	0.21
677.819	0.21
678.143	0.21
678.468	0.21
678.792	0.21
679.116	0.2
679.44	0.2
679.765	0.2
680.089	0.19
680.413	0.19
680.737	0.19
681.061	0.19
681.385	0.19
681.709	0.18
682.033	0.18
682.356	0.18
682.68	0.18
683.004	0.18
683.327	0.17
683.651	0.17
683.974	0.17
684.298	0.17
684.621	0.17
684.944	0.17
685.268	0.16
685.591	0.16
685.914	0.16
686.237	0.16
686.56	0.16
686.883	0.15
687.206	0.16
687.529	0.15
687.852	0.15
688.175	0.15
688.497	0.15
688.82	0.15
689.142	0.15
689.465	0.14
689.787	0.14
690.11	0.14
690.432	0.14
690.755	0.14
691.077	0.13
691.399	0.13
691.721	0.13
692.043	0.13
692.365	0.13
692.687	0.13
693.009	0.12
693.331	0.12
693.653	0.12
693.974	0.12
694.296	0.12
694.618	0.12
694.939	0.12
695.261	0.12
695.582	0.12
695.904	0.11
696.225	0.11
696.546	0.11
696.868	0.11
697.189	0.11
697.51	0.11
697.831	0.11
698.152	0.11
698.473	0.11
698.794	0.1
699.114	0.1
699.435	0.1
699.756	0.1
700.077	0.1
700.397	0.1
700.718	0.1
701.038	0.1
701.359	0.1
701.679	0.1
701.999	0.1
702.32	0.1
702.64	0.1
702.96	0.1
703.28	0.1
703.6	0.1
703.92	0.1
704.24	0.09
704.56	0.09
704.879	0.09
705.199	0.09
705.519	0.1
705.838	0.09
706.158	0.09
706.478	0.09
706.797	0.09
707.116	0.09
707.436	0.09
707.755	0.09
708.074	0.09
708.393	0.08
708.712	0.08
709.031	0.08
709.35	0.08
709.669	0.08
709.988	0.08
710.307	0.08
710.626	0.08
710.944	0.08
711.263	0.08
711.582	0.08
711.9	0.08
712.219	0.08
712.537	0.08
712.855	0.08
713.174	0.09
713.492	0.09
713.81	0.09
714.128	0.09
714.446	0.09
714.764	0.08
715.082	0.08
715.4	0.09
715.718	0.08
716.035	0.08
716.353	0.08
716.671	0.08
716.988	0.08
717.306	0.08
717.623	0.08
717.941	0.09
718.258	0.09
718.575	0.09
718.893	0.09
719.21	0.09
719.527	0.09
719.844	0.09
720.161	0.09
720.478	0.09
720.795	0.09
721.112	0.09
721.428	0.09
721.745	0.09
722.062	0.09
722.378	0.09
722.695	0.09
723.011	0.09
723.328	0.09
723.644	0.09
723.96	0.09
724.276	0.09
724.593	0.09
724.909	0.09
725.225	0.09
725.541	0.09
725.857	0.09
726.173	0.09
726.488	0.09
726.804	0.09
727.12	0.09
727.435	0.09
727.751	0.09
728.067	0.09
728.382	0.09
728.697	0.09
729.013	0.09
729.328	0.09
729.643	0.09
729.958	0.09
730.273	0.09
730.588	0.09
730.903	0.09
731.218	0.09
731.533	0.09
731.848	0.09
732.163	0.08
732.477	0.09
732.792	0.09
733.107	0.08
733.421	0.09
733.736	0.08
734.05	0.09
734.364	0.08
734.678	0.08
734.993	0.08
735.307	0.08
735.621	0.08
735.935	0.08
736.249	0.08
736.563	0.09
736.877	0.08
737.19	0.08
737.504	0.09
737.818	0.08
738.131	0.08
738.445	0.09
738.758	0.08
739.072	0.08
739.385	0.08
739.698	0.08
740.012	0.09
740.325	0.08
740.638	0.08
740.951	0.08
741.264	0.07
741.577	0.08
741.89	0.08
742.203	0.08
742.515	0.08
742.828	0.08
743.141	0.08
743.453	0.08
743.766	0.07
744.078	0.07
744.391	0.07
744.703	0.07
745.015	0.07
745.327	0.07
745.639	0.07
745.952	0.07
746.264	0.07
746.575	0.07
746.887	0.07
747.199	0.07
747.511	0.07
747.823	0.07
748.134	0.07
748.446	0.06
748.757	0.06
749.069	0.06
749.38	0.07
749.692	0.06
750.003	0.06
750.314	0.06
750.625	0.06
750.936	0.06
751.248	0.06
751.559	0.06
751.869	0.06
752.18	0.06
752.491	0.06
752.802	0.06
753.112	0.06
753.423	0.06
753.734	0.05
754.044	0.05
754.355	0.05
754.665	0.05
754.975	0.05
755.285	0.05
755.596	0.05
755.906	0.05
756.216	0.05
756.526	0.05
756.836	0.05
757.146	0.05
757.455	0.05
757.765	0.05
758.075	0.05
758.385	0.05
758.694	0.05
759.004	0.04
759.313	0.04
759.622	0.05
759.932	0.05
760.241	0.05
760.55	0.05
760.859	0.04
761.168	0.05
761.477	0.05
761.786	0.04
762.095	0.05
762.404	0.04
762.713	0.04
763.021	0.04
763.33	0.04
763.639	0.04
763.947	0.04
764.256	0.05
764.564	0.04
764.872	0.04
765.181	0.04
765.489	0.04
765.797	0.04
766.105	0.04
766.413	0.04
766.721	0.05
767.029	0.04
767.337	0.04
767.644	0.04
767.952	0.04
768.26	0.04
768.567	0.04
768.875	0.04
769.182	0.04
769.49	0.04
769.797	0.04
770.104	0.04
770.411	0.04
770.718	0.04
771.026	0.04
771.333	0.04
771.639	0.04
771.946	0.04
772.253	0.04
772.56	0.04
772.867	0.04
773.173	0.04
773.48	0.04
773.786	0.04
774.093	0.04
774.399	0.04
774.705	0.04
775.012	0.04
775.318	0.04
775.624	0.04
775.93	0.04
776.236	0.04
776.542	0.04
776.848	0.04
777.154	0.04
777.459	0.04
777.765	0.04
778.071	0.04
778.376	0.04
778.682	0.04
778.987	0.04
779.292	0.04
779.598	0.04
779.903	0.04
780.208	0.04
780.513	0.04
780.818	0.04
781.123	0.04
781.428	0.04
781.733	0.04
782.038	0.04
782.343	0.04
782.647	0.04
782.952	0.05
783.256	0.05
783.561	0.05
783.865	0.05
784.17	0.05
784.474	0.05
784.778	0.05
785.082	0.05
785.386	0.05
785.69	0.04
785.994	0.05
786.298	0.05
786.602	0.05
786.906	0.05
787.209	0.05
787.513	0.05
787.817	0.04
788.12	0.05
788.424	0.05
788.727	0.04
789.03	0.04
789.333	0.05
789.637	0.05
789.94	0.04
790.243	0.04
790.546	0.05
790.849	0.04
791.152	0.05
791.454	0.04
791.757	0.04
792.06	0.04
792.362	0.05
792.665	0.05
792.967	0.04
793.27	0.05
793.572	0.05
793.874	0.05
794.177	0.05
794.479	0.05
794.781	0.05
795.083	0.04
795.385	0.05
795.687	0.05
795.989	0.05
796.29	0.05
796.592	0.05
796.894	0.05
797.195	0.05
797.497	0.05
797.798	0.05
798.1	0.05
798.401	0.05
798.702	0.05
799.003	0.05
799.304	0.05
799.605	0.05
799.906	0.05
800.207	0.05
800.508	0.05
800.809	0.05
801.11	0.05
801.41	0.05
801.711	0.06
802.011	0.05
802.312	0.05
802.612	0.05
802.913	0.05
803.213	0.05
803.513	0.05
803.813	0.05
804.113	0.05
804.413	0.05
804.713	0.06
805.013	0.05
805.313	0.06
805.613	0.06
805.912	0.06
806.212	0.06
806.511	0.06
806.811	0.06
807.11	0.06
807.41	0.06
807.709	0.05
808.008	0.06
808.307	0.05
808.606	0.06
808.905	0.05
809.204	0.05
809.503	0.06
809.802	0.06
810.101	0.06
810.399	0.06
810.698	0.06
810.997	0.06
811.295	0.06
811.593	0.06
811.892	0.06
812.19	0.06
812.488	0.07
812.786	0.06
813.084	0.06
813.383	0.07
813.68	0.07
813.978	0.07
814.276	0.07
814.574	0.06
814.872	0.07
815.169	0.06
815.467	0.07
815.764	0.07
816.062	0.06
816.359	0.06
816.656	0.07
816.954	0.07
817.251	0.07
817.548	0.07
817.845	0.07
818.142	0.07
818.439	0.06
818.735	0.07
819.032	0.07
819.329	0.07
819.626	0.07
819.922	0.07
820.219	0.07
820.515	0.07
820.811	0.07
821.108	0.07
821.404	0.07
821.7	0.07
821.996	0.07
822.292	0.07
822.588	0.07
822.884	0.07
823.18	0.07
823.475	0.07
823.771	0.08
824.067	0.07
824.362	0.07
824.658	0.07
824.953	0.08
825.249	0.07
825.544	0.07
825.839	0.07
826.134	0.07
826.429	0.07
826.724	0.07
827.019	0.07
827.314	0.07
827.609	0.08
827.904	0.07
828.198	0.08
828.493	0.08
828.787	0.07
829.082	0.07
829.376	0.07
829.671	0.08
829.965	0.08
830.259	0.08
830.553	0.08
830.847	0.08
831.141	0.08
831.435	0.09
831.729	0.08
832.023	0.09
832.317	0.09
832.61	0.08
832.904	0.08
833.197	0.08
833.491	0.08
833.784	0.08
834.077	0.09
834.371	0.08
834.664	0.08
834.957	0.07
835.25	0.08
835.543	0.08
835.836	0.09
836.129	0.09
836.421	0.09
836.714	0.08
837.007	0.08
837.299	0.08
837.592	0.09
837.884	0.09
838.177	0.08
838.469	0.1
838.761	0.09
839.053	0.09
839.345	0.1
839.637	0.09
839.929	0.08
840.221	0.09
840.513	0.08
840.805	0.09
841.096	0.09
841.388	0.09
841.68	0.09
841.971	0.08
842.262	0.1
842.554	0.09
842.845	0.09
843.136	0.09
843.427	0.1
843.718	0.09
844.009	0.09
844.3	0.09
844.591	0.09
844.882	0.09
845.173	0.09
845.463	0.1
845.754	0.09
846.044	0.09
846.335	0.08
846.625	0.09
846.915	0.09
847.206	0.09
847.496	0.1
847.786	0.1
848.076	0.1
848.366	0.09
848.656	0.11
848.945	0.1
849.235	0.08
849.525	0.1
849.814	0.09
850.104	0.09
850.393	0.1
850.683	0.11
850.972	0.09
851.261	0.09
851.551	0.09
851.84	0.09
852.129	0.09
852.418	0.1
852.707	0.1
852.995	0.11
853.284	0.1
853.573	0.1
853.862	0.09
854.15	0.1
854.439	0.1
854.727	0.11
855.015	0.11
855.304	0.11
855.592	0.11
855.88	0.1
856.168	0.1
856.456	0.09
856.744	0.1
857.032	0.1
857.32	0.11
857.607	0.13
857.895	0.12
858.183	0.12
858.47	0.11
858.757	0.11
859.045	0.11
859.332	0.09
859.619	0.09
859.907	0.11
860.194	0.12
860.481	0.12
860.768	0.09
861.054	0.13
861.341	0.1
861.628	0.11
861.915	0.11
862.201	0.1
862.488	0.11
862.774	0.09
863.061	0.11
863.347	0.12
863.633	0.1
863.919	0.12
864.205	0.13
864.491	0.11
864.777	0.1
865.063	0.11
865.349	0.11
865.635	0.1
865.92	0.1
866.206	0.1
866.492	0.1
866.777	0.1
867.062	0.1
867.348	0.08
867.633	0.12
867.918	0.14
868.203	0.13
868.488	0.09
868.773	0.11
869.058	0.1
869.343	0.14
869.628	0.12
869.912	0.11
870.197	0.16
870.482	0.12
870.766	0.1
871.05	0.08
871.335	0.11
871.619	0.08
871.903	0.09
872.187	0.12
872.471	0.15
872.755	0.15
873.039	0.09
873.323	0.09
873.607	0.1
873.89	0.11
874.174	0.1
874.458	0.06
874.741	0.13
875.024	0.1
875.308	0.19
875.591	0.02
875.874	0.13
876.157	0.05
876.44	0.14
876.723	0.13
877.006	0.1
877.289	0.08
877.572	0.16
877.854	0.12
878.137	0.08
878.42	0.12
878.702	0.13
878.984	-0.06
879.267	0.02
879.549	0.14
879.831	0.04
880.113	0.05
880.395	0.14
880.677	0.07
880.959	-0
