Data from Rubpy_BV_1800_EDTA_Buffered_Absorbance_16-50-30-733.txt Node
Date: Wed Jul 01 16:50:30 BST 2026
User: fpm-admin
Spectrometer: OFX00224
Trigger mode: 0
Integration Time (sec): 7.000000E-2
Scans to average: 3
Nonlinearity correction enabled: false
Boxcar width: 0
Storing dark spectrum: false
XAxis mode: Wavelengths
Number of Pixels in Spectrum: 2136
>>>>>Begin Spectral Data<<<<<
154.91	0.25
155.289	-0.53
155.669	0.05
156.048	0.35
156.428	-0
156.807	-0.14
157.186	-0
157.566	-0.13
157.945	-0
158.325	-0.23
158.704	-0.01
159.083	-0
159.462	-0
159.842	-0
160.221	-0
160.6	-0
160.979	-0
161.359	0.09
161.738	-0.46
162.117	-0.4
162.496	-0.26
162.875	-0
163.254	-0.06
163.633	-0
164.012	0.05
164.391	-0
164.77	-0.07
165.149	-0
165.528	-0
165.907	-0
166.286	-0
166.665	0.02
167.044	0.98
167.423	0.63
167.802	0.05
168.181	-1.75
168.559	-0.53
168.938	0.49
169.317	-0
169.696	-0.9
170.074	0.3
170.453	-0.56
170.832	-0
171.21	-0.23
171.589	0.95
171.968	0.07
172.346	-0
172.725	-0
173.103	-0.29
173.482	0.24
173.861	-0
174.239	-0
174.617	0.09
174.996	-0
175.374	-0.9
175.753	-0.45
176.131	-0
176.51	-0.6
176.888	0.17
177.266	-0
177.645	0.06
178.023	-0
178.401	-0.12
178.779	-0.04
179.158	0.1
179.536	0.02
179.914	-0.05
180.292	-0.15
180.67	-0.3
181.048	-0
181.427	-0.6
181.805	-0
182.183	-0.94
182.561	0.7
182.939	0.1
183.317	-0.62
183.695	0.13
184.073	-0
184.451	-0.34
184.829	0.18
185.206	-0.19
185.584	-0
185.962	-0.1
186.34	-0.1
186.718	0.13
187.096	-0
187.473	-0.52
187.851	-0.17
188.229	-0.3
188.607	0.15
188.984	0.23
189.362	0.18
189.74	0.48
190.117	0.37
190.495	0.32
190.872	0.27
191.25	0.58
191.627	0.48
192.005	0.31
192.382	0.31
192.76	0.27
193.137	0.29
193.515	0.3
193.892	0.32
194.269	0.25
194.647	0.36
195.024	0.27
195.401	0.32
195.779	0.43
196.156	0.26
196.533	0.29
196.91	0.25
197.288	0.27
197.665	0.11
198.042	0.21
198.419	0.23
198.796	0.24
199.173	0.39
199.55	0.27
199.927	0.28
200.304	0.27
200.681	0.24
201.058	0.12
201.435	0.44
201.812	0.21
202.189	0.29
202.566	0.41
202.943	0.43
203.32	0.34
203.697	0.55
204.073	0.32
204.45	0.28
204.827	0.42
205.204	0.25
205.58	0.24
205.957	0.26
206.334	0.31
206.71	0.2
207.087	0.32
207.464	0.26
207.84	0.64
208.217	0.34
208.593	0.28
208.97	0.43
209.346	0.45
209.723	0.41
210.099	0.27
210.476	0.42
210.852	0.45
211.228	0.33
211.605	0.39
211.981	0.31
212.357	0.37
212.733	0.26
213.11	0.39
213.486	0.37
213.862	0.26
214.238	0.21
214.614	0.43
214.991	0.32
215.367	0.28
215.743	0.4
216.119	0.28
216.495	0.26
216.871	0.29
217.247	0.42
217.623	0.29
217.999	0.26
218.375	0.42
218.751	0.36
219.127	0.39
219.502	0.29
219.878	0.42
220.254	0.36
220.63	0.38
221.006	0.37
221.381	0.42
221.757	0.37
222.133	0.25
222.508	0.39
222.884	0.23
223.26	0.34
223.635	0.24
224.011	0.35
224.386	0.3
224.762	0.45
225.137	0.44
225.513	0.34
225.888	0.33
226.264	0.14
226.639	0.29
227.014	0.42
227.39	0.32
227.765	0.42
228.14	0.36
228.516	0.28
228.891	0.46
229.266	0.31
229.641	0.22
230.017	0.39
230.392	0.39
230.767	0.47
231.142	0.34
231.517	0.34
231.892	0.44
232.267	0.47
232.642	0.37
233.017	0.24
233.392	0.26
233.767	0.41
234.142	0.24
234.517	0.14
234.892	0.27
235.267	0.29
235.641	0.43
236.016	0.27
236.391	0.14
236.766	0.31
237.14	0.24
237.515	0.49
237.89	0.28
238.264	0.43
238.639	0.28
239.014	0.41
239.388	0.4
239.763	0.38
240.137	0.22
240.512	0.31
240.886	0.34
241.261	0.42
241.635	0.35
242.009	0.45
242.384	0.43
242.758	0.36
243.132	0.31
243.507	0.33
243.881	0.32
244.255	0.32
244.629	0.33
245.004	0.43
245.378	0.37
245.752	0.36
246.126	0.31
246.5	0.37
246.874	0.37
247.248	0.31
247.622	0.35
247.996	0.36
248.37	0.41
248.744	0.19
249.118	0.45
249.492	0.4
249.866	0.27
250.24	0.38
250.613	0.4
250.987	0.39
251.361	0.5
251.735	0.41
252.108	0.46
252.482	0.35
252.856	0.2
253.229	0.39
253.603	0.37
253.977	0.35
254.35	0.43
254.724	0.33
255.097	0.34
255.471	0.36
255.844	0.39
256.218	0.3
256.591	0.26
256.964	0.57
257.338	0.31
257.711	0.41
258.084	0.5
258.458	0.35
258.831	0.35
259.204	0.47
259.577	0.37
259.95	0.35
260.323	0.4
260.697	0.27
261.07	0.36
261.443	0.48
261.816	0.45
262.189	0.37
262.562	0.33
262.935	0.45
263.308	0.23
263.68	0.36
264.053	0.38
264.426	0.39
264.799	0.35
265.172	0.35
265.545	0.33
265.917	0.43
266.29	0.35
266.663	0.39
267.035	0.32
267.408	0.3
267.781	0.42
268.153	0.29
268.526	0.41
268.898	0.33
269.271	0.37
269.643	0.3
270.016	0.37
270.388	0.16
270.76	0.32
271.133	0.32
271.505	0.45
271.877	0.39
272.25	0.33
272.622	0.41
272.994	0.39
273.366	0.38
273.739	0.38
274.111	0.33
274.483	0.33
274.855	0.31
275.227	0.44
275.599	0.28
275.971	0.41
276.343	0.36
276.715	0.38
277.087	0.38
277.459	0.43
277.831	0.37
278.203	0.43
278.574	0.35
278.946	0.35
279.318	0.27
279.69	0.32
280.061	0.37
280.433	0.29
280.805	0.29
281.176	0.39
281.548	0.4
281.92	0.35
282.291	0.37
282.663	0.34
283.034	0.31
283.406	0.34
283.777	0.37
284.148	0.37
284.52	0.41
284.891	0.42
285.262	0.47
285.634	0.36
286.005	0.31
286.376	0.35
286.747	0.45
287.119	0.33
287.49	0.51
287.861	0.49
288.232	0.38
288.603	0.46
288.974	0.3
289.345	0.41
289.716	0.41
290.087	0.32
290.458	0.31
290.829	0.38
291.2	0.36
291.571	0.42
291.941	0.35
292.312	0.3
292.683	0.37
293.054	0.4
293.424	0.3
293.795	0.33
294.166	0.41
294.536	0.29
294.907	0.25
295.277	0.39
295.648	0.34
296.018	0.42
296.389	0.26
296.759	0.33
297.13	0.44
297.5	0.46
297.871	0.4
298.241	0.47
298.611	0.43
298.981	0.35
299.352	0.41
299.722	0.33
300.092	0.33
300.462	0.36
300.832	0.34
301.202	0.41
301.573	0.38
301.943	0.34
302.313	0.32
302.683	0.32
303.053	0.34
303.422	0.28
303.792	0.37
304.162	0.34
304.532	0.37
304.902	0.33
305.272	0.31
305.641	0.34
306.011	0.29
306.381	0.29
306.75	0.37
307.12	0.24
307.49	0.32
307.859	0.31
308.229	0.33
308.598	0.29
308.968	0.25
309.337	0.27
309.707	0.27
310.076	0.25
310.445	0.27
310.815	0.27
311.184	0.29
311.553	0.25
311.923	0.25
312.292	0.24
312.661	0.27
313.03	0.27
313.399	0.27
313.768	0.3
314.137	0.28
314.506	0.28
314.875	0.31
315.244	0.25
315.613	0.27
315.982	0.3
316.351	0.29
316.72	0.28
317.089	0.3
317.458	0.32
317.826	0.32
318.195	0.31
318.564	0.32
318.933	0.32
319.301	0.33
319.67	0.33
320.038	0.33
320.407	0.34
320.775	0.34
321.144	0.34
321.512	0.35
321.881	0.35
322.249	0.36
322.618	0.35
322.986	0.38
323.354	0.37
323.723	0.38
324.091	0.38
324.459	0.4
324.827	0.4
325.195	0.41
325.564	0.42
325.932	0.41
326.3	0.42
326.668	0.42
327.036	0.43
327.404	0.45
327.772	0.44
328.14	0.44
328.508	0.44
328.875	0.45
329.243	0.47
329.611	0.47
329.979	0.48
330.346	0.49
330.714	0.49
331.082	0.51
331.449	0.5
331.817	0.51
332.185	0.53
332.552	0.53
332.92	0.55
333.287	0.56
333.655	0.56
334.022	0.58
334.389	0.59
334.757	0.6
335.124	0.6
335.491	0.63
335.859	0.64
336.226	0.64
336.593	0.66
336.96	0.67
337.327	0.68
337.695	0.7
338.062	0.71
338.429	0.72
338.796	0.73
339.163	0.76
339.53	0.75
339.897	0.78
340.263	0.79
340.63	0.8
340.997	0.81
341.364	0.83
341.731	0.84
342.097	0.86
342.464	0.87
342.831	0.89
343.197	0.9
343.564	0.92
343.931	0.92
344.297	0.94
344.664	0.95
345.03	0.96
345.396	0.98
345.763	1
346.129	1
346.496	1.02
346.862	1.04
347.228	1.06
347.594	1.08
347.961	1.08
348.327	1.08
348.693	1.11
349.059	1.11
349.425	1.13
349.791	1.16
350.157	1.15
350.523	1.17
350.889	1.18
351.255	1.2
351.621	1.22
351.987	1.22
352.353	1.24
352.719	1.26
353.084	1.26
353.45	1.28
353.816	1.29
354.181	1.3
354.547	1.33
354.913	1.33
355.278	1.36
355.644	1.34
356.009	1.38
356.375	1.38
356.74	1.42
357.106	1.44
357.471	1.44
357.836	1.46
358.202	1.49
358.567	1.5
358.932	1.53
359.297	1.53
359.663	1.52
360.028	1.55
360.393	1.6
360.758	1.58
361.123	1.61
361.488	1.64
361.853	1.65
362.218	1.68
362.583	1.68
362.948	1.71
363.312	1.72
363.677	1.68
364.042	1.75
364.407	1.79
364.772	1.77
365.136	1.75
365.501	1.8
365.865	1.78
366.23	1.83
366.595	1.81
366.959	1.87
367.324	1.85
367.688	1.85
368.052	1.88
368.417	1.86
368.781	1.88
369.145	1.91
369.51	1.91
369.874	1.91
370.238	1.93
370.602	1.81
370.967	1.94
371.331	1.86
371.695	1.92
372.059	1.89
372.423	1.91
372.787	1.96
373.151	1.89
373.515	1.91
373.878	1.95
374.242	1.9
374.606	1.89
374.97	1.86
375.334	1.88
375.697	1.85
376.061	1.83
376.425	1.9
376.788	1.89
377.152	1.83
377.515	1.83
377.879	1.82
378.242	1.76
378.606	1.77
378.969	1.73
379.333	1.74
379.696	1.72
380.059	1.71
380.422	1.68
380.786	1.69
381.149	1.66
381.512	1.63
381.875	1.62
382.238	1.59
382.601	1.59
382.964	1.55
383.327	1.56
383.69	1.52
384.053	1.51
384.416	1.5
384.779	1.48
385.142	1.47
385.504	1.47
385.867	1.45
386.23	1.44
386.593	1.44
386.955	1.41
387.318	1.41
387.68	1.4
388.043	1.4
388.405	1.38
388.768	1.37
389.13	1.37
389.493	1.38
389.855	1.33
390.217	1.33
390.58	1.33
390.942	1.32
391.304	1.29
391.666	1.28
392.028	1.26
392.391	1.23
392.753	1.24
393.115	1.21
393.477	1.18
393.839	1.2
394.201	1.17
394.563	1.16
394.924	1.16
395.286	1.15
395.648	1.17
396.01	1.16
396.371	1.16
396.733	1.17
397.095	1.2
397.456	1.23
397.818	1.25
398.18	1.25
398.541	1.28
398.903	1.31
399.264	1.34
399.625	1.36
399.987	1.39
400.348	1.4
400.709	1.43
401.071	1.42
401.432	1.44
401.793	1.42
402.154	1.42
402.515	1.4
402.876	1.39
403.238	1.35
403.599	1.32
403.96	1.28
404.32	1.24
404.681	1.19
405.042	1.15
405.403	1.1
405.764	1.04
406.125	1.02
406.485	0.95
406.846	0.91
407.207	0.87
407.567	0.82
407.928	0.78
408.288	0.73
408.649	0.69
409.009	0.66
409.37	0.61
409.73	0.59
410.091	0.56
410.451	0.53
410.811	0.51
411.171	0.48
411.532	0.46
411.892	0.44
412.252	0.42
412.612	0.4
412.972	0.38
413.332	0.37
413.692	0.35
414.052	0.34
414.412	0.33
414.772	0.32
415.132	0.31
415.492	0.29
415.851	0.28
416.211	0.27
416.571	0.27
416.931	0.26
417.29	0.25
417.65	0.25
418.009	0.24
418.369	0.23
418.728	0.23
419.088	0.23
419.447	0.22
419.807	0.21
420.166	0.22
420.525	0.2
420.884	0.2
421.244	0.2
421.603	0.2
421.962	0.19
422.321	0.19
422.68	0.19
423.039	0.18
423.398	0.18
423.757	0.17
424.116	0.18
424.475	0.17
424.834	0.17
425.193	0.17
425.551	0.17
425.91	0.16
426.269	0.17
426.628	0.16
426.986	0.16
427.345	0.16
427.703	0.16
428.062	0.16
428.42	0.16
428.779	0.16
429.137	0.17
429.496	0.16
429.854	0.16
430.212	0.16
430.57	0.15
430.929	0.15
431.287	0.15
431.645	0.15
432.003	0.15
432.361	0.15
432.719	0.15
433.077	0.15
433.435	0.15
433.793	0.15
434.151	0.14
434.509	0.15
434.866	0.14
435.224	0.14
435.582	0.15
435.94	0.14
436.297	0.15
436.655	0.16
437.012	0.14
437.37	0.14
437.727	0.15
438.085	0.15
438.442	0.15
438.8	0.15
439.157	0.14
439.514	0.16
439.872	0.14
440.229	0.15
440.586	0.14
440.943	0.15
441.3	0.16
441.657	0.15
442.014	0.15
442.371	0.15
442.728	0.14
443.085	0.16
443.442	0.14
443.799	0.15
444.156	0.15
444.513	0.15
444.869	0.14
445.226	0.15
445.583	0.15
445.939	0.15
446.296	0.14
446.652	0.15
447.009	0.16
447.365	0.16
447.722	0.15
448.078	0.15
448.434	0.16
448.791	0.16
449.147	0.16
449.503	0.16
449.859	0.14
450.215	0.15
450.571	0.16
450.928	0.15
451.284	0.16
451.64	0.16
451.995	0.16
452.351	0.16
452.707	0.16
453.063	0.16
453.419	0.16
453.775	0.15
454.13	0.15
454.486	0.14
454.842	0.15
455.197	0.15
455.553	0.14
455.908	0.14
456.264	0.14
456.619	0.14
456.975	0.14
457.33	0.14
457.685	0.14
458.04	0.13
458.396	0.13
458.751	0.13
459.106	0.12
459.461	0.13
459.816	0.13
460.171	0.11
460.526	0.12
460.881	0.11
461.236	0.11
461.591	0.1
461.946	0.11
462.301	0.1
462.655	0.1
463.01	0.11
463.365	0.09
463.719	0.08
464.074	0.08
464.428	0.07
464.783	0.07
465.137	0.07
465.492	0.08
465.846	0.08
466.201	0.08
466.555	0.08
466.909	0.08
467.263	0.09
467.618	0.09
467.972	0.09
468.326	0.09
468.68	0.08
469.034	0.08
469.388	0.08
469.742	0.08
470.096	0.09
470.45	0.09
470.804	0.09
471.157	0.09
471.511	0.09
471.865	0.09
472.218	0.11
472.572	0.12
472.926	0.11
473.279	0.13
473.633	0.13
473.986	0.14
474.34	0.14
474.693	0.16
475.046	0.17
475.4	0.18
475.753	0.19
476.106	0.2
476.459	0.21
476.812	0.22
477.165	0.23
477.519	0.24
477.872	0.25
478.224	0.25
478.577	0.26
478.93	0.27
479.283	0.28
479.636	0.28
479.989	0.29
480.341	0.3
480.694	0.31
481.047	0.31
481.399	0.32
481.752	0.32
482.104	0.33
482.457	0.35
482.809	0.35
483.162	0.35
483.514	0.36
483.866	0.37
484.219	0.37
484.571	0.38
484.923	0.38
485.275	0.39
485.627	0.39
485.979	0.4
486.331	0.4
486.683	0.42
487.035	0.42
487.387	0.43
487.739	0.44
488.091	0.44
488.443	0.45
488.794	0.45
489.146	0.46
489.498	0.45
489.849	0.46
490.201	0.46
490.552	0.47
490.904	0.47
491.255	0.48
491.607	0.48
491.958	0.49
492.309	0.49
492.661	0.49
493.012	0.51
493.363	0.5
493.714	0.51
494.065	0.52
494.416	0.52
494.767	0.52
495.118	0.53
495.469	0.54
495.82	0.54
496.171	0.55
496.522	0.55
496.872	0.55
497.223	0.56
497.574	0.56
497.924	0.57
498.275	0.58
498.626	0.58
498.976	0.59
499.327	0.59
499.677	0.59
500.027	0.6
500.378	0.6
500.728	0.6
501.078	0.61
501.428	0.61
501.779	0.62
502.129	0.62
502.479	0.63
502.829	0.63
503.179	0.64
503.529	0.64
503.879	0.65
504.229	0.65
504.578	0.66
504.928	0.66
505.278	0.66
505.628	0.67
505.977	0.68
506.327	0.68
506.676	0.68
507.026	0.69
507.375	0.7
507.725	0.7
508.074	0.7
508.424	0.7
508.773	0.7
509.122	0.71
509.471	0.71
509.82	0.72
510.17	0.72
510.519	0.72
510.868	0.72
511.217	0.73
511.566	0.73
511.915	0.74
512.263	0.75
512.612	0.75
512.961	0.75
513.31	0.75
513.659	0.76
514.007	0.77
514.356	0.77
514.704	0.77
515.053	0.78
515.401	0.78
515.75	0.78
516.098	0.79
516.447	0.79
516.795	0.79
517.143	0.79
517.491	0.8
517.839	0.81
518.188	0.81
518.536	0.81
518.884	0.81
519.232	0.81
519.58	0.82
519.928	0.82
520.275	0.82
520.623	0.83
520.971	0.83
521.319	0.83
521.666	0.83
522.014	0.85
522.362	0.84
522.709	0.84
523.057	0.85
523.404	0.86
523.752	0.86
524.099	0.85
524.446	0.87
524.794	0.86
525.141	0.86
525.488	0.87
525.835	0.87
526.182	0.88
526.529	0.87
526.876	0.88
527.223	0.88
527.57	0.89
527.917	0.88
528.264	0.88
528.611	0.89
528.958	0.89
529.304	0.89
529.651	0.89
529.998	0.9
530.344	0.9
530.691	0.91
531.037	0.91
531.384	0.91
531.73	0.91
532.076	0.92
532.423	0.91
532.769	0.91
533.115	0.92
533.461	0.91
533.807	0.92
534.154	0.92
534.5	0.92
534.846	0.92
535.192	0.92
535.537	0.93
535.883	0.94
536.229	0.94
536.575	0.94
536.921	0.95
537.266	0.94
537.612	0.93
537.957	0.94
538.303	0.94
538.649	0.95
538.994	0.95
539.339	0.94
539.685	0.95
540.03	0.95
540.375	0.95
540.721	0.95
541.066	0.95
541.411	0.96
541.756	0.96
542.101	0.96
542.446	0.95
542.791	0.96
543.136	0.97
543.481	0.96
543.825	0.96
544.17	0.97
544.515	0.96
544.86	0.96
545.204	0.97
545.549	0.96
545.893	0.97
546.238	0.96
546.582	0.97
546.927	0.98
547.271	0.98
547.615	0.97
547.96	0.98
548.304	0.97
548.648	0.98
548.992	0.98
549.336	0.97
549.68	0.97
550.024	0.98
550.368	0.97
550.712	0.98
551.056	0.98
551.4	0.97
551.743	0.97
552.087	0.97
552.431	0.97
552.774	0.97
553.118	0.97
553.462	0.97
553.805	0.97
554.148	0.98
554.492	0.97
554.835	0.97
555.178	0.96
555.522	0.97
555.865	0.97
556.208	0.97
556.551	0.96
556.894	0.97
557.237	0.96
557.58	0.97
557.923	0.97
558.266	0.96
558.609	0.96
558.952	0.96
559.294	0.96
559.637	0.96
559.98	0.96
560.322	0.96
560.665	0.96
561.007	0.96
561.35	0.95
561.692	0.96
562.034	0.95
562.377	0.95
562.719	0.95
563.061	0.95
563.403	0.94
563.745	0.94
564.088	0.94
564.43	0.94
564.772	0.94
565.113	0.94
565.455	0.94
565.797	0.94
566.139	0.94
566.481	0.94
566.822	0.94
567.164	0.93
567.506	0.94
567.847	0.94
568.189	0.93
568.53	0.93
568.872	0.93
569.213	0.93
569.554	0.92
569.895	0.92
570.237	0.92
570.578	0.92
570.919	0.92
571.26	0.91
571.601	0.91
571.942	0.91
572.283	0.9
572.624	0.9
572.965	0.9
573.306	0.9
573.646	0.9
573.987	0.9
574.328	0.9
574.668	0.89
575.009	0.89
575.349	0.89
575.69	0.89
576.03	0.88
576.37	0.88
576.711	0.88
577.051	0.88
577.391	0.88
577.731	0.88
578.072	0.88
578.412	0.87
578.752	0.87
579.092	0.87
579.431	0.86
579.771	0.84
580.111	0.85
580.451	0.86
580.791	0.86
581.13	0.86
581.47	0.86
581.81	0.86
582.149	0.85
582.489	0.85
582.828	0.83
583.167	0.82
583.507	0.78
583.846	0.79
584.185	0.82
584.525	0.84
584.864	0.84
585.203	0.85
585.542	0.85
585.881	0.84
586.22	0.84
586.559	0.83
586.898	0.82
587.236	0.82
587.575	0.82
587.914	0.82
588.252	0.83
588.591	0.83
588.93	0.83
589.268	0.83
589.607	0.83
589.945	0.83
590.283	0.82
590.622	0.82
590.96	0.83
591.298	0.83
591.636	0.83
591.974	0.83
592.313	0.82
592.651	0.83
592.989	0.82
593.326	0.82
593.664	0.82
594.002	0.82
594.34	0.82
594.678	0.82
595.015	0.81
595.353	0.81
595.691	0.82
596.028	0.82
596.366	0.82
596.703	0.82
597.04	0.82
597.378	0.82
597.715	0.82
598.052	0.82
598.389	0.82
598.726	0.82
599.064	0.81
599.401	0.81
599.738	0.82
600.074	0.81
600.411	0.81
600.748	0.8
601.085	0.8
601.422	0.8
601.758	0.8
602.095	0.8
602.432	0.8
602.768	0.8
603.105	0.8
603.441	0.8
603.777	0.81
604.114	0.8
604.45	0.8
604.786	0.79
605.122	0.79
605.459	0.79
605.795	0.78
606.131	0.78
606.467	0.79
606.803	0.78
607.139	0.78
607.474	0.77
607.81	0.77
608.146	0.77
608.482	0.77
608.817	0.77
609.153	0.77
609.488	0.76
609.824	0.76
610.159	0.76
610.495	0.76
610.83	0.76
611.165	0.76
611.5	0.76
611.836	0.75
612.171	0.75
612.506	0.75
612.841	0.75
613.176	0.74
613.511	0.74
613.845	0.74
614.18	0.73
614.515	0.74
614.85	0.73
615.184	0.73
615.519	0.72
615.854	0.72
616.188	0.72
616.523	0.71
616.857	0.71
617.191	0.71
617.526	0.71
617.86	0.71
618.194	0.7
618.528	0.71
618.862	0.7
619.196	0.7
619.53	0.7
619.864	0.7
620.198	0.69
620.532	0.69
620.866	0.68
621.2	0.69
621.533	0.68
621.867	0.68
622.201	0.67
622.534	0.67
622.868	0.67
623.201	0.67
623.534	0.66
623.868	0.66
624.201	0.66
624.534	0.65
624.868	0.66
625.201	0.65
625.534	0.65
625.867	0.64
626.2	0.64
626.533	0.64
626.865	0.64
627.198	0.64
627.531	0.63
627.864	0.63
628.196	0.63
628.529	0.62
628.862	0.62
629.194	0.62
629.527	0.61
629.859	0.61
630.191	0.6
630.524	0.6
630.856	0.6
631.188	0.59
631.52	0.59
631.852	0.58
632.184	0.58
632.516	0.58
632.848	0.57
633.18	0.58
633.512	0.57
633.844	0.56
634.175	0.56
634.507	0.56
634.839	0.55
635.17	0.55
635.502	0.55
635.833	0.54
636.165	0.54
636.496	0.54
636.827	0.53
637.159	0.53
637.49	0.53
637.821	0.52
638.152	0.52
638.483	0.52
638.814	0.51
639.145	0.52
639.476	0.51
639.807	0.5
640.137	0.5
640.468	0.49
640.799	0.5
641.129	0.49
641.46	0.49
641.791	0.48
642.121	0.48
642.451	0.48
642.782	0.47
643.112	0.47
643.442	0.47
643.773	0.47
644.103	0.47
644.433	0.46
644.763	0.46
645.093	0.46
645.423	0.46
645.753	0.46
646.082	0.45
646.412	0.45
646.742	0.45
647.072	0.45
647.401	0.44
647.731	0.44
648.06	0.44
648.39	0.44
648.719	0.43
649.048	0.43
649.378	0.43
649.707	0.43
650.036	0.43
650.365	0.43
650.694	0.42
651.023	0.42
651.352	0.42
651.681	0.42
652.01	0.42
652.339	0.42
652.668	0.41
652.996	0.41
653.325	0.41
653.654	0.41
653.982	0.41
654.311	0.41
654.639	0.41
654.967	0.4
655.296	0.4
655.624	0.4
655.952	0.4
656.28	0.4
656.609	0.4
656.937	0.39
657.265	0.38
657.593	0.24
657.92	0.15
658.248	0.12
658.576	0.2
658.904	0.33
659.231	0.38
659.559	0.39
659.887	0.38
660.214	0.38
660.542	0.38
660.869	0.38
661.196	0.38
661.524	0.38
661.851	0.37
662.178	0.37
662.505	0.37
662.832	0.37
663.159	0.37
663.486	0.37
663.813	0.37
664.14	0.36
664.467	0.36
664.794	0.36
665.12	0.36
665.447	0.36
665.774	0.36
666.1	0.35
666.427	0.35
666.753	0.35
667.079	0.35
667.406	0.35
667.732	0.34
668.058	0.35
668.384	0.34
668.71	0.34
669.036	0.34
669.362	0.34
669.688	0.33
670.014	0.33
670.34	0.33
670.666	0.32
670.991	0.32
671.317	0.32
671.643	0.32
671.968	0.32
672.294	0.32
672.619	0.31
672.945	0.31
673.27	0.31
673.595	0.31
673.92	0.3
674.246	0.3
674.571	0.3
674.896	0.3
675.221	0.3
675.546	0.29
675.87	0.29
676.195	0.29
676.52	0.29
676.845	0.28
677.169	0.28
677.494	0.28
677.819	0.28
678.143	0.27
678.468	0.27
678.792	0.27
679.116	0.27
679.44	0.27
679.765	0.26
680.089	0.26
680.413	0.25
680.737	0.25
681.061	0.25
681.385	0.25
681.709	0.24
682.033	0.24
682.356	0.24
682.68	0.24
683.004	0.24
683.327	0.23
683.651	0.23
683.974	0.23
684.298	0.23
684.621	0.23
684.944	0.22
685.268	0.22
685.591	0.22
685.914	0.21
686.237	0.21
686.56	0.21
686.883	0.21
687.206	0.21
687.529	0.2
687.852	0.2
688.175	0.2
688.497	0.2
688.82	0.19
689.142	0.19
689.465	0.19
689.787	0.19
690.11	0.19
690.432	0.18
690.755	0.18
691.077	0.18
691.399	0.17
691.721	0.17
692.043	0.17
692.365	0.17
692.687	0.17
693.009	0.16
693.331	0.16
693.653	0.16
693.974	0.16
694.296	0.16
694.618	0.16
694.939	0.16
695.261	0.16
695.582	0.15
695.904	0.15
696.225	0.15
696.546	0.15
696.868	0.15
697.189	0.15
697.51	0.15
697.831	0.15
698.152	0.15
698.473	0.14
698.794	0.13
699.114	0.14
699.435	0.13
699.756	0.14
700.077	0.13
700.397	0.13
700.718	0.13
701.038	0.13
701.359	0.13
701.679	0.13
701.999	0.13
702.32	0.13
702.64	0.13
702.96	0.13
703.28	0.13
703.6	0.13
703.92	0.13
704.24	0.12
704.56	0.12
704.879	0.12
705.199	0.12
705.519	0.12
705.838	0.12
706.158	0.12
706.478	0.12
706.797	0.12
707.116	0.12
707.436	0.12
707.755	0.12
708.074	0.12
708.393	0.11
708.712	0.11
709.031	0.1
709.35	0.11
709.669	0.1
709.988	0.11
710.307	0.11
710.626	0.11
710.944	0.11
711.263	0.11
711.582	0.11
711.9	0.11
712.219	0.11
712.537	0.11
712.855	0.11
713.174	0.11
713.492	0.11
713.81	0.12
714.128	0.11
714.446	0.11
714.764	0.11
715.082	0.11
715.4	0.11
715.718	0.11
716.035	0.11
716.353	0.11
716.671	0.11
716.988	0.11
717.306	0.11
717.623	0.11
717.941	0.12
718.258	0.11
718.575	0.11
718.893	0.12
719.21	0.11
719.527	0.11
719.844	0.12
720.161	0.11
720.478	0.12
720.795	0.12
721.112	0.12
721.428	0.12
721.745	0.12
722.062	0.12
722.378	0.12
722.695	0.12
723.011	0.12
723.328	0.12
723.644	0.12
723.96	0.12
724.276	0.12
724.593	0.12
724.909	0.12
725.225	0.12
725.541	0.12
725.857	0.12
726.173	0.12
726.488	0.12
726.804	0.12
727.12	0.12
727.435	0.12
727.751	0.12
728.067	0.12
728.382	0.12
728.697	0.12
729.013	0.12
729.328	0.12
729.643	0.12
729.958	0.12
730.273	0.12
730.588	0.11
730.903	0.12
731.218	0.11
731.533	0.11
731.848	0.11
732.163	0.11
732.477	0.11
732.792	0.11
733.107	0.11
733.421	0.11
733.736	0.11
734.05	0.11
734.364	0.11
734.678	0.11
734.993	0.11
735.307	0.11
735.621	0.11
735.935	0.11
736.249	0.11
736.563	0.11
736.877	0.11
737.19	0.11
737.504	0.11
737.818	0.11
738.131	0.11
738.445	0.11
738.758	0.11
739.072	0.11
739.385	0.11
739.698	0.11
740.012	0.11
740.325	0.11
740.638	0.11
740.951	0.1
741.264	0.1
741.577	0.1
741.89	0.1
742.203	0.1
742.515	0.1
742.828	0.1
743.141	0.1
743.453	0.1
743.766	0.1
744.078	0.1
744.391	0.1
744.703	0.09
745.015	0.09
745.327	0.09
745.639	0.09
745.952	0.09
746.264	0.09
746.575	0.09
746.887	0.09
747.199	0.09
747.511	0.09
747.823	0.09
748.134	0.08
748.446	0.09
748.757	0.09
749.069	0.08
749.38	0.09
749.692	0.08
750.003	0.08
750.314	0.08
750.625	0.08
750.936	0.08
751.248	0.08
751.559	0.08
751.869	0.08
752.18	0.08
752.491	0.07
752.802	0.08
753.112	0.07
753.423	0.08
753.734	0.07
754.044	0.07
754.355	0.07
754.665	0.07
754.975	0.07
755.285	0.07
755.596	0.07
755.906	0.07
756.216	0.07
756.526	0.07
756.836	0.07
757.146	0.07
757.455	0.07
757.765	0.07
758.075	0.06
758.385	0.06
758.694	0.06
759.004	0.06
759.313	0.06
759.622	0.06
759.932	0.06
760.241	0.06
760.55	0.06
760.859	0.06
761.168	0.06
761.477	0.06
761.786	0.06
762.095	0.06
762.404	0.06
762.713	0.06
763.021	0.06
763.33	0.06
763.639	0.06
763.947	0.06
764.256	0.06
764.564	0.06
764.872	0.06
765.181	0.06
765.489	0.06
765.797	0.06
766.105	0.06
766.413	0.06
766.721	0.06
767.029	0.06
767.337	0.06
767.644	0.06
767.952	0.06
768.26	0.06
768.567	0.06
768.875	0.06
769.182	0.06
769.49	0.06
769.797	0.05
770.104	0.06
770.411	0.06
770.718	0.06
771.026	0.06
771.333	0.06
771.639	0.06
771.946	0.06
772.253	0.06
772.56	0.06
772.867	0.06
773.173	0.06
773.48	0.06
773.786	0.06
774.093	0.06
774.399	0.06
774.705	0.06
775.012	0.06
775.318	0.06
775.624	0.06
775.93	0.06
776.236	0.06
776.542	0.06
776.848	0.06
777.154	0.06
777.459	0.06
777.765	0.06
778.071	0.06
778.376	0.06
778.682	0.06
778.987	0.06
779.292	0.06
779.598	0.06
779.903	0.06
780.208	0.06
780.513	0.06
780.818	0.06
781.123	0.06
781.428	0.06
781.733	0.06
782.038	0.06
782.343	0.06
782.647	0.06
782.952	0.06
783.256	0.06
783.561	0.07
783.865	0.07
784.17	0.06
784.474	0.06
784.778	0.06
785.082	0.06
785.386	0.06
785.69	0.06
785.994	0.07
786.298	0.07
786.602	0.07
786.906	0.07
787.209	0.07
787.513	0.07
787.817	0.06
788.12	0.07
788.424	0.07
788.727	0.06
789.03	0.06
789.333	0.07
789.637	0.07
789.94	0.06
790.243	0.07
790.546	0.07
790.849	0.06
791.152	0.07
791.454	0.06
791.757	0.07
792.06	0.07
792.362	0.07
792.665	0.07
792.967	0.07
793.27	0.07
793.572	0.07
793.874	0.07
794.177	0.07
794.479	0.07
794.781	0.07
795.083	0.07
795.385	0.07
795.687	0.07
795.989	0.07
796.29	0.07
796.592	0.08
796.894	0.07
797.195	0.08
797.497	0.08
797.798	0.08
798.1	0.08
798.401	0.07
798.702	0.08
799.003	0.08
799.304	0.08
799.605	0.08
799.906	0.08
800.207	0.08
800.508	0.08
800.809	0.08
801.11	0.08
801.41	0.08
801.711	0.08
802.011	0.08
802.312	0.08
802.612	0.08
802.913	0.08
803.213	0.09
803.513	0.08
803.813	0.08
804.113	0.08
804.413	0.08
804.713	0.08
805.013	0.08
805.313	0.08
805.613	0.08
805.912	0.09
806.212	0.09
806.511	0.08
806.811	0.08
807.11	0.08
807.41	0.09
807.709	0.09
808.008	0.08
808.307	0.08
808.606	0.09
808.905	0.08
809.204	0.08
809.503	0.09
809.802	0.09
810.101	0.09
810.399	0.09
810.698	0.09
810.997	0.09
811.295	0.09
811.593	0.09
811.892	0.09
812.19	0.1
812.488	0.09
812.786	0.09
813.084	0.09
813.383	0.1
813.68	0.1
813.978	0.1
814.276	0.09
814.574	0.1
814.872	0.09
815.169	0.1
815.467	0.1
815.764	0.09
816.062	0.1
816.359	0.09
816.656	0.1
816.954	0.09
817.251	0.1
817.548	0.1
817.845	0.1
818.142	0.1
818.439	0.1
818.735	0.1
819.032	0.11
819.329	0.1
819.626	0.1
819.922	0.1
820.219	0.11
820.515	0.11
820.811	0.1
821.108	0.1
821.404	0.11
821.7	0.11
821.996	0.1
822.292	0.11
822.588	0.1
822.884	0.1
823.18	0.11
823.475	0.1
823.771	0.1
824.067	0.1
824.362	0.11
824.658	0.1
824.953	0.11
825.249	0.11
825.544	0.11
825.839	0.11
826.134	0.11
826.429	0.11
826.724	0.11
827.019	0.11
827.314	0.11
827.609	0.11
827.904	0.11
828.198	0.12
828.493	0.11
828.787	0.11
829.082	0.11
829.376	0.11
829.671	0.11
829.965	0.11
830.259	0.12
830.553	0.12
830.847	0.12
831.141	0.12
831.435	0.12
831.729	0.12
832.023	0.13
832.317	0.12
832.61	0.12
832.904	0.13
833.197	0.13
833.491	0.12
833.784	0.12
834.077	0.12
834.371	0.12
834.664	0.12
834.957	0.12
835.25	0.13
835.543	0.12
835.836	0.13
836.129	0.12
836.421	0.13
836.714	0.13
837.007	0.13
837.299	0.13
837.592	0.13
837.884	0.13
838.177	0.13
838.469	0.14
838.761	0.13
839.053	0.13
839.345	0.13
839.637	0.13
839.929	0.13
840.221	0.13
840.513	0.13
840.805	0.13
841.096	0.13
841.388	0.13
841.68	0.13
841.971	0.13
842.262	0.14
842.554	0.13
842.845	0.14
843.136	0.14
843.427	0.14
843.718	0.13
844.009	0.13
844.3	0.14
844.591	0.14
844.882	0.13
845.173	0.14
845.463	0.14
845.754	0.14
846.044	0.14
846.335	0.13
846.625	0.15
846.915	0.13
847.206	0.15
847.496	0.14
847.786	0.15
848.076	0.15
848.366	0.13
848.656	0.15
848.945	0.14
849.235	0.14
849.525	0.14
849.814	0.14
850.104	0.15
850.393	0.15
850.683	0.16
850.972	0.15
851.261	0.14
851.551	0.14
851.84	0.15
852.129	0.15
852.418	0.15
852.707	0.16
852.995	0.15
853.284	0.16
853.573	0.17
853.862	0.15
854.15	0.17
854.439	0.16
854.727	0.16
855.015	0.16
855.304	0.15
855.592	0.15
855.88	0.16
856.168	0.15
856.456	0.16
856.744	0.16
857.032	0.15
857.32	0.17
857.607	0.18
857.895	0.17
858.183	0.17
858.47	0.16
858.757	0.16
859.045	0.16
859.332	0.15
859.619	0.15
859.907	0.16
860.194	0.16
860.481	0.16
860.768	0.15
861.054	0.18
861.341	0.15
861.628	0.17
861.915	0.17
862.201	0.17
862.488	0.18
862.774	0.15
863.061	0.17
863.347	0.18
863.633	0.16
863.919	0.16
864.205	0.15
864.491	0.16
864.777	0.17
865.063	0.16
865.349	0.17
865.635	0.18
865.92	0.15
866.206	0.16
866.492	0.16
866.777	0.16
867.062	0.16
867.348	0.13
867.633	0.18
867.918	0.19
868.203	0.19
868.488	0.16
868.773	0.18
869.058	0.18
869.343	0.21
869.628	0.16
869.912	0.19
870.197	0.15
870.482	0.18
870.766	0.12
871.05	0.19
871.335	0.15
871.619	0.14
871.903	0.17
872.187	0.17
872.471	0.2
872.755	0.15
873.039	0.14
873.323	0.13
873.607	0.18
873.89	0.19
874.174	0.12
874.458	0.15
874.741	0.26
875.024	0.18
875.308	0.17
875.591	0.11
875.874	0.16
876.157	0.22
876.44	0.11
876.723	0.19
877.006	0.19
877.289	0.13
877.572	0.24
877.854	0.13
878.137	0.17
878.42	0.1
878.702	0.2
878.984	0.15
879.267	0.12
879.549	0.16
879.831	0.19
880.113	0.16
880.395	0.06
880.677	0.26
880.959	0.01
