Data from Rubpy_BV_1800_EDTA_Buffered_Absorbance_16-52-11-734.txt Node
Date: Wed Jul 01 16:52:11 BST 2026
User: fpm-admin
Spectrometer: OFX00224
Trigger mode: 0
Integration Time (sec): 7.000000E-2
Scans to average: 3
Nonlinearity correction enabled: false
Boxcar width: 0
Storing dark spectrum: false
XAxis mode: Wavelengths
Number of Pixels in Spectrum: 2136
>>>>>Begin Spectral Data<<<<<
154.91	-0
155.289	-0.46
155.669	0.56
156.048	-0.35
156.428	-0
156.807	0.22
157.186	-1.18
157.566	0.1
157.945	-0
158.325	0.5
158.704	0.18
159.083	1.56
159.462	-0
159.842	-0.21
160.221	-0
160.6	-0.18
160.979	-0
161.359	-0.4
161.738	-0.36
162.117	-0.24
162.496	-0.09
162.875	-0.23
163.254	0.12
163.633	-0
164.012	-0
164.391	0.23
164.77	-0.08
165.149	0.48
165.528	-0
165.907	-0
166.286	-0
166.665	-0.08
167.044	0.2
167.423	0.07
167.802	0.26
168.181	-1.52
168.559	-0.79
168.938	-0
169.317	-0
169.696	-0.6
170.074	0.4
170.453	-0.6
170.832	-1.04
171.21	1.01
171.589	-0
171.968	0.23
172.346	0.22
172.725	-0.73
173.103	-0.05
173.482	0.94
173.861	-0
174.239	-0
174.617	-0.12
174.996	-0
175.374	-0
175.753	-0.87
176.131	0.26
176.51	-0.36
176.888	0.39
177.266	-0
177.645	-0.08
178.023	1.86
178.401	-0.16
178.779	0.06
179.158	0.18
179.536	0.01
179.914	-0.35
180.292	-0.3
180.67	0.9
181.048	0.7
181.427	-0.53
181.805	-0
182.183	-0.48
182.561	-0.16
182.939	0.03
183.317	-0.51
183.695	-0.28
184.073	-0
184.451	-0.58
184.829	0.18
185.206	-0.14
185.584	-0
185.962	0.03
186.34	-0.25
186.718	0.02
187.096	-0
187.473	-0.6
187.851	-0.08
188.229	-0.58
188.607	0.34
188.984	0.18
189.362	0.46
189.74	0.44
190.117	0.49
190.495	0.33
190.872	0.34
191.25	0.34
191.627	0.43
192.005	0.34
192.382	0.5
192.76	0.38
193.137	0.37
193.515	0.46
193.892	0.36
194.269	0.38
194.647	0.47
195.024	0.28
195.401	0.24
195.779	0.65
196.156	0.48
196.533	0.38
196.91	0.32
197.288	0.59
197.665	0.24
198.042	0.28
198.419	0.4
198.796	0.31
199.173	0.39
199.55	0.29
199.927	0.44
200.304	0.29
200.681	0.2
201.058	0.13
201.435	0.57
201.812	0.24
202.189	0.37
202.566	0.31
202.943	0.25
203.32	0.45
203.697	0.34
204.073	0.32
204.45	0.55
204.827	0.29
205.204	0.22
205.58	0.47
205.957	0.47
206.334	0.24
206.71	0.31
207.087	0.38
207.464	0.22
207.84	0.47
208.217	0.63
208.593	0.23
208.97	0.36
209.346	0.32
209.723	0.46
210.099	0.4
210.476	0.32
210.852	0.49
211.228	0.35
211.605	0.34
211.981	0.29
212.357	0.4
212.733	0.4
213.11	0.37
213.486	0.4
213.862	0.42
214.238	0.39
214.614	0.44
214.991	0.2
215.367	0.41
215.743	0.33
216.119	0.33
216.495	0.44
216.871	0.34
217.247	0.42
217.623	0.22
217.999	0.49
218.375	0.31
218.751	0.3
219.127	0.41
219.502	0.37
219.878	0.41
220.254	0.42
220.63	0.39
221.006	0.44
221.381	0.49
221.757	0.43
222.133	0.36
222.508	0.42
222.884	0.3
223.26	0.37
223.635	0.36
224.011	0.32
224.386	0.41
224.762	0.53
225.137	0.36
225.513	0.39
225.888	0.35
226.264	0.35
226.639	0.33
227.014	0.36
227.39	0.27
227.765	0.31
228.14	0.38
228.516	0.51
228.891	0.26
229.266	0.29
229.641	0.22
230.017	0.3
230.392	0.56
230.767	0.4
231.142	0.42
231.517	0.31
231.892	0.4
232.267	0.47
232.642	0.43
233.017	0.38
233.392	0.52
233.767	0.4
234.142	0.3
234.517	0.39
234.892	0.28
235.267	0.38
235.641	0.36
236.016	0.54
236.391	0.22
236.766	0.23
237.14	0.32
237.515	0.45
237.89	0.3
238.264	0.43
238.639	0.24
239.014	0.44
239.388	0.37
239.763	0.29
240.137	0.31
240.512	0.39
240.886	0.24
241.261	0.45
241.635	0.5
242.009	0.47
242.384	0.28
242.758	0.44
243.132	0.28
243.507	0.34
243.881	0.3
244.255	0.36
244.629	0.43
245.004	0.47
245.378	0.29
245.752	0.46
246.126	0.31
246.5	0.36
246.874	0.31
247.248	0.26
247.622	0.43
247.996	0.26
248.37	0.38
248.744	0.34
249.118	0.15
249.492	0.29
249.866	0.27
250.24	0.4
250.613	0.4
250.987	0.34
251.361	0.46
251.735	0.32
252.108	0.49
252.482	0.34
252.856	0.22
253.229	0.42
253.603	0.27
253.977	0.49
254.35	0.32
254.724	0.41
255.097	0.5
255.471	0.47
255.844	0.38
256.218	0.5
256.591	0.3
256.964	0.34
257.338	0.36
257.711	0.39
258.084	0.36
258.458	0.43
258.831	0.36
259.204	0.41
259.577	0.28
259.95	0.31
260.323	0.31
260.697	0.34
261.07	0.33
261.443	0.47
261.816	0.38
262.189	0.35
262.562	0.34
262.935	0.61
263.308	0.29
263.68	0.57
264.053	0.6
264.426	0.3
264.799	0.29
265.172	0.36
265.545	0.4
265.917	0.31
266.29	0.45
266.663	0.47
267.035	0.48
267.408	0.37
267.781	0.4
268.153	0.35
268.526	0.49
268.898	0.38
269.271	0.27
269.643	0.37
270.016	0.38
270.388	0.27
270.76	0.41
271.133	0.26
271.505	0.49
271.877	0.38
272.25	0.38
272.622	0.38
272.994	0.41
273.366	0.36
273.739	0.35
274.111	0.34
274.483	0.28
274.855	0.41
275.227	0.31
275.599	0.46
275.971	0.32
276.343	0.37
276.715	0.41
277.087	0.36
277.459	0.59
277.831	0.24
278.203	0.5
278.574	0.31
278.946	0.27
279.318	0.3
279.69	0.33
280.061	0.41
280.433	0.35
280.805	0.36
281.176	0.41
281.548	0.43
281.92	0.47
282.291	0.39
282.663	0.38
283.034	0.42
283.406	0.45
283.777	0.42
284.148	0.48
284.52	0.46
284.891	0.42
285.262	0.36
285.634	0.49
286.005	0.39
286.376	0.39
286.747	0.48
287.119	0.4
287.49	0.52
287.861	0.46
288.232	0.44
288.603	0.4
288.974	0.37
289.345	0.44
289.716	0.38
290.087	0.38
290.458	0.3
290.829	0.32
291.2	0.5
291.571	0.42
291.941	0.35
292.312	0.34
292.683	0.34
293.054	0.58
293.424	0.27
293.795	0.34
294.166	0.34
294.536	0.34
294.907	0.25
295.277	0.36
295.648	0.37
296.018	0.36
296.389	0.36
296.759	0.39
297.13	0.48
297.5	0.38
297.871	0.33
298.241	0.51
298.611	0.35
298.981	0.36
299.352	0.44
299.722	0.36
300.092	0.35
300.462	0.64
300.832	0.47
301.202	0.52
301.573	0.37
301.943	0.43
302.313	0.28
302.683	0.38
303.053	0.4
303.422	0.4
303.792	0.34
304.162	0.38
304.532	0.36
304.902	0.36
305.272	0.36
305.641	0.44
306.011	0.34
306.381	0.4
306.75	0.39
307.12	0.37
307.49	0.34
307.859	0.34
308.229	0.3
308.598	0.3
308.968	0.34
309.337	0.32
309.707	0.29
310.076	0.29
310.445	0.28
310.815	0.26
311.184	0.28
311.553	0.31
311.923	0.29
312.292	0.32
312.661	0.33
313.03	0.28
313.399	0.32
313.768	0.3
314.137	0.26
314.506	0.3
314.875	0.32
315.244	0.3
315.613	0.3
315.982	0.33
316.351	0.33
316.72	0.3
317.089	0.32
317.458	0.33
317.826	0.35
318.195	0.33
318.564	0.36
318.933	0.36
319.301	0.34
319.67	0.35
320.038	0.36
320.407	0.38
320.775	0.37
321.144	0.37
321.512	0.37
321.881	0.39
322.249	0.38
322.618	0.39
322.986	0.39
323.354	0.41
323.723	0.4
324.091	0.42
324.459	0.42
324.827	0.43
325.195	0.43
325.564	0.43
325.932	0.45
326.3	0.46
326.668	0.46
327.036	0.46
327.404	0.48
327.772	0.48
328.14	0.48
328.508	0.49
328.875	0.5
329.243	0.49
329.611	0.52
329.979	0.53
330.346	0.53
330.714	0.54
331.082	0.56
331.449	0.56
331.817	0.56
332.185	0.58
332.552	0.58
332.92	0.6
333.287	0.61
333.655	0.61
334.022	0.63
334.389	0.64
334.757	0.65
335.124	0.66
335.491	0.69
335.859	0.7
336.226	0.7
336.593	0.71
336.96	0.73
337.327	0.74
337.695	0.75
338.062	0.78
338.429	0.78
338.796	0.79
339.163	0.81
339.53	0.82
339.897	0.85
340.263	0.86
340.63	0.88
340.997	0.88
341.364	0.9
341.731	0.91
342.097	0.93
342.464	0.94
342.831	0.97
343.197	0.98
343.564	1.01
343.931	1.01
344.297	1.02
344.664	1.05
345.03	1.07
345.396	1.06
345.763	1.09
346.129	1.1
346.496	1.12
346.862	1.13
347.228	1.15
347.594	1.17
347.961	1.17
348.327	1.18
348.693	1.2
349.059	1.22
349.425	1.23
349.791	1.25
350.157	1.26
350.523	1.26
350.889	1.3
351.255	1.31
351.621	1.31
351.987	1.33
352.353	1.34
352.719	1.36
353.084	1.37
353.45	1.41
353.816	1.38
354.181	1.4
354.547	1.43
354.913	1.43
355.278	1.48
355.644	1.47
356.009	1.49
356.375	1.51
356.74	1.53
357.106	1.56
357.471	1.55
357.836	1.59
358.202	1.6
358.567	1.59
358.932	1.62
359.297	1.65
359.663	1.66
360.028	1.65
360.393	1.69
360.758	1.71
361.123	1.74
361.488	1.74
361.853	1.82
362.218	1.78
362.583	1.82
362.948	1.81
363.312	1.81
363.677	1.84
364.042	1.84
364.407	1.88
364.772	1.9
365.136	1.87
365.501	1.86
365.865	1.93
366.23	1.95
366.595	1.93
366.959	1.95
367.324	1.97
367.688	1.98
368.052	2.01
368.417	1.98
368.781	1.97
369.145	2.03
369.51	2.02
369.874	2.01
370.238	2.01
370.602	1.91
370.967	2.01
371.331	2.02
371.695	2.07
372.059	2.04
372.423	1.98
372.787	1.96
373.151	1.92
373.515	2.05
373.878	2.01
374.242	2.01
374.606	1.94
374.97	1.97
375.334	2.04
375.697	1.95
376.061	1.94
376.425	2
376.788	1.94
377.152	1.93
377.515	1.94
377.879	1.94
378.242	1.87
378.606	1.91
378.969	1.84
379.333	1.87
379.696	1.81
380.059	1.83
380.422	1.8
380.786	1.79
381.149	1.78
381.512	1.73
381.875	1.74
382.238	1.71
382.601	1.7
382.964	1.67
383.327	1.67
383.69	1.64
384.053	1.61
384.416	1.61
384.779	1.6
385.142	1.57
385.504	1.56
385.867	1.56
386.23	1.54
386.593	1.53
386.955	1.53
387.318	1.5
387.68	1.5
388.043	1.49
388.405	1.47
388.768	1.48
389.13	1.47
389.493	1.47
389.855	1.44
390.217	1.42
390.58	1.42
390.942	1.42
391.304	1.38
391.666	1.35
392.028	1.34
392.391	1.31
392.753	1.31
393.115	1.29
393.477	1.28
393.839	1.26
394.201	1.26
394.563	1.26
394.924	1.24
395.286	1.24
395.648	1.23
396.01	1.23
396.371	1.24
396.733	1.26
397.095	1.26
397.456	1.29
397.818	1.32
398.18	1.34
398.541	1.35
398.903	1.4
399.264	1.41
399.625	1.42
399.987	1.46
400.348	1.49
400.709	1.5
401.071	1.51
401.432	1.51
401.793	1.52
402.154	1.46
402.515	1.47
402.876	1.46
403.238	1.42
403.599	1.38
403.96	1.34
404.32	1.29
404.681	1.27
405.042	1.21
405.403	1.18
405.764	1.12
406.125	1.08
406.485	1.01
406.846	0.97
407.207	0.92
407.567	0.86
407.928	0.83
408.288	0.79
408.649	0.74
409.009	0.7
409.37	0.66
409.73	0.63
410.091	0.59
410.451	0.56
410.811	0.53
411.171	0.52
411.532	0.49
411.892	0.47
412.252	0.45
412.612	0.43
412.972	0.4
413.332	0.4
413.692	0.38
414.052	0.36
414.412	0.34
414.772	0.33
415.132	0.33
415.492	0.32
415.851	0.3
416.211	0.3
416.571	0.3
416.931	0.28
417.29	0.27
417.65	0.27
418.009	0.26
418.369	0.25
418.728	0.25
419.088	0.25
419.447	0.24
419.807	0.24
420.166	0.23
420.525	0.22
420.884	0.22
421.244	0.21
421.603	0.21
421.962	0.2
422.321	0.2
422.68	0.2
423.039	0.19
423.398	0.19
423.757	0.2
424.116	0.2
424.475	0.19
424.834	0.18
425.193	0.18
425.551	0.19
425.91	0.18
426.269	0.18
426.628	0.18
426.986	0.18
427.345	0.17
427.703	0.17
428.062	0.17
428.42	0.18
428.779	0.18
429.137	0.18
429.496	0.17
429.854	0.17
430.212	0.16
430.57	0.17
430.929	0.16
431.287	0.16
431.645	0.16
432.003	0.15
432.361	0.16
432.719	0.16
433.077	0.16
433.435	0.16
433.793	0.16
434.151	0.16
434.509	0.17
434.866	0.16
435.224	0.16
435.582	0.16
435.94	0.16
436.297	0.17
436.655	0.16
437.012	0.16
437.37	0.15
437.727	0.16
438.085	0.16
438.442	0.15
438.8	0.17
439.157	0.16
439.514	0.15
439.872	0.16
440.229	0.16
440.586	0.15
440.943	0.16
441.3	0.16
441.657	0.17
442.014	0.17
442.371	0.16
442.728	0.16
443.085	0.17
443.442	0.16
443.799	0.17
444.156	0.16
444.513	0.17
444.869	0.16
445.226	0.17
445.583	0.17
445.939	0.17
446.296	0.16
446.652	0.17
447.009	0.17
447.365	0.17
447.722	0.17
448.078	0.17
448.434	0.17
448.791	0.17
449.147	0.16
449.503	0.17
449.859	0.16
450.215	0.16
450.571	0.17
450.928	0.17
451.284	0.17
451.64	0.17
451.995	0.17
452.351	0.17
452.707	0.17
453.063	0.16
453.419	0.17
453.775	0.17
454.13	0.16
454.486	0.17
454.842	0.17
455.197	0.17
455.553	0.16
455.908	0.15
456.264	0.16
456.619	0.15
456.975	0.16
457.33	0.16
457.685	0.15
458.04	0.14
458.396	0.15
458.751	0.14
459.106	0.14
459.461	0.14
459.816	0.14
460.171	0.13
460.526	0.14
460.881	0.12
461.236	0.12
461.591	0.12
461.946	0.12
462.301	0.11
462.655	0.12
463.01	0.11
463.365	0.11
463.719	0.09
464.074	0.09
464.428	0.09
464.783	0.09
465.137	0.08
465.492	0.08
465.846	0.09
466.201	0.09
466.555	0.09
466.909	0.09
467.263	0.11
467.618	0.1
467.972	0.11
468.326	0.1
468.68	0.09
469.034	0.1
469.388	0.09
469.742	0.1
470.096	0.11
470.45	0.11
470.804	0.11
471.157	0.11
471.511	0.11
471.865	0.11
472.218	0.12
472.572	0.12
472.926	0.14
473.279	0.14
473.633	0.15
473.986	0.16
474.34	0.16
474.693	0.18
475.046	0.19
475.4	0.2
475.753	0.21
476.106	0.22
476.459	0.23
476.812	0.24
477.165	0.25
477.519	0.26
477.872	0.27
478.224	0.27
478.577	0.28
478.93	0.3
479.283	0.3
479.636	0.31
479.989	0.31
480.341	0.33
480.694	0.34
481.047	0.34
481.399	0.35
481.752	0.36
482.104	0.36
482.457	0.38
482.809	0.38
483.162	0.38
483.514	0.4
483.866	0.4
484.219	0.41
484.571	0.41
484.923	0.42
485.275	0.42
485.627	0.43
485.979	0.43
486.331	0.45
486.683	0.45
487.035	0.46
487.387	0.47
487.739	0.48
488.091	0.48
488.443	0.49
488.794	0.49
489.146	0.5
489.498	0.5
489.849	0.51
490.201	0.51
490.552	0.51
490.904	0.51
491.255	0.52
491.607	0.53
491.958	0.54
492.309	0.54
492.661	0.55
493.012	0.55
493.363	0.55
493.714	0.56
494.065	0.57
494.416	0.56
494.767	0.57
495.118	0.58
495.469	0.58
495.82	0.59
496.171	0.59
496.522	0.6
496.872	0.61
497.223	0.61
497.574	0.61
497.924	0.62
498.275	0.63
498.626	0.63
498.976	0.64
499.327	0.64
499.677	0.65
500.027	0.66
500.378	0.66
500.728	0.66
501.078	0.67
501.428	0.67
501.779	0.68
502.129	0.68
502.479	0.68
502.829	0.7
503.179	0.7
503.529	0.7
503.879	0.71
504.229	0.71
504.578	0.72
504.928	0.72
505.278	0.73
505.628	0.73
505.977	0.74
506.327	0.74
506.676	0.74
507.026	0.75
507.375	0.76
507.725	0.76
508.074	0.76
508.424	0.77
508.773	0.78
509.122	0.77
509.471	0.78
509.82	0.78
510.17	0.79
510.519	0.79
510.868	0.79
511.217	0.8
511.566	0.81
511.915	0.81
512.263	0.82
512.612	0.82
512.961	0.82
513.31	0.82
513.659	0.82
514.007	0.83
514.356	0.85
514.704	0.84
515.053	0.85
515.401	0.85
515.75	0.86
516.098	0.85
516.447	0.86
516.795	0.86
517.143	0.86
517.491	0.87
517.839	0.87
518.188	0.88
518.536	0.88
518.884	0.89
519.232	0.89
519.58	0.89
519.928	0.88
520.275	0.9
520.623	0.91
520.971	0.9
521.319	0.91
521.666	0.91
522.014	0.91
522.362	0.92
522.709	0.92
523.057	0.93
523.404	0.93
523.752	0.93
524.099	0.94
524.446	0.93
524.794	0.93
525.141	0.94
525.488	0.94
525.835	0.95
526.182	0.96
526.529	0.97
526.876	0.96
527.223	0.96
527.57	0.97
527.917	0.97
528.264	0.96
528.611	0.97
528.958	0.96
529.304	0.98
529.651	0.98
529.998	0.98
530.344	0.97
530.691	0.99
531.037	0.98
531.384	0.99
531.73	0.99
532.076	1
532.423	0.99
532.769	0.99
533.115	0.99
533.461	1
533.807	1
534.154	1.01
534.5	1
534.846	1.01
535.192	1.01
535.537	1.02
535.883	1.01
536.229	1.02
536.575	1.03
536.921	1.02
537.266	1.03
537.612	1.03
537.957	1.02
538.303	1.02
538.649	1.03
538.994	1.04
539.339	1.04
539.685	1.03
540.03	1.03
540.375	1.04
540.721	1.03
541.066	1.03
541.411	1.04
541.756	1.04
542.101	1.03
542.446	1.04
542.791	1.04
543.136	1.05
543.481	1.04
543.825	1.04
544.17	1.06
544.515	1.05
544.86	1.04
545.204	1.04
545.549	1.05
545.893	1.04
546.238	1.04
546.582	1.05
546.927	1.05
547.271	1.05
547.615	1.05
547.96	1.06
548.304	1.06
548.648	1.05
548.992	1.05
549.336	1.05
549.68	1.05
550.024	1.06
550.368	1.05
550.712	1.06
551.056	1.06
551.4	1.05
551.743	1.05
552.087	1.05
552.431	1.05
552.774	1.06
553.118	1.05
553.462	1.05
553.805	1.05
554.148	1.05
554.492	1.05
554.835	1.05
555.178	1.05
555.522	1.05
555.865	1.05
556.208	1.05
556.551	1.05
556.894	1.05
557.237	1.04
557.58	1.05
557.923	1.05
558.266	1.05
558.609	1.04
558.952	1.03
559.294	1.05
559.637	1.04
559.98	1.04
560.322	1.04
560.665	1.04
561.007	1.04
561.35	1.04
561.692	1.03
562.034	1.03
562.377	1.03
562.719	1.02
563.061	1.03
563.403	1.02
563.745	1.03
564.088	1.03
564.43	1.02
564.772	1.02
565.113	1.02
565.455	1.02
565.797	1.02
566.139	1.02
566.481	1.01
566.822	1.01
567.164	1.02
567.506	1.01
567.847	1.01
568.189	1
568.53	1
568.872	1.01
569.213	1.01
569.554	1
569.895	1
570.237	1
570.578	1
570.919	1
571.26	0.99
571.601	0.98
571.942	0.99
572.283	0.98
572.624	0.98
572.965	0.98
573.306	0.98
573.646	0.97
573.987	0.97
574.328	0.98
574.668	0.97
575.009	0.96
575.349	0.96
575.69	0.95
576.03	0.96
576.37	0.95
576.711	0.95
577.051	0.96
577.391	0.96
577.731	0.95
578.072	0.94
578.412	0.95
578.752	0.94
579.092	0.94
579.431	0.93
579.771	0.91
580.111	0.91
580.451	0.92
580.791	0.93
581.13	0.93
581.47	0.93
581.81	0.93
582.149	0.92
582.489	0.92
582.828	0.91
583.167	0.89
583.507	0.86
583.846	0.85
584.185	0.89
584.525	0.9
584.864	0.91
585.203	0.91
585.542	0.92
585.881	0.91
586.22	0.91
586.559	0.9
586.898	0.89
587.236	0.89
587.575	0.89
587.914	0.9
588.252	0.9
588.591	0.9
588.93	0.89
589.268	0.89
589.607	0.89
589.945	0.89
590.283	0.89
590.622	0.9
590.96	0.9
591.298	0.89
591.636	0.89
591.974	0.9
592.313	0.89
592.651	0.89
592.989	0.89
593.326	0.89
593.664	0.88
594.002	0.89
594.34	0.88
594.678	0.88
595.015	0.88
595.353	0.87
595.691	0.88
596.028	0.88
596.366	0.88
596.703	0.88
597.04	0.88
597.378	0.88
597.715	0.88
598.052	0.88
598.389	0.88
598.726	0.88
599.064	0.87
599.401	0.87
599.738	0.88
600.074	0.87
600.411	0.87
600.748	0.86
601.085	0.86
601.422	0.86
601.758	0.86
602.095	0.86
602.432	0.86
602.768	0.86
603.105	0.86
603.441	0.86
603.777	0.86
604.114	0.86
604.45	0.86
604.786	0.85
605.122	0.85
605.459	0.85
605.795	0.85
606.131	0.85
606.467	0.84
606.803	0.84
607.139	0.84
607.474	0.83
607.81	0.83
608.146	0.83
608.482	0.83
608.817	0.83
609.153	0.82
609.488	0.82
609.824	0.82
610.159	0.83
610.495	0.82
610.83	0.82
611.165	0.82
611.5	0.81
611.836	0.8
612.171	0.81
612.506	0.8
612.841	0.8
613.176	0.8
613.511	0.79
613.845	0.79
614.18	0.78
614.515	0.79
614.85	0.78
615.184	0.78
615.519	0.78
615.854	0.77
616.188	0.77
616.523	0.77
616.857	0.77
617.191	0.76
617.526	0.76
617.86	0.76
618.194	0.76
618.528	0.75
618.862	0.76
619.196	0.75
619.53	0.75
619.864	0.75
620.198	0.74
620.532	0.74
620.866	0.74
621.2	0.74
621.533	0.73
621.867	0.73
622.201	0.72
622.534	0.72
622.868	0.72
623.201	0.71
623.534	0.71
623.868	0.71
624.201	0.71
624.534	0.7
624.868	0.7
625.201	0.7
625.534	0.69
625.867	0.69
626.2	0.69
626.533	0.69
626.865	0.68
627.198	0.68
627.531	0.68
627.864	0.68
628.196	0.67
628.529	0.66
628.862	0.67
629.194	0.66
629.527	0.66
629.859	0.65
630.191	0.65
630.524	0.64
630.856	0.64
631.188	0.64
631.52	0.63
631.852	0.63
632.184	0.62
632.516	0.62
632.848	0.62
633.18	0.62
633.512	0.61
633.844	0.61
634.175	0.6
634.507	0.6
634.839	0.59
635.17	0.6
635.502	0.59
635.833	0.59
636.165	0.58
636.496	0.58
636.827	0.57
637.159	0.57
637.49	0.57
637.821	0.56
638.152	0.56
638.483	0.55
638.814	0.55
639.145	0.54
639.476	0.54
639.807	0.54
640.137	0.54
640.468	0.53
640.799	0.53
641.129	0.52
641.46	0.52
641.791	0.52
642.121	0.52
642.451	0.51
642.782	0.51
643.112	0.51
643.442	0.51
643.773	0.5
644.103	0.5
644.433	0.5
644.763	0.49
645.093	0.49
645.423	0.49
645.753	0.49
646.082	0.48
646.412	0.48
646.742	0.48
647.072	0.48
647.401	0.48
647.731	0.47
648.06	0.47
648.39	0.47
648.719	0.47
649.048	0.46
649.378	0.46
649.707	0.46
650.036	0.45
650.365	0.45
650.694	0.45
651.023	0.45
651.352	0.45
651.681	0.45
652.01	0.45
652.339	0.44
652.668	0.44
652.996	0.44
653.325	0.44
653.654	0.44
653.982	0.44
654.311	0.44
654.639	0.43
654.967	0.43
655.296	0.43
655.624	0.43
655.952	0.43
656.28	0.43
656.609	0.43
656.937	0.42
657.265	0.41
657.593	0.26
657.92	0.17
658.248	0.15
658.576	0.23
658.904	0.35
659.231	0.41
659.559	0.41
659.887	0.41
660.214	0.41
660.542	0.41
660.869	0.4
661.196	0.4
661.524	0.4
661.851	0.4
662.178	0.4
662.505	0.4
662.832	0.39
663.159	0.39
663.486	0.39
663.813	0.39
664.14	0.39
664.467	0.39
664.794	0.39
665.12	0.39
665.447	0.38
665.774	0.38
666.1	0.38
666.427	0.37
666.753	0.37
667.079	0.37
667.406	0.37
667.732	0.37
668.058	0.37
668.384	0.36
668.71	0.36
669.036	0.36
669.362	0.36
669.688	0.36
670.014	0.35
670.34	0.35
670.666	0.35
670.991	0.35
671.317	0.34
671.643	0.34
671.968	0.34
672.294	0.34
672.619	0.33
672.945	0.33
673.27	0.33
673.595	0.33
673.92	0.32
674.246	0.32
674.571	0.32
674.896	0.32
675.221	0.32
675.546	0.32
675.87	0.31
676.195	0.31
676.52	0.31
676.845	0.3
677.169	0.3
677.494	0.3
677.819	0.29
678.143	0.29
678.468	0.29
678.792	0.29
679.116	0.29
679.44	0.28
679.765	0.28
680.089	0.28
680.413	0.27
680.737	0.27
681.061	0.27
681.385	0.26
681.709	0.26
682.033	0.26
682.356	0.26
682.68	0.26
683.004	0.25
683.327	0.25
683.651	0.24
683.974	0.25
684.298	0.24
684.621	0.24
684.944	0.24
685.268	0.23
685.591	0.23
685.914	0.23
686.237	0.22
686.56	0.22
686.883	0.22
687.206	0.22
687.529	0.21
687.852	0.21
688.175	0.21
688.497	0.21
688.82	0.21
689.142	0.21
689.465	0.2
689.787	0.2
690.11	0.2
690.432	0.19
690.755	0.19
691.077	0.19
691.399	0.19
691.721	0.19
692.043	0.19
692.365	0.18
692.687	0.18
693.009	0.17
693.331	0.17
693.653	0.17
693.974	0.17
694.296	0.17
694.618	0.17
694.939	0.17
695.261	0.17
695.582	0.16
695.904	0.16
696.225	0.16
696.546	0.16
696.868	0.16
697.189	0.16
697.51	0.15
697.831	0.15
698.152	0.16
698.473	0.15
698.794	0.14
699.114	0.15
699.435	0.14
699.756	0.14
700.077	0.14
700.397	0.14
700.718	0.14
701.038	0.14
701.359	0.14
701.679	0.14
701.999	0.14
702.32	0.14
702.64	0.14
702.96	0.14
703.28	0.14
703.6	0.13
703.92	0.13
704.24	0.13
704.56	0.13
704.879	0.13
705.199	0.13
705.519	0.13
705.838	0.13
706.158	0.13
706.478	0.13
706.797	0.13
707.116	0.13
707.436	0.13
707.755	0.13
708.074	0.12
708.393	0.12
708.712	0.12
709.031	0.11
709.35	0.11
709.669	0.11
709.988	0.11
710.307	0.11
710.626	0.12
710.944	0.12
711.263	0.12
711.582	0.12
711.9	0.12
712.219	0.12
712.537	0.12
712.855	0.12
713.174	0.12
713.492	0.12
713.81	0.12
714.128	0.12
714.446	0.12
714.764	0.12
715.082	0.11
715.4	0.12
715.718	0.12
716.035	0.12
716.353	0.12
716.671	0.12
716.988	0.12
717.306	0.12
717.623	0.12
717.941	0.13
718.258	0.12
718.575	0.12
718.893	0.12
719.21	0.12
719.527	0.12
719.844	0.12
720.161	0.12
720.478	0.12
720.795	0.12
721.112	0.13
721.428	0.13
721.745	0.12
722.062	0.12
722.378	0.13
722.695	0.13
723.011	0.13
723.328	0.13
723.644	0.13
723.96	0.13
724.276	0.13
724.593	0.13
724.909	0.13
725.225	0.13
725.541	0.13
725.857	0.13
726.173	0.13
726.488	0.13
726.804	0.13
727.12	0.13
727.435	0.13
727.751	0.13
728.067	0.13
728.382	0.13
728.697	0.13
729.013	0.13
729.328	0.13
729.643	0.13
729.958	0.12
730.273	0.13
730.588	0.12
730.903	0.13
731.218	0.12
731.533	0.12
731.848	0.12
732.163	0.12
732.477	0.12
732.792	0.12
733.107	0.12
733.421	0.12
733.736	0.12
734.05	0.12
734.364	0.12
734.678	0.12
734.993	0.12
735.307	0.12
735.621	0.12
735.935	0.12
736.249	0.12
736.563	0.12
736.877	0.12
737.19	0.12
737.504	0.12
737.818	0.12
738.131	0.12
738.445	0.12
738.758	0.12
739.072	0.12
739.385	0.11
739.698	0.11
740.012	0.12
740.325	0.11
740.638	0.11
740.951	0.11
741.264	0.11
741.577	0.11
741.89	0.11
742.203	0.11
742.515	0.11
742.828	0.11
743.141	0.11
743.453	0.11
743.766	0.1
744.078	0.1
744.391	0.1
744.703	0.1
745.015	0.1
745.327	0.1
745.639	0.1
745.952	0.1
746.264	0.1
746.575	0.1
746.887	0.1
747.199	0.1
747.511	0.09
747.823	0.09
748.134	0.09
748.446	0.09
748.757	0.09
749.069	0.09
749.38	0.09
749.692	0.09
750.003	0.09
750.314	0.09
750.625	0.09
750.936	0.09
751.248	0.08
751.559	0.08
751.869	0.08
752.18	0.08
752.491	0.08
752.802	0.08
753.112	0.08
753.423	0.08
753.734	0.08
754.044	0.08
754.355	0.08
754.665	0.08
754.975	0.08
755.285	0.07
755.596	0.07
755.906	0.08
756.216	0.08
756.526	0.07
756.836	0.07
757.146	0.07
757.455	0.07
757.765	0.07
758.075	0.07
758.385	0.07
758.694	0.07
759.004	0.07
759.313	0.07
759.622	0.07
759.932	0.07
760.241	0.07
760.55	0.07
760.859	0.07
761.168	0.07
761.477	0.07
761.786	0.07
762.095	0.06
762.404	0.06
762.713	0.07
763.021	0.07
763.33	0.06
763.639	0.06
763.947	0.06
764.256	0.07
764.564	0.07
764.872	0.06
765.181	0.07
765.489	0.06
765.797	0.06
766.105	0.06
766.413	0.06
766.721	0.07
767.029	0.07
767.337	0.06
767.644	0.06
767.952	0.07
768.26	0.06
768.567	0.06
768.875	0.06
769.182	0.06
769.49	0.06
769.797	0.06
770.104	0.06
770.411	0.06
770.718	0.06
771.026	0.06
771.333	0.06
771.639	0.06
771.946	0.06
772.253	0.06
772.56	0.07
772.867	0.07
773.173	0.06
773.48	0.06
773.786	0.06
774.093	0.06
774.399	0.06
774.705	0.06
775.012	0.06
775.318	0.07
775.624	0.06
775.93	0.06
776.236	0.06
776.542	0.06
776.848	0.06
777.154	0.06
777.459	0.06
777.765	0.06
778.071	0.07
778.376	0.07
778.682	0.07
778.987	0.07
779.292	0.07
779.598	0.06
779.903	0.07
780.208	0.07
780.513	0.07
780.818	0.07
781.123	0.07
781.428	0.07
781.733	0.07
782.038	0.07
782.343	0.07
782.647	0.07
782.952	0.07
783.256	0.07
783.561	0.07
783.865	0.07
784.17	0.07
784.474	0.07
784.778	0.07
785.082	0.07
785.386	0.07
785.69	0.07
785.994	0.07
786.298	0.07
786.602	0.07
786.906	0.07
787.209	0.07
787.513	0.07
787.817	0.07
788.12	0.07
788.424	0.07
788.727	0.07
789.03	0.07
789.333	0.07
789.637	0.07
789.94	0.07
790.243	0.07
790.546	0.07
790.849	0.07
791.152	0.07
791.454	0.07
791.757	0.07
792.06	0.08
792.362	0.08
792.665	0.08
792.967	0.08
793.27	0.08
793.572	0.08
793.874	0.07
794.177	0.07
794.479	0.08
794.781	0.08
795.083	0.07
795.385	0.08
795.687	0.08
795.989	0.08
796.29	0.08
796.592	0.08
796.894	0.08
797.195	0.08
797.497	0.08
797.798	0.09
798.1	0.09
798.401	0.08
798.702	0.09
799.003	0.08
799.304	0.09
799.605	0.08
799.906	0.09
800.207	0.08
800.508	0.08
800.809	0.09
801.11	0.09
801.41	0.09
801.711	0.09
802.011	0.09
802.312	0.09
802.612	0.09
802.913	0.09
803.213	0.09
803.513	0.09
803.813	0.09
804.113	0.09
804.413	0.09
804.713	0.09
805.013	0.09
805.313	0.09
805.613	0.09
805.912	0.09
806.212	0.1
806.511	0.09
806.811	0.09
807.11	0.09
807.41	0.09
807.709	0.09
808.008	0.09
808.307	0.09
808.606	0.09
808.905	0.09
809.204	0.09
809.503	0.1
809.802	0.09
810.101	0.1
810.399	0.1
810.698	0.1
810.997	0.1
811.295	0.1
811.593	0.1
811.892	0.1
812.19	0.1
812.488	0.1
812.786	0.1
813.084	0.11
813.383	0.11
813.68	0.11
813.978	0.11
814.276	0.11
814.574	0.1
814.872	0.1
815.169	0.11
815.467	0.1
815.764	0.1
816.062	0.11
816.359	0.11
816.656	0.11
816.954	0.1
817.251	0.1
817.548	0.11
817.845	0.11
818.142	0.11
818.439	0.11
818.735	0.11
819.032	0.11
819.329	0.11
819.626	0.11
819.922	0.12
820.219	0.12
820.515	0.11
820.811	0.11
821.108	0.11
821.404	0.11
821.7	0.12
821.996	0.12
822.292	0.11
822.588	0.11
822.884	0.12
823.18	0.12
823.475	0.11
823.771	0.12
824.067	0.11
824.362	0.12
824.658	0.11
824.953	0.12
825.249	0.12
825.544	0.12
825.839	0.12
826.134	0.12
826.429	0.12
826.724	0.12
827.019	0.12
827.314	0.13
827.609	0.12
827.904	0.13
828.198	0.13
828.493	0.13
828.787	0.12
829.082	0.12
829.376	0.12
829.671	0.13
829.965	0.13
830.259	0.13
830.553	0.13
830.847	0.13
831.141	0.13
831.435	0.13
831.729	0.14
832.023	0.14
832.317	0.13
832.61	0.13
832.904	0.13
833.197	0.14
833.491	0.14
833.784	0.13
834.077	0.13
834.371	0.13
834.664	0.13
834.957	0.13
835.25	0.14
835.543	0.14
835.836	0.15
836.129	0.14
836.421	0.15
836.714	0.14
837.007	0.14
837.299	0.14
837.592	0.14
837.884	0.14
838.177	0.13
838.469	0.15
838.761	0.14
839.053	0.14
839.345	0.15
839.637	0.14
839.929	0.13
840.221	0.14
840.513	0.14
840.805	0.15
841.096	0.14
841.388	0.15
841.68	0.14
841.971	0.14
842.262	0.16
842.554	0.15
842.845	0.15
843.136	0.15
843.427	0.15
843.718	0.15
844.009	0.15
844.3	0.15
844.591	0.15
844.882	0.15
845.173	0.15
845.463	0.17
845.754	0.14
846.044	0.15
846.335	0.15
846.625	0.16
846.915	0.15
847.206	0.16
847.496	0.15
847.786	0.16
848.076	0.16
848.366	0.16
848.656	0.16
848.945	0.16
849.235	0.15
849.525	0.16
849.814	0.16
850.104	0.16
850.393	0.16
850.683	0.16
850.972	0.17
851.261	0.17
851.551	0.17
851.84	0.16
852.129	0.17
852.418	0.16
852.707	0.16
852.995	0.16
853.284	0.16
853.573	0.16
853.862	0.16
854.15	0.17
854.439	0.17
854.727	0.17
855.015	0.17
855.304	0.17
855.592	0.18
855.88	0.16
856.168	0.17
856.456	0.18
856.744	0.17
857.032	0.16
857.32	0.18
857.607	0.18
857.895	0.17
858.183	0.18
858.47	0.18
858.757	0.18
859.045	0.17
859.332	0.18
859.619	0.17
859.907	0.18
860.194	0.18
860.481	0.18
860.768	0.18
861.054	0.2
861.341	0.18
861.628	0.17
861.915	0.19
862.201	0.19
862.488	0.19
862.774	0.16
863.061	0.18
863.347	0.19
863.633	0.18
863.919	0.2
864.205	0.19
864.491	0.18
864.777	0.18
865.063	0.19
865.349	0.17
865.635	0.19
865.92	0.16
866.206	0.17
866.492	0.18
866.777	0.16
867.062	0.15
867.348	0.15
867.633	0.19
867.918	0.22
868.203	0.18
868.488	0.18
868.773	0.19
869.058	0.22
869.343	0.23
869.628	0.17
869.912	0.17
870.197	0.2
870.482	0.24
870.766	0.17
871.05	0.24
871.335	0.15
871.619	0.14
871.903	0.17
872.187	0.19
872.471	0.26
872.755	0.19
873.039	0.17
873.323	0.18
873.607	0.18
873.89	0.16
874.174	0.18
874.458	0.13
874.741	0.24
875.024	0.16
875.308	0.16
875.591	0.12
875.874	0.2
876.157	0.15
876.44	0.18
876.723	0.19
877.006	0.23
877.289	0.16
877.572	0.31
877.854	0.17
878.137	0.28
878.42	0.22
878.702	0.13
878.984	0.08
879.267	0.14
879.549	0.36
879.831	0.22
880.113	0.13
880.395	0.21
880.677	0.1
880.959	0.11
