Data from Rubpy_BV_1800_EDTA_Buffered_Absorbance_16-50-21-524.txt Node
Date: Wed Jul 01 16:50:21 BST 2026
User: fpm-admin
Spectrometer: OFX00224
Trigger mode: 0
Integration Time (sec): 7.000000E-2
Scans to average: 3
Nonlinearity correction enabled: false
Boxcar width: 0
Storing dark spectrum: false
XAxis mode: Wavelengths
Number of Pixels in Spectrum: 2136
>>>>>Begin Spectral Data<<<<<
154.91	-0
155.289	0.14
155.669	-0
156.048	-0.37
156.428	-0
156.807	0.16
157.186	-1.4
157.566	0.1
157.945	-0
158.325	0.02
158.704	0.2
159.083	0.12
159.462	-0
159.842	-0
160.221	-0
160.6	-0
160.979	-0
161.359	-0.18
161.738	-0.69
162.117	-0
162.496	-0.16
162.875	-0
163.254	0.06
163.633	-0
164.012	-0.15
164.391	0.21
164.77	0.31
165.149	-0
165.528	-0
165.907	-0
166.286	-0
166.665	-0
167.044	-0
167.423	1.03
167.802	-0.6
168.181	-1.4
168.559	-0.89
168.938	0.62
169.317	-0
169.696	-1.36
170.074	-0.08
170.453	-0.19
170.832	-1.23
171.21	-0
171.589	-0
171.968	0.13
172.346	-0
172.725	-0
173.103	-0.24
173.482	0.85
173.861	0.3
174.239	-0.04
174.617	-0.54
174.996	0.62
175.374	-0.54
175.753	-0.87
176.131	-0
176.51	-0.65
176.888	1.17
177.266	-0
177.645	-0.02
178.023	0.22
178.401	-0.1
178.779	-0.12
179.158	-0
179.536	-0.08
179.914	-0.09
180.292	0.25
180.67	-0.12
181.048	0.7
181.427	-0.81
181.805	-0
182.183	-0.62
182.561	0.19
182.939	0.18
183.317	-0.58
183.695	-0.19
184.073	-0
184.451	-1.04
184.829	-0.54
185.206	-0.54
185.584	-0
185.962	-0.47
186.34	-0.56
186.718	0.01
187.096	-0
187.473	-0.81
187.851	-0.43
188.229	-0.4
188.607	0.35
188.984	0.23
189.362	0.27
189.74	0.39
190.117	0.27
190.495	0.55
190.872	0.24
191.25	0.29
191.627	0.34
192.005	0.33
192.382	0.31
192.76	0.4
193.137	0.52
193.515	0.36
193.892	0.27
194.269	0.36
194.647	0.23
195.024	0.25
195.401	0.41
195.779	0.31
196.156	0.55
196.533	0.27
196.91	0.29
197.288	0.37
197.665	0.17
198.042	0.23
198.419	0.26
198.796	0.21
199.173	0.34
199.55	0.27
199.927	0.31
200.304	0.37
200.681	0.23
201.058	0.18
201.435	0.59
201.812	0.32
202.189	0.37
202.566	0.5
202.943	0.18
203.32	0.47
203.697	0.48
204.073	0.27
204.45	0.58
204.827	0.22
205.204	0.35
205.58	0.44
205.957	0.32
206.334	0.25
206.71	0.39
207.087	0.26
207.464	0.51
207.84	0.47
208.217	0.27
208.593	0.24
208.97	0.36
209.346	0.36
209.723	0.3
210.099	0.5
210.476	0.31
210.852	0.39
211.228	0.28
211.605	0.31
211.981	0.42
212.357	0.44
212.733	0.18
213.11	0.55
213.486	0.44
213.862	0.42
214.238	0.33
214.614	0.35
214.991	0.48
215.367	0.46
215.743	0.33
216.119	0.31
216.495	0.41
216.871	0.34
217.247	0.33
217.623	0.26
217.999	0.4
218.375	0.44
218.751	0.34
219.127	0.44
219.502	0.31
219.878	0.3
220.254	0.47
220.63	0.43
221.006	0.36
221.381	0.41
221.757	0.35
222.133	0.43
222.508	0.4
222.884	0.36
223.26	0.56
223.635	0.46
224.011	0.29
224.386	0.35
224.762	0.51
225.137	0.36
225.513	0.22
225.888	0.4
226.264	0.39
226.639	0.29
227.014	0.38
227.39	0.34
227.765	0.31
228.14	0.4
228.516	0.4
228.891	0.45
229.266	0.4
229.641	0.19
230.017	0.48
230.392	0.32
230.767	0.36
231.142	0.54
231.517	0.3
231.892	0.31
232.267	0.28
232.642	0.4
233.017	0.33
233.392	0.42
233.767	0.34
234.142	0.6
234.517	0.26
234.892	0.36
235.267	0.31
235.641	0.57
236.016	0.37
236.391	0.49
236.766	0.29
237.14	0.64
237.515	0.79
237.89	0.36
238.264	0.47
238.639	0.3
239.014	0.39
239.388	0.37
239.763	0.33
240.137	0.33
240.512	0.39
240.886	0.53
241.261	0.52
241.635	0.28
242.009	0.48
242.384	0.32
242.758	0.6
243.132	0.41
243.507	0.32
243.881	0.62
244.255	0.36
244.629	0.36
245.004	0.49
245.378	0.55
245.752	0.35
246.126	0.35
246.5	0.32
246.874	0.39
247.248	0.3
247.622	0.4
247.996	0.39
248.37	0.29
248.744	0.24
249.118	0.43
249.492	0.38
249.866	0.37
250.24	0.36
250.613	0.56
250.987	0.33
251.361	0.38
251.735	0.58
252.108	0.49
252.482	0.27
252.856	0.23
253.229	0.37
253.603	0.38
253.977	0.39
254.35	0.32
254.724	0.36
255.097	0.28
255.471	0.5
255.844	0.48
256.218	0.41
256.591	0.35
256.964	0.43
257.338	0.25
257.711	0.38
258.084	0.43
258.458	0.42
258.831	0.46
259.204	0.33
259.577	0.38
259.95	0.36
260.323	0.38
260.697	0.24
261.07	0.38
261.443	0.51
261.816	0.41
262.189	0.41
262.562	0.36
262.935	0.52
263.308	0.3
263.68	0.38
264.053	0.45
264.426	0.31
264.799	0.44
265.172	0.37
265.545	0.34
265.917	0.41
266.29	0.44
266.663	0.51
267.035	0.4
267.408	0.49
267.781	0.42
268.153	0.34
268.526	0.39
268.898	0.47
269.271	0.37
269.643	0.51
270.016	0.34
270.388	0.37
270.76	0.45
271.133	0.45
271.505	0.49
271.877	0.2
272.25	0.34
272.622	0.39
272.994	0.51
273.366	0.47
273.739	0.32
274.111	0.46
274.483	0.35
274.855	0.35
275.227	0.52
275.599	0.37
275.971	0.39
276.343	0.38
276.715	0.34
277.087	0.4
277.459	0.26
277.831	0.27
278.203	0.43
278.574	0.24
278.946	0.44
279.318	0.41
279.69	0.38
280.061	0.36
280.433	0.28
280.805	0.38
281.176	0.32
281.548	0.46
281.92	0.39
282.291	0.44
282.663	0.36
283.034	0.34
283.406	0.4
283.777	0.35
284.148	0.28
284.52	0.39
284.891	0.4
285.262	0.34
285.634	0.45
286.005	0.4
286.376	0.42
286.747	0.32
287.119	0.25
287.49	0.36
287.861	0.33
288.232	0.41
288.603	0.37
288.974	0.3
289.345	0.42
289.716	0.43
290.087	0.31
290.458	0.41
290.829	0.49
291.2	0.39
291.571	0.45
291.941	0.39
292.312	0.33
292.683	0.4
293.054	0.43
293.424	0.34
293.795	0.37
294.166	0.41
294.536	0.47
294.907	0.4
295.277	0.44
295.648	0.44
296.018	0.45
296.389	0.29
296.759	0.47
297.13	0.48
297.5	0.44
297.871	0.37
298.241	0.51
298.611	0.4
298.981	0.39
299.352	0.44
299.722	0.39
300.092	0.36
300.462	0.45
300.832	0.48
301.202	0.46
301.573	0.4
301.943	0.48
302.313	0.41
302.683	0.38
303.053	0.41
303.422	0.3
303.792	0.37
304.162	0.35
304.532	0.39
304.902	0.33
305.272	0.39
305.641	0.33
306.011	0.27
306.381	0.39
306.75	0.37
307.12	0.24
307.49	0.35
307.859	0.35
308.229	0.35
308.598	0.29
308.968	0.29
309.337	0.27
309.707	0.31
310.076	0.23
310.445	0.29
310.815	0.25
311.184	0.29
311.553	0.27
311.923	0.24
312.292	0.27
312.661	0.28
313.03	0.27
313.399	0.28
313.768	0.29
314.137	0.27
314.506	0.28
314.875	0.31
315.244	0.27
315.613	0.27
315.982	0.31
316.351	0.31
316.72	0.28
317.089	0.29
317.458	0.31
317.826	0.31
318.195	0.31
318.564	0.32
318.933	0.32
319.301	0.32
319.67	0.32
320.038	0.34
320.407	0.34
320.775	0.34
321.144	0.34
321.512	0.33
321.881	0.35
322.249	0.37
322.618	0.37
322.986	0.36
323.354	0.37
323.723	0.36
324.091	0.39
324.459	0.4
324.827	0.39
325.195	0.4
325.564	0.39
325.932	0.41
326.3	0.41
326.668	0.42
327.036	0.42
327.404	0.44
327.772	0.44
328.14	0.44
328.508	0.44
328.875	0.44
329.243	0.47
329.611	0.46
329.979	0.48
330.346	0.48
330.714	0.49
331.082	0.5
331.449	0.51
331.817	0.51
332.185	0.52
332.552	0.54
332.92	0.54
333.287	0.56
333.655	0.56
334.022	0.58
334.389	0.58
334.757	0.6
335.124	0.6
335.491	0.63
335.859	0.63
336.226	0.63
336.593	0.64
336.96	0.66
337.327	0.67
337.695	0.68
338.062	0.71
338.429	0.71
338.796	0.72
339.163	0.74
339.53	0.75
339.897	0.77
340.263	0.78
340.63	0.78
340.997	0.81
341.364	0.82
341.731	0.83
342.097	0.84
342.464	0.87
342.831	0.88
343.197	0.89
343.564	0.9
343.931	0.92
344.297	0.94
344.664	0.96
345.03	0.96
345.396	0.98
345.763	1
346.129	1
346.496	1.01
346.862	1.03
347.228	1.04
347.594	1.05
347.961	1.07
348.327	1.09
348.693	1.1
349.059	1.11
349.425	1.14
349.791	1.14
350.157	1.14
350.523	1.16
350.889	1.17
351.255	1.18
351.621	1.21
351.987	1.21
352.353	1.21
352.719	1.23
353.084	1.26
353.45	1.26
353.816	1.28
354.181	1.31
354.547	1.32
354.913	1.34
355.278	1.35
355.644	1.35
356.009	1.37
356.375	1.38
356.74	1.38
357.106	1.43
357.471	1.43
357.836	1.45
358.202	1.49
358.567	1.47
358.932	1.51
359.297	1.52
359.663	1.54
360.028	1.56
360.393	1.57
360.758	1.59
361.123	1.6
361.488	1.62
361.853	1.66
362.218	1.66
362.583	1.65
362.948	1.72
363.312	1.75
363.677	1.74
364.042	1.75
364.407	1.76
364.772	1.78
365.136	1.76
365.501	1.76
365.865	1.81
366.23	1.8
366.595	1.82
366.959	1.8
367.324	1.85
367.688	1.85
368.052	1.87
368.417	1.84
368.781	1.86
369.145	1.89
369.51	1.89
369.874	1.91
370.238	1.9
370.602	1.86
370.967	1.92
371.331	1.87
371.695	1.91
372.059	1.91
372.423	1.93
372.787	1.9
373.151	1.89
373.515	1.9
373.878	1.89
374.242	1.88
374.606	1.9
374.97	1.91
375.334	1.88
375.697	1.85
376.061	1.82
376.425	1.83
376.788	1.89
377.152	1.82
377.515	1.8
377.879	1.79
378.242	1.79
378.606	1.79
378.969	1.75
379.333	1.75
379.696	1.74
380.059	1.73
380.422	1.66
380.786	1.65
381.149	1.67
381.512	1.61
381.875	1.6
382.238	1.6
382.601	1.57
382.964	1.55
383.327	1.54
383.69	1.54
384.053	1.48
384.416	1.5
384.779	1.46
385.142	1.46
385.504	1.44
385.867	1.43
386.23	1.41
386.593	1.42
386.955	1.41
387.318	1.39
387.68	1.4
388.043	1.37
388.405	1.38
388.768	1.38
389.13	1.37
389.493	1.37
389.855	1.34
390.217	1.32
390.58	1.32
390.942	1.31
391.304	1.29
391.666	1.28
392.028	1.25
392.391	1.24
392.753	1.22
393.115	1.21
393.477	1.2
393.839	1.18
394.201	1.17
394.563	1.16
394.924	1.15
395.286	1.15
395.648	1.15
396.01	1.15
396.371	1.16
396.733	1.18
397.095	1.2
397.456	1.21
397.818	1.24
398.18	1.27
398.541	1.29
398.903	1.31
399.264	1.34
399.625	1.36
399.987	1.38
400.348	1.39
400.709	1.42
401.071	1.43
401.432	1.42
401.793	1.43
402.154	1.41
402.515	1.39
402.876	1.37
403.238	1.32
403.599	1.32
403.96	1.29
404.32	1.23
404.681	1.19
405.042	1.15
405.403	1.11
405.764	1.06
406.125	1
406.485	0.96
406.846	0.9
407.207	0.85
407.567	0.81
407.928	0.78
408.288	0.74
408.649	0.69
409.009	0.64
409.37	0.62
409.73	0.59
410.091	0.55
410.451	0.53
410.811	0.5
411.171	0.48
411.532	0.45
411.892	0.43
412.252	0.42
412.612	0.4
412.972	0.38
413.332	0.36
413.692	0.36
414.052	0.33
414.412	0.32
414.772	0.32
415.132	0.3
415.492	0.29
415.851	0.28
416.211	0.27
416.571	0.27
416.931	0.26
417.29	0.25
417.65	0.25
418.009	0.24
418.369	0.23
418.728	0.23
419.088	0.23
419.447	0.22
419.807	0.22
420.166	0.21
420.525	0.21
420.884	0.2
421.244	0.2
421.603	0.19
421.962	0.19
422.321	0.19
422.68	0.19
423.039	0.18
423.398	0.18
423.757	0.18
424.116	0.18
424.475	0.17
424.834	0.17
425.193	0.17
425.551	0.17
425.91	0.17
426.269	0.16
426.628	0.16
426.986	0.16
427.345	0.16
427.703	0.16
428.062	0.18
428.42	0.17
428.779	0.16
429.137	0.16
429.496	0.16
429.854	0.15
430.212	0.15
430.57	0.15
430.929	0.15
431.287	0.15
431.645	0.15
432.003	0.15
432.361	0.15
432.719	0.14
433.077	0.15
433.435	0.14
433.793	0.15
434.151	0.15
434.509	0.15
434.866	0.15
435.224	0.14
435.582	0.16
435.94	0.15
436.297	0.15
436.655	0.15
437.012	0.15
437.37	0.15
437.727	0.15
438.085	0.16
438.442	0.14
438.8	0.15
439.157	0.14
439.514	0.14
439.872	0.14
440.229	0.14
440.586	0.14
440.943	0.15
441.3	0.15
441.657	0.16
442.014	0.15
442.371	0.15
442.728	0.14
443.085	0.15
443.442	0.14
443.799	0.15
444.156	0.15
444.513	0.15
444.869	0.14
445.226	0.15
445.583	0.15
445.939	0.15
446.296	0.14
446.652	0.15
447.009	0.15
447.365	0.16
447.722	0.16
448.078	0.15
448.434	0.15
448.791	0.16
449.147	0.16
449.503	0.15
449.859	0.14
450.215	0.15
450.571	0.16
450.928	0.16
451.284	0.16
451.64	0.16
451.995	0.15
452.351	0.16
452.707	0.15
453.063	0.15
453.419	0.15
453.775	0.15
454.13	0.14
454.486	0.15
454.842	0.15
455.197	0.15
455.553	0.14
455.908	0.14
456.264	0.14
456.619	0.14
456.975	0.14
457.33	0.14
457.685	0.14
458.04	0.13
458.396	0.13
458.751	0.13
459.106	0.12
459.461	0.13
459.816	0.12
460.171	0.12
460.526	0.12
460.881	0.11
461.236	0.1
461.591	0.1
461.946	0.1
462.301	0.1
462.655	0.1
463.01	0.1
463.365	0.09
463.719	0.08
464.074	0.07
464.428	0.07
464.783	0.06
465.137	0.06
465.492	0.07
465.846	0.07
466.201	0.07
466.555	0.08
466.909	0.08
467.263	0.09
467.618	0.08
467.972	0.09
468.326	0.08
468.68	0.08
469.034	0.07
469.388	0.07
469.742	0.08
470.096	0.09
470.45	0.09
470.804	0.1
471.157	0.09
471.511	0.09
471.865	0.09
472.218	0.1
472.572	0.11
472.926	0.11
473.279	0.12
473.633	0.13
473.986	0.14
474.34	0.14
474.693	0.16
475.046	0.18
475.4	0.18
475.753	0.19
476.106	0.2
476.459	0.2
476.812	0.22
477.165	0.22
477.519	0.23
477.872	0.25
478.224	0.25
478.577	0.26
478.93	0.26
479.283	0.27
479.636	0.28
479.989	0.29
480.341	0.3
480.694	0.31
481.047	0.31
481.399	0.32
481.752	0.32
482.104	0.33
482.457	0.34
482.809	0.35
483.162	0.34
483.514	0.36
483.866	0.37
484.219	0.37
484.571	0.38
484.923	0.37
485.275	0.39
485.627	0.39
485.979	0.4
486.331	0.41
486.683	0.41
487.035	0.41
487.387	0.42
487.739	0.43
488.091	0.44
488.443	0.44
488.794	0.44
489.146	0.45
489.498	0.45
489.849	0.46
490.201	0.46
490.552	0.46
490.904	0.47
491.255	0.47
491.607	0.47
491.958	0.48
492.309	0.49
492.661	0.49
493.012	0.5
493.363	0.5
493.714	0.51
494.065	0.51
494.416	0.52
494.767	0.52
495.118	0.53
495.469	0.53
495.82	0.54
496.171	0.54
496.522	0.54
496.872	0.55
497.223	0.55
497.574	0.56
497.924	0.57
498.275	0.57
498.626	0.58
498.976	0.58
499.327	0.59
499.677	0.59
500.027	0.59
500.378	0.6
500.728	0.6
501.078	0.61
501.428	0.61
501.779	0.62
502.129	0.62
502.479	0.62
502.829	0.63
503.179	0.63
503.529	0.63
503.879	0.64
504.229	0.64
504.578	0.65
504.928	0.65
505.278	0.66
505.628	0.66
505.977	0.67
506.327	0.67
506.676	0.68
507.026	0.68
507.375	0.69
507.725	0.69
508.074	0.69
508.424	0.7
508.773	0.7
509.122	0.7
509.471	0.71
509.82	0.71
510.17	0.72
510.519	0.72
510.868	0.72
511.217	0.73
511.566	0.73
511.915	0.73
512.263	0.74
512.612	0.74
512.961	0.75
513.31	0.75
513.659	0.76
514.007	0.76
514.356	0.77
514.704	0.77
515.053	0.77
515.401	0.77
515.75	0.77
516.098	0.78
516.447	0.79
516.795	0.79
517.143	0.78
517.491	0.79
517.839	0.79
518.188	0.8
518.536	0.81
518.884	0.8
519.232	0.8
519.58	0.81
519.928	0.82
520.275	0.82
520.623	0.83
520.971	0.83
521.319	0.83
521.666	0.84
522.014	0.83
522.362	0.84
522.709	0.84
523.057	0.85
523.404	0.85
523.752	0.85
524.099	0.84
524.446	0.85
524.794	0.86
525.141	0.85
525.488	0.86
525.835	0.87
526.182	0.87
526.529	0.87
526.876	0.86
527.223	0.87
527.57	0.87
527.917	0.87
528.264	0.88
528.611	0.88
528.958	0.89
529.304	0.89
529.651	0.89
529.998	0.89
530.344	0.89
530.691	0.89
531.037	0.91
531.384	0.9
531.73	0.91
532.076	0.91
532.423	0.91
532.769	0.9
533.115	0.91
533.461	0.91
533.807	0.92
534.154	0.91
534.5	0.91
534.846	0.92
535.192	0.91
535.537	0.92
535.883	0.93
536.229	0.92
536.575	0.93
536.921	0.93
537.266	0.93
537.612	0.93
537.957	0.93
538.303	0.93
538.649	0.93
538.994	0.94
539.339	0.93
539.685	0.94
540.03	0.94
540.375	0.95
540.721	0.94
541.066	0.94
541.411	0.94
541.756	0.95
542.101	0.95
542.446	0.95
542.791	0.95
543.136	0.95
543.481	0.95
543.825	0.95
544.17	0.95
544.515	0.95
544.86	0.95
545.204	0.95
545.549	0.95
545.893	0.96
546.238	0.96
546.582	0.96
546.927	0.96
547.271	0.96
547.615	0.97
547.96	0.96
548.304	0.96
548.648	0.96
548.992	0.97
549.336	0.95
549.68	0.96
550.024	0.97
550.368	0.96
550.712	0.97
551.056	0.97
551.4	0.97
551.743	0.96
552.087	0.96
552.431	0.97
552.774	0.96
553.118	0.96
553.462	0.96
553.805	0.96
554.148	0.96
554.492	0.97
554.835	0.96
555.178	0.96
555.522	0.97
555.865	0.96
556.208	0.96
556.551	0.95
556.894	0.96
557.237	0.96
557.58	0.96
557.923	0.96
558.266	0.96
558.609	0.96
558.952	0.95
559.294	0.96
559.637	0.95
559.98	0.95
560.322	0.95
560.665	0.95
561.007	0.95
561.35	0.94
561.692	0.94
562.034	0.94
562.377	0.94
562.719	0.94
563.061	0.94
563.403	0.94
563.745	0.94
564.088	0.94
564.43	0.94
564.772	0.93
565.113	0.94
565.455	0.94
565.797	0.93
566.139	0.93
566.481	0.93
566.822	0.93
567.164	0.93
567.506	0.93
567.847	0.93
568.189	0.92
568.53	0.92
568.872	0.93
569.213	0.92
569.554	0.92
569.895	0.92
570.237	0.91
570.578	0.91
570.919	0.91
571.26	0.9
571.601	0.91
571.942	0.91
572.283	0.9
572.624	0.9
572.965	0.89
573.306	0.89
573.646	0.89
573.987	0.89
574.328	0.89
574.668	0.88
575.009	0.88
575.349	0.88
575.69	0.88
576.03	0.88
576.37	0.88
576.711	0.86
577.051	0.87
577.391	0.88
577.731	0.87
578.072	0.87
578.412	0.87
578.752	0.87
579.092	0.86
579.431	0.85
579.771	0.84
580.111	0.83
580.451	0.85
580.791	0.85
581.13	0.85
581.47	0.85
581.81	0.85
582.149	0.84
582.489	0.84
582.828	0.83
583.167	0.81
583.507	0.78
583.846	0.78
584.185	0.82
584.525	0.83
584.864	0.83
585.203	0.84
585.542	0.84
585.881	0.84
586.22	0.83
586.559	0.83
586.898	0.82
587.236	0.82
587.575	0.81
587.914	0.82
588.252	0.83
588.591	0.83
588.93	0.82
589.268	0.82
589.607	0.82
589.945	0.83
590.283	0.82
590.622	0.82
590.96	0.82
591.298	0.82
591.636	0.82
591.974	0.82
592.313	0.82
592.651	0.83
592.989	0.82
593.326	0.82
593.664	0.82
594.002	0.82
594.34	0.81
594.678	0.81
595.015	0.81
595.353	0.8
595.691	0.81
596.028	0.82
596.366	0.81
596.703	0.81
597.04	0.81
597.378	0.81
597.715	0.81
598.052	0.82
598.389	0.81
598.726	0.81
599.064	0.81
599.401	0.81
599.738	0.81
600.074	0.8
600.411	0.8
600.748	0.8
601.085	0.79
601.422	0.79
601.758	0.8
602.095	0.79
602.432	0.79
602.768	0.79
603.105	0.8
603.441	0.8
603.777	0.8
604.114	0.79
604.45	0.79
604.786	0.79
605.122	0.79
605.459	0.78
605.795	0.78
606.131	0.78
606.467	0.78
606.803	0.78
607.139	0.78
607.474	0.77
607.81	0.77
608.146	0.77
608.482	0.77
608.817	0.76
609.153	0.76
609.488	0.76
609.824	0.75
610.159	0.76
610.495	0.76
610.83	0.76
611.165	0.75
611.5	0.75
611.836	0.75
612.171	0.74
612.506	0.74
612.841	0.74
613.176	0.74
613.511	0.74
613.845	0.73
614.18	0.73
614.515	0.73
614.85	0.72
615.184	0.73
615.519	0.72
615.854	0.72
616.188	0.71
616.523	0.71
616.857	0.71
617.191	0.71
617.526	0.71
617.86	0.7
618.194	0.7
618.528	0.7
618.862	0.7
619.196	0.69
619.53	0.69
619.864	0.69
620.198	0.68
620.532	0.68
620.866	0.68
621.2	0.68
621.533	0.68
621.867	0.67
622.201	0.67
622.534	0.67
622.868	0.67
623.201	0.66
623.534	0.66
623.868	0.66
624.201	0.66
624.534	0.65
624.868	0.65
625.201	0.65
625.534	0.65
625.867	0.64
626.2	0.64
626.533	0.64
626.865	0.63
627.198	0.63
627.531	0.63
627.864	0.63
628.196	0.62
628.529	0.62
628.862	0.61
629.194	0.61
629.527	0.61
629.859	0.6
630.191	0.6
630.524	0.6
630.856	0.6
631.188	0.59
631.52	0.59
631.852	0.58
632.184	0.58
632.516	0.58
632.848	0.57
633.18	0.57
633.512	0.57
633.844	0.56
634.175	0.56
634.507	0.56
634.839	0.55
635.17	0.55
635.502	0.54
635.833	0.54
636.165	0.54
636.496	0.54
636.827	0.53
637.159	0.53
637.49	0.53
637.821	0.52
638.152	0.51
638.483	0.52
638.814	0.51
639.145	0.51
639.476	0.51
639.807	0.5
640.137	0.5
640.468	0.49
640.799	0.49
641.129	0.49
641.46	0.49
641.791	0.48
642.121	0.48
642.451	0.47
642.782	0.47
643.112	0.47
643.442	0.47
643.773	0.46
644.103	0.47
644.433	0.46
644.763	0.46
645.093	0.46
645.423	0.45
645.753	0.45
646.082	0.45
646.412	0.45
646.742	0.44
647.072	0.44
647.401	0.44
647.731	0.44
648.06	0.44
648.39	0.43
648.719	0.43
649.048	0.43
649.378	0.42
649.707	0.42
650.036	0.42
650.365	0.42
650.694	0.42
651.023	0.42
651.352	0.42
651.681	0.42
652.01	0.42
652.339	0.41
652.668	0.41
652.996	0.41
653.325	0.41
653.654	0.41
653.982	0.41
654.311	0.4
654.639	0.4
654.967	0.4
655.296	0.4
655.624	0.4
655.952	0.4
656.28	0.4
656.609	0.4
656.937	0.39
657.265	0.38
657.593	0.24
657.92	0.14
658.248	0.12
658.576	0.2
658.904	0.32
659.231	0.38
659.559	0.38
659.887	0.38
660.214	0.38
660.542	0.38
660.869	0.37
661.196	0.37
661.524	0.37
661.851	0.37
662.178	0.37
662.505	0.37
662.832	0.37
663.159	0.37
663.486	0.36
663.813	0.36
664.14	0.36
664.467	0.36
664.794	0.36
665.12	0.36
665.447	0.35
665.774	0.35
666.1	0.35
666.427	0.35
666.753	0.35
667.079	0.35
667.406	0.34
667.732	0.34
668.058	0.34
668.384	0.34
668.71	0.34
669.036	0.34
669.362	0.33
669.688	0.33
670.014	0.33
670.34	0.33
670.666	0.32
670.991	0.33
671.317	0.32
671.643	0.32
671.968	0.32
672.294	0.31
672.619	0.31
672.945	0.31
673.27	0.31
673.595	0.3
673.92	0.3
674.246	0.3
674.571	0.3
674.896	0.3
675.221	0.29
675.546	0.29
675.87	0.29
676.195	0.28
676.52	0.28
676.845	0.28
677.169	0.28
677.494	0.28
677.819	0.27
678.143	0.27
678.468	0.27
678.792	0.27
679.116	0.27
679.44	0.26
679.765	0.26
680.089	0.25
680.413	0.25
680.737	0.25
681.061	0.24
681.385	0.25
681.709	0.24
682.033	0.24
682.356	0.24
682.68	0.24
683.004	0.24
683.327	0.23
683.651	0.23
683.974	0.23
684.298	0.23
684.621	0.22
684.944	0.22
685.268	0.22
685.591	0.22
685.914	0.21
686.237	0.21
686.56	0.21
686.883	0.2
687.206	0.2
687.529	0.2
687.852	0.2
688.175	0.2
688.497	0.19
688.82	0.19
689.142	0.19
689.465	0.19
689.787	0.19
690.11	0.18
690.432	0.18
690.755	0.18
691.077	0.18
691.399	0.17
691.721	0.17
692.043	0.17
692.365	0.17
692.687	0.17
693.009	0.16
693.331	0.16
693.653	0.16
693.974	0.16
694.296	0.16
694.618	0.15
694.939	0.16
695.261	0.15
695.582	0.15
695.904	0.15
696.225	0.15
696.546	0.15
696.868	0.15
697.189	0.15
697.51	0.14
697.831	0.14
698.152	0.14
698.473	0.14
698.794	0.13
699.114	0.13
699.435	0.13
699.756	0.13
700.077	0.13
700.397	0.14
700.718	0.13
701.038	0.13
701.359	0.13
701.679	0.13
701.999	0.13
702.32	0.13
702.64	0.13
702.96	0.13
703.28	0.13
703.6	0.13
703.92	0.12
704.24	0.12
704.56	0.12
704.879	0.12
705.199	0.12
705.519	0.12
705.838	0.12
706.158	0.12
706.478	0.12
706.797	0.12
707.116	0.12
707.436	0.12
707.755	0.12
708.074	0.12
708.393	0.11
708.712	0.11
709.031	0.1
709.35	0.11
709.669	0.1
709.988	0.11
710.307	0.1
710.626	0.11
710.944	0.11
711.263	0.11
711.582	0.11
711.9	0.11
712.219	0.11
712.537	0.11
712.855	0.11
713.174	0.11
713.492	0.11
713.81	0.12
714.128	0.11
714.446	0.11
714.764	0.11
715.082	0.11
715.4	0.11
715.718	0.11
716.035	0.11
716.353	0.11
716.671	0.11
716.988	0.11
717.306	0.11
717.623	0.11
717.941	0.11
718.258	0.11
718.575	0.12
718.893	0.11
719.21	0.11
719.527	0.11
719.844	0.11
720.161	0.12
720.478	0.12
720.795	0.12
721.112	0.12
721.428	0.12
721.745	0.12
722.062	0.12
722.378	0.12
722.695	0.12
723.011	0.12
723.328	0.12
723.644	0.12
723.96	0.12
724.276	0.12
724.593	0.12
724.909	0.12
725.225	0.12
725.541	0.12
725.857	0.12
726.173	0.12
726.488	0.12
726.804	0.12
727.12	0.12
727.435	0.12
727.751	0.12
728.067	0.12
728.382	0.12
728.697	0.12
729.013	0.12
729.328	0.12
729.643	0.12
729.958	0.12
730.273	0.12
730.588	0.11
730.903	0.12
731.218	0.11
731.533	0.12
731.848	0.11
732.163	0.12
732.477	0.11
732.792	0.11
733.107	0.11
733.421	0.11
733.736	0.11
734.05	0.11
734.364	0.11
734.678	0.11
734.993	0.11
735.307	0.11
735.621	0.11
735.935	0.11
736.249	0.11
736.563	0.11
736.877	0.11
737.19	0.11
737.504	0.11
737.818	0.11
738.131	0.11
738.445	0.11
738.758	0.11
739.072	0.11
739.385	0.11
739.698	0.11
740.012	0.11
740.325	0.11
740.638	0.1
740.951	0.1
741.264	0.1
741.577	0.1
741.89	0.1
742.203	0.1
742.515	0.1
742.828	0.1
743.141	0.1
743.453	0.1
743.766	0.1
744.078	0.1
744.391	0.09
744.703	0.09
745.015	0.09
745.327	0.09
745.639	0.09
745.952	0.09
746.264	0.09
746.575	0.09
746.887	0.09
747.199	0.09
747.511	0.09
747.823	0.09
748.134	0.08
748.446	0.09
748.757	0.09
749.069	0.08
749.38	0.09
749.692	0.08
750.003	0.08
750.314	0.08
750.625	0.08
750.936	0.08
751.248	0.08
751.559	0.08
751.869	0.08
752.18	0.08
752.491	0.08
752.802	0.08
753.112	0.07
753.423	0.07
753.734	0.07
754.044	0.07
754.355	0.07
754.665	0.07
754.975	0.07
755.285	0.07
755.596	0.07
755.906	0.07
756.216	0.07
756.526	0.07
756.836	0.07
757.146	0.07
757.455	0.06
757.765	0.06
758.075	0.06
758.385	0.06
758.694	0.06
759.004	0.06
759.313	0.06
759.622	0.06
759.932	0.06
760.241	0.06
760.55	0.06
760.859	0.06
761.168	0.06
761.477	0.06
761.786	0.06
762.095	0.06
762.404	0.06
762.713	0.06
763.021	0.06
763.33	0.06
763.639	0.06
763.947	0.06
764.256	0.06
764.564	0.06
764.872	0.06
765.181	0.06
765.489	0.06
765.797	0.06
766.105	0.06
766.413	0.06
766.721	0.06
767.029	0.06
767.337	0.06
767.644	0.06
767.952	0.06
768.26	0.06
768.567	0.06
768.875	0.06
769.182	0.06
769.49	0.06
769.797	0.05
770.104	0.06
770.411	0.06
770.718	0.06
771.026	0.06
771.333	0.06
771.639	0.06
771.946	0.06
772.253	0.06
772.56	0.06
772.867	0.06
773.173	0.06
773.48	0.06
773.786	0.06
774.093	0.06
774.399	0.06
774.705	0.06
775.012	0.06
775.318	0.06
775.624	0.06
775.93	0.06
776.236	0.06
776.542	0.06
776.848	0.06
777.154	0.06
777.459	0.06
777.765	0.06
778.071	0.06
778.376	0.06
778.682	0.06
778.987	0.06
779.292	0.06
779.598	0.06
779.903	0.06
780.208	0.06
780.513	0.06
780.818	0.06
781.123	0.06
781.428	0.06
781.733	0.06
782.038	0.06
782.343	0.06
782.647	0.06
782.952	0.06
783.256	0.07
783.561	0.07
783.865	0.07
784.17	0.06
784.474	0.06
784.778	0.07
785.082	0.06
785.386	0.07
785.69	0.06
785.994	0.07
786.298	0.07
786.602	0.07
786.906	0.07
787.209	0.07
787.513	0.07
787.817	0.06
788.12	0.07
788.424	0.07
788.727	0.06
789.03	0.06
789.333	0.07
789.637	0.07
789.94	0.06
790.243	0.06
790.546	0.07
790.849	0.06
791.152	0.07
791.454	0.07
791.757	0.06
792.06	0.07
792.362	0.07
792.665	0.07
792.967	0.06
793.27	0.07
793.572	0.07
793.874	0.07
794.177	0.07
794.479	0.07
794.781	0.07
795.083	0.07
795.385	0.07
795.687	0.07
795.989	0.07
796.29	0.07
796.592	0.08
796.894	0.07
797.195	0.08
797.497	0.08
797.798	0.08
798.1	0.08
798.401	0.07
798.702	0.08
799.003	0.08
799.304	0.08
799.605	0.07
799.906	0.08
800.207	0.07
800.508	0.07
800.809	0.08
801.11	0.07
801.41	0.08
801.711	0.08
802.011	0.08
802.312	0.08
802.612	0.08
802.913	0.08
803.213	0.08
803.513	0.08
803.813	0.08
804.113	0.08
804.413	0.08
804.713	0.08
805.013	0.08
805.313	0.08
805.613	0.09
805.912	0.09
806.212	0.09
806.511	0.08
806.811	0.08
807.11	0.08
807.41	0.08
807.709	0.08
808.008	0.09
808.307	0.08
808.606	0.09
808.905	0.09
809.204	0.08
809.503	0.09
809.802	0.08
810.101	0.09
810.399	0.09
810.698	0.09
810.997	0.09
811.295	0.09
811.593	0.09
811.892	0.09
812.19	0.1
812.488	0.09
812.786	0.09
813.084	0.09
813.383	0.1
813.68	0.09
813.978	0.1
814.276	0.09
814.574	0.09
814.872	0.1
815.169	0.1
815.467	0.1
815.764	0.1
816.062	0.1
816.359	0.1
816.656	0.1
816.954	0.1
817.251	0.1
817.548	0.1
817.845	0.1
818.142	0.1
818.439	0.1
818.735	0.1
819.032	0.11
819.329	0.11
819.626	0.1
819.922	0.1
820.219	0.11
820.515	0.11
820.811	0.1
821.108	0.1
821.404	0.1
821.7	0.11
821.996	0.1
822.292	0.11
822.588	0.11
822.884	0.1
823.18	0.1
823.475	0.1
823.771	0.11
824.067	0.1
824.362	0.11
824.658	0.11
824.953	0.11
825.249	0.1
825.544	0.11
825.839	0.11
826.134	0.11
826.429	0.11
826.724	0.11
827.019	0.11
827.314	0.11
827.609	0.11
827.904	0.12
828.198	0.11
828.493	0.11
828.787	0.11
829.082	0.11
829.376	0.11
829.671	0.11
829.965	0.11
830.259	0.12
830.553	0.12
830.847	0.12
831.141	0.11
831.435	0.12
831.729	0.12
832.023	0.12
832.317	0.12
832.61	0.12
832.904	0.12
833.197	0.13
833.491	0.13
833.784	0.13
834.077	0.13
834.371	0.12
834.664	0.12
834.957	0.12
835.25	0.13
835.543	0.12
835.836	0.12
836.129	0.12
836.421	0.13
836.714	0.12
837.007	0.12
837.299	0.12
837.592	0.13
837.884	0.13
838.177	0.12
838.469	0.14
838.761	0.13
839.053	0.13
839.345	0.14
839.637	0.13
839.929	0.13
840.221	0.13
840.513	0.14
840.805	0.14
841.096	0.13
841.388	0.13
841.68	0.13
841.971	0.13
842.262	0.14
842.554	0.14
842.845	0.13
843.136	0.14
843.427	0.14
843.718	0.13
844.009	0.13
844.3	0.14
844.591	0.13
844.882	0.13
845.173	0.14
845.463	0.14
845.754	0.14
846.044	0.14
846.335	0.13
846.625	0.15
846.915	0.13
847.206	0.15
847.496	0.14
847.786	0.14
848.076	0.15
848.366	0.14
848.656	0.15
848.945	0.15
849.235	0.14
849.525	0.15
849.814	0.14
850.104	0.14
850.393	0.14
850.683	0.15
850.972	0.14
851.261	0.15
851.551	0.15
851.84	0.15
852.129	0.15
852.418	0.14
852.707	0.15
852.995	0.15
853.284	0.14
853.573	0.15
853.862	0.15
854.15	0.16
854.439	0.15
854.727	0.16
855.015	0.16
855.304	0.15
855.592	0.16
855.88	0.15
856.168	0.15
856.456	0.16
856.744	0.16
857.032	0.16
857.32	0.16
857.607	0.17
857.895	0.17
858.183	0.16
858.47	0.17
858.757	0.15
859.045	0.16
859.332	0.14
859.619	0.17
859.907	0.16
860.194	0.17
860.481	0.15
860.768	0.13
861.054	0.17
861.341	0.16
861.628	0.16
861.915	0.18
862.201	0.16
862.488	0.16
862.774	0.15
863.061	0.15
863.347	0.16
863.633	0.18
863.919	0.15
864.205	0.15
864.491	0.17
864.777	0.17
865.063	0.19
865.349	0.15
865.635	0.16
865.92	0.15
866.206	0.13
866.492	0.15
866.777	0.13
867.062	0.14
867.348	0.15
867.633	0.17
867.918	0.16
868.203	0.18
868.488	0.16
868.773	0.18
869.058	0.16
869.343	0.17
869.628	0.18
869.912	0.18
870.197	0.16
870.482	0.21
870.766	0.17
871.05	0.14
871.335	0.14
871.619	0.15
871.903	0.16
872.187	0.16
872.471	0.13
872.755	0.24
873.039	0.16
873.323	0.19
873.607	0.16
873.89	0.14
874.174	0.15
874.458	0.08
874.741	0.18
875.024	0.18
875.308	0.14
875.591	0.16
875.874	0.18
876.157	0.19
876.44	0.12
876.723	0.17
877.006	0.11
877.289	0.18
877.572	0.24
877.854	0.18
878.137	0.21
878.42	0.12
878.702	0.11
878.984	0.12
879.267	0.16
879.549	0.28
879.831	0.15
880.113	0.07
880.395	0.36
880.677	0.19
880.959	0.51
