Data from Rubpy_BV_1800_EDTA_Buffered_Absorbance_16-53-51-598.txt Node
Date: Wed Jul 01 16:53:51 BST 2026
User: fpm-admin
Spectrometer: OFX00224
Trigger mode: 0
Integration Time (sec): 7.000000E-2
Scans to average: 3
Nonlinearity correction enabled: false
Boxcar width: 0
Storing dark spectrum: false
XAxis mode: Wavelengths
Number of Pixels in Spectrum: 2136
>>>>>Begin Spectral Data<<<<<
154.91	1.59
155.289	-0.44
155.669	-0.02
156.048	-0
156.428	-0
156.807	0.07
157.186	-0
157.566	-0.06
157.945	-0
158.325	-0.04
158.704	-0.27
159.083	-0
159.462	-0
159.842	-0
160.221	-0
160.6	-0
160.979	-0
161.359	-0
161.738	-0
162.117	-0
162.496	-0.25
162.875	-0.06
163.254	0.21
163.633	0.33
164.012	0.18
164.391	0.26
164.77	-0.03
165.149	-1.07
165.528	-0
165.907	0.37
166.286	0.12
166.665	1.02
167.044	0.05
167.423	0.38
167.802	-0.3
168.181	-1.11
168.559	-0.08
168.938	0.8
169.317	0.39
169.696	-1.18
170.074	-0
170.453	-0
170.832	-1.15
171.21	-0.04
171.589	-0
171.968	-0
172.346	0.52
172.725	-0
173.103	-0
173.482	0.01
173.861	-0
174.239	0.4
174.617	0.51
174.996	0.04
175.374	-0.52
175.753	-0.07
176.131	0.1
176.51	0.1
176.888	0.87
177.266	-0
177.645	0.1
178.023	0.78
178.401	-0.24
178.779	0.11
179.158	0.9
179.536	0.2
179.914	0.3
180.292	-0
180.67	-0
181.048	-0
181.427	-0.05
181.805	0.7
182.183	-0.91
182.561	-0
182.939	-0.29
183.317	-0.34
183.695	-0.16
184.073	-0
184.451	-0.2
184.829	0.33
185.206	-0.34
185.584	-0
185.962	-0.15
186.34	-0.19
186.718	-0.12
187.096	-0
187.473	-0.08
187.851	0.16
188.229	-0.1
188.607	0.22
188.984	0.23
189.362	0.19
189.74	0.37
190.117	0.25
190.495	0.42
190.872	0.18
191.25	0.21
191.627	0.28
192.005	0.38
192.382	0.37
192.76	0.26
193.137	0.51
193.515	0.48
193.892	0.45
194.269	0.28
194.647	0.3
195.024	0.22
195.401	0.54
195.779	0.37
196.156	0.62
196.533	0.38
196.91	0.38
197.288	0.19
197.665	0.27
198.042	0.16
198.419	0.23
198.796	0.23
199.173	0.37
199.55	0.31
199.927	0.28
200.304	0.32
200.681	0.34
201.058	0.38
201.435	0.5
201.812	0.3
202.189	0.27
202.566	0.42
202.943	0.28
203.32	0.38
203.697	0.45
204.073	0.26
204.45	0.35
204.827	0.29
205.204	0.27
205.58	0.38
205.957	0.36
206.334	0.27
206.71	0.39
207.087	0.35
207.464	0.49
207.84	0.39
208.217	0.27
208.593	0.27
208.97	0.41
209.346	0.55
209.723	0.27
210.099	0.49
210.476	0.28
210.852	0.49
211.228	0.36
211.605	0.3
211.981	0.29
212.357	0.56
212.733	0.45
213.11	0.25
213.486	0.36
213.862	0.34
214.238	0.62
214.614	0.34
214.991	0.37
215.367	0.48
215.743	0.35
216.119	0.31
216.495	0.46
216.871	0.41
217.247	0.3
217.623	0.28
217.999	0.38
218.375	0.51
218.751	0.34
219.127	0.27
219.502	0.18
219.878	0.18
220.254	0.43
220.63	0.53
221.006	0.57
221.381	0.3
221.757	0.4
222.133	0.34
222.508	0.51
222.884	0.32
223.26	0.49
223.635	0.32
224.011	0.43
224.386	0.34
224.762	0.46
225.137	0.36
225.513	0.28
225.888	0.28
226.264	0.3
226.639	0.38
227.014	0.43
227.39	0.24
227.765	0.36
228.14	0.37
228.516	0.58
228.891	0.47
229.266	0.4
229.641	0.32
230.017	0.51
230.392	0.35
230.767	0.44
231.142	0.4
231.517	0.37
231.892	0.56
232.267	0.49
232.642	0.45
233.017	0.31
233.392	0.41
233.767	0.33
234.142	0.37
234.517	0.28
234.892	0.4
235.267	0.35
235.641	0.35
236.016	0.46
236.391	0.36
236.766	0.36
237.14	0.5
237.515	0.44
237.89	0.43
238.264	0.43
238.639	0.58
239.014	0.42
239.388	0.42
239.763	0.35
240.137	0.25
240.512	0.38
240.886	0.29
241.261	0.49
241.635	0.46
242.009	0.46
242.384	0.3
242.758	0.57
243.132	0.43
243.507	0.33
243.881	0.46
244.255	0.46
244.629	0.36
245.004	0.67
245.378	0.42
245.752	0.38
246.126	0.36
246.5	0.53
246.874	0.25
247.248	0.31
247.622	0.36
247.996	0.42
248.37	0.27
248.744	0.33
249.118	0.24
249.492	0.31
249.866	0.49
250.24	0.42
250.613	0.61
250.987	0.47
251.361	0.54
251.735	0.48
252.108	0.62
252.482	0.33
252.856	0.32
253.229	0.53
253.603	0.31
253.977	0.44
254.35	0.42
254.724	0.35
255.097	0.36
255.471	0.31
255.844	0.31
256.218	0.42
256.591	0.32
256.964	0.37
257.338	0.26
257.711	0.45
258.084	0.36
258.458	0.28
258.831	0.43
259.204	0.34
259.577	0.27
259.95	0.36
260.323	0.38
260.697	0.3
261.07	0.36
261.443	0.52
261.816	0.35
262.189	0.55
262.562	0.33
262.935	0.37
263.308	0.35
263.68	0.32
264.053	0.46
264.426	0.39
264.799	0.35
265.172	0.4
265.545	0.3
265.917	0.43
266.29	0.42
266.663	0.38
267.035	0.53
267.408	0.33
267.781	0.61
268.153	0.24
268.526	0.4
268.898	0.46
269.271	0.52
269.643	0.42
270.016	0.43
270.388	0.27
270.76	0.6
271.133	0.41
271.505	0.51
271.877	0.32
272.25	0.38
272.622	0.39
272.994	0.34
273.366	0.43
273.739	0.29
274.111	0.36
274.483	0.28
274.855	0.46
275.227	0.47
275.599	0.39
275.971	0.39
276.343	0.32
276.715	0.29
277.087	0.39
277.459	0.54
277.831	0.37
278.203	0.38
278.574	0.45
278.946	0.26
279.318	0.38
279.69	0.44
280.061	0.33
280.433	0.39
280.805	0.32
281.176	0.38
281.548	0.42
281.92	0.41
282.291	0.3
282.663	0.37
283.034	0.48
283.406	0.39
283.777	0.39
284.148	0.42
284.52	0.46
284.891	0.39
285.262	0.37
285.634	0.5
286.005	0.39
286.376	0.39
286.747	0.39
287.119	0.3
287.49	0.45
287.861	0.45
288.232	0.37
288.603	0.46
288.974	0.38
289.345	0.32
289.716	0.39
290.087	0.31
290.458	0.36
290.829	0.39
291.2	0.32
291.571	0.37
291.941	0.32
292.312	0.32
292.683	0.33
293.054	0.34
293.424	0.34
293.795	0.44
294.166	0.42
294.536	0.3
294.907	0.36
295.277	0.47
295.648	0.42
296.018	0.46
296.389	0.24
296.759	0.4
297.13	0.44
297.5	0.41
297.871	0.48
298.241	0.53
298.611	0.34
298.981	0.35
299.352	0.48
299.722	0.36
300.092	0.38
300.462	0.47
300.832	0.46
301.202	0.42
301.573	0.43
301.943	0.41
302.313	0.31
302.683	0.47
303.053	0.41
303.422	0.32
303.792	0.36
304.162	0.38
304.532	0.52
304.902	0.31
305.272	0.43
305.641	0.43
306.011	0.34
306.381	0.35
306.75	0.45
307.12	0.36
307.49	0.34
307.859	0.31
308.229	0.3
308.598	0.33
308.968	0.34
309.337	0.29
309.707	0.33
310.076	0.29
310.445	0.3
310.815	0.3
311.184	0.32
311.553	0.31
311.923	0.27
312.292	0.31
312.661	0.35
313.03	0.3
313.399	0.33
313.768	0.33
314.137	0.31
314.506	0.29
314.875	0.32
315.244	0.32
315.613	0.34
315.982	0.34
316.351	0.33
316.72	0.33
317.089	0.33
317.458	0.36
317.826	0.37
318.195	0.35
318.564	0.36
318.933	0.37
319.301	0.38
319.67	0.37
320.038	0.37
320.407	0.37
320.775	0.39
321.144	0.4
321.512	0.4
321.881	0.41
322.249	0.4
322.618	0.43
322.986	0.43
323.354	0.43
323.723	0.43
324.091	0.44
324.459	0.46
324.827	0.45
325.195	0.46
325.564	0.47
325.932	0.49
326.3	0.49
326.668	0.5
327.036	0.49
327.404	0.52
327.772	0.51
328.14	0.51
328.508	0.53
328.875	0.53
329.243	0.55
329.611	0.55
329.979	0.56
330.346	0.57
330.714	0.57
331.082	0.6
331.449	0.59
331.817	0.6
332.185	0.62
332.552	0.61
332.92	0.64
333.287	0.65
333.655	0.66
334.022	0.68
334.389	0.69
334.757	0.7
335.124	0.71
335.491	0.73
335.859	0.74
336.226	0.75
336.593	0.77
336.96	0.78
337.327	0.79
337.695	0.81
338.062	0.83
338.429	0.84
338.796	0.86
339.163	0.88
339.53	0.89
339.897	0.91
340.263	0.92
340.63	0.94
340.997	0.96
341.364	0.98
341.731	0.99
342.097	1
342.464	1.02
342.831	1.05
343.197	1.06
343.564	1.06
343.931	1.07
344.297	1.08
344.664	1.12
345.03	1.13
345.396	1.15
345.763	1.17
346.129	1.18
346.496	1.2
346.862	1.22
347.228	1.22
347.594	1.25
347.961	1.26
348.327	1.29
348.693	1.3
349.059	1.3
349.425	1.31
349.791	1.35
350.157	1.35
350.523	1.39
350.889	1.37
351.255	1.41
351.621	1.41
351.987	1.42
352.353	1.43
352.719	1.44
353.084	1.46
353.45	1.47
353.816	1.5
354.181	1.52
354.547	1.55
354.913	1.55
355.278	1.56
355.644	1.56
356.009	1.57
356.375	1.59
356.74	1.62
357.106	1.64
357.471	1.63
357.836	1.66
358.202	1.72
358.567	1.71
358.932	1.74
359.297	1.72
359.663	1.75
360.028	1.76
360.393	1.8
360.758	1.84
361.123	1.82
361.488	1.85
361.853	1.87
362.218	1.88
362.583	1.93
362.948	1.92
363.312	1.86
363.677	1.96
364.042	1.94
364.407	1.96
364.772	1.98
365.136	1.98
365.501	1.94
365.865	1.99
366.23	2.01
366.595	2
366.959	2.03
367.324	2.01
367.688	2.01
368.052	2.1
368.417	2.06
368.781	2.08
369.145	2.09
369.51	2.17
369.874	2.13
370.238	2.09
370.602	1.99
370.967	2.08
371.331	2.07
371.695	2.05
372.059	2.07
372.423	2.03
372.787	2.07
373.151	2.01
373.515	2.12
373.878	2.13
374.242	2.07
374.606	2.07
374.97	2.07
375.334	2.17
375.697	2.05
376.061	2.06
376.425	2.06
376.788	2.03
377.152	2.03
377.515	2.08
377.879	2.01
378.242	1.9
378.606	2
378.969	1.89
379.333	1.97
379.696	1.94
380.059	1.9
380.422	1.86
380.786	1.85
381.149	1.9
381.512	1.79
381.875	1.82
382.238	1.8
382.601	1.81
382.964	1.76
383.327	1.74
383.69	1.72
384.053	1.71
384.416	1.68
384.779	1.66
385.142	1.64
385.504	1.64
385.867	1.64
386.23	1.65
386.593	1.58
386.955	1.61
387.318	1.61
387.68	1.6
388.043	1.55
388.405	1.55
388.768	1.56
389.13	1.55
389.493	1.54
389.855	1.52
390.217	1.5
390.58	1.49
390.942	1.47
391.304	1.43
391.666	1.43
392.028	1.41
392.391	1.38
392.753	1.37
393.115	1.36
393.477	1.35
393.839	1.32
394.201	1.34
394.563	1.32
394.924	1.31
395.286	1.29
395.648	1.3
396.01	1.3
396.371	1.3
396.733	1.32
397.095	1.33
397.456	1.35
397.818	1.38
398.18	1.41
398.541	1.43
398.903	1.44
399.264	1.49
399.625	1.5
399.987	1.53
400.348	1.54
400.709	1.57
401.071	1.59
401.432	1.55
401.793	1.58
402.154	1.55
402.515	1.55
402.876	1.53
403.238	1.47
403.599	1.46
403.96	1.42
404.32	1.35
404.681	1.31
405.042	1.26
405.403	1.22
405.764	1.16
406.125	1.12
406.485	1.05
406.846	1.01
407.207	0.95
407.567	0.9
407.928	0.87
408.288	0.82
408.649	0.77
409.009	0.74
409.37	0.7
409.73	0.66
410.091	0.62
410.451	0.6
410.811	0.56
411.171	0.55
411.532	0.51
411.892	0.49
412.252	0.47
412.612	0.45
412.972	0.42
413.332	0.41
413.692	0.4
414.052	0.39
414.412	0.37
414.772	0.36
415.132	0.35
415.492	0.33
415.851	0.32
416.211	0.32
416.571	0.31
416.931	0.31
417.29	0.29
417.65	0.28
418.009	0.28
418.369	0.27
418.728	0.26
419.088	0.26
419.447	0.26
419.807	0.25
420.166	0.24
420.525	0.24
420.884	0.23
421.244	0.22
421.603	0.22
421.962	0.21
422.321	0.22
422.68	0.22
423.039	0.22
423.398	0.2
423.757	0.2
424.116	0.2
424.475	0.2
424.834	0.2
425.193	0.19
425.551	0.2
425.91	0.19
426.269	0.19
426.628	0.19
426.986	0.18
427.345	0.18
427.703	0.18
428.062	0.19
428.42	0.18
428.779	0.18
429.137	0.18
429.496	0.17
429.854	0.18
430.212	0.18
430.57	0.18
430.929	0.17
431.287	0.17
431.645	0.17
432.003	0.18
432.361	0.17
432.719	0.17
433.077	0.17
433.435	0.17
433.793	0.17
434.151	0.17
434.509	0.18
434.866	0.17
435.224	0.17
435.582	0.17
435.94	0.17
436.297	0.18
436.655	0.18
437.012	0.17
437.37	0.17
437.727	0.17
438.085	0.17
438.442	0.17
438.8	0.17
439.157	0.17
439.514	0.17
439.872	0.16
440.229	0.17
440.586	0.17
440.943	0.17
441.3	0.18
441.657	0.18
442.014	0.18
442.371	0.16
442.728	0.17
443.085	0.18
443.442	0.17
443.799	0.18
444.156	0.17
444.513	0.19
444.869	0.17
445.226	0.18
445.583	0.18
445.939	0.18
446.296	0.17
446.652	0.18
447.009	0.19
447.365	0.18
447.722	0.18
448.078	0.18
448.434	0.19
448.791	0.18
449.147	0.19
449.503	0.19
449.859	0.17
450.215	0.18
450.571	0.18
450.928	0.19
451.284	0.18
451.64	0.18
451.995	0.19
452.351	0.18
452.707	0.18
453.063	0.18
453.419	0.19
453.775	0.18
454.13	0.18
454.486	0.18
454.842	0.18
455.197	0.18
455.553	0.17
455.908	0.18
456.264	0.17
456.619	0.17
456.975	0.17
457.33	0.16
457.685	0.17
458.04	0.16
458.396	0.16
458.751	0.16
459.106	0.15
459.461	0.16
459.816	0.15
460.171	0.15
460.526	0.15
460.881	0.13
461.236	0.14
461.591	0.13
461.946	0.13
462.301	0.13
462.655	0.13
463.01	0.13
463.365	0.12
463.719	0.11
464.074	0.11
464.428	0.1
464.783	0.09
465.137	0.1
465.492	0.09
465.846	0.1
466.201	0.1
466.555	0.11
466.909	0.11
467.263	0.12
467.618	0.12
467.972	0.12
468.326	0.12
468.68	0.11
469.034	0.1
469.388	0.11
469.742	0.12
470.096	0.12
470.45	0.12
470.804	0.12
471.157	0.12
471.511	0.12
471.865	0.12
472.218	0.13
472.572	0.14
472.926	0.14
473.279	0.16
473.633	0.16
473.986	0.18
474.34	0.19
474.693	0.2
475.046	0.21
475.4	0.22
475.753	0.23
476.106	0.24
476.459	0.25
476.812	0.26
477.165	0.27
477.519	0.28
477.872	0.29
478.224	0.29
478.577	0.31
478.93	0.32
479.283	0.34
479.636	0.33
479.989	0.34
480.341	0.36
480.694	0.36
481.047	0.37
481.399	0.37
481.752	0.39
482.104	0.39
482.457	0.4
482.809	0.41
483.162	0.41
483.514	0.43
483.866	0.44
484.219	0.43
484.571	0.45
484.923	0.45
485.275	0.46
485.627	0.46
485.979	0.47
486.331	0.48
486.683	0.48
487.035	0.49
487.387	0.5
487.739	0.51
488.091	0.52
488.443	0.52
488.794	0.52
489.146	0.53
489.498	0.54
489.849	0.54
490.201	0.54
490.552	0.55
490.904	0.55
491.255	0.56
491.607	0.56
491.958	0.57
492.309	0.57
492.661	0.57
493.012	0.59
493.363	0.59
493.714	0.6
494.065	0.61
494.416	0.62
494.767	0.61
495.118	0.62
495.469	0.63
495.82	0.63
496.171	0.64
496.522	0.65
496.872	0.65
497.223	0.65
497.574	0.66
497.924	0.67
498.275	0.68
498.626	0.68
498.976	0.69
499.327	0.69
499.677	0.7
500.027	0.7
500.378	0.71
500.728	0.71
501.078	0.72
501.428	0.73
501.779	0.73
502.129	0.72
502.479	0.74
502.829	0.74
503.179	0.76
503.529	0.76
503.879	0.77
504.229	0.77
504.578	0.77
504.928	0.78
505.278	0.78
505.628	0.79
505.977	0.79
506.327	0.79
506.676	0.8
507.026	0.81
507.375	0.81
507.725	0.82
508.074	0.81
508.424	0.82
508.773	0.82
509.122	0.83
509.471	0.83
509.82	0.84
510.17	0.84
510.519	0.84
510.868	0.85
511.217	0.86
511.566	0.86
511.915	0.87
512.263	0.87
512.612	0.88
512.961	0.88
513.31	0.88
513.659	0.88
514.007	0.91
514.356	0.9
514.704	0.91
515.053	0.92
515.401	0.91
515.75	0.91
516.098	0.92
516.447	0.92
516.795	0.93
517.143	0.93
517.491	0.94
517.839	0.93
518.188	0.94
518.536	0.95
518.884	0.95
519.232	0.95
519.58	0.95
519.928	0.96
520.275	0.97
520.623	0.97
520.971	0.97
521.319	0.97
521.666	0.98
522.014	0.98
522.362	0.98
522.709	0.99
523.057	1
523.404	1
523.752	1
524.099	1
524.446	1.01
524.794	1
525.141	1.02
525.488	1.02
525.835	1.02
526.182	1.03
526.529	1.02
526.876	1.02
527.223	1.04
527.57	1.03
527.917	1.02
528.264	1.04
528.611	1.04
528.958	1.04
529.304	1.03
529.651	1.05
529.998	1.05
530.344	1.04
530.691	1.06
531.037	1.06
531.384	1.06
531.73	1.06
532.076	1.06
532.423	1.07
532.769	1.07
533.115	1.07
533.461	1.07
533.807	1.08
534.154	1.07
534.5	1.08
534.846	1.08
535.192	1.07
535.537	1.09
535.883	1.09
536.229	1.08
536.575	1.08
536.921	1.1
537.266	1.1
537.612	1.09
537.957	1.1
538.303	1.09
538.649	1.09
538.994	1.1
539.339	1.09
539.685	1.1
540.03	1.11
540.375	1.11
540.721	1.1
541.066	1.11
541.411	1.11
541.756	1.11
542.101	1.11
542.446	1.12
542.791	1.13
543.136	1.12
543.481	1.12
543.825	1.12
544.17	1.12
544.515	1.13
544.86	1.12
545.204	1.13
545.549	1.12
545.893	1.12
546.238	1.12
546.582	1.12
546.927	1.13
547.271	1.12
547.615	1.12
547.96	1.13
548.304	1.12
548.648	1.13
548.992	1.13
549.336	1.12
549.68	1.13
550.024	1.13
550.368	1.13
550.712	1.12
551.056	1.13
551.4	1.12
551.743	1.13
552.087	1.13
552.431	1.12
552.774	1.12
553.118	1.12
553.462	1.12
553.805	1.13
554.148	1.12
554.492	1.12
554.835	1.13
555.178	1.12
555.522	1.12
555.865	1.12
556.208	1.12
556.551	1.11
556.894	1.13
557.237	1.12
557.58	1.13
557.923	1.11
558.266	1.12
558.609	1.13
558.952	1.11
559.294	1.12
559.637	1.12
559.98	1.11
560.322	1.11
560.665	1.11
561.007	1.11
561.35	1.1
561.692	1.1
562.034	1.1
562.377	1.1
562.719	1.1
563.061	1.09
563.403	1.09
563.745	1.1
564.088	1.1
564.43	1.1
564.772	1.09
565.113	1.09
565.455	1.09
565.797	1.08
566.139	1.09
566.481	1.09
566.822	1.08
567.164	1.08
567.506	1.07
567.847	1.08
568.189	1.08
568.53	1.08
568.872	1.07
569.213	1.07
569.554	1.07
569.895	1.06
570.237	1.07
570.578	1.06
570.919	1.06
571.26	1.05
571.601	1.06
571.942	1.05
572.283	1.04
572.624	1.05
572.965	1.04
573.306	1.04
573.646	1.04
573.987	1.03
574.328	1.04
574.668	1.04
575.009	1.03
575.349	1.02
575.69	1.02
576.03	1.02
576.37	1.02
576.711	1.01
577.051	1.01
577.391	1.01
577.731	1.02
578.072	1.01
578.412	1
578.752	1
579.092	1
579.431	0.99
579.771	0.98
580.111	0.97
580.451	0.99
580.791	0.99
581.13	0.99
581.47	0.99
581.81	0.99
582.149	0.98
582.489	0.98
582.828	0.96
583.167	0.95
583.507	0.91
583.846	0.91
584.185	0.95
584.525	0.97
584.864	0.97
585.203	0.98
585.542	0.98
585.881	0.97
586.22	0.96
586.559	0.96
586.898	0.96
587.236	0.94
587.575	0.95
587.914	0.96
588.252	0.96
588.591	0.95
588.93	0.96
589.268	0.95
589.607	0.95
589.945	0.95
590.283	0.95
590.622	0.95
590.96	0.95
591.298	0.96
591.636	0.95
591.974	0.95
592.313	0.95
592.651	0.95
592.989	0.94
593.326	0.94
593.664	0.94
594.002	0.94
594.34	0.94
594.678	0.94
595.015	0.93
595.353	0.93
595.691	0.94
596.028	0.95
596.366	0.94
596.703	0.93
597.04	0.94
597.378	0.94
597.715	0.93
598.052	0.94
598.389	0.93
598.726	0.93
599.064	0.93
599.401	0.93
599.738	0.93
600.074	0.93
600.411	0.93
600.748	0.92
601.085	0.92
601.422	0.92
601.758	0.92
602.095	0.91
602.432	0.92
602.768	0.91
603.105	0.92
603.441	0.91
603.777	0.91
604.114	0.91
604.45	0.91
604.786	0.9
605.122	0.9
605.459	0.9
605.795	0.9
606.131	0.9
606.467	0.89
606.803	0.89
607.139	0.89
607.474	0.89
607.81	0.88
608.146	0.88
608.482	0.88
608.817	0.88
609.153	0.87
609.488	0.87
609.824	0.87
610.159	0.87
610.495	0.87
610.83	0.86
611.165	0.86
611.5	0.86
611.836	0.85
612.171	0.86
612.506	0.85
612.841	0.85
613.176	0.85
613.511	0.84
613.845	0.84
614.18	0.84
614.515	0.83
614.85	0.83
615.184	0.83
615.519	0.83
615.854	0.82
616.188	0.82
616.523	0.81
616.857	0.81
617.191	0.81
617.526	0.81
617.86	0.81
618.194	0.8
618.528	0.8
618.862	0.8
619.196	0.8
619.53	0.79
619.864	0.79
620.198	0.78
620.532	0.78
620.866	0.78
621.2	0.77
621.533	0.77
621.867	0.77
622.201	0.77
622.534	0.76
622.868	0.76
623.201	0.76
623.534	0.75
623.868	0.75
624.201	0.75
624.534	0.74
624.868	0.74
625.201	0.74
625.534	0.73
625.867	0.73
626.2	0.73
626.533	0.73
626.865	0.72
627.198	0.72
627.531	0.71
627.864	0.71
628.196	0.71
628.529	0.7
628.862	0.7
629.194	0.7
629.527	0.69
629.859	0.69
630.191	0.69
630.524	0.69
630.856	0.68
631.188	0.68
631.52	0.67
631.852	0.66
632.184	0.67
632.516	0.67
632.848	0.66
633.18	0.65
633.512	0.65
633.844	0.64
634.175	0.64
634.507	0.64
634.839	0.63
635.17	0.63
635.502	0.62
635.833	0.62
636.165	0.62
636.496	0.62
636.827	0.61
637.159	0.61
637.49	0.61
637.821	0.6
638.152	0.59
638.483	0.59
638.814	0.58
639.145	0.58
639.476	0.57
639.807	0.58
640.137	0.57
640.468	0.56
640.799	0.56
641.129	0.56
641.46	0.55
641.791	0.55
642.121	0.55
642.451	0.54
642.782	0.54
643.112	0.54
643.442	0.54
643.773	0.53
644.103	0.53
644.433	0.53
644.763	0.52
645.093	0.52
645.423	0.52
645.753	0.52
646.082	0.51
646.412	0.51
646.742	0.51
647.072	0.51
647.401	0.5
647.731	0.5
648.06	0.5
648.39	0.5
648.719	0.49
649.048	0.49
649.378	0.49
649.707	0.49
650.036	0.48
650.365	0.48
650.694	0.48
651.023	0.48
651.352	0.48
651.681	0.47
652.01	0.48
652.339	0.47
652.668	0.46
652.996	0.47
653.325	0.46
653.654	0.46
653.982	0.46
654.311	0.46
654.639	0.46
654.967	0.46
655.296	0.46
655.624	0.46
655.952	0.46
656.28	0.45
656.609	0.45
656.937	0.45
657.265	0.43
657.593	0.29
657.92	0.2
658.248	0.17
658.576	0.25
658.904	0.38
659.231	0.43
659.559	0.44
659.887	0.44
660.214	0.43
660.542	0.43
660.869	0.43
661.196	0.43
661.524	0.43
661.851	0.42
662.178	0.42
662.505	0.42
662.832	0.42
663.159	0.42
663.486	0.41
663.813	0.41
664.14	0.41
664.467	0.41
664.794	0.41
665.12	0.41
665.447	0.41
665.774	0.4
666.1	0.4
666.427	0.4
666.753	0.39
667.079	0.39
667.406	0.39
667.732	0.39
668.058	0.39
668.384	0.39
668.71	0.38
669.036	0.38
669.362	0.38
669.688	0.37
670.014	0.37
670.34	0.37
670.666	0.37
670.991	0.37
671.317	0.36
671.643	0.36
671.968	0.36
672.294	0.36
672.619	0.36
672.945	0.35
673.27	0.35
673.595	0.34
673.92	0.34
674.246	0.34
674.571	0.34
674.896	0.34
675.221	0.34
675.546	0.33
675.87	0.33
676.195	0.33
676.52	0.32
676.845	0.32
677.169	0.32
677.494	0.32
677.819	0.31
678.143	0.31
678.468	0.31
678.792	0.31
679.116	0.3
679.44	0.3
679.765	0.3
680.089	0.29
680.413	0.29
680.737	0.28
681.061	0.28
681.385	0.28
681.709	0.28
682.033	0.27
682.356	0.28
682.68	0.27
683.004	0.27
683.327	0.26
683.651	0.26
683.974	0.26
684.298	0.26
684.621	0.26
684.944	0.25
685.268	0.25
685.591	0.25
685.914	0.24
686.237	0.24
686.56	0.24
686.883	0.23
687.206	0.23
687.529	0.23
687.852	0.22
688.175	0.23
688.497	0.22
688.82	0.22
689.142	0.22
689.465	0.22
689.787	0.22
690.11	0.21
690.432	0.21
690.755	0.21
691.077	0.2
691.399	0.2
691.721	0.2
692.043	0.2
692.365	0.19
692.687	0.19
693.009	0.19
693.331	0.18
693.653	0.18
693.974	0.18
694.296	0.18
694.618	0.18
694.939	0.18
695.261	0.18
695.582	0.18
695.904	0.17
696.225	0.17
696.546	0.17
696.868	0.17
697.189	0.17
697.51	0.16
697.831	0.17
698.152	0.16
698.473	0.16
698.794	0.15
699.114	0.15
699.435	0.15
699.756	0.15
700.077	0.15
700.397	0.15
700.718	0.15
701.038	0.15
701.359	0.15
701.679	0.15
701.999	0.15
702.32	0.15
702.64	0.15
702.96	0.15
703.28	0.14
703.6	0.14
703.92	0.14
704.24	0.14
704.56	0.14
704.879	0.14
705.199	0.14
705.519	0.14
705.838	0.14
706.158	0.14
706.478	0.14
706.797	0.14
707.116	0.14
707.436	0.14
707.755	0.14
708.074	0.13
708.393	0.13
708.712	0.13
709.031	0.12
709.35	0.12
709.669	0.12
709.988	0.12
710.307	0.12
710.626	0.12
710.944	0.13
711.263	0.13
711.582	0.13
711.9	0.13
712.219	0.13
712.537	0.13
712.855	0.13
713.174	0.13
713.492	0.13
713.81	0.13
714.128	0.13
714.446	0.13
714.764	0.12
715.082	0.12
715.4	0.13
715.718	0.13
716.035	0.12
716.353	0.13
716.671	0.13
716.988	0.13
717.306	0.13
717.623	0.13
717.941	0.13
718.258	0.13
718.575	0.13
718.893	0.13
719.21	0.13
719.527	0.13
719.844	0.13
720.161	0.13
720.478	0.13
720.795	0.13
721.112	0.13
721.428	0.13
721.745	0.13
722.062	0.13
722.378	0.13
722.695	0.13
723.011	0.13
723.328	0.13
723.644	0.14
723.96	0.13
724.276	0.13
724.593	0.14
724.909	0.14
725.225	0.13
725.541	0.14
725.857	0.14
726.173	0.14
726.488	0.14
726.804	0.14
727.12	0.14
727.435	0.13
727.751	0.13
728.067	0.13
728.382	0.14
728.697	0.13
729.013	0.14
729.328	0.13
729.643	0.13
729.958	0.13
730.273	0.13
730.588	0.13
730.903	0.13
731.218	0.13
731.533	0.13
731.848	0.13
732.163	0.13
732.477	0.13
732.792	0.13
733.107	0.12
733.421	0.13
733.736	0.13
734.05	0.13
734.364	0.13
734.678	0.13
734.993	0.13
735.307	0.13
735.621	0.12
735.935	0.12
736.249	0.12
736.563	0.13
736.877	0.13
737.19	0.13
737.504	0.12
737.818	0.12
738.131	0.12
738.445	0.13
738.758	0.13
739.072	0.12
739.385	0.12
739.698	0.12
740.012	0.12
740.325	0.12
740.638	0.12
740.951	0.12
741.264	0.11
741.577	0.12
741.89	0.12
742.203	0.11
742.515	0.11
742.828	0.11
743.141	0.11
743.453	0.11
743.766	0.11
744.078	0.11
744.391	0.11
744.703	0.11
745.015	0.1
745.327	0.11
745.639	0.11
745.952	0.11
746.264	0.1
746.575	0.1
746.887	0.1
747.199	0.1
747.511	0.1
747.823	0.1
748.134	0.1
748.446	0.1
748.757	0.1
749.069	0.1
749.38	0.1
749.692	0.1
750.003	0.09
750.314	0.09
750.625	0.09
750.936	0.09
751.248	0.09
751.559	0.09
751.869	0.09
752.18	0.09
752.491	0.09
752.802	0.09
753.112	0.08
753.423	0.09
753.734	0.08
754.044	0.08
754.355	0.08
754.665	0.08
754.975	0.08
755.285	0.08
755.596	0.08
755.906	0.08
756.216	0.08
756.526	0.08
756.836	0.08
757.146	0.08
757.455	0.08
757.765	0.08
758.075	0.08
758.385	0.07
758.694	0.07
759.004	0.07
759.313	0.07
759.622	0.07
759.932	0.07
760.241	0.07
760.55	0.07
760.859	0.07
761.168	0.07
761.477	0.07
761.786	0.07
762.095	0.07
762.404	0.07
762.713	0.07
763.021	0.07
763.33	0.07
763.639	0.07
763.947	0.07
764.256	0.07
764.564	0.07
764.872	0.07
765.181	0.07
765.489	0.07
765.797	0.07
766.105	0.07
766.413	0.07
766.721	0.07
767.029	0.07
767.337	0.07
767.644	0.07
767.952	0.07
768.26	0.07
768.567	0.07
768.875	0.07
769.182	0.07
769.49	0.07
769.797	0.07
770.104	0.07
770.411	0.07
770.718	0.07
771.026	0.07
771.333	0.07
771.639	0.07
771.946	0.07
772.253	0.07
772.56	0.07
772.867	0.07
773.173	0.07
773.48	0.07
773.786	0.07
774.093	0.07
774.399	0.07
774.705	0.07
775.012	0.07
775.318	0.07
775.624	0.06
775.93	0.07
776.236	0.07
776.542	0.07
776.848	0.07
777.154	0.07
777.459	0.07
777.765	0.07
778.071	0.07
778.376	0.07
778.682	0.07
778.987	0.07
779.292	0.07
779.598	0.07
779.903	0.07
780.208	0.07
780.513	0.07
780.818	0.07
781.123	0.07
781.428	0.08
781.733	0.07
782.038	0.07
782.343	0.07
782.647	0.07
782.952	0.07
783.256	0.08
783.561	0.08
783.865	0.08
784.17	0.08
784.474	0.08
784.778	0.08
785.082	0.08
785.386	0.08
785.69	0.08
785.994	0.08
786.298	0.08
786.602	0.08
786.906	0.08
787.209	0.08
787.513	0.08
787.817	0.08
788.12	0.08
788.424	0.08
788.727	0.08
789.03	0.08
789.333	0.08
789.637	0.08
789.94	0.07
790.243	0.08
790.546	0.08
790.849	0.08
791.152	0.08
791.454	0.08
791.757	0.08
792.06	0.08
792.362	0.08
792.665	0.08
792.967	0.08
793.27	0.08
793.572	0.08
793.874	0.08
794.177	0.08
794.479	0.08
794.781	0.08
795.083	0.08
795.385	0.08
795.687	0.09
795.989	0.08
796.29	0.09
796.592	0.09
796.894	0.09
797.195	0.09
797.497	0.09
797.798	0.09
798.1	0.09
798.401	0.09
798.702	0.09
799.003	0.09
799.304	0.09
799.605	0.09
799.906	0.1
800.207	0.09
800.508	0.09
800.809	0.09
801.11	0.09
801.41	0.09
801.711	0.1
802.011	0.1
802.312	0.09
802.612	0.09
802.913	0.1
803.213	0.1
803.513	0.1
803.813	0.1
804.113	0.09
804.413	0.1
804.713	0.1
805.013	0.09
805.313	0.1
805.613	0.1
805.912	0.1
806.212	0.1
806.511	0.1
806.811	0.1
807.11	0.1
807.41	0.1
807.709	0.11
808.008	0.1
808.307	0.1
808.606	0.1
808.905	0.1
809.204	0.1
809.503	0.11
809.802	0.1
810.101	0.11
810.399	0.11
810.698	0.11
810.997	0.1
811.295	0.1
811.593	0.11
811.892	0.11
812.19	0.12
812.488	0.11
812.786	0.11
813.084	0.11
813.383	0.12
813.68	0.12
813.978	0.12
814.276	0.11
814.574	0.11
814.872	0.11
815.169	0.11
815.467	0.12
815.764	0.11
816.062	0.11
816.359	0.12
816.656	0.12
816.954	0.12
817.251	0.12
817.548	0.12
817.845	0.12
818.142	0.12
818.439	0.12
818.735	0.12
819.032	0.12
819.329	0.12
819.626	0.12
819.922	0.12
820.219	0.13
820.515	0.13
820.811	0.12
821.108	0.13
821.404	0.12
821.7	0.12
821.996	0.12
822.292	0.13
822.588	0.13
822.884	0.13
823.18	0.13
823.475	0.12
823.771	0.13
824.067	0.12
824.362	0.13
824.658	0.13
824.953	0.14
825.249	0.13
825.544	0.13
825.839	0.13
826.134	0.13
826.429	0.13
826.724	0.13
827.019	0.13
827.314	0.13
827.609	0.13
827.904	0.13
828.198	0.14
828.493	0.14
828.787	0.13
829.082	0.13
829.376	0.13
829.671	0.14
829.965	0.14
830.259	0.14
830.553	0.14
830.847	0.14
831.141	0.13
831.435	0.14
831.729	0.14
832.023	0.15
832.317	0.15
832.61	0.15
832.904	0.15
833.197	0.15
833.491	0.15
833.784	0.14
834.077	0.15
834.371	0.14
834.664	0.15
834.957	0.14
835.25	0.14
835.543	0.15
835.836	0.16
836.129	0.15
836.421	0.15
836.714	0.15
837.007	0.15
837.299	0.15
837.592	0.15
837.884	0.15
838.177	0.14
838.469	0.16
838.761	0.15
839.053	0.15
839.345	0.16
839.637	0.16
839.929	0.16
840.221	0.16
840.513	0.16
840.805	0.16
841.096	0.16
841.388	0.16
841.68	0.16
841.971	0.15
842.262	0.17
842.554	0.16
842.845	0.16
843.136	0.16
843.427	0.17
843.718	0.16
844.009	0.16
844.3	0.17
844.591	0.16
844.882	0.17
845.173	0.17
845.463	0.17
845.754	0.16
846.044	0.17
846.335	0.16
846.625	0.17
846.915	0.16
847.206	0.18
847.496	0.17
847.786	0.17
848.076	0.18
848.366	0.17
848.656	0.18
848.945	0.18
849.235	0.17
849.525	0.17
849.814	0.17
850.104	0.17
850.393	0.16
850.683	0.18
850.972	0.19
851.261	0.17
851.551	0.18
851.84	0.18
852.129	0.17
852.418	0.17
852.707	0.18
852.995	0.18
853.284	0.18
853.573	0.18
853.862	0.18
854.15	0.2
854.439	0.19
854.727	0.2
855.015	0.2
855.304	0.17
855.592	0.18
855.88	0.17
856.168	0.19
856.456	0.2
856.744	0.2
857.032	0.18
857.32	0.19
857.607	0.21
857.895	0.2
858.183	0.2
858.47	0.19
858.757	0.19
859.045	0.19
859.332	0.18
859.619	0.18
859.907	0.21
860.194	0.21
860.481	0.2
860.768	0.16
861.054	0.2
861.341	0.16
861.628	0.18
861.915	0.21
862.201	0.18
862.488	0.17
862.774	0.2
863.061	0.19
863.347	0.22
863.633	0.21
863.919	0.2
864.205	0.19
864.491	0.18
864.777	0.2
865.063	0.22
865.349	0.2
865.635	0.21
865.92	0.18
866.206	0.18
866.492	0.18
866.777	0.18
867.062	0.16
867.348	0.19
867.633	0.18
867.918	0.2
868.203	0.2
868.488	0.19
868.773	0.22
869.058	0.21
869.343	0.23
869.628	0.21
869.912	0.18
870.197	0.19
870.482	0.2
870.766	0.18
871.05	0.18
871.335	0.19
871.619	0.21
871.903	0.2
872.187	0.22
872.471	0.12
872.755	0.26
873.039	0.23
873.323	0.19
873.607	0.2
873.89	0.17
874.174	0.16
874.458	0.11
874.741	0.22
875.024	0.21
875.308	0.17
875.591	0.18
875.874	0.2
876.157	0.15
876.44	0.16
876.723	0.15
877.006	0.2
877.289	0.19
877.572	0.29
877.854	0.1
878.137	0.17
878.42	0.13
878.702	0.13
878.984	0.17
879.267	0.16
879.549	0.32
879.831	0.28
880.113	0.05
880.395	0.23
880.677	0.14
880.959	0.21
