Data from Rubpy_BV_1800_EDTA_Buffered_Absorbance_16-41-27-707.txt Node
Date: Wed Jul 01 16:41:27 BST 2026
User: fpm-admin
Spectrometer: OFX00224
Trigger mode: 0
Integration Time (sec): 7.000000E-2
Scans to average: 3
Nonlinearity correction enabled: false
Boxcar width: 0
Storing dark spectrum: false
XAxis mode: Wavelengths
Number of Pixels in Spectrum: 2136
>>>>>Begin Spectral Data<<<<<
154.91	0.59
155.289	0.14
155.669	0.15
156.048	-0.28
156.428	-0
156.807	-0.19
157.186	-0
157.566	0.82
157.945	-0.99
158.325	-0.28
158.704	-0.22
159.083	0.21
159.462	-0.92
159.842	-0
160.221	-0
160.6	-0
160.979	-0
161.359	-0
161.738	-0
162.117	-0.44
162.496	0.81
162.875	-0.39
163.254	0.18
163.633	0.45
164.012	0.68
164.391	0.2
164.77	0.25
165.149	-0.12
165.528	-0.06
165.907	-0
166.286	-0.23
166.665	-0
167.044	-0.56
167.423	-0.11
167.802	-0.19
168.181	-1.15
168.559	-0.26
168.938	-0.17
169.317	-0
169.696	-1.4
170.074	0.22
170.453	-0
170.832	-0
171.21	-0.13
171.589	-0
171.968	0.39
172.346	1
172.725	-0
173.103	-0
173.482	0.16
173.861	0.7
174.239	-0.65
174.617	-0
174.996	-0.33
175.374	-0
175.753	-0
176.131	0.35
176.51	-0.54
176.888	-0
177.266	-0
177.645	-0.05
178.023	0.78
178.401	-0.25
178.779	0.14
179.158	1.08
179.536	0.86
179.914	-0.11
180.292	1.4
180.67	-0
181.048	-0.07
181.427	-0
181.805	0.05
182.183	-0.15
182.561	-0
182.939	1.18
183.317	-0.69
183.695	0.23
184.073	-0
184.451	-0
184.829	0.7
185.206	-0
185.584	-0
185.962	-0
186.34	0.74
186.718	0.39
187.096	-0
187.473	-0
187.851	-0.31
188.229	0.82
188.607	0.05
188.984	0.07
189.362	0.03
189.74	0.21
190.117	-0.02
190.495	0.01
190.872	0.06
191.25	0.12
191.627	0.08
192.005	0.07
192.382	0.11
192.76	0.05
193.137	0.11
193.515	0.1
193.892	0.14
194.269	0.02
194.647	-0.03
195.024	0.09
195.401	0.1
195.779	0.06
196.156	0.14
196.533	0.08
196.91	0.17
197.288	0.15
197.665	0.08
198.042	0.07
198.419	0.05
198.796	-0.03
199.173	0.12
199.55	0.07
199.927	0.03
200.304	0.02
200.681	0.03
201.058	0.11
201.435	0.03
201.812	-0.03
202.189	0.07
202.566	0.15
202.943	0.01
203.32	0.08
203.697	0.17
204.073	0.09
204.45	0.11
204.827	0.02
205.204	0
205.58	0.03
205.957	0.16
206.334	0.07
206.71	0.03
207.087	0.01
207.464	0.06
207.84	0.18
208.217	0.19
208.593	-0.01
208.97	0.14
209.346	0.13
209.723	0.12
210.099	0.17
210.476	0.13
210.852	0.18
211.228	0.05
211.605	0.04
211.981	0.14
212.357	0.04
212.733	0.07
213.11	0.15
213.486	0.07
213.862	0.15
214.238	0.12
214.614	0.13
214.991	0.2
215.367	0.25
215.743	0.04
216.119	0.13
216.495	0.17
216.871	0.04
217.247	0.08
217.623	0.11
217.999	0.09
218.375	0.19
218.751	0.02
219.127	0.09
219.502	0.08
219.878	0.06
220.254	0.11
220.63	0.23
221.006	0.09
221.381	0.12
221.757	0.11
222.133	0.06
222.508	0.06
222.884	0.09
223.26	0.06
223.635	0
224.011	0.12
224.386	0.03
224.762	0.22
225.137	0.14
225.513	0.06
225.888	0.13
226.264	0.05
226.639	0.11
227.014	0.15
227.39	0.12
227.765	0.16
228.14	0.17
228.516	0.11
228.891	0.14
229.266	0.1
229.641	0.1
230.017	0.24
230.392	0.08
230.767	0.2
231.142	0.1
231.517	0.11
231.892	0.12
232.267	0.11
232.642	0.14
233.017	0.1
233.392	0.07
233.767	0.05
234.142	0.1
234.517	-0.04
234.892	0.16
235.267	0.09
235.641	0.26
236.016	0.17
236.391	0.12
236.766	0.22
237.14	0.06
237.515	0.26
237.89	0.09
238.264	0.08
238.639	0.15
239.014	0.16
239.388	0.13
239.763	0.09
240.137	-0
240.512	0.08
240.886	0.06
241.261	-0
241.635	0.07
242.009	0.16
242.384	0.09
242.758	0.05
243.132	0.05
243.507	0.18
243.881	0.1
244.255	0.15
244.629	-0.02
245.004	0.11
245.378	0.16
245.752	0.15
246.126	0.09
246.5	0.1
246.874	0.05
247.248	0.16
247.622	0.21
247.996	0.1
248.37	0.15
248.744	0.05
249.118	0.1
249.492	0.15
249.866	0.09
250.24	0.16
250.613	0.11
250.987	0.06
251.361	0.11
251.735	0.18
252.108	0.15
252.482	0.09
252.856	-0
253.229	0.09
253.603	0.13
253.977	0.12
254.35	0.17
254.724	0.13
255.097	0.13
255.471	0.07
255.844	0.1
256.218	0.09
256.591	0.09
256.964	0.16
257.338	0.11
257.711	0.1
258.084	0.09
258.458	0.14
258.831	0.15
259.204	0.11
259.577	0.11
259.95	0.09
260.323	0.03
260.697	0.07
261.07	0.1
261.443	0.14
261.816	0.08
262.189	0.1
262.562	0.06
262.935	0.1
263.308	-0
263.68	0.05
264.053	0.18
264.426	0.21
264.799	0.1
265.172	0.15
265.545	0.05
265.917	0.08
266.29	0.08
266.663	0.07
267.035	0.07
267.408	0.12
267.781	0.16
268.153	0.1
268.526	0.05
268.898	0.13
269.271	0.12
269.643	0.1
270.016	0.12
270.388	0.06
270.76	0.14
271.133	0.18
271.505	0.11
271.877	-0
272.25	0.04
272.622	0.14
272.994	0.11
273.366	0.17
273.739	0.09
274.111	0.14
274.483	0.04
274.855	0.06
275.227	0.16
275.599	0.08
275.971	0.06
276.343	0.15
276.715	0.11
277.087	0.17
277.459	0.14
277.831	0.12
278.203	0.15
278.574	0.16
278.946	-0.02
279.318	0.15
279.69	0.15
280.061	0.11
280.433	0.05
280.805	0.08
281.176	0.05
281.548	0.12
281.92	0.12
282.291	0.06
282.663	0.13
283.034	0.11
283.406	0.13
283.777	0.14
284.148	0.18
284.52	0.17
284.891	0.13
285.262	0.12
285.634	0.11
286.005	0.1
286.376	0.15
286.747	0.19
287.119	0.13
287.49	0.19
287.861	0.15
288.232	0.07
288.603	0.12
288.974	0.03
289.345	0.14
289.716	0.12
290.087	0.13
290.458	0.11
290.829	0.24
291.2	0.11
291.571	0.14
291.941	0.1
292.312	0.09
292.683	0.1
293.054	0.17
293.424	0.11
293.795	0.1
294.166	0.11
294.536	0.09
294.907	0.04
295.277	0.08
295.648	0.13
296.018	0.13
296.389	0.06
296.759	0.11
297.13	0.13
297.5	0.16
297.871	0.09
298.241	0.07
298.611	0.18
298.981	0.09
299.352	0.11
299.722	0.07
300.092	0.17
300.462	0.14
300.832	0.09
301.202	0.09
301.573	0.1
301.943	0.1
302.313	0.09
302.683	0.18
303.053	0.18
303.422	0.11
303.792	0.11
304.162	0.13
304.532	0.09
304.902	0.09
305.272	0.14
305.641	0.12
306.011	0.09
306.381	0.11
306.75	0.16
307.12	0.09
307.49	0.08
307.859	0.11
308.229	0.09
308.598	0.08
308.968	0.1
309.337	0.08
309.707	0.1
310.076	0.06
310.445	0.12
310.815	0.1
311.184	0.1
311.553	0.09
311.923	0.11
312.292	0.09
312.661	0.08
313.03	0.08
313.399	0.11
313.768	0.07
314.137	0.05
314.506	0.06
314.875	0.08
315.244	0.05
315.613	0.09
315.982	0.07
316.351	0.09
316.72	0.08
317.089	0.08
317.458	0.08
317.826	0.07
318.195	0.07
318.564	0.09
318.933	0.08
319.301	0.08
319.67	0.08
320.038	0.09
320.407	0.08
320.775	0.08
321.144	0.09
321.512	0.09
321.881	0.09
322.249	0.09
322.618	0.1
322.986	0.09
323.354	0.08
323.723	0.09
324.091	0.1
324.459	0.1
324.827	0.1
325.195	0.1
325.564	0.1
325.932	0.1
326.3	0.1
326.668	0.1
327.036	0.1
327.404	0.1
327.772	0.1
328.14	0.1
328.508	0.1
328.875	0.1
329.243	0.12
329.611	0.11
329.979	0.1
330.346	0.11
330.714	0.12
331.082	0.12
331.449	0.11
331.817	0.1
332.185	0.13
332.552	0.11
332.92	0.12
333.287	0.12
333.655	0.13
334.022	0.13
334.389	0.13
334.757	0.13
335.124	0.13
335.491	0.14
335.859	0.14
336.226	0.14
336.593	0.14
336.96	0.15
337.327	0.14
337.695	0.15
338.062	0.16
338.429	0.16
338.796	0.16
339.163	0.16
339.53	0.16
339.897	0.16
340.263	0.18
340.63	0.17
340.997	0.18
341.364	0.18
341.731	0.18
342.097	0.19
342.464	0.19
342.831	0.19
343.197	0.19
343.564	0.2
343.931	0.2
344.297	0.2
344.664	0.21
345.03	0.21
345.396	0.21
345.763	0.22
346.129	0.22
346.496	0.22
346.862	0.23
347.228	0.23
347.594	0.23
347.961	0.24
348.327	0.24
348.693	0.24
349.059	0.25
349.425	0.25
349.791	0.26
350.157	0.26
350.523	0.26
350.889	0.26
351.255	0.27
351.621	0.27
351.987	0.27
352.353	0.27
352.719	0.28
353.084	0.28
353.45	0.29
353.816	0.28
354.181	0.29
354.547	0.3
354.913	0.3
355.278	0.3
355.644	0.31
356.009	0.31
356.375	0.32
356.74	0.32
357.106	0.32
357.471	0.32
357.836	0.33
358.202	0.34
358.567	0.34
358.932	0.35
359.297	0.35
359.663	0.36
360.028	0.36
360.393	0.37
360.758	0.37
361.123	0.38
361.488	0.39
361.853	0.39
362.218	0.39
362.583	0.4
362.948	0.41
363.312	0.41
363.677	0.41
364.042	0.42
364.407	0.43
364.772	0.43
365.136	0.43
365.501	0.44
365.865	0.45
366.23	0.45
366.595	0.45
366.959	0.46
367.324	0.46
367.688	0.46
368.052	0.47
368.417	0.47
368.781	0.48
369.145	0.48
369.51	0.49
369.874	0.49
370.238	0.5
370.602	0.5
370.967	0.51
371.331	0.51
371.695	0.51
372.059	0.5
372.423	0.52
372.787	0.51
373.151	0.51
373.515	0.51
373.878	0.51
374.242	0.51
374.606	0.5
374.97	0.5
375.334	0.5
375.697	0.49
376.061	0.49
376.425	0.49
376.788	0.49
377.152	0.48
377.515	0.48
377.879	0.47
378.242	0.47
378.606	0.46
378.969	0.46
379.333	0.46
379.696	0.45
380.059	0.45
380.422	0.44
380.786	0.44
381.149	0.43
381.512	0.43
381.875	0.43
382.238	0.43
382.601	0.42
382.964	0.42
383.327	0.41
383.69	0.42
384.053	0.42
384.416	0.41
384.779	0.41
385.142	0.41
385.504	0.41
385.867	0.41
386.23	0.42
386.593	0.42
386.955	0.42
387.318	0.42
387.68	0.42
388.043	0.42
388.405	0.42
388.768	0.43
389.13	0.43
389.493	0.43
389.855	0.43
390.217	0.43
390.58	0.42
390.942	0.42
391.304	0.42
391.666	0.41
392.028	0.41
392.391	0.41
392.753	0.4
393.115	0.4
393.477	0.4
393.839	0.39
394.201	0.39
394.563	0.39
394.924	0.39
395.286	0.39
395.648	0.4
396.01	0.4
396.371	0.4
396.733	0.41
397.095	0.42
397.456	0.43
397.818	0.44
398.18	0.45
398.541	0.47
398.903	0.48
399.264	0.5
399.625	0.51
399.987	0.52
400.348	0.53
400.709	0.55
401.071	0.54
401.432	0.55
401.793	0.55
402.154	0.54
402.515	0.53
402.876	0.53
403.238	0.51
403.599	0.5
403.96	0.48
404.32	0.47
404.681	0.45
405.042	0.43
405.403	0.41
405.764	0.39
406.125	0.37
406.485	0.35
406.846	0.33
407.207	0.31
407.567	0.29
407.928	0.28
408.288	0.26
408.649	0.24
409.009	0.23
409.37	0.22
409.73	0.2
410.091	0.19
410.451	0.19
410.811	0.18
411.171	0.16
411.532	0.15
411.892	0.14
412.252	0.14
412.612	0.13
412.972	0.13
413.332	0.12
413.692	0.11
414.052	0.11
414.412	0.11
414.772	0.1
415.132	0.1
415.492	0.1
415.851	0.09
416.211	0.09
416.571	0.09
416.931	0.09
417.29	0.07
417.65	0.08
418.009	0.08
418.369	0.07
418.728	0.07
419.088	0.07
419.447	0.07
419.807	0.07
420.166	0.07
420.525	0.06
420.884	0.07
421.244	0.06
421.603	0.06
421.962	0.05
422.321	0.06
422.68	0.06
423.039	0.05
423.398	0.06
423.757	0.05
424.116	0.05
424.475	0.06
424.834	0.05
425.193	0.05
425.551	0.06
425.91	0.05
426.269	0.05
426.628	0.05
426.986	0.05
427.345	0.04
427.703	0.05
428.062	0.05
428.42	0.05
428.779	0.05
429.137	0.05
429.496	0.04
429.854	0.05
430.212	0.05
430.57	0.05
430.929	0.03
431.287	0.05
431.645	0.04
432.003	0.05
432.361	0.04
432.719	0.04
433.077	0.04
433.435	0.04
433.793	0.05
434.151	0.04
434.509	0.05
434.866	0.03
435.224	0.04
435.582	0.04
435.94	0.04
436.297	0.04
436.655	0.04
437.012	0.04
437.37	0.03
437.727	0.04
438.085	0.04
438.442	0.03
438.8	0.04
439.157	0.04
439.514	0.03
439.872	0.03
440.229	0.03
440.586	0.03
440.943	0.04
441.3	0.04
441.657	0.04
442.014	0.04
442.371	0.03
442.728	0.04
443.085	0.04
443.442	0.03
443.799	0.03
444.156	0.03
444.513	0.04
444.869	0.02
445.226	0.03
445.583	0.03
445.939	0.04
446.296	0.02
446.652	0.04
447.009	0.03
447.365	0.03
447.722	0.03
448.078	0.03
448.434	0.04
448.791	0.03
449.147	0.03
449.503	0.02
449.859	0.02
450.215	0.02
450.571	0.03
450.928	0.03
451.284	0.02
451.64	0.03
451.995	0.02
452.351	0.03
452.707	0.03
453.063	0.01
453.419	0.02
453.775	0.01
454.13	0
454.486	0
454.842	0.01
455.197	0.01
455.553	-0
455.908	0
456.264	-0
456.619	-0.01
456.975	-0
457.33	-0
457.685	-0.01
458.04	-0.02
458.396	-0.01
458.751	-0.02
459.106	-0.03
459.461	-0.02
459.816	-0.02
460.171	-0.03
460.526	-0.03
460.881	-0.04
461.236	-0.04
461.591	-0.05
461.946	-0.05
462.301	-0.04
462.655	-0.05
463.01	-0.05
463.365	-0.06
463.719	-0.06
464.074	-0.07
464.428	-0.08
464.783	-0.08
465.137	-0.07
465.492	-0.08
465.846	-0.07
466.201	-0.08
466.555	-0.07
466.909	-0.07
467.263	-0.07
467.618	-0.07
467.972	-0.07
468.326	-0.08
468.68	-0.07
469.034	-0.08
469.388	-0.08
469.742	-0.08
470.096	-0.08
470.45	-0.08
470.804	-0.07
471.157	-0.08
471.511	-0.08
471.865	-0.08
472.218	-0.07
472.572	-0.06
472.926	-0.07
473.279	-0.06
473.633	-0.05
473.986	-0.05
474.34	-0.05
474.693	-0.04
475.046	-0.03
475.4	-0.03
475.753	-0.02
476.106	-0.02
476.459	-0.02
476.812	-0.01
477.165	-0.01
477.519	-0
477.872	0
478.224	0.01
478.577	0.01
478.93	0.02
479.283	0.02
479.636	0.02
479.989	0.02
480.341	0.03
480.694	0.03
481.047	0.04
481.399	0.04
481.752	0.03
482.104	0.04
482.457	0.05
482.809	0.05
483.162	0.05
483.514	0.06
483.866	0.05
484.219	0.05
484.571	0.06
484.923	0.05
485.275	0.06
485.627	0.06
485.979	0.07
486.331	0.07
486.683	0.07
487.035	0.07
487.387	0.08
487.739	0.08
488.091	0.08
488.443	0.08
488.794	0.08
489.146	0.08
489.498	0.08
489.849	0.09
490.201	0.09
490.552	0.09
490.904	0.08
491.255	0.09
491.607	0.09
491.958	0.1
492.309	0.1
492.661	0.09
493.012	0.1
493.363	0.1
493.714	0.1
494.065	0.1
494.416	0.1
494.767	0.1
495.118	0.11
495.469	0.1
495.82	0.1
496.171	0.11
496.522	0.11
496.872	0.11
497.223	0.11
497.574	0.11
497.924	0.11
498.275	0.12
498.626	0.12
498.976	0.12
499.327	0.12
499.677	0.12
500.027	0.12
500.378	0.13
500.728	0.12
501.078	0.13
501.428	0.13
501.779	0.13
502.129	0.13
502.479	0.13
502.829	0.14
503.179	0.14
503.529	0.13
503.879	0.14
504.229	0.14
504.578	0.14
504.928	0.14
505.278	0.14
505.628	0.14
505.977	0.14
506.327	0.14
506.676	0.15
507.026	0.15
507.375	0.15
507.725	0.15
508.074	0.15
508.424	0.15
508.773	0.15
509.122	0.15
509.471	0.16
509.82	0.15
510.17	0.16
510.519	0.16
510.868	0.16
511.217	0.16
511.566	0.16
511.915	0.16
512.263	0.16
512.612	0.16
512.961	0.16
513.31	0.16
513.659	0.16
514.007	0.17
514.356	0.17
514.704	0.17
515.053	0.17
515.401	0.17
515.75	0.16
516.098	0.17
516.447	0.17
516.795	0.17
517.143	0.17
517.491	0.17
517.839	0.18
518.188	0.18
518.536	0.18
518.884	0.18
519.232	0.18
519.58	0.18
519.928	0.18
520.275	0.18
520.623	0.19
520.971	0.19
521.319	0.18
521.666	0.18
522.014	0.19
522.362	0.19
522.709	0.19
523.057	0.19
523.404	0.19
523.752	0.19
524.099	0.19
524.446	0.19
524.794	0.19
525.141	0.19
525.488	0.19
525.835	0.2
526.182	0.2
526.529	0.19
526.876	0.2
527.223	0.2
527.57	0.2
527.917	0.2
528.264	0.2
528.611	0.2
528.958	0.2
529.304	0.2
529.651	0.2
529.998	0.2
530.344	0.2
530.691	0.2
531.037	0.2
531.384	0.21
531.73	0.2
532.076	0.21
532.423	0.21
532.769	0.21
533.115	0.21
533.461	0.21
533.807	0.21
534.154	0.21
534.5	0.21
534.846	0.21
535.192	0.21
535.537	0.22
535.883	0.21
536.229	0.22
536.575	0.22
536.921	0.22
537.266	0.22
537.612	0.22
537.957	0.22
538.303	0.22
538.649	0.22
538.994	0.22
539.339	0.22
539.685	0.22
540.03	0.22
540.375	0.23
540.721	0.22
541.066	0.22
541.411	0.22
541.756	0.23
542.101	0.22
542.446	0.23
542.791	0.23
543.136	0.23
543.481	0.23
543.825	0.23
544.17	0.23
544.515	0.23
544.86	0.23
545.204	0.23
545.549	0.23
545.893	0.23
546.238	0.23
546.582	0.23
546.927	0.23
547.271	0.23
547.615	0.24
547.96	0.23
548.304	0.23
548.648	0.24
548.992	0.24
549.336	0.24
549.68	0.24
550.024	0.24
550.368	0.24
550.712	0.24
551.056	0.24
551.4	0.24
551.743	0.23
552.087	0.24
552.431	0.24
552.774	0.24
553.118	0.24
553.462	0.24
553.805	0.24
554.148	0.24
554.492	0.24
554.835	0.24
555.178	0.24
555.522	0.24
555.865	0.24
556.208	0.24
556.551	0.23
556.894	0.24
557.237	0.24
557.58	0.24
557.923	0.24
558.266	0.24
558.609	0.24
558.952	0.24
559.294	0.24
559.637	0.25
559.98	0.24
560.322	0.24
560.665	0.24
561.007	0.24
561.35	0.24
561.692	0.24
562.034	0.24
562.377	0.25
562.719	0.24
563.061	0.24
563.403	0.24
563.745	0.24
564.088	0.24
564.43	0.24
564.772	0.24
565.113	0.24
565.455	0.24
565.797	0.24
566.139	0.24
566.481	0.24
566.822	0.24
567.164	0.24
567.506	0.24
567.847	0.24
568.189	0.24
568.53	0.24
568.872	0.24
569.213	0.24
569.554	0.24
569.895	0.24
570.237	0.24
570.578	0.24
570.919	0.24
571.26	0.24
571.601	0.23
571.942	0.24
572.283	0.23
572.624	0.23
572.965	0.23
573.306	0.23
573.646	0.23
573.987	0.23
574.328	0.23
574.668	0.23
575.009	0.23
575.349	0.23
575.69	0.23
576.03	0.23
576.37	0.23
576.711	0.22
577.051	0.22
577.391	0.23
577.731	0.23
578.072	0.23
578.412	0.23
578.752	0.22
579.092	0.22
579.431	0.22
579.771	0.2
580.111	0.2
580.451	0.21
580.791	0.22
581.13	0.22
581.47	0.22
581.81	0.22
582.149	0.22
582.489	0.22
582.828	0.21
583.167	0.2
583.507	0.16
583.846	0.16
584.185	0.2
584.525	0.22
584.864	0.22
585.203	0.23
585.542	0.22
585.881	0.22
586.22	0.22
586.559	0.22
586.898	0.21
587.236	0.21
587.575	0.21
587.914	0.21
588.252	0.22
588.591	0.22
588.93	0.22
589.268	0.22
589.607	0.22
589.945	0.22
590.283	0.22
590.622	0.22
590.96	0.22
591.298	0.23
591.636	0.23
591.974	0.23
592.313	0.22
592.651	0.23
592.989	0.23
593.326	0.23
593.664	0.23
594.002	0.23
594.34	0.22
594.678	0.22
595.015	0.22
595.353	0.22
595.691	0.22
596.028	0.23
596.366	0.23
596.703	0.23
597.04	0.23
597.378	0.23
597.715	0.23
598.052	0.23
598.389	0.23
598.726	0.23
599.064	0.23
599.401	0.23
599.738	0.23
600.074	0.23
600.411	0.23
600.748	0.23
601.085	0.22
601.422	0.22
601.758	0.22
602.095	0.22
602.432	0.23
602.768	0.23
603.105	0.23
603.441	0.23
603.777	0.23
604.114	0.23
604.45	0.23
604.786	0.23
605.122	0.23
605.459	0.23
605.795	0.23
606.131	0.23
606.467	0.23
606.803	0.23
607.139	0.23
607.474	0.22
607.81	0.22
608.146	0.22
608.482	0.22
608.817	0.22
609.153	0.22
609.488	0.22
609.824	0.22
610.159	0.23
610.495	0.22
610.83	0.22
611.165	0.23
611.5	0.22
611.836	0.22
612.171	0.22
612.506	0.22
612.841	0.22
613.176	0.22
613.511	0.22
613.845	0.22
614.18	0.21
614.515	0.22
614.85	0.22
615.184	0.22
615.519	0.21
615.854	0.21
616.188	0.21
616.523	0.21
616.857	0.21
617.191	0.21
617.526	0.21
617.86	0.21
618.194	0.21
618.528	0.21
618.862	0.21
619.196	0.21
619.53	0.21
619.864	0.21
620.198	0.21
620.532	0.21
620.866	0.21
621.2	0.21
621.533	0.2
621.867	0.2
622.201	0.2
622.534	0.2
622.868	0.2
623.201	0.2
623.534	0.2
623.868	0.2
624.201	0.2
624.534	0.2
624.868	0.2
625.201	0.19
625.534	0.19
625.867	0.19
626.2	0.19
626.533	0.2
626.865	0.19
627.198	0.19
627.531	0.19
627.864	0.19
628.196	0.19
628.529	0.19
628.862	0.19
629.194	0.18
629.527	0.18
629.859	0.19
630.191	0.18
630.524	0.18
630.856	0.18
631.188	0.18
631.52	0.18
631.852	0.17
632.184	0.18
632.516	0.18
632.848	0.17
633.18	0.17
633.512	0.17
633.844	0.17
634.175	0.17
634.507	0.17
634.839	0.17
635.17	0.17
635.502	0.16
635.833	0.16
636.165	0.16
636.496	0.16
636.827	0.16
637.159	0.16
637.49	0.16
637.821	0.16
638.152	0.16
638.483	0.16
638.814	0.16
639.145	0.15
639.476	0.15
639.807	0.15
640.137	0.15
640.468	0.15
640.799	0.15
641.129	0.15
641.46	0.14
641.791	0.14
642.121	0.15
642.451	0.14
642.782	0.14
643.112	0.14
643.442	0.14
643.773	0.14
644.103	0.14
644.433	0.14
644.763	0.14
645.093	0.14
645.423	0.14
645.753	0.14
646.082	0.14
646.412	0.14
646.742	0.14
647.072	0.14
647.401	0.13
647.731	0.13
648.06	0.14
648.39	0.13
648.719	0.13
649.048	0.13
649.378	0.13
649.707	0.13
650.036	0.13
650.365	0.13
650.694	0.13
651.023	0.13
651.352	0.13
651.681	0.13
652.01	0.13
652.339	0.13
652.668	0.13
652.996	0.13
653.325	0.13
653.654	0.13
653.982	0.12
654.311	0.13
654.639	0.12
654.967	0.12
655.296	0.13
655.624	0.12
655.952	0.13
656.28	0.12
656.609	0.13
656.937	0.12
657.265	0.12
657.593	0.01
657.92	0
658.248	0
658.576	0
658.904	0.06
659.231	0.12
659.559	0.12
659.887	0.12
660.214	0.12
660.542	0.12
660.869	0.12
661.196	0.12
661.524	0.12
661.851	0.12
662.178	0.12
662.505	0.12
662.832	0.12
663.159	0.12
663.486	0.11
663.813	0.12
664.14	0.12
664.467	0.12
664.794	0.11
665.12	0.12
665.447	0.12
665.774	0.11
666.1	0.11
666.427	0.11
666.753	0.11
667.079	0.11
667.406	0.11
667.732	0.11
668.058	0.11
668.384	0.11
668.71	0.11
669.036	0.11
669.362	0.11
669.688	0.11
670.014	0.1
670.34	0.1
670.666	0.1
670.991	0.1
671.317	0.1
671.643	0.1
671.968	0.1
672.294	0.1
672.619	0.1
672.945	0.1
673.27	0.1
673.595	0.1
673.92	0.09
674.246	0.09
674.571	0.1
674.896	0.1
675.221	0.09
675.546	0.09
675.87	0.09
676.195	0.09
676.52	0.09
676.845	0.09
677.169	0.09
677.494	0.09
677.819	0.09
678.143	0.08
678.468	0.08
678.792	0.08
679.116	0.08
679.44	0.09
679.765	0.08
680.089	0.08
680.413	0.08
680.737	0.08
681.061	0.08
681.385	0.08
681.709	0.08
682.033	0.08
682.356	0.08
682.68	0.08
683.004	0.08
683.327	0.07
683.651	0.07
683.974	0.07
684.298	0.07
684.621	0.07
684.944	0.07
685.268	0.07
685.591	0.07
685.914	0.07
686.237	0.06
686.56	0.07
686.883	0.06
687.206	0.06
687.529	0.06
687.852	0.06
688.175	0.06
688.497	0.06
688.82	0.06
689.142	0.06
689.465	0.06
689.787	0.06
690.11	0.06
690.432	0.06
690.755	0.06
691.077	0.06
691.399	0.05
691.721	0.05
692.043	0.06
692.365	0.05
692.687	0.05
693.009	0.05
693.331	0.05
693.653	0.05
693.974	0.05
694.296	0.05
694.618	0.05
694.939	0.05
695.261	0.05
695.582	0.05
695.904	0.05
696.225	0.05
696.546	0.04
696.868	0.04
697.189	0.05
697.51	0.04
697.831	0.04
698.152	0.04
698.473	0.04
698.794	0.04
699.114	0.04
699.435	0.04
699.756	0.04
700.077	0.04
700.397	0.04
700.718	0.04
701.038	0.04
701.359	0.04
701.679	0.04
701.999	0.04
702.32	0.04
702.64	0.04
702.96	0.04
703.28	0.04
703.6	0.04
703.92	0.04
704.24	0.04
704.56	0.04
704.879	0.04
705.199	0.04
705.519	0.04
705.838	0.04
706.158	0.04
706.478	0.04
706.797	0.04
707.116	0.04
707.436	0.04
707.755	0.04
708.074	0.03
708.393	0.03
708.712	0.03
709.031	0.03
709.35	0.03
709.669	0.03
709.988	0.03
710.307	0.03
710.626	0.03
710.944	0.03
711.263	0.03
711.582	0.03
711.9	0.03
712.219	0.04
712.537	0.03
712.855	0.03
713.174	0.04
713.492	0.04
713.81	0.04
714.128	0.04
714.446	0.03
714.764	0.03
715.082	0.03
715.4	0.04
715.718	0.03
716.035	0.03
716.353	0.03
716.671	0.03
716.988	0.03
717.306	0.03
717.623	0.04
717.941	0.04
718.258	0.04
718.575	0.04
718.893	0.04
719.21	0.03
719.527	0.04
719.844	0.04
720.161	0.04
720.478	0.04
720.795	0.04
721.112	0.04
721.428	0.04
721.745	0.04
722.062	0.04
722.378	0.04
722.695	0.04
723.011	0.04
723.328	0.04
723.644	0.04
723.96	0.04
724.276	0.04
724.593	0.04
724.909	0.04
725.225	0.04
725.541	0.04
725.857	0.04
726.173	0.04
726.488	0.04
726.804	0.04
727.12	0.04
727.435	0.04
727.751	0.04
728.067	0.04
728.382	0.04
728.697	0.04
729.013	0.04
729.328	0.04
729.643	0.04
729.958	0.04
730.273	0.04
730.588	0.03
730.903	0.04
731.218	0.04
731.533	0.04
731.848	0.04
732.163	0.04
732.477	0.04
732.792	0.04
733.107	0.03
733.421	0.04
733.736	0.04
734.05	0.04
734.364	0.04
734.678	0.03
734.993	0.03
735.307	0.04
735.621	0.03
735.935	0.03
736.249	0.03
736.563	0.04
736.877	0.04
737.19	0.04
737.504	0.04
737.818	0.04
738.131	0.04
738.445	0.04
738.758	0.04
739.072	0.04
739.385	0.04
739.698	0.04
740.012	0.04
740.325	0.03
740.638	0.03
740.951	0.03
741.264	0.03
741.577	0.03
741.89	0.03
742.203	0.03
742.515	0.03
742.828	0.03
743.141	0.03
743.453	0.03
743.766	0.03
744.078	0.03
744.391	0.03
744.703	0.03
745.015	0.03
745.327	0.03
745.639	0.03
745.952	0.03
746.264	0.03
746.575	0.03
746.887	0.03
747.199	0.03
747.511	0.03
747.823	0.03
748.134	0.02
748.446	0.03
748.757	0.03
749.069	0.03
749.38	0.03
749.692	0.03
750.003	0.03
750.314	0.03
750.625	0.02
750.936	0.02
751.248	0.02
751.559	0.02
751.869	0.02
752.18	0.02
752.491	0.02
752.802	0.02
753.112	0.02
753.423	0.02
753.734	0.02
754.044	0.02
754.355	0.02
754.665	0.02
754.975	0.02
755.285	0.02
755.596	0.02
755.906	0.02
756.216	0.02
756.526	0.02
756.836	0.02
757.146	0.02
757.455	0.02
757.765	0.02
758.075	0.02
758.385	0.02
758.694	0.02
759.004	0.02
759.313	0.02
759.622	0.02
759.932	0.02
760.241	0.02
760.55	0.02
760.859	0.02
761.168	0.02
761.477	0.02
761.786	0.01
762.095	0.01
762.404	0.01
762.713	0.02
763.021	0.02
763.33	0.01
763.639	0.02
763.947	0.02
764.256	0.01
764.564	0.02
764.872	0.02
765.181	0.01
765.489	0.01
765.797	0.01
766.105	0.01
766.413	0.01
766.721	0.02
767.029	0.02
767.337	0.02
767.644	0.02
767.952	0.02
768.26	0.02
768.567	0.02
768.875	0.01
769.182	0.01
769.49	0.01
769.797	0.01
770.104	0.01
770.411	0.02
770.718	0.01
771.026	0.01
771.333	0.01
771.639	0.02
771.946	0.01
772.253	0.02
772.56	0.02
772.867	0.01
773.173	0.01
773.48	0.01
773.786	0.01
774.093	0.01
774.399	0.01
774.705	0.01
775.012	0.01
775.318	0.01
775.624	0.01
775.93	0.01
776.236	0.01
776.542	0.01
776.848	0.01
777.154	0.01
777.459	0.01
777.765	0.01
778.071	0.02
778.376	0.01
778.682	0.01
778.987	0.01
779.292	0.01
779.598	0.01
779.903	0.01
780.208	0.01
780.513	0.01
780.818	0.01
781.123	0.01
781.428	0.01
781.733	0.01
782.038	0.01
782.343	0.01
782.647	0.01
782.952	0.01
783.256	0.02
783.561	0.02
783.865	0.01
784.17	0.01
784.474	0.01
784.778	0.01
785.082	0.01
785.386	0.01
785.69	0.01
785.994	0.01
786.298	0.01
786.602	0.01
786.906	0.01
787.209	0.01
787.513	0.01
787.817	0.01
788.12	0.01
788.424	0.01
788.727	0.01
789.03	0.01
789.333	0.01
789.637	0.01
789.94	0.01
790.243	0.01
790.546	0.01
790.849	0.01
791.152	0.01
791.454	0.01
791.757	0.01
792.06	0.01
792.362	0.01
792.665	0.01
792.967	0.01
793.27	0.01
793.572	0.01
793.874	0.01
794.177	0.01
794.479	0.01
794.781	0.01
795.083	0.01
795.385	0.01
795.687	0.01
795.989	0.01
796.29	0.01
796.592	0.01
796.894	0.01
797.195	0.02
797.497	0.02
797.798	0.02
798.1	0.02
798.401	0.02
798.702	0.02
799.003	0.01
799.304	0.02
799.605	0.02
799.906	0.02
800.207	0.02
800.508	0.02
800.809	0.02
801.11	0.01
801.41	0.01
801.711	0.02
802.011	0.02
802.312	0.01
802.612	0.01
802.913	0.01
803.213	0.02
803.513	0.02
803.813	0.02
804.113	0.01
804.413	0.01
804.713	0.01
805.013	0.02
805.313	0.02
805.613	0.02
805.912	0.02
806.212	0.02
806.511	0.02
806.811	0.02
807.11	0.01
807.41	0.02
807.709	0.02
808.008	0.01
808.307	0.01
808.606	0.02
808.905	0.02
809.204	0.01
809.503	0.02
809.802	0.02
810.101	0.02
810.399	0.02
810.698	0.02
810.997	0.02
811.295	0.02
811.593	0.02
811.892	0.02
812.19	0.02
812.488	0.02
812.786	0.02
813.084	0.02
813.383	0.02
813.68	0.02
813.978	0.02
814.276	0.02
814.574	0.02
814.872	0.02
815.169	0.02
815.467	0.02
815.764	0.01
816.062	0.02
816.359	0.02
816.656	0.02
816.954	0.02
817.251	0.02
817.548	0.02
817.845	0.02
818.142	0.02
818.439	0.02
818.735	0.02
819.032	0.02
819.329	0.02
819.626	0.02
819.922	0.02
820.219	0.02
820.515	0.02
820.811	0.02
821.108	0.02
821.404	0.02
821.7	0.02
821.996	0.02
822.292	0.02
822.588	0.02
822.884	0.02
823.18	0.02
823.475	0.02
823.771	0.02
824.067	0.02
824.362	0.02
824.658	0.01
824.953	0.02
825.249	0.02
825.544	0.02
825.839	0.02
826.134	0.03
826.429	0.02
826.724	0.02
827.019	0.02
827.314	0.01
827.609	0.02
827.904	0.02
828.198	0.02
828.493	0.02
828.787	0.02
829.082	0.02
829.376	0.02
829.671	0.02
829.965	0.02
830.259	0.02
830.553	0.02
830.847	0.02
831.141	0.01
831.435	0.02
831.729	0.02
832.023	0.03
832.317	0.02
832.61	0.02
832.904	0.02
833.197	0.02
833.491	0.03
833.784	0.02
834.077	0.02
834.371	0.02
834.664	0.01
834.957	0.02
835.25	0.03
835.543	0.02
835.836	0.02
836.129	0.02
836.421	0.02
836.714	0.02
837.007	0.02
837.299	0.02
837.592	0.03
837.884	0.02
838.177	0.01
838.469	0.03
838.761	0.01
839.053	0.02
839.345	0.03
839.637	0.03
839.929	0.02
840.221	0.02
840.513	0.02
840.805	0.03
841.096	0.02
841.388	0.02
841.68	0.02
841.971	0.01
842.262	0.02
842.554	0.02
842.845	0.02
843.136	0.02
843.427	0.03
843.718	0.02
844.009	0.01
844.3	0.03
844.591	0.03
844.882	0.02
845.173	0.02
845.463	0.03
845.754	0.01
846.044	0.02
846.335	0.02
846.625	0.02
846.915	0.01
847.206	0.03
847.496	0.03
847.786	0.02
848.076	0.03
848.366	0.03
848.656	0.03
848.945	0.03
849.235	0.02
849.525	0.03
849.814	0.02
850.104	0.02
850.393	0.02
850.683	0.02
850.972	0.02
851.261	0.02
851.551	0.03
851.84	0.03
852.129	0.02
852.418	0.02
852.707	0.03
852.995	0.03
853.284	0.03
853.573	0.03
853.862	0.02
854.15	0.04
854.439	0.03
854.727	0.04
855.015	0.03
855.304	0.04
855.592	0.02
855.88	0.03
856.168	0.03
856.456	0.02
856.744	0.03
857.032	0.02
857.32	0.04
857.607	0.04
857.895	0.03
858.183	0.03
858.47	0.04
858.757	0.02
859.045	0.02
859.332	0.02
859.619	0.02
859.907	0.02
860.194	0.03
860.481	0.03
860.768	0.01
861.054	0.04
861.341	-0
861.628	0.02
861.915	0.05
862.201	0.02
862.488	0.02
862.774	0.03
863.061	0.03
863.347	0.04
863.633	0.04
863.919	0.01
864.205	0.02
864.491	0.02
864.777	0.03
865.063	0.04
865.349	0.02
865.635	0.02
865.92	0.01
866.206	0.01
866.492	0.01
866.777	0.04
867.062	0.01
867.348	0.01
867.633	0.03
867.918	0.03
868.203	0.02
868.488	0.02
868.773	0.04
869.058	-0
869.343	0.05
869.628	0.01
869.912	0
870.197	0.03
870.482	0.04
870.766	0.01
871.05	0.02
871.335	0
871.619	-0.02
871.903	0.01
872.187	0.06
872.471	0.03
872.755	0.08
873.039	-0.05
873.323	0.01
873.607	0.01
873.89	0.01
874.174	0.02
874.458	0.08
874.741	0.07
875.024	-0
875.308	0.03
875.591	-0.03
875.874	0.01
876.157	0.01
876.44	0.01
876.723	0.04
877.006	-0.02
877.289	0.03
877.572	0.09
877.854	-0.05
878.137	0.05
878.42	-0
878.702	-0
878.984	0.03
879.267	0.04
879.549	0.1
879.831	0.03
880.113	-0.02
880.395	0.06
880.677	0.1
880.959	-0.06
