Data from Rubpy_BV_1800_EDTA_Buffered_Absorbance_16-48-49-733.txt Node
Date: Wed Jul 01 16:48:49 BST 2026
User: fpm-admin
Spectrometer: OFX00224
Trigger mode: 0
Integration Time (sec): 7.000000E-2
Scans to average: 3
Nonlinearity correction enabled: false
Boxcar width: 0
Storing dark spectrum: false
XAxis mode: Wavelengths
Number of Pixels in Spectrum: 2136
>>>>>Begin Spectral Data<<<<<
154.91	0.69
155.289	-0.32
155.669	1.06
156.048	0.65
156.428	-0
156.807	0.24
157.186	-0
157.566	-0
157.945	-0
158.325	-0.37
158.704	0.27
159.083	0.14
159.462	-0
159.842	0.25
160.221	0.27
160.6	-0
160.979	-0
161.359	0.25
161.738	-0.54
162.117	-0
162.496	-0.35
162.875	1.15
163.254	0.23
163.633	-0
164.012	-0.19
164.391	-0.02
164.77	0.11
165.149	-0
165.528	-0
165.907	-0
166.286	-0
166.665	-0.21
167.044	0.13
167.423	1.33
167.802	-0
168.181	-1.46
168.559	-0.34
168.938	0.92
169.317	-0
169.696	-0.6
170.074	-0.08
170.453	-0
170.832	-0
171.21	-0
171.589	-0
171.968	0.42
172.346	-0
172.725	-0
173.103	0.7
173.482	1.24
173.861	-0
174.239	-0.11
174.617	-0.03
174.996	0.21
175.374	-0.64
175.753	-0.88
176.131	-0
176.51	0.52
176.888	0.1
177.266	-0
177.645	0.02
178.023	0.9
178.401	-0.21
178.779	0.01
179.158	0.23
179.536	0.13
179.914	0.48
180.292	0.44
180.67	-0.18
181.048	-0
181.427	0.12
181.805	-0
182.183	-0.23
182.561	0.15
182.939	-0
183.317	-0.58
183.695	0.18
184.073	-0
184.451	-0.64
184.829	-0.29
185.206	-0.19
185.584	0.36
185.962	-0.29
186.34	-0.32
186.718	0.99
187.096	-0
187.473	-0.76
187.851	-0.1
188.229	-0.47
188.607	0.1
188.984	0.3
189.362	0.3
189.74	0.35
190.117	0.18
190.495	0.35
190.872	0.2
191.25	0.23
191.627	0.2
192.005	0.29
192.382	0.28
192.76	0.26
193.137	0.24
193.515	0.37
193.892	0.34
194.269	0.32
194.647	0.26
195.024	0.26
195.401	0.34
195.779	0.31
196.156	0.25
196.533	0.27
196.91	0.32
197.288	0.3
197.665	0.22
198.042	0.28
198.419	0.26
198.796	0.17
199.173	0.25
199.55	0.23
199.927	0.31
200.304	0.19
200.681	0.18
201.058	0.26
201.435	0.29
201.812	0.31
202.189	0.43
202.566	0.2
202.943	0.17
203.32	0.31
203.697	0.44
204.073	0.31
204.45	0.49
204.827	0.36
205.204	0.31
205.58	0.43
205.957	0.37
206.334	0.2
206.71	0.35
207.087	0.32
207.464	0.32
207.84	0.35
208.217	0.3
208.593	0.22
208.97	0.38
209.346	0.31
209.723	0.43
210.099	0.42
210.476	0.21
210.852	0.38
211.228	0.34
211.605	0.38
211.981	0.22
212.357	0.34
212.733	0.23
213.11	0.36
213.486	0.34
213.862	0.29
214.238	0.58
214.614	0.28
214.991	0.31
215.367	0.36
215.743	0.26
216.119	0.19
216.495	0.24
216.871	0.18
217.247	0.22
217.623	0.19
217.999	0.41
218.375	0.36
218.751	0.31
219.127	0.33
219.502	0.31
219.878	0.2
220.254	0.31
220.63	0.32
221.006	0.35
221.381	0.29
221.757	0.34
222.133	0.35
222.508	0.35
222.884	0.21
223.26	0.22
223.635	0.31
224.011	0.28
224.386	0.23
224.762	0.45
225.137	0.29
225.513	0.24
225.888	0.36
226.264	0.16
226.639	0.26
227.014	0.38
227.39	0.28
227.765	0.26
228.14	0.21
228.516	0.46
228.891	0.36
229.266	0.45
229.641	0.32
230.017	0.41
230.392	0.38
230.767	0.42
231.142	0.25
231.517	0.37
231.892	0.33
232.267	0.48
232.642	0.35
233.017	0.17
233.392	0.2
233.767	0.29
234.142	0.28
234.517	0.21
234.892	0.31
235.267	0.35
235.641	0.38
236.016	0.38
236.391	0.36
236.766	0.25
237.14	0.2
237.515	0.37
237.89	0.32
238.264	0.41
238.639	0.36
239.014	0.42
239.388	0.32
239.763	0.38
240.137	0.2
240.512	0.28
240.886	0.31
241.261	0.38
241.635	0.4
242.009	0.28
242.384	0.19
242.758	0.2
243.132	0.18
243.507	0.28
243.881	0.34
244.255	0.27
244.629	0.47
245.004	0.62
245.378	0.33
245.752	0.26
246.126	0.3
246.5	0.34
246.874	0.44
247.248	0.47
247.622	0.43
247.996	0.32
248.37	0.29
248.744	0.32
249.118	0.26
249.492	0.23
249.866	0.37
250.24	0.39
250.613	0.36
250.987	0.38
251.361	0.52
251.735	0.32
252.108	0.41
252.482	0.34
252.856	0.26
253.229	0.37
253.603	0.31
253.977	0.37
254.35	0.37
254.724	0.32
255.097	0.42
255.471	0.27
255.844	0.25
256.218	0.31
256.591	0.27
256.964	0.51
257.338	0.29
257.711	0.45
258.084	0.38
258.458	0.35
258.831	0.43
259.204	0.26
259.577	0.31
259.95	0.27
260.323	0.26
260.697	0.23
261.07	0.28
261.443	0.38
261.816	0.29
262.189	0.35
262.562	0.43
262.935	0.41
263.308	0.21
263.68	0.3
264.053	0.43
264.426	0.35
264.799	0.32
265.172	0.41
265.545	0.38
265.917	0.48
266.29	0.35
266.663	0.42
267.035	0.24
267.408	0.35
267.781	0.46
268.153	0.29
268.526	0.41
268.898	0.39
269.271	0.27
269.643	0.42
270.016	0.56
270.388	0.31
270.76	0.3
271.133	0.27
271.505	0.35
271.877	0.27
272.25	0.37
272.622	0.5
272.994	0.41
273.366	0.37
273.739	0.4
274.111	0.36
274.483	0.22
274.855	0.26
275.227	0.3
275.599	0.34
275.971	0.34
276.343	0.3
276.715	0.43
277.087	0.39
277.459	0.44
277.831	0.25
278.203	0.31
278.574	0.41
278.946	0.35
279.318	0.3
279.69	0.32
280.061	0.34
280.433	0.3
280.805	0.32
281.176	0.41
281.548	0.34
281.92	0.31
282.291	0.31
282.663	0.39
283.034	0.32
283.406	0.38
283.777	0.47
284.148	0.42
284.52	0.32
284.891	0.39
285.262	0.36
285.634	0.36
286.005	0.37
286.376	0.45
286.747	0.27
287.119	0.34
287.49	0.39
287.861	0.37
288.232	0.39
288.603	0.43
288.974	0.26
289.345	0.43
289.716	0.32
290.087	0.31
290.458	0.21
290.829	0.3
291.2	0.3
291.571	0.42
291.941	0.27
292.312	0.39
292.683	0.26
293.054	0.37
293.424	0.33
293.795	0.34
294.166	0.32
294.536	0.33
294.907	0.31
295.277	0.39
295.648	0.33
296.018	0.35
296.389	0.21
296.759	0.26
297.13	0.37
297.5	0.32
297.871	0.32
298.241	0.41
298.611	0.34
298.981	0.35
299.352	0.39
299.722	0.35
300.092	0.4
300.462	0.44
300.832	0.36
301.202	0.42
301.573	0.37
301.943	0.31
302.313	0.29
302.683	0.29
303.053	0.38
303.422	0.36
303.792	0.33
304.162	0.31
304.532	0.39
304.902	0.29
305.272	0.31
305.641	0.37
306.011	0.31
306.381	0.31
306.75	0.35
307.12	0.29
307.49	0.29
307.859	0.27
308.229	0.34
308.598	0.27
308.968	0.27
309.337	0.27
309.707	0.25
310.076	0.24
310.445	0.26
310.815	0.26
311.184	0.26
311.553	0.26
311.923	0.26
312.292	0.25
312.661	0.26
313.03	0.27
313.399	0.28
313.768	0.25
314.137	0.25
314.506	0.25
314.875	0.26
315.244	0.22
315.613	0.26
315.982	0.27
316.351	0.28
316.72	0.27
317.089	0.27
317.458	0.29
317.826	0.29
318.195	0.28
318.564	0.29
318.933	0.3
319.301	0.29
319.67	0.28
320.038	0.3
320.407	0.31
320.775	0.31
321.144	0.31
321.512	0.31
321.881	0.32
322.249	0.33
322.618	0.32
322.986	0.33
323.354	0.33
323.723	0.35
324.091	0.34
324.459	0.36
324.827	0.36
325.195	0.36
325.564	0.36
325.932	0.38
326.3	0.37
326.668	0.39
327.036	0.38
327.404	0.4
327.772	0.4
328.14	0.39
328.508	0.41
328.875	0.41
329.243	0.43
329.611	0.43
329.979	0.44
330.346	0.43
330.714	0.44
331.082	0.45
331.449	0.45
331.817	0.46
332.185	0.47
332.552	0.48
332.92	0.49
333.287	0.5
333.655	0.5
334.022	0.53
334.389	0.52
334.757	0.55
335.124	0.55
335.491	0.56
335.859	0.57
336.226	0.57
336.593	0.59
336.96	0.6
337.327	0.61
337.695	0.63
338.062	0.63
338.429	0.64
338.796	0.66
339.163	0.67
339.53	0.68
339.897	0.69
340.263	0.71
340.63	0.72
340.997	0.73
341.364	0.74
341.731	0.76
342.097	0.77
342.464	0.78
342.831	0.8
343.197	0.81
343.564	0.81
343.931	0.82
344.297	0.84
344.664	0.85
345.03	0.88
345.396	0.88
345.763	0.9
346.129	0.91
346.496	0.92
346.862	0.93
347.228	0.94
347.594	0.96
347.961	0.97
348.327	0.98
348.693	0.99
349.059	1.01
349.425	1.02
349.791	1.03
350.157	1.03
350.523	1.05
350.889	1.06
351.255	1.08
351.621	1.09
351.987	1.09
352.353	1.11
352.719	1.12
353.084	1.13
353.45	1.14
353.816	1.17
354.181	1.16
354.547	1.2
354.913	1.2
355.278	1.21
355.644	1.21
356.009	1.24
356.375	1.26
356.74	1.28
357.106	1.29
357.471	1.3
357.836	1.31
358.202	1.36
358.567	1.34
358.932	1.37
359.297	1.39
359.663	1.41
360.028	1.42
360.393	1.42
360.758	1.45
361.123	1.46
361.488	1.5
361.853	1.5
362.218	1.5
362.583	1.54
362.948	1.54
363.312	1.55
363.677	1.57
364.042	1.6
364.407	1.63
364.772	1.62
365.136	1.63
365.501	1.64
365.865	1.68
366.23	1.64
366.595	1.66
366.959	1.71
367.324	1.71
367.688	1.68
368.052	1.71
368.417	1.75
368.781	1.71
369.145	1.78
369.51	1.78
369.874	1.75
370.238	1.8
370.602	1.74
370.967	1.78
371.331	1.79
371.695	1.79
372.059	1.79
372.423	1.81
372.787	1.8
373.151	1.78
373.515	1.8
373.878	1.78
374.242	1.78
374.606	1.74
374.97	1.73
375.334	1.77
375.697	1.74
376.061	1.72
376.425	1.73
376.788	1.71
377.152	1.7
377.515	1.67
377.879	1.67
378.242	1.65
378.606	1.62
378.969	1.6
379.333	1.61
379.696	1.59
380.059	1.56
380.422	1.56
380.786	1.52
381.149	1.54
381.512	1.5
381.875	1.49
382.238	1.46
382.601	1.47
382.964	1.44
383.327	1.41
383.69	1.4
384.053	1.36
384.416	1.35
384.779	1.35
385.142	1.33
385.504	1.34
385.867	1.32
386.23	1.32
386.593	1.3
386.955	1.29
387.318	1.29
387.68	1.29
388.043	1.27
388.405	1.26
388.768	1.28
389.13	1.27
389.493	1.25
389.855	1.23
390.217	1.23
390.58	1.22
390.942	1.19
391.304	1.19
391.666	1.18
392.028	1.15
392.391	1.15
392.753	1.13
393.115	1.12
393.477	1.1
393.839	1.1
394.201	1.09
394.563	1.09
394.924	1.07
395.286	1.07
395.648	1.07
396.01	1.08
396.371	1.09
396.733	1.1
397.095	1.12
397.456	1.11
397.818	1.15
398.18	1.17
398.541	1.21
398.903	1.23
399.264	1.25
399.625	1.28
399.987	1.3
400.348	1.31
400.709	1.33
401.071	1.34
401.432	1.35
401.793	1.35
402.154	1.33
402.515	1.3
402.876	1.29
403.238	1.27
403.599	1.25
403.96	1.2
404.32	1.15
404.681	1.12
405.042	1.07
405.403	1.04
405.764	0.97
406.125	0.94
406.485	0.9
406.846	0.84
407.207	0.8
407.567	0.76
407.928	0.73
408.288	0.69
408.649	0.65
409.009	0.61
409.37	0.57
409.73	0.55
410.091	0.52
410.451	0.5
410.811	0.47
411.171	0.44
411.532	0.42
411.892	0.4
412.252	0.39
412.612	0.37
412.972	0.35
413.332	0.34
413.692	0.32
414.052	0.31
414.412	0.3
414.772	0.29
415.132	0.28
415.492	0.27
415.851	0.26
416.211	0.26
416.571	0.26
416.931	0.24
417.29	0.24
417.65	0.23
418.009	0.22
418.369	0.21
418.728	0.21
419.088	0.21
419.447	0.2
419.807	0.2
420.166	0.19
420.525	0.19
420.884	0.19
421.244	0.19
421.603	0.18
421.962	0.17
422.321	0.17
422.68	0.17
423.039	0.17
423.398	0.17
423.757	0.16
424.116	0.17
424.475	0.16
424.834	0.16
425.193	0.16
425.551	0.16
425.91	0.16
426.269	0.15
426.628	0.15
426.986	0.15
427.345	0.15
427.703	0.14
428.062	0.15
428.42	0.14
428.779	0.15
429.137	0.15
429.496	0.14
429.854	0.14
430.212	0.15
430.57	0.14
430.929	0.14
431.287	0.14
431.645	0.13
432.003	0.14
432.361	0.13
432.719	0.14
433.077	0.14
433.435	0.14
433.793	0.14
434.151	0.14
434.509	0.14
434.866	0.14
435.224	0.13
435.582	0.14
435.94	0.14
436.297	0.14
436.655	0.14
437.012	0.13
437.37	0.13
437.727	0.13
438.085	0.13
438.442	0.13
438.8	0.14
439.157	0.13
439.514	0.13
439.872	0.13
440.229	0.13
440.586	0.13
440.943	0.14
441.3	0.14
441.657	0.15
442.014	0.14
442.371	0.12
442.728	0.13
443.085	0.14
443.442	0.13
443.799	0.13
444.156	0.14
444.513	0.13
444.869	0.12
445.226	0.14
445.583	0.14
445.939	0.15
446.296	0.13
446.652	0.13
447.009	0.14
447.365	0.14
447.722	0.14
448.078	0.14
448.434	0.14
448.791	0.14
449.147	0.13
449.503	0.14
449.859	0.13
450.215	0.13
450.571	0.14
450.928	0.14
451.284	0.15
451.64	0.14
451.995	0.15
452.351	0.14
452.707	0.14
453.063	0.14
453.419	0.13
453.775	0.14
454.13	0.13
454.486	0.14
454.842	0.14
455.197	0.13
455.553	0.12
455.908	0.12
456.264	0.12
456.619	0.13
456.975	0.12
457.33	0.13
457.685	0.12
458.04	0.12
458.396	0.11
458.751	0.11
459.106	0.1
459.461	0.1
459.816	0.11
460.171	0.1
460.526	0.1
460.881	0.09
461.236	0.09
461.591	0.08
461.946	0.08
462.301	0.08
462.655	0.08
463.01	0.08
463.365	0.07
463.719	0.07
464.074	0.06
464.428	0.05
464.783	0.05
465.137	0.05
465.492	0.05
465.846	0.06
466.201	0.06
466.555	0.06
466.909	0.07
467.263	0.07
467.618	0.06
467.972	0.07
468.326	0.07
468.68	0.06
469.034	0.06
469.388	0.06
469.742	0.07
470.096	0.07
470.45	0.07
470.804	0.07
471.157	0.07
471.511	0.07
471.865	0.07
472.218	0.08
472.572	0.09
472.926	0.09
473.279	0.11
473.633	0.11
473.986	0.12
474.34	0.12
474.693	0.13
475.046	0.15
475.4	0.15
475.753	0.17
476.106	0.17
476.459	0.18
476.812	0.19
477.165	0.2
477.519	0.21
477.872	0.21
478.224	0.22
478.577	0.23
478.93	0.24
479.283	0.24
479.636	0.25
479.989	0.26
480.341	0.27
480.694	0.27
481.047	0.28
481.399	0.28
481.752	0.29
482.104	0.29
482.457	0.31
482.809	0.32
483.162	0.31
483.514	0.32
483.866	0.33
484.219	0.33
484.571	0.34
484.923	0.33
485.275	0.35
485.627	0.35
485.979	0.36
486.331	0.37
486.683	0.37
487.035	0.37
487.387	0.38
487.739	0.39
488.091	0.4
488.443	0.39
488.794	0.4
489.146	0.4
489.498	0.41
489.849	0.41
490.201	0.42
490.552	0.42
490.904	0.42
491.255	0.43
491.607	0.43
491.958	0.44
492.309	0.44
492.661	0.45
493.012	0.45
493.363	0.45
493.714	0.45
494.065	0.46
494.416	0.46
494.767	0.47
495.118	0.47
495.469	0.48
495.82	0.48
496.171	0.49
496.522	0.5
496.872	0.5
497.223	0.5
497.574	0.5
497.924	0.51
498.275	0.52
498.626	0.52
498.976	0.53
499.327	0.53
499.677	0.53
500.027	0.54
500.378	0.54
500.728	0.54
501.078	0.55
501.428	0.56
501.779	0.56
502.129	0.56
502.479	0.57
502.829	0.57
503.179	0.58
503.529	0.58
503.879	0.58
504.229	0.59
504.578	0.58
504.928	0.59
505.278	0.6
505.628	0.6
505.977	0.61
506.327	0.61
506.676	0.61
507.026	0.61
507.375	0.62
507.725	0.62
508.074	0.63
508.424	0.63
508.773	0.64
509.122	0.63
509.471	0.64
509.82	0.64
510.17	0.65
510.519	0.66
510.868	0.65
511.217	0.66
511.566	0.66
511.915	0.67
512.263	0.67
512.612	0.68
512.961	0.67
513.31	0.68
513.659	0.68
514.007	0.69
514.356	0.7
514.704	0.69
515.053	0.7
515.401	0.7
515.75	0.7
516.098	0.71
516.447	0.7
516.795	0.71
517.143	0.71
517.491	0.71
517.839	0.72
518.188	0.72
518.536	0.73
518.884	0.73
519.232	0.73
519.58	0.73
519.928	0.73
520.275	0.74
520.623	0.74
520.971	0.75
521.319	0.75
521.666	0.75
522.014	0.75
522.362	0.76
522.709	0.76
523.057	0.76
523.404	0.77
523.752	0.77
524.099	0.77
524.446	0.77
524.794	0.78
525.141	0.78
525.488	0.78
525.835	0.78
526.182	0.79
526.529	0.79
526.876	0.78
527.223	0.79
527.57	0.79
527.917	0.8
528.264	0.8
528.611	0.8
528.958	0.8
529.304	0.81
529.651	0.8
529.998	0.81
530.344	0.81
530.691	0.81
531.037	0.81
531.384	0.82
531.73	0.82
532.076	0.83
532.423	0.82
532.769	0.83
533.115	0.82
533.461	0.83
533.807	0.83
534.154	0.83
534.5	0.83
534.846	0.83
535.192	0.83
535.537	0.83
535.883	0.84
536.229	0.84
536.575	0.85
536.921	0.84
537.266	0.85
537.612	0.84
537.957	0.85
538.303	0.84
538.649	0.85
538.994	0.85
539.339	0.85
539.685	0.85
540.03	0.85
540.375	0.86
540.721	0.86
541.066	0.86
541.411	0.86
541.756	0.86
542.101	0.86
542.446	0.86
542.791	0.86
543.136	0.87
543.481	0.87
543.825	0.86
544.17	0.86
544.515	0.87
544.86	0.87
545.204	0.87
545.549	0.87
545.893	0.87
546.238	0.87
546.582	0.87
546.927	0.87
547.271	0.88
547.615	0.88
547.96	0.88
548.304	0.87
548.648	0.88
548.992	0.87
549.336	0.87
549.68	0.87
550.024	0.89
550.368	0.88
550.712	0.88
551.056	0.88
551.4	0.87
551.743	0.89
552.087	0.88
552.431	0.87
552.774	0.88
553.118	0.88
553.462	0.87
553.805	0.88
554.148	0.87
554.492	0.88
554.835	0.87
555.178	0.88
555.522	0.87
555.865	0.88
556.208	0.87
556.551	0.87
556.894	0.87
557.237	0.87
557.58	0.88
557.923	0.87
558.266	0.87
558.609	0.87
558.952	0.87
559.294	0.87
559.637	0.87
559.98	0.87
560.322	0.86
560.665	0.87
561.007	0.87
561.35	0.86
561.692	0.86
562.034	0.86
562.377	0.86
562.719	0.86
563.061	0.86
563.403	0.86
563.745	0.86
564.088	0.85
564.43	0.85
564.772	0.85
565.113	0.85
565.455	0.85
565.797	0.85
566.139	0.86
566.481	0.85
566.822	0.85
567.164	0.86
567.506	0.85
567.847	0.85
568.189	0.85
568.53	0.84
568.872	0.84
569.213	0.84
569.554	0.84
569.895	0.84
570.237	0.84
570.578	0.83
570.919	0.84
571.26	0.83
571.601	0.83
571.942	0.82
572.283	0.82
572.624	0.82
572.965	0.82
573.306	0.82
573.646	0.82
573.987	0.82
574.328	0.81
574.668	0.81
575.009	0.81
575.349	0.81
575.69	0.8
576.03	0.8
576.37	0.8
576.711	0.79
577.051	0.79
577.391	0.8
577.731	0.8
578.072	0.79
578.412	0.79
578.752	0.79
579.092	0.79
579.431	0.77
579.771	0.76
580.111	0.76
580.451	0.77
580.791	0.78
581.13	0.77
581.47	0.78
581.81	0.77
582.149	0.77
582.489	0.77
582.828	0.76
583.167	0.74
583.507	0.71
583.846	0.71
584.185	0.74
584.525	0.76
584.864	0.76
585.203	0.77
585.542	0.77
585.881	0.77
586.22	0.76
586.559	0.76
586.898	0.75
587.236	0.74
587.575	0.75
587.914	0.75
588.252	0.76
588.591	0.75
588.93	0.75
589.268	0.75
589.607	0.75
589.945	0.75
590.283	0.75
590.622	0.75
590.96	0.76
591.298	0.76
591.636	0.75
591.974	0.76
592.313	0.75
592.651	0.76
592.989	0.75
593.326	0.75
593.664	0.75
594.002	0.75
594.34	0.75
594.678	0.75
595.015	0.74
595.353	0.74
595.691	0.74
596.028	0.75
596.366	0.75
596.703	0.75
597.04	0.75
597.378	0.75
597.715	0.75
598.052	0.75
598.389	0.74
598.726	0.74
599.064	0.74
599.401	0.74
599.738	0.74
600.074	0.74
600.411	0.74
600.748	0.73
601.085	0.73
601.422	0.73
601.758	0.73
602.095	0.73
602.432	0.73
602.768	0.73
603.105	0.74
603.441	0.74
603.777	0.73
604.114	0.73
604.45	0.73
604.786	0.72
605.122	0.73
605.459	0.72
605.795	0.72
606.131	0.72
606.467	0.72
606.803	0.72
607.139	0.71
607.474	0.71
607.81	0.71
608.146	0.71
608.482	0.71
608.817	0.7
609.153	0.7
609.488	0.7
609.824	0.7
610.159	0.7
610.495	0.7
610.83	0.7
611.165	0.7
611.5	0.69
611.836	0.69
612.171	0.69
612.506	0.68
612.841	0.68
613.176	0.68
613.511	0.68
613.845	0.68
614.18	0.67
614.515	0.67
614.85	0.67
615.184	0.67
615.519	0.66
615.854	0.66
616.188	0.66
616.523	0.66
616.857	0.65
617.191	0.65
617.526	0.65
617.86	0.65
618.194	0.65
618.528	0.65
618.862	0.64
619.196	0.64
619.53	0.64
619.864	0.64
620.198	0.63
620.532	0.63
620.866	0.63
621.2	0.62
621.533	0.62
621.867	0.62
622.201	0.62
622.534	0.62
622.868	0.62
623.201	0.61
623.534	0.61
623.868	0.61
624.201	0.6
624.534	0.6
624.868	0.6
625.201	0.59
625.534	0.6
625.867	0.59
626.2	0.59
626.533	0.59
626.865	0.58
627.198	0.58
627.531	0.58
627.864	0.58
628.196	0.57
628.529	0.57
628.862	0.56
629.194	0.56
629.527	0.56
629.859	0.56
630.191	0.55
630.524	0.55
630.856	0.55
631.188	0.54
631.52	0.54
631.852	0.54
632.184	0.53
632.516	0.54
632.848	0.53
633.18	0.53
633.512	0.52
633.844	0.52
634.175	0.52
634.507	0.52
634.839	0.51
635.17	0.51
635.502	0.5
635.833	0.5
636.165	0.5
636.496	0.5
636.827	0.49
637.159	0.49
637.49	0.49
637.821	0.49
638.152	0.48
638.483	0.48
638.814	0.47
639.145	0.47
639.476	0.46
639.807	0.46
640.137	0.46
640.468	0.46
640.799	0.45
641.129	0.45
641.46	0.44
641.791	0.44
642.121	0.44
642.451	0.43
642.782	0.44
643.112	0.43
643.442	0.43
643.773	0.43
644.103	0.43
644.433	0.43
644.763	0.42
645.093	0.42
645.423	0.42
645.753	0.42
646.082	0.41
646.412	0.41
646.742	0.41
647.072	0.41
647.401	0.41
647.731	0.4
648.06	0.4
648.39	0.4
648.719	0.4
649.048	0.39
649.378	0.39
649.707	0.39
650.036	0.39
650.365	0.39
650.694	0.38
651.023	0.39
651.352	0.38
651.681	0.38
652.01	0.39
652.339	0.38
652.668	0.38
652.996	0.38
653.325	0.38
653.654	0.37
653.982	0.38
654.311	0.37
654.639	0.37
654.967	0.37
655.296	0.37
655.624	0.37
655.952	0.37
656.28	0.36
656.609	0.36
656.937	0.37
657.265	0.35
657.593	0.21
657.92	0.12
658.248	0.09
658.576	0.17
658.904	0.29
659.231	0.35
659.559	0.35
659.887	0.35
660.214	0.35
660.542	0.35
660.869	0.35
661.196	0.35
661.524	0.35
661.851	0.35
662.178	0.34
662.505	0.34
662.832	0.34
663.159	0.34
663.486	0.34
663.813	0.34
664.14	0.34
664.467	0.33
664.794	0.33
665.12	0.33
665.447	0.33
665.774	0.33
666.1	0.32
666.427	0.33
666.753	0.32
667.079	0.32
667.406	0.32
667.732	0.32
668.058	0.32
668.384	0.31
668.71	0.31
669.036	0.31
669.362	0.31
669.688	0.3
670.014	0.31
670.34	0.3
670.666	0.3
670.991	0.3
671.317	0.3
671.643	0.3
671.968	0.29
672.294	0.29
672.619	0.29
672.945	0.29
673.27	0.28
673.595	0.28
673.92	0.28
674.246	0.28
674.571	0.28
674.896	0.27
675.221	0.27
675.546	0.27
675.87	0.27
676.195	0.27
676.52	0.26
676.845	0.26
677.169	0.26
677.494	0.26
677.819	0.25
678.143	0.25
678.468	0.25
678.792	0.25
679.116	0.25
679.44	0.24
679.765	0.24
680.089	0.24
680.413	0.23
680.737	0.23
681.061	0.23
681.385	0.23
681.709	0.22
682.033	0.22
682.356	0.22
682.68	0.22
683.004	0.22
683.327	0.22
683.651	0.21
683.974	0.21
684.298	0.21
684.621	0.21
684.944	0.2
685.268	0.2
685.591	0.2
685.914	0.2
686.237	0.19
686.56	0.19
686.883	0.19
687.206	0.19
687.529	0.18
687.852	0.18
688.175	0.18
688.497	0.18
688.82	0.18
689.142	0.18
689.465	0.18
689.787	0.18
690.11	0.17
690.432	0.17
690.755	0.17
691.077	0.16
691.399	0.16
691.721	0.16
692.043	0.16
692.365	0.16
692.687	0.15
693.009	0.15
693.331	0.15
693.653	0.15
693.974	0.15
694.296	0.15
694.618	0.14
694.939	0.14
695.261	0.14
695.582	0.14
695.904	0.14
696.225	0.14
696.546	0.14
696.868	0.13
697.189	0.13
697.51	0.13
697.831	0.13
698.152	0.13
698.473	0.13
698.794	0.12
699.114	0.12
699.435	0.12
699.756	0.12
700.077	0.12
700.397	0.12
700.718	0.12
701.038	0.12
701.359	0.12
701.679	0.12
701.999	0.12
702.32	0.12
702.64	0.12
702.96	0.12
703.28	0.12
703.6	0.12
703.92	0.12
704.24	0.11
704.56	0.11
704.879	0.11
705.199	0.11
705.519	0.11
705.838	0.11
706.158	0.11
706.478	0.11
706.797	0.11
707.116	0.11
707.436	0.11
707.755	0.11
708.074	0.11
708.393	0.1
708.712	0.1
709.031	0.1
709.35	0.1
709.669	0.1
709.988	0.1
710.307	0.1
710.626	0.1
710.944	0.1
711.263	0.1
711.582	0.1
711.9	0.1
712.219	0.1
712.537	0.1
712.855	0.1
713.174	0.1
713.492	0.1
713.81	0.1
714.128	0.1
714.446	0.1
714.764	0.1
715.082	0.1
715.4	0.1
715.718	0.1
716.035	0.1
716.353	0.1
716.671	0.1
716.988	0.1
717.306	0.1
717.623	0.11
717.941	0.11
718.258	0.11
718.575	0.11
718.893	0.11
719.21	0.11
719.527	0.1
719.844	0.11
720.161	0.1
720.478	0.11
720.795	0.11
721.112	0.11
721.428	0.11
721.745	0.11
722.062	0.11
722.378	0.11
722.695	0.11
723.011	0.11
723.328	0.11
723.644	0.11
723.96	0.11
724.276	0.11
724.593	0.11
724.909	0.11
725.225	0.11
725.541	0.11
725.857	0.11
726.173	0.11
726.488	0.11
726.804	0.11
727.12	0.11
727.435	0.11
727.751	0.11
728.067	0.11
728.382	0.11
728.697	0.11
729.013	0.11
729.328	0.11
729.643	0.11
729.958	0.11
730.273	0.11
730.588	0.1
730.903	0.11
731.218	0.11
731.533	0.11
731.848	0.1
732.163	0.1
732.477	0.1
732.792	0.1
733.107	0.1
733.421	0.1
733.736	0.1
734.05	0.1
734.364	0.1
734.678	0.1
734.993	0.1
735.307	0.1
735.621	0.1
735.935	0.1
736.249	0.1
736.563	0.1
736.877	0.1
737.19	0.1
737.504	0.1
737.818	0.1
738.131	0.1
738.445	0.1
738.758	0.1
739.072	0.1
739.385	0.1
739.698	0.1
740.012	0.1
740.325	0.1
740.638	0.1
740.951	0.09
741.264	0.09
741.577	0.09
741.89	0.09
742.203	0.09
742.515	0.09
742.828	0.09
743.141	0.09
743.453	0.09
743.766	0.09
744.078	0.09
744.391	0.09
744.703	0.09
745.015	0.08
745.327	0.09
745.639	0.09
745.952	0.09
746.264	0.08
746.575	0.08
746.887	0.08
747.199	0.08
747.511	0.08
747.823	0.08
748.134	0.08
748.446	0.08
748.757	0.08
749.069	0.08
749.38	0.08
749.692	0.08
750.003	0.08
750.314	0.07
750.625	0.07
750.936	0.07
751.248	0.07
751.559	0.07
751.869	0.07
752.18	0.07
752.491	0.07
752.802	0.07
753.112	0.07
753.423	0.07
753.734	0.07
754.044	0.07
754.355	0.07
754.665	0.06
754.975	0.06
755.285	0.06
755.596	0.06
755.906	0.07
756.216	0.06
756.526	0.06
756.836	0.06
757.146	0.06
757.455	0.06
757.765	0.06
758.075	0.06
758.385	0.06
758.694	0.06
759.004	0.06
759.313	0.06
759.622	0.06
759.932	0.06
760.241	0.06
760.55	0.06
760.859	0.05
761.168	0.06
761.477	0.06
761.786	0.05
762.095	0.05
762.404	0.05
762.713	0.05
763.021	0.06
763.33	0.05
763.639	0.05
763.947	0.06
764.256	0.06
764.564	0.05
764.872	0.05
765.181	0.05
765.489	0.05
765.797	0.05
766.105	0.05
766.413	0.05
766.721	0.06
767.029	0.06
767.337	0.06
767.644	0.05
767.952	0.06
768.26	0.05
768.567	0.05
768.875	0.05
769.182	0.05
769.49	0.05
769.797	0.05
770.104	0.05
770.411	0.05
770.718	0.05
771.026	0.05
771.333	0.05
771.639	0.06
771.946	0.05
772.253	0.06
772.56	0.06
772.867	0.05
773.173	0.06
773.48	0.05
773.786	0.05
774.093	0.05
774.399	0.05
774.705	0.05
775.012	0.05
775.318	0.05
775.624	0.05
775.93	0.05
776.236	0.05
776.542	0.05
776.848	0.05
777.154	0.05
777.459	0.05
777.765	0.05
778.071	0.06
778.376	0.06
778.682	0.06
778.987	0.05
779.292	0.06
779.598	0.05
779.903	0.05
780.208	0.05
780.513	0.05
780.818	0.05
781.123	0.05
781.428	0.06
781.733	0.05
782.038	0.05
782.343	0.05
782.647	0.06
782.952	0.06
783.256	0.06
783.561	0.06
783.865	0.06
784.17	0.06
784.474	0.06
784.778	0.06
785.082	0.06
785.386	0.06
785.69	0.06
785.994	0.06
786.298	0.06
786.602	0.06
786.906	0.06
787.209	0.06
787.513	0.06
787.817	0.06
788.12	0.06
788.424	0.06
788.727	0.06
789.03	0.06
789.333	0.06
789.637	0.06
789.94	0.06
790.243	0.06
790.546	0.06
790.849	0.06
791.152	0.06
791.454	0.06
791.757	0.06
792.06	0.06
792.362	0.06
792.665	0.06
792.967	0.06
793.27	0.06
793.572	0.06
793.874	0.06
794.177	0.06
794.479	0.06
794.781	0.06
795.083	0.06
795.385	0.06
795.687	0.06
795.989	0.06
796.29	0.07
796.592	0.07
796.894	0.07
797.195	0.07
797.497	0.07
797.798	0.07
798.1	0.07
798.401	0.07
798.702	0.07
799.003	0.06
799.304	0.07
799.605	0.07
799.906	0.07
800.207	0.07
800.508	0.07
800.809	0.07
801.11	0.07
801.41	0.07
801.711	0.07
802.011	0.07
802.312	0.07
802.612	0.07
802.913	0.07
803.213	0.07
803.513	0.07
803.813	0.07
804.113	0.07
804.413	0.07
804.713	0.07
805.013	0.07
805.313	0.08
805.613	0.07
805.912	0.08
806.212	0.08
806.511	0.07
806.811	0.07
807.11	0.07
807.41	0.07
807.709	0.08
808.008	0.07
808.307	0.07
808.606	0.08
808.905	0.08
809.204	0.08
809.503	0.08
809.802	0.08
810.101	0.08
810.399	0.08
810.698	0.08
810.997	0.08
811.295	0.08
811.593	0.08
811.892	0.08
812.19	0.09
812.488	0.08
812.786	0.08
813.084	0.08
813.383	0.08
813.68	0.09
813.978	0.09
814.276	0.08
814.574	0.08
814.872	0.08
815.169	0.08
815.467	0.09
815.764	0.08
816.062	0.08
816.359	0.08
816.656	0.09
816.954	0.08
817.251	0.09
817.548	0.09
817.845	0.09
818.142	0.09
818.439	0.09
818.735	0.09
819.032	0.09
819.329	0.09
819.626	0.09
819.922	0.09
820.219	0.09
820.515	0.1
820.811	0.09
821.108	0.1
821.404	0.09
821.7	0.09
821.996	0.09
822.292	0.09
822.588	0.09
822.884	0.09
823.18	0.09
823.475	0.09
823.771	0.09
824.067	0.09
824.362	0.09
824.658	0.09
824.953	0.1
825.249	0.1
825.544	0.1
825.839	0.1
826.134	0.1
826.429	0.1
826.724	0.1
827.019	0.1
827.314	0.1
827.609	0.1
827.904	0.1
828.198	0.1
828.493	0.1
828.787	0.1
829.082	0.1
829.376	0.09
829.671	0.1
829.965	0.1
830.259	0.11
830.553	0.1
830.847	0.11
831.141	0.1
831.435	0.11
831.729	0.11
832.023	0.11
832.317	0.11
832.61	0.11
832.904	0.11
833.197	0.11
833.491	0.11
833.784	0.11
834.077	0.11
834.371	0.11
834.664	0.11
834.957	0.11
835.25	0.12
835.543	0.11
835.836	0.11
836.129	0.11
836.421	0.12
836.714	0.11
837.007	0.12
837.299	0.11
837.592	0.12
837.884	0.11
838.177	0.11
838.469	0.12
838.761	0.11
839.053	0.12
839.345	0.12
839.637	0.12
839.929	0.12
840.221	0.12
840.513	0.12
840.805	0.12
841.096	0.11
841.388	0.12
841.68	0.11
841.971	0.11
842.262	0.12
842.554	0.12
842.845	0.12
843.136	0.12
843.427	0.13
843.718	0.12
844.009	0.12
844.3	0.12
844.591	0.13
844.882	0.12
845.173	0.12
845.463	0.13
845.754	0.12
846.044	0.12
846.335	0.13
846.625	0.12
846.915	0.11
847.206	0.13
847.496	0.13
847.786	0.13
848.076	0.13
848.366	0.13
848.656	0.13
848.945	0.13
849.235	0.12
849.525	0.12
849.814	0.13
850.104	0.12
850.393	0.13
850.683	0.13
850.972	0.13
851.261	0.13
851.551	0.13
851.84	0.12
852.129	0.13
852.418	0.13
852.707	0.14
852.995	0.14
853.284	0.13
853.573	0.12
853.862	0.13
854.15	0.15
854.439	0.14
854.727	0.13
855.015	0.14
855.304	0.13
855.592	0.15
855.88	0.13
856.168	0.15
856.456	0.15
856.744	0.14
857.032	0.14
857.32	0.15
857.607	0.15
857.895	0.14
858.183	0.15
858.47	0.16
858.757	0.14
859.045	0.17
859.332	0.13
859.619	0.15
859.907	0.15
860.194	0.15
860.481	0.16
860.768	0.14
861.054	0.14
861.341	0.14
861.628	0.14
861.915	0.17
862.201	0.15
862.488	0.13
862.774	0.15
863.061	0.15
863.347	0.14
863.633	0.15
863.919	0.14
864.205	0.15
864.491	0.12
864.777	0.13
865.063	0.14
865.349	0.14
865.635	0.13
865.92	0.13
866.206	0.14
866.492	0.14
866.777	0.14
867.062	0.14
867.348	0.14
867.633	0.15
867.918	0.17
868.203	0.2
868.488	0.12
868.773	0.16
869.058	0.13
869.343	0.19
869.628	0.11
869.912	0.12
870.197	0.19
870.482	0.15
870.766	0.13
871.05	0.13
871.335	0.12
871.619	0.14
871.903	0.14
872.187	0.16
872.471	0.15
872.755	0.19
873.039	0.15
873.323	0.15
873.607	0.16
873.89	0.11
874.174	0.14
874.458	0.09
874.741	0.15
875.024	0.13
875.308	0.17
875.591	0.11
875.874	0.14
876.157	0.13
876.44	0.15
876.723	0.14
877.006	0.26
877.289	0.17
877.572	0.35
877.854	0.08
878.137	0.17
878.42	0.09
878.702	0.12
878.984	0.06
879.267	0.14
879.549	0.19
879.831	0.15
880.113	0.15
880.395	0.17
880.677	0.15
880.959	0.09
