Data from Rubpy_BV_1800_EDTA_Buffered_Absorbance_16-40-52-604.txt Node
Date: Wed Jul 01 16:40:52 BST 2026
User: fpm-admin
Spectrometer: OFX00224
Trigger mode: 0
Integration Time (sec): 7.000000E-2
Scans to average: 3
Nonlinearity correction enabled: false
Boxcar width: 0
Storing dark spectrum: false
XAxis mode: Wavelengths
Number of Pixels in Spectrum: 2136
>>>>>Begin Spectral Data<<<<<
154.91	-0
155.289	-0.07
155.669	0.4
156.048	-0
156.428	-0
156.807	-0.09
157.186	-0
157.566	-0
157.945	-0.67
158.325	-0
158.704	-0.37
159.083	0.02
159.462	-0
159.842	-0
160.221	-0
160.6	-0
160.979	-0.29
161.359	-0.24
161.738	-0
162.117	-0
162.496	0.05
162.875	-0.49
163.254	0.44
163.633	0.49
164.012	-0
164.391	0.12
164.77	-0.02
165.149	-0.97
165.528	-0
165.907	-0.06
166.286	-0.3
166.665	0.15
167.044	0.28
167.423	0.55
167.802	0.35
168.181	-0
168.559	-0
168.938	0.44
169.317	-0.29
169.696	-0
170.074	-0
170.453	-0
170.832	-1.51
171.21	-0.03
171.589	-0.39
171.968	0.75
172.346	-0.23
172.725	-0.3
173.103	-0
173.482	-0.21
173.861	0.22
174.239	-0.36
174.617	0.51
174.996	-0.15
175.374	0.18
175.753	-0.71
176.131	0.2
176.51	0.4
176.888	-0
177.266	-0
177.645	-0.05
178.023	0.24
178.401	-0.23
178.779	0.19
179.158	0.6
179.536	-0.17
179.914	-0
180.292	0.32
180.67	-0
181.048	0.59
181.427	-0
181.805	-0.11
182.183	0.15
182.561	-0
182.939	0.06
183.317	0.05
183.695	-0.12
184.073	-0
184.451	-0
184.829	-0
185.206	0.26
185.584	-0
185.962	0.33
186.34	-0.02
186.718	0.16
187.096	-0.44
187.473	-0
187.851	-0.17
188.229	-0.39
188.607	0.02
188.984	0.04
189.362	-0.02
189.74	0.12
190.117	-0.01
190.495	0.03
190.872	0.04
191.25	0.04
191.627	0.07
192.005	-0.03
192.382	0.1
192.76	0.08
193.137	-0.04
193.515	0.05
193.892	0.09
194.269	0.04
194.647	0.06
195.024	0.05
195.401	0.1
195.779	0
196.156	0.15
196.533	0.04
196.91	0.04
197.288	0.06
197.665	0.02
198.042	-0.05
198.419	0.07
198.796	-0.01
199.173	0.05
199.55	0.06
199.927	-0.05
200.304	0.06
200.681	0.12
201.058	-0.16
201.435	0.05
201.812	0.01
202.189	0.04
202.566	0.01
202.943	0.03
203.32	0.13
203.697	-0.02
204.073	0.06
204.45	-0.11
204.827	0.04
205.204	-0.03
205.58	0.01
205.957	-0.02
206.334	-0.03
206.71	0.06
207.087	0.01
207.464	0.04
207.84	0.17
208.217	0.01
208.593	-0.08
208.97	0.11
209.346	0.1
209.723	0.04
210.099	0.04
210.476	0.04
210.852	0.08
211.228	0.08
211.605	0.05
211.981	0.11
212.357	0.06
212.733	0.02
213.11	0.08
213.486	0.06
213.862	-0.01
214.238	-0.01
214.614	0.06
214.991	0.07
215.367	0.09
215.743	-0.03
216.119	0.09
216.495	0.11
216.871	0.02
217.247	0.05
217.623	0.12
217.999	0.07
218.375	0.02
218.751	0.03
219.127	0.08
219.502	-0.01
219.878	-0.01
220.254	0.06
220.63	0.01
221.006	0.01
221.381	0.11
221.757	0.07
222.133	0.01
222.508	0.07
222.884	-0
223.26	0.01
223.635	-0.04
224.011	-0.01
224.386	0.04
224.762	0.11
225.137	0.11
225.513	0.04
225.888	0.05
226.264	-0.03
226.639	0.1
227.014	0.07
227.39	0.05
227.765	0.03
228.14	0.08
228.516	0.1
228.891	0.05
229.266	0.04
229.641	0.03
230.017	0.05
230.392	0.04
230.767	0.08
231.142	0.1
231.517	0.07
231.892	-0
232.267	0.09
232.642	-0.02
233.017	0.04
233.392	0.05
233.767	0.08
234.142	0.02
234.517	-0.05
234.892	0.05
235.267	-0
235.641	0.07
236.016	0.06
236.391	0
236.766	0.07
237.14	-0.01
237.515	0.13
237.89	0.09
238.264	0.05
238.639	-0.08
239.014	0.05
239.388	-0.06
239.763	0.05
240.137	-0.1
240.512	-0.04
240.886	0.03
241.261	-0.04
241.635	0.06
242.009	0.1
242.384	0.01
242.758	0.1
243.132	-0.04
243.507	0.01
243.881	0.03
244.255	0.08
244.629	-0.04
245.004	0.06
245.378	0.1
245.752	0.06
246.126	0.05
246.5	0.08
246.874	0.04
247.248	0.06
247.622	0.14
247.996	0.07
248.37	0.05
248.744	-0.03
249.118	-0.16
249.492	0.09
249.866	0.04
250.24	0.12
250.613	0.13
250.987	0.09
251.361	0.09
251.735	0.08
252.108	0.08
252.482	-0.04
252.856	-0.01
253.229	0.08
253.603	0.04
253.977	0.04
254.35	0.09
254.724	0.07
255.097	-0.02
255.471	0.04
255.844	0.03
256.218	0.03
256.591	0.04
256.964	0.13
257.338	-0.01
257.711	0.04
258.084	0.03
258.458	0.07
258.831	0.13
259.204	0.06
259.577	0.03
259.95	0.05
260.323	0.04
260.697	-0.04
261.07	0.06
261.443	0.14
261.816	0.04
262.189	0.02
262.562	0.02
262.935	0.05
263.308	-0.06
263.68	0.1
264.053	0.13
264.426	0.07
264.799	0.06
265.172	0.01
265.545	0.08
265.917	0.08
266.29	0.1
266.663	0.06
267.035	0.04
267.408	0.04
267.781	0.05
268.153	-0.01
268.526	0.03
268.898	0.06
269.271	0.06
269.643	0
270.016	0.07
270.388	-0.02
270.76	0.05
271.133	0.05
271.505	0.02
271.877	0.01
272.25	0.01
272.622	0.1
272.994	0.07
273.366	0.06
273.739	0.01
274.111	0.07
274.483	0.07
274.855	0.03
275.227	0.07
275.599	0.05
275.971	-0.03
276.343	0.06
276.715	0.01
277.087	0.09
277.459	0.02
277.831	0.07
278.203	0.03
278.574	0.04
278.946	-0
279.318	0.06
279.69	0.07
280.061	0.06
280.433	0.03
280.805	0.03
281.176	0.08
281.548	0.05
281.92	0.1
282.291	0.06
282.663	0.01
283.034	0.02
283.406	0.16
283.777	0.05
284.148	0.04
284.52	0.09
284.891	0.07
285.262	0.06
285.634	0.07
286.005	0.04
286.376	0.11
286.747	0.02
287.119	0.03
287.49	0.11
287.861	0.05
288.232	0.02
288.603	0.1
288.974	0.05
289.345	0.07
289.716	0.05
290.087	0.03
290.458	0.02
290.829	0.06
291.2	0.05
291.571	0.04
291.941	0.05
292.312	0.05
292.683	0.07
293.054	-0.02
293.424	0.06
293.795	0.06
294.166	0.04
294.536	0.03
294.907	0.01
295.277	0.03
295.648	0.16
296.018	0.12
296.389	-0
296.759	0.04
297.13	0.14
297.5	0.06
297.871	0.07
298.241	0.03
298.611	0.05
298.981	0.08
299.352	0.05
299.722	-0
300.092	0.09
300.462	0.07
300.832	0.08
301.202	0.08
301.573	0.03
301.943	0.08
302.313	0.02
302.683	0.02
303.053	0.08
303.422	0.07
303.792	0.04
304.162	0.04
304.532	0.06
304.902	0.05
305.272	0.06
305.641	0.07
306.011	0.03
306.381	0.05
306.75	0.08
307.12	0.06
307.49	0.07
307.859	0.03
308.229	0.04
308.598	0.06
308.968	0.02
309.337	0.06
309.707	0.07
310.076	0.05
310.445	0.02
310.815	0.04
311.184	0.05
311.553	0.05
311.923	0.05
312.292	0.04
312.661	0.03
313.03	0.03
313.399	0.03
313.768	0.04
314.137	0.02
314.506	0.04
314.875	0.04
315.244	0.03
315.613	0.03
315.982	0.05
316.351	0.04
316.72	0.05
317.089	0.05
317.458	0.05
317.826	0.05
318.195	0.04
318.564	0.04
318.933	0.05
319.301	0.04
319.67	0.04
320.038	0.04
320.407	0.04
320.775	0.05
321.144	0.04
321.512	0.04
321.881	0.04
322.249	0.04
322.618	0.05
322.986	0.04
323.354	0.05
323.723	0.05
324.091	0.05
324.459	0.06
324.827	0.04
325.195	0.06
325.564	0.05
325.932	0.05
326.3	0.05
326.668	0.05
327.036	0.05
327.404	0.06
327.772	0.05
328.14	0.05
328.508	0.04
328.875	0.05
329.243	0.05
329.611	0.05
329.979	0.06
330.346	0.06
330.714	0.06
331.082	0.05
331.449	0.05
331.817	0.05
332.185	0.06
332.552	0.06
332.92	0.06
333.287	0.06
333.655	0.06
334.022	0.07
334.389	0.06
334.757	0.07
335.124	0.06
335.491	0.07
335.859	0.07
336.226	0.07
336.593	0.07
336.96	0.07
337.327	0.07
337.695	0.08
338.062	0.08
338.429	0.07
338.796	0.08
339.163	0.08
339.53	0.08
339.897	0.09
340.263	0.09
340.63	0.09
340.997	0.09
341.364	0.09
341.731	0.09
342.097	0.09
342.464	0.09
342.831	0.09
343.197	0.1
343.564	0.1
343.931	0.1
344.297	0.1
344.664	0.1
345.03	0.1
345.396	0.1
345.763	0.11
346.129	0.11
346.496	0.11
346.862	0.11
347.228	0.11
347.594	0.12
347.961	0.12
348.327	0.12
348.693	0.12
349.059	0.12
349.425	0.13
349.791	0.13
350.157	0.13
350.523	0.13
350.889	0.13
351.255	0.14
351.621	0.13
351.987	0.13
352.353	0.14
352.719	0.14
353.084	0.14
353.45	0.14
353.816	0.14
354.181	0.14
354.547	0.15
354.913	0.15
355.278	0.15
355.644	0.15
356.009	0.16
356.375	0.16
356.74	0.16
357.106	0.16
357.471	0.16
357.836	0.16
358.202	0.17
358.567	0.17
358.932	0.18
359.297	0.18
359.663	0.18
360.028	0.19
360.393	0.18
360.758	0.19
361.123	0.19
361.488	0.2
361.853	0.2
362.218	0.2
362.583	0.2
362.948	0.21
363.312	0.21
363.677	0.21
364.042	0.21
364.407	0.22
364.772	0.22
365.136	0.22
365.501	0.22
365.865	0.23
366.23	0.23
366.595	0.23
366.959	0.24
367.324	0.24
367.688	0.24
368.052	0.24
368.417	0.24
368.781	0.25
369.145	0.25
369.51	0.25
369.874	0.25
370.238	0.25
370.602	0.26
370.967	0.26
371.331	0.26
371.695	0.26
372.059	0.26
372.423	0.27
372.787	0.27
373.151	0.27
373.515	0.27
373.878	0.26
374.242	0.27
374.606	0.26
374.97	0.26
375.334	0.27
375.697	0.26
376.061	0.26
376.425	0.25
376.788	0.26
377.152	0.25
377.515	0.25
377.879	0.25
378.242	0.24
378.606	0.25
378.969	0.24
379.333	0.24
379.696	0.23
380.059	0.24
380.422	0.24
380.786	0.23
381.149	0.24
381.512	0.23
381.875	0.23
382.238	0.23
382.601	0.23
382.964	0.23
383.327	0.23
383.69	0.23
384.053	0.23
384.416	0.23
384.779	0.23
385.142	0.23
385.504	0.23
385.867	0.23
386.23	0.23
386.593	0.24
386.955	0.24
387.318	0.24
387.68	0.24
388.043	0.25
388.405	0.24
388.768	0.25
389.13	0.25
389.493	0.26
389.855	0.25
390.217	0.25
390.58	0.25
390.942	0.25
391.304	0.24
391.666	0.24
392.028	0.24
392.391	0.24
392.753	0.24
393.115	0.24
393.477	0.24
393.839	0.24
394.201	0.24
394.563	0.23
394.924	0.24
395.286	0.23
395.648	0.24
396.01	0.24
396.371	0.24
396.733	0.25
397.095	0.26
397.456	0.26
397.818	0.28
398.18	0.28
398.541	0.29
398.903	0.3
399.264	0.31
399.625	0.31
399.987	0.32
400.348	0.33
400.709	0.34
401.071	0.33
401.432	0.34
401.793	0.34
402.154	0.33
402.515	0.33
402.876	0.32
403.238	0.32
403.599	0.31
403.96	0.31
404.32	0.29
404.681	0.28
405.042	0.27
405.403	0.26
405.764	0.24
406.125	0.23
406.485	0.22
406.846	0.21
407.207	0.2
407.567	0.18
407.928	0.17
408.288	0.16
408.649	0.15
409.009	0.14
409.37	0.13
409.73	0.13
410.091	0.12
410.451	0.11
410.811	0.1
411.171	0.1
411.532	0.09
411.892	0.09
412.252	0.08
412.612	0.09
412.972	0.07
413.332	0.07
413.692	0.07
414.052	0.07
414.412	0.06
414.772	0.06
415.132	0.06
415.492	0.06
415.851	0.05
416.211	0.05
416.571	0.05
416.931	0.06
417.29	0.05
417.65	0.05
418.009	0.05
418.369	0.04
418.728	0.04
419.088	0.05
419.447	0.04
419.807	0.04
420.166	0.04
420.525	0.04
420.884	0.04
421.244	0.03
421.603	0.04
421.962	0.03
422.321	0.04
422.68	0.04
423.039	0.03
423.398	0.03
423.757	0.03
424.116	0.03
424.475	0.03
424.834	0.03
425.193	0.03
425.551	0.03
425.91	0.03
426.269	0.03
426.628	0.02
426.986	0.02
427.345	0.02
427.703	0.03
428.062	0.03
428.42	0.03
428.779	0.03
429.137	0.04
429.496	0.02
429.854	0.02
430.212	0.03
430.57	0.03
430.929	0.02
431.287	0.02
431.645	0.02
432.003	0.03
432.361	0.02
432.719	0.03
433.077	0.02
433.435	0.02
433.793	0.03
434.151	0.02
434.509	0.03
434.866	0.02
435.224	0.01
435.582	0.02
435.94	0.02
436.297	0.03
436.655	0.02
437.012	0.02
437.37	0.02
437.727	0.02
438.085	0.02
438.442	0.02
438.8	0.02
439.157	0.02
439.514	0.02
439.872	0.01
440.229	0.01
440.586	0.01
440.943	0.03
441.3	0.02
441.657	0.02
442.014	0.02
442.371	0.01
442.728	0.01
443.085	0.02
443.442	0.02
443.799	0.01
444.156	0.01
444.513	0.02
444.869	0
445.226	0.02
445.583	0.02
445.939	0.02
446.296	-0
446.652	0.01
447.009	0.01
447.365	0.01
447.722	0.01
448.078	0.01
448.434	0.01
448.791	0.01
449.147	0.01
449.503	0
449.859	-0
450.215	0
450.571	0.01
450.928	0.01
451.284	0
451.64	0
451.995	0
452.351	0
452.707	-0
453.063	-0
453.419	-0
453.775	-0.01
454.13	-0.02
454.486	-0.01
454.842	-0.01
455.197	-0.01
455.553	-0.02
455.908	-0.01
456.264	-0.02
456.619	-0.03
456.975	-0.02
457.33	-0.03
457.685	-0.03
458.04	-0.04
458.396	-0.04
458.751	-0.04
459.106	-0.05
459.461	-0.05
459.816	-0.04
460.171	-0.05
460.526	-0.05
460.881	-0.06
461.236	-0.06
461.591	-0.07
461.946	-0.07
462.301	-0.07
462.655	-0.07
463.01	-0.07
463.365	-0.08
463.719	-0.08
464.074	-0.09
464.428	-0.1
464.783	-0.1
465.137	-0.1
465.492	-0.1
465.846	-0.1
466.201	-0.1
466.555	-0.1
466.909	-0.09
467.263	-0.09
467.618	-0.1
467.972	-0.09
468.326	-0.1
468.68	-0.1
469.034	-0.11
469.388	-0.11
469.742	-0.1
470.096	-0.1
470.45	-0.1
470.804	-0.1
471.157	-0.11
471.511	-0.1
471.865	-0.11
472.218	-0.1
472.572	-0.09
472.926	-0.1
473.279	-0.09
473.633	-0.08
473.986	-0.08
474.34	-0.08
474.693	-0.07
475.046	-0.07
475.4	-0.06
475.753	-0.05
476.106	-0.05
476.459	-0.05
476.812	-0.04
477.165	-0.04
477.519	-0.04
477.872	-0.03
478.224	-0.03
478.577	-0.03
478.93	-0.02
479.283	-0.02
479.636	-0.02
479.989	-0.01
480.341	-0.01
480.694	-0.01
481.047	-0
481.399	-0
481.752	0
482.104	-0
482.457	0
482.809	0.01
483.162	0
483.514	0.01
483.866	0.01
484.219	0.01
484.571	0.01
484.923	0.01
485.275	0.02
485.627	0.02
485.979	0.02
486.331	0.02
486.683	0.02
487.035	0.03
487.387	0.03
487.739	0.03
488.091	0.03
488.443	0.03
488.794	0.03
489.146	0.03
489.498	0.03
489.849	0.03
490.201	0.03
490.552	0.03
490.904	0.03
491.255	0.04
491.607	0.04
491.958	0.04
492.309	0.04
492.661	0.04
493.012	0.04
493.363	0.04
493.714	0.04
494.065	0.04
494.416	0.04
494.767	0.04
495.118	0.05
495.469	0.04
495.82	0.04
496.171	0.05
496.522	0.05
496.872	0.05
497.223	0.05
497.574	0.05
497.924	0.05
498.275	0.06
498.626	0.05
498.976	0.06
499.327	0.06
499.677	0.05
500.027	0.06
500.378	0.06
500.728	0.06
501.078	0.06
501.428	0.06
501.779	0.06
502.129	0.06
502.479	0.06
502.829	0.06
503.179	0.06
503.529	0.06
503.879	0.07
504.229	0.06
504.578	0.07
504.928	0.07
505.278	0.07
505.628	0.06
505.977	0.07
506.327	0.07
506.676	0.07
507.026	0.07
507.375	0.07
507.725	0.08
508.074	0.07
508.424	0.07
508.773	0.07
509.122	0.07
509.471	0.08
509.82	0.07
510.17	0.07
510.519	0.07
510.868	0.08
511.217	0.08
511.566	0.08
511.915	0.08
512.263	0.08
512.612	0.08
512.961	0.08
513.31	0.08
513.659	0.08
514.007	0.09
514.356	0.09
514.704	0.08
515.053	0.08
515.401	0.08
515.75	0.08
516.098	0.09
516.447	0.09
516.795	0.09
517.143	0.09
517.491	0.09
517.839	0.09
518.188	0.09
518.536	0.09
518.884	0.09
519.232	0.09
519.58	0.09
519.928	0.09
520.275	0.09
520.623	0.09
520.971	0.09
521.319	0.09
521.666	0.09
522.014	0.09
522.362	0.09
522.709	0.09
523.057	0.09
523.404	0.1
523.752	0.1
524.099	0.09
524.446	0.09
524.794	0.1
525.141	0.09
525.488	0.1
525.835	0.1
526.182	0.1
526.529	0.1
526.876	0.1
527.223	0.1
527.57	0.1
527.917	0.1
528.264	0.11
528.611	0.1
528.958	0.1
529.304	0.1
529.651	0.1
529.998	0.1
530.344	0.1
530.691	0.11
531.037	0.1
531.384	0.11
531.73	0.1
532.076	0.11
532.423	0.11
532.769	0.11
533.115	0.11
533.461	0.11
533.807	0.1
534.154	0.11
534.5	0.11
534.846	0.11
535.192	0.11
535.537	0.11
535.883	0.11
536.229	0.11
536.575	0.11
536.921	0.11
537.266	0.11
537.612	0.11
537.957	0.11
538.303	0.11
538.649	0.11
538.994	0.11
539.339	0.11
539.685	0.11
540.03	0.12
540.375	0.12
540.721	0.12
541.066	0.12
541.411	0.12
541.756	0.12
542.101	0.12
542.446	0.12
542.791	0.12
543.136	0.12
543.481	0.12
543.825	0.12
544.17	0.12
544.515	0.12
544.86	0.12
545.204	0.12
545.549	0.12
545.893	0.12
546.238	0.12
546.582	0.12
546.927	0.12
547.271	0.12
547.615	0.12
547.96	0.12
548.304	0.12
548.648	0.12
548.992	0.12
549.336	0.12
549.68	0.12
550.024	0.13
550.368	0.13
550.712	0.12
551.056	0.13
551.4	0.12
551.743	0.13
552.087	0.13
552.431	0.13
552.774	0.13
553.118	0.12
553.462	0.13
553.805	0.13
554.148	0.13
554.492	0.12
554.835	0.13
555.178	0.13
555.522	0.13
555.865	0.13
556.208	0.13
556.551	0.12
556.894	0.13
557.237	0.13
557.58	0.13
557.923	0.13
558.266	0.13
558.609	0.13
558.952	0.13
559.294	0.13
559.637	0.13
559.98	0.13
560.322	0.13
560.665	0.13
561.007	0.13
561.35	0.13
561.692	0.13
562.034	0.13
562.377	0.13
562.719	0.13
563.061	0.13
563.403	0.13
563.745	0.13
564.088	0.13
564.43	0.13
564.772	0.13
565.113	0.13
565.455	0.13
565.797	0.13
566.139	0.13
566.481	0.13
566.822	0.13
567.164	0.13
567.506	0.13
567.847	0.13
568.189	0.13
568.53	0.13
568.872	0.13
569.213	0.13
569.554	0.13
569.895	0.13
570.237	0.13
570.578	0.13
570.919	0.13
571.26	0.13
571.601	0.13
571.942	0.13
572.283	0.12
572.624	0.12
572.965	0.13
573.306	0.12
573.646	0.12
573.987	0.12
574.328	0.13
574.668	0.12
575.009	0.12
575.349	0.12
575.69	0.12
576.03	0.12
576.37	0.12
576.711	0.12
577.051	0.12
577.391	0.12
577.731	0.12
578.072	0.12
578.412	0.12
578.752	0.12
579.092	0.12
579.431	0.11
579.771	0.1
580.111	0.1
580.451	0.12
580.791	0.12
581.13	0.12
581.47	0.12
581.81	0.12
582.149	0.12
582.489	0.12
582.828	0.11
583.167	0.1
583.507	0.07
583.846	0.07
584.185	0.1
584.525	0.11
584.864	0.12
585.203	0.12
585.542	0.12
585.881	0.12
586.22	0.12
586.559	0.12
586.898	0.11
587.236	0.11
587.575	0.11
587.914	0.11
588.252	0.12
588.591	0.12
588.93	0.12
589.268	0.12
589.607	0.12
589.945	0.12
590.283	0.12
590.622	0.12
590.96	0.12
591.298	0.13
591.636	0.12
591.974	0.13
592.313	0.13
592.651	0.13
592.989	0.12
593.326	0.13
593.664	0.13
594.002	0.13
594.34	0.12
594.678	0.12
595.015	0.12
595.353	0.12
595.691	0.12
596.028	0.13
596.366	0.13
596.703	0.13
597.04	0.13
597.378	0.13
597.715	0.13
598.052	0.13
598.389	0.13
598.726	0.13
599.064	0.13
599.401	0.13
599.738	0.13
600.074	0.13
600.411	0.13
600.748	0.13
601.085	0.12
601.422	0.12
601.758	0.12
602.095	0.13
602.432	0.13
602.768	0.13
603.105	0.13
603.441	0.13
603.777	0.13
604.114	0.13
604.45	0.13
604.786	0.13
605.122	0.13
605.459	0.13
605.795	0.13
606.131	0.13
606.467	0.13
606.803	0.13
607.139	0.13
607.474	0.12
607.81	0.13
608.146	0.13
608.482	0.13
608.817	0.12
609.153	0.13
609.488	0.13
609.824	0.13
610.159	0.13
610.495	0.13
610.83	0.13
611.165	0.13
611.5	0.13
611.836	0.13
612.171	0.12
612.506	0.12
612.841	0.13
613.176	0.12
613.511	0.12
613.845	0.12
614.18	0.12
614.515	0.12
614.85	0.12
615.184	0.13
615.519	0.12
615.854	0.12
616.188	0.12
616.523	0.12
616.857	0.12
617.191	0.12
617.526	0.12
617.86	0.12
618.194	0.12
618.528	0.12
618.862	0.12
619.196	0.12
619.53	0.12
619.864	0.12
620.198	0.12
620.532	0.12
620.866	0.12
621.2	0.12
621.533	0.11
621.867	0.12
622.201	0.12
622.534	0.11
622.868	0.12
623.201	0.12
623.534	0.11
623.868	0.12
624.201	0.11
624.534	0.11
624.868	0.11
625.201	0.11
625.534	0.11
625.867	0.11
626.2	0.11
626.533	0.11
626.865	0.11
627.198	0.11
627.531	0.11
627.864	0.11
628.196	0.11
628.529	0.11
628.862	0.11
629.194	0.11
629.527	0.11
629.859	0.11
630.191	0.11
630.524	0.11
630.856	0.1
631.188	0.1
631.52	0.1
631.852	0.1
632.184	0.1
632.516	0.1
632.848	0.1
633.18	0.1
633.512	0.1
633.844	0.1
634.175	0.1
634.507	0.1
634.839	0.1
635.17	0.1
635.502	0.1
635.833	0.1
636.165	0.09
636.496	0.1
636.827	0.09
637.159	0.09
637.49	0.09
637.821	0.09
638.152	0.09
638.483	0.09
638.814	0.09
639.145	0.09
639.476	0.09
639.807	0.09
640.137	0.09
640.468	0.09
640.799	0.09
641.129	0.08
641.46	0.08
641.791	0.08
642.121	0.08
642.451	0.08
642.782	0.08
643.112	0.08
643.442	0.08
643.773	0.08
644.103	0.08
644.433	0.08
644.763	0.08
645.093	0.08
645.423	0.08
645.753	0.08
646.082	0.08
646.412	0.08
646.742	0.08
647.072	0.08
647.401	0.08
647.731	0.08
648.06	0.08
648.39	0.08
648.719	0.08
649.048	0.07
649.378	0.07
649.707	0.08
650.036	0.07
650.365	0.07
650.694	0.07
651.023	0.07
651.352	0.07
651.681	0.07
652.01	0.07
652.339	0.07
652.668	0.07
652.996	0.07
653.325	0.07
653.654	0.07
653.982	0.07
654.311	0.07
654.639	0.07
654.967	0.07
655.296	0.07
655.624	0.07
655.952	0.07
656.28	0.07
656.609	0.07
656.937	0.07
657.265	0.07
657.593	0
657.92	0
658.248	0
658.576	-0
658.904	0.02
659.231	0.07
659.559	0.07
659.887	0.07
660.214	0.07
660.542	0.07
660.869	0.07
661.196	0.07
661.524	0.07
661.851	0.07
662.178	0.07
662.505	0.07
662.832	0.07
663.159	0.07
663.486	0.07
663.813	0.07
664.14	0.07
664.467	0.07
664.794	0.06
665.12	0.07
665.447	0.06
665.774	0.06
666.1	0.06
666.427	0.06
666.753	0.06
667.079	0.07
667.406	0.06
667.732	0.06
668.058	0.06
668.384	0.06
668.71	0.06
669.036	0.06
669.362	0.06
669.688	0.06
670.014	0.06
670.34	0.06
670.666	0.06
670.991	0.06
671.317	0.06
671.643	0.06
671.968	0.06
672.294	0.06
672.619	0.06
672.945	0.06
673.27	0.06
673.595	0.05
673.92	0.05
674.246	0.06
674.571	0.05
674.896	0.06
675.221	0.05
675.546	0.05
675.87	0.06
676.195	0.05
676.52	0.05
676.845	0.05
677.169	0.05
677.494	0.05
677.819	0.05
678.143	0.05
678.468	0.05
678.792	0.05
679.116	0.05
679.44	0.05
679.765	0.05
680.089	0.05
680.413	0.05
680.737	0.05
681.061	0.05
681.385	0.05
681.709	0.04
682.033	0.04
682.356	0.05
682.68	0.04
683.004	0.04
683.327	0.04
683.651	0.04
683.974	0.04
684.298	0.04
684.621	0.04
684.944	0.04
685.268	0.04
685.591	0.04
685.914	0.04
686.237	0.04
686.56	0.04
686.883	0.04
687.206	0.04
687.529	0.04
687.852	0.04
688.175	0.03
688.497	0.04
688.82	0.04
689.142	0.03
689.465	0.03
689.787	0.04
690.11	0.04
690.432	0.03
690.755	0.03
691.077	0.03
691.399	0.03
691.721	0.03
692.043	0.03
692.365	0.03
692.687	0.03
693.009	0.03
693.331	0.03
693.653	0.03
693.974	0.03
694.296	0.03
694.618	0.03
694.939	0.03
695.261	0.03
695.582	0.03
695.904	0.03
696.225	0.03
696.546	0.03
696.868	0.03
697.189	0.03
697.51	0.03
697.831	0.03
698.152	0.02
698.473	0.02
698.794	0.02
699.114	0.02
699.435	0.02
699.756	0.02
700.077	0.02
700.397	0.02
700.718	0.02
701.038	0.02
701.359	0.02
701.679	0.02
701.999	0.02
702.32	0.02
702.64	0.02
702.96	0.02
703.28	0.02
703.6	0.02
703.92	0.02
704.24	0.02
704.56	0.02
704.879	0.02
705.199	0.02
705.519	0.02
705.838	0.02
706.158	0.02
706.478	0.02
706.797	0.02
707.116	0.02
707.436	0.02
707.755	0.02
708.074	0.02
708.393	0.02
708.712	0.02
709.031	0.02
709.35	0.01
709.669	0.02
709.988	0.02
710.307	0.02
710.626	0.02
710.944	0.02
711.263	0.02
711.582	0.02
711.9	0.02
712.219	0.02
712.537	0.02
712.855	0.02
713.174	0.02
713.492	0.02
713.81	0.02
714.128	0.02
714.446	0.02
714.764	0.02
715.082	0.02
715.4	0.02
715.718	0.02
716.035	0.02
716.353	0.02
716.671	0.02
716.988	0.02
717.306	0.02
717.623	0.02
717.941	0.02
718.258	0.02
718.575	0.02
718.893	0.02
719.21	0.02
719.527	0.02
719.844	0.02
720.161	0.02
720.478	0.02
720.795	0.02
721.112	0.02
721.428	0.02
721.745	0.02
722.062	0.02
722.378	0.02
722.695	0.02
723.011	0.02
723.328	0.02
723.644	0.02
723.96	0.02
724.276	0.02
724.593	0.03
724.909	0.02
725.225	0.02
725.541	0.02
725.857	0.02
726.173	0.02
726.488	0.03
726.804	0.02
727.12	0.02
727.435	0.02
727.751	0.02
728.067	0.02
728.382	0.02
728.697	0.02
729.013	0.02
729.328	0.02
729.643	0.02
729.958	0.02
730.273	0.02
730.588	0.02
730.903	0.02
731.218	0.02
731.533	0.02
731.848	0.02
732.163	0.02
732.477	0.02
732.792	0.02
733.107	0.02
733.421	0.02
733.736	0.02
734.05	0.02
734.364	0.02
734.678	0.02
734.993	0.02
735.307	0.02
735.621	0.02
735.935	0.02
736.249	0.02
736.563	0.02
736.877	0.02
737.19	0.02
737.504	0.02
737.818	0.02
738.131	0.02
738.445	0.02
738.758	0.02
739.072	0.02
739.385	0.02
739.698	0.02
740.012	0.02
740.325	0.02
740.638	0.02
740.951	0.02
741.264	0.02
741.577	0.02
741.89	0.02
742.203	0.02
742.515	0.02
742.828	0.02
743.141	0.01
743.453	0.02
743.766	0.02
744.078	0.02
744.391	0.02
744.703	0.02
745.015	0.01
745.327	0.01
745.639	0.02
745.952	0.02
746.264	0.01
746.575	0.02
746.887	0.02
747.199	0.02
747.511	0.01
747.823	0.01
748.134	0.01
748.446	0.01
748.757	0.01
749.069	0.01
749.38	0.01
749.692	0.01
750.003	0.01
750.314	0.01
750.625	0.01
750.936	0.01
751.248	0.01
751.559	0.01
751.869	0.01
752.18	0.01
752.491	0.01
752.802	0.01
753.112	0.01
753.423	0.01
753.734	0.01
754.044	0.01
754.355	0.01
754.665	0.01
754.975	0.01
755.285	0.01
755.596	0.01
755.906	0.01
756.216	0.01
756.526	0.01
756.836	0.01
757.146	0.01
757.455	0.01
757.765	0.01
758.075	0.01
758.385	0.01
758.694	0.01
759.004	0.01
759.313	0.01
759.622	0.01
759.932	0.01
760.241	0.01
760.55	0.01
760.859	0.01
761.168	0.01
761.477	0.01
761.786	0.01
762.095	0.01
762.404	0.01
762.713	0.01
763.021	0.01
763.33	0.01
763.639	0.01
763.947	0.01
764.256	0.01
764.564	0.01
764.872	0.01
765.181	0.01
765.489	0.01
765.797	0.01
766.105	0.01
766.413	0.01
766.721	0.01
767.029	0.01
767.337	0.01
767.644	0.01
767.952	0.01
768.26	0.01
768.567	0.01
768.875	0.01
769.182	0
769.49	0.01
769.797	0.01
770.104	0.01
770.411	0.01
770.718	0.01
771.026	0.01
771.333	0.01
771.639	0.01
771.946	0.01
772.253	0.01
772.56	0.01
772.867	0.01
773.173	0.01
773.48	0.01
773.786	0
774.093	0.01
774.399	0
774.705	0.01
775.012	0
775.318	0.01
775.624	0
775.93	0
776.236	0
776.542	0.01
776.848	0.01
777.154	0
777.459	0.01
777.765	0
778.071	0.01
778.376	0.01
778.682	0.01
778.987	0
779.292	0.01
779.598	0
779.903	0.01
780.208	0
780.513	0.01
780.818	0.01
781.123	0.01
781.428	0.01
781.733	0.01
782.038	0.01
782.343	0
782.647	0.01
782.952	0
783.256	0.01
783.561	0.01
783.865	0.01
784.17	0.01
784.474	0
784.778	0.01
785.082	0.01
785.386	0
785.69	0
785.994	0.01
786.298	0
786.602	0
786.906	0
787.209	0
787.513	0
787.817	0
788.12	0.01
788.424	0
788.727	0
789.03	0
789.333	0.01
789.637	0
789.94	0
790.243	0
790.546	0.01
790.849	0
791.152	0.01
791.454	0
791.757	-0
792.06	0.01
792.362	0
792.665	0.01
792.967	0
793.27	0
793.572	0.01
793.874	0
794.177	0.01
794.479	0
794.781	0
795.083	0
795.385	0
795.687	0
795.989	0
796.29	0.01
796.592	0.01
796.894	0
797.195	0.01
797.497	0.01
797.798	0.01
798.1	0.01
798.401	0
798.702	0.01
799.003	0.01
799.304	0.01
799.605	0.01
799.906	0.01
800.207	0.01
800.508	0.01
800.809	0.01
801.11	0.01
801.41	0.01
801.711	0.01
802.011	0.01
802.312	0.01
802.612	0.01
802.913	0.01
803.213	0.01
803.513	0.01
803.813	0.01
804.113	0
804.413	0
804.713	0
805.013	0
805.313	0.01
805.613	0.01
805.912	0.01
806.212	0.01
806.511	0
806.811	0.01
807.11	0.01
807.41	0.01
807.709	0.01
808.008	0
808.307	0
808.606	0.01
808.905	0
809.204	0.01
809.503	0.01
809.802	0.01
810.101	0.01
810.399	0.01
810.698	0.01
810.997	0.01
811.295	0.01
811.593	0.01
811.892	0.01
812.19	0.01
812.488	0.01
812.786	0.01
813.084	0.01
813.383	0.01
813.68	0.01
813.978	0.01
814.276	0.01
814.574	0.01
814.872	0.01
815.169	0.01
815.467	0.01
815.764	0.01
816.062	0.01
816.359	0.01
816.656	0.01
816.954	0.01
817.251	0.01
817.548	0.01
817.845	0
818.142	0.01
818.439	0.01
818.735	0.01
819.032	0.01
819.329	0.01
819.626	0.01
819.922	0.01
820.219	0.01
820.515	0.01
820.811	0.01
821.108	0.01
821.404	0.01
821.7	0.01
821.996	0.01
822.292	0.01
822.588	0.01
822.884	0.01
823.18	0.01
823.475	0
823.771	0.01
824.067	0
824.362	0.01
824.658	0.01
824.953	0.01
825.249	0.01
825.544	0.01
825.839	0.01
826.134	0.01
826.429	0
826.724	0.01
827.019	0.01
827.314	0.01
827.609	0.01
827.904	0.01
828.198	0.01
828.493	0.01
828.787	0.01
829.082	0.01
829.376	0
829.671	0.01
829.965	0
830.259	0.01
830.553	0
830.847	0.01
831.141	0.01
831.435	0.01
831.729	0.01
832.023	0.02
832.317	0.02
832.61	0.01
832.904	0.02
833.197	0.01
833.491	0.02
833.784	0.01
834.077	0.01
834.371	0.01
834.664	0.01
834.957	0.01
835.25	0.01
835.543	0.01
835.836	0.02
836.129	0
836.421	0.01
836.714	0.01
837.007	-0
837.299	0.01
837.592	0.01
837.884	0.01
838.177	-0
838.469	0.01
838.761	-0
839.053	0
839.345	0.01
839.637	0.01
839.929	0.01
840.221	0.01
840.513	0.01
840.805	0
841.096	0.01
841.388	0
841.68	0
841.971	0
842.262	0.01
842.554	-0
842.845	0.01
843.136	0.01
843.427	0.01
843.718	0
844.009	0.01
844.3	0.01
844.591	0.01
844.882	0.01
845.173	0.02
845.463	0.02
845.754	0.01
846.044	0.01
846.335	0
846.625	0.01
846.915	0.01
847.206	0.01
847.496	0.02
847.786	0.01
848.076	0.02
848.366	0
848.656	0.02
848.945	0.01
849.235	0
849.525	0.01
849.814	0.01
850.104	0
850.393	0.01
850.683	0.02
850.972	0.01
851.261	0.01
851.551	0.01
851.84	0.01
852.129	0.01
852.418	0
852.707	0
852.995	0.01
853.284	0.01
853.573	0.01
853.862	0
854.15	0.01
854.439	0.01
854.727	0.02
855.015	0.02
855.304	0.01
855.592	0.01
855.88	0.01
856.168	0.01
856.456	0.02
856.744	0.02
857.032	-0.01
857.32	0.01
857.607	0.02
857.895	0.02
858.183	0.02
858.47	0.02
858.757	0.01
859.045	0.03
859.332	-0.01
859.619	0
859.907	0.01
860.194	0.01
860.481	0.03
860.768	-0.02
861.054	0.02
861.341	0.01
861.628	0.02
861.915	0.02
862.201	0.02
862.488	0.01
862.774	0.01
863.061	0.02
863.347	0.02
863.633	0.01
863.919	-0
864.205	-0
864.491	0.01
864.777	0
865.063	-0.01
865.349	0.01
865.635	-0.01
865.92	-0
866.206	-0.02
866.492	-0.02
866.777	0.01
867.062	-0.01
867.348	-0.01
867.633	0.02
867.918	0.04
868.203	0.02
868.488	-0.02
868.773	0.01
869.058	-0.01
869.343	0.02
869.628	-0.02
869.912	-0.04
870.197	0.04
870.482	0.02
870.766	0.01
871.05	0.01
871.335	-0.03
871.619	-0.01
871.903	-0.06
872.187	0.01
872.471	-0.01
872.755	0.04
873.039	0.01
873.323	-0.01
873.607	-0
873.89	0.02
874.174	-0.04
874.458	-0.05
874.741	-0
875.024	-0
875.308	0
875.591	-0.03
875.874	0.03
876.157	-0.09
876.44	-0.02
876.723	-0.05
877.006	-0.02
877.289	0.01
877.572	0.06
877.854	-0.03
878.137	-0.03
878.42	0.01
878.702	0
878.984	-0.09
879.267	-0.07
879.549	0.06
879.831	-0.02
880.113	-0.04
880.395	-0.02
880.677	-0.03
880.959	-0.09
