Data from Rubpy_BV_1800_EDTA_Buffered_Absorbance_16-42-27-538.txt Node
Date: Wed Jul 01 16:42:27 BST 2026
User: fpm-admin
Spectrometer: OFX00224
Trigger mode: 0
Integration Time (sec): 7.000000E-2
Scans to average: 3
Nonlinearity correction enabled: false
Boxcar width: 0
Storing dark spectrum: false
XAxis mode: Wavelengths
Number of Pixels in Spectrum: 2136
>>>>>Begin Spectral Data<<<<<
154.91	-0
155.289	-0
155.669	0.38
156.048	-0
156.428	-0
156.807	-0.03
157.186	-0
157.566	-0
157.945	-0
158.325	0.5
158.704	-0.32
159.083	0.14
159.462	-0.94
159.842	-0
160.221	0.48
160.6	-0
160.979	0.75
161.359	-0
161.738	-0
162.117	-0
162.496	-0
162.875	-0.63
163.254	1.61
163.633	0.19
164.012	0.62
164.391	0.02
164.77	0.04
165.149	-0
165.528	-0
165.907	0.32
166.286	-0.21
166.665	0.24
167.044	0.32
167.423	1.33
167.802	-0.16
168.181	-0.7
168.559	-0.56
168.938	-0.12
169.317	0.03
169.696	-0
170.074	-0
170.453	-0
170.832	-1.23
171.21	0.79
171.589	0.95
171.968	0.33
172.346	-0
172.725	-0
173.103	-0
173.482	0.46
173.861	-0
174.239	-0.49
174.617	-0.26
174.996	0.37
175.374	-0
175.753	-0.07
176.131	-0
176.51	-0
176.888	-0
177.266	-0
177.645	-0.09
178.023	1.26
178.401	-0.11
178.779	-0.09
179.158	-0
179.536	0.13
179.914	0.26
180.292	0.55
180.67	0.09
181.048	0.4
181.427	-0.3
181.805	-0
182.183	-0
182.561	0.7
182.939	0.4
183.317	-0.11
183.695	0.23
184.073	-0
184.451	-0
184.829	-0.17
185.206	-0.14
185.584	-0
185.962	-0.33
186.34	0.64
186.718	0.89
187.096	-0
187.473	-0
187.851	0.28
188.229	0.15
188.607	0.01
188.984	0.21
189.362	0.04
189.74	0.2
190.117	0.01
190.495	0.06
190.872	0.11
191.25	0.13
191.627	0.08
192.005	0.18
192.382	0.12
192.76	0.25
193.137	0.18
193.515	0.12
193.892	0.25
194.269	0.14
194.647	0.15
195.024	0.09
195.401	0.25
195.779	0.13
196.156	0.25
196.533	0.25
196.91	0.08
197.288	0.19
197.665	0.12
198.042	0.03
198.419	0.18
198.796	0.08
199.173	0.19
199.55	0.19
199.927	0.07
200.304	0.18
200.681	0.06
201.058	0.07
201.435	0.2
201.812	0.12
202.189	0.12
202.566	0.25
202.943	0.07
203.32	0.15
203.697	0.11
204.073	-0.02
204.45	0.15
204.827	0.17
205.204	0.09
205.58	0.15
205.957	0.16
206.334	0.13
206.71	0.16
207.087	0.06
207.464	0.17
207.84	0.1
208.217	0.29
208.593	0.02
208.97	0.25
209.346	0.18
209.723	0.13
210.099	0.25
210.476	0.2
210.852	0.38
211.228	0.19
211.605	0.07
211.981	0.2
212.357	0.23
212.733	0.12
213.11	0.14
213.486	0.17
213.862	0.24
214.238	0.1
214.614	0.17
214.991	0.18
215.367	0.18
215.743	0.1
216.119	0.15
216.495	0.18
216.871	0.16
217.247	0.13
217.623	0.13
217.999	0.18
218.375	0.19
218.751	0.08
219.127	0.16
219.502	0.17
219.878	0.09
220.254	0.3
220.63	0.16
221.006	0.25
221.381	0.25
221.757	0.21
222.133	0.09
222.508	0.26
222.884	0.11
223.26	0.18
223.635	0.09
224.011	0.1
224.386	0.16
224.762	0.19
225.137	0.15
225.513	0.11
225.888	0.22
226.264	0.17
226.639	0.07
227.014	0.13
227.39	0.22
227.765	0.18
228.14	0.15
228.516	0.09
228.891	0.11
229.266	0.12
229.641	0.25
230.017	0.29
230.392	0.14
230.767	0.31
231.142	0.18
231.517	0.09
231.892	0.27
232.267	0.3
232.642	0.16
233.017	0.09
233.392	0.19
233.767	0.22
234.142	0.12
234.517	0.02
234.892	0.18
235.267	0.23
235.641	0.2
236.016	0.15
236.391	0.08
236.766	0.24
237.14	0.22
237.515	0.31
237.89	0.23
238.264	0.21
238.639	0.03
239.014	0.23
239.388	0.12
239.763	0.22
240.137	0.07
240.512	0.18
240.886	0.19
241.261	0.14
241.635	0.19
242.009	0.19
242.384	0.16
242.758	0.12
243.132	0.15
243.507	0.18
243.881	0.24
244.255	0.14
244.629	0.1
245.004	0.15
245.378	0.11
245.752	0.22
246.126	0.12
246.5	0.25
246.874	0.09
247.248	0.16
247.622	0.18
247.996	0.16
248.37	0.22
248.744	0.17
249.118	-0.03
249.492	0.07
249.866	0.21
250.24	0.26
250.613	0.15
250.987	0.18
251.361	0.27
251.735	0.21
252.108	0.16
252.482	0.19
252.856	0.19
253.229	0.18
253.603	0.14
253.977	0.23
254.35	0.22
254.724	0.15
255.097	0.12
255.471	0.17
255.844	0.17
256.218	0.16
256.591	0.12
256.964	0.24
257.338	0.14
257.711	0.24
258.084	0.19
258.458	0.14
258.831	0.17
259.204	0.19
259.577	0.1
259.95	0.22
260.323	0.18
260.697	0.12
261.07	0.07
261.443	0.26
261.816	0.2
262.189	0.16
262.562	0.12
262.935	0.13
263.308	0.16
263.68	0.22
264.053	0.14
264.426	0.22
264.799	0.21
265.172	0.21
265.545	0.24
265.917	0.23
266.29	0.12
266.663	0.14
267.035	0.14
267.408	0.18
267.781	0.15
268.153	0.11
268.526	0.09
268.898	0.25
269.271	0.18
269.643	0.14
270.016	0.2
270.388	0.01
270.76	0.19
271.133	0.16
271.505	0.16
271.877	0.05
272.25	0.15
272.622	0.27
272.994	0.25
273.366	0.14
273.739	0.24
274.111	0.23
274.483	0.14
274.855	0.16
275.227	0.23
275.599	0.21
275.971	0.22
276.343	0.22
276.715	0.19
277.087	0.2
277.459	0.12
277.831	0.16
278.203	0.15
278.574	0.18
278.946	0.17
279.318	0.17
279.69	0.18
280.061	0.13
280.433	0.16
280.805	0.16
281.176	0.26
281.548	0.19
281.92	0.25
282.291	0.17
282.663	0.17
283.034	0.11
283.406	0.22
283.777	0.24
284.148	0.22
284.52	0.19
284.891	0.29
285.262	0.19
285.634	0.16
286.005	0.14
286.376	0.19
286.747	0.19
287.119	0.18
287.49	0.26
287.861	0.15
288.232	0.16
288.603	0.18
288.974	0.15
289.345	0.16
289.716	0.13
290.087	0.15
290.458	0.14
290.829	0.14
291.2	0.19
291.571	0.21
291.941	0.12
292.312	0.15
292.683	0.16
293.054	0.12
293.424	0.07
293.795	0.19
294.166	0.13
294.536	0.22
294.907	0.15
295.277	0.27
295.648	0.21
296.018	0.2
296.389	0.04
296.759	0.18
297.13	0.14
297.5	0.15
297.871	0.24
298.241	0.2
298.611	0.16
298.981	0.18
299.352	0.23
299.722	0.23
300.092	0.22
300.462	0.19
300.832	0.17
301.202	0.13
301.573	0.2
301.943	0.22
302.313	0.13
302.683	0.19
303.053	0.18
303.422	0.18
303.792	0.17
304.162	0.13
304.532	0.23
304.902	0.15
305.272	0.11
305.641	0.17
306.011	0.16
306.381	0.16
306.75	0.2
307.12	0.14
307.49	0.15
307.859	0.15
308.229	0.18
308.598	0.17
308.968	0.15
309.337	0.12
309.707	0.15
310.076	0.12
310.445	0.13
310.815	0.13
311.184	0.13
311.553	0.12
311.923	0.12
312.292	0.12
312.661	0.13
313.03	0.12
313.399	0.13
313.768	0.14
314.137	0.11
314.506	0.14
314.875	0.12
315.244	0.1
315.613	0.11
315.982	0.13
316.351	0.12
316.72	0.13
317.089	0.12
317.458	0.14
317.826	0.13
318.195	0.13
318.564	0.13
318.933	0.13
319.301	0.12
319.67	0.14
320.038	0.13
320.407	0.13
320.775	0.15
321.144	0.14
321.512	0.15
321.881	0.15
322.249	0.15
322.618	0.15
322.986	0.14
323.354	0.14
323.723	0.15
324.091	0.15
324.459	0.17
324.827	0.16
325.195	0.16
325.564	0.15
325.932	0.16
326.3	0.16
326.668	0.16
327.036	0.16
327.404	0.18
327.772	0.17
328.14	0.17
328.508	0.17
328.875	0.16
329.243	0.18
329.611	0.18
329.979	0.18
330.346	0.18
330.714	0.19
331.082	0.19
331.449	0.19
331.817	0.19
332.185	0.2
332.552	0.2
332.92	0.21
333.287	0.21
333.655	0.2
334.022	0.22
334.389	0.22
334.757	0.22
335.124	0.22
335.491	0.23
335.859	0.23
336.226	0.24
336.593	0.25
336.96	0.24
337.327	0.25
337.695	0.25
338.062	0.27
338.429	0.26
338.796	0.27
339.163	0.27
339.53	0.28
339.897	0.28
340.263	0.29
340.63	0.29
340.997	0.3
341.364	0.3
341.731	0.31
342.097	0.31
342.464	0.32
342.831	0.33
343.197	0.33
343.564	0.34
343.931	0.34
344.297	0.35
344.664	0.35
345.03	0.35
345.396	0.36
345.763	0.37
346.129	0.37
346.496	0.38
346.862	0.38
347.228	0.39
347.594	0.39
347.961	0.4
348.327	0.4
348.693	0.4
349.059	0.41
349.425	0.42
349.791	0.43
350.157	0.43
350.523	0.44
350.889	0.43
351.255	0.45
351.621	0.45
351.987	0.45
352.353	0.45
352.719	0.47
353.084	0.47
353.45	0.48
353.816	0.48
354.181	0.49
354.547	0.49
354.913	0.5
355.278	0.5
355.644	0.51
356.009	0.52
356.375	0.53
356.74	0.53
357.106	0.54
357.471	0.55
357.836	0.55
358.202	0.56
358.567	0.57
358.932	0.58
359.297	0.58
359.663	0.59
360.028	0.6
360.393	0.61
360.758	0.62
361.123	0.63
361.488	0.64
361.853	0.65
362.218	0.65
362.583	0.67
362.948	0.67
363.312	0.68
363.677	0.69
364.042	0.7
364.407	0.7
364.772	0.71
365.136	0.72
365.501	0.72
365.865	0.74
366.23	0.74
366.595	0.74
366.959	0.75
367.324	0.75
367.688	0.77
368.052	0.77
368.417	0.77
368.781	0.79
369.145	0.79
369.51	0.8
369.874	0.81
370.238	0.81
370.602	0.81
370.967	0.83
371.331	0.83
371.695	0.83
372.059	0.83
372.423	0.83
372.787	0.83
373.151	0.83
373.515	0.83
373.878	0.83
374.242	0.82
374.606	0.82
374.97	0.81
375.334	0.81
375.697	0.8
376.061	0.8
376.425	0.79
376.788	0.78
377.152	0.78
377.515	0.76
377.879	0.76
378.242	0.75
378.606	0.74
378.969	0.73
379.333	0.73
379.696	0.72
380.059	0.71
380.422	0.7
380.786	0.7
381.149	0.69
381.512	0.68
381.875	0.68
382.238	0.68
382.601	0.67
382.964	0.66
383.327	0.66
383.69	0.65
384.053	0.64
384.416	0.64
384.779	0.64
385.142	0.64
385.504	0.63
385.867	0.64
386.23	0.63
386.593	0.63
386.955	0.64
387.318	0.63
387.68	0.63
388.043	0.64
388.405	0.63
388.768	0.64
389.13	0.64
389.493	0.64
389.855	0.64
390.217	0.63
390.58	0.63
390.942	0.63
391.304	0.62
391.666	0.61
392.028	0.6
392.391	0.6
392.753	0.6
393.115	0.59
393.477	0.57
393.839	0.57
394.201	0.58
394.563	0.57
394.924	0.57
395.286	0.57
395.648	0.58
396.01	0.58
396.371	0.59
396.733	0.6
397.095	0.6
397.456	0.62
397.818	0.64
398.18	0.65
398.541	0.67
398.903	0.69
399.264	0.71
399.625	0.73
399.987	0.74
400.348	0.76
400.709	0.76
401.071	0.77
401.432	0.77
401.793	0.77
402.154	0.76
402.515	0.75
402.876	0.74
403.238	0.72
403.599	0.71
403.96	0.69
404.32	0.66
404.681	0.64
405.042	0.61
405.403	0.58
405.764	0.55
406.125	0.53
406.485	0.5
406.846	0.47
407.207	0.45
407.567	0.42
407.928	0.4
408.288	0.38
408.649	0.35
409.009	0.34
409.37	0.32
409.73	0.3
410.091	0.28
410.451	0.27
410.811	0.25
411.171	0.24
411.532	0.23
411.892	0.22
412.252	0.2
412.612	0.2
412.972	0.19
413.332	0.18
413.692	0.17
414.052	0.16
414.412	0.16
414.772	0.15
415.132	0.15
415.492	0.13
415.851	0.14
416.211	0.14
416.571	0.13
416.931	0.13
417.29	0.11
417.65	0.11
418.009	0.11
418.369	0.11
418.728	0.11
419.088	0.11
419.447	0.11
419.807	0.1
420.166	0.1
420.525	0.09
420.884	0.09
421.244	0.1
421.603	0.09
421.962	0.08
422.321	0.09
422.68	0.09
423.039	0.09
423.398	0.09
423.757	0.08
424.116	0.08
424.475	0.08
424.834	0.07
425.193	0.08
425.551	0.08
425.91	0.08
426.269	0.07
426.628	0.07
426.986	0.08
427.345	0.06
427.703	0.07
428.062	0.07
428.42	0.07
428.779	0.07
429.137	0.08
429.496	0.07
429.854	0.07
430.212	0.07
430.57	0.07
430.929	0.06
431.287	0.06
431.645	0.06
432.003	0.07
432.361	0.06
432.719	0.07
433.077	0.07
433.435	0.06
433.793	0.07
434.151	0.06
434.509	0.07
434.866	0.06
435.224	0.06
435.582	0.06
435.94	0.06
436.297	0.07
436.655	0.07
437.012	0.06
437.37	0.06
437.727	0.06
438.085	0.06
438.442	0.06
438.8	0.07
439.157	0.06
439.514	0.06
439.872	0.05
440.229	0.06
440.586	0.06
440.943	0.06
441.3	0.06
441.657	0.06
442.014	0.06
442.371	0.06
442.728	0.05
443.085	0.06
443.442	0.05
443.799	0.05
444.156	0.06
444.513	0.06
444.869	0.05
445.226	0.06
445.583	0.06
445.939	0.06
446.296	0.05
446.652	0.06
447.009	0.06
447.365	0.05
447.722	0.04
448.078	0.05
448.434	0.06
448.791	0.05
449.147	0.05
449.503	0.05
449.859	0.04
450.215	0.05
450.571	0.05
450.928	0.05
451.284	0.05
451.64	0.04
451.995	0.05
452.351	0.05
452.707	0.05
453.063	0.04
453.419	0.04
453.775	0.04
454.13	0.03
454.486	0.04
454.842	0.03
455.197	0.03
455.553	0.03
455.908	0.03
456.264	0.03
456.619	0.03
456.975	0.03
457.33	0.02
457.685	0.02
458.04	0.01
458.396	0.01
458.751	0.01
459.106	0.01
459.461	0.01
459.816	0
460.171	-0
460.526	-0
460.881	-0.01
461.236	-0.02
461.591	-0.02
461.946	-0.02
462.301	-0.02
462.655	-0.02
463.01	-0.02
463.365	-0.03
463.719	-0.03
464.074	-0.04
464.428	-0.05
464.783	-0.05
465.137	-0.05
465.492	-0.05
465.846	-0.04
466.201	-0.05
466.555	-0.04
466.909	-0.04
467.263	-0.04
467.618	-0.04
467.972	-0.04
468.326	-0.04
468.68	-0.05
469.034	-0.05
469.388	-0.06
469.742	-0.05
470.096	-0.05
470.45	-0.04
470.804	-0.04
471.157	-0.04
471.511	-0.05
471.865	-0.05
472.218	-0.04
472.572	-0.03
472.926	-0.04
473.279	-0.02
473.633	-0.02
473.986	-0.01
474.34	-0.01
474.693	0
475.046	0
475.4	0.01
475.753	0.02
476.106	0.02
476.459	0.02
476.812	0.03
477.165	0.04
477.519	0.04
477.872	0.05
478.224	0.05
478.577	0.06
478.93	0.06
479.283	0.07
479.636	0.07
479.989	0.08
480.341	0.08
480.694	0.08
481.047	0.09
481.399	0.09
481.752	0.1
482.104	0.09
482.457	0.11
482.809	0.11
483.162	0.1
483.514	0.11
483.866	0.12
484.219	0.12
484.571	0.12
484.923	0.12
485.275	0.13
485.627	0.12
485.979	0.13
486.331	0.13
486.683	0.14
487.035	0.14
487.387	0.14
487.739	0.15
488.091	0.15
488.443	0.15
488.794	0.15
489.146	0.15
489.498	0.16
489.849	0.16
490.201	0.16
490.552	0.16
490.904	0.16
491.255	0.16
491.607	0.17
491.958	0.16
492.309	0.17
492.661	0.17
493.012	0.18
493.363	0.17
493.714	0.17
494.065	0.18
494.416	0.18
494.767	0.18
495.118	0.19
495.469	0.18
495.82	0.19
496.171	0.19
496.522	0.19
496.872	0.19
497.223	0.2
497.574	0.2
497.924	0.2
498.275	0.21
498.626	0.2
498.976	0.21
499.327	0.21
499.677	0.21
500.027	0.21
500.378	0.22
500.728	0.22
501.078	0.22
501.428	0.22
501.779	0.22
502.129	0.23
502.479	0.22
502.829	0.23
503.179	0.23
503.529	0.23
503.879	0.24
504.229	0.23
504.578	0.24
504.928	0.24
505.278	0.24
505.628	0.24
505.977	0.24
506.327	0.25
506.676	0.25
507.026	0.25
507.375	0.26
507.725	0.25
508.074	0.25
508.424	0.25
508.773	0.26
509.122	0.26
509.471	0.26
509.82	0.26
510.17	0.27
510.519	0.26
510.868	0.26
511.217	0.26
511.566	0.27
511.915	0.27
512.263	0.27
512.612	0.28
512.961	0.27
513.31	0.28
513.659	0.27
514.007	0.28
514.356	0.28
514.704	0.28
515.053	0.29
515.401	0.28
515.75	0.28
516.098	0.29
516.447	0.29
516.795	0.29
517.143	0.29
517.491	0.3
517.839	0.29
518.188	0.3
518.536	0.3
518.884	0.29
519.232	0.3
519.58	0.3
519.928	0.3
520.275	0.3
520.623	0.31
520.971	0.31
521.319	0.31
521.666	0.31
522.014	0.31
522.362	0.32
522.709	0.31
523.057	0.32
523.404	0.32
523.752	0.32
524.099	0.31
524.446	0.32
524.794	0.32
525.141	0.32
525.488	0.32
525.835	0.33
526.182	0.33
526.529	0.32
526.876	0.32
527.223	0.33
527.57	0.33
527.917	0.33
528.264	0.33
528.611	0.33
528.958	0.33
529.304	0.34
529.651	0.34
529.998	0.34
530.344	0.34
530.691	0.34
531.037	0.34
531.384	0.34
531.73	0.34
532.076	0.34
532.423	0.34
532.769	0.35
533.115	0.34
533.461	0.35
533.807	0.34
534.154	0.35
534.5	0.35
534.846	0.35
535.192	0.35
535.537	0.36
535.883	0.35
536.229	0.35
536.575	0.35
536.921	0.36
537.266	0.35
537.612	0.36
537.957	0.36
538.303	0.36
538.649	0.36
538.994	0.36
539.339	0.36
539.685	0.36
540.03	0.36
540.375	0.37
540.721	0.36
541.066	0.37
541.411	0.36
541.756	0.37
542.101	0.37
542.446	0.37
542.791	0.37
543.136	0.37
543.481	0.37
543.825	0.37
544.17	0.37
544.515	0.38
544.86	0.37
545.204	0.37
545.549	0.38
545.893	0.38
546.238	0.37
546.582	0.38
546.927	0.38
547.271	0.38
547.615	0.38
547.96	0.38
548.304	0.38
548.648	0.38
548.992	0.38
549.336	0.38
549.68	0.38
550.024	0.38
550.368	0.38
550.712	0.38
551.056	0.38
551.4	0.38
551.743	0.38
552.087	0.38
552.431	0.38
552.774	0.39
553.118	0.38
553.462	0.38
553.805	0.38
554.148	0.39
554.492	0.38
554.835	0.39
555.178	0.39
555.522	0.39
555.865	0.38
556.208	0.39
556.551	0.38
556.894	0.39
557.237	0.38
557.58	0.39
557.923	0.38
558.266	0.39
558.609	0.38
558.952	0.38
559.294	0.38
559.637	0.39
559.98	0.38
560.322	0.38
560.665	0.39
561.007	0.38
561.35	0.38
561.692	0.39
562.034	0.38
562.377	0.39
562.719	0.38
563.061	0.38
563.403	0.38
563.745	0.39
564.088	0.38
564.43	0.38
564.772	0.38
565.113	0.38
565.455	0.38
565.797	0.38
566.139	0.38
566.481	0.38
566.822	0.38
567.164	0.38
567.506	0.38
567.847	0.38
568.189	0.38
568.53	0.38
568.872	0.38
569.213	0.38
569.554	0.38
569.895	0.38
570.237	0.38
570.578	0.38
570.919	0.38
571.26	0.37
571.601	0.37
571.942	0.37
572.283	0.37
572.624	0.37
572.965	0.37
573.306	0.37
573.646	0.36
573.987	0.36
574.328	0.37
574.668	0.36
575.009	0.36
575.349	0.36
575.69	0.36
576.03	0.36
576.37	0.36
576.711	0.35
577.051	0.36
577.391	0.36
577.731	0.36
578.072	0.36
578.412	0.36
578.752	0.36
579.092	0.35
579.431	0.35
579.771	0.33
580.111	0.33
580.451	0.34
580.791	0.35
581.13	0.35
581.47	0.35
581.81	0.35
582.149	0.35
582.489	0.35
582.828	0.34
583.167	0.32
583.507	0.29
583.846	0.29
584.185	0.32
584.525	0.34
584.864	0.35
585.203	0.35
585.542	0.35
585.881	0.35
586.22	0.35
586.559	0.34
586.898	0.34
587.236	0.33
587.575	0.34
587.914	0.34
588.252	0.35
588.591	0.35
588.93	0.35
589.268	0.34
589.607	0.34
589.945	0.34
590.283	0.35
590.622	0.34
590.96	0.35
591.298	0.35
591.636	0.35
591.974	0.35
592.313	0.35
592.651	0.35
592.989	0.35
593.326	0.35
593.664	0.35
594.002	0.35
594.34	0.35
594.678	0.35
595.015	0.34
595.353	0.34
595.691	0.35
596.028	0.35
596.366	0.35
596.703	0.35
597.04	0.35
597.378	0.35
597.715	0.36
598.052	0.36
598.389	0.35
598.726	0.35
599.064	0.35
599.401	0.35
599.738	0.36
600.074	0.35
600.411	0.35
600.748	0.35
601.085	0.35
601.422	0.35
601.758	0.35
602.095	0.35
602.432	0.35
602.768	0.35
603.105	0.35
603.441	0.36
603.777	0.35
604.114	0.35
604.45	0.35
604.786	0.35
605.122	0.35
605.459	0.35
605.795	0.35
606.131	0.35
606.467	0.35
606.803	0.35
607.139	0.35
607.474	0.34
607.81	0.34
608.146	0.34
608.482	0.34
608.817	0.34
609.153	0.34
609.488	0.34
609.824	0.34
610.159	0.34
610.495	0.34
610.83	0.34
611.165	0.34
611.5	0.34
611.836	0.34
612.171	0.34
612.506	0.34
612.841	0.34
613.176	0.33
613.511	0.33
613.845	0.33
614.18	0.33
614.515	0.33
614.85	0.33
615.184	0.33
615.519	0.33
615.854	0.33
616.188	0.32
616.523	0.33
616.857	0.32
617.191	0.32
617.526	0.32
617.86	0.32
618.194	0.32
618.528	0.32
618.862	0.32
619.196	0.32
619.53	0.32
619.864	0.32
620.198	0.32
620.532	0.31
620.866	0.31
621.2	0.31
621.533	0.31
621.867	0.31
622.201	0.3
622.534	0.31
622.868	0.31
623.201	0.3
623.534	0.3
623.868	0.3
624.201	0.3
624.534	0.3
624.868	0.3
625.201	0.29
625.534	0.29
625.867	0.29
626.2	0.29
626.533	0.29
626.865	0.29
627.198	0.29
627.531	0.29
627.864	0.29
628.196	0.28
628.529	0.28
628.862	0.29
629.194	0.28
629.527	0.28
629.859	0.28
630.191	0.28
630.524	0.28
630.856	0.27
631.188	0.27
631.52	0.27
631.852	0.27
632.184	0.27
632.516	0.27
632.848	0.26
633.18	0.26
633.512	0.26
633.844	0.26
634.175	0.26
634.507	0.26
634.839	0.25
635.17	0.25
635.502	0.25
635.833	0.25
636.165	0.25
636.496	0.25
636.827	0.24
637.159	0.25
637.49	0.24
637.821	0.24
638.152	0.24
638.483	0.24
638.814	0.23
639.145	0.23
639.476	0.23
639.807	0.23
640.137	0.23
640.468	0.22
640.799	0.22
641.129	0.22
641.46	0.22
641.791	0.22
642.121	0.22
642.451	0.22
642.782	0.22
643.112	0.22
643.442	0.22
643.773	0.21
644.103	0.21
644.433	0.21
644.763	0.21
645.093	0.21
645.423	0.21
645.753	0.21
646.082	0.2
646.412	0.21
646.742	0.2
647.072	0.21
647.401	0.2
647.731	0.2
648.06	0.2
648.39	0.2
648.719	0.2
649.048	0.2
649.378	0.2
649.707	0.2
650.036	0.19
650.365	0.19
650.694	0.19
651.023	0.19
651.352	0.19
651.681	0.19
652.01	0.19
652.339	0.19
652.668	0.19
652.996	0.19
653.325	0.19
653.654	0.19
653.982	0.19
654.311	0.19
654.639	0.19
654.967	0.19
655.296	0.19
655.624	0.19
655.952	0.19
656.28	0.18
656.609	0.18
656.937	0.18
657.265	0.17
657.593	0.05
657.92	0
658.248	0
658.576	0.01
658.904	0.12
659.231	0.18
659.559	0.18
659.887	0.18
660.214	0.18
660.542	0.18
660.869	0.18
661.196	0.18
661.524	0.18
661.851	0.17
662.178	0.17
662.505	0.17
662.832	0.17
663.159	0.17
663.486	0.17
663.813	0.17
664.14	0.17
664.467	0.17
664.794	0.17
665.12	0.17
665.447	0.17
665.774	0.17
666.1	0.17
666.427	0.17
666.753	0.17
667.079	0.16
667.406	0.17
667.732	0.16
668.058	0.16
668.384	0.16
668.71	0.16
669.036	0.16
669.362	0.16
669.688	0.16
670.014	0.16
670.34	0.16
670.666	0.15
670.991	0.16
671.317	0.15
671.643	0.15
671.968	0.15
672.294	0.15
672.619	0.15
672.945	0.15
673.27	0.15
673.595	0.14
673.92	0.14
674.246	0.14
674.571	0.14
674.896	0.14
675.221	0.14
675.546	0.14
675.87	0.14
676.195	0.14
676.52	0.14
676.845	0.13
677.169	0.13
677.494	0.13
677.819	0.13
678.143	0.13
678.468	0.13
678.792	0.13
679.116	0.12
679.44	0.13
679.765	0.12
680.089	0.12
680.413	0.12
680.737	0.12
681.061	0.12
681.385	0.12
681.709	0.12
682.033	0.11
682.356	0.12
682.68	0.11
683.004	0.11
683.327	0.11
683.651	0.11
683.974	0.11
684.298	0.11
684.621	0.11
684.944	0.11
685.268	0.1
685.591	0.1
685.914	0.1
686.237	0.1
686.56	0.1
686.883	0.1
687.206	0.09
687.529	0.09
687.852	0.09
688.175	0.09
688.497	0.09
688.82	0.09
689.142	0.09
689.465	0.09
689.787	0.09
690.11	0.09
690.432	0.09
690.755	0.09
691.077	0.08
691.399	0.08
691.721	0.08
692.043	0.08
692.365	0.08
692.687	0.08
693.009	0.07
693.331	0.07
693.653	0.07
693.974	0.08
694.296	0.07
694.618	0.07
694.939	0.07
695.261	0.07
695.582	0.07
695.904	0.07
696.225	0.07
696.546	0.07
696.868	0.07
697.189	0.07
697.51	0.07
697.831	0.07
698.152	0.07
698.473	0.06
698.794	0.06
699.114	0.06
699.435	0.06
699.756	0.06
700.077	0.06
700.397	0.06
700.718	0.06
701.038	0.06
701.359	0.06
701.679	0.06
701.999	0.06
702.32	0.06
702.64	0.06
702.96	0.06
703.28	0.06
703.6	0.06
703.92	0.06
704.24	0.06
704.56	0.06
704.879	0.06
705.199	0.06
705.519	0.06
705.838	0.06
706.158	0.06
706.478	0.06
706.797	0.06
707.116	0.06
707.436	0.06
707.755	0.06
708.074	0.05
708.393	0.05
708.712	0.05
709.031	0.05
709.35	0.05
709.669	0.05
709.988	0.05
710.307	0.05
710.626	0.05
710.944	0.05
711.263	0.05
711.582	0.05
711.9	0.05
712.219	0.05
712.537	0.05
712.855	0.05
713.174	0.05
713.492	0.05
713.81	0.05
714.128	0.05
714.446	0.05
714.764	0.05
715.082	0.05
715.4	0.05
715.718	0.05
716.035	0.05
716.353	0.05
716.671	0.05
716.988	0.05
717.306	0.05
717.623	0.05
717.941	0.06
718.258	0.05
718.575	0.05
718.893	0.05
719.21	0.05
719.527	0.05
719.844	0.06
720.161	0.05
720.478	0.05
720.795	0.05
721.112	0.06
721.428	0.06
721.745	0.06
722.062	0.06
722.378	0.06
722.695	0.06
723.011	0.06
723.328	0.06
723.644	0.06
723.96	0.06
724.276	0.06
724.593	0.06
724.909	0.06
725.225	0.06
725.541	0.06
725.857	0.06
726.173	0.06
726.488	0.06
726.804	0.06
727.12	0.06
727.435	0.06
727.751	0.06
728.067	0.06
728.382	0.06
728.697	0.06
729.013	0.06
729.328	0.06
729.643	0.06
729.958	0.06
730.273	0.06
730.588	0.05
730.903	0.06
731.218	0.06
731.533	0.05
731.848	0.05
732.163	0.06
732.477	0.06
732.792	0.05
733.107	0.05
733.421	0.06
733.736	0.05
734.05	0.05
734.364	0.05
734.678	0.05
734.993	0.05
735.307	0.05
735.621	0.05
735.935	0.05
736.249	0.05
736.563	0.05
736.877	0.05
737.19	0.05
737.504	0.05
737.818	0.05
738.131	0.05
738.445	0.05
738.758	0.05
739.072	0.05
739.385	0.05
739.698	0.05
740.012	0.05
740.325	0.05
740.638	0.05
740.951	0.05
741.264	0.05
741.577	0.05
741.89	0.05
742.203	0.05
742.515	0.05
742.828	0.05
743.141	0.05
743.453	0.05
743.766	0.04
744.078	0.04
744.391	0.05
744.703	0.04
745.015	0.04
745.327	0.04
745.639	0.04
745.952	0.04
746.264	0.04
746.575	0.04
746.887	0.04
747.199	0.04
747.511	0.04
747.823	0.04
748.134	0.04
748.446	0.04
748.757	0.04
749.069	0.04
749.38	0.04
749.692	0.04
750.003	0.04
750.314	0.04
750.625	0.04
750.936	0.03
751.248	0.03
751.559	0.04
751.869	0.04
752.18	0.04
752.491	0.03
752.802	0.03
753.112	0.03
753.423	0.03
753.734	0.03
754.044	0.03
754.355	0.03
754.665	0.03
754.975	0.03
755.285	0.03
755.596	0.03
755.906	0.03
756.216	0.03
756.526	0.03
756.836	0.03
757.146	0.03
757.455	0.03
757.765	0.03
758.075	0.03
758.385	0.03
758.694	0.03
759.004	0.03
759.313	0.02
759.622	0.03
759.932	0.03
760.241	0.02
760.55	0.03
760.859	0.03
761.168	0.03
761.477	0.03
761.786	0.02
762.095	0.02
762.404	0.02
762.713	0.03
763.021	0.02
763.33	0.02
763.639	0.02
763.947	0.03
764.256	0.03
764.564	0.03
764.872	0.02
765.181	0.02
765.489	0.02
765.797	0.02
766.105	0.02
766.413	0.02
766.721	0.03
767.029	0.03
767.337	0.02
767.644	0.02
767.952	0.03
768.26	0.02
768.567	0.02
768.875	0.02
769.182	0.02
769.49	0.02
769.797	0.02
770.104	0.02
770.411	0.02
770.718	0.02
771.026	0.02
771.333	0.02
771.639	0.02
771.946	0.02
772.253	0.02
772.56	0.02
772.867	0.02
773.173	0.02
773.48	0.02
773.786	0.02
774.093	0.02
774.399	0.02
774.705	0.02
775.012	0.02
775.318	0.02
775.624	0.02
775.93	0.02
776.236	0.02
776.542	0.02
776.848	0.02
777.154	0.02
777.459	0.02
777.765	0.02
778.071	0.02
778.376	0.02
778.682	0.02
778.987	0.02
779.292	0.02
779.598	0.02
779.903	0.02
780.208	0.02
780.513	0.02
780.818	0.02
781.123	0.02
781.428	0.02
781.733	0.02
782.038	0.02
782.343	0.02
782.647	0.02
782.952	0.02
783.256	0.02
783.561	0.02
783.865	0.02
784.17	0.02
784.474	0.02
784.778	0.02
785.082	0.02
785.386	0.02
785.69	0.02
785.994	0.02
786.298	0.02
786.602	0.02
786.906	0.02
787.209	0.02
787.513	0.02
787.817	0.02
788.12	0.02
788.424	0.02
788.727	0.02
789.03	0.02
789.333	0.02
789.637	0.02
789.94	0.02
790.243	0.02
790.546	0.02
790.849	0.02
791.152	0.02
791.454	0.02
791.757	0.02
792.06	0.02
792.362	0.02
792.665	0.03
792.967	0.02
793.27	0.02
793.572	0.03
793.874	0.02
794.177	0.02
794.479	0.02
794.781	0.02
795.083	0.02
795.385	0.02
795.687	0.02
795.989	0.02
796.29	0.03
796.592	0.03
796.894	0.03
797.195	0.03
797.497	0.03
797.798	0.03
798.1	0.03
798.401	0.03
798.702	0.03
799.003	0.03
799.304	0.03
799.605	0.02
799.906	0.03
800.207	0.03
800.508	0.03
800.809	0.03
801.11	0.02
801.41	0.03
801.711	0.03
802.011	0.03
802.312	0.03
802.612	0.02
802.913	0.02
803.213	0.03
803.513	0.03
803.813	0.03
804.113	0.02
804.413	0.03
804.713	0.03
805.013	0.03
805.313	0.03
805.613	0.03
805.912	0.03
806.212	0.03
806.511	0.03
806.811	0.03
807.11	0.03
807.41	0.03
807.709	0.03
808.008	0.03
808.307	0.03
808.606	0.03
808.905	0.03
809.204	0.03
809.503	0.03
809.802	0.03
810.101	0.03
810.399	0.03
810.698	0.03
810.997	0.03
811.295	0.03
811.593	0.03
811.892	0.03
812.19	0.03
812.488	0.03
812.786	0.03
813.084	0.03
813.383	0.03
813.68	0.03
813.978	0.03
814.276	0.03
814.574	0.04
814.872	0.03
815.169	0.03
815.467	0.04
815.764	0.03
816.062	0.03
816.359	0.03
816.656	0.04
816.954	0.03
817.251	0.03
817.548	0.04
817.845	0.03
818.142	0.03
818.439	0.03
818.735	0.03
819.032	0.04
819.329	0.04
819.626	0.04
819.922	0.03
820.219	0.03
820.515	0.04
820.811	0.03
821.108	0.04
821.404	0.04
821.7	0.04
821.996	0.03
822.292	0.04
822.588	0.04
822.884	0.04
823.18	0.04
823.475	0.03
823.771	0.03
824.067	0.04
824.362	0.03
824.658	0.03
824.953	0.04
825.249	0.04
825.544	0.04
825.839	0.04
826.134	0.04
826.429	0.04
826.724	0.03
827.019	0.04
827.314	0.04
827.609	0.04
827.904	0.04
828.198	0.04
828.493	0.04
828.787	0.04
829.082	0.04
829.376	0.03
829.671	0.04
829.965	0.04
830.259	0.04
830.553	0.04
830.847	0.04
831.141	0.04
831.435	0.04
831.729	0.04
832.023	0.05
832.317	0.04
832.61	0.04
832.904	0.03
833.197	0.04
833.491	0.04
833.784	0.04
834.077	0.05
834.371	0.04
834.664	0.04
834.957	0.04
835.25	0.04
835.543	0.04
835.836	0.04
836.129	0.04
836.421	0.04
836.714	0.05
837.007	0.04
837.299	0.04
837.592	0.04
837.884	0.04
838.177	0.03
838.469	0.05
838.761	0.04
839.053	0.03
839.345	0.04
839.637	0.04
839.929	0.04
840.221	0.03
840.513	0.04
840.805	0.05
841.096	0.04
841.388	0.04
841.68	0.03
841.971	0.03
842.262	0.04
842.554	0.04
842.845	0.04
843.136	0.05
843.427	0.05
843.718	0.04
844.009	0.04
844.3	0.05
844.591	0.05
844.882	0.05
845.173	0.05
845.463	0.05
845.754	0.04
846.044	0.04
846.335	0.04
846.625	0.04
846.915	0.04
847.206	0.05
847.496	0.05
847.786	0.05
848.076	0.06
848.366	0.04
848.656	0.05
848.945	0.05
849.235	0.04
849.525	0.04
849.814	0.04
850.104	0.04
850.393	0.04
850.683	0.05
850.972	0.04
851.261	0.04
851.551	0.06
851.84	0.05
852.129	0.05
852.418	0.04
852.707	0.04
852.995	0.05
853.284	0.05
853.573	0.04
853.862	0.04
854.15	0.06
854.439	0.05
854.727	0.06
855.015	0.06
855.304	0.06
855.592	0.05
855.88	0.06
856.168	0.06
856.456	0.06
856.744	0.06
857.032	0.05
857.32	0.06
857.607	0.07
857.895	0.06
858.183	0.05
858.47	0.06
858.757	0.05
859.045	0.05
859.332	0.05
859.619	0.05
859.907	0.05
860.194	0.05
860.481	0.06
860.768	0.03
861.054	0.07
861.341	0.03
861.628	0.05
861.915	0.07
862.201	0.04
862.488	0.05
862.774	0.04
863.061	0.05
863.347	0.07
863.633	0.06
863.919	0.06
864.205	0.06
864.491	0.05
864.777	0.05
865.063	0.05
865.349	0.04
865.635	0.04
865.92	0.04
866.206	0.08
866.492	0.03
866.777	0.05
867.062	0.03
867.348	0.03
867.633	0.05
867.918	0.05
868.203	0.06
868.488	0.03
868.773	0.08
869.058	0.09
869.343	0.07
869.628	0.02
869.912	0.03
870.197	0.08
870.482	0.08
870.766	0.05
871.05	0.04
871.335	0.06
871.619	0.01
871.903	0.03
872.187	0.02
872.471	0.08
872.755	0.09
873.039	0.04
873.323	0.07
873.607	0.06
873.89	0.08
874.174	0.04
874.458	0.01
874.741	0.05
875.024	0.04
875.308	0.05
875.591	-0.03
875.874	0.06
876.157	0.01
876.44	0.03
876.723	0.05
877.006	0.08
877.289	0.07
877.572	0.1
877.854	0.03
878.137	0.01
878.42	0.02
878.702	0.04
878.984	0.01
879.267	0.02
879.549	0.12
879.831	0.02
880.113	-0.03
880.395	0.07
880.677	0.02
880.959	-0.04
