Data from Rubpy_BV_1800_EDTA_Buffered_Absorbance_16-43-47-642.txt Node
Date: Wed Jul 01 16:43:47 BST 2026
User: fpm-admin
Spectrometer: OFX00224
Trigger mode: 0
Integration Time (sec): 7.000000E-2
Scans to average: 3
Nonlinearity correction enabled: false
Boxcar width: 0
Storing dark spectrum: false
XAxis mode: Wavelengths
Number of Pixels in Spectrum: 2136
>>>>>Begin Spectral Data<<<<<
154.91	0.81
155.289	-0
155.669	-0
156.048	-0
156.428	-0
156.807	-0.04
157.186	-0
157.566	1
157.945	-0.9
158.325	-0.07
158.704	-0.19
159.083	-0.15
159.462	-0.86
159.842	-0
160.221	0.13
160.6	-0.54
160.979	-0.11
161.359	0.36
161.738	-0
162.117	-0.74
162.496	-0
162.875	-0.65
163.254	0.41
163.633	-0.07
164.012	0.21
164.391	-0.14
164.77	-0.2
165.149	-1
165.528	0.45
165.907	-0.09
166.286	-0.33
166.665	-0
167.044	-0.37
167.423	0.02
167.802	0.48
168.181	-0.7
168.559	0.22
168.938	0.44
169.317	-0.07
169.696	-0
170.074	-0
170.453	0.65
170.832	-1
171.21	-0.12
171.589	-0.19
171.968	-0.12
172.346	-0.43
172.725	-0.9
173.103	-0
173.482	0.54
173.861	-0.3
174.239	-0.36
174.617	-0
174.996	-0.26
175.374	-0
175.753	-0.45
176.131	0.2
176.51	-0
176.888	-0
177.266	-0
177.645	0.04
178.023	-0
178.401	-0.29
178.779	0.15
179.158	0.34
179.536	0.35
179.914	0.21
180.292	0.92
180.67	0.43
181.048	-0.09
181.427	-0.14
181.805	-0.58
182.183	-0
182.561	-0
182.939	-0
183.317	0.7
183.695	1.43
184.073	-0
184.451	-0
184.829	-0
185.206	0.08
185.584	0.2
185.962	-0.2
186.34	0.34
186.718	-0
187.096	-0.18
187.473	-0.08
187.851	-0.17
188.229	0.52
188.607	0.1
188.984	0.16
189.362	0.03
189.74	0.4
190.117	0.12
190.495	0.21
190.872	0.07
191.25	0.11
191.627	0.12
192.005	0.15
192.382	0.16
192.76	0.06
193.137	0.19
193.515	0.12
193.892	0.12
194.269	0.1
194.647	0.19
195.024	0.06
195.401	0.21
195.779	0.17
196.156	0.21
196.533	0.16
196.91	0.16
197.288	0.09
197.665	0.18
198.042	0.07
198.419	0.1
198.796	0.19
199.173	0.14
199.55	0.12
199.927	0.16
200.304	0.16
200.681	0.22
201.058	0.01
201.435	0.24
201.812	0.07
202.189	0.26
202.566	0.21
202.943	0.1
203.32	0.16
203.697	0.22
204.073	0.09
204.45	0.29
204.827	0.07
205.204	0.09
205.58	0.2
205.957	0.14
206.334	0.14
206.71	0.17
207.087	0.11
207.464	0.03
207.84	0.15
208.217	0.2
208.593	-0
208.97	0.12
209.346	0.22
209.723	0.11
210.099	0.17
210.476	0.18
210.852	0.16
211.228	0.13
211.605	0.15
211.981	0.08
212.357	0.21
212.733	0.19
213.11	0.14
213.486	0.15
213.862	0.11
214.238	0.13
214.614	0.12
214.991	0.16
215.367	0.27
215.743	0.1
216.119	0.27
216.495	0.16
216.871	0.2
217.247	0.21
217.623	0.05
217.999	0.17
218.375	0.28
218.751	0.14
219.127	0.18
219.502	0.13
219.878	0.08
220.254	0.27
220.63	0.16
221.006	0.2
221.381	0.19
221.757	0.18
222.133	0.12
222.508	0.19
222.884	0.14
223.26	0.2
223.635	0.13
224.011	0.12
224.386	0.21
224.762	0.23
225.137	0.19
225.513	0.17
225.888	0.21
226.264	0.09
226.639	0.04
227.014	0.3
227.39	0.23
227.765	0.17
228.14	0.19
228.516	0.22
228.891	0.16
229.266	0.15
229.641	0.27
230.017	0.21
230.392	0.22
230.767	0.2
231.142	0.11
231.517	0.18
231.892	0.1
232.267	0.16
232.642	0.14
233.017	0.22
233.392	0.17
233.767	0.15
234.142	0.18
234.517	0.1
234.892	0.14
235.267	0.13
235.641	0.16
236.016	0.17
236.391	0.13
236.766	0.18
237.14	0.14
237.515	0.22
237.89	0.25
238.264	0.15
238.639	0.09
239.014	0.32
239.388	0.14
239.763	0.28
240.137	0.06
240.512	0.19
240.886	0.1
241.261	0.13
241.635	0.16
242.009	0.22
242.384	0.15
242.758	0.17
243.132	0.19
243.507	0.2
243.881	0.1
244.255	0.13
244.629	0.12
245.004	0.29
245.378	0.14
245.752	0.11
246.126	0.2
246.5	0.21
246.874	0.21
247.248	0.17
247.622	0.3
247.996	0.2
248.37	0.19
248.744	0.12
249.118	0.12
249.492	0.1
249.866	0.26
250.24	0.17
250.613	0.19
250.987	0.26
251.361	0.2
251.735	0.25
252.108	0.21
252.482	0.12
252.856	0.14
253.229	0.15
253.603	0.17
253.977	0.24
254.35	0.26
254.724	0.17
255.097	0.1
255.471	0.12
255.844	0.15
256.218	0.16
256.591	0.18
256.964	0.19
257.338	0.18
257.711	0.24
258.084	0.15
258.458	0.17
258.831	0.23
259.204	0.15
259.577	0.21
259.95	0.15
260.323	0.18
260.697	0.16
261.07	0.16
261.443	0.23
261.816	0.21
262.189	0.18
262.562	0.22
262.935	0.21
263.308	0.23
263.68	0.23
264.053	0.3
264.426	0.25
264.799	0.16
265.172	0.21
265.545	0.21
265.917	0.26
266.29	0.26
266.663	0.21
267.035	0.24
267.408	0.25
267.781	0.26
268.153	0.13
268.526	0.18
268.898	0.2
269.271	0.23
269.643	0.33
270.016	0.24
270.388	0.12
270.76	0.19
271.133	0.13
271.505	0.18
271.877	0.04
272.25	0.19
272.622	0.2
272.994	0.22
273.366	0.24
273.739	0.15
274.111	0.27
274.483	0.17
274.855	0.19
275.227	0.33
275.599	0.2
275.971	0.13
276.343	0.17
276.715	0.2
277.087	0.19
277.459	0.23
277.831	0.09
278.203	0.25
278.574	0.27
278.946	0.15
279.318	0.25
279.69	0.12
280.061	0.23
280.433	0.1
280.805	0.16
281.176	0.2
281.548	0.24
281.92	0.23
282.291	0.17
282.663	0.13
283.034	0.15
283.406	0.3
283.777	0.23
284.148	0.24
284.52	0.28
284.891	0.17
285.262	0.16
285.634	0.23
286.005	0.22
286.376	0.16
286.747	0.18
287.119	0.18
287.49	0.25
287.861	0.18
288.232	0.17
288.603	0.3
288.974	0.13
289.345	0.15
289.716	0.19
290.087	0.19
290.458	0.18
290.829	0.27
291.2	0.2
291.571	0.31
291.941	0.18
292.312	0.12
292.683	0.23
293.054	0.17
293.424	0.1
293.795	0.26
294.166	0.19
294.536	0.17
294.907	0.19
295.277	0.18
295.648	0.21
296.018	0.23
296.389	0.15
296.759	0.18
297.13	0.26
297.5	0.24
297.871	0.22
298.241	0.22
298.611	0.17
298.981	0.21
299.352	0.2
299.722	0.2
300.092	0.18
300.462	0.35
300.832	0.17
301.202	0.19
301.573	0.17
301.943	0.19
302.313	0.2
302.683	0.21
303.053	0.2
303.422	0.19
303.792	0.13
304.162	0.15
304.532	0.21
304.902	0.17
305.272	0.2
305.641	0.25
306.011	0.17
306.381	0.21
306.75	0.23
307.12	0.16
307.49	0.13
307.859	0.12
308.229	0.17
308.598	0.17
308.968	0.19
309.337	0.19
309.707	0.16
310.076	0.12
310.445	0.15
310.815	0.15
311.184	0.18
311.553	0.16
311.923	0.14
312.292	0.15
312.661	0.15
313.03	0.15
313.399	0.17
313.768	0.15
314.137	0.13
314.506	0.16
314.875	0.16
315.244	0.14
315.613	0.16
315.982	0.18
316.351	0.18
316.72	0.14
317.089	0.16
317.458	0.16
317.826	0.17
318.195	0.16
318.564	0.16
318.933	0.18
319.301	0.16
319.67	0.18
320.038	0.18
320.407	0.17
320.775	0.19
321.144	0.19
321.512	0.2
321.881	0.19
322.249	0.19
322.618	0.2
322.986	0.19
323.354	0.2
323.723	0.2
324.091	0.2
324.459	0.2
324.827	0.19
325.195	0.21
325.564	0.22
325.932	0.21
326.3	0.21
326.668	0.22
327.036	0.21
327.404	0.23
327.772	0.22
328.14	0.22
328.508	0.22
328.875	0.23
329.243	0.23
329.611	0.24
329.979	0.25
330.346	0.25
330.714	0.25
331.082	0.27
331.449	0.26
331.817	0.25
332.185	0.26
332.552	0.27
332.92	0.27
333.287	0.28
333.655	0.28
334.022	0.29
334.389	0.29
334.757	0.3
335.124	0.31
335.491	0.31
335.859	0.32
336.226	0.32
336.593	0.33
336.96	0.33
337.327	0.33
337.695	0.35
338.062	0.36
338.429	0.36
338.796	0.37
339.163	0.38
339.53	0.38
339.897	0.38
340.263	0.4
340.63	0.4
340.997	0.41
341.364	0.42
341.731	0.42
342.097	0.42
342.464	0.43
342.831	0.45
343.197	0.45
343.564	0.46
343.931	0.45
344.297	0.47
344.664	0.48
345.03	0.49
345.396	0.49
345.763	0.5
346.129	0.5
346.496	0.51
346.862	0.52
347.228	0.53
347.594	0.53
347.961	0.54
348.327	0.55
348.693	0.55
349.059	0.56
349.425	0.57
349.791	0.58
350.157	0.59
350.523	0.59
350.889	0.59
351.255	0.61
351.621	0.61
351.987	0.61
352.353	0.62
352.719	0.63
353.084	0.64
353.45	0.65
353.816	0.65
354.181	0.66
354.547	0.67
354.913	0.68
355.278	0.69
355.644	0.69
356.009	0.7
356.375	0.72
356.74	0.72
357.106	0.73
357.471	0.74
357.836	0.75
358.202	0.76
358.567	0.77
358.932	0.79
359.297	0.8
359.663	0.8
360.028	0.82
360.393	0.82
360.758	0.83
361.123	0.85
361.488	0.87
361.853	0.87
362.218	0.88
362.583	0.89
362.948	0.9
363.312	0.92
363.677	0.92
364.042	0.93
364.407	0.94
364.772	0.95
365.136	0.95
365.501	0.98
365.865	0.98
366.23	1
366.595	1
366.959	1.01
367.324	1.02
367.688	1.01
368.052	1.04
368.417	1.03
368.781	1.04
369.145	1.07
369.51	1.07
369.874	1.07
370.238	1.08
370.602	1.07
370.967	1.09
371.331	1.09
371.695	1.09
372.059	1.1
372.423	1.1
372.787	1.1
373.151	1.1
373.515	1.09
373.878	1.11
374.242	1.08
374.606	1.08
374.97	1.06
375.334	1.07
375.697	1.06
376.061	1.05
376.425	1.05
376.788	1.03
377.152	1.02
377.515	1.01
377.879	1
378.242	0.99
378.606	0.98
378.969	0.97
379.333	0.96
379.696	0.94
380.059	0.94
380.422	0.93
380.786	0.91
381.149	0.9
381.512	0.89
381.875	0.89
382.238	0.88
382.601	0.87
382.964	0.86
383.327	0.85
383.69	0.86
384.053	0.83
384.416	0.83
384.779	0.83
385.142	0.83
385.504	0.82
385.867	0.82
386.23	0.82
386.593	0.82
386.955	0.82
387.318	0.81
387.68	0.81
388.043	0.81
388.405	0.81
388.768	0.81
389.13	0.81
389.493	0.81
389.855	0.8
390.217	0.8
390.58	0.8
390.942	0.78
391.304	0.77
391.666	0.77
392.028	0.76
392.391	0.75
392.753	0.75
393.115	0.73
393.477	0.73
393.839	0.72
394.201	0.71
394.563	0.71
394.924	0.71
395.286	0.71
395.648	0.72
396.01	0.72
396.371	0.73
396.733	0.73
397.095	0.75
397.456	0.76
397.818	0.78
398.18	0.8
398.541	0.82
398.903	0.85
399.264	0.86
399.625	0.88
399.987	0.91
400.348	0.91
400.709	0.93
401.071	0.94
401.432	0.94
401.793	0.95
402.154	0.93
402.515	0.92
402.876	0.9
403.238	0.87
403.599	0.86
403.96	0.83
404.32	0.8
404.681	0.78
405.042	0.74
405.403	0.71
405.764	0.68
406.125	0.64
406.485	0.61
406.846	0.58
407.207	0.55
407.567	0.51
407.928	0.5
408.288	0.46
408.649	0.44
409.009	0.41
409.37	0.39
409.73	0.37
410.091	0.34
410.451	0.33
410.811	0.31
411.171	0.3
411.532	0.28
411.892	0.27
412.252	0.25
412.612	0.24
412.972	0.23
413.332	0.22
413.692	0.22
414.052	0.21
414.412	0.19
414.772	0.19
415.132	0.18
415.492	0.18
415.851	0.18
416.211	0.17
416.571	0.16
416.931	0.16
417.29	0.15
417.65	0.15
418.009	0.14
418.369	0.13
418.728	0.14
419.088	0.13
419.447	0.13
419.807	0.13
420.166	0.12
420.525	0.12
420.884	0.12
421.244	0.11
421.603	0.11
421.962	0.11
422.321	0.11
422.68	0.11
423.039	0.1
423.398	0.1
423.757	0.1
424.116	0.1
424.475	0.1
424.834	0.1
425.193	0.1
425.551	0.1
425.91	0.09
426.269	0.1
426.628	0.09
426.986	0.09
427.345	0.09
427.703	0.09
428.062	0.09
428.42	0.1
428.779	0.09
429.137	0.1
429.496	0.09
429.854	0.09
430.212	0.09
430.57	0.08
430.929	0.08
431.287	0.08
431.645	0.08
432.003	0.08
432.361	0.08
432.719	0.09
433.077	0.08
433.435	0.08
433.793	0.08
434.151	0.08
434.509	0.08
434.866	0.09
435.224	0.08
435.582	0.08
435.94	0.08
436.297	0.09
436.655	0.09
437.012	0.08
437.37	0.08
437.727	0.07
438.085	0.08
438.442	0.08
438.8	0.09
439.157	0.08
439.514	0.08
439.872	0.07
440.229	0.07
440.586	0.07
440.943	0.08
441.3	0.08
441.657	0.09
442.014	0.08
442.371	0.08
442.728	0.08
443.085	0.08
443.442	0.08
443.799	0.08
444.156	0.08
444.513	0.08
444.869	0.07
445.226	0.08
445.583	0.08
445.939	0.08
446.296	0.07
446.652	0.08
447.009	0.07
447.365	0.08
447.722	0.08
448.078	0.07
448.434	0.08
448.791	0.08
449.147	0.08
449.503	0.07
449.859	0.07
450.215	0.07
450.571	0.07
450.928	0.07
451.284	0.07
451.64	0.07
451.995	0.07
452.351	0.07
452.707	0.07
453.063	0.07
453.419	0.06
453.775	0.06
454.13	0.06
454.486	0.06
454.842	0.06
455.197	0.06
455.553	0.06
455.908	0.05
456.264	0.05
456.619	0.05
456.975	0.05
457.33	0.05
457.685	0.04
458.04	0.04
458.396	0.04
458.751	0.04
459.106	0.02
459.461	0.03
459.816	0.03
460.171	0.02
460.526	0.02
460.881	0.01
461.236	0.01
461.591	0
461.946	0
462.301	0.01
462.655	0
463.01	-0
463.365	-0
463.719	-0.01
464.074	-0.01
464.428	-0.02
464.783	-0.03
465.137	-0.02
465.492	-0.03
465.846	-0.02
466.201	-0.02
466.555	-0.02
466.909	-0.02
467.263	-0.01
467.618	-0.01
467.972	-0.01
468.326	-0.02
468.68	-0.02
469.034	-0.02
469.388	-0.03
469.742	-0.02
470.096	-0.01
470.45	-0.02
470.804	-0.01
471.157	-0.02
471.511	-0.01
471.865	-0.02
472.218	-0.01
472.572	-0
472.926	0
473.279	0.01
473.633	0.01
473.986	0.02
474.34	0.02
474.693	0.03
475.046	0.04
475.4	0.05
475.753	0.06
476.106	0.06
476.459	0.06
476.812	0.08
477.165	0.08
477.519	0.08
477.872	0.09
478.224	0.1
478.577	0.1
478.93	0.11
479.283	0.11
479.636	0.12
479.989	0.12
480.341	0.12
480.694	0.13
481.047	0.13
481.399	0.14
481.752	0.15
482.104	0.14
482.457	0.16
482.809	0.16
483.162	0.16
483.514	0.16
483.866	0.17
484.219	0.17
484.571	0.18
484.923	0.18
485.275	0.18
485.627	0.18
485.979	0.19
486.331	0.19
486.683	0.19
487.035	0.19
487.387	0.2
487.739	0.21
488.091	0.21
488.443	0.21
488.794	0.21
489.146	0.21
489.498	0.22
489.849	0.22
490.201	0.22
490.552	0.22
490.904	0.22
491.255	0.23
491.607	0.23
491.958	0.24
492.309	0.24
492.661	0.24
493.012	0.24
493.363	0.24
493.714	0.24
494.065	0.25
494.416	0.25
494.767	0.25
495.118	0.26
495.469	0.26
495.82	0.26
496.171	0.26
496.522	0.27
496.872	0.27
497.223	0.27
497.574	0.27
497.924	0.28
498.275	0.28
498.626	0.29
498.976	0.29
499.327	0.29
499.677	0.29
500.027	0.29
500.378	0.29
500.728	0.29
501.078	0.3
501.428	0.31
501.779	0.31
502.129	0.3
502.479	0.31
502.829	0.31
503.179	0.32
503.529	0.31
503.879	0.32
504.229	0.32
504.578	0.33
504.928	0.32
505.278	0.33
505.628	0.33
505.977	0.34
506.327	0.33
506.676	0.34
507.026	0.34
507.375	0.34
507.725	0.34
508.074	0.34
508.424	0.34
508.773	0.36
509.122	0.35
509.471	0.35
509.82	0.35
510.17	0.36
510.519	0.36
510.868	0.36
511.217	0.36
511.566	0.37
511.915	0.37
512.263	0.37
512.612	0.38
512.961	0.37
513.31	0.38
513.659	0.38
514.007	0.38
514.356	0.38
514.704	0.38
515.053	0.39
515.401	0.38
515.75	0.39
516.098	0.39
516.447	0.4
516.795	0.39
517.143	0.4
517.491	0.39
517.839	0.4
518.188	0.4
518.536	0.41
518.884	0.41
519.232	0.41
519.58	0.4
519.928	0.41
520.275	0.42
520.623	0.42
520.971	0.42
521.319	0.42
521.666	0.42
522.014	0.42
522.362	0.42
522.709	0.43
523.057	0.43
523.404	0.43
523.752	0.44
524.099	0.43
524.446	0.43
524.794	0.43
525.141	0.43
525.488	0.44
525.835	0.44
526.182	0.44
526.529	0.44
526.876	0.44
527.223	0.44
527.57	0.45
527.917	0.45
528.264	0.45
528.611	0.45
528.958	0.45
529.304	0.45
529.651	0.45
529.998	0.46
530.344	0.46
530.691	0.46
531.037	0.46
531.384	0.47
531.73	0.46
532.076	0.47
532.423	0.46
532.769	0.47
533.115	0.46
533.461	0.46
533.807	0.46
534.154	0.47
534.5	0.47
534.846	0.47
535.192	0.47
535.537	0.47
535.883	0.48
536.229	0.48
536.575	0.48
536.921	0.48
537.266	0.48
537.612	0.48
537.957	0.48
538.303	0.48
538.649	0.49
538.994	0.48
539.339	0.49
539.685	0.48
540.03	0.49
540.375	0.49
540.721	0.49
541.066	0.49
541.411	0.49
541.756	0.49
542.101	0.49
542.446	0.49
542.791	0.49
543.136	0.5
543.481	0.49
543.825	0.49
544.17	0.5
544.515	0.5
544.86	0.5
545.204	0.5
545.549	0.5
545.893	0.5
546.238	0.5
546.582	0.5
546.927	0.5
547.271	0.51
547.615	0.51
547.96	0.5
548.304	0.5
548.648	0.5
548.992	0.5
549.336	0.5
549.68	0.5
550.024	0.51
550.368	0.51
550.712	0.51
551.056	0.51
551.4	0.51
551.743	0.51
552.087	0.51
552.431	0.51
552.774	0.51
553.118	0.51
553.462	0.51
553.805	0.5
554.148	0.51
554.492	0.51
554.835	0.51
555.178	0.51
555.522	0.51
555.865	0.51
556.208	0.51
556.551	0.51
556.894	0.51
557.237	0.5
557.58	0.51
557.923	0.51
558.266	0.51
558.609	0.51
558.952	0.5
559.294	0.51
559.637	0.51
559.98	0.51
560.322	0.51
560.665	0.51
561.007	0.51
561.35	0.51
561.692	0.51
562.034	0.5
562.377	0.51
562.719	0.51
563.061	0.5
563.403	0.51
563.745	0.5
564.088	0.5
564.43	0.5
564.772	0.5
565.113	0.5
565.455	0.5
565.797	0.5
566.139	0.5
566.481	0.5
566.822	0.5
567.164	0.5
567.506	0.5
567.847	0.5
568.189	0.49
568.53	0.5
568.872	0.5
569.213	0.49
569.554	0.5
569.895	0.49
570.237	0.49
570.578	0.49
570.919	0.5
571.26	0.49
571.601	0.49
571.942	0.49
572.283	0.48
572.624	0.49
572.965	0.48
573.306	0.48
573.646	0.48
573.987	0.48
574.328	0.48
574.668	0.48
575.009	0.47
575.349	0.48
575.69	0.48
576.03	0.47
576.37	0.47
576.711	0.47
577.051	0.47
577.391	0.47
577.731	0.48
578.072	0.47
578.412	0.47
578.752	0.47
579.092	0.46
579.431	0.46
579.771	0.44
580.111	0.44
580.451	0.46
580.791	0.46
581.13	0.46
581.47	0.46
581.81	0.46
582.149	0.46
582.489	0.46
582.828	0.45
583.167	0.43
583.507	0.4
583.846	0.4
584.185	0.43
584.525	0.45
584.864	0.45
585.203	0.46
585.542	0.46
585.881	0.46
586.22	0.46
586.559	0.45
586.898	0.44
587.236	0.44
587.575	0.44
587.914	0.45
588.252	0.45
588.591	0.45
588.93	0.45
589.268	0.45
589.607	0.45
589.945	0.45
590.283	0.45
590.622	0.45
590.96	0.46
591.298	0.46
591.636	0.46
591.974	0.46
592.313	0.46
592.651	0.46
592.989	0.45
593.326	0.46
593.664	0.45
594.002	0.46
594.34	0.45
594.678	0.45
595.015	0.45
595.353	0.44
595.691	0.45
596.028	0.46
596.366	0.46
596.703	0.46
597.04	0.46
597.378	0.46
597.715	0.46
598.052	0.46
598.389	0.46
598.726	0.46
599.064	0.46
599.401	0.46
599.738	0.46
600.074	0.45
600.411	0.45
600.748	0.45
601.085	0.45
601.422	0.45
601.758	0.45
602.095	0.45
602.432	0.45
602.768	0.45
603.105	0.45
603.441	0.45
603.777	0.45
604.114	0.45
604.45	0.45
604.786	0.45
605.122	0.45
605.459	0.45
605.795	0.45
606.131	0.45
606.467	0.45
606.803	0.45
607.139	0.44
607.474	0.44
607.81	0.44
608.146	0.44
608.482	0.44
608.817	0.44
609.153	0.43
609.488	0.44
609.824	0.44
610.159	0.44
610.495	0.44
610.83	0.44
611.165	0.44
611.5	0.43
611.836	0.43
612.171	0.43
612.506	0.43
612.841	0.43
613.176	0.42
613.511	0.42
613.845	0.42
614.18	0.42
614.515	0.42
614.85	0.42
615.184	0.42
615.519	0.42
615.854	0.41
616.188	0.41
616.523	0.41
616.857	0.41
617.191	0.41
617.526	0.41
617.86	0.41
618.194	0.4
618.528	0.41
618.862	0.41
619.196	0.4
619.53	0.4
619.864	0.4
620.198	0.4
620.532	0.4
620.866	0.39
621.2	0.4
621.533	0.39
621.867	0.39
622.201	0.39
622.534	0.39
622.868	0.39
623.201	0.39
623.534	0.38
623.868	0.38
624.201	0.38
624.534	0.38
624.868	0.38
625.201	0.37
625.534	0.37
625.867	0.37
626.2	0.37
626.533	0.37
626.865	0.37
627.198	0.37
627.531	0.37
627.864	0.37
628.196	0.36
628.529	0.36
628.862	0.35
629.194	0.35
629.527	0.35
629.859	0.35
630.191	0.35
630.524	0.35
630.856	0.35
631.188	0.34
631.52	0.34
631.852	0.34
632.184	0.34
632.516	0.34
632.848	0.33
633.18	0.33
633.512	0.33
633.844	0.33
634.175	0.33
634.507	0.32
634.839	0.32
635.17	0.32
635.502	0.32
635.833	0.32
636.165	0.32
636.496	0.31
636.827	0.31
637.159	0.31
637.49	0.31
637.821	0.3
638.152	0.3
638.483	0.3
638.814	0.3
639.145	0.29
639.476	0.3
639.807	0.29
640.137	0.29
640.468	0.29
640.799	0.28
641.129	0.28
641.46	0.28
641.791	0.28
642.121	0.28
642.451	0.27
642.782	0.27
643.112	0.27
643.442	0.27
643.773	0.27
644.103	0.27
644.433	0.27
644.763	0.27
645.093	0.26
645.423	0.26
645.753	0.26
646.082	0.26
646.412	0.26
646.742	0.26
647.072	0.26
647.401	0.26
647.731	0.25
648.06	0.26
648.39	0.25
648.719	0.25
649.048	0.25
649.378	0.25
649.707	0.25
650.036	0.24
650.365	0.25
650.694	0.24
651.023	0.24
651.352	0.24
651.681	0.24
652.01	0.25
652.339	0.24
652.668	0.24
652.996	0.24
653.325	0.24
653.654	0.24
653.982	0.24
654.311	0.24
654.639	0.24
654.967	0.24
655.296	0.23
655.624	0.23
655.952	0.24
656.28	0.23
656.609	0.23
656.937	0.23
657.265	0.22
657.593	0.09
657.92	0.01
658.248	0
658.576	0.05
658.904	0.17
659.231	0.22
659.559	0.23
659.887	0.23
660.214	0.22
660.542	0.23
660.869	0.22
661.196	0.22
661.524	0.22
661.851	0.22
662.178	0.22
662.505	0.22
662.832	0.22
663.159	0.22
663.486	0.22
663.813	0.22
664.14	0.22
664.467	0.21
664.794	0.21
665.12	0.21
665.447	0.21
665.774	0.21
666.1	0.21
666.427	0.21
666.753	0.21
667.079	0.21
667.406	0.21
667.732	0.21
668.058	0.2
668.384	0.2
668.71	0.2
669.036	0.2
669.362	0.2
669.688	0.2
670.014	0.2
670.34	0.19
670.666	0.19
670.991	0.19
671.317	0.19
671.643	0.19
671.968	0.19
672.294	0.19
672.619	0.19
672.945	0.19
673.27	0.18
673.595	0.18
673.92	0.18
674.246	0.18
674.571	0.18
674.896	0.18
675.221	0.18
675.546	0.17
675.87	0.17
676.195	0.17
676.52	0.17
676.845	0.17
677.169	0.17
677.494	0.17
677.819	0.16
678.143	0.16
678.468	0.16
678.792	0.16
679.116	0.16
679.44	0.16
679.765	0.15
680.089	0.15
680.413	0.15
680.737	0.15
681.061	0.15
681.385	0.15
681.709	0.14
682.033	0.14
682.356	0.14
682.68	0.14
683.004	0.14
683.327	0.14
683.651	0.13
683.974	0.14
684.298	0.14
684.621	0.13
684.944	0.13
685.268	0.13
685.591	0.13
685.914	0.13
686.237	0.12
686.56	0.12
686.883	0.12
687.206	0.12
687.529	0.12
687.852	0.12
688.175	0.12
688.497	0.12
688.82	0.12
689.142	0.11
689.465	0.11
689.787	0.11
690.11	0.11
690.432	0.11
690.755	0.11
691.077	0.1
691.399	0.1
691.721	0.1
692.043	0.1
692.365	0.1
692.687	0.1
693.009	0.09
693.331	0.09
693.653	0.09
693.974	0.09
694.296	0.09
694.618	0.09
694.939	0.09
695.261	0.09
695.582	0.09
695.904	0.09
696.225	0.09
696.546	0.09
696.868	0.09
697.189	0.09
697.51	0.08
697.831	0.08
698.152	0.08
698.473	0.08
698.794	0.08
699.114	0.08
699.435	0.07
699.756	0.08
700.077	0.08
700.397	0.08
700.718	0.08
701.038	0.08
701.359	0.08
701.679	0.08
701.999	0.08
702.32	0.08
702.64	0.08
702.96	0.08
703.28	0.07
703.6	0.07
703.92	0.07
704.24	0.07
704.56	0.07
704.879	0.07
705.199	0.07
705.519	0.07
705.838	0.07
706.158	0.07
706.478	0.07
706.797	0.07
707.116	0.07
707.436	0.07
707.755	0.07
708.074	0.07
708.393	0.07
708.712	0.06
709.031	0.06
709.35	0.06
709.669	0.06
709.988	0.06
710.307	0.06
710.626	0.06
710.944	0.06
711.263	0.06
711.582	0.06
711.9	0.07
712.219	0.07
712.537	0.06
712.855	0.06
713.174	0.07
713.492	0.07
713.81	0.07
714.128	0.07
714.446	0.07
714.764	0.06
715.082	0.06
715.4	0.07
715.718	0.07
716.035	0.06
716.353	0.06
716.671	0.07
716.988	0.07
717.306	0.07
717.623	0.07
717.941	0.07
718.258	0.07
718.575	0.07
718.893	0.07
719.21	0.07
719.527	0.07
719.844	0.07
720.161	0.07
720.478	0.07
720.795	0.07
721.112	0.07
721.428	0.07
721.745	0.07
722.062	0.07
722.378	0.07
722.695	0.07
723.011	0.07
723.328	0.07
723.644	0.07
723.96	0.07
724.276	0.07
724.593	0.07
724.909	0.07
725.225	0.07
725.541	0.07
725.857	0.07
726.173	0.07
726.488	0.07
726.804	0.07
727.12	0.07
727.435	0.07
727.751	0.07
728.067	0.07
728.382	0.07
728.697	0.07
729.013	0.07
729.328	0.07
729.643	0.07
729.958	0.07
730.273	0.07
730.588	0.07
730.903	0.07
731.218	0.07
731.533	0.07
731.848	0.07
732.163	0.07
732.477	0.07
732.792	0.07
733.107	0.06
733.421	0.07
733.736	0.07
734.05	0.07
734.364	0.07
734.678	0.07
734.993	0.06
735.307	0.07
735.621	0.07
735.935	0.07
736.249	0.07
736.563	0.07
736.877	0.07
737.19	0.07
737.504	0.07
737.818	0.07
738.131	0.06
738.445	0.07
738.758	0.07
739.072	0.07
739.385	0.07
739.698	0.07
740.012	0.07
740.325	0.06
740.638	0.06
740.951	0.06
741.264	0.06
741.577	0.06
741.89	0.06
742.203	0.06
742.515	0.06
742.828	0.06
743.141	0.06
743.453	0.06
743.766	0.06
744.078	0.06
744.391	0.06
744.703	0.05
745.015	0.05
745.327	0.06
745.639	0.05
745.952	0.05
746.264	0.06
746.575	0.05
746.887	0.05
747.199	0.05
747.511	0.05
747.823	0.05
748.134	0.05
748.446	0.05
748.757	0.05
749.069	0.05
749.38	0.05
749.692	0.05
750.003	0.05
750.314	0.05
750.625	0.05
750.936	0.05
751.248	0.04
751.559	0.05
751.869	0.04
752.18	0.05
752.491	0.04
752.802	0.04
753.112	0.04
753.423	0.04
753.734	0.04
754.044	0.04
754.355	0.04
754.665	0.04
754.975	0.04
755.285	0.04
755.596	0.04
755.906	0.04
756.216	0.04
756.526	0.04
756.836	0.04
757.146	0.04
757.455	0.04
757.765	0.04
758.075	0.03
758.385	0.04
758.694	0.03
759.004	0.03
759.313	0.03
759.622	0.03
759.932	0.04
760.241	0.03
760.55	0.04
760.859	0.03
761.168	0.04
761.477	0.03
761.786	0.03
762.095	0.03
762.404	0.03
762.713	0.03
763.021	0.03
763.33	0.03
763.639	0.03
763.947	0.03
764.256	0.03
764.564	0.03
764.872	0.03
765.181	0.03
765.489	0.03
765.797	0.03
766.105	0.03
766.413	0.03
766.721	0.03
767.029	0.03
767.337	0.03
767.644	0.03
767.952	0.03
768.26	0.03
768.567	0.03
768.875	0.03
769.182	0.03
769.49	0.03
769.797	0.03
770.104	0.03
770.411	0.03
770.718	0.03
771.026	0.03
771.333	0.03
771.639	0.03
771.946	0.03
772.253	0.03
772.56	0.03
772.867	0.03
773.173	0.03
773.48	0.03
773.786	0.03
774.093	0.03
774.399	0.03
774.705	0.03
775.012	0.03
775.318	0.03
775.624	0.03
775.93	0.03
776.236	0.03
776.542	0.03
776.848	0.03
777.154	0.03
777.459	0.03
777.765	0.03
778.071	0.03
778.376	0.03
778.682	0.03
778.987	0.03
779.292	0.03
779.598	0.03
779.903	0.03
780.208	0.03
780.513	0.03
780.818	0.03
781.123	0.03
781.428	0.03
781.733	0.03
782.038	0.03
782.343	0.03
782.647	0.03
782.952	0.03
783.256	0.03
783.561	0.03
783.865	0.03
784.17	0.03
784.474	0.03
784.778	0.03
785.082	0.03
785.386	0.03
785.69	0.03
785.994	0.03
786.298	0.03
786.602	0.03
786.906	0.03
787.209	0.03
787.513	0.03
787.817	0.03
788.12	0.03
788.424	0.03
788.727	0.03
789.03	0.03
789.333	0.03
789.637	0.03
789.94	0.03
790.243	0.03
790.546	0.03
790.849	0.03
791.152	0.03
791.454	0.03
791.757	0.03
792.06	0.03
792.362	0.03
792.665	0.03
792.967	0.03
793.27	0.03
793.572	0.03
793.874	0.03
794.177	0.03
794.479	0.03
794.781	0.03
795.083	0.03
795.385	0.03
795.687	0.03
795.989	0.03
796.29	0.04
796.592	0.04
796.894	0.03
797.195	0.04
797.497	0.04
797.798	0.04
798.1	0.04
798.401	0.03
798.702	0.04
799.003	0.04
799.304	0.04
799.605	0.04
799.906	0.04
800.207	0.04
800.508	0.04
800.809	0.03
801.11	0.04
801.41	0.04
801.711	0.04
802.011	0.04
802.312	0.03
802.612	0.04
802.913	0.04
803.213	0.04
803.513	0.04
803.813	0.04
804.113	0.04
804.413	0.04
804.713	0.04
805.013	0.04
805.313	0.04
805.613	0.04
805.912	0.04
806.212	0.04
806.511	0.04
806.811	0.04
807.11	0.04
807.41	0.04
807.709	0.04
808.008	0.04
808.307	0.04
808.606	0.04
808.905	0.04
809.204	0.04
809.503	0.04
809.802	0.05
810.101	0.04
810.399	0.04
810.698	0.04
810.997	0.04
811.295	0.04
811.593	0.04
811.892	0.05
812.19	0.05
812.488	0.05
812.786	0.04
813.084	0.04
813.383	0.04
813.68	0.05
813.978	0.05
814.276	0.04
814.574	0.05
814.872	0.05
815.169	0.04
815.467	0.05
815.764	0.04
816.062	0.05
816.359	0.04
816.656	0.05
816.954	0.05
817.251	0.05
817.548	0.05
817.845	0.05
818.142	0.05
818.439	0.05
818.735	0.05
819.032	0.05
819.329	0.05
819.626	0.05
819.922	0.05
820.219	0.05
820.515	0.05
820.811	0.05
821.108	0.05
821.404	0.05
821.7	0.05
821.996	0.05
822.292	0.05
822.588	0.05
822.884	0.05
823.18	0.05
823.475	0.05
823.771	0.05
824.067	0.05
824.362	0.05
824.658	0.05
824.953	0.05
825.249	0.05
825.544	0.05
825.839	0.05
826.134	0.05
826.429	0.05
826.724	0.05
827.019	0.05
827.314	0.05
827.609	0.05
827.904	0.06
828.198	0.06
828.493	0.05
828.787	0.05
829.082	0.05
829.376	0.05
829.671	0.05
829.965	0.05
830.259	0.06
830.553	0.06
830.847	0.06
831.141	0.05
831.435	0.06
831.729	0.06
832.023	0.06
832.317	0.06
832.61	0.05
832.904	0.06
833.197	0.06
833.491	0.06
833.784	0.06
834.077	0.06
834.371	0.06
834.664	0.05
834.957	0.05
835.25	0.06
835.543	0.06
835.836	0.06
836.129	0.06
836.421	0.06
836.714	0.06
837.007	0.05
837.299	0.06
837.592	0.06
837.884	0.06
838.177	0.06
838.469	0.06
838.761	0.06
839.053	0.06
839.345	0.06
839.637	0.06
839.929	0.06
840.221	0.06
840.513	0.06
840.805	0.06
841.096	0.06
841.388	0.06
841.68	0.06
841.971	0.05
842.262	0.06
842.554	0.06
842.845	0.06
843.136	0.07
843.427	0.06
843.718	0.05
844.009	0.07
844.3	0.06
844.591	0.07
844.882	0.05
845.173	0.06
845.463	0.07
845.754	0.06
846.044	0.06
846.335	0.06
846.625	0.06
846.915	0.05
847.206	0.07
847.496	0.06
847.786	0.06
848.076	0.07
848.366	0.06
848.656	0.07
848.945	0.06
849.235	0.06
849.525	0.06
849.814	0.05
850.104	0.05
850.393	0.06
850.683	0.07
850.972	0.08
851.261	0.06
851.551	0.07
851.84	0.07
852.129	0.07
852.418	0.06
852.707	0.07
852.995	0.07
853.284	0.07
853.573	0.06
853.862	0.07
854.15	0.07
854.439	0.07
854.727	0.08
855.015	0.07
855.304	0.06
855.592	0.06
855.88	0.07
856.168	0.09
856.456	0.07
856.744	0.07
857.032	0.07
857.32	0.08
857.607	0.09
857.895	0.09
858.183	0.07
858.47	0.09
858.757	0.07
859.045	0.07
859.332	0.08
859.619	0.07
859.907	0.08
860.194	0.08
860.481	0.09
860.768	0.06
861.054	0.08
861.341	0.07
861.628	0.07
861.915	0.08
862.201	0.07
862.488	0.06
862.774	0.08
863.061	0.07
863.347	0.08
863.633	0.08
863.919	0.07
864.205	0.09
864.491	0.04
864.777	0.07
865.063	0.07
865.349	0.06
865.635	0.08
865.92	0.05
866.206	0.04
866.492	0.04
866.777	0.07
867.062	0.04
867.348	0.03
867.633	0.07
867.918	0.08
868.203	0.1
868.488	0.03
868.773	0.09
869.058	0.06
869.343	0.08
869.628	0.05
869.912	0.04
870.197	0.12
870.482	0.1
870.766	0.07
871.05	0.07
871.335	0.05
871.619	0.03
871.903	0.03
872.187	0.06
872.471	0.1
872.755	0.1
873.039	0.04
873.323	0.03
873.607	0.07
873.89	0.08
874.174	0.03
874.458	0.07
874.741	0.09
875.024	0.06
875.308	0.02
875.591	0.03
875.874	0.06
876.157	-0.01
876.44	0.07
876.723	0.02
877.006	0.05
877.289	0.16
877.572	0.17
877.854	0.04
878.137	0.06
878.42	0.02
878.702	-0.01
878.984	-0.05
879.267	0.07
879.549	0.14
879.831	0.07
880.113	0.01
880.395	0.12
880.677	0.02
880.959	0.05
