Data from Rubpy_BV_1800_EDTA_Buffered_Absorbance_16-44-36-597.txt Node
Date: Wed Jul 01 16:44:36 BST 2026
User: fpm-admin
Spectrometer: OFX00224
Trigger mode: 0
Integration Time (sec): 7.000000E-2
Scans to average: 3
Nonlinearity correction enabled: false
Boxcar width: 0
Storing dark spectrum: false
XAxis mode: Wavelengths
Number of Pixels in Spectrum: 2136
>>>>>Begin Spectral Data<<<<<
154.91	-0
155.289	-0.35
155.669	0.56
156.048	-0
156.428	-0
156.807	0.08
157.186	-0.3
157.566	-0
157.945	0.18
158.325	-0.1
158.704	-0.22
159.083	0.08
159.462	0.12
159.842	0.73
160.221	0.48
160.6	-0
160.979	-0.25
161.359	0.43
161.738	-0.23
162.117	0.6
162.496	-0.27
162.875	-0.41
163.254	-0.13
163.633	-0
164.012	-0.38
164.391	0.62
164.77	0.04
165.149	0.48
165.528	-0
165.907	-0
166.286	-0
166.665	-0.09
167.044	0.02
167.423	-0
167.802	-0
168.181	-0
168.559	-0.3
168.938	0.36
169.317	-0
169.696	-1.11
170.074	-0
170.453	-0.28
170.832	-1.34
171.21	-0.03
171.589	-0
171.968	0.03
172.346	-0
172.725	-0
173.103	-0
173.482	0.29
173.861	-0
174.239	-0.04
174.617	-0
174.996	0.21
175.374	-0
175.753	0.3
176.131	-0.01
176.51	0.1
176.888	0.44
177.266	-0
177.645	-0
178.023	-0
178.401	-0.33
178.779	-0.1
179.158	-0.25
179.536	-0.08
179.914	-0
180.292	0.08
180.67	-0.23
181.048	-0
181.427	-0.62
181.805	-0
182.183	-0.15
182.561	-0
182.939	0.57
183.317	-0.41
183.695	0.95
184.073	-0
184.451	-0.45
184.829	-0.34
185.206	-0.11
185.584	-0
185.962	-0.36
186.34	-0.23
186.718	0.19
187.096	-0
187.473	0.1
187.851	0.24
188.229	-0.4
188.607	0.23
188.984	0.21
189.362	0.13
189.74	0.25
190.117	0.19
190.495	0.17
190.872	0.16
191.25	0.15
191.627	0.34
192.005	0.2
192.382	0.28
192.76	0.19
193.137	0.28
193.515	0.24
193.892	0.21
194.269	0.32
194.647	0.15
195.024	0.25
195.401	0.34
195.779	0.23
196.156	0.22
196.533	0.22
196.91	0.23
197.288	0.27
197.665	0.16
198.042	0.21
198.419	0.24
198.796	0.23
199.173	0.19
199.55	0.28
199.927	0.16
200.304	0.15
200.681	0.17
201.058	0.13
201.435	0.3
201.812	0.25
202.189	0.29
202.566	0.24
202.943	0.15
203.32	0.2
203.697	0.17
204.073	0.16
204.45	0.39
204.827	0.19
205.204	0.19
205.58	0.22
205.957	0.16
206.334	0.2
206.71	0.1
207.087	0.19
207.464	0.16
207.84	0.24
208.217	0.26
208.593	0.11
208.97	0.25
209.346	0.24
209.723	0.14
210.099	0.41
210.476	0.33
210.852	0.34
211.228	0.19
211.605	0.14
211.981	0.2
212.357	0.22
212.733	0.24
213.11	0.27
213.486	0.24
213.862	0.3
214.238	0.26
214.614	0.25
214.991	0.17
215.367	0.32
215.743	0.25
216.119	0.32
216.495	0.21
216.871	0.2
217.247	0.32
217.623	0.25
217.999	0.31
218.375	0.26
218.751	0.16
219.127	0.27
219.502	0.25
219.878	0.13
220.254	0.34
220.63	0.27
221.006	0.21
221.381	0.25
221.757	0.21
222.133	0.18
222.508	0.33
222.884	0.22
223.26	0.25
223.635	0.16
224.011	0.26
224.386	0.21
224.762	0.28
225.137	0.31
225.513	0.3
225.888	0.33
226.264	0.18
226.639	0.16
227.014	0.32
227.39	0.24
227.765	0.15
228.14	0.2
228.516	0.36
228.891	0.31
229.266	0.21
229.641	0.29
230.017	0.2
230.392	0.22
230.767	0.34
231.142	0.15
231.517	0.28
231.892	0.33
232.267	0.28
232.642	0.28
233.017	0.26
233.392	0.36
233.767	0.22
234.142	0.24
234.517	0.22
234.892	0.21
235.267	0.39
235.641	0.28
236.016	0.22
236.391	0.11
236.766	0.2
237.14	0.31
237.515	0.31
237.89	0.32
238.264	0.31
238.639	0.16
239.014	0.3
239.388	0.13
239.763	0.25
240.137	0.1
240.512	0.17
240.886	0.27
241.261	0.12
241.635	0.17
242.009	0.31
242.384	0.21
242.758	0.38
243.132	0.26
243.507	0.25
243.881	0.18
244.255	0.15
244.629	0.15
245.004	0.16
245.378	0.37
245.752	0.35
246.126	0.21
246.5	0.26
246.874	0.14
247.248	0.26
247.622	0.25
247.996	0.29
248.37	0.18
248.744	0.17
249.118	0.36
249.492	0.32
249.866	0.19
250.24	0.29
250.613	0.4
250.987	0.33
251.361	0.31
251.735	0.27
252.108	0.17
252.482	0.23
252.856	0.13
253.229	0.33
253.603	0.15
253.977	0.29
254.35	0.24
254.724	0.27
255.097	0.21
255.471	0.14
255.844	0.3
256.218	0.22
256.591	0.16
256.964	0.31
257.338	0.24
257.711	0.23
258.084	0.33
258.458	0.22
258.831	0.23
259.204	0.23
259.577	0.16
259.95	0.36
260.323	0.29
260.697	0.22
261.07	0.16
261.443	0.34
261.816	0.24
262.189	0.26
262.562	0.21
262.935	0.25
263.308	0.11
263.68	0.19
264.053	0.32
264.426	0.34
264.799	0.2
265.172	0.26
265.545	0.16
265.917	0.25
266.29	0.24
266.663	0.24
267.035	0.21
267.408	0.29
267.781	0.3
268.153	0.18
268.526	0.18
268.898	0.25
269.271	0.24
269.643	0.24
270.016	0.27
270.388	0.12
270.76	0.22
271.133	0.21
271.505	0.37
271.877	0.19
272.25	0.28
272.622	0.24
272.994	0.33
273.366	0.32
273.739	0.14
274.111	0.25
274.483	0.19
274.855	0.17
275.227	0.32
275.599	0.22
275.971	0.19
276.343	0.25
276.715	0.25
277.087	0.27
277.459	0.26
277.831	0.33
278.203	0.24
278.574	0.21
278.946	0.23
279.318	0.23
279.69	0.21
280.061	0.24
280.433	0.27
280.805	0.28
281.176	0.22
281.548	0.3
281.92	0.37
282.291	0.24
282.663	0.26
283.034	0.25
283.406	0.33
283.777	0.3
284.148	0.32
284.52	0.3
284.891	0.27
285.262	0.24
285.634	0.28
286.005	0.27
286.376	0.28
286.747	0.23
287.119	0.22
287.49	0.3
287.861	0.36
288.232	0.22
288.603	0.32
288.974	0.25
289.345	0.23
289.716	0.2
290.087	0.24
290.458	0.28
290.829	0.23
291.2	0.24
291.571	0.23
291.941	0.29
292.312	0.25
292.683	0.29
293.054	0.28
293.424	0.27
293.795	0.28
294.166	0.26
294.536	0.25
294.907	0.22
295.277	0.2
295.648	0.24
296.018	0.32
296.389	0.18
296.759	0.24
297.13	0.31
297.5	0.27
297.871	0.32
298.241	0.31
298.611	0.26
298.981	0.21
299.352	0.26
299.722	0.19
300.092	0.23
300.462	0.29
300.832	0.26
301.202	0.25
301.573	0.33
301.943	0.24
302.313	0.23
302.683	0.19
303.053	0.21
303.422	0.24
303.792	0.29
304.162	0.28
304.532	0.28
304.902	0.2
305.272	0.27
305.641	0.26
306.011	0.22
306.381	0.23
306.75	0.23
307.12	0.2
307.49	0.19
307.859	0.16
308.229	0.2
308.598	0.18
308.968	0.21
309.337	0.17
309.707	0.19
310.076	0.16
310.445	0.18
310.815	0.18
311.184	0.19
311.553	0.16
311.923	0.2
312.292	0.17
312.661	0.18
313.03	0.2
313.399	0.2
313.768	0.17
314.137	0.15
314.506	0.16
314.875	0.18
315.244	0.17
315.613	0.18
315.982	0.2
316.351	0.19
316.72	0.19
317.089	0.19
317.458	0.19
317.826	0.19
318.195	0.17
318.564	0.2
318.933	0.19
319.301	0.19
319.67	0.19
320.038	0.21
320.407	0.2
320.775	0.21
321.144	0.21
321.512	0.21
321.881	0.22
322.249	0.22
322.618	0.23
322.986	0.22
323.354	0.21
323.723	0.21
324.091	0.22
324.459	0.24
324.827	0.24
325.195	0.24
325.564	0.24
325.932	0.25
326.3	0.25
326.668	0.25
327.036	0.25
327.404	0.26
327.772	0.26
328.14	0.25
328.508	0.26
328.875	0.25
329.243	0.27
329.611	0.28
329.979	0.27
330.346	0.29
330.714	0.28
331.082	0.29
331.449	0.29
331.817	0.29
332.185	0.31
332.552	0.3
332.92	0.31
333.287	0.31
333.655	0.33
334.022	0.33
334.389	0.34
334.757	0.34
335.124	0.35
335.491	0.36
335.859	0.37
336.226	0.36
336.593	0.37
336.96	0.38
337.327	0.38
337.695	0.39
338.062	0.4
338.429	0.41
338.796	0.42
339.163	0.43
339.53	0.43
339.897	0.44
340.263	0.45
340.63	0.45
340.997	0.46
341.364	0.47
341.731	0.48
342.097	0.49
342.464	0.49
342.831	0.51
343.197	0.51
343.564	0.52
343.931	0.52
344.297	0.53
344.664	0.54
345.03	0.56
345.396	0.56
345.763	0.57
346.129	0.57
346.496	0.58
346.862	0.59
347.228	0.6
347.594	0.61
347.961	0.61
348.327	0.62
348.693	0.63
349.059	0.64
349.425	0.66
349.791	0.65
350.157	0.66
350.523	0.68
350.889	0.68
351.255	0.69
351.621	0.7
351.987	0.7
352.353	0.7
352.719	0.72
353.084	0.73
353.45	0.74
353.816	0.74
354.181	0.76
354.547	0.76
354.913	0.77
355.278	0.78
355.644	0.78
356.009	0.8
356.375	0.81
356.74	0.83
357.106	0.83
357.471	0.83
357.836	0.85
358.202	0.86
358.567	0.87
358.932	0.89
359.297	0.89
359.663	0.91
360.028	0.92
360.393	0.94
360.758	0.95
361.123	0.96
361.488	0.97
361.853	0.99
362.218	1
362.583	1.01
362.948	1.03
363.312	1.03
363.677	1.05
364.042	1.06
364.407	1.06
364.772	1.08
365.136	1.09
365.501	1.1
365.865	1.11
366.23	1.12
366.595	1.12
366.959	1.14
367.324	1.16
367.688	1.15
368.052	1.17
368.417	1.17
368.781	1.19
369.145	1.2
369.51	1.21
369.874	1.21
370.238	1.23
370.602	1.21
370.967	1.23
371.331	1.22
371.695	1.23
372.059	1.24
372.423	1.23
372.787	1.24
373.151	1.23
373.515	1.23
373.878	1.23
374.242	1.22
374.606	1.21
374.97	1.21
375.334	1.2
375.697	1.19
376.061	1.18
376.425	1.17
376.788	1.16
377.152	1.15
377.515	1.13
377.879	1.13
378.242	1.11
378.606	1.1
378.969	1.1
379.333	1.08
379.696	1.07
380.059	1.05
380.422	1.03
380.786	1.03
381.149	1.03
381.512	1.01
381.875	1
382.238	0.99
382.601	0.97
382.964	0.97
383.327	0.96
383.69	0.96
384.053	0.93
384.416	0.93
384.779	0.92
385.142	0.92
385.504	0.91
385.867	0.91
386.23	0.9
386.593	0.9
386.955	0.9
387.318	0.9
387.68	0.9
388.043	0.89
388.405	0.89
388.768	0.9
389.13	0.9
389.493	0.89
389.855	0.89
390.217	0.88
390.58	0.87
390.942	0.86
391.304	0.85
391.666	0.85
392.028	0.83
392.391	0.83
392.753	0.82
393.115	0.8
393.477	0.79
393.839	0.79
394.201	0.79
394.563	0.78
394.924	0.78
395.286	0.78
395.648	0.78
396.01	0.78
396.371	0.79
396.733	0.81
397.095	0.81
397.456	0.84
397.818	0.86
398.18	0.87
398.541	0.9
398.903	0.92
399.264	0.94
399.625	0.95
399.987	0.98
400.348	1
400.709	1.01
401.071	1.01
401.432	1.02
401.793	1.01
402.154	1
402.515	1
402.876	0.97
403.238	0.96
403.599	0.93
403.96	0.9
404.32	0.88
404.681	0.84
405.042	0.81
405.403	0.78
405.764	0.73
406.125	0.7
406.485	0.67
406.846	0.63
407.207	0.59
407.567	0.56
407.928	0.54
408.288	0.5
408.649	0.47
409.009	0.45
409.37	0.42
409.73	0.4
410.091	0.38
410.451	0.36
410.811	0.34
411.171	0.33
411.532	0.31
411.892	0.3
412.252	0.28
412.612	0.27
412.972	0.25
413.332	0.24
413.692	0.24
414.052	0.22
414.412	0.22
414.772	0.21
415.132	0.2
415.492	0.19
415.851	0.18
416.211	0.18
416.571	0.18
416.931	0.18
417.29	0.17
417.65	0.16
418.009	0.16
418.369	0.15
418.728	0.15
419.088	0.15
419.447	0.15
419.807	0.15
420.166	0.14
420.525	0.13
420.884	0.13
421.244	0.13
421.603	0.13
421.962	0.12
422.321	0.12
422.68	0.12
423.039	0.12
423.398	0.11
423.757	0.11
424.116	0.11
424.475	0.11
424.834	0.11
425.193	0.11
425.551	0.12
425.91	0.11
426.269	0.11
426.628	0.1
426.986	0.11
427.345	0.1
427.703	0.1
428.062	0.1
428.42	0.1
428.779	0.1
429.137	0.11
429.496	0.1
429.854	0.1
430.212	0.1
430.57	0.1
430.929	0.09
431.287	0.1
431.645	0.09
432.003	0.09
432.361	0.09
432.719	0.09
433.077	0.09
433.435	0.09
433.793	0.1
434.151	0.09
434.509	0.09
434.866	0.09
435.224	0.09
435.582	0.09
435.94	0.09
436.297	0.09
436.655	0.1
437.012	0.09
437.37	0.08
437.727	0.09
438.085	0.09
438.442	0.09
438.8	0.09
439.157	0.09
439.514	0.09
439.872	0.08
440.229	0.1
440.586	0.09
440.943	0.09
441.3	0.09
441.657	0.09
442.014	0.09
442.371	0.09
442.728	0.08
443.085	0.09
443.442	0.08
443.799	0.09
444.156	0.08
444.513	0.09
444.869	0.07
445.226	0.08
445.583	0.1
445.939	0.09
446.296	0.08
446.652	0.09
447.009	0.09
447.365	0.08
447.722	0.08
448.078	0.09
448.434	0.09
448.791	0.09
449.147	0.08
449.503	0.09
449.859	0.08
450.215	0.09
450.571	0.08
450.928	0.08
451.284	0.09
451.64	0.09
451.995	0.08
452.351	0.09
452.707	0.08
453.063	0.08
453.419	0.08
453.775	0.08
454.13	0.07
454.486	0.08
454.842	0.07
455.197	0.07
455.553	0.06
455.908	0.06
456.264	0.06
456.619	0.06
456.975	0.07
457.33	0.06
457.685	0.06
458.04	0.05
458.396	0.05
458.751	0.04
459.106	0.04
459.461	0.04
459.816	0.05
460.171	0.04
460.526	0.04
460.881	0.03
461.236	0.02
461.591	0.02
461.946	0.02
462.301	0.02
462.655	0.02
463.01	0.02
463.365	0.01
463.719	0
464.074	-0
464.428	-0.01
464.783	-0.01
465.137	-0.02
465.492	-0.01
465.846	-0.01
466.201	-0.01
466.555	-0.01
466.909	-0
467.263	0
467.618	0
467.972	0
468.326	-0.01
468.68	-0
469.034	-0.01
469.388	-0.01
469.742	-0.01
470.096	-0
470.45	0
470.804	0
471.157	-0
471.511	-0
471.865	-0
472.218	0.01
472.572	0.02
472.926	0.01
473.279	0.02
473.633	0.03
473.986	0.04
474.34	0.04
474.693	0.05
475.046	0.06
475.4	0.07
475.753	0.08
476.106	0.08
476.459	0.08
476.812	0.1
477.165	0.1
477.519	0.11
477.872	0.12
478.224	0.12
478.577	0.13
478.93	0.13
479.283	0.14
479.636	0.14
479.989	0.15
480.341	0.15
480.694	0.16
481.047	0.16
481.399	0.16
481.752	0.17
482.104	0.17
482.457	0.18
482.809	0.19
483.162	0.19
483.514	0.2
483.866	0.2
484.219	0.2
484.571	0.2
484.923	0.2
485.275	0.21
485.627	0.21
485.979	0.22
486.331	0.22
486.683	0.22
487.035	0.22
487.387	0.23
487.739	0.24
488.091	0.24
488.443	0.25
488.794	0.25
489.146	0.25
489.498	0.25
489.849	0.26
490.201	0.25
490.552	0.26
490.904	0.26
491.255	0.27
491.607	0.26
491.958	0.27
492.309	0.27
492.661	0.28
493.012	0.28
493.363	0.28
493.714	0.28
494.065	0.29
494.416	0.29
494.767	0.29
495.118	0.3
495.469	0.3
495.82	0.3
496.171	0.3
496.522	0.31
496.872	0.31
497.223	0.32
497.574	0.31
497.924	0.32
498.275	0.33
498.626	0.33
498.976	0.33
499.327	0.33
499.677	0.33
500.027	0.34
500.378	0.34
500.728	0.34
501.078	0.35
501.428	0.35
501.779	0.35
502.129	0.35
502.479	0.35
502.829	0.36
503.179	0.36
503.529	0.36
503.879	0.37
504.229	0.37
504.578	0.38
504.928	0.37
505.278	0.37
505.628	0.38
505.977	0.38
506.327	0.38
506.676	0.39
507.026	0.39
507.375	0.39
507.725	0.4
508.074	0.39
508.424	0.4
508.773	0.4
509.122	0.4
509.471	0.4
509.82	0.4
510.17	0.41
510.519	0.41
510.868	0.42
511.217	0.42
511.566	0.42
511.915	0.42
512.263	0.43
512.612	0.42
512.961	0.43
513.31	0.43
513.659	0.43
514.007	0.43
514.356	0.44
514.704	0.44
515.053	0.44
515.401	0.44
515.75	0.44
516.098	0.45
516.447	0.45
516.795	0.46
517.143	0.45
517.491	0.46
517.839	0.45
518.188	0.46
518.536	0.46
518.884	0.47
519.232	0.46
519.58	0.46
519.928	0.47
520.275	0.47
520.623	0.47
520.971	0.47
521.319	0.48
521.666	0.47
522.014	0.48
522.362	0.48
522.709	0.48
523.057	0.49
523.404	0.49
523.752	0.49
524.099	0.48
524.446	0.49
524.794	0.49
525.141	0.49
525.488	0.5
525.835	0.5
526.182	0.5
526.529	0.5
526.876	0.51
527.223	0.51
527.57	0.51
527.917	0.51
528.264	0.51
528.611	0.51
528.958	0.51
529.304	0.51
529.651	0.52
529.998	0.52
530.344	0.51
530.691	0.52
531.037	0.52
531.384	0.52
531.73	0.52
532.076	0.53
532.423	0.53
532.769	0.53
533.115	0.53
533.461	0.52
533.807	0.53
534.154	0.53
534.5	0.53
534.846	0.53
535.192	0.53
535.537	0.53
535.883	0.54
536.229	0.54
536.575	0.54
536.921	0.54
537.266	0.55
537.612	0.54
537.957	0.54
538.303	0.55
538.649	0.55
538.994	0.55
539.339	0.55
539.685	0.55
540.03	0.55
540.375	0.56
540.721	0.56
541.066	0.55
541.411	0.55
541.756	0.56
542.101	0.56
542.446	0.56
542.791	0.56
543.136	0.57
543.481	0.56
543.825	0.56
544.17	0.56
544.515	0.56
544.86	0.56
545.204	0.57
545.549	0.57
545.893	0.57
546.238	0.57
546.582	0.57
546.927	0.57
547.271	0.57
547.615	0.57
547.96	0.57
548.304	0.57
548.648	0.57
548.992	0.57
549.336	0.57
549.68	0.57
550.024	0.57
550.368	0.58
550.712	0.57
551.056	0.58
551.4	0.58
551.743	0.57
552.087	0.58
552.431	0.57
552.774	0.58
553.118	0.57
553.462	0.57
553.805	0.57
554.148	0.58
554.492	0.57
554.835	0.57
555.178	0.57
555.522	0.57
555.865	0.57
556.208	0.57
556.551	0.57
556.894	0.57
557.237	0.57
557.58	0.57
557.923	0.57
558.266	0.57
558.609	0.57
558.952	0.57
559.294	0.57
559.637	0.58
559.98	0.57
560.322	0.57
560.665	0.57
561.007	0.57
561.35	0.57
561.692	0.57
562.034	0.57
562.377	0.57
562.719	0.57
563.061	0.56
563.403	0.57
563.745	0.57
564.088	0.57
564.43	0.57
564.772	0.56
565.113	0.56
565.455	0.57
565.797	0.56
566.139	0.56
566.481	0.56
566.822	0.56
567.164	0.56
567.506	0.56
567.847	0.57
568.189	0.56
568.53	0.56
568.872	0.56
569.213	0.56
569.554	0.56
569.895	0.56
570.237	0.55
570.578	0.56
570.919	0.55
571.26	0.55
571.601	0.55
571.942	0.55
572.283	0.54
572.624	0.55
572.965	0.55
573.306	0.54
573.646	0.54
573.987	0.54
574.328	0.54
574.668	0.54
575.009	0.54
575.349	0.54
575.69	0.53
576.03	0.53
576.37	0.53
576.711	0.52
577.051	0.53
577.391	0.53
577.731	0.53
578.072	0.53
578.412	0.53
578.752	0.53
579.092	0.52
579.431	0.51
579.771	0.5
580.111	0.5
580.451	0.51
580.791	0.52
581.13	0.52
581.47	0.52
581.81	0.52
582.149	0.52
582.489	0.51
582.828	0.5
583.167	0.49
583.507	0.45
583.846	0.45
584.185	0.49
584.525	0.51
584.864	0.51
585.203	0.51
585.542	0.52
585.881	0.51
586.22	0.51
586.559	0.51
586.898	0.5
587.236	0.49
587.575	0.5
587.914	0.5
588.252	0.51
588.591	0.51
588.93	0.5
589.268	0.5
589.607	0.51
589.945	0.5
590.283	0.51
590.622	0.51
590.96	0.51
591.298	0.51
591.636	0.51
591.974	0.51
592.313	0.52
592.651	0.51
592.989	0.51
593.326	0.51
593.664	0.51
594.002	0.51
594.34	0.5
594.678	0.5
595.015	0.5
595.353	0.5
595.691	0.51
596.028	0.51
596.366	0.51
596.703	0.51
597.04	0.51
597.378	0.51
597.715	0.51
598.052	0.51
598.389	0.51
598.726	0.51
599.064	0.51
599.401	0.51
599.738	0.51
600.074	0.51
600.411	0.51
600.748	0.5
601.085	0.5
601.422	0.5
601.758	0.5
602.095	0.5
602.432	0.5
602.768	0.5
603.105	0.5
603.441	0.5
603.777	0.51
604.114	0.5
604.45	0.5
604.786	0.5
605.122	0.5
605.459	0.5
605.795	0.49
606.131	0.49
606.467	0.5
606.803	0.49
607.139	0.49
607.474	0.49
607.81	0.49
608.146	0.49
608.482	0.49
608.817	0.49
609.153	0.48
609.488	0.48
609.824	0.48
610.159	0.49
610.495	0.48
610.83	0.48
611.165	0.48
611.5	0.48
611.836	0.48
612.171	0.47
612.506	0.48
612.841	0.47
613.176	0.47
613.511	0.47
613.845	0.47
614.18	0.47
614.515	0.47
614.85	0.47
615.184	0.47
615.519	0.46
615.854	0.46
616.188	0.46
616.523	0.45
616.857	0.45
617.191	0.45
617.526	0.46
617.86	0.45
618.194	0.45
618.528	0.45
618.862	0.45
619.196	0.45
619.53	0.45
619.864	0.44
620.198	0.44
620.532	0.44
620.866	0.44
621.2	0.44
621.533	0.43
621.867	0.43
622.201	0.43
622.534	0.43
622.868	0.43
623.201	0.43
623.534	0.42
623.868	0.42
624.201	0.42
624.534	0.42
624.868	0.42
625.201	0.42
625.534	0.42
625.867	0.41
626.2	0.41
626.533	0.41
626.865	0.41
627.198	0.41
627.531	0.41
627.864	0.4
628.196	0.4
628.529	0.4
628.862	0.4
629.194	0.39
629.527	0.39
629.859	0.39
630.191	0.39
630.524	0.39
630.856	0.38
631.188	0.38
631.52	0.38
631.852	0.38
632.184	0.38
632.516	0.37
632.848	0.37
633.18	0.37
633.512	0.37
633.844	0.37
634.175	0.36
634.507	0.36
634.839	0.36
635.17	0.35
635.502	0.35
635.833	0.35
636.165	0.35
636.496	0.35
636.827	0.34
637.159	0.34
637.49	0.34
637.821	0.34
638.152	0.33
638.483	0.33
638.814	0.33
639.145	0.33
639.476	0.33
639.807	0.32
640.137	0.32
640.468	0.32
640.799	0.32
641.129	0.32
641.46	0.31
641.791	0.31
642.121	0.31
642.451	0.3
642.782	0.31
643.112	0.3
643.442	0.3
643.773	0.3
644.103	0.3
644.433	0.3
644.763	0.3
645.093	0.29
645.423	0.29
645.753	0.29
646.082	0.29
646.412	0.29
646.742	0.29
647.072	0.29
647.401	0.28
647.731	0.28
648.06	0.28
648.39	0.28
648.719	0.28
649.048	0.27
649.378	0.28
649.707	0.28
650.036	0.27
650.365	0.27
650.694	0.27
651.023	0.27
651.352	0.27
651.681	0.27
652.01	0.27
652.339	0.27
652.668	0.27
652.996	0.26
653.325	0.27
653.654	0.26
653.982	0.26
654.311	0.26
654.639	0.26
654.967	0.26
655.296	0.26
655.624	0.26
655.952	0.26
656.28	0.26
656.609	0.26
656.937	0.26
657.265	0.24
657.593	0.11
657.92	0.03
658.248	0.01
658.576	0.07
658.904	0.19
659.231	0.25
659.559	0.25
659.887	0.25
660.214	0.25
660.542	0.25
660.869	0.25
661.196	0.25
661.524	0.25
661.851	0.24
662.178	0.24
662.505	0.24
662.832	0.24
663.159	0.24
663.486	0.24
663.813	0.24
664.14	0.24
664.467	0.24
664.794	0.23
665.12	0.24
665.447	0.23
665.774	0.23
666.1	0.23
666.427	0.23
666.753	0.23
667.079	0.23
667.406	0.23
667.732	0.23
668.058	0.23
668.384	0.22
668.71	0.22
669.036	0.22
669.362	0.22
669.688	0.22
670.014	0.22
670.34	0.22
670.666	0.21
670.991	0.21
671.317	0.21
671.643	0.21
671.968	0.21
672.294	0.21
672.619	0.21
672.945	0.21
673.27	0.2
673.595	0.2
673.92	0.2
674.246	0.2
674.571	0.2
674.896	0.2
675.221	0.19
675.546	0.19
675.87	0.19
676.195	0.19
676.52	0.19
676.845	0.19
677.169	0.18
677.494	0.18
677.819	0.18
678.143	0.18
678.468	0.18
678.792	0.18
679.116	0.18
679.44	0.17
679.765	0.17
680.089	0.17
680.413	0.17
680.737	0.16
681.061	0.16
681.385	0.16
681.709	0.16
682.033	0.16
682.356	0.16
682.68	0.16
683.004	0.16
683.327	0.15
683.651	0.15
683.974	0.15
684.298	0.15
684.621	0.15
684.944	0.15
685.268	0.14
685.591	0.14
685.914	0.14
686.237	0.14
686.56	0.14
686.883	0.13
687.206	0.13
687.529	0.13
687.852	0.13
688.175	0.13
688.497	0.13
688.82	0.13
689.142	0.12
689.465	0.12
689.787	0.12
690.11	0.12
690.432	0.12
690.755	0.12
691.077	0.12
691.399	0.11
691.721	0.11
692.043	0.11
692.365	0.11
692.687	0.11
693.009	0.1
693.331	0.11
693.653	0.1
693.974	0.11
694.296	0.1
694.618	0.1
694.939	0.1
695.261	0.1
695.582	0.1
695.904	0.1
696.225	0.1
696.546	0.09
696.868	0.09
697.189	0.09
697.51	0.09
697.831	0.09
698.152	0.09
698.473	0.09
698.794	0.09
699.114	0.09
699.435	0.08
699.756	0.09
700.077	0.09
700.397	0.09
700.718	0.09
701.038	0.09
701.359	0.09
701.679	0.09
701.999	0.08
702.32	0.08
702.64	0.08
702.96	0.08
703.28	0.08
703.6	0.08
703.92	0.08
704.24	0.08
704.56	0.08
704.879	0.08
705.199	0.08
705.519	0.08
705.838	0.08
706.158	0.08
706.478	0.08
706.797	0.08
707.116	0.08
707.436	0.08
707.755	0.08
708.074	0.07
708.393	0.07
708.712	0.07
709.031	0.06
709.35	0.06
709.669	0.07
709.988	0.07
710.307	0.07
710.626	0.07
710.944	0.07
711.263	0.07
711.582	0.07
711.9	0.07
712.219	0.07
712.537	0.07
712.855	0.07
713.174	0.07
713.492	0.07
713.81	0.07
714.128	0.07
714.446	0.07
714.764	0.07
715.082	0.07
715.4	0.07
715.718	0.07
716.035	0.07
716.353	0.07
716.671	0.07
716.988	0.07
717.306	0.07
717.623	0.07
717.941	0.08
718.258	0.07
718.575	0.08
718.893	0.07
719.21	0.07
719.527	0.07
719.844	0.08
720.161	0.07
720.478	0.08
720.795	0.08
721.112	0.08
721.428	0.08
721.745	0.08
722.062	0.08
722.378	0.08
722.695	0.08
723.011	0.08
723.328	0.08
723.644	0.08
723.96	0.08
724.276	0.08
724.593	0.08
724.909	0.08
725.225	0.08
725.541	0.08
725.857	0.08
726.173	0.08
726.488	0.08
726.804	0.08
727.12	0.08
727.435	0.08
727.751	0.08
728.067	0.08
728.382	0.08
728.697	0.08
729.013	0.08
729.328	0.08
729.643	0.08
729.958	0.08
730.273	0.08
730.588	0.07
730.903	0.08
731.218	0.08
731.533	0.08
731.848	0.08
732.163	0.08
732.477	0.07
732.792	0.07
733.107	0.07
733.421	0.07
733.736	0.07
734.05	0.08
734.364	0.07
734.678	0.07
734.993	0.07
735.307	0.07
735.621	0.07
735.935	0.07
736.249	0.07
736.563	0.07
736.877	0.07
737.19	0.07
737.504	0.07
737.818	0.07
738.131	0.07
738.445	0.07
738.758	0.07
739.072	0.07
739.385	0.07
739.698	0.07
740.012	0.08
740.325	0.07
740.638	0.07
740.951	0.07
741.264	0.07
741.577	0.07
741.89	0.07
742.203	0.07
742.515	0.07
742.828	0.07
743.141	0.07
743.453	0.07
743.766	0.06
744.078	0.06
744.391	0.06
744.703	0.06
745.015	0.06
745.327	0.06
745.639	0.06
745.952	0.06
746.264	0.06
746.575	0.06
746.887	0.06
747.199	0.06
747.511	0.06
747.823	0.06
748.134	0.05
748.446	0.06
748.757	0.06
749.069	0.06
749.38	0.06
749.692	0.06
750.003	0.06
750.314	0.05
750.625	0.05
750.936	0.05
751.248	0.05
751.559	0.05
751.869	0.05
752.18	0.05
752.491	0.05
752.802	0.05
753.112	0.05
753.423	0.05
753.734	0.05
754.044	0.05
754.355	0.05
754.665	0.05
754.975	0.04
755.285	0.04
755.596	0.04
755.906	0.05
756.216	0.05
756.526	0.04
756.836	0.04
757.146	0.04
757.455	0.04
757.765	0.04
758.075	0.04
758.385	0.04
758.694	0.04
759.004	0.04
759.313	0.04
759.622	0.04
759.932	0.04
760.241	0.04
760.55	0.04
760.859	0.04
761.168	0.04
761.477	0.04
761.786	0.04
762.095	0.04
762.404	0.04
762.713	0.04
763.021	0.04
763.33	0.04
763.639	0.04
763.947	0.04
764.256	0.04
764.564	0.04
764.872	0.03
765.181	0.04
765.489	0.03
765.797	0.03
766.105	0.03
766.413	0.04
766.721	0.04
767.029	0.04
767.337	0.04
767.644	0.03
767.952	0.04
768.26	0.03
768.567	0.03
768.875	0.03
769.182	0.03
769.49	0.03
769.797	0.03
770.104	0.03
770.411	0.03
770.718	0.03
771.026	0.03
771.333	0.03
771.639	0.04
771.946	0.03
772.253	0.04
772.56	0.04
772.867	0.04
773.173	0.04
773.48	0.04
773.786	0.03
774.093	0.03
774.399	0.03
774.705	0.03
775.012	0.03
775.318	0.04
775.624	0.03
775.93	0.03
776.236	0.03
776.542	0.03
776.848	0.03
777.154	0.03
777.459	0.03
777.765	0.03
778.071	0.04
778.376	0.03
778.682	0.04
778.987	0.04
779.292	0.03
779.598	0.03
779.903	0.03
780.208	0.03
780.513	0.03
780.818	0.03
781.123	0.04
781.428	0.04
781.733	0.03
782.038	0.03
782.343	0.04
782.647	0.04
782.952	0.04
783.256	0.04
783.561	0.04
783.865	0.04
784.17	0.04
784.474	0.04
784.778	0.04
785.082	0.04
785.386	0.04
785.69	0.04
785.994	0.04
786.298	0.04
786.602	0.04
786.906	0.04
787.209	0.04
787.513	0.04
787.817	0.04
788.12	0.04
788.424	0.04
788.727	0.03
789.03	0.03
789.333	0.04
789.637	0.03
789.94	0.04
790.243	0.04
790.546	0.03
790.849	0.04
791.152	0.04
791.454	0.03
791.757	0.04
792.06	0.03
792.362	0.04
792.665	0.04
792.967	0.04
793.27	0.04
793.572	0.04
793.874	0.04
794.177	0.04
794.479	0.04
794.781	0.04
795.083	0.04
795.385	0.04
795.687	0.04
795.989	0.04
796.29	0.04
796.592	0.04
796.894	0.04
797.195	0.04
797.497	0.04
797.798	0.04
798.1	0.04
798.401	0.04
798.702	0.04
799.003	0.04
799.304	0.04
799.605	0.04
799.906	0.04
800.207	0.04
800.508	0.04
800.809	0.04
801.11	0.04
801.41	0.04
801.711	0.05
802.011	0.04
802.312	0.04
802.612	0.04
802.913	0.04
803.213	0.04
803.513	0.04
803.813	0.05
804.113	0.04
804.413	0.04
804.713	0.05
805.013	0.05
805.313	0.05
805.613	0.05
805.912	0.05
806.212	0.05
806.511	0.05
806.811	0.04
807.11	0.04
807.41	0.05
807.709	0.04
808.008	0.05
808.307	0.04
808.606	0.05
808.905	0.04
809.204	0.05
809.503	0.05
809.802	0.05
810.101	0.05
810.399	0.05
810.698	0.05
810.997	0.05
811.295	0.05
811.593	0.05
811.892	0.05
812.19	0.05
812.488	0.05
812.786	0.05
813.084	0.05
813.383	0.05
813.68	0.05
813.978	0.06
814.276	0.05
814.574	0.05
814.872	0.05
815.169	0.05
815.467	0.05
815.764	0.05
816.062	0.05
816.359	0.05
816.656	0.06
816.954	0.05
817.251	0.06
817.548	0.05
817.845	0.06
818.142	0.05
818.439	0.05
818.735	0.05
819.032	0.06
819.329	0.06
819.626	0.06
819.922	0.06
820.219	0.06
820.515	0.06
820.811	0.06
821.108	0.06
821.404	0.05
821.7	0.06
821.996	0.05
822.292	0.06
822.588	0.06
822.884	0.06
823.18	0.06
823.475	0.05
823.771	0.06
824.067	0.05
824.362	0.06
824.658	0.05
824.953	0.06
825.249	0.05
825.544	0.06
825.839	0.06
826.134	0.06
826.429	0.06
826.724	0.06
827.019	0.05
827.314	0.06
827.609	0.06
827.904	0.06
828.198	0.07
828.493	0.06
828.787	0.06
829.082	0.06
829.376	0.06
829.671	0.06
829.965	0.07
830.259	0.07
830.553	0.06
830.847	0.07
831.141	0.06
831.435	0.07
831.729	0.06
832.023	0.07
832.317	0.07
832.61	0.06
832.904	0.07
833.197	0.06
833.491	0.06
833.784	0.06
834.077	0.06
834.371	0.06
834.664	0.06
834.957	0.06
835.25	0.08
835.543	0.07
835.836	0.07
836.129	0.06
836.421	0.07
836.714	0.07
837.007	0.07
837.299	0.07
837.592	0.07
837.884	0.07
838.177	0.07
838.469	0.08
838.761	0.07
839.053	0.07
839.345	0.07
839.637	0.07
839.929	0.07
840.221	0.07
840.513	0.06
840.805	0.08
841.096	0.07
841.388	0.07
841.68	0.07
841.971	0.06
842.262	0.07
842.554	0.07
842.845	0.07
843.136	0.08
843.427	0.08
843.718	0.07
844.009	0.07
844.3	0.07
844.591	0.07
844.882	0.07
845.173	0.07
845.463	0.09
845.754	0.07
846.044	0.07
846.335	0.07
846.625	0.07
846.915	0.07
847.206	0.08
847.496	0.07
847.786	0.07
848.076	0.08
848.366	0.07
848.656	0.07
848.945	0.07
849.235	0.07
849.525	0.08
849.814	0.07
850.104	0.07
850.393	0.08
850.683	0.09
850.972	0.08
851.261	0.08
851.551	0.08
851.84	0.08
852.129	0.08
852.418	0.07
852.707	0.08
852.995	0.08
853.284	0.08
853.573	0.08
853.862	0.07
854.15	0.08
854.439	0.08
854.727	0.1
855.015	0.08
855.304	0.08
855.592	0.07
855.88	0.08
856.168	0.08
856.456	0.08
856.744	0.08
857.032	0.07
857.32	0.09
857.607	0.09
857.895	0.08
858.183	0.09
858.47	0.09
858.757	0.09
859.045	0.08
859.332	0.09
859.619	0.08
859.907	0.09
860.194	0.09
860.481	0.1
860.768	0.07
861.054	0.09
861.341	0.08
861.628	0.08
861.915	0.09
862.201	0.09
862.488	0.08
862.774	0.08
863.061	0.09
863.347	0.09
863.633	0.09
863.919	0.06
864.205	0.08
864.491	0.08
864.777	0.09
865.063	0.09
865.349	0.09
865.635	0.1
865.92	0.07
866.206	0.08
866.492	0.05
866.777	0.08
867.062	0.07
867.348	0.06
867.633	0.12
867.918	0.1
868.203	0.1
868.488	0.08
868.773	0.1
869.058	0.12
869.343	0.13
869.628	0.09
869.912	0.07
870.197	0.12
870.482	0.1
870.766	0.1
871.05	0.09
871.335	0.08
871.619	0.05
871.903	0.03
872.187	0.1
872.471	0.07
872.755	0.12
873.039	0.09
873.323	0.05
873.607	0.06
873.89	0.05
874.174	0.02
874.458	0.09
874.741	0.09
875.024	0.11
875.308	0.04
875.591	0.1
875.874	0.06
876.157	0.04
876.44	0.1
876.723	0.06
877.006	0.06
877.289	0.1
877.572	0.17
877.854	0.08
878.137	0.08
878.42	0.04
878.702	0.03
878.984	0.01
879.267	0.06
879.549	0.07
879.831	0.09
880.113	0.06
880.395	0.14
880.677	0.03
880.959	0.04
