Data from Rubpy_BV_1800_EDTA_Buffered_Absorbance_16-45-08-690.txt Node
Date: Wed Jul 01 16:45:08 BST 2026
User: fpm-admin
Spectrometer: OFX00224
Trigger mode: 0
Integration Time (sec): 7.000000E-2
Scans to average: 3
Nonlinearity correction enabled: false
Boxcar width: 0
Storing dark spectrum: false
XAxis mode: Wavelengths
Number of Pixels in Spectrum: 2136
>>>>>Begin Spectral Data<<<<<
154.91	-0
155.289	0.41
155.669	0.21
156.048	-0
156.428	-0
156.807	0.17
157.186	-0
157.566	-0.26
157.945	-0.52
158.325	-0.15
158.704	-0.29
159.083	-0.17
159.462	-0.24
159.842	-0
160.221	-0
160.6	-0.81
160.979	-0
161.359	-0.36
161.738	-0.15
162.117	-0.1
162.496	0.09
162.875	-0.65
163.254	0.08
163.633	0.6
164.012	0.46
164.391	0.06
164.77	0.09
165.149	-0.85
165.528	-0
165.907	0.18
166.286	-0.48
166.665	-0
167.044	-0.15
167.423	-0.08
167.802	0.18
168.181	-1.34
168.559	-0
168.938	0.8
169.317	0.33
169.696	-1.38
170.074	0.7
170.453	0.26
170.832	-0
171.21	0.15
171.589	-0
171.968	0.45
172.346	-0.04
172.725	-0
173.103	0.48
173.482	0.2
173.861	0.3
174.239	-0.04
174.617	-0
174.996	1.32
175.374	-0.67
175.753	-0.22
176.131	-0
176.51	-0
176.888	1.34
177.266	-0
177.645	-0.05
178.023	0.46
178.401	-0.36
178.779	-0.05
179.158	-0.28
179.536	0.35
179.914	0.14
180.292	-0.09
180.67	0.36
181.048	-0
181.427	-0
181.805	-0
182.183	0.54
182.561	0.3
182.939	-0
183.317	-0.46
183.695	0.23
184.073	-0
184.451	-0
184.829	-0
185.206	-0.41
185.584	0.2
185.962	0.4
186.34	0.87
186.718	0.75
187.096	-0
187.473	-0
187.851	0.58
188.229	0.07
188.607	0.06
188.984	0.16
189.362	0.26
189.74	0.32
190.117	0.19
190.495	0.22
190.872	0.17
191.25	0.29
191.627	0.21
192.005	0.2
192.382	0.27
192.76	0.25
193.137	0.12
193.515	0.28
193.892	0.33
194.269	0.12
194.647	0.11
195.024	0.23
195.401	0.19
195.779	0.37
196.156	0.3
196.533	0.25
196.91	0.13
197.288	0.1
197.665	0.2
198.042	0.05
198.419	0.15
198.796	0.19
199.173	0.22
199.55	0.28
199.927	0.14
200.304	0.14
200.681	0.19
201.058	0.2
201.435	0.36
201.812	0.23
202.189	0.16
202.566	0.35
202.943	0.18
203.32	0.22
203.697	0.24
204.073	0.08
204.45	0.22
204.827	0.11
205.204	0.04
205.58	0.28
205.957	0.17
206.334	0.16
206.71	0.27
207.087	0.07
207.464	0.19
207.84	0.28
208.217	0.24
208.593	0.12
208.97	0.2
209.346	0.21
209.723	0.19
210.099	0.32
210.476	0.29
210.852	0.41
211.228	0.15
211.605	0.14
211.981	0.21
212.357	0.24
212.733	0.2
213.11	0.25
213.486	0.24
213.862	0.22
214.238	0.32
214.614	0.24
214.991	0.17
215.367	0.2
215.743	0.29
216.119	0.25
216.495	0.36
216.871	0.22
217.247	0.31
217.623	0.23
217.999	0.3
218.375	0.23
218.751	0.13
219.127	0.28
219.502	0.25
219.878	0.2
220.254	0.2
220.63	0.29
221.006	0.34
221.381	0.33
221.757	0.27
222.133	0.16
222.508	0.29
222.884	0.26
223.26	0.23
223.635	0.3
224.011	0.2
224.386	0.13
224.762	0.32
225.137	0.2
225.513	0.32
225.888	0.23
226.264	0.25
226.639	0.16
227.014	0.35
227.39	0.2
227.765	0.27
228.14	0.28
228.516	0.16
228.891	0.36
229.266	0.18
229.641	0.23
230.017	0.29
230.392	0.26
230.767	0.2
231.142	0.21
231.517	0.29
231.892	0.16
232.267	0.23
232.642	0.26
233.017	0.18
233.392	0.27
233.767	0.2
234.142	0.24
234.517	0.14
234.892	0.2
235.267	0.23
235.641	0.28
236.016	0.23
236.391	0.21
236.766	0.24
237.14	0.18
237.515	0.28
237.89	0.14
238.264	0.32
238.639	0.22
239.014	0.26
239.388	0.1
239.763	0.24
240.137	0.17
240.512	0.19
240.886	0.24
241.261	0.15
241.635	0.27
242.009	0.29
242.384	0.12
242.758	0.34
243.132	0.15
243.507	0.24
243.881	0.24
244.255	0.26
244.629	0.19
245.004	0.24
245.378	0.21
245.752	0.28
246.126	0.27
246.5	0.23
246.874	0.16
247.248	0.2
247.622	0.29
247.996	0.24
248.37	0.31
248.744	0.2
249.118	0.21
249.492	0.12
249.866	0.21
250.24	0.27
250.613	0.31
250.987	0.23
251.361	0.3
251.735	0.25
252.108	0.29
252.482	0.17
252.856	0.15
253.229	0.28
253.603	0.08
253.977	0.3
254.35	0.22
254.724	0.31
255.097	0.22
255.471	0.12
255.844	0.4
256.218	0.2
256.591	0.19
256.964	0.3
257.338	0.17
257.711	0.24
258.084	0.25
258.458	0.22
258.831	0.24
259.204	0.21
259.577	0.22
259.95	0.16
260.323	0.28
260.697	0.14
261.07	0.17
261.443	0.26
261.816	0.26
262.189	0.2
262.562	0.19
262.935	0.25
263.308	0.15
263.68	0.2
264.053	0.25
264.426	0.24
264.799	0.28
265.172	0.26
265.545	0.29
265.917	0.3
266.29	0.31
266.663	0.21
267.035	0.25
267.408	0.27
267.781	0.35
268.153	0.18
268.526	0.19
268.898	0.23
269.271	0.26
269.643	0.2
270.016	0.35
270.388	0.25
270.76	0.29
271.133	0.22
271.505	0.29
271.877	0.17
272.25	0.18
272.622	0.27
272.994	0.29
273.366	0.29
273.739	0.32
274.111	0.28
274.483	0.17
274.855	0.22
275.227	0.25
275.599	0.26
275.971	0.22
276.343	0.21
276.715	0.2
277.087	0.23
277.459	0.3
277.831	0.23
278.203	0.33
278.574	0.23
278.946	0.13
279.318	0.16
279.69	0.21
280.061	0.2
280.433	0.25
280.805	0.26
281.176	0.26
281.548	0.21
281.92	0.26
282.291	0.29
282.663	0.34
283.034	0.17
283.406	0.25
283.777	0.22
284.148	0.29
284.52	0.23
284.891	0.28
285.262	0.22
285.634	0.23
286.005	0.28
286.376	0.27
286.747	0.23
287.119	0.25
287.49	0.26
287.861	0.19
288.232	0.28
288.603	0.29
288.974	0.23
289.345	0.24
289.716	0.26
290.087	0.2
290.458	0.29
290.829	0.18
291.2	0.31
291.571	0.28
291.941	0.16
292.312	0.2
292.683	0.27
293.054	0.23
293.424	0.2
293.795	0.26
294.166	0.21
294.536	0.18
294.907	0.22
295.277	0.32
295.648	0.31
296.018	0.28
296.389	0.19
296.759	0.22
297.13	0.24
297.5	0.24
297.871	0.24
298.241	0.35
298.611	0.31
298.981	0.25
299.352	0.24
299.722	0.26
300.092	0.28
300.462	0.31
300.832	0.27
301.202	0.24
301.573	0.25
301.943	0.24
302.313	0.25
302.683	0.25
303.053	0.24
303.422	0.26
303.792	0.21
304.162	0.25
304.532	0.27
304.902	0.22
305.272	0.23
305.641	0.23
306.011	0.23
306.381	0.26
306.75	0.24
307.12	0.2
307.49	0.21
307.859	0.19
308.229	0.25
308.598	0.25
308.968	0.2
309.337	0.2
309.707	0.2
310.076	0.16
310.445	0.17
310.815	0.2
311.184	0.21
311.553	0.17
311.923	0.18
312.292	0.19
312.661	0.17
313.03	0.18
313.399	0.2
313.768	0.17
314.137	0.18
314.506	0.17
314.875	0.18
315.244	0.15
315.613	0.18
315.982	0.2
316.351	0.21
316.72	0.2
317.089	0.2
317.458	0.2
317.826	0.2
318.195	0.19
318.564	0.22
318.933	0.22
319.301	0.21
319.67	0.2
320.038	0.21
320.407	0.23
320.775	0.22
321.144	0.21
321.512	0.21
321.881	0.23
322.249	0.23
322.618	0.25
322.986	0.23
323.354	0.24
323.723	0.23
324.091	0.25
324.459	0.26
324.827	0.25
325.195	0.25
325.564	0.26
325.932	0.26
326.3	0.25
326.668	0.27
327.036	0.27
327.404	0.27
327.772	0.27
328.14	0.28
328.508	0.28
328.875	0.29
329.243	0.29
329.611	0.3
329.979	0.3
330.346	0.3
330.714	0.31
331.082	0.31
331.449	0.32
331.817	0.32
332.185	0.33
332.552	0.33
332.92	0.33
333.287	0.34
333.655	0.34
334.022	0.36
334.389	0.36
334.757	0.37
335.124	0.37
335.491	0.38
335.859	0.39
336.226	0.4
336.593	0.4
336.96	0.41
337.327	0.41
337.695	0.43
338.062	0.43
338.429	0.44
338.796	0.45
339.163	0.45
339.53	0.47
339.897	0.47
340.263	0.48
340.63	0.49
340.997	0.5
341.364	0.51
341.731	0.51
342.097	0.52
342.464	0.53
342.831	0.54
343.197	0.55
343.564	0.57
343.931	0.57
344.297	0.57
344.664	0.57
345.03	0.59
345.396	0.6
345.763	0.61
346.129	0.61
346.496	0.63
346.862	0.64
347.228	0.65
347.594	0.66
347.961	0.67
348.327	0.68
348.693	0.68
349.059	0.69
349.425	0.71
349.791	0.71
350.157	0.72
350.523	0.73
350.889	0.73
351.255	0.75
351.621	0.74
351.987	0.75
352.353	0.77
352.719	0.78
353.084	0.79
353.45	0.79
353.816	0.81
354.181	0.8
354.547	0.82
354.913	0.84
355.278	0.84
355.644	0.85
356.009	0.86
356.375	0.87
356.74	0.89
357.106	0.9
357.471	0.91
357.836	0.91
358.202	0.93
358.567	0.94
358.932	0.96
359.297	0.96
359.663	0.98
360.028	0.99
360.393	1
360.758	1.02
361.123	1.03
361.488	1.05
361.853	1.05
362.218	1.06
362.583	1.08
362.948	1.1
363.312	1.11
363.677	1.11
364.042	1.12
364.407	1.15
364.772	1.15
365.136	1.17
365.501	1.18
365.865	1.19
366.23	1.19
366.595	1.2
366.959	1.22
367.324	1.24
367.688	1.24
368.052	1.26
368.417	1.24
368.781	1.26
369.145	1.28
369.51	1.3
369.874	1.28
370.238	1.31
370.602	1.29
370.967	1.31
371.331	1.3
371.695	1.32
372.059	1.32
372.423	1.32
372.787	1.32
373.151	1.32
373.515	1.33
373.878	1.31
374.242	1.31
374.606	1.29
374.97	1.29
375.334	1.28
375.697	1.27
376.061	1.25
376.425	1.25
376.788	1.23
377.152	1.23
377.515	1.22
377.879	1.21
378.242	1.18
378.606	1.17
378.969	1.17
379.333	1.16
379.696	1.12
380.059	1.13
380.422	1.12
380.786	1.09
381.149	1.09
381.512	1.07
381.875	1.07
382.238	1.05
382.601	1.04
382.964	1.03
383.327	1.02
383.69	1.01
384.053	0.99
384.416	0.98
384.779	0.98
385.142	0.98
385.504	0.97
385.867	0.97
386.23	0.97
386.593	0.96
386.955	0.97
387.318	0.95
387.68	0.96
388.043	0.95
388.405	0.95
388.768	0.94
389.13	0.96
389.493	0.94
389.855	0.94
390.217	0.92
390.58	0.92
390.942	0.92
391.304	0.9
391.666	0.89
392.028	0.87
392.391	0.87
392.753	0.87
393.115	0.85
393.477	0.84
393.839	0.83
394.201	0.82
394.563	0.82
394.924	0.82
395.286	0.82
395.648	0.82
396.01	0.83
396.371	0.84
396.733	0.86
397.095	0.86
397.456	0.88
397.818	0.9
398.18	0.92
398.541	0.94
398.903	0.96
399.264	0.99
399.625	1
399.987	1.03
400.348	1.04
400.709	1.06
401.071	1.06
401.432	1.06
401.793	1.07
402.154	1.04
402.515	1.04
402.876	1.02
403.238	1
403.599	0.98
403.96	0.96
404.32	0.92
404.681	0.89
405.042	0.85
405.403	0.82
405.764	0.77
406.125	0.73
406.485	0.7
406.846	0.67
407.207	0.62
407.567	0.6
407.928	0.57
408.288	0.53
408.649	0.5
409.009	0.47
409.37	0.44
409.73	0.42
410.091	0.4
410.451	0.38
410.811	0.35
411.171	0.34
411.532	0.32
411.892	0.31
412.252	0.3
412.612	0.29
412.972	0.27
413.332	0.26
413.692	0.25
414.052	0.24
414.412	0.23
414.772	0.22
415.132	0.21
415.492	0.2
415.851	0.19
416.211	0.19
416.571	0.19
416.931	0.18
417.29	0.17
417.65	0.18
418.009	0.17
418.369	0.17
418.728	0.16
419.088	0.15
419.447	0.15
419.807	0.14
420.166	0.15
420.525	0.14
420.884	0.14
421.244	0.13
421.603	0.13
421.962	0.12
422.321	0.13
422.68	0.13
423.039	0.12
423.398	0.12
423.757	0.12
424.116	0.12
424.475	0.11
424.834	0.12
425.193	0.12
425.551	0.11
425.91	0.11
426.269	0.11
426.628	0.11
426.986	0.11
427.345	0.1
427.703	0.1
428.062	0.1
428.42	0.11
428.779	0.1
429.137	0.11
429.496	0.1
429.854	0.1
430.212	0.1
430.57	0.1
430.929	0.09
431.287	0.1
431.645	0.1
432.003	0.1
432.361	0.09
432.719	0.1
433.077	0.1
433.435	0.1
433.793	0.1
434.151	0.09
434.509	0.1
434.866	0.1
435.224	0.09
435.582	0.1
435.94	0.09
436.297	0.1
436.655	0.09
437.012	0.09
437.37	0.1
437.727	0.09
438.085	0.1
438.442	0.1
438.8	0.1
439.157	0.09
439.514	0.09
439.872	0.09
440.229	0.09
440.586	0.09
440.943	0.09
441.3	0.1
441.657	0.1
442.014	0.1
442.371	0.09
442.728	0.09
443.085	0.1
443.442	0.08
443.799	0.09
444.156	0.1
444.513	0.1
444.869	0.08
445.226	0.1
445.583	0.1
445.939	0.1
446.296	0.08
446.652	0.09
447.009	0.09
447.365	0.09
447.722	0.1
448.078	0.09
448.434	0.09
448.791	0.09
449.147	0.09
449.503	0.08
449.859	0.1
450.215	0.09
450.571	0.09
450.928	0.09
451.284	0.09
451.64	0.09
451.995	0.09
452.351	0.09
452.707	0.09
453.063	0.09
453.419	0.08
453.775	0.08
454.13	0.08
454.486	0.08
454.842	0.08
455.197	0.08
455.553	0.07
455.908	0.07
456.264	0.07
456.619	0.07
456.975	0.07
457.33	0.07
457.685	0.07
458.04	0.06
458.396	0.06
458.751	0.05
459.106	0.05
459.461	0.05
459.816	0.05
460.171	0.04
460.526	0.05
460.881	0.04
461.236	0.03
461.591	0.03
461.946	0.03
462.301	0.03
462.655	0.03
463.01	0.02
463.365	0.01
463.719	0.02
464.074	0
464.428	-0
464.783	-0
465.137	0
465.492	-0
465.846	0
466.201	-0
466.555	0
466.909	0
467.263	0.01
467.618	0.01
467.972	0.01
468.326	0.01
468.68	0
469.034	0
469.388	-0
469.742	0
470.096	0.01
470.45	0.01
470.804	0.01
471.157	0.01
471.511	0.01
471.865	0.01
472.218	0.02
472.572	0.02
472.926	0.02
473.279	0.03
473.633	0.04
473.986	0.05
474.34	0.05
474.693	0.06
475.046	0.07
475.4	0.08
475.753	0.09
476.106	0.09
476.459	0.1
476.812	0.11
477.165	0.11
477.519	0.12
477.872	0.13
478.224	0.13
478.577	0.14
478.93	0.15
479.283	0.15
479.636	0.15
479.989	0.16
480.341	0.16
480.694	0.17
481.047	0.18
481.399	0.18
481.752	0.19
482.104	0.19
482.457	0.2
482.809	0.2
483.162	0.2
483.514	0.21
483.866	0.21
484.219	0.22
484.571	0.22
484.923	0.22
485.275	0.23
485.627	0.22
485.979	0.24
486.331	0.24
486.683	0.24
487.035	0.25
487.387	0.25
487.739	0.26
488.091	0.27
488.443	0.26
488.794	0.26
489.146	0.27
489.498	0.28
489.849	0.28
490.201	0.28
490.552	0.28
490.904	0.28
491.255	0.29
491.607	0.29
491.958	0.29
492.309	0.29
492.661	0.3
493.012	0.3
493.363	0.31
493.714	0.3
494.065	0.31
494.416	0.32
494.767	0.32
495.118	0.32
495.469	0.33
495.82	0.33
496.171	0.33
496.522	0.33
496.872	0.34
497.223	0.34
497.574	0.34
497.924	0.35
498.275	0.35
498.626	0.35
498.976	0.35
499.327	0.36
499.677	0.36
500.027	0.36
500.378	0.37
500.728	0.37
501.078	0.37
501.428	0.38
501.779	0.38
502.129	0.38
502.479	0.38
502.829	0.39
503.179	0.39
503.529	0.39
503.879	0.39
504.229	0.4
504.578	0.4
504.928	0.4
505.278	0.4
505.628	0.41
505.977	0.42
506.327	0.42
506.676	0.42
507.026	0.42
507.375	0.42
507.725	0.42
508.074	0.42
508.424	0.43
508.773	0.43
509.122	0.44
509.471	0.44
509.82	0.44
510.17	0.44
510.519	0.45
510.868	0.44
511.217	0.45
511.566	0.45
511.915	0.46
512.263	0.46
512.612	0.46
512.961	0.46
513.31	0.46
513.659	0.46
514.007	0.47
514.356	0.48
514.704	0.47
515.053	0.48
515.401	0.47
515.75	0.47
516.098	0.49
516.447	0.49
516.795	0.49
517.143	0.49
517.491	0.49
517.839	0.49
518.188	0.5
518.536	0.5
518.884	0.5
519.232	0.5
519.58	0.5
519.928	0.5
520.275	0.51
520.623	0.51
520.971	0.51
521.319	0.52
521.666	0.52
522.014	0.51
522.362	0.52
522.709	0.52
523.057	0.53
523.404	0.53
523.752	0.53
524.099	0.53
524.446	0.53
524.794	0.53
525.141	0.53
525.488	0.54
525.835	0.54
526.182	0.54
526.529	0.54
526.876	0.53
527.223	0.55
527.57	0.55
527.917	0.55
528.264	0.55
528.611	0.55
528.958	0.55
529.304	0.55
529.651	0.56
529.998	0.56
530.344	0.56
530.691	0.56
531.037	0.56
531.384	0.56
531.73	0.56
532.076	0.57
532.423	0.57
532.769	0.57
533.115	0.57
533.461	0.57
533.807	0.57
534.154	0.57
534.5	0.58
534.846	0.58
535.192	0.57
535.537	0.58
535.883	0.58
536.229	0.58
536.575	0.58
536.921	0.59
537.266	0.58
537.612	0.58
537.957	0.58
538.303	0.59
538.649	0.59
538.994	0.59
539.339	0.59
539.685	0.59
540.03	0.6
540.375	0.59
540.721	0.6
541.066	0.6
541.411	0.6
541.756	0.6
542.101	0.6
542.446	0.59
542.791	0.6
543.136	0.6
543.481	0.6
543.825	0.6
544.17	0.61
544.515	0.61
544.86	0.61
545.204	0.61
545.549	0.61
545.893	0.62
546.238	0.61
546.582	0.61
546.927	0.61
547.271	0.61
547.615	0.61
547.96	0.62
548.304	0.61
548.648	0.62
548.992	0.61
549.336	0.61
549.68	0.61
550.024	0.62
550.368	0.62
550.712	0.62
551.056	0.62
551.4	0.61
551.743	0.62
552.087	0.61
552.431	0.61
552.774	0.62
553.118	0.61
553.462	0.61
553.805	0.62
554.148	0.61
554.492	0.62
554.835	0.62
555.178	0.61
555.522	0.62
555.865	0.62
556.208	0.61
556.551	0.61
556.894	0.62
557.237	0.61
557.58	0.62
557.923	0.61
558.266	0.61
558.609	0.62
558.952	0.61
559.294	0.62
559.637	0.62
559.98	0.62
560.322	0.61
560.665	0.61
561.007	0.61
561.35	0.6
561.692	0.61
562.034	0.61
562.377	0.61
562.719	0.6
563.061	0.61
563.403	0.61
563.745	0.61
564.088	0.6
564.43	0.61
564.772	0.61
565.113	0.61
565.455	0.61
565.797	0.6
566.139	0.6
566.481	0.61
566.822	0.6
567.164	0.61
567.506	0.6
567.847	0.6
568.189	0.59
568.53	0.6
568.872	0.6
569.213	0.6
569.554	0.6
569.895	0.59
570.237	0.59
570.578	0.59
570.919	0.59
571.26	0.59
571.601	0.59
571.942	0.59
572.283	0.58
572.624	0.58
572.965	0.58
573.306	0.58
573.646	0.58
573.987	0.58
574.328	0.58
574.668	0.58
575.009	0.57
575.349	0.57
575.69	0.57
576.03	0.57
576.37	0.57
576.711	0.56
577.051	0.57
577.391	0.57
577.731	0.57
578.072	0.57
578.412	0.56
578.752	0.56
579.092	0.56
579.431	0.55
579.771	0.54
580.111	0.53
580.451	0.55
580.791	0.56
581.13	0.56
581.47	0.56
581.81	0.55
582.149	0.55
582.489	0.55
582.828	0.54
583.167	0.52
583.507	0.49
583.846	0.49
584.185	0.53
584.525	0.54
584.864	0.54
585.203	0.55
585.542	0.55
585.881	0.55
586.22	0.55
586.559	0.54
586.898	0.53
587.236	0.53
587.575	0.54
587.914	0.54
588.252	0.55
588.591	0.55
588.93	0.54
589.268	0.54
589.607	0.54
589.945	0.54
590.283	0.54
590.622	0.54
590.96	0.55
591.298	0.55
591.636	0.54
591.974	0.55
592.313	0.54
592.651	0.55
592.989	0.54
593.326	0.54
593.664	0.54
594.002	0.54
594.34	0.54
594.678	0.54
595.015	0.53
595.353	0.53
595.691	0.54
596.028	0.54
596.366	0.54
596.703	0.54
597.04	0.54
597.378	0.55
597.715	0.54
598.052	0.55
598.389	0.54
598.726	0.54
599.064	0.54
599.401	0.54
599.738	0.54
600.074	0.54
600.411	0.54
600.748	0.54
601.085	0.53
601.422	0.53
601.758	0.53
602.095	0.53
602.432	0.53
602.768	0.54
603.105	0.54
603.441	0.54
603.777	0.54
604.114	0.54
604.45	0.53
604.786	0.53
605.122	0.53
605.459	0.53
605.795	0.53
606.131	0.53
606.467	0.53
606.803	0.53
607.139	0.53
607.474	0.52
607.81	0.52
608.146	0.52
608.482	0.52
608.817	0.51
609.153	0.51
609.488	0.51
609.824	0.51
610.159	0.52
610.495	0.51
610.83	0.51
611.165	0.51
611.5	0.51
611.836	0.51
612.171	0.51
612.506	0.5
612.841	0.51
613.176	0.5
613.511	0.5
613.845	0.5
614.18	0.49
614.515	0.5
614.85	0.49
615.184	0.49
615.519	0.49
615.854	0.49
616.188	0.48
616.523	0.48
616.857	0.48
617.191	0.48
617.526	0.48
617.86	0.48
618.194	0.48
618.528	0.48
618.862	0.48
619.196	0.47
619.53	0.47
619.864	0.47
620.198	0.47
620.532	0.47
620.866	0.47
621.2	0.46
621.533	0.46
621.867	0.46
622.201	0.46
622.534	0.46
622.868	0.46
623.201	0.45
623.534	0.45
623.868	0.45
624.201	0.44
624.534	0.44
624.868	0.44
625.201	0.44
625.534	0.44
625.867	0.44
626.2	0.43
626.533	0.44
626.865	0.43
627.198	0.43
627.531	0.43
627.864	0.43
628.196	0.43
628.529	0.42
628.862	0.42
629.194	0.42
629.527	0.41
629.859	0.41
630.191	0.41
630.524	0.41
630.856	0.41
631.188	0.4
631.52	0.4
631.852	0.4
632.184	0.4
632.516	0.39
632.848	0.39
633.18	0.39
633.512	0.39
633.844	0.38
634.175	0.38
634.507	0.38
634.839	0.38
635.17	0.38
635.502	0.37
635.833	0.37
636.165	0.37
636.496	0.37
636.827	0.36
637.159	0.36
637.49	0.36
637.821	0.36
638.152	0.35
638.483	0.35
638.814	0.35
639.145	0.34
639.476	0.34
639.807	0.34
640.137	0.34
640.468	0.34
640.799	0.34
641.129	0.33
641.46	0.33
641.791	0.33
642.121	0.33
642.451	0.33
642.782	0.32
643.112	0.32
643.442	0.32
643.773	0.32
644.103	0.32
644.433	0.32
644.763	0.31
645.093	0.31
645.423	0.31
645.753	0.31
646.082	0.31
646.412	0.31
646.742	0.31
647.072	0.3
647.401	0.3
647.731	0.3
648.06	0.3
648.39	0.3
648.719	0.3
649.048	0.3
649.378	0.29
649.707	0.29
650.036	0.29
650.365	0.29
650.694	0.28
651.023	0.29
651.352	0.29
651.681	0.29
652.01	0.29
652.339	0.28
652.668	0.28
652.996	0.28
653.325	0.28
653.654	0.28
653.982	0.28
654.311	0.28
654.639	0.28
654.967	0.27
655.296	0.28
655.624	0.28
655.952	0.28
656.28	0.27
656.609	0.27
656.937	0.28
657.265	0.26
657.593	0.12
657.92	0.04
658.248	0.02
658.576	0.09
658.904	0.21
659.231	0.26
659.559	0.27
659.887	0.27
660.214	0.26
660.542	0.26
660.869	0.26
661.196	0.26
661.524	0.26
661.851	0.26
662.178	0.26
662.505	0.26
662.832	0.26
663.159	0.26
663.486	0.25
663.813	0.25
664.14	0.25
664.467	0.25
664.794	0.25
665.12	0.25
665.447	0.25
665.774	0.24
666.1	0.25
666.427	0.24
666.753	0.24
667.079	0.24
667.406	0.24
667.732	0.24
668.058	0.24
668.384	0.24
668.71	0.23
669.036	0.24
669.362	0.24
669.688	0.23
670.014	0.23
670.34	0.23
670.666	0.23
670.991	0.23
671.317	0.22
671.643	0.22
671.968	0.22
672.294	0.22
672.619	0.22
672.945	0.22
673.27	0.21
673.595	0.21
673.92	0.21
674.246	0.21
674.571	0.21
674.896	0.21
675.221	0.21
675.546	0.21
675.87	0.2
676.195	0.2
676.52	0.2
676.845	0.2
677.169	0.2
677.494	0.19
677.819	0.19
678.143	0.19
678.468	0.19
678.792	0.19
679.116	0.18
679.44	0.18
679.765	0.18
680.089	0.18
680.413	0.17
680.737	0.17
681.061	0.17
681.385	0.17
681.709	0.17
682.033	0.17
682.356	0.17
682.68	0.17
683.004	0.17
683.327	0.16
683.651	0.16
683.974	0.16
684.298	0.16
684.621	0.16
684.944	0.15
685.268	0.15
685.591	0.15
685.914	0.15
686.237	0.14
686.56	0.14
686.883	0.14
687.206	0.14
687.529	0.14
687.852	0.14
688.175	0.14
688.497	0.14
688.82	0.14
689.142	0.13
689.465	0.13
689.787	0.13
690.11	0.13
690.432	0.13
690.755	0.13
691.077	0.12
691.399	0.12
691.721	0.12
692.043	0.12
692.365	0.12
692.687	0.12
693.009	0.11
693.331	0.11
693.653	0.11
693.974	0.11
694.296	0.11
694.618	0.11
694.939	0.11
695.261	0.11
695.582	0.1
695.904	0.1
696.225	0.1
696.546	0.1
696.868	0.1
697.189	0.1
697.51	0.1
697.831	0.1
698.152	0.1
698.473	0.1
698.794	0.09
699.114	0.09
699.435	0.09
699.756	0.09
700.077	0.09
700.397	0.09
700.718	0.09
701.038	0.09
701.359	0.09
701.679	0.09
701.999	0.09
702.32	0.09
702.64	0.09
702.96	0.09
703.28	0.09
703.6	0.09
703.92	0.09
704.24	0.08
704.56	0.08
704.879	0.08
705.199	0.08
705.519	0.08
705.838	0.08
706.158	0.08
706.478	0.08
706.797	0.08
707.116	0.08
707.436	0.08
707.755	0.08
708.074	0.08
708.393	0.08
708.712	0.07
709.031	0.07
709.35	0.07
709.669	0.07
709.988	0.07
710.307	0.07
710.626	0.07
710.944	0.08
711.263	0.08
711.582	0.08
711.9	0.08
712.219	0.08
712.537	0.07
712.855	0.08
713.174	0.08
713.492	0.08
713.81	0.08
714.128	0.08
714.446	0.08
714.764	0.07
715.082	0.07
715.4	0.08
715.718	0.07
716.035	0.07
716.353	0.08
716.671	0.08
716.988	0.08
717.306	0.08
717.623	0.08
717.941	0.08
718.258	0.08
718.575	0.08
718.893	0.08
719.21	0.08
719.527	0.08
719.844	0.08
720.161	0.08
720.478	0.08
720.795	0.08
721.112	0.08
721.428	0.08
721.745	0.08
722.062	0.08
722.378	0.08
722.695	0.08
723.011	0.08
723.328	0.08
723.644	0.08
723.96	0.08
724.276	0.08
724.593	0.08
724.909	0.08
725.225	0.08
725.541	0.08
725.857	0.08
726.173	0.09
726.488	0.09
726.804	0.08
727.12	0.08
727.435	0.08
727.751	0.08
728.067	0.08
728.382	0.08
728.697	0.08
729.013	0.08
729.328	0.08
729.643	0.08
729.958	0.08
730.273	0.08
730.588	0.08
730.903	0.08
731.218	0.08
731.533	0.08
731.848	0.08
732.163	0.08
732.477	0.08
732.792	0.08
733.107	0.07
733.421	0.08
733.736	0.08
734.05	0.08
734.364	0.08
734.678	0.08
734.993	0.08
735.307	0.08
735.621	0.08
735.935	0.08
736.249	0.08
736.563	0.08
736.877	0.08
737.19	0.08
737.504	0.08
737.818	0.08
738.131	0.08
738.445	0.08
738.758	0.08
739.072	0.08
739.385	0.08
739.698	0.08
740.012	0.08
740.325	0.07
740.638	0.07
740.951	0.07
741.264	0.07
741.577	0.07
741.89	0.07
742.203	0.07
742.515	0.07
742.828	0.07
743.141	0.07
743.453	0.07
743.766	0.07
744.078	0.07
744.391	0.07
744.703	0.06
745.015	0.06
745.327	0.06
745.639	0.06
745.952	0.07
746.264	0.07
746.575	0.06
746.887	0.06
747.199	0.06
747.511	0.06
747.823	0.06
748.134	0.06
748.446	0.06
748.757	0.06
749.069	0.06
749.38	0.06
749.692	0.06
750.003	0.06
750.314	0.06
750.625	0.06
750.936	0.05
751.248	0.05
751.559	0.05
751.869	0.05
752.18	0.05
752.491	0.05
752.802	0.05
753.112	0.05
753.423	0.05
753.734	0.05
754.044	0.05
754.355	0.05
754.665	0.05
754.975	0.05
755.285	0.05
755.596	0.05
755.906	0.05
756.216	0.05
756.526	0.05
756.836	0.04
757.146	0.04
757.455	0.04
757.765	0.04
758.075	0.04
758.385	0.04
758.694	0.04
759.004	0.04
759.313	0.04
759.622	0.04
759.932	0.04
760.241	0.04
760.55	0.04
760.859	0.04
761.168	0.04
761.477	0.04
761.786	0.04
762.095	0.04
762.404	0.04
762.713	0.04
763.021	0.04
763.33	0.04
763.639	0.04
763.947	0.04
764.256	0.04
764.564	0.04
764.872	0.04
765.181	0.04
765.489	0.04
765.797	0.04
766.105	0.04
766.413	0.04
766.721	0.04
767.029	0.04
767.337	0.04
767.644	0.04
767.952	0.04
768.26	0.04
768.567	0.04
768.875	0.04
769.182	0.04
769.49	0.04
769.797	0.03
770.104	0.04
770.411	0.04
770.718	0.03
771.026	0.04
771.333	0.04
771.639	0.04
771.946	0.04
772.253	0.04
772.56	0.04
772.867	0.04
773.173	0.04
773.48	0.04
773.786	0.04
774.093	0.04
774.399	0.04
774.705	0.04
775.012	0.04
775.318	0.04
775.624	0.03
775.93	0.04
776.236	0.03
776.542	0.04
776.848	0.04
777.154	0.03
777.459	0.04
777.765	0.03
778.071	0.04
778.376	0.04
778.682	0.04
778.987	0.04
779.292	0.04
779.598	0.03
779.903	0.04
780.208	0.03
780.513	0.04
780.818	0.04
781.123	0.04
781.428	0.04
781.733	0.04
782.038	0.04
782.343	0.04
782.647	0.04
782.952	0.04
783.256	0.04
783.561	0.04
783.865	0.04
784.17	0.04
784.474	0.04
784.778	0.04
785.082	0.04
785.386	0.04
785.69	0.04
785.994	0.04
786.298	0.04
786.602	0.04
786.906	0.04
787.209	0.04
787.513	0.04
787.817	0.04
788.12	0.04
788.424	0.04
788.727	0.04
789.03	0.04
789.333	0.04
789.637	0.04
789.94	0.04
790.243	0.04
790.546	0.04
790.849	0.04
791.152	0.04
791.454	0.04
791.757	0.04
792.06	0.04
792.362	0.04
792.665	0.04
792.967	0.04
793.27	0.04
793.572	0.04
793.874	0.04
794.177	0.04
794.479	0.04
794.781	0.04
795.083	0.04
795.385	0.04
795.687	0.04
795.989	0.04
796.29	0.05
796.592	0.04
796.894	0.04
797.195	0.05
797.497	0.05
797.798	0.05
798.1	0.05
798.401	0.04
798.702	0.05
799.003	0.04
799.304	0.05
799.605	0.04
799.906	0.05
800.207	0.04
800.508	0.04
800.809	0.05
801.11	0.04
801.41	0.05
801.711	0.05
802.011	0.05
802.312	0.05
802.612	0.04
802.913	0.05
803.213	0.05
803.513	0.05
803.813	0.05
804.113	0.05
804.413	0.05
804.713	0.05
805.013	0.05
805.313	0.05
805.613	0.05
805.912	0.05
806.212	0.05
806.511	0.05
806.811	0.05
807.11	0.05
807.41	0.05
807.709	0.05
808.008	0.05
808.307	0.05
808.606	0.05
808.905	0.05
809.204	0.05
809.503	0.05
809.802	0.05
810.101	0.05
810.399	0.05
810.698	0.05
810.997	0.05
811.295	0.05
811.593	0.05
811.892	0.05
812.19	0.06
812.488	0.06
812.786	0.06
813.084	0.06
813.383	0.06
813.68	0.06
813.978	0.06
814.276	0.06
814.574	0.06
814.872	0.06
815.169	0.06
815.467	0.06
815.764	0.06
816.062	0.06
816.359	0.06
816.656	0.06
816.954	0.06
817.251	0.06
817.548	0.06
817.845	0.06
818.142	0.06
818.439	0.06
818.735	0.06
819.032	0.06
819.329	0.06
819.626	0.06
819.922	0.06
820.219	0.06
820.515	0.06
820.811	0.06
821.108	0.06
821.404	0.06
821.7	0.06
821.996	0.06
822.292	0.06
822.588	0.06
822.884	0.06
823.18	0.06
823.475	0.06
823.771	0.06
824.067	0.06
824.362	0.06
824.658	0.06
824.953	0.07
825.249	0.07
825.544	0.07
825.839	0.06
826.134	0.07
826.429	0.06
826.724	0.07
827.019	0.06
827.314	0.06
827.609	0.06
827.904	0.07
828.198	0.07
828.493	0.07
828.787	0.07
829.082	0.07
829.376	0.06
829.671	0.07
829.965	0.07
830.259	0.07
830.553	0.07
830.847	0.08
831.141	0.08
831.435	0.07
831.729	0.07
832.023	0.08
832.317	0.07
832.61	0.07
832.904	0.07
833.197	0.07
833.491	0.07
833.784	0.07
834.077	0.07
834.371	0.07
834.664	0.07
834.957	0.07
835.25	0.07
835.543	0.07
835.836	0.07
836.129	0.07
836.421	0.07
836.714	0.07
837.007	0.07
837.299	0.08
837.592	0.08
837.884	0.08
838.177	0.08
838.469	0.08
838.761	0.07
839.053	0.07
839.345	0.08
839.637	0.08
839.929	0.08
840.221	0.08
840.513	0.08
840.805	0.07
841.096	0.07
841.388	0.08
841.68	0.08
841.971	0.07
842.262	0.08
842.554	0.08
842.845	0.08
843.136	0.09
843.427	0.08
843.718	0.07
844.009	0.09
844.3	0.08
844.591	0.08
844.882	0.08
845.173	0.08
845.463	0.09
845.754	0.08
846.044	0.08
846.335	0.07
846.625	0.08
846.915	0.08
847.206	0.09
847.496	0.07
847.786	0.09
848.076	0.08
848.366	0.08
848.656	0.08
848.945	0.08
849.235	0.07
849.525	0.09
849.814	0.08
850.104	0.07
850.393	0.08
850.683	0.09
850.972	0.08
851.261	0.09
851.551	0.09
851.84	0.08
852.129	0.09
852.418	0.08
852.707	0.09
852.995	0.08
853.284	0.08
853.573	0.08
853.862	0.08
854.15	0.09
854.439	0.09
854.727	0.1
855.015	0.09
855.304	0.09
855.592	0.08
855.88	0.09
856.168	0.09
856.456	0.09
856.744	0.09
857.032	0.09
857.32	0.09
857.607	0.1
857.895	0.09
858.183	0.1
858.47	0.11
858.757	0.08
859.045	0.1
859.332	0.09
859.619	0.09
859.907	0.09
860.194	0.1
860.481	0.1
860.768	0.08
861.054	0.1
861.341	0.08
861.628	0.1
861.915	0.11
862.201	0.09
862.488	0.08
862.774	0.07
863.061	0.1
863.347	0.1
863.633	0.1
863.919	0.08
864.205	0.1
864.491	0.08
864.777	0.1
865.063	0.1
865.349	0.08
865.635	0.09
865.92	0.08
866.206	0.09
866.492	0.06
866.777	0.09
867.062	0.08
867.348	0.07
867.633	0.09
867.918	0.11
868.203	0.11
868.488	0.1
868.773	0.11
869.058	0.09
869.343	0.09
869.628	0.07
869.912	0.08
870.197	0.09
870.482	0.14
870.766	0.09
871.05	0.09
871.335	0.11
871.619	0.04
871.903	0.05
872.187	0.1
872.471	0.1
872.755	0.15
873.039	0.05
873.323	0.06
873.607	0.07
873.89	0.09
874.174	0.06
874.458	0.08
874.741	0.07
875.024	0.05
875.308	0.05
875.591	0.11
875.874	0.12
876.157	0.12
876.44	0.02
876.723	-0
877.006	0.07
877.289	0.08
877.572	0.19
877.854	0.07
878.137	0.11
878.42	0.09
878.702	0.06
878.984	-0.01
879.267	0.06
879.549	0.11
879.831	0.08
880.113	0.07
880.395	0.09
880.677	0.07
880.959	0.01
