Data from Rubpy_BV_1800_EDTA_Buffered_Absorbance_16-41-14-660.txt Node
Date: Wed Jul 01 16:41:14 BST 2026
User: fpm-admin
Spectrometer: OFX00224
Trigger mode: 0
Integration Time (sec): 7.000000E-2
Scans to average: 3
Nonlinearity correction enabled: false
Boxcar width: 0
Storing dark spectrum: false
XAxis mode: Wavelengths
Number of Pixels in Spectrum: 2136
>>>>>Begin Spectral Data<<<<<
154.91	0.51
155.289	-0.43
155.669	0.13
156.048	-0.39
156.428	-0
156.807	0.14
157.186	-0
157.566	0.02
157.945	-0
158.325	0.17
158.704	-0.39
159.083	0.08
159.462	-0
159.842	-0
160.221	-0
160.6	-0
160.979	-0
161.359	-0.42
161.738	-0
162.117	-0.35
162.496	-0.22
162.875	0.24
163.254	-0.1
163.633	-0
164.012	-0.2
164.391	0.69
164.77	0.35
165.149	-0.85
165.528	-0
165.907	-0
166.286	-0
166.665	-0.08
167.044	0.98
167.423	0.52
167.802	-0
168.181	-0.9
168.559	-0.73
168.938	0.4
169.317	-0
169.696	-1.45
170.074	-0.36
170.453	-0.64
170.832	-0
171.21	0.06
171.589	-0
171.968	0.3
172.346	-0.08
172.725	-0
173.103	-0
173.482	0.64
173.861	-0.04
174.239	-0.23
174.617	0.9
174.996	-0.18
175.374	-0.37
175.753	-0.18
176.131	-0
176.51	-0.65
176.888	-0
177.266	-0
177.645	-0.06
178.023	-0
178.401	-0.23
178.779	0.01
179.158	-0.12
179.536	0.49
179.914	-0
180.292	-0.24
180.67	0.03
181.048	0.16
181.427	-0
181.805	-0.34
182.183	-0.43
182.561	-0
182.939	-0
183.317	-0.62
183.695	0.73
184.073	-0
184.451	-0.7
184.829	0.57
185.206	-0.16
185.584	-0
185.962	-0.37
186.34	0.26
186.718	0.36
187.096	-0
187.473	-0
187.851	-0
188.229	0.02
188.607	0.04
188.984	0.07
189.362	0.04
189.74	0.21
190.117	0.03
190.495	0.09
190.872	0.05
191.25	0.04
191.627	0.21
192.005	0.14
192.382	0.08
192.76	0.08
193.137	0.08
193.515	0.15
193.892	0.22
194.269	0.07
194.647	0.01
195.024	0.05
195.401	0.2
195.779	0.06
196.156	0.17
196.533	0.09
196.91	0.07
197.288	0.14
197.665	0.09
198.042	0.04
198.419	0.1
198.796	0.05
199.173	0.12
199.55	0.17
199.927	-0.01
200.304	0.09
200.681	0.07
201.058	0.05
201.435	0.16
201.812	0.03
202.189	0.08
202.566	0.14
202.943	-0.03
203.32	0.21
203.697	-0.01
204.073	0.04
204.45	0.13
204.827	0
205.204	0.09
205.58	0.22
205.957	0.17
206.334	0.04
206.71	0.14
207.087	0.11
207.464	0.09
207.84	0.13
208.217	0.18
208.593	0.01
208.97	0.2
209.346	0.14
209.723	0.06
210.099	0.16
210.476	0.16
210.852	0.22
211.228	0.11
211.605	0.19
211.981	0.08
212.357	0.18
212.733	0.05
213.11	0.12
213.486	0.1
213.862	0.07
214.238	0.23
214.614	0.15
214.991	0.05
215.367	0.11
215.743	0.13
216.119	0.04
216.495	0.12
216.871	0.1
217.247	0.15
217.623	0.13
217.999	0.2
218.375	0.15
218.751	-0
219.127	0.1
219.502	0.03
219.878	0.05
220.254	0.18
220.63	0.05
221.006	0.09
221.381	0.09
221.757	0.17
222.133	0.05
222.508	0.22
222.884	0.06
223.26	0.07
223.635	0.09
224.011	0.17
224.386	0.18
224.762	0.23
225.137	0.16
225.513	0.08
225.888	0.13
226.264	-0.01
226.639	0.07
227.014	0.25
227.39	0.05
227.765	0.11
228.14	0.19
228.516	0.08
228.891	0.05
229.266	0.02
229.641	0.09
230.017	0.17
230.392	0.07
230.767	0.09
231.142	0.14
231.517	0.17
231.892	0.09
232.267	0.1
232.642	0.12
233.017	0.07
233.392	0.12
233.767	0.08
234.142	0
234.517	-0
234.892	0.16
235.267	0.12
235.641	0.14
236.016	0.07
236.391	0.12
236.766	0.15
237.14	0.1
237.515	0.18
237.89	0.08
238.264	0.12
238.639	0.02
239.014	0.23
239.388	0.01
239.763	0.05
240.137	0.01
240.512	-0.01
240.886	0.08
241.261	0
241.635	0.08
242.009	0.13
242.384	0.09
242.758	0.15
243.132	0.08
243.507	0.14
243.881	0.23
244.255	0.12
244.629	0.07
245.004	0.09
245.378	0.08
245.752	0.11
246.126	0.13
246.5	0.14
246.874	0.09
247.248	0.1
247.622	0.11
247.996	0.12
248.37	0.12
248.744	0.09
249.118	-0.05
249.492	0.11
249.866	0.16
250.24	0.21
250.613	0.22
250.987	0.22
251.361	0.11
251.735	0.16
252.108	0.21
252.482	0.06
252.856	-0.01
253.229	0.09
253.603	0.1
253.977	0.14
254.35	0.11
254.724	0.14
255.097	0.1
255.471	0.11
255.844	0.06
256.218	0.08
256.591	0.1
256.964	0.19
257.338	0.12
257.711	0.08
258.084	0.09
258.458	0.09
258.831	0.13
259.204	0.14
259.577	0.1
259.95	0.09
260.323	0.07
260.697	0.08
261.07	0.09
261.443	0.07
261.816	0.07
262.189	0.06
262.562	0.14
262.935	0.06
263.308	-0.01
263.68	0.19
264.053	0.1
264.426	0.11
264.799	0.07
265.172	0.12
265.545	0.1
265.917	0.15
266.29	0.15
266.663	0.13
267.035	0.11
267.408	0.12
267.781	0.09
268.153	0.09
268.526	0.05
268.898	0.12
269.271	0.12
269.643	0.06
270.016	0.12
270.388	-0
270.76	0.09
271.133	0.09
271.505	0.12
271.877	0.01
272.25	0.08
272.622	0.09
272.994	0.07
273.366	0.14
273.739	0.1
274.111	0.14
274.483	0.02
274.855	0.09
275.227	0.22
275.599	0.09
275.971	0.06
276.343	0.1
276.715	0.1
277.087	0.14
277.459	0.13
277.831	0.05
278.203	0.12
278.574	0.1
278.946	0.05
279.318	0.08
279.69	0.09
280.061	0.09
280.433	-0.02
280.805	0.13
281.176	0.09
281.548	0.07
281.92	0.13
282.291	0.14
282.663	0.12
283.034	0.02
283.406	0.12
283.777	0.16
284.148	0.15
284.52	0.14
284.891	0.15
285.262	0.14
285.634	0.11
286.005	0.09
286.376	0.12
286.747	0.07
287.119	0.11
287.49	0.2
287.861	0.08
288.232	0.15
288.603	0.16
288.974	0.07
289.345	0.11
289.716	0.08
290.087	0.12
290.458	0.04
290.829	0.15
291.2	0.11
291.571	0.16
291.941	0.05
292.312	0.13
292.683	0.09
293.054	0.13
293.424	0.02
293.795	0.09
294.166	0.13
294.536	0.06
294.907	0.09
295.277	0.12
295.648	0.1
296.018	0.1
296.389	0.02
296.759	0.12
297.13	0.11
297.5	0.14
297.871	0.07
298.241	0.13
298.611	0.09
298.981	0.09
299.352	0.1
299.722	0.09
300.092	0.11
300.462	0.1
300.832	0.13
301.202	0.08
301.573	0.11
301.943	0.11
302.313	0.07
302.683	0.14
303.053	0.09
303.422	0.08
303.792	0.1
304.162	0.12
304.532	0.12
304.902	0.06
305.272	0.14
305.641	0.15
306.011	0.08
306.381	0.09
306.75	0.09
307.12	0.08
307.49	0.08
307.859	0.09
308.229	0.09
308.598	0.1
308.968	0.09
309.337	0.09
309.707	0.1
310.076	0.06
310.445	0.09
310.815	0.09
311.184	0.12
311.553	0.07
311.923	0.08
312.292	0.09
312.661	0.07
313.03	0.06
313.399	0.08
313.768	0.06
314.137	0.06
314.506	0.07
314.875	0.08
315.244	0.04
315.613	0.06
315.982	0.08
316.351	0.08
316.72	0.07
317.089	0.07
317.458	0.08
317.826	0.07
318.195	0.06
318.564	0.08
318.933	0.09
319.301	0.06
319.67	0.05
320.038	0.07
320.407	0.08
320.775	0.07
321.144	0.07
321.512	0.07
321.881	0.08
322.249	0.08
322.618	0.09
322.986	0.08
323.354	0.08
323.723	0.06
324.091	0.09
324.459	0.09
324.827	0.08
325.195	0.09
325.564	0.09
325.932	0.09
326.3	0.09
326.668	0.09
327.036	0.08
327.404	0.09
327.772	0.09
328.14	0.08
328.508	0.08
328.875	0.08
329.243	0.09
329.611	0.09
329.979	0.09
330.346	0.09
330.714	0.09
331.082	0.09
331.449	0.09
331.817	0.09
332.185	0.11
332.552	0.1
332.92	0.1
333.287	0.1
333.655	0.1
334.022	0.11
334.389	0.1
334.757	0.11
335.124	0.11
335.491	0.11
335.859	0.11
336.226	0.11
336.593	0.12
336.96	0.13
337.327	0.12
337.695	0.12
338.062	0.13
338.429	0.13
338.796	0.13
339.163	0.14
339.53	0.14
339.897	0.13
340.263	0.14
340.63	0.14
340.997	0.15
341.364	0.15
341.731	0.15
342.097	0.16
342.464	0.16
342.831	0.16
343.197	0.16
343.564	0.16
343.931	0.16
344.297	0.16
344.664	0.17
345.03	0.17
345.396	0.17
345.763	0.18
346.129	0.18
346.496	0.19
346.862	0.19
347.228	0.19
347.594	0.19
347.961	0.2
348.327	0.2
348.693	0.19
349.059	0.2
349.425	0.21
349.791	0.21
350.157	0.21
350.523	0.21
350.889	0.21
351.255	0.22
351.621	0.21
351.987	0.22
352.353	0.23
352.719	0.23
353.084	0.23
353.45	0.23
353.816	0.23
354.181	0.24
354.547	0.24
354.913	0.25
355.278	0.25
355.644	0.25
356.009	0.26
356.375	0.26
356.74	0.26
357.106	0.26
357.471	0.27
357.836	0.27
358.202	0.28
358.567	0.28
358.932	0.28
359.297	0.29
359.663	0.29
360.028	0.3
360.393	0.3
360.758	0.31
361.123	0.3
361.488	0.32
361.853	0.32
362.218	0.33
362.583	0.33
362.948	0.33
363.312	0.34
363.677	0.34
364.042	0.34
364.407	0.35
364.772	0.35
365.136	0.35
365.501	0.36
365.865	0.37
366.23	0.37
366.595	0.37
366.959	0.38
367.324	0.38
367.688	0.39
368.052	0.39
368.417	0.39
368.781	0.4
369.145	0.4
369.51	0.4
369.874	0.41
370.238	0.41
370.602	0.41
370.967	0.42
371.331	0.42
371.695	0.42
372.059	0.42
372.423	0.43
372.787	0.42
373.151	0.43
373.515	0.42
373.878	0.42
374.242	0.42
374.606	0.42
374.97	0.42
375.334	0.42
375.697	0.41
376.061	0.41
376.425	0.41
376.788	0.4
377.152	0.4
377.515	0.4
377.879	0.4
378.242	0.39
378.606	0.38
378.969	0.38
379.333	0.38
379.696	0.38
380.059	0.37
380.422	0.37
380.786	0.37
381.149	0.37
381.512	0.36
381.875	0.36
382.238	0.36
382.601	0.36
382.964	0.36
383.327	0.35
383.69	0.35
384.053	0.35
384.416	0.35
384.779	0.35
385.142	0.35
385.504	0.35
385.867	0.35
386.23	0.35
386.593	0.35
386.955	0.36
387.318	0.36
387.68	0.36
388.043	0.36
388.405	0.36
388.768	0.37
389.13	0.37
389.493	0.37
389.855	0.37
390.217	0.37
390.58	0.37
390.942	0.36
391.304	0.36
391.666	0.36
392.028	0.36
392.391	0.35
392.753	0.35
393.115	0.34
393.477	0.34
393.839	0.34
394.201	0.34
394.563	0.34
394.924	0.34
395.286	0.34
395.648	0.34
396.01	0.34
396.371	0.35
396.733	0.36
397.095	0.37
397.456	0.37
397.818	0.38
398.18	0.4
398.541	0.41
398.903	0.42
399.264	0.43
399.625	0.44
399.987	0.45
400.348	0.46
400.709	0.47
401.071	0.47
401.432	0.48
401.793	0.47
402.154	0.47
402.515	0.46
402.876	0.46
403.238	0.45
403.599	0.44
403.96	0.42
404.32	0.4
404.681	0.39
405.042	0.37
405.403	0.36
405.764	0.34
406.125	0.32
406.485	0.31
406.846	0.29
407.207	0.27
407.567	0.26
407.928	0.24
408.288	0.23
408.649	0.21
409.009	0.2
409.37	0.19
409.73	0.18
410.091	0.16
410.451	0.16
410.811	0.15
411.171	0.14
411.532	0.13
411.892	0.13
412.252	0.12
412.612	0.12
412.972	0.11
413.332	0.11
413.692	0.1
414.052	0.09
414.412	0.09
414.772	0.09
415.132	0.09
415.492	0.08
415.851	0.08
416.211	0.08
416.571	0.08
416.931	0.08
417.29	0.07
417.65	0.07
418.009	0.07
418.369	0.06
418.728	0.06
419.088	0.06
419.447	0.06
419.807	0.07
420.166	0.06
420.525	0.06
420.884	0.05
421.244	0.05
421.603	0.05
421.962	0.05
422.321	0.05
422.68	0.05
423.039	0.04
423.398	0.05
423.757	0.04
424.116	0.05
424.475	0.05
424.834	0.05
425.193	0.04
425.551	0.05
425.91	0.04
426.269	0.04
426.628	0.03
426.986	0.04
427.345	0.03
427.703	0.04
428.062	0.04
428.42	0.05
428.779	0.04
429.137	0.05
429.496	0.04
429.854	0.04
430.212	0.04
430.57	0.04
430.929	0.03
431.287	0.03
431.645	0.04
432.003	0.04
432.361	0.04
432.719	0.04
433.077	0.04
433.435	0.04
433.793	0.04
434.151	0.03
434.509	0.04
434.866	0.03
435.224	0.04
435.582	0.03
435.94	0.03
436.297	0.04
436.655	0.04
437.012	0.03
437.37	0.03
437.727	0.03
438.085	0.03
438.442	0.03
438.8	0.04
439.157	0.03
439.514	0.03
439.872	0.02
440.229	0.03
440.586	0.02
440.943	0.03
441.3	0.04
441.657	0.03
442.014	0.03
442.371	0.02
442.728	0.02
443.085	0.03
443.442	0.02
443.799	0.03
444.156	0.03
444.513	0.03
444.869	0.02
445.226	0.03
445.583	0.03
445.939	0.03
446.296	0.02
446.652	0.03
447.009	0.02
447.365	0.03
447.722	0.03
448.078	0.02
448.434	0.03
448.791	0.02
449.147	0.02
449.503	0.02
449.859	0.01
450.215	0.02
450.571	0.01
450.928	0.01
451.284	0.02
451.64	0.02
451.995	0.01
452.351	0.02
452.707	0.02
453.063	0
453.419	0.01
453.775	0
454.13	0
454.486	-0
454.842	0
455.197	0
455.553	-0
455.908	-0.01
456.264	-0.01
456.619	-0.01
456.975	-0.01
457.33	-0.01
457.685	-0.02
458.04	-0.02
458.396	-0.02
458.751	-0.02
459.106	-0.03
459.461	-0.03
459.816	-0.03
460.171	-0.04
460.526	-0.04
460.881	-0.04
461.236	-0.05
461.591	-0.06
461.946	-0.05
462.301	-0.05
462.655	-0.06
463.01	-0.06
463.365	-0.07
463.719	-0.07
464.074	-0.07
464.428	-0.08
464.783	-0.08
465.137	-0.09
465.492	-0.08
465.846	-0.09
466.201	-0.09
466.555	-0.08
466.909	-0.08
467.263	-0.08
467.618	-0.08
467.972	-0.08
468.326	-0.09
468.68	-0.08
469.034	-0.09
469.388	-0.09
469.742	-0.08
470.096	-0.08
470.45	-0.09
470.804	-0.08
471.157	-0.09
471.511	-0.09
471.865	-0.09
472.218	-0.08
472.572	-0.08
472.926	-0.08
473.279	-0.07
473.633	-0.07
473.986	-0.06
474.34	-0.06
474.693	-0.05
475.046	-0.04
475.4	-0.04
475.753	-0.04
476.106	-0.04
476.459	-0.03
476.812	-0.02
477.165	-0.02
477.519	-0.02
477.872	-0.01
478.224	-0.01
478.577	-0
478.93	0
479.283	0.01
479.636	0.01
479.989	0.01
480.341	0.01
480.694	0.02
481.047	0.03
481.399	0.02
481.752	0.03
482.104	0.03
482.457	0.03
482.809	0.03
483.162	0.03
483.514	0.04
483.866	0.04
484.219	0.04
484.571	0.04
484.923	0.04
485.275	0.05
485.627	0.05
485.979	0.05
486.331	0.05
486.683	0.05
487.035	0.06
487.387	0.06
487.739	0.07
488.091	0.06
488.443	0.06
488.794	0.06
489.146	0.07
489.498	0.07
489.849	0.07
490.201	0.07
490.552	0.06
490.904	0.07
491.255	0.07
491.607	0.07
491.958	0.07
492.309	0.07
492.661	0.07
493.012	0.08
493.363	0.08
493.714	0.08
494.065	0.08
494.416	0.08
494.767	0.08
495.118	0.08
495.469	0.08
495.82	0.08
496.171	0.08
496.522	0.09
496.872	0.09
497.223	0.09
497.574	0.09
497.924	0.09
498.275	0.1
498.626	0.09
498.976	0.1
499.327	0.1
499.677	0.1
500.027	0.1
500.378	0.1
500.728	0.1
501.078	0.11
501.428	0.11
501.779	0.11
502.129	0.11
502.479	0.11
502.829	0.11
503.179	0.11
503.529	0.11
503.879	0.11
504.229	0.11
504.578	0.12
504.928	0.11
505.278	0.11
505.628	0.12
505.977	0.12
506.327	0.11
506.676	0.12
507.026	0.12
507.375	0.12
507.725	0.12
508.074	0.13
508.424	0.12
508.773	0.12
509.122	0.12
509.471	0.12
509.82	0.12
510.17	0.13
510.519	0.12
510.868	0.12
511.217	0.13
511.566	0.13
511.915	0.13
512.263	0.13
512.612	0.13
512.961	0.13
513.31	0.13
513.659	0.13
514.007	0.13
514.356	0.14
514.704	0.14
515.053	0.14
515.401	0.14
515.75	0.13
516.098	0.14
516.447	0.14
516.795	0.14
517.143	0.14
517.491	0.14
517.839	0.14
518.188	0.15
518.536	0.15
518.884	0.15
519.232	0.14
519.58	0.15
519.928	0.14
520.275	0.15
520.623	0.15
520.971	0.15
521.319	0.15
521.666	0.15
522.014	0.16
522.362	0.15
522.709	0.15
523.057	0.16
523.404	0.16
523.752	0.16
524.099	0.15
524.446	0.16
524.794	0.16
525.141	0.15
525.488	0.16
525.835	0.16
526.182	0.16
526.529	0.16
526.876	0.16
527.223	0.16
527.57	0.16
527.917	0.16
528.264	0.17
528.611	0.16
528.958	0.17
529.304	0.17
529.651	0.17
529.998	0.17
530.344	0.17
530.691	0.17
531.037	0.17
531.384	0.17
531.73	0.17
532.076	0.18
532.423	0.17
532.769	0.17
533.115	0.17
533.461	0.17
533.807	0.17
534.154	0.17
534.5	0.17
534.846	0.18
535.192	0.18
535.537	0.18
535.883	0.18
536.229	0.18
536.575	0.18
536.921	0.18
537.266	0.18
537.612	0.18
537.957	0.18
538.303	0.18
538.649	0.18
538.994	0.18
539.339	0.18
539.685	0.18
540.03	0.19
540.375	0.19
540.721	0.18
541.066	0.19
541.411	0.18
541.756	0.19
542.101	0.19
542.446	0.19
542.791	0.19
543.136	0.19
543.481	0.19
543.825	0.19
544.17	0.19
544.515	0.19
544.86	0.19
545.204	0.19
545.549	0.19
545.893	0.19
546.238	0.19
546.582	0.19
546.927	0.19
547.271	0.19
547.615	0.19
547.96	0.2
548.304	0.19
548.648	0.19
548.992	0.2
549.336	0.2
549.68	0.19
550.024	0.2
550.368	0.2
550.712	0.19
551.056	0.2
551.4	0.2
551.743	0.2
552.087	0.2
552.431	0.2
552.774	0.2
553.118	0.2
553.462	0.2
553.805	0.2
554.148	0.2
554.492	0.2
554.835	0.2
555.178	0.2
555.522	0.2
555.865	0.2
556.208	0.2
556.551	0.2
556.894	0.2
557.237	0.2
557.58	0.2
557.923	0.2
558.266	0.2
558.609	0.2
558.952	0.2
559.294	0.2
559.637	0.2
559.98	0.2
560.322	0.2
560.665	0.2
561.007	0.2
561.35	0.2
561.692	0.2
562.034	0.2
562.377	0.2
562.719	0.2
563.061	0.2
563.403	0.2
563.745	0.2
564.088	0.2
564.43	0.2
564.772	0.2
565.113	0.2
565.455	0.2
565.797	0.2
566.139	0.2
566.481	0.2
566.822	0.2
567.164	0.2
567.506	0.2
567.847	0.2
568.189	0.2
568.53	0.2
568.872	0.2
569.213	0.2
569.554	0.2
569.895	0.2
570.237	0.2
570.578	0.2
570.919	0.2
571.26	0.2
571.601	0.2
571.942	0.2
572.283	0.19
572.624	0.2
572.965	0.19
573.306	0.19
573.646	0.19
573.987	0.19
574.328	0.19
574.668	0.19
575.009	0.19
575.349	0.19
575.69	0.19
576.03	0.19
576.37	0.19
576.711	0.18
577.051	0.19
577.391	0.19
577.731	0.19
578.072	0.19
578.412	0.19
578.752	0.19
579.092	0.19
579.431	0.18
579.771	0.17
580.111	0.17
580.451	0.18
580.791	0.19
581.13	0.19
581.47	0.18
581.81	0.18
582.149	0.18
582.489	0.18
582.828	0.18
583.167	0.16
583.507	0.13
583.846	0.13
584.185	0.16
584.525	0.18
584.864	0.18
585.203	0.19
585.542	0.19
585.881	0.19
586.22	0.18
586.559	0.18
586.898	0.17
587.236	0.17
587.575	0.18
587.914	0.18
588.252	0.18
588.591	0.19
588.93	0.18
589.268	0.18
589.607	0.18
589.945	0.19
590.283	0.19
590.622	0.18
590.96	0.19
591.298	0.19
591.636	0.19
591.974	0.19
592.313	0.19
592.651	0.19
592.989	0.19
593.326	0.19
593.664	0.19
594.002	0.19
594.34	0.19
594.678	0.19
595.015	0.18
595.353	0.18
595.691	0.19
596.028	0.19
596.366	0.19
596.703	0.19
597.04	0.19
597.378	0.19
597.715	0.19
598.052	0.2
598.389	0.19
598.726	0.19
599.064	0.19
599.401	0.19
599.738	0.19
600.074	0.19
600.411	0.2
600.748	0.19
601.085	0.19
601.422	0.19
601.758	0.19
602.095	0.19
602.432	0.19
602.768	0.19
603.105	0.19
603.441	0.2
603.777	0.19
604.114	0.2
604.45	0.19
604.786	0.19
605.122	0.19
605.459	0.19
605.795	0.19
606.131	0.19
606.467	0.19
606.803	0.19
607.139	0.19
607.474	0.19
607.81	0.19
608.146	0.19
608.482	0.19
608.817	0.19
609.153	0.19
609.488	0.19
609.824	0.19
610.159	0.19
610.495	0.19
610.83	0.19
611.165	0.19
611.5	0.19
611.836	0.19
612.171	0.19
612.506	0.19
612.841	0.19
613.176	0.19
613.511	0.18
613.845	0.18
614.18	0.18
614.515	0.18
614.85	0.18
615.184	0.19
615.519	0.18
615.854	0.18
616.188	0.18
616.523	0.18
616.857	0.18
617.191	0.18
617.526	0.18
617.86	0.18
618.194	0.18
618.528	0.18
618.862	0.18
619.196	0.18
619.53	0.18
619.864	0.18
620.198	0.18
620.532	0.18
620.866	0.18
621.2	0.18
621.533	0.17
621.867	0.17
622.201	0.17
622.534	0.17
622.868	0.17
623.201	0.17
623.534	0.17
623.868	0.17
624.201	0.17
624.534	0.17
624.868	0.17
625.201	0.17
625.534	0.16
625.867	0.16
626.2	0.16
626.533	0.17
626.865	0.16
627.198	0.16
627.531	0.16
627.864	0.16
628.196	0.16
628.529	0.16
628.862	0.16
629.194	0.16
629.527	0.16
629.859	0.16
630.191	0.16
630.524	0.16
630.856	0.15
631.188	0.15
631.52	0.15
631.852	0.15
632.184	0.15
632.516	0.15
632.848	0.15
633.18	0.14
633.512	0.15
633.844	0.14
634.175	0.14
634.507	0.14
634.839	0.14
635.17	0.14
635.502	0.14
635.833	0.14
636.165	0.14
636.496	0.14
636.827	0.14
637.159	0.14
637.49	0.14
637.821	0.14
638.152	0.13
638.483	0.13
638.814	0.13
639.145	0.13
639.476	0.13
639.807	0.13
640.137	0.13
640.468	0.13
640.799	0.13
641.129	0.13
641.46	0.13
641.791	0.12
642.121	0.13
642.451	0.12
642.782	0.12
643.112	0.12
643.442	0.12
643.773	0.12
644.103	0.12
644.433	0.12
644.763	0.12
645.093	0.12
645.423	0.12
645.753	0.12
646.082	0.12
646.412	0.12
646.742	0.12
647.072	0.11
647.401	0.11
647.731	0.11
648.06	0.11
648.39	0.11
648.719	0.11
649.048	0.11
649.378	0.11
649.707	0.11
650.036	0.11
650.365	0.11
650.694	0.11
651.023	0.11
651.352	0.11
651.681	0.11
652.01	0.11
652.339	0.11
652.668	0.11
652.996	0.11
653.325	0.11
653.654	0.11
653.982	0.11
654.311	0.1
654.639	0.11
654.967	0.1
655.296	0.11
655.624	0.11
655.952	0.11
656.28	0.1
656.609	0.11
656.937	0.11
657.265	0.1
657.593	0
657.92	0
658.248	0
658.576	0
658.904	0.05
659.231	0.1
659.559	0.11
659.887	0.1
660.214	0.1
660.542	0.1
660.869	0.1
661.196	0.1
661.524	0.1
661.851	0.1
662.178	0.1
662.505	0.1
662.832	0.1
663.159	0.1
663.486	0.1
663.813	0.1
664.14	0.1
664.467	0.1
664.794	0.1
665.12	0.1
665.447	0.1
665.774	0.1
666.1	0.1
666.427	0.1
666.753	0.1
667.079	0.09
667.406	0.09
667.732	0.09
668.058	0.1
668.384	0.09
668.71	0.09
669.036	0.09
669.362	0.09
669.688	0.09
670.014	0.09
670.34	0.09
670.666	0.09
670.991	0.09
671.317	0.09
671.643	0.09
671.968	0.09
672.294	0.09
672.619	0.08
672.945	0.09
673.27	0.08
673.595	0.08
673.92	0.08
674.246	0.08
674.571	0.08
674.896	0.08
675.221	0.08
675.546	0.08
675.87	0.08
676.195	0.08
676.52	0.08
676.845	0.08
677.169	0.08
677.494	0.08
677.819	0.08
678.143	0.07
678.468	0.07
678.792	0.07
679.116	0.07
679.44	0.07
679.765	0.07
680.089	0.07
680.413	0.07
680.737	0.07
681.061	0.07
681.385	0.07
681.709	0.07
682.033	0.06
682.356	0.07
682.68	0.07
683.004	0.07
683.327	0.06
683.651	0.06
683.974	0.06
684.298	0.06
684.621	0.06
684.944	0.06
685.268	0.06
685.591	0.06
685.914	0.06
686.237	0.05
686.56	0.05
686.883	0.05
687.206	0.05
687.529	0.05
687.852	0.05
688.175	0.05
688.497	0.05
688.82	0.05
689.142	0.05
689.465	0.05
689.787	0.05
690.11	0.05
690.432	0.05
690.755	0.05
691.077	0.05
691.399	0.05
691.721	0.05
692.043	0.05
692.365	0.05
692.687	0.05
693.009	0.04
693.331	0.04
693.653	0.04
693.974	0.04
694.296	0.04
694.618	0.04
694.939	0.04
695.261	0.04
695.582	0.04
695.904	0.04
696.225	0.04
696.546	0.04
696.868	0.04
697.189	0.04
697.51	0.04
697.831	0.04
698.152	0.04
698.473	0.04
698.794	0.04
699.114	0.03
699.435	0.03
699.756	0.03
700.077	0.03
700.397	0.03
700.718	0.03
701.038	0.03
701.359	0.03
701.679	0.03
701.999	0.04
702.32	0.03
702.64	0.04
702.96	0.03
703.28	0.03
703.6	0.03
703.92	0.03
704.24	0.03
704.56	0.03
704.879	0.03
705.199	0.03
705.519	0.03
705.838	0.03
706.158	0.03
706.478	0.03
706.797	0.03
707.116	0.03
707.436	0.03
707.755	0.03
708.074	0.03
708.393	0.03
708.712	0.03
709.031	0.02
709.35	0.02
709.669	0.03
709.988	0.03
710.307	0.03
710.626	0.03
710.944	0.03
711.263	0.03
711.582	0.03
711.9	0.03
712.219	0.03
712.537	0.03
712.855	0.03
713.174	0.03
713.492	0.03
713.81	0.03
714.128	0.03
714.446	0.03
714.764	0.03
715.082	0.03
715.4	0.03
715.718	0.03
716.035	0.03
716.353	0.03
716.671	0.03
716.988	0.03
717.306	0.03
717.623	0.03
717.941	0.03
718.258	0.03
718.575	0.03
718.893	0.03
719.21	0.03
719.527	0.03
719.844	0.03
720.161	0.03
720.478	0.03
720.795	0.03
721.112	0.03
721.428	0.03
721.745	0.03
722.062	0.03
722.378	0.03
722.695	0.03
723.011	0.03
723.328	0.03
723.644	0.03
723.96	0.03
724.276	0.03
724.593	0.04
724.909	0.03
725.225	0.03
725.541	0.03
725.857	0.03
726.173	0.04
726.488	0.04
726.804	0.03
727.12	0.03
727.435	0.03
727.751	0.03
728.067	0.03
728.382	0.03
728.697	0.03
729.013	0.03
729.328	0.03
729.643	0.03
729.958	0.03
730.273	0.03
730.588	0.03
730.903	0.03
731.218	0.03
731.533	0.03
731.848	0.03
732.163	0.03
732.477	0.03
732.792	0.03
733.107	0.03
733.421	0.03
733.736	0.03
734.05	0.03
734.364	0.03
734.678	0.03
734.993	0.03
735.307	0.03
735.621	0.03
735.935	0.03
736.249	0.03
736.563	0.03
736.877	0.03
737.19	0.03
737.504	0.03
737.818	0.03
738.131	0.03
738.445	0.03
738.758	0.03
739.072	0.03
739.385	0.03
739.698	0.03
740.012	0.03
740.325	0.03
740.638	0.03
740.951	0.03
741.264	0.02
741.577	0.03
741.89	0.03
742.203	0.03
742.515	0.03
742.828	0.03
743.141	0.03
743.453	0.03
743.766	0.02
744.078	0.03
744.391	0.03
744.703	0.02
745.015	0.02
745.327	0.03
745.639	0.03
745.952	0.03
746.264	0.02
746.575	0.02
746.887	0.02
747.199	0.02
747.511	0.02
747.823	0.02
748.134	0.02
748.446	0.02
748.757	0.02
749.069	0.02
749.38	0.02
749.692	0.02
750.003	0.02
750.314	0.02
750.625	0.02
750.936	0.02
751.248	0.02
751.559	0.02
751.869	0.02
752.18	0.02
752.491	0.02
752.802	0.02
753.112	0.02
753.423	0.02
753.734	0.02
754.044	0.02
754.355	0.02
754.665	0.02
754.975	0.02
755.285	0.02
755.596	0.02
755.906	0.02
756.216	0.02
756.526	0.01
756.836	0.01
757.146	0.02
757.455	0.01
757.765	0.01
758.075	0.02
758.385	0.01
758.694	0.01
759.004	0.01
759.313	0.01
759.622	0.01
759.932	0.01
760.241	0.01
760.55	0.01
760.859	0.01
761.168	0.02
761.477	0.01
761.786	0.01
762.095	0.01
762.404	0.01
762.713	0.01
763.021	0.01
763.33	0.01
763.639	0.01
763.947	0.01
764.256	0.01
764.564	0.01
764.872	0.01
765.181	0.01
765.489	0.01
765.797	0.01
766.105	0.01
766.413	0.01
766.721	0.01
767.029	0.01
767.337	0.01
767.644	0.01
767.952	0.02
768.26	0.01
768.567	0.01
768.875	0.01
769.182	0.01
769.49	0.01
769.797	0.01
770.104	0.01
770.411	0.01
770.718	0.01
771.026	0.01
771.333	0.01
771.639	0.01
771.946	0.01
772.253	0.01
772.56	0.02
772.867	0.01
773.173	0.01
773.48	0.01
773.786	0.01
774.093	0.01
774.399	0.01
774.705	0.01
775.012	0.01
775.318	0.01
775.624	0.01
775.93	0.01
776.236	0.01
776.542	0.01
776.848	0.01
777.154	0.01
777.459	0.01
777.765	0.01
778.071	0.01
778.376	0.01
778.682	0.01
778.987	0.01
779.292	0.01
779.598	0.01
779.903	0.01
780.208	0.01
780.513	0.01
780.818	0.01
781.123	0.01
781.428	0.01
781.733	0.01
782.038	0.01
782.343	0.01
782.647	0.01
782.952	0.01
783.256	0.01
783.561	0.01
783.865	0.01
784.17	0.01
784.474	0.01
784.778	0.01
785.082	0.01
785.386	0.01
785.69	0.01
785.994	0.01
786.298	0.01
786.602	0.01
786.906	0.01
787.209	0.01
787.513	0.01
787.817	0.01
788.12	0.01
788.424	0.01
788.727	0.01
789.03	0.01
789.333	0.01
789.637	0.01
789.94	0.01
790.243	0.01
790.546	0.01
790.849	0.01
791.152	0.01
791.454	0.01
791.757	0
792.06	0.01
792.362	0.01
792.665	0.01
792.967	0.01
793.27	0.01
793.572	0.01
793.874	0.01
794.177	0.01
794.479	0.01
794.781	0.01
795.083	0.01
795.385	0.01
795.687	0.01
795.989	0.01
796.29	0.01
796.592	0.01
796.894	0.01
797.195	0.01
797.497	0.01
797.798	0.01
798.1	0.01
798.401	0.01
798.702	0.01
799.003	0.01
799.304	0.01
799.605	0.01
799.906	0.01
800.207	0.01
800.508	0.01
800.809	0.01
801.11	0.01
801.41	0.01
801.711	0.01
802.011	0.01
802.312	0.01
802.612	0.01
802.913	0.01
803.213	0.01
803.513	0.01
803.813	0.01
804.113	0.01
804.413	0.01
804.713	0.01
805.013	0.01
805.313	0.01
805.613	0.01
805.912	0.01
806.212	0.02
806.511	0.01
806.811	0.01
807.11	0.01
807.41	0.02
807.709	0.02
808.008	0.02
808.307	0.01
808.606	0.01
808.905	0.01
809.204	0.01
809.503	0.01
809.802	0.01
810.101	0.01
810.399	0.01
810.698	0.01
810.997	0.01
811.295	0.01
811.593	0.01
811.892	0.01
812.19	0.01
812.488	0.01
812.786	0.01
813.084	0.01
813.383	0.02
813.68	0.01
813.978	0.02
814.276	0.01
814.574	0.01
814.872	0.01
815.169	0.02
815.467	0.02
815.764	0.01
816.062	0.02
816.359	0.01
816.656	0.01
816.954	0.01
817.251	0.02
817.548	0.02
817.845	0.02
818.142	0.02
818.439	0.02
818.735	0.02
819.032	0.02
819.329	0.02
819.626	0.02
819.922	0.02
820.219	0.02
820.515	0.02
820.811	0.02
821.108	0.01
821.404	0.02
821.7	0.02
821.996	0.02
822.292	0.02
822.588	0.02
822.884	0.01
823.18	0.02
823.475	0.01
823.771	0.02
824.067	0.01
824.362	0.01
824.658	0.01
824.953	0.02
825.249	0.01
825.544	0.02
825.839	0.01
826.134	0.02
826.429	0.02
826.724	0.01
827.019	0.01
827.314	0.02
827.609	0.02
827.904	0.02
828.198	0.02
828.493	0.02
828.787	0.01
829.082	0.02
829.376	0.01
829.671	0.02
829.965	0.02
830.259	0.02
830.553	0.02
830.847	0.02
831.141	0.01
831.435	0.01
831.729	0.02
832.023	0.02
832.317	0.02
832.61	0.02
832.904	0.01
833.197	0.02
833.491	0.02
833.784	0.02
834.077	0.02
834.371	0.02
834.664	0.02
834.957	0.01
835.25	0.02
835.543	0.02
835.836	0.02
836.129	0.02
836.421	0.02
836.714	0.02
837.007	0.01
837.299	0.02
837.592	0.02
837.884	0.02
838.177	0.01
838.469	0.02
838.761	0.01
839.053	0.02
839.345	0.02
839.637	0.02
839.929	0.02
840.221	0.01
840.513	0.02
840.805	0.02
841.096	0.02
841.388	0.01
841.68	0.01
841.971	0.01
842.262	0.02
842.554	0.01
842.845	0.02
843.136	0.02
843.427	0.02
843.718	0.01
844.009	0.02
844.3	0.02
844.591	0.02
844.882	0.01
845.173	0.02
845.463	0.03
845.754	0.01
846.044	0.01
846.335	0.02
846.625	0.02
846.915	0.01
847.206	0.02
847.496	0.02
847.786	0.02
848.076	0.03
848.366	0.02
848.656	0.02
848.945	0.02
849.235	0.02
849.525	0.02
849.814	0.02
850.104	0.01
850.393	0.01
850.683	0.02
850.972	0.03
851.261	0.01
851.551	0.02
851.84	0.02
852.129	0.01
852.418	0.01
852.707	0.03
852.995	0.02
853.284	0.03
853.573	0.01
853.862	0.01
854.15	0.03
854.439	0.02
854.727	0.03
855.015	0.03
855.304	0.03
855.592	0.02
855.88	0.02
856.168	0.03
856.456	0.03
856.744	0.02
857.032	0.03
857.32	0.02
857.607	0.03
857.895	0.02
858.183	0.03
858.47	0.02
858.757	0.01
859.045	0.03
859.332	0.01
859.619	0.02
859.907	0.02
860.194	0.02
860.481	0.01
860.768	-0
861.054	0.04
861.341	0.02
861.628	0.03
861.915	0.04
862.201	0.01
862.488	0.02
862.774	0
863.061	0.05
863.347	0.04
863.633	0.04
863.919	-0
864.205	0.03
864.491	0.01
864.777	0.02
865.063	0.02
865.349	0.03
865.635	0
865.92	0
866.206	0.01
866.492	0
866.777	0.02
867.062	0.02
867.348	0
867.633	0.02
867.918	0.03
868.203	0.02
868.488	0.01
868.773	0.03
869.058	0.03
869.343	0.04
869.628	-0.01
869.912	-0.01
870.197	0.05
870.482	0.04
870.766	0.01
871.05	0.01
871.335	-0.01
871.619	-0.01
871.903	-0.02
872.187	0.03
872.471	-0
872.755	-0.01
873.039	0.02
873.323	-0.01
873.607	0.06
873.89	0.03
874.174	0
874.458	0.01
874.741	0.06
875.024	0.04
875.308	-0.04
875.591	0.05
875.874	0.01
876.157	-0.01
876.44	0.01
876.723	0.02
877.006	0.02
877.289	0.01
877.572	0.07
877.854	0.03
878.137	0.04
878.42	-0.02
878.702	-0.01
878.984	-0
879.267	0.06
879.549	0.1
879.831	0.06
880.113	-0.04
880.395	0.09
880.677	-0.02
880.959	0.1
