Data from Rubpy_BV_1800_EDTA_Buffered_Absorbance_17-01-21-557.txt Node
Date: Wed Jul 01 17:01:21 BST 2026
User: fpm-admin
Spectrometer: OFX00224
Trigger mode: 0
Integration Time (sec): 7.000000E-2
Scans to average: 3
Nonlinearity correction enabled: false
Boxcar width: 0
Storing dark spectrum: false
XAxis mode: Wavelengths
Number of Pixels in Spectrum: 2136
>>>>>Begin Spectral Data<<<<<
154.91	-0
155.289	0.41
155.669	-0
156.048	-0
156.428	-0
156.807	1.03
157.186	-1.34
157.566	0.46
157.945	-0
158.325	-0.19
158.704	0.03
159.083	0.56
159.462	0.3
159.842	0.51
160.221	-0
160.6	-0.65
160.979	-0
161.359	-0
161.738	-0
162.117	-0
162.496	0.18
162.875	-0.13
163.254	0.25
163.633	-0
164.012	-0
164.391	0.12
164.77	0.22
165.149	-0
165.528	0.45
165.907	-0
166.286	-0.12
166.665	0.15
167.044	-0
167.423	0.17
167.802	-0
168.181	-1
168.559	-0.41
168.938	1.1
169.317	-0
169.696	-1.28
170.074	-0.61
170.453	-0.09
170.832	-0
171.21	0.08
171.589	-0.09
171.968	0.28
172.346	0.4
172.725	-0
173.103	-0
173.482	-0
173.861	-0
174.239	0.22
174.617	0.73
174.996	-0.2
175.374	-0.67
175.753	0.48
176.131	0.09
176.51	0.4
176.888	-0
177.266	-0
177.645	0.04
178.023	-0
178.401	0.17
178.779	-0
179.158	-0.16
179.536	0.25
179.914	-0
180.292	0.28
180.67	0.36
181.048	0.5
181.427	-0.51
181.805	-0
182.183	-0.46
182.561	0.52
182.939	-0
183.317	-0.83
183.695	0.2
184.073	-0
184.451	-0.85
184.829	0.4
185.206	-0.19
185.584	-0
185.962	-0.33
186.34	-0.13
186.718	-0.17
187.096	-0
187.473	0.22
187.851	-0.23
188.229	0.6
188.607	0.47
188.984	0.29
189.362	0.61
189.74	0.59
190.117	0.46
190.495	0.41
190.872	0.45
191.25	0.58
191.627	0.42
192.005	0.22
192.382	0.37
192.76	0.33
193.137	0.5
193.515	0.51
193.892	0.25
194.269	0.42
194.647	0.48
195.024	0.37
195.401	0.43
195.779	0.34
196.156	0.53
196.533	0.23
196.91	0.28
197.288	0.35
197.665	0.3
198.042	0.33
198.419	0.48
198.796	0.3
199.173	0.31
199.55	0.51
199.927	0.25
200.304	0.34
200.681	0.32
201.058	0.35
201.435	0.88
201.812	0.33
202.189	0.3
202.566	0.45
202.943	0.27
203.32	0.69
203.697	0.49
204.073	0.41
204.45	0.48
204.827	0.46
205.204	0.48
205.58	0.33
205.957	0.43
206.334	0.27
206.71	0.62
207.087	0.4
207.464	0.39
207.84	0.35
208.217	0.38
208.593	0.32
208.97	0.63
209.346	0.4
209.723	0.32
210.099	0.61
210.476	0.51
210.852	0.4
211.228	0.38
211.605	0.31
211.981	0.31
212.357	0.64
212.733	0.3
213.11	0.36
213.486	0.53
213.862	0.3
214.238	0.44
214.614	0.35
214.991	0.37
215.367	0.35
215.743	0.43
216.119	0.36
216.495	0.46
216.871	0.48
217.247	0.34
217.623	0.33
217.999	0.47
218.375	0.45
218.751	0.45
219.127	0.42
219.502	0.38
219.878	0.41
220.254	0.53
220.63	0.38
221.006	0.37
221.381	0.33
221.757	0.23
222.133	0.35
222.508	0.49
222.884	0.45
223.26	0.4
223.635	0.32
224.011	0.41
224.386	0.37
224.762	0.63
225.137	0.31
225.513	0.38
225.888	0.37
226.264	0.61
226.639	0.34
227.014	0.45
227.39	0.34
227.765	0.33
228.14	0.48
228.516	0.65
228.891	0.33
229.266	0.47
229.641	0.29
230.017	0.34
230.392	0.44
230.767	0.47
231.142	0.57
231.517	0.53
231.892	0.37
232.267	0.47
232.642	0.45
233.017	0.52
233.392	0.35
233.767	0.32
234.142	0.3
234.517	0.29
234.892	0.48
235.267	0.28
235.641	0.5
236.016	0.35
236.391	0.47
236.766	0.47
237.14	0.52
237.515	0.51
237.89	0.4
238.264	0.57
238.639	0.41
239.014	0.56
239.388	0.5
239.763	0.42
240.137	0.58
240.512	0.32
240.886	0.4
241.261	0.37
241.635	0.49
242.009	0.56
242.384	0.31
242.758	0.64
243.132	0.24
243.507	0.36
243.881	0.42
244.255	0.46
244.629	0.45
245.004	0.46
245.378	0.6
245.752	0.53
246.126	0.41
246.5	0.43
246.874	0.37
247.248	0.48
247.622	0.31
247.996	0.4
248.37	0.6
248.744	0.42
249.118	0.35
249.492	0.37
249.866	0.41
250.24	0.63
250.613	0.57
250.987	0.49
251.361	0.7
251.735	0.51
252.108	0.49
252.482	0.42
252.856	0.41
253.229	0.42
253.603	0.31
253.977	0.56
254.35	0.47
254.724	0.37
255.097	0.43
255.471	0.38
255.844	0.58
256.218	0.41
256.591	0.42
256.964	0.52
257.338	0.52
257.711	0.69
258.084	0.6
258.458	0.57
258.831	0.52
259.204	0.44
259.577	0.4
259.95	0.35
260.323	0.54
260.697	0.42
261.07	0.48
261.443	0.59
261.816	0.48
262.189	0.44
262.562	0.39
262.935	0.41
263.308	0.36
263.68	0.4
264.053	0.71
264.426	0.46
264.799	0.42
265.172	0.35
265.545	0.48
265.917	0.48
266.29	0.45
266.663	0.45
267.035	0.38
267.408	0.59
267.781	0.53
268.153	0.4
268.526	0.57
268.898	0.44
269.271	0.45
269.643	0.47
270.016	0.59
270.388	0.33
270.76	0.57
271.133	0.44
271.505	0.51
271.877	0.4
272.25	0.43
272.622	0.48
272.994	0.45
273.366	0.58
273.739	0.31
274.111	0.46
274.483	0.37
274.855	0.41
275.227	0.63
275.599	0.59
275.971	0.39
276.343	0.38
276.715	0.37
277.087	0.44
277.459	0.46
277.831	0.39
278.203	0.5
278.574	0.48
278.946	0.41
279.318	0.6
279.69	0.43
280.061	0.38
280.433	0.38
280.805	0.42
281.176	0.54
281.548	0.4
281.92	0.42
282.291	0.36
282.663	0.41
283.034	0.41
283.406	0.44
283.777	0.44
284.148	0.46
284.52	0.41
284.891	0.48
285.262	0.47
285.634	0.58
286.005	0.36
286.376	0.35
286.747	0.44
287.119	0.44
287.49	0.47
287.861	0.41
288.232	0.57
288.603	0.48
288.974	0.34
289.345	0.53
289.716	0.41
290.087	0.33
290.458	0.48
290.829	0.44
291.2	0.5
291.571	0.46
291.941	0.4
292.312	0.46
292.683	0.46
293.054	0.4
293.424	0.34
293.795	0.4
294.166	0.53
294.536	0.49
294.907	0.39
295.277	0.46
295.648	0.49
296.018	0.63
296.389	0.41
296.759	0.37
297.13	0.47
297.5	0.53
297.871	0.4
298.241	0.56
298.611	0.5
298.981	0.48
299.352	0.52
299.722	0.46
300.092	0.49
300.462	0.53
300.832	0.49
301.202	0.45
301.573	0.47
301.943	0.49
302.313	0.47
302.683	0.51
303.053	0.5
303.422	0.47
303.792	0.39
304.162	0.5
304.532	0.45
304.902	0.4
305.272	0.47
305.641	0.39
306.011	0.3
306.381	0.43
306.75	0.45
307.12	0.39
307.49	0.38
307.859	0.33
308.229	0.36
308.598	0.34
308.968	0.33
309.337	0.37
309.707	0.37
310.076	0.32
310.445	0.37
310.815	0.35
311.184	0.36
311.553	0.37
311.923	0.35
312.292	0.36
312.661	0.35
313.03	0.36
313.399	0.37
313.768	0.38
314.137	0.36
314.506	0.34
314.875	0.38
315.244	0.35
315.613	0.37
315.982	0.38
316.351	0.41
316.72	0.37
317.089	0.38
317.458	0.43
317.826	0.42
318.195	0.42
318.564	0.42
318.933	0.45
319.301	0.43
319.67	0.45
320.038	0.44
320.407	0.45
320.775	0.47
321.144	0.46
321.512	0.47
321.881	0.48
322.249	0.49
322.618	0.49
322.986	0.52
323.354	0.51
323.723	0.52
324.091	0.52
324.459	0.54
324.827	0.56
325.195	0.56
325.564	0.56
325.932	0.56
326.3	0.56
326.668	0.58
327.036	0.59
327.404	0.59
327.772	0.6
328.14	0.62
328.508	0.62
328.875	0.63
329.243	0.66
329.611	0.66
329.979	0.67
330.346	0.68
330.714	0.69
331.082	0.71
331.449	0.71
331.817	0.7
332.185	0.73
332.552	0.74
332.92	0.75
333.287	0.78
333.655	0.79
334.022	0.82
334.389	0.81
334.757	0.84
335.124	0.85
335.491	0.87
335.859	0.89
336.226	0.9
336.593	0.93
336.96	0.94
337.327	0.95
337.695	0.98
338.062	0.98
338.429	1
338.796	1.03
339.163	1.04
339.53	1.05
339.897	1.08
340.263	1.11
340.63	1.11
340.997	1.16
341.364	1.17
341.731	1.19
342.097	1.19
342.464	1.21
342.831	1.21
343.197	1.24
343.564	1.28
343.931	1.3
344.297	1.3
344.664	1.33
345.03	1.35
345.396	1.36
345.763	1.41
346.129	1.41
346.496	1.43
346.862	1.45
347.228	1.45
347.594	1.49
347.961	1.47
348.327	1.53
348.693	1.52
349.059	1.58
349.425	1.58
349.791	1.59
350.157	1.61
350.523	1.61
350.889	1.6
351.255	1.67
351.621	1.68
351.987	1.67
352.353	1.69
352.719	1.72
353.084	1.72
353.45	1.77
353.816	1.78
354.181	1.76
354.547	1.78
354.913	1.82
355.278	1.85
355.644	1.81
356.009	1.85
356.375	1.83
356.74	1.93
357.106	1.89
357.471	1.92
357.836	1.93
358.202	2
358.567	1.92
358.932	1.99
359.297	2
359.663	2.04
360.028	2.01
360.393	2.06
360.758	2.07
361.123	2.08
361.488	2.07
361.853	2.14
362.218	2.12
362.583	2.16
362.948	2.13
363.312	2.11
363.677	2.1
364.042	2.18
364.407	2.21
364.772	2.18
365.136	2.1
365.501	2.12
365.865	2.24
366.23	2.1
366.595	2.11
366.959	2.22
367.324	2.12
367.688	2.21
368.052	2.26
368.417	2.28
368.781	2.26
369.145	2.18
369.51	2.21
369.874	2.3
370.238	2.22
370.602	2.1
370.967	2.27
371.331	2.18
371.695	2.2
372.059	2.17
372.423	2.3
372.787	2.15
373.151	2.12
373.515	2.28
373.878	2.31
374.242	2.12
374.606	2.23
374.97	2.25
375.334	2.25
375.697	2.15
376.061	2.17
376.425	2.24
376.788	2.15
377.152	2.22
377.515	2.23
377.879	2.24
378.242	2.16
378.606	2.13
378.969	2.18
379.333	2.16
379.696	2.12
380.059	2.12
380.422	2.09
380.786	2.07
381.149	2.16
381.512	2.07
381.875	2.1
382.238	2.03
382.601	2.02
382.964	2.03
383.327	1.96
383.69	1.98
384.053	1.9
384.416	1.93
384.779	1.92
385.142	1.89
385.504	1.89
385.867	1.87
386.23	1.88
386.593	1.86
386.955	1.84
387.318	1.79
387.68	1.82
388.043	1.77
388.405	1.76
388.768	1.82
389.13	1.76
389.493	1.74
389.855	1.72
390.217	1.71
390.58	1.71
390.942	1.68
391.304	1.63
391.666	1.63
392.028	1.62
392.391	1.59
392.753	1.56
393.115	1.55
393.477	1.51
393.839	1.51
394.201	1.51
394.563	1.51
394.924	1.49
395.286	1.47
395.648	1.49
396.01	1.47
396.371	1.49
396.733	1.51
397.095	1.5
397.456	1.52
397.818	1.54
398.18	1.57
398.541	1.61
398.903	1.64
399.264	1.68
399.625	1.69
399.987	1.71
400.348	1.72
400.709	1.76
401.071	1.75
401.432	1.75
401.793	1.74
402.154	1.76
402.515	1.72
402.876	1.68
403.238	1.65
403.599	1.61
403.96	1.58
404.32	1.52
404.681	1.48
405.042	1.42
405.403	1.37
405.764	1.31
406.125	1.26
406.485	1.21
406.846	1.15
407.207	1.09
407.567	1.03
407.928	0.99
408.288	0.93
408.649	0.88
409.009	0.85
409.37	0.79
409.73	0.76
410.091	0.72
410.451	0.69
410.811	0.65
411.171	0.62
411.532	0.59
411.892	0.57
412.252	0.54
412.612	0.52
412.972	0.5
413.332	0.48
413.692	0.46
414.052	0.44
414.412	0.43
414.772	0.41
415.132	0.4
415.492	0.39
415.851	0.37
416.211	0.36
416.571	0.35
416.931	0.34
417.29	0.33
417.65	0.33
418.009	0.32
418.369	0.31
418.728	0.3
419.088	0.3
419.447	0.3
419.807	0.29
420.166	0.27
420.525	0.28
420.884	0.27
421.244	0.26
421.603	0.25
421.962	0.25
422.321	0.25
422.68	0.25
423.039	0.24
423.398	0.24
423.757	0.24
424.116	0.24
424.475	0.24
424.834	0.23
425.193	0.23
425.551	0.23
425.91	0.22
426.269	0.22
426.628	0.21
426.986	0.22
427.345	0.21
427.703	0.21
428.062	0.21
428.42	0.22
428.779	0.21
429.137	0.22
429.496	0.21
429.854	0.21
430.212	0.21
430.57	0.21
430.929	0.19
431.287	0.2
431.645	0.2
432.003	0.2
432.361	0.2
432.719	0.2
433.077	0.21
433.435	0.2
433.793	0.2
434.151	0.2
434.509	0.21
434.866	0.2
435.224	0.2
435.582	0.2
435.94	0.2
436.297	0.2
436.655	0.2
437.012	0.2
437.37	0.2
437.727	0.2
438.085	0.2
438.442	0.21
438.8	0.2
439.157	0.2
439.514	0.21
439.872	0.2
440.229	0.2
440.586	0.2
440.943	0.22
441.3	0.21
441.657	0.22
442.014	0.2
442.371	0.2
442.728	0.2
443.085	0.21
443.442	0.2
443.799	0.2
444.156	0.21
444.513	0.22
444.869	0.2
445.226	0.22
445.583	0.22
445.939	0.22
446.296	0.2
446.652	0.22
447.009	0.21
447.365	0.22
447.722	0.21
448.078	0.21
448.434	0.22
448.791	0.23
449.147	0.22
449.503	0.22
449.859	0.22
450.215	0.22
450.571	0.22
450.928	0.22
451.284	0.23
451.64	0.23
451.995	0.22
452.351	0.22
452.707	0.23
453.063	0.22
453.419	0.22
453.775	0.22
454.13	0.22
454.486	0.23
454.842	0.22
455.197	0.22
455.553	0.22
455.908	0.21
456.264	0.21
456.619	0.21
456.975	0.21
457.33	0.21
457.685	0.21
458.04	0.2
458.396	0.2
458.751	0.2
459.106	0.19
459.461	0.19
459.816	0.19
460.171	0.18
460.526	0.19
460.881	0.18
461.236	0.18
461.591	0.18
461.946	0.17
462.301	0.17
462.655	0.17
463.01	0.17
463.365	0.16
463.719	0.15
464.074	0.14
464.428	0.14
464.783	0.14
465.137	0.13
465.492	0.13
465.846	0.14
466.201	0.14
466.555	0.15
466.909	0.15
467.263	0.16
467.618	0.16
467.972	0.16
468.326	0.15
468.68	0.15
469.034	0.15
469.388	0.15
469.742	0.16
470.096	0.16
470.45	0.16
470.804	0.17
471.157	0.17
471.511	0.16
471.865	0.17
472.218	0.18
472.572	0.19
472.926	0.2
473.279	0.2
473.633	0.21
473.986	0.23
474.34	0.23
474.693	0.25
475.046	0.26
475.4	0.28
475.753	0.29
476.106	0.29
476.459	0.3
476.812	0.33
477.165	0.33
477.519	0.34
477.872	0.36
478.224	0.37
478.577	0.38
478.93	0.39
479.283	0.4
479.636	0.41
479.989	0.42
480.341	0.43
480.694	0.44
481.047	0.45
481.399	0.46
481.752	0.47
482.104	0.47
482.457	0.49
482.809	0.5
483.162	0.5
483.514	0.51
483.866	0.53
484.219	0.53
484.571	0.54
484.923	0.54
485.275	0.54
485.627	0.56
485.979	0.56
486.331	0.58
486.683	0.58
487.035	0.59
487.387	0.61
487.739	0.62
488.091	0.63
488.443	0.63
488.794	0.63
489.146	0.64
489.498	0.65
489.849	0.65
490.201	0.65
490.552	0.66
490.904	0.66
491.255	0.68
491.607	0.68
491.958	0.68
492.309	0.69
492.661	0.7
493.012	0.71
493.363	0.71
493.714	0.72
494.065	0.73
494.416	0.73
494.767	0.74
495.118	0.74
495.469	0.76
495.82	0.76
496.171	0.76
496.522	0.77
496.872	0.78
497.223	0.78
497.574	0.79
497.924	0.81
498.275	0.82
498.626	0.81
498.976	0.82
499.327	0.83
499.677	0.84
500.027	0.85
500.378	0.84
500.728	0.85
501.078	0.86
501.428	0.87
501.779	0.88
502.129	0.88
502.479	0.88
502.829	0.89
503.179	0.9
503.529	0.9
503.879	0.92
504.229	0.92
504.578	0.92
504.928	0.93
505.278	0.94
505.628	0.95
505.977	0.95
506.327	0.95
506.676	0.96
507.026	0.97
507.375	0.98
507.725	0.98
508.074	0.98
508.424	0.98
508.773	1
509.122	1.01
509.471	1
509.82	1.02
510.17	1.02
510.519	1.03
510.868	1.03
511.217	1.03
511.566	1.04
511.915	1.04
512.263	1.06
512.612	1.06
512.961	1.06
513.31	1.06
513.659	1.07
514.007	1.08
514.356	1.08
514.704	1.08
515.053	1.09
515.401	1.09
515.75	1.09
516.098	1.11
516.447	1.1
516.795	1.11
517.143	1.11
517.491	1.12
517.839	1.12
518.188	1.12
518.536	1.15
518.884	1.15
519.232	1.14
519.58	1.14
519.928	1.15
520.275	1.16
520.623	1.18
520.971	1.18
521.319	1.16
521.666	1.18
522.014	1.18
522.362	1.18
522.709	1.18
523.057	1.19
523.404	1.2
523.752	1.19
524.099	1.19
524.446	1.2
524.794	1.21
525.141	1.2
525.488	1.22
525.835	1.21
526.182	1.22
526.529	1.21
526.876	1.22
527.223	1.24
527.57	1.24
527.917	1.23
528.264	1.23
528.611	1.25
528.958	1.26
529.304	1.25
529.651	1.25
529.998	1.26
530.344	1.25
530.691	1.27
531.037	1.27
531.384	1.26
531.73	1.27
532.076	1.28
532.423	1.28
532.769	1.27
533.115	1.28
533.461	1.29
533.807	1.28
534.154	1.26
534.5	1.29
534.846	1.3
535.192	1.28
535.537	1.3
535.883	1.29
536.229	1.31
536.575	1.3
536.921	1.31
537.266	1.31
537.612	1.3
537.957	1.31
538.303	1.31
538.649	1.33
538.994	1.33
539.339	1.31
539.685	1.32
540.03	1.31
540.375	1.33
540.721	1.33
541.066	1.32
541.411	1.34
541.756	1.32
542.101	1.33
542.446	1.32
542.791	1.33
543.136	1.33
543.481	1.34
543.825	1.34
544.17	1.34
544.515	1.34
544.86	1.33
545.204	1.33
545.549	1.33
545.893	1.34
546.238	1.35
546.582	1.34
546.927	1.33
547.271	1.35
547.615	1.35
547.96	1.35
548.304	1.35
548.648	1.34
548.992	1.35
549.336	1.34
549.68	1.34
550.024	1.35
550.368	1.35
550.712	1.36
551.056	1.34
551.4	1.35
551.743	1.34
552.087	1.35
552.431	1.34
552.774	1.34
553.118	1.35
553.462	1.35
553.805	1.33
554.148	1.34
554.492	1.34
554.835	1.34
555.178	1.32
555.522	1.34
555.865	1.34
556.208	1.33
556.551	1.33
556.894	1.34
557.237	1.34
557.58	1.33
557.923	1.33
558.266	1.32
558.609	1.33
558.952	1.32
559.294	1.32
559.637	1.32
559.98	1.31
560.322	1.31
560.665	1.32
561.007	1.32
561.35	1.3
561.692	1.31
562.034	1.3
562.377	1.32
562.719	1.3
563.061	1.31
563.403	1.3
563.745	1.3
564.088	1.29
564.43	1.3
564.772	1.3
565.113	1.29
565.455	1.28
565.797	1.29
566.139	1.29
566.481	1.29
566.822	1.27
567.164	1.27
567.506	1.28
567.847	1.28
568.189	1.27
568.53	1.28
568.872	1.28
569.213	1.27
569.554	1.27
569.895	1.26
570.237	1.26
570.578	1.26
570.919	1.25
571.26	1.26
571.601	1.25
571.942	1.25
572.283	1.24
572.624	1.24
572.965	1.24
573.306	1.24
573.646	1.23
573.987	1.23
574.328	1.23
574.668	1.22
575.009	1.22
575.349	1.22
575.69	1.22
576.03	1.21
576.37	1.2
576.711	1.2
577.051	1.2
577.391	1.21
577.731	1.2
578.072	1.2
578.412	1.2
578.752	1.19
579.092	1.19
579.431	1.17
579.771	1.16
580.111	1.16
580.451	1.18
580.791	1.19
581.13	1.17
581.47	1.17
581.81	1.17
582.149	1.16
582.489	1.16
582.828	1.15
583.167	1.13
583.507	1.09
583.846	1.09
584.185	1.14
584.525	1.14
584.864	1.15
585.203	1.15
585.542	1.15
585.881	1.15
586.22	1.14
586.559	1.13
586.898	1.12
587.236	1.13
587.575	1.12
587.914	1.13
588.252	1.13
588.591	1.13
588.93	1.13
589.268	1.12
589.607	1.12
589.945	1.12
590.283	1.12
590.622	1.12
590.96	1.12
591.298	1.12
591.636	1.12
591.974	1.12
592.313	1.12
592.651	1.12
592.989	1.12
593.326	1.11
593.664	1.11
594.002	1.11
594.34	1.11
594.678	1.11
595.015	1.1
595.353	1.1
595.691	1.1
596.028	1.1
596.366	1.1
596.703	1.1
597.04	1.1
597.378	1.1
597.715	1.1
598.052	1.09
598.389	1.09
598.726	1.09
599.064	1.09
599.401	1.09
599.738	1.08
600.074	1.09
600.411	1.08
600.748	1.08
601.085	1.08
601.422	1.07
601.758	1.07
602.095	1.07
602.432	1.08
602.768	1.07
603.105	1.07
603.441	1.07
603.777	1.07
604.114	1.07
604.45	1.07
604.786	1.06
605.122	1.06
605.459	1.05
605.795	1.05
606.131	1.05
606.467	1.04
606.803	1.05
607.139	1.04
607.474	1.04
607.81	1.04
608.146	1.03
608.482	1.03
608.817	1.02
609.153	1.02
609.488	1.02
609.824	1.01
610.159	1.02
610.495	1.01
610.83	1.01
611.165	1.01
611.5	1
611.836	1
612.171	1
612.506	1
612.841	0.99
613.176	0.99
613.511	0.99
613.845	0.98
614.18	0.98
614.515	0.97
614.85	0.97
615.184	0.97
615.519	0.96
615.854	0.96
616.188	0.95
616.523	0.95
616.857	0.95
617.191	0.95
617.526	0.94
617.86	0.94
618.194	0.94
618.528	0.93
618.862	0.93
619.196	0.93
619.53	0.92
619.864	0.92
620.198	0.92
620.532	0.91
620.866	0.91
621.2	0.91
621.533	0.9
621.867	0.9
622.201	0.89
622.534	0.89
622.868	0.89
623.201	0.88
623.534	0.88
623.868	0.87
624.201	0.88
624.534	0.87
624.868	0.86
625.201	0.86
625.534	0.86
625.867	0.85
626.2	0.85
626.533	0.85
626.865	0.84
627.198	0.84
627.531	0.84
627.864	0.83
628.196	0.83
628.529	0.82
628.862	0.82
629.194	0.81
629.527	0.81
629.859	0.8
630.191	0.8
630.524	0.8
630.856	0.79
631.188	0.79
631.52	0.78
631.852	0.78
632.184	0.77
632.516	0.77
632.848	0.76
633.18	0.76
633.512	0.76
633.844	0.75
634.175	0.74
634.507	0.74
634.839	0.74
635.17	0.73
635.502	0.73
635.833	0.72
636.165	0.72
636.496	0.71
636.827	0.71
637.159	0.71
637.49	0.71
637.821	0.7
638.152	0.69
638.483	0.69
638.814	0.68
639.145	0.68
639.476	0.67
639.807	0.67
640.137	0.66
640.468	0.66
640.799	0.65
641.129	0.65
641.46	0.65
641.791	0.64
642.121	0.64
642.451	0.64
642.782	0.63
643.112	0.63
643.442	0.63
643.773	0.62
644.103	0.62
644.433	0.62
644.763	0.61
645.093	0.61
645.423	0.6
645.753	0.6
646.082	0.6
646.412	0.6
646.742	0.59
647.072	0.59
647.401	0.59
647.731	0.58
648.06	0.58
648.39	0.58
648.719	0.57
649.048	0.57
649.378	0.57
649.707	0.57
650.036	0.56
650.365	0.56
650.694	0.56
651.023	0.56
651.352	0.55
651.681	0.55
652.01	0.56
652.339	0.55
652.668	0.54
652.996	0.54
653.325	0.54
653.654	0.54
653.982	0.54
654.311	0.54
654.639	0.54
654.967	0.53
655.296	0.53
655.624	0.53
655.952	0.53
656.28	0.53
656.609	0.52
656.937	0.52
657.265	0.5
657.593	0.35
657.92	0.26
658.248	0.24
658.576	0.32
658.904	0.45
659.231	0.5
659.559	0.51
659.887	0.5
660.214	0.5
660.542	0.5
660.869	0.49
661.196	0.49
661.524	0.5
661.851	0.49
662.178	0.49
662.505	0.49
662.832	0.49
663.159	0.49
663.486	0.48
663.813	0.48
664.14	0.48
664.467	0.48
664.794	0.47
665.12	0.47
665.447	0.47
665.774	0.47
666.1	0.46
666.427	0.46
666.753	0.46
667.079	0.46
667.406	0.45
667.732	0.45
668.058	0.45
668.384	0.45
668.71	0.45
669.036	0.44
669.362	0.44
669.688	0.43
670.014	0.43
670.34	0.43
670.666	0.43
670.991	0.43
671.317	0.42
671.643	0.42
671.968	0.42
672.294	0.42
672.619	0.41
672.945	0.41
673.27	0.4
673.595	0.4
673.92	0.39
674.246	0.39
674.571	0.39
674.896	0.39
675.221	0.39
675.546	0.38
675.87	0.38
676.195	0.38
676.52	0.37
676.845	0.37
677.169	0.37
677.494	0.36
677.819	0.36
678.143	0.35
678.468	0.36
678.792	0.35
679.116	0.35
679.44	0.35
679.765	0.34
680.089	0.34
680.413	0.33
680.737	0.33
681.061	0.32
681.385	0.32
681.709	0.32
682.033	0.31
682.356	0.32
682.68	0.32
683.004	0.31
683.327	0.31
683.651	0.3
683.974	0.3
684.298	0.3
684.621	0.3
684.944	0.29
685.268	0.29
685.591	0.29
685.914	0.28
686.237	0.27
686.56	0.27
686.883	0.27
687.206	0.27
687.529	0.27
687.852	0.26
688.175	0.26
688.497	0.26
688.82	0.26
689.142	0.25
689.465	0.25
689.787	0.25
690.11	0.25
690.432	0.24
690.755	0.24
691.077	0.24
691.399	0.23
691.721	0.23
692.043	0.23
692.365	0.22
692.687	0.22
693.009	0.22
693.331	0.22
693.653	0.21
693.974	0.22
694.296	0.21
694.618	0.21
694.939	0.21
695.261	0.2
695.582	0.2
695.904	0.2
696.225	0.2
696.546	0.2
696.868	0.19
697.189	0.19
697.51	0.19
697.831	0.19
698.152	0.19
698.473	0.19
698.794	0.18
699.114	0.18
699.435	0.17
699.756	0.18
700.077	0.18
700.397	0.18
700.718	0.18
701.038	0.18
701.359	0.17
701.679	0.18
701.999	0.18
702.32	0.17
702.64	0.17
702.96	0.17
703.28	0.17
703.6	0.17
703.92	0.17
704.24	0.17
704.56	0.16
704.879	0.16
705.199	0.16
705.519	0.17
705.838	0.16
706.158	0.16
706.478	0.16
706.797	0.16
707.116	0.16
707.436	0.16
707.755	0.16
708.074	0.16
708.393	0.15
708.712	0.15
709.031	0.14
709.35	0.15
709.669	0.14
709.988	0.14
710.307	0.14
710.626	0.15
710.944	0.15
711.263	0.15
711.582	0.15
711.9	0.15
712.219	0.15
712.537	0.15
712.855	0.15
713.174	0.15
713.492	0.15
713.81	0.15
714.128	0.15
714.446	0.15
714.764	0.15
715.082	0.14
715.4	0.15
715.718	0.15
716.035	0.14
716.353	0.15
716.671	0.15
716.988	0.15
717.306	0.15
717.623	0.15
717.941	0.15
718.258	0.15
718.575	0.15
718.893	0.15
719.21	0.15
719.527	0.15
719.844	0.15
720.161	0.15
720.478	0.15
720.795	0.15
721.112	0.15
721.428	0.15
721.745	0.15
722.062	0.15
722.378	0.15
722.695	0.15
723.011	0.15
723.328	0.15
723.644	0.15
723.96	0.16
724.276	0.16
724.593	0.16
724.909	0.16
725.225	0.16
725.541	0.16
725.857	0.15
726.173	0.16
726.488	0.16
726.804	0.16
727.12	0.16
727.435	0.16
727.751	0.16
728.067	0.16
728.382	0.16
728.697	0.16
729.013	0.16
729.328	0.15
729.643	0.15
729.958	0.15
730.273	0.15
730.588	0.15
730.903	0.15
731.218	0.15
731.533	0.15
731.848	0.15
732.163	0.15
732.477	0.15
732.792	0.15
733.107	0.14
733.421	0.15
733.736	0.15
734.05	0.15
734.364	0.15
734.678	0.15
734.993	0.15
735.307	0.15
735.621	0.14
735.935	0.14
736.249	0.15
736.563	0.15
736.877	0.14
737.19	0.15
737.504	0.15
737.818	0.14
738.131	0.14
738.445	0.14
738.758	0.14
739.072	0.14
739.385	0.14
739.698	0.14
740.012	0.14
740.325	0.14
740.638	0.14
740.951	0.14
741.264	0.13
741.577	0.14
741.89	0.14
742.203	0.13
742.515	0.14
742.828	0.13
743.141	0.13
743.453	0.13
743.766	0.13
744.078	0.13
744.391	0.13
744.703	0.12
745.015	0.12
745.327	0.12
745.639	0.12
745.952	0.12
746.264	0.12
746.575	0.13
746.887	0.12
747.199	0.12
747.511	0.12
747.823	0.12
748.134	0.12
748.446	0.11
748.757	0.12
749.069	0.11
749.38	0.12
749.692	0.11
750.003	0.11
750.314	0.11
750.625	0.11
750.936	0.11
751.248	0.11
751.559	0.11
751.869	0.11
752.18	0.1
752.491	0.1
752.802	0.1
753.112	0.1
753.423	0.1
753.734	0.1
754.044	0.1
754.355	0.1
754.665	0.1
754.975	0.09
755.285	0.09
755.596	0.1
755.906	0.1
756.216	0.1
756.526	0.09
756.836	0.09
757.146	0.09
757.455	0.09
757.765	0.09
758.075	0.09
758.385	0.09
758.694	0.09
759.004	0.08
759.313	0.08
759.622	0.09
759.932	0.09
760.241	0.09
760.55	0.09
760.859	0.09
761.168	0.09
761.477	0.09
761.786	0.08
762.095	0.08
762.404	0.08
762.713	0.08
763.021	0.08
763.33	0.08
763.639	0.08
763.947	0.08
764.256	0.09
764.564	0.08
764.872	0.08
765.181	0.08
765.489	0.08
765.797	0.08
766.105	0.08
766.413	0.08
766.721	0.08
767.029	0.08
767.337	0.08
767.644	0.08
767.952	0.08
768.26	0.08
768.567	0.08
768.875	0.08
769.182	0.08
769.49	0.08
769.797	0.08
770.104	0.08
770.411	0.08
770.718	0.08
771.026	0.08
771.333	0.08
771.639	0.09
771.946	0.08
772.253	0.08
772.56	0.09
772.867	0.08
773.173	0.08
773.48	0.08
773.786	0.08
774.093	0.09
774.399	0.08
774.705	0.09
775.012	0.08
775.318	0.09
775.624	0.08
775.93	0.08
776.236	0.08
776.542	0.08
776.848	0.08
777.154	0.08
777.459	0.08
777.765	0.08
778.071	0.09
778.376	0.09
778.682	0.09
778.987	0.09
779.292	0.09
779.598	0.09
779.903	0.09
780.208	0.09
780.513	0.09
780.818	0.09
781.123	0.09
781.428	0.09
781.733	0.09
782.038	0.09
782.343	0.09
782.647	0.09
782.952	0.09
783.256	0.09
783.561	0.09
783.865	0.09
784.17	0.09
784.474	0.09
784.778	0.09
785.082	0.1
785.386	0.09
785.69	0.09
785.994	0.1
786.298	0.1
786.602	0.1
786.906	0.09
787.209	0.09
787.513	0.1
787.817	0.09
788.12	0.1
788.424	0.09
788.727	0.1
789.03	0.09
789.333	0.1
789.637	0.09
789.94	0.09
790.243	0.09
790.546	0.1
790.849	0.1
791.152	0.1
791.454	0.1
791.757	0.1
792.06	0.1
792.362	0.1
792.665	0.1
792.967	0.1
793.27	0.1
793.572	0.1
793.874	0.1
794.177	0.1
794.479	0.1
794.781	0.1
795.083	0.1
795.385	0.1
795.687	0.1
795.989	0.1
796.29	0.11
796.592	0.11
796.894	0.11
797.195	0.11
797.497	0.11
797.798	0.11
798.1	0.11
798.401	0.11
798.702	0.11
799.003	0.11
799.304	0.11
799.605	0.11
799.906	0.11
800.207	0.11
800.508	0.11
800.809	0.11
801.11	0.11
801.41	0.11
801.711	0.11
802.011	0.11
802.312	0.11
802.612	0.11
802.913	0.12
803.213	0.12
803.513	0.11
803.813	0.12
804.113	0.12
804.413	0.12
804.713	0.12
805.013	0.12
805.313	0.12
805.613	0.12
805.912	0.12
806.212	0.12
806.511	0.12
806.811	0.12
807.11	0.12
807.41	0.13
807.709	0.12
808.008	0.12
808.307	0.12
808.606	0.13
808.905	0.12
809.204	0.13
809.503	0.13
809.802	0.13
810.101	0.13
810.399	0.13
810.698	0.13
810.997	0.13
811.295	0.13
811.593	0.13
811.892	0.14
812.19	0.14
812.488	0.14
812.786	0.13
813.084	0.14
813.383	0.14
813.68	0.14
813.978	0.14
814.276	0.14
814.574	0.14
814.872	0.14
815.169	0.14
815.467	0.14
815.764	0.14
816.062	0.14
816.359	0.14
816.656	0.14
816.954	0.14
817.251	0.15
817.548	0.15
817.845	0.15
818.142	0.14
818.439	0.15
818.735	0.15
819.032	0.15
819.329	0.14
819.626	0.15
819.922	0.15
820.219	0.15
820.515	0.15
820.811	0.15
821.108	0.15
821.404	0.15
821.7	0.15
821.996	0.15
822.292	0.15
822.588	0.16
822.884	0.15
823.18	0.16
823.475	0.15
823.771	0.15
824.067	0.16
824.362	0.16
824.658	0.16
824.953	0.16
825.249	0.16
825.544	0.16
825.839	0.17
826.134	0.17
826.429	0.16
826.724	0.16
827.019	0.16
827.314	0.16
827.609	0.16
827.904	0.17
828.198	0.17
828.493	0.17
828.787	0.16
829.082	0.17
829.376	0.16
829.671	0.17
829.965	0.17
830.259	0.17
830.553	0.17
830.847	0.18
831.141	0.18
831.435	0.18
831.729	0.17
832.023	0.18
832.317	0.19
832.61	0.18
832.904	0.18
833.197	0.18
833.491	0.18
833.784	0.18
834.077	0.18
834.371	0.18
834.664	0.18
834.957	0.18
835.25	0.19
835.543	0.18
835.836	0.19
836.129	0.18
836.421	0.19
836.714	0.19
837.007	0.19
837.299	0.19
837.592	0.19
837.884	0.19
838.177	0.19
838.469	0.2
838.761	0.2
839.053	0.19
839.345	0.2
839.637	0.2
839.929	0.2
840.221	0.2
840.513	0.2
840.805	0.2
841.096	0.2
841.388	0.19
841.68	0.2
841.971	0.19
842.262	0.2
842.554	0.2
842.845	0.2
843.136	0.21
843.427	0.2
843.718	0.2
844.009	0.2
844.3	0.2
844.591	0.2
844.882	0.21
845.173	0.2
845.463	0.21
845.754	0.21
846.044	0.2
846.335	0.2
846.625	0.21
846.915	0.2
847.206	0.22
847.496	0.21
847.786	0.2
848.076	0.22
848.366	0.21
848.656	0.23
848.945	0.22
849.235	0.22
849.525	0.22
849.814	0.21
850.104	0.21
850.393	0.22
850.683	0.23
850.972	0.22
851.261	0.21
851.551	0.22
851.84	0.23
852.129	0.21
852.418	0.22
852.707	0.23
852.995	0.22
853.284	0.21
853.573	0.22
853.862	0.23
854.15	0.23
854.439	0.23
854.727	0.24
855.015	0.23
855.304	0.23
855.592	0.23
855.88	0.22
856.168	0.23
856.456	0.23
856.744	0.24
857.032	0.23
857.32	0.23
857.607	0.24
857.895	0.24
858.183	0.23
858.47	0.25
858.757	0.24
859.045	0.23
859.332	0.23
859.619	0.25
859.907	0.25
860.194	0.26
860.481	0.25
860.768	0.24
861.054	0.23
861.341	0.24
861.628	0.24
861.915	0.25
862.201	0.26
862.488	0.27
862.774	0.23
863.061	0.25
863.347	0.25
863.633	0.24
863.919	0.25
864.205	0.23
864.491	0.24
864.777	0.25
865.063	0.25
865.349	0.27
865.635	0.24
865.92	0.26
866.206	0.24
866.492	0.21
866.777	0.25
867.062	0.22
867.348	0.24
867.633	0.25
867.918	0.25
868.203	0.27
868.488	0.25
868.773	0.27
869.058	0.27
869.343	0.26
869.628	0.25
869.912	0.25
870.197	0.27
870.482	0.29
870.766	0.23
871.05	0.19
871.335	0.26
871.619	0.2
871.903	0.26
872.187	0.27
872.471	0.26
872.755	0.26
873.039	0.23
873.323	0.22
873.607	0.2
873.89	0.18
874.174	0.27
874.458	0.23
874.741	0.35
875.024	0.26
875.308	0.3
875.591	0.17
875.874	0.27
876.157	0.17
876.44	0.22
876.723	0.32
877.006	0.27
877.289	0.31
877.572	0.31
877.854	0.23
878.137	0.27
878.42	0.2
878.702	0.24
878.984	0.13
879.267	0.26
879.549	0.23
879.831	0.27
880.113	0.21
880.395	0.28
880.677	0.24
880.959	0.12
