Data from Rubpy_BV_1800_EDTA_Buffered_Absorbance_16-54-16-550.txt Node
Date: Wed Jul 01 16:54:16 BST 2026
User: fpm-admin
Spectrometer: OFX00224
Trigger mode: 0
Integration Time (sec): 7.000000E-2
Scans to average: 3
Nonlinearity correction enabled: false
Boxcar width: 0
Storing dark spectrum: false
XAxis mode: Wavelengths
Number of Pixels in Spectrum: 2136
>>>>>Begin Spectral Data<<<<<
154.91	-0
155.289	0.35
155.669	-0
156.048	-0.61
156.428	-0
156.807	0.13
157.186	-1.4
157.566	1.3
157.945	-0
158.325	-0.23
158.704	0.48
159.083	0.18
159.462	-0.85
159.842	-0
160.221	-0.03
160.6	-0
160.979	-0
161.359	0.3
161.738	-0.62
162.117	-0
162.496	-0.15
162.875	-0
163.254	0.11
163.633	0.75
164.012	-0
164.391	0.89
164.77	-0.06
165.149	-0.56
165.528	-0
165.907	-0
166.286	-0
166.665	-0.11
167.044	-0
167.423	-0
167.802	-0.39
168.181	-1.36
168.559	-1.04
168.938	-0
169.317	-0
169.696	-1.26
170.074	-0.4
170.453	-0.32
170.832	-0
171.21	0.54
171.589	-0
171.968	-0
172.346	-0
172.725	-0
173.103	-0.33
173.482	-0
173.861	0.1
174.239	-0
174.617	0.06
174.996	-0
175.374	-0.64
175.753	-0.65
176.131	-0
176.51	-0
176.888	0.34
177.266	-0
177.645	0.12
178.023	0.51
178.401	-0.25
178.779	0.01
179.158	0.18
179.536	-0.22
179.914	-0
180.292	0.06
180.67	-0.18
181.048	-0
181.427	-0.18
181.805	-0
182.183	-0.48
182.561	0.22
182.939	-0.19
183.317	-0.54
183.695	-0.15
184.073	-0
184.451	-0.66
184.829	-0.57
185.206	-0.3
185.584	-0
185.962	-0
186.34	-0.41
186.718	0.23
187.096	-0
187.473	-0
187.851	-0.17
188.229	-0.54
188.607	0.23
188.984	0.25
189.362	0.37
189.74	0.53
190.117	0.5
190.495	0.53
190.872	0.4
191.25	0.8
191.627	0.52
192.005	0.35
192.382	0.55
192.76	0.27
193.137	0.47
193.515	0.28
193.892	0.22
194.269	0.51
194.647	0.36
195.024	0.32
195.401	0.39
195.779	0.3
196.156	0.32
196.533	0.22
196.91	0.27
197.288	0.35
197.665	0.25
198.042	0.25
198.419	0.36
198.796	0.35
199.173	0.4
199.55	0.21
199.927	0.38
200.304	0.43
200.681	0.34
201.058	0.17
201.435	0.46
201.812	0.37
202.189	0.36
202.566	0.6
202.943	0.16
203.32	0.53
203.697	0.41
204.073	0.29
204.45	0.5
204.827	0.48
205.204	0.35
205.58	0.67
205.957	0.31
206.334	0.32
206.71	0.34
207.087	0.45
207.464	0.45
207.84	0.45
208.217	0.35
208.593	0.32
208.97	0.37
209.346	0.38
209.723	0.38
210.099	0.29
210.476	0.35
210.852	0.75
211.228	0.28
211.605	0.27
211.981	0.32
212.357	0.5
212.733	0.33
213.11	0.44
213.486	0.45
213.862	0.56
214.238	0.41
214.614	0.34
214.991	0.41
215.367	0.63
215.743	0.3
216.119	0.42
216.495	0.55
216.871	0.39
217.247	0.43
217.623	0.43
217.999	0.59
218.375	0.48
218.751	0.42
219.127	0.55
219.502	0.22
219.878	0.32
220.254	0.36
220.63	0.47
221.006	0.53
221.381	0.5
221.757	0.48
222.133	0.32
222.508	0.52
222.884	0.27
223.26	0.39
223.635	0.37
224.011	0.34
224.386	0.34
224.762	0.58
225.137	0.56
225.513	0.33
225.888	0.38
226.264	0.43
226.639	0.35
227.014	0.42
227.39	0.41
227.765	0.38
228.14	0.42
228.516	0.75
228.891	0.28
229.266	0.41
229.641	0.33
230.017	0.42
230.392	0.5
230.767	0.46
231.142	0.33
231.517	0.34
231.892	0.45
232.267	0.48
232.642	0.33
233.017	0.52
233.392	0.41
233.767	0.44
234.142	0.43
234.517	0.46
234.892	0.39
235.267	0.33
235.641	0.42
236.016	0.57
236.391	0.36
236.766	0.4
237.14	0.4
237.515	0.55
237.89	0.37
238.264	0.41
238.639	0.24
239.014	0.51
239.388	0.37
239.763	0.31
240.137	0.31
240.512	0.38
240.886	0.32
241.261	0.53
241.635	0.39
242.009	0.51
242.384	0.33
242.758	0.37
243.132	0.49
243.507	0.4
243.881	0.44
244.255	0.55
244.629	0.28
245.004	0.53
245.378	0.32
245.752	0.29
246.126	0.39
246.5	0.47
246.874	0.3
247.248	0.4
247.622	0.61
247.996	0.32
248.37	0.39
248.744	0.39
249.118	0.3
249.492	0.66
249.866	0.4
250.24	0.45
250.613	0.49
250.987	0.41
251.361	0.55
251.735	0.49
252.108	0.55
252.482	0.5
252.856	0.31
253.229	0.39
253.603	0.46
253.977	0.46
254.35	0.48
254.724	0.42
255.097	0.4
255.471	0.27
255.844	0.42
256.218	0.52
256.591	0.36
256.964	0.73
257.338	0.39
257.711	0.29
258.084	0.53
258.458	0.51
258.831	0.48
259.204	0.46
259.577	0.38
259.95	0.43
260.323	0.46
260.697	0.28
261.07	0.34
261.443	0.47
261.816	0.4
262.189	0.59
262.562	0.35
262.935	0.63
263.308	0.32
263.68	0.35
264.053	0.55
264.426	0.42
264.799	0.39
265.172	0.4
265.545	0.36
265.917	0.49
266.29	0.48
266.663	0.37
267.035	0.47
267.408	0.41
267.781	0.51
268.153	0.32
268.526	0.37
268.898	0.5
269.271	0.41
269.643	0.36
270.016	0.37
270.388	0.29
270.76	0.43
271.133	0.38
271.505	0.37
271.877	0.37
272.25	0.41
272.622	0.41
272.994	0.6
273.366	0.62
273.739	0.44
274.111	0.44
274.483	0.37
274.855	0.42
275.227	0.58
275.599	0.5
275.971	0.47
276.343	0.34
276.715	0.51
277.087	0.38
277.459	0.54
277.831	0.36
278.203	0.5
278.574	0.44
278.946	0.27
279.318	0.38
279.69	0.34
280.061	0.46
280.433	0.42
280.805	0.23
281.176	0.38
281.548	0.5
281.92	0.42
282.291	0.48
282.663	0.45
283.034	0.5
283.406	0.42
283.777	0.44
284.148	0.51
284.52	0.41
284.891	0.44
285.262	0.4
285.634	0.49
286.005	0.51
286.376	0.52
286.747	0.53
287.119	0.34
287.49	0.6
287.861	0.48
288.232	0.5
288.603	0.5
288.974	0.35
289.345	0.39
289.716	0.54
290.087	0.37
290.458	0.48
290.829	0.43
291.2	0.41
291.571	0.36
291.941	0.45
292.312	0.36
292.683	0.45
293.054	0.63
293.424	0.42
293.795	0.36
294.166	0.53
294.536	0.41
294.907	0.45
295.277	0.48
295.648	0.5
296.018	0.41
296.389	0.24
296.759	0.37
297.13	0.43
297.5	0.41
297.871	0.33
298.241	0.62
298.611	0.35
298.981	0.37
299.352	0.43
299.722	0.34
300.092	0.49
300.462	0.46
300.832	0.47
301.202	0.39
301.573	0.42
301.943	0.38
302.313	0.39
302.683	0.44
303.053	0.53
303.422	0.43
303.792	0.35
304.162	0.39
304.532	0.45
304.902	0.33
305.272	0.48
305.641	0.49
306.011	0.44
306.381	0.42
306.75	0.38
307.12	0.37
307.49	0.37
307.859	0.35
308.229	0.39
308.598	0.35
308.968	0.38
309.337	0.32
309.707	0.34
310.076	0.29
310.445	0.37
310.815	0.32
311.184	0.33
311.553	0.32
311.923	0.29
312.292	0.29
312.661	0.34
313.03	0.31
313.399	0.33
313.768	0.35
314.137	0.35
314.506	0.33
314.875	0.33
315.244	0.31
315.613	0.31
315.982	0.34
316.351	0.35
316.72	0.32
317.089	0.34
317.458	0.37
317.826	0.36
318.195	0.38
318.564	0.36
318.933	0.38
319.301	0.37
319.67	0.38
320.038	0.38
320.407	0.39
320.775	0.41
321.144	0.42
321.512	0.41
321.881	0.41
322.249	0.43
322.618	0.43
322.986	0.43
323.354	0.43
323.723	0.45
324.091	0.45
324.459	0.47
324.827	0.47
325.195	0.47
325.564	0.48
325.932	0.48
326.3	0.48
326.668	0.51
327.036	0.5
327.404	0.51
327.772	0.53
328.14	0.53
328.508	0.54
328.875	0.53
329.243	0.57
329.611	0.57
329.979	0.58
330.346	0.58
330.714	0.59
331.082	0.61
331.449	0.6
331.817	0.61
332.185	0.63
332.552	0.64
332.92	0.65
333.287	0.65
333.655	0.68
334.022	0.69
334.389	0.7
334.757	0.72
335.124	0.72
335.491	0.74
335.859	0.76
336.226	0.76
336.593	0.78
336.96	0.79
337.327	0.81
337.695	0.83
338.062	0.83
338.429	0.86
338.796	0.88
339.163	0.88
339.53	0.9
339.897	0.92
340.263	0.94
340.63	0.95
340.997	0.97
341.364	0.98
341.731	1
342.097	1.01
342.464	1.03
342.831	1.06
343.197	1.05
343.564	1.09
343.931	1.11
344.297	1.1
344.664	1.13
345.03	1.15
345.396	1.16
345.763	1.19
346.129	1.2
346.496	1.22
346.862	1.23
347.228	1.25
347.594	1.26
347.961	1.28
348.327	1.29
348.693	1.32
349.059	1.33
349.425	1.34
349.791	1.38
350.157	1.36
350.523	1.4
350.889	1.39
351.255	1.44
351.621	1.45
351.987	1.47
352.353	1.45
352.719	1.47
353.084	1.51
353.45	1.51
353.816	1.53
354.181	1.55
354.547	1.55
354.913	1.58
355.278	1.59
355.644	1.57
356.009	1.62
356.375	1.63
356.74	1.67
357.106	1.68
357.471	1.69
357.836	1.74
358.202	1.76
358.567	1.73
358.932	1.74
359.297	1.76
359.663	1.77
360.028	1.8
360.393	1.81
360.758	1.84
361.123	1.85
361.488	1.87
361.853	1.9
362.218	1.91
362.583	1.9
362.948	1.93
363.312	1.89
363.677	1.93
364.042	1.95
364.407	2.04
364.772	1.98
365.136	1.98
365.501	1.98
365.865	2.03
366.23	1.98
366.595	2.04
366.959	2.11
367.324	2.04
367.688	2.07
368.052	2.05
368.417	2.12
368.781	2.1
369.145	2.12
369.51	2.13
369.874	2.13
370.238	2.09
370.602	2.04
370.967	2.17
371.331	2.05
371.695	2.09
372.059	2.11
372.423	2.12
372.787	2.08
373.151	2.08
373.515	2.1
373.878	2.16
374.242	2.08
374.606	2.04
374.97	2.06
375.334	2.1
375.697	2.06
376.061	2.12
376.425	2.09
376.788	2.08
377.152	2.08
377.515	2
377.879	2.12
378.242	1.95
378.606	1.98
378.969	1.97
379.333	2.02
379.696	1.96
380.059	1.95
380.422	1.9
380.786	1.89
381.149	1.88
381.512	1.86
381.875	1.88
382.238	1.79
382.601	1.83
382.964	1.8
383.327	1.76
383.69	1.75
384.053	1.74
384.416	1.72
384.779	1.7
385.142	1.67
385.504	1.67
385.867	1.68
386.23	1.67
386.593	1.65
386.955	1.62
387.318	1.6
387.68	1.6
388.043	1.58
388.405	1.57
388.768	1.6
389.13	1.57
389.493	1.55
389.855	1.55
390.217	1.52
390.58	1.52
390.942	1.49
391.304	1.44
391.666	1.44
392.028	1.44
392.391	1.4
392.753	1.4
393.115	1.38
393.477	1.35
393.839	1.35
394.201	1.34
394.563	1.33
394.924	1.32
395.286	1.32
395.648	1.31
396.01	1.32
396.371	1.33
396.733	1.34
397.095	1.35
397.456	1.36
397.818	1.4
398.18	1.41
398.541	1.44
398.903	1.47
399.264	1.5
399.625	1.52
399.987	1.55
400.348	1.55
400.709	1.59
401.071	1.58
401.432	1.6
401.793	1.62
402.154	1.57
402.515	1.53
402.876	1.55
403.238	1.5
403.599	1.46
403.96	1.43
404.32	1.38
404.681	1.34
405.042	1.28
405.403	1.23
405.764	1.17
406.125	1.13
406.485	1.08
406.846	1.03
407.207	0.96
407.567	0.92
407.928	0.89
408.288	0.82
408.649	0.78
409.009	0.76
409.37	0.7
409.73	0.67
410.091	0.63
410.451	0.61
410.811	0.57
411.171	0.55
411.532	0.52
411.892	0.51
412.252	0.47
412.612	0.46
412.972	0.43
413.332	0.42
413.692	0.4
414.052	0.39
414.412	0.37
414.772	0.36
415.132	0.36
415.492	0.34
415.851	0.33
416.211	0.32
416.571	0.32
416.931	0.31
417.29	0.29
417.65	0.28
418.009	0.27
418.369	0.27
418.728	0.26
419.088	0.27
419.447	0.25
419.807	0.26
420.166	0.24
420.525	0.24
420.884	0.23
421.244	0.23
421.603	0.23
421.962	0.21
422.321	0.22
422.68	0.22
423.039	0.21
423.398	0.2
423.757	0.21
424.116	0.21
424.475	0.2
424.834	0.2
425.193	0.2
425.551	0.2
425.91	0.2
426.269	0.19
426.628	0.19
426.986	0.19
427.345	0.18
427.703	0.18
428.062	0.19
428.42	0.19
428.779	0.18
429.137	0.19
429.496	0.18
429.854	0.18
430.212	0.18
430.57	0.18
430.929	0.17
431.287	0.18
431.645	0.17
432.003	0.18
432.361	0.18
432.719	0.17
433.077	0.17
433.435	0.18
433.793	0.17
434.151	0.17
434.509	0.17
434.866	0.18
435.224	0.17
435.582	0.17
435.94	0.17
436.297	0.18
436.655	0.18
437.012	0.18
437.37	0.16
437.727	0.17
438.085	0.18
438.442	0.17
438.8	0.18
439.157	0.17
439.514	0.16
439.872	0.17
440.229	0.17
440.586	0.16
440.943	0.18
441.3	0.18
441.657	0.18
442.014	0.18
442.371	0.17
442.728	0.18
443.085	0.18
443.442	0.17
443.799	0.18
444.156	0.18
444.513	0.19
444.869	0.17
445.226	0.18
445.583	0.19
445.939	0.19
446.296	0.17
446.652	0.19
447.009	0.18
447.365	0.19
447.722	0.19
448.078	0.18
448.434	0.19
448.791	0.19
449.147	0.19
449.503	0.18
449.859	0.17
450.215	0.18
450.571	0.19
450.928	0.19
451.284	0.19
451.64	0.19
451.995	0.19
452.351	0.2
452.707	0.19
453.063	0.18
453.419	0.19
453.775	0.18
454.13	0.18
454.486	0.19
454.842	0.19
455.197	0.19
455.553	0.18
455.908	0.18
456.264	0.18
456.619	0.17
456.975	0.17
457.33	0.17
457.685	0.17
458.04	0.16
458.396	0.17
458.751	0.16
459.106	0.16
459.461	0.16
459.816	0.16
460.171	0.16
460.526	0.15
460.881	0.14
461.236	0.14
461.591	0.14
461.946	0.14
462.301	0.13
462.655	0.13
463.01	0.13
463.365	0.12
463.719	0.12
464.074	0.11
464.428	0.1
464.783	0.1
465.137	0.1
465.492	0.1
465.846	0.1
466.201	0.1
466.555	0.11
466.909	0.11
467.263	0.13
467.618	0.12
467.972	0.12
468.326	0.12
468.68	0.12
469.034	0.11
469.388	0.11
469.742	0.12
470.096	0.12
470.45	0.12
470.804	0.13
471.157	0.12
471.511	0.13
471.865	0.12
472.218	0.13
472.572	0.15
472.926	0.15
473.279	0.16
473.633	0.17
473.986	0.18
474.34	0.19
474.693	0.2
475.046	0.21
475.4	0.22
475.753	0.24
476.106	0.25
476.459	0.25
476.812	0.27
477.165	0.28
477.519	0.28
477.872	0.3
478.224	0.31
478.577	0.31
478.93	0.33
479.283	0.33
479.636	0.34
479.989	0.35
480.341	0.36
480.694	0.37
481.047	0.38
481.399	0.38
481.752	0.39
482.104	0.4
482.457	0.41
482.809	0.43
483.162	0.42
483.514	0.43
483.866	0.44
484.219	0.45
484.571	0.46
484.923	0.45
485.275	0.47
485.627	0.47
485.979	0.47
486.331	0.49
486.683	0.49
487.035	0.5
487.387	0.51
487.739	0.53
488.091	0.53
488.443	0.53
488.794	0.54
489.146	0.54
489.498	0.55
489.849	0.56
490.201	0.56
490.552	0.56
490.904	0.56
491.255	0.57
491.607	0.58
491.958	0.58
492.309	0.59
492.661	0.59
493.012	0.6
493.363	0.6
493.714	0.61
494.065	0.62
494.416	0.62
494.767	0.63
495.118	0.63
495.469	0.63
495.82	0.64
496.171	0.65
496.522	0.65
496.872	0.66
497.223	0.67
497.574	0.67
497.924	0.67
498.275	0.69
498.626	0.69
498.976	0.71
499.327	0.71
499.677	0.71
500.027	0.72
500.378	0.71
500.728	0.73
501.078	0.73
501.428	0.73
501.779	0.75
502.129	0.74
502.479	0.75
502.829	0.76
503.179	0.77
503.529	0.76
503.879	0.77
504.229	0.77
504.578	0.79
504.928	0.79
505.278	0.8
505.628	0.8
505.977	0.8
506.327	0.81
506.676	0.81
507.026	0.82
507.375	0.82
507.725	0.83
508.074	0.83
508.424	0.84
508.773	0.84
509.122	0.85
509.471	0.85
509.82	0.86
510.17	0.86
510.519	0.87
510.868	0.86
511.217	0.88
511.566	0.88
511.915	0.89
512.263	0.9
512.612	0.89
512.961	0.9
513.31	0.91
513.659	0.89
514.007	0.91
514.356	0.91
514.704	0.91
515.053	0.93
515.401	0.93
515.75	0.94
516.098	0.93
516.447	0.93
516.795	0.94
517.143	0.94
517.491	0.96
517.839	0.95
518.188	0.96
518.536	0.96
518.884	0.97
519.232	0.97
519.58	0.97
519.928	0.97
520.275	0.98
520.623	0.99
520.971	1
521.319	0.99
521.666	0.99
522.014	1.01
522.362	1
522.709	1.01
523.057	1.01
523.404	1.02
523.752	1.01
524.099	1.02
524.446	1.02
524.794	1.02
525.141	1.03
525.488	1.03
525.835	1.03
526.182	1.04
526.529	1.04
526.876	1.05
527.223	1.05
527.57	1.05
527.917	1.05
528.264	1.05
528.611	1.07
528.958	1.07
529.304	1.06
529.651	1.06
529.998	1.07
530.344	1.07
530.691	1.07
531.037	1.08
531.384	1.08
531.73	1.07
532.076	1.08
532.423	1.09
532.769	1.08
533.115	1.09
533.461	1.08
533.807	1.09
534.154	1.08
534.5	1.09
534.846	1.1
535.192	1.1
535.537	1.11
535.883	1.11
536.229	1.11
536.575	1.11
536.921	1.11
537.266	1.12
537.612	1.12
537.957	1.12
538.303	1.11
538.649	1.11
538.994	1.11
539.339	1.12
539.685	1.12
540.03	1.13
540.375	1.13
540.721	1.13
541.066	1.13
541.411	1.14
541.756	1.13
542.101	1.13
542.446	1.13
542.791	1.13
543.136	1.13
543.481	1.13
543.825	1.12
544.17	1.12
544.515	1.15
544.86	1.13
545.204	1.13
545.549	1.14
545.893	1.14
546.238	1.14
546.582	1.14
546.927	1.15
547.271	1.15
547.615	1.14
547.96	1.15
548.304	1.14
548.648	1.15
548.992	1.15
549.336	1.15
549.68	1.15
550.024	1.15
550.368	1.15
550.712	1.14
551.056	1.15
551.4	1.14
551.743	1.15
552.087	1.15
552.431	1.15
552.774	1.15
553.118	1.14
553.462	1.15
553.805	1.15
554.148	1.15
554.492	1.14
554.835	1.14
555.178	1.14
555.522	1.14
555.865	1.13
556.208	1.13
556.551	1.13
556.894	1.14
557.237	1.14
557.58	1.14
557.923	1.14
558.266	1.13
558.609	1.13
558.952	1.13
559.294	1.13
559.637	1.13
559.98	1.13
560.322	1.12
560.665	1.12
561.007	1.13
561.35	1.12
561.692	1.12
562.034	1.12
562.377	1.11
562.719	1.12
563.061	1.11
563.403	1.11
563.745	1.11
564.088	1.11
564.43	1.11
564.772	1.11
565.113	1.11
565.455	1.11
565.797	1.1
566.139	1.1
566.481	1.1
566.822	1.1
567.164	1.09
567.506	1.09
567.847	1.1
568.189	1.08
568.53	1.09
568.872	1.1
569.213	1.09
569.554	1.08
569.895	1.08
570.237	1.08
570.578	1.07
570.919	1.07
571.26	1.07
571.601	1.07
571.942	1.07
572.283	1.06
572.624	1.06
572.965	1.06
573.306	1.06
573.646	1.06
573.987	1.06
574.328	1.06
574.668	1.04
575.009	1.04
575.349	1.05
575.69	1.04
576.03	1.04
576.37	1.04
576.711	1.03
577.051	1.03
577.391	1.03
577.731	1.03
578.072	1.02
578.412	1.02
578.752	1.02
579.092	1.01
579.431	1.01
579.771	0.99
580.111	0.99
580.451	1.01
580.791	1.01
581.13	1.01
581.47	1
581.81	1
582.149	0.99
582.489	1
582.828	0.98
583.167	0.96
583.507	0.93
583.846	0.93
584.185	0.97
584.525	0.98
584.864	0.98
585.203	0.99
585.542	0.99
585.881	0.98
586.22	0.98
586.559	0.97
586.898	0.96
587.236	0.96
587.575	0.96
587.914	0.97
588.252	0.98
588.591	0.97
588.93	0.97
589.268	0.96
589.607	0.96
589.945	0.96
590.283	0.96
590.622	0.96
590.96	0.97
591.298	0.96
591.636	0.96
591.974	0.96
592.313	0.96
592.651	0.96
592.989	0.96
593.326	0.96
593.664	0.95
594.002	0.96
594.34	0.95
594.678	0.95
595.015	0.95
595.353	0.94
595.691	0.95
596.028	0.96
596.366	0.95
596.703	0.95
597.04	0.95
597.378	0.95
597.715	0.95
598.052	0.95
598.389	0.95
598.726	0.94
599.064	0.94
599.401	0.94
599.738	0.94
600.074	0.94
600.411	0.94
600.748	0.93
601.085	0.93
601.422	0.93
601.758	0.93
602.095	0.93
602.432	0.93
602.768	0.93
603.105	0.92
603.441	0.93
603.777	0.93
604.114	0.93
604.45	0.92
604.786	0.92
605.122	0.92
605.459	0.91
605.795	0.91
606.131	0.91
606.467	0.91
606.803	0.91
607.139	0.9
607.474	0.9
607.81	0.9
608.146	0.89
608.482	0.9
608.817	0.89
609.153	0.89
609.488	0.88
609.824	0.88
610.159	0.89
610.495	0.88
610.83	0.88
611.165	0.88
611.5	0.87
611.836	0.87
612.171	0.87
612.506	0.87
612.841	0.87
613.176	0.85
613.511	0.86
613.845	0.85
614.18	0.85
614.515	0.85
614.85	0.84
615.184	0.85
615.519	0.84
615.854	0.83
616.188	0.82
616.523	0.83
616.857	0.82
617.191	0.82
617.526	0.82
617.86	0.82
618.194	0.81
618.528	0.81
618.862	0.81
619.196	0.81
619.53	0.8
619.864	0.8
620.198	0.8
620.532	0.79
620.866	0.8
621.2	0.78
621.533	0.78
621.867	0.78
622.201	0.78
622.534	0.77
622.868	0.77
623.201	0.77
623.534	0.76
623.868	0.76
624.201	0.76
624.534	0.75
624.868	0.75
625.201	0.75
625.534	0.74
625.867	0.75
626.2	0.74
626.533	0.74
626.865	0.74
627.198	0.73
627.531	0.73
627.864	0.72
628.196	0.72
628.529	0.71
628.862	0.71
629.194	0.71
629.527	0.7
629.859	0.7
630.191	0.7
630.524	0.7
630.856	0.69
631.188	0.68
631.52	0.68
631.852	0.67
632.184	0.68
632.516	0.67
632.848	0.67
633.18	0.66
633.512	0.66
633.844	0.65
634.175	0.65
634.507	0.65
634.839	0.64
635.17	0.64
635.502	0.64
635.833	0.63
636.165	0.63
636.496	0.62
636.827	0.62
637.159	0.61
637.49	0.61
637.821	0.6
638.152	0.6
638.483	0.59
638.814	0.59
639.145	0.59
639.476	0.58
639.807	0.58
640.137	0.57
640.468	0.58
640.799	0.57
641.129	0.57
641.46	0.56
641.791	0.56
642.121	0.56
642.451	0.55
642.782	0.55
643.112	0.55
643.442	0.54
643.773	0.54
644.103	0.54
644.433	0.53
644.763	0.53
645.093	0.53
645.423	0.52
645.753	0.52
646.082	0.52
646.412	0.52
646.742	0.52
647.072	0.51
647.401	0.51
647.731	0.5
648.06	0.51
648.39	0.5
648.719	0.5
649.048	0.5
649.378	0.49
649.707	0.49
650.036	0.49
650.365	0.49
650.694	0.48
651.023	0.48
651.352	0.48
651.681	0.48
652.01	0.48
652.339	0.48
652.668	0.47
652.996	0.47
653.325	0.47
653.654	0.47
653.982	0.47
654.311	0.47
654.639	0.47
654.967	0.46
655.296	0.46
655.624	0.46
655.952	0.46
656.28	0.46
656.609	0.46
656.937	0.45
657.265	0.44
657.593	0.29
657.92	0.2
658.248	0.18
658.576	0.25
658.904	0.38
659.231	0.44
659.559	0.45
659.887	0.44
660.214	0.44
660.542	0.44
660.869	0.43
661.196	0.43
661.524	0.43
661.851	0.43
662.178	0.42
662.505	0.43
662.832	0.42
663.159	0.42
663.486	0.42
663.813	0.42
664.14	0.42
664.467	0.41
664.794	0.41
665.12	0.41
665.447	0.41
665.774	0.41
666.1	0.41
666.427	0.4
666.753	0.4
667.079	0.4
667.406	0.4
667.732	0.39
668.058	0.4
668.384	0.39
668.71	0.39
669.036	0.39
669.362	0.38
669.688	0.38
670.014	0.38
670.34	0.37
670.666	0.37
670.991	0.37
671.317	0.37
671.643	0.36
671.968	0.37
672.294	0.36
672.619	0.36
672.945	0.36
673.27	0.36
673.595	0.35
673.92	0.35
674.246	0.34
674.571	0.34
674.896	0.34
675.221	0.34
675.546	0.34
675.87	0.33
676.195	0.33
676.52	0.33
676.845	0.33
677.169	0.32
677.494	0.32
677.819	0.32
678.143	0.31
678.468	0.31
678.792	0.31
679.116	0.31
679.44	0.31
679.765	0.3
680.089	0.29
680.413	0.29
680.737	0.29
681.061	0.28
681.385	0.28
681.709	0.28
682.033	0.28
682.356	0.28
682.68	0.28
683.004	0.27
683.327	0.27
683.651	0.26
683.974	0.26
684.298	0.26
684.621	0.26
684.944	0.25
685.268	0.25
685.591	0.25
685.914	0.24
686.237	0.24
686.56	0.24
686.883	0.24
687.206	0.24
687.529	0.23
687.852	0.23
688.175	0.23
688.497	0.22
688.82	0.23
689.142	0.22
689.465	0.22
689.787	0.22
690.11	0.22
690.432	0.21
690.755	0.21
691.077	0.2
691.399	0.2
691.721	0.2
692.043	0.2
692.365	0.2
692.687	0.19
693.009	0.19
693.331	0.19
693.653	0.18
693.974	0.19
694.296	0.18
694.618	0.18
694.939	0.18
695.261	0.18
695.582	0.17
695.904	0.17
696.225	0.17
696.546	0.17
696.868	0.17
697.189	0.17
697.51	0.17
697.831	0.17
698.152	0.17
698.473	0.16
698.794	0.16
699.114	0.16
699.435	0.15
699.756	0.16
700.077	0.16
700.397	0.16
700.718	0.15
701.038	0.15
701.359	0.15
701.679	0.15
701.999	0.15
702.32	0.15
702.64	0.15
702.96	0.15
703.28	0.15
703.6	0.15
703.92	0.15
704.24	0.14
704.56	0.14
704.879	0.14
705.199	0.14
705.519	0.14
705.838	0.14
706.158	0.14
706.478	0.14
706.797	0.14
707.116	0.14
707.436	0.14
707.755	0.14
708.074	0.14
708.393	0.13
708.712	0.13
709.031	0.12
709.35	0.12
709.669	0.12
709.988	0.12
710.307	0.13
710.626	0.13
710.944	0.13
711.263	0.13
711.582	0.13
711.9	0.13
712.219	0.13
712.537	0.13
712.855	0.13
713.174	0.13
713.492	0.13
713.81	0.13
714.128	0.13
714.446	0.13
714.764	0.13
715.082	0.12
715.4	0.13
715.718	0.13
716.035	0.13
716.353	0.13
716.671	0.13
716.988	0.13
717.306	0.13
717.623	0.13
717.941	0.13
718.258	0.13
718.575	0.13
718.893	0.13
719.21	0.13
719.527	0.13
719.844	0.13
720.161	0.13
720.478	0.13
720.795	0.14
721.112	0.14
721.428	0.13
721.745	0.13
722.062	0.14
722.378	0.14
722.695	0.14
723.011	0.14
723.328	0.14
723.644	0.14
723.96	0.14
724.276	0.14
724.593	0.14
724.909	0.14
725.225	0.14
725.541	0.14
725.857	0.13
726.173	0.14
726.488	0.14
726.804	0.14
727.12	0.14
727.435	0.14
727.751	0.14
728.067	0.13
728.382	0.14
728.697	0.14
729.013	0.14
729.328	0.13
729.643	0.14
729.958	0.14
730.273	0.13
730.588	0.13
730.903	0.13
731.218	0.13
731.533	0.13
731.848	0.13
732.163	0.13
732.477	0.13
732.792	0.13
733.107	0.12
733.421	0.13
733.736	0.13
734.05	0.13
734.364	0.13
734.678	0.13
734.993	0.13
735.307	0.13
735.621	0.13
735.935	0.13
736.249	0.13
736.563	0.13
736.877	0.13
737.19	0.13
737.504	0.13
737.818	0.13
738.131	0.12
738.445	0.13
738.758	0.13
739.072	0.13
739.385	0.12
739.698	0.12
740.012	0.13
740.325	0.12
740.638	0.12
740.951	0.12
741.264	0.11
741.577	0.12
741.89	0.12
742.203	0.12
742.515	0.12
742.828	0.12
743.141	0.11
743.453	0.11
743.766	0.11
744.078	0.11
744.391	0.11
744.703	0.11
745.015	0.11
745.327	0.11
745.639	0.11
745.952	0.11
746.264	0.11
746.575	0.1
746.887	0.1
747.199	0.1
747.511	0.1
747.823	0.1
748.134	0.1
748.446	0.1
748.757	0.1
749.069	0.1
749.38	0.1
749.692	0.1
750.003	0.1
750.314	0.09
750.625	0.09
750.936	0.09
751.248	0.09
751.559	0.09
751.869	0.09
752.18	0.09
752.491	0.09
752.802	0.09
753.112	0.09
753.423	0.09
753.734	0.08
754.044	0.08
754.355	0.08
754.665	0.08
754.975	0.08
755.285	0.08
755.596	0.08
755.906	0.08
756.216	0.08
756.526	0.08
756.836	0.08
757.146	0.08
757.455	0.08
757.765	0.08
758.075	0.08
758.385	0.07
758.694	0.07
759.004	0.07
759.313	0.07
759.622	0.07
759.932	0.07
760.241	0.07
760.55	0.07
760.859	0.07
761.168	0.08
761.477	0.07
761.786	0.07
762.095	0.07
762.404	0.07
762.713	0.07
763.021	0.07
763.33	0.07
763.639	0.07
763.947	0.07
764.256	0.07
764.564	0.07
764.872	0.07
765.181	0.07
765.489	0.07
765.797	0.07
766.105	0.07
766.413	0.07
766.721	0.07
767.029	0.07
767.337	0.07
767.644	0.07
767.952	0.07
768.26	0.07
768.567	0.07
768.875	0.07
769.182	0.07
769.49	0.07
769.797	0.07
770.104	0.07
770.411	0.07
770.718	0.07
771.026	0.07
771.333	0.07
771.639	0.07
771.946	0.07
772.253	0.07
772.56	0.07
772.867	0.07
773.173	0.07
773.48	0.07
773.786	0.07
774.093	0.07
774.399	0.07
774.705	0.07
775.012	0.07
775.318	0.07
775.624	0.06
775.93	0.07
776.236	0.07
776.542	0.07
776.848	0.07
777.154	0.07
777.459	0.07
777.765	0.07
778.071	0.07
778.376	0.07
778.682	0.07
778.987	0.07
779.292	0.07
779.598	0.07
779.903	0.07
780.208	0.07
780.513	0.07
780.818	0.07
781.123	0.07
781.428	0.08
781.733	0.08
782.038	0.07
782.343	0.08
782.647	0.07
782.952	0.08
783.256	0.08
783.561	0.08
783.865	0.08
784.17	0.08
784.474	0.08
784.778	0.08
785.082	0.08
785.386	0.08
785.69	0.08
785.994	0.08
786.298	0.08
786.602	0.08
786.906	0.08
787.209	0.08
787.513	0.08
787.817	0.08
788.12	0.08
788.424	0.08
788.727	0.08
789.03	0.08
789.333	0.08
789.637	0.08
789.94	0.08
790.243	0.08
790.546	0.08
790.849	0.08
791.152	0.08
791.454	0.08
791.757	0.08
792.06	0.08
792.362	0.08
792.665	0.08
792.967	0.08
793.27	0.08
793.572	0.08
793.874	0.08
794.177	0.08
794.479	0.09
794.781	0.08
795.083	0.08
795.385	0.09
795.687	0.09
795.989	0.09
796.29	0.09
796.592	0.09
796.894	0.09
797.195	0.09
797.497	0.09
797.798	0.09
798.1	0.1
798.401	0.09
798.702	0.1
799.003	0.09
799.304	0.09
799.605	0.09
799.906	0.1
800.207	0.09
800.508	0.09
800.809	0.1
801.11	0.09
801.41	0.09
801.711	0.1
802.011	0.1
802.312	0.09
802.612	0.1
802.913	0.09
803.213	0.1
803.513	0.1
803.813	0.1
804.113	0.09
804.413	0.1
804.713	0.1
805.013	0.1
805.313	0.1
805.613	0.1
805.912	0.1
806.212	0.1
806.511	0.1
806.811	0.1
807.11	0.1
807.41	0.1
807.709	0.1
808.008	0.1
808.307	0.1
808.606	0.1
808.905	0.1
809.204	0.1
809.503	0.11
809.802	0.11
810.101	0.11
810.399	0.1
810.698	0.11
810.997	0.11
811.295	0.11
811.593	0.11
811.892	0.11
812.19	0.11
812.488	0.11
812.786	0.11
813.084	0.11
813.383	0.12
813.68	0.12
813.978	0.12
814.276	0.11
814.574	0.11
814.872	0.12
815.169	0.12
815.467	0.12
815.764	0.11
816.062	0.12
816.359	0.11
816.656	0.12
816.954	0.12
817.251	0.12
817.548	0.12
817.845	0.12
818.142	0.12
818.439	0.12
818.735	0.12
819.032	0.12
819.329	0.12
819.626	0.13
819.922	0.12
820.219	0.13
820.515	0.13
820.811	0.13
821.108	0.12
821.404	0.13
821.7	0.13
821.996	0.13
822.292	0.13
822.588	0.13
822.884	0.13
823.18	0.13
823.475	0.12
823.771	0.13
824.067	0.12
824.362	0.13
824.658	0.13
824.953	0.13
825.249	0.13
825.544	0.13
825.839	0.13
826.134	0.14
826.429	0.14
826.724	0.14
827.019	0.13
827.314	0.13
827.609	0.14
827.904	0.14
828.198	0.14
828.493	0.14
828.787	0.13
829.082	0.14
829.376	0.13
829.671	0.13
829.965	0.14
830.259	0.14
830.553	0.14
830.847	0.15
831.141	0.14
831.435	0.15
831.729	0.15
832.023	0.15
832.317	0.15
832.61	0.15
832.904	0.15
833.197	0.15
833.491	0.15
833.784	0.15
834.077	0.15
834.371	0.15
834.664	0.15
834.957	0.14
835.25	0.15
835.543	0.15
835.836	0.15
836.129	0.15
836.421	0.16
836.714	0.15
837.007	0.15
837.299	0.15
837.592	0.16
837.884	0.15
838.177	0.15
838.469	0.16
838.761	0.15
839.053	0.16
839.345	0.16
839.637	0.16
839.929	0.16
840.221	0.16
840.513	0.16
840.805	0.16
841.096	0.16
841.388	0.16
841.68	0.16
841.971	0.16
842.262	0.16
842.554	0.16
842.845	0.17
843.136	0.18
843.427	0.16
843.718	0.16
844.009	0.17
844.3	0.18
844.591	0.17
844.882	0.17
845.173	0.18
845.463	0.17
845.754	0.17
846.044	0.17
846.335	0.17
846.625	0.17
846.915	0.16
847.206	0.17
847.496	0.18
847.786	0.18
848.076	0.18
848.366	0.17
848.656	0.18
848.945	0.18
849.235	0.17
849.525	0.17
849.814	0.17
850.104	0.17
850.393	0.17
850.683	0.18
850.972	0.17
851.261	0.18
851.551	0.19
851.84	0.18
852.129	0.17
852.418	0.19
852.707	0.18
852.995	0.17
853.284	0.18
853.573	0.18
853.862	0.18
854.15	0.19
854.439	0.19
854.727	0.19
855.015	0.19
855.304	0.2
855.592	0.18
855.88	0.18
856.168	0.2
856.456	0.19
856.744	0.18
857.032	0.19
857.32	0.2
857.607	0.21
857.895	0.19
858.183	0.21
858.47	0.2
858.757	0.19
859.045	0.2
859.332	0.19
859.619	0.19
859.907	0.2
860.194	0.19
860.481	0.21
860.768	0.19
861.054	0.21
861.341	0.2
861.628	0.2
861.915	0.21
862.201	0.18
862.488	0.2
862.774	0.2
863.061	0.21
863.347	0.22
863.633	0.21
863.919	0.2
864.205	0.2
864.491	0.18
864.777	0.22
865.063	0.19
865.349	0.21
865.635	0.2
865.92	0.19
866.206	0.2
866.492	0.17
866.777	0.2
867.062	0.2
867.348	0.18
867.633	0.2
867.918	0.24
868.203	0.2
868.488	0.2
868.773	0.21
869.058	0.18
869.343	0.25
869.628	0.18
869.912	0.16
870.197	0.19
870.482	0.25
870.766	0.19
871.05	0.18
871.335	0.21
871.619	0.18
871.903	0.21
872.187	0.23
872.471	0.25
872.755	0.23
873.039	0.17
873.323	0.18
873.607	0.22
873.89	0.14
874.174	0.25
874.458	0.11
874.741	0.29
875.024	0.24
875.308	0.25
875.591	0.23
875.874	0.24
876.157	0.18
876.44	0.25
876.723	0.18
877.006	0.26
877.289	0.27
877.572	0.36
877.854	0.21
878.137	0.25
878.42	0.13
878.702	0.09
878.984	0.21
879.267	0.19
879.549	0.31
879.831	0.33
880.113	0.1
880.395	0.16
880.677	0.14
880.959	0.18
