Data from Rubpy_BV_1800_EDTA_Buffered_Absorbance_16-55-24-730.txt Node
Date: Wed Jul 01 16:55:24 BST 2026
User: fpm-admin
Spectrometer: OFX00224
Trigger mode: 0
Integration Time (sec): 7.000000E-2
Scans to average: 3
Nonlinearity correction enabled: false
Boxcar width: 0
Storing dark spectrum: false
XAxis mode: Wavelengths
Number of Pixels in Spectrum: 2136
>>>>>Begin Spectral Data<<<<<
154.91	-0
155.289	-0.29
155.669	-0
156.048	0.26
156.428	-0
156.807	0.49
157.186	-0
157.566	0.22
157.945	-0
158.325	-0
158.704	-0.25
159.083	0.56
159.462	-0
159.842	0.16
160.221	-0
160.6	-0
160.979	-0
161.359	-0
161.738	-0
162.117	-0
162.496	-0.35
162.875	-0.11
163.254	0.38
163.633	-0
164.012	-0.14
164.391	0.04
164.77	0.13
165.149	-0
165.528	-0
165.907	-0
166.286	-0.03
166.665	0.72
167.044	-0.25
167.423	1.03
167.802	-0.54
168.181	-0.9
168.559	-0.45
168.938	-0
169.317	-0
169.696	-0.6
170.074	-0
170.453	0.18
170.832	-0
171.21	0.09
171.589	-0
171.968	-0
172.346	-0
172.725	-0
173.103	0.33
173.482	0.37
173.861	0.3
174.239	0.05
174.617	-0.19
174.996	-0
175.374	-0.45
175.753	-0.74
176.131	0.01
176.51	-0.34
176.888	0.3
177.266	-0
177.645	0.04
178.023	0.46
178.401	-0.27
178.779	-0.12
179.158	-0
179.536	0.16
179.914	-0
180.292	0.1
180.67	-0
181.048	0.94
181.427	-0
181.805	-0.48
182.183	-0.92
182.561	0.22
182.939	0.13
183.317	-0.54
183.695	-0.09
184.073	-0
184.451	-0.64
184.829	-0.36
185.206	-0.31
185.584	-0
185.962	-0.43
186.34	-0.13
186.718	-0
187.096	-0
187.473	-0
187.851	0.32
188.229	-0.45
188.607	0.25
188.984	0.32
189.362	0.29
189.74	0.48
190.117	0.29
190.495	0.35
190.872	0.32
191.25	0.42
191.627	0.37
192.005	0.23
192.382	0.28
192.76	0.45
193.137	0.59
193.515	0.28
193.892	0.39
194.269	0.4
194.647	0.49
195.024	0.36
195.401	0.45
195.779	0.52
196.156	0.68
196.533	0.4
196.91	0.35
197.288	0.42
197.665	0.28
198.042	0.23
198.419	0.35
198.796	0.25
199.173	0.43
199.55	0.2
199.927	0.28
200.304	0.37
200.681	0.24
201.058	0.29
201.435	0.61
201.812	0.32
202.189	0.33
202.566	0.46
202.943	0.29
203.32	0.45
203.697	0.38
204.073	0.27
204.45	0.58
204.827	0.32
205.204	0.24
205.58	0.55
205.957	0.37
206.334	0.32
206.71	0.42
207.087	0.42
207.464	0.51
207.84	0.49
208.217	0.45
208.593	0.25
208.97	0.31
209.346	0.44
209.723	0.39
210.099	0.47
210.476	0.42
210.852	0.69
211.228	0.39
211.605	0.35
211.981	0.46
212.357	0.54
212.733	0.31
213.11	0.37
213.486	0.41
213.862	0.33
214.238	0.42
214.614	0.38
214.991	0.35
215.367	0.36
215.743	0.45
216.119	0.37
216.495	0.56
216.871	0.41
217.247	0.48
217.623	0.27
217.999	0.48
218.375	0.44
218.751	0.32
219.127	0.6
219.502	0.33
219.878	0.37
220.254	0.4
220.63	0.54
221.006	0.3
221.381	0.37
221.757	0.53
222.133	0.34
222.508	0.85
222.884	0.27
223.26	0.25
223.635	0.47
224.011	0.43
224.386	0.42
224.762	0.48
225.137	0.43
225.513	0.23
225.888	0.27
226.264	0.3
226.639	0.37
227.014	0.39
227.39	0.33
227.765	0.41
228.14	0.38
228.516	0.42
228.891	0.37
229.266	0.33
229.641	0.47
230.017	0.46
230.392	0.43
230.767	0.45
231.142	0.67
231.517	0.44
231.892	0.48
232.267	0.31
232.642	0.44
233.017	0.24
233.392	0.58
233.767	0.46
234.142	0.32
234.517	0.33
234.892	0.37
235.267	0.41
235.641	0.38
236.016	0.25
236.391	0.43
236.766	0.32
237.14	0.36
237.515	0.58
237.89	0.35
238.264	0.43
238.639	0.29
239.014	0.7
239.388	0.65
239.763	0.39
240.137	0.26
240.512	0.41
240.886	0.34
241.261	0.29
241.635	0.36
242.009	0.44
242.384	0.3
242.758	0.41
243.132	0.36
243.507	0.49
243.881	0.35
244.255	0.47
244.629	0.55
245.004	0.53
245.378	0.39
245.752	0.4
246.126	0.47
246.5	0.42
246.874	0.28
247.248	0.37
247.622	0.4
247.996	0.48
248.37	0.53
248.744	0.39
249.118	0.14
249.492	0.26
249.866	0.34
250.24	0.5
250.613	0.4
250.987	0.51
251.361	0.4
251.735	0.4
252.108	0.51
252.482	0.31
252.856	0.26
253.229	0.48
253.603	0.32
253.977	0.52
254.35	0.49
254.724	0.46
255.097	0.43
255.471	0.37
255.844	0.42
256.218	0.39
256.591	0.27
256.964	0.45
257.338	0.41
257.711	0.43
258.084	0.39
258.458	0.37
258.831	0.46
259.204	0.41
259.577	0.39
259.95	0.48
260.323	0.37
260.697	0.52
261.07	0.35
261.443	0.48
261.816	0.41
262.189	0.43
262.562	0.43
262.935	0.38
263.308	0.35
263.68	0.45
264.053	0.43
264.426	0.52
264.799	0.33
265.172	0.4
265.545	0.28
265.917	0.47
266.29	0.44
266.663	0.65
267.035	0.58
267.408	0.48
267.781	0.4
268.153	0.45
268.526	0.41
268.898	0.38
269.271	0.38
269.643	0.41
270.016	0.57
270.388	0.29
270.76	0.46
271.133	0.33
271.505	0.48
271.877	0.34
272.25	0.32
272.622	0.41
272.994	0.3
273.366	0.5
273.739	0.4
274.111	0.33
274.483	0.27
274.855	0.4
275.227	0.46
275.599	0.48
275.971	0.46
276.343	0.38
276.715	0.43
277.087	0.4
277.459	0.52
277.831	0.4
278.203	0.46
278.574	0.44
278.946	0.36
279.318	0.38
279.69	0.41
280.061	0.41
280.433	0.35
280.805	0.42
281.176	0.46
281.548	0.46
281.92	0.51
282.291	0.37
282.663	0.37
283.034	0.37
283.406	0.38
283.777	0.5
284.148	0.42
284.52	0.41
284.891	0.54
285.262	0.4
285.634	0.41
286.005	0.39
286.376	0.46
286.747	0.36
287.119	0.38
287.49	0.58
287.861	0.44
288.232	0.34
288.603	0.46
288.974	0.43
289.345	0.52
289.716	0.41
290.087	0.37
290.458	0.31
290.829	0.37
291.2	0.41
291.571	0.37
291.941	0.42
292.312	0.32
292.683	0.37
293.054	0.51
293.424	0.4
293.795	0.32
294.166	0.35
294.536	0.45
294.907	0.39
295.277	0.47
295.648	0.42
296.018	0.49
296.389	0.26
296.759	0.38
297.13	0.5
297.5	0.47
297.871	0.41
298.241	0.58
298.611	0.56
298.981	0.46
299.352	0.45
299.722	0.41
300.092	0.46
300.462	0.42
300.832	0.43
301.202	0.48
301.573	0.37
301.943	0.37
302.313	0.49
302.683	0.42
303.053	0.47
303.422	0.42
303.792	0.38
304.162	0.39
304.532	0.36
304.902	0.38
305.272	0.38
305.641	0.45
306.011	0.4
306.381	0.39
306.75	0.44
307.12	0.34
307.49	0.35
307.859	0.37
308.229	0.37
308.598	0.37
308.968	0.34
309.337	0.36
309.707	0.34
310.076	0.31
310.445	0.36
310.815	0.3
311.184	0.35
311.553	0.35
311.923	0.32
312.292	0.33
312.661	0.35
313.03	0.34
313.399	0.33
313.768	0.32
314.137	0.32
314.506	0.34
314.875	0.35
315.244	0.32
315.613	0.35
315.982	0.36
316.351	0.37
316.72	0.34
317.089	0.36
317.458	0.36
317.826	0.39
318.195	0.37
318.564	0.39
318.933	0.41
319.301	0.39
319.67	0.4
320.038	0.4
320.407	0.43
320.775	0.41
321.144	0.43
321.512	0.41
321.881	0.43
322.249	0.44
322.618	0.45
322.986	0.45
323.354	0.46
323.723	0.46
324.091	0.46
324.459	0.49
324.827	0.48
325.195	0.49
325.564	0.51
325.932	0.5
326.3	0.53
326.668	0.52
327.036	0.52
327.404	0.54
327.772	0.54
328.14	0.56
328.508	0.55
328.875	0.54
329.243	0.57
329.611	0.58
329.979	0.6
330.346	0.61
330.714	0.6
331.082	0.62
331.449	0.63
331.817	0.63
332.185	0.66
332.552	0.66
332.92	0.68
333.287	0.69
333.655	0.7
334.022	0.71
334.389	0.72
334.757	0.74
335.124	0.76
335.491	0.77
335.859	0.79
336.226	0.79
336.593	0.81
336.96	0.84
337.327	0.85
337.695	0.86
338.062	0.88
338.429	0.89
338.796	0.9
339.163	0.93
339.53	0.94
339.897	0.97
340.263	0.99
340.63	0.99
340.997	1.01
341.364	1.03
341.731	1.04
342.097	1.05
342.464	1.07
342.831	1.1
343.197	1.11
343.564	1.13
343.931	1.14
344.297	1.16
344.664	1.19
345.03	1.19
345.396	1.22
345.763	1.25
346.129	1.25
346.496	1.26
346.862	1.29
347.228	1.3
347.594	1.32
347.961	1.33
348.327	1.36
348.693	1.38
349.059	1.39
349.425	1.4
349.791	1.41
350.157	1.41
350.523	1.45
350.889	1.45
351.255	1.46
351.621	1.49
351.987	1.52
352.353	1.5
352.719	1.56
353.084	1.55
353.45	1.56
353.816	1.58
354.181	1.58
354.547	1.62
354.913	1.62
355.278	1.64
355.644	1.66
356.009	1.67
356.375	1.7
356.74	1.7
357.106	1.74
357.471	1.74
357.836	1.73
358.202	1.78
358.567	1.8
358.932	1.83
359.297	1.85
359.663	1.82
360.028	1.85
360.393	1.9
360.758	1.87
361.123	1.89
361.488	1.93
361.853	1.97
362.218	1.94
362.583	1.98
362.948	2.03
363.312	1.97
363.677	1.96
364.042	2.02
364.407	2.06
364.772	2.06
365.136	2
365.501	2.05
365.865	2.19
366.23	2.04
366.595	2.07
366.959	2.1
367.324	2.03
367.688	2.1
368.052	2.12
368.417	2.17
368.781	2.08
369.145	2.14
369.51	2.15
369.874	2.22
370.238	2.14
370.602	2.05
370.967	2.27
371.331	2.04
371.695	2.13
372.059	2.15
372.423	2.08
372.787	2.08
373.151	2.07
373.515	2.14
373.878	2.19
374.242	2.09
374.606	2.07
374.97	2.09
375.334	2.15
375.697	2.1
376.061	2.16
376.425	2.1
376.788	2.14
377.152	2.05
377.515	2.12
377.879	2.07
378.242	2.02
378.606	2.05
378.969	2.04
379.333	2.01
379.696	1.99
380.059	1.99
380.422	1.97
380.786	1.94
381.149	1.94
381.512	1.95
381.875	1.89
382.238	1.87
382.601	1.89
382.964	1.85
383.327	1.82
383.69	1.82
384.053	1.74
384.416	1.77
384.779	1.73
385.142	1.75
385.504	1.73
385.867	1.74
386.23	1.71
386.593	1.67
386.955	1.66
387.318	1.67
387.68	1.67
388.043	1.64
388.405	1.63
388.768	1.62
389.13	1.63
389.493	1.61
389.855	1.56
390.217	1.58
390.58	1.57
390.942	1.54
391.304	1.52
391.666	1.51
392.028	1.46
392.391	1.45
392.753	1.46
393.115	1.41
393.477	1.39
393.839	1.39
394.201	1.37
394.563	1.36
394.924	1.36
395.286	1.37
395.648	1.35
396.01	1.37
396.371	1.38
396.733	1.38
397.095	1.37
397.456	1.42
397.818	1.44
398.18	1.45
398.541	1.47
398.903	1.51
399.264	1.53
399.625	1.55
399.987	1.57
400.348	1.61
400.709	1.63
401.071	1.62
401.432	1.61
401.793	1.6
402.154	1.61
402.515	1.58
402.876	1.58
403.238	1.52
403.599	1.47
403.96	1.46
404.32	1.39
404.681	1.37
405.042	1.3
405.403	1.25
405.764	1.21
406.125	1.16
406.485	1.1
406.846	1.05
407.207	0.99
407.567	0.94
407.928	0.91
408.288	0.86
408.649	0.8
409.009	0.76
409.37	0.73
409.73	0.68
410.091	0.65
410.451	0.62
410.811	0.59
411.171	0.56
411.532	0.54
411.892	0.51
412.252	0.49
412.612	0.47
412.972	0.44
413.332	0.43
413.692	0.42
414.052	0.4
414.412	0.38
414.772	0.37
415.132	0.36
415.492	0.34
415.851	0.34
416.211	0.33
416.571	0.32
416.931	0.31
417.29	0.3
417.65	0.3
418.009	0.29
418.369	0.28
418.728	0.28
419.088	0.27
419.447	0.26
419.807	0.26
420.166	0.25
420.525	0.24
420.884	0.25
421.244	0.24
421.603	0.24
421.962	0.23
422.321	0.23
422.68	0.23
423.039	0.22
423.398	0.21
423.757	0.22
424.116	0.22
424.475	0.21
424.834	0.2
425.193	0.2
425.551	0.21
425.91	0.2
426.269	0.2
426.628	0.19
426.986	0.2
427.345	0.19
427.703	0.2
428.062	0.19
428.42	0.2
428.779	0.19
429.137	0.2
429.496	0.19
429.854	0.19
430.212	0.18
430.57	0.18
430.929	0.19
431.287	0.18
431.645	0.18
432.003	0.18
432.361	0.18
432.719	0.18
433.077	0.18
433.435	0.18
433.793	0.18
434.151	0.17
434.509	0.19
434.866	0.18
435.224	0.18
435.582	0.18
435.94	0.18
436.297	0.19
436.655	0.18
437.012	0.18
437.37	0.18
437.727	0.17
438.085	0.18
438.442	0.18
438.8	0.19
439.157	0.17
439.514	0.18
439.872	0.18
440.229	0.19
440.586	0.18
440.943	0.19
441.3	0.19
441.657	0.19
442.014	0.19
442.371	0.18
442.728	0.18
443.085	0.19
443.442	0.17
443.799	0.18
444.156	0.19
444.513	0.19
444.869	0.18
445.226	0.19
445.583	0.19
445.939	0.19
446.296	0.18
446.652	0.18
447.009	0.19
447.365	0.19
447.722	0.19
448.078	0.18
448.434	0.19
448.791	0.2
449.147	0.2
449.503	0.19
449.859	0.19
450.215	0.19
450.571	0.2
450.928	0.19
451.284	0.2
451.64	0.2
451.995	0.2
452.351	0.2
452.707	0.19
453.063	0.19
453.419	0.19
453.775	0.19
454.13	0.19
454.486	0.19
454.842	0.2
455.197	0.19
455.553	0.19
455.908	0.19
456.264	0.18
456.619	0.19
456.975	0.18
457.33	0.18
457.685	0.18
458.04	0.18
458.396	0.17
458.751	0.17
459.106	0.16
459.461	0.16
459.816	0.17
460.171	0.16
460.526	0.16
460.881	0.15
461.236	0.15
461.591	0.14
461.946	0.14
462.301	0.14
462.655	0.14
463.01	0.14
463.365	0.13
463.719	0.12
464.074	0.12
464.428	0.12
464.783	0.1
465.137	0.11
465.492	0.11
465.846	0.12
466.201	0.11
466.555	0.12
466.909	0.13
467.263	0.13
467.618	0.13
467.972	0.14
468.326	0.13
468.68	0.13
469.034	0.11
469.388	0.12
469.742	0.12
470.096	0.13
470.45	0.14
470.804	0.14
471.157	0.13
471.511	0.14
471.865	0.14
472.218	0.15
472.572	0.15
472.926	0.15
473.279	0.17
473.633	0.17
473.986	0.19
474.34	0.2
474.693	0.21
475.046	0.22
475.4	0.24
475.753	0.25
476.106	0.25
476.459	0.27
476.812	0.28
477.165	0.29
477.519	0.3
477.872	0.31
478.224	0.32
478.577	0.33
478.93	0.34
479.283	0.35
479.636	0.35
479.989	0.37
480.341	0.37
480.694	0.38
481.047	0.4
481.399	0.4
481.752	0.41
482.104	0.42
482.457	0.43
482.809	0.44
483.162	0.44
483.514	0.45
483.866	0.46
484.219	0.47
484.571	0.48
484.923	0.47
485.275	0.48
485.627	0.49
485.979	0.5
486.331	0.51
486.683	0.51
487.035	0.52
487.387	0.54
487.739	0.55
488.091	0.55
488.443	0.56
488.794	0.56
489.146	0.56
489.498	0.57
489.849	0.58
490.201	0.57
490.552	0.58
490.904	0.59
491.255	0.59
491.607	0.6
491.958	0.61
492.309	0.62
492.661	0.62
493.012	0.62
493.363	0.63
493.714	0.63
494.065	0.64
494.416	0.64
494.767	0.65
495.118	0.66
495.469	0.67
495.82	0.67
496.171	0.68
496.522	0.68
496.872	0.69
497.223	0.69
497.574	0.7
497.924	0.71
498.275	0.72
498.626	0.72
498.976	0.72
499.327	0.74
499.677	0.74
500.027	0.74
500.378	0.75
500.728	0.76
501.078	0.76
501.428	0.77
501.779	0.78
502.129	0.78
502.479	0.78
502.829	0.79
503.179	0.8
503.529	0.8
503.879	0.81
504.229	0.81
504.578	0.82
504.928	0.81
505.278	0.83
505.628	0.84
505.977	0.84
506.327	0.84
506.676	0.85
507.026	0.85
507.375	0.86
507.725	0.87
508.074	0.87
508.424	0.86
508.773	0.87
509.122	0.89
509.471	0.89
509.82	0.89
510.17	0.89
510.519	0.91
510.868	0.9
511.217	0.91
511.566	0.92
511.915	0.92
512.263	0.93
512.612	0.93
512.961	0.93
513.31	0.94
513.659	0.94
514.007	0.95
514.356	0.95
514.704	0.95
515.053	0.97
515.401	0.97
515.75	0.96
516.098	0.98
516.447	0.98
516.795	0.98
517.143	0.98
517.491	0.99
517.839	1
518.188	0.99
518.536	1.01
518.884	1.01
519.232	1.01
519.58	1
519.928	1.01
520.275	1.02
520.623	1.03
520.971	1.02
521.319	1.03
521.666	1.03
522.014	1.04
522.362	1.04
522.709	1.05
523.057	1.05
523.404	1.05
523.752	1.07
524.099	1.06
524.446	1.06
524.794	1.07
525.141	1.07
525.488	1.07
525.835	1.07
526.182	1.09
526.529	1.08
526.876	1.08
527.223	1.08
527.57	1.1
527.917	1.09
528.264	1.09
528.611	1.11
528.958	1.1
529.304	1.1
529.651	1.11
529.998	1.11
530.344	1.11
530.691	1.11
531.037	1.12
531.384	1.13
531.73	1.12
532.076	1.13
532.423	1.13
532.769	1.13
533.115	1.13
533.461	1.14
533.807	1.14
534.154	1.13
534.5	1.15
534.846	1.15
535.192	1.13
535.537	1.15
535.883	1.15
536.229	1.16
536.575	1.16
536.921	1.16
537.266	1.16
537.612	1.15
537.957	1.16
538.303	1.15
538.649	1.15
538.994	1.16
539.339	1.17
539.685	1.16
540.03	1.18
540.375	1.18
540.721	1.17
541.066	1.17
541.411	1.17
541.756	1.19
542.101	1.18
542.446	1.19
542.791	1.18
543.136	1.18
543.481	1.18
543.825	1.19
544.17	1.19
544.515	1.19
544.86	1.17
545.204	1.19
545.549	1.19
545.893	1.19
546.238	1.19
546.582	1.19
546.927	1.18
547.271	1.19
547.615	1.2
547.96	1.2
548.304	1.2
548.648	1.19
548.992	1.2
549.336	1.19
549.68	1.19
550.024	1.2
550.368	1.18
550.712	1.2
551.056	1.19
551.4	1.2
551.743	1.19
552.087	1.19
552.431	1.19
552.774	1.19
553.118	1.18
553.462	1.19
553.805	1.19
554.148	1.19
554.492	1.19
554.835	1.19
555.178	1.19
555.522	1.18
555.865	1.18
556.208	1.18
556.551	1.19
556.894	1.19
557.237	1.17
557.58	1.19
557.923	1.18
558.266	1.17
558.609	1.18
558.952	1.18
559.294	1.18
559.637	1.18
559.98	1.17
560.322	1.16
560.665	1.17
561.007	1.16
561.35	1.16
561.692	1.15
562.034	1.17
562.377	1.17
562.719	1.16
563.061	1.16
563.403	1.16
563.745	1.16
564.088	1.16
564.43	1.15
564.772	1.15
565.113	1.15
565.455	1.16
565.797	1.15
566.139	1.14
566.481	1.15
566.822	1.15
567.164	1.14
567.506	1.13
567.847	1.14
568.189	1.14
568.53	1.13
568.872	1.13
569.213	1.12
569.554	1.13
569.895	1.12
570.237	1.12
570.578	1.13
570.919	1.12
571.26	1.11
571.601	1.12
571.942	1.11
572.283	1.1
572.624	1.1
572.965	1.1
573.306	1.09
573.646	1.09
573.987	1.09
574.328	1.1
574.668	1.09
575.009	1.08
575.349	1.08
575.69	1.08
576.03	1.08
576.37	1.08
576.711	1.06
577.051	1.07
577.391	1.07
577.731	1.07
578.072	1.07
578.412	1.06
578.752	1.06
579.092	1.05
579.431	1.05
579.771	1.03
580.111	1.03
580.451	1.04
580.791	1.04
581.13	1.04
581.47	1.04
581.81	1.03
582.149	1.03
582.489	1.03
582.828	1.02
583.167	1
583.507	0.97
583.846	0.97
584.185	1
584.525	1.02
584.864	1.02
585.203	1.03
585.542	1.03
585.881	1.02
586.22	1.02
586.559	1.01
586.898	1
587.236	1
587.575	1
587.914	1
588.252	1.01
588.591	1.01
588.93	1
589.268	1
589.607	1
589.945	1
590.283	1.01
590.622	1
590.96	1
591.298	1
591.636	1
591.974	1
592.313	0.99
592.651	0.99
592.989	1
593.326	1
593.664	0.99
594.002	0.99
594.34	0.99
594.678	0.99
595.015	0.98
595.353	0.98
595.691	0.99
596.028	0.99
596.366	0.99
596.703	0.98
597.04	0.99
597.378	0.98
597.715	0.99
598.052	0.99
598.389	0.98
598.726	0.97
599.064	0.98
599.401	0.97
599.738	0.98
600.074	0.97
600.411	0.97
600.748	0.97
601.085	0.97
601.422	0.96
601.758	0.96
602.095	0.96
602.432	0.96
602.768	0.96
603.105	0.96
603.441	0.96
603.777	0.96
604.114	0.96
604.45	0.96
604.786	0.95
605.122	0.95
605.459	0.94
605.795	0.94
606.131	0.94
606.467	0.94
606.803	0.94
607.139	0.94
607.474	0.93
607.81	0.93
608.146	0.92
608.482	0.93
608.817	0.92
609.153	0.91
609.488	0.92
609.824	0.92
610.159	0.92
610.495	0.91
610.83	0.91
611.165	0.9
611.5	0.9
611.836	0.89
612.171	0.89
612.506	0.89
612.841	0.89
613.176	0.89
613.511	0.88
613.845	0.88
614.18	0.88
614.515	0.88
614.85	0.88
615.184	0.87
615.519	0.87
615.854	0.87
616.188	0.86
616.523	0.85
616.857	0.85
617.191	0.85
617.526	0.85
617.86	0.84
618.194	0.84
618.528	0.84
618.862	0.84
619.196	0.84
619.53	0.83
619.864	0.83
620.198	0.83
620.532	0.83
620.866	0.81
621.2	0.82
621.533	0.81
621.867	0.81
622.201	0.8
622.534	0.8
622.868	0.8
623.201	0.79
623.534	0.78
623.868	0.79
624.201	0.78
624.534	0.78
624.868	0.78
625.201	0.77
625.534	0.77
625.867	0.77
626.2	0.76
626.533	0.76
626.865	0.76
627.198	0.76
627.531	0.75
627.864	0.75
628.196	0.74
628.529	0.74
628.862	0.74
629.194	0.73
629.527	0.73
629.859	0.72
630.191	0.72
630.524	0.72
630.856	0.71
631.188	0.71
631.52	0.7
631.852	0.7
632.184	0.7
632.516	0.69
632.848	0.69
633.18	0.68
633.512	0.68
633.844	0.67
634.175	0.67
634.507	0.67
634.839	0.66
635.17	0.66
635.502	0.66
635.833	0.65
636.165	0.64
636.496	0.64
636.827	0.64
637.159	0.64
637.49	0.63
637.821	0.63
638.152	0.62
638.483	0.62
638.814	0.61
639.145	0.61
639.476	0.6
639.807	0.6
640.137	0.6
640.468	0.59
640.799	0.59
641.129	0.58
641.46	0.58
641.791	0.57
642.121	0.58
642.451	0.56
642.782	0.57
643.112	0.56
643.442	0.56
643.773	0.56
644.103	0.56
644.433	0.55
644.763	0.55
645.093	0.54
645.423	0.54
645.753	0.54
646.082	0.54
646.412	0.53
646.742	0.53
647.072	0.53
647.401	0.53
647.731	0.53
648.06	0.52
648.39	0.52
648.719	0.52
649.048	0.51
649.378	0.51
649.707	0.51
650.036	0.5
650.365	0.5
650.694	0.5
651.023	0.5
651.352	0.5
651.681	0.5
652.01	0.49
652.339	0.49
652.668	0.49
652.996	0.49
653.325	0.49
653.654	0.48
653.982	0.48
654.311	0.48
654.639	0.48
654.967	0.48
655.296	0.48
655.624	0.48
655.952	0.48
656.28	0.47
656.609	0.47
656.937	0.47
657.265	0.45
657.593	0.31
657.92	0.22
658.248	0.19
658.576	0.27
658.904	0.4
659.231	0.46
659.559	0.46
659.887	0.46
660.214	0.45
660.542	0.45
660.869	0.45
661.196	0.44
661.524	0.44
661.851	0.44
662.178	0.44
662.505	0.44
662.832	0.44
663.159	0.44
663.486	0.43
663.813	0.43
664.14	0.43
664.467	0.43
664.794	0.42
665.12	0.43
665.447	0.43
665.774	0.42
666.1	0.42
666.427	0.41
666.753	0.41
667.079	0.41
667.406	0.41
667.732	0.41
668.058	0.41
668.384	0.4
668.71	0.4
669.036	0.4
669.362	0.39
669.688	0.39
670.014	0.39
670.34	0.39
670.666	0.38
670.991	0.38
671.317	0.38
671.643	0.38
671.968	0.38
672.294	0.37
672.619	0.37
672.945	0.37
673.27	0.37
673.595	0.36
673.92	0.35
674.246	0.35
674.571	0.35
674.896	0.35
675.221	0.35
675.546	0.34
675.87	0.34
676.195	0.34
676.52	0.34
676.845	0.34
677.169	0.33
677.494	0.33
677.819	0.33
678.143	0.32
678.468	0.32
678.792	0.32
679.116	0.32
679.44	0.31
679.765	0.31
680.089	0.3
680.413	0.3
680.737	0.3
681.061	0.29
681.385	0.29
681.709	0.29
682.033	0.29
682.356	0.29
682.68	0.29
683.004	0.28
683.327	0.28
683.651	0.27
683.974	0.27
684.298	0.27
684.621	0.27
684.944	0.26
685.268	0.26
685.591	0.26
685.914	0.25
686.237	0.25
686.56	0.25
686.883	0.24
687.206	0.24
687.529	0.24
687.852	0.23
688.175	0.24
688.497	0.23
688.82	0.23
689.142	0.23
689.465	0.23
689.787	0.23
690.11	0.22
690.432	0.22
690.755	0.22
691.077	0.21
691.399	0.21
691.721	0.21
692.043	0.21
692.365	0.2
692.687	0.2
693.009	0.19
693.331	0.19
693.653	0.19
693.974	0.19
694.296	0.19
694.618	0.19
694.939	0.19
695.261	0.18
695.582	0.18
695.904	0.18
696.225	0.18
696.546	0.18
696.868	0.18
697.189	0.17
697.51	0.17
697.831	0.17
698.152	0.17
698.473	0.17
698.794	0.16
699.114	0.16
699.435	0.16
699.756	0.16
700.077	0.16
700.397	0.16
700.718	0.16
701.038	0.16
701.359	0.16
701.679	0.16
701.999	0.16
702.32	0.16
702.64	0.16
702.96	0.15
703.28	0.15
703.6	0.15
703.92	0.15
704.24	0.15
704.56	0.15
704.879	0.14
705.199	0.15
705.519	0.15
705.838	0.15
706.158	0.15
706.478	0.15
706.797	0.14
707.116	0.14
707.436	0.14
707.755	0.14
708.074	0.14
708.393	0.14
708.712	0.13
709.031	0.13
709.35	0.13
709.669	0.13
709.988	0.13
710.307	0.13
710.626	0.13
710.944	0.13
711.263	0.14
711.582	0.13
711.9	0.13
712.219	0.13
712.537	0.13
712.855	0.13
713.174	0.13
713.492	0.14
713.81	0.14
714.128	0.14
714.446	0.13
714.764	0.13
715.082	0.13
715.4	0.13
715.718	0.13
716.035	0.13
716.353	0.13
716.671	0.13
716.988	0.13
717.306	0.13
717.623	0.14
717.941	0.14
718.258	0.14
718.575	0.14
718.893	0.14
719.21	0.14
719.527	0.13
719.844	0.14
720.161	0.14
720.478	0.14
720.795	0.14
721.112	0.14
721.428	0.14
721.745	0.14
722.062	0.14
722.378	0.14
722.695	0.14
723.011	0.14
723.328	0.14
723.644	0.14
723.96	0.14
724.276	0.14
724.593	0.14
724.909	0.14
725.225	0.14
725.541	0.14
725.857	0.14
726.173	0.14
726.488	0.14
726.804	0.14
727.12	0.14
727.435	0.14
727.751	0.14
728.067	0.14
728.382	0.14
728.697	0.14
729.013	0.14
729.328	0.14
729.643	0.14
729.958	0.14
730.273	0.14
730.588	0.13
730.903	0.14
731.218	0.14
731.533	0.14
731.848	0.14
732.163	0.14
732.477	0.13
732.792	0.13
733.107	0.13
733.421	0.13
733.736	0.13
734.05	0.13
734.364	0.13
734.678	0.13
734.993	0.13
735.307	0.13
735.621	0.13
735.935	0.13
736.249	0.13
736.563	0.13
736.877	0.13
737.19	0.13
737.504	0.13
737.818	0.13
738.131	0.13
738.445	0.13
738.758	0.13
739.072	0.13
739.385	0.13
739.698	0.13
740.012	0.13
740.325	0.13
740.638	0.12
740.951	0.12
741.264	0.12
741.577	0.12
741.89	0.12
742.203	0.12
742.515	0.12
742.828	0.12
743.141	0.12
743.453	0.12
743.766	0.11
744.078	0.11
744.391	0.11
744.703	0.11
745.015	0.11
745.327	0.11
745.639	0.11
745.952	0.11
746.264	0.11
746.575	0.11
746.887	0.11
747.199	0.11
747.511	0.11
747.823	0.1
748.134	0.1
748.446	0.1
748.757	0.1
749.069	0.1
749.38	0.1
749.692	0.1
750.003	0.1
750.314	0.1
750.625	0.1
750.936	0.1
751.248	0.09
751.559	0.1
751.869	0.09
752.18	0.09
752.491	0.09
752.802	0.09
753.112	0.09
753.423	0.09
753.734	0.09
754.044	0.09
754.355	0.09
754.665	0.09
754.975	0.09
755.285	0.08
755.596	0.09
755.906	0.09
756.216	0.09
756.526	0.08
756.836	0.08
757.146	0.08
757.455	0.08
757.765	0.08
758.075	0.08
758.385	0.08
758.694	0.08
759.004	0.07
759.313	0.07
759.622	0.08
759.932	0.08
760.241	0.08
760.55	0.08
760.859	0.08
761.168	0.08
761.477	0.08
761.786	0.07
762.095	0.07
762.404	0.07
762.713	0.07
763.021	0.07
763.33	0.07
763.639	0.07
763.947	0.07
764.256	0.07
764.564	0.08
764.872	0.07
765.181	0.08
765.489	0.07
765.797	0.07
766.105	0.07
766.413	0.07
766.721	0.07
767.029	0.07
767.337	0.07
767.644	0.07
767.952	0.07
768.26	0.07
768.567	0.07
768.875	0.07
769.182	0.07
769.49	0.07
769.797	0.07
770.104	0.07
770.411	0.07
770.718	0.07
771.026	0.07
771.333	0.07
771.639	0.07
771.946	0.07
772.253	0.08
772.56	0.08
772.867	0.07
773.173	0.08
773.48	0.07
773.786	0.07
774.093	0.08
774.399	0.07
774.705	0.07
775.012	0.07
775.318	0.07
775.624	0.07
775.93	0.07
776.236	0.07
776.542	0.07
776.848	0.07
777.154	0.07
777.459	0.07
777.765	0.07
778.071	0.08
778.376	0.08
778.682	0.08
778.987	0.07
779.292	0.08
779.598	0.07
779.903	0.07
780.208	0.07
780.513	0.08
780.818	0.07
781.123	0.08
781.428	0.08
781.733	0.08
782.038	0.08
782.343	0.08
782.647	0.08
782.952	0.08
783.256	0.08
783.561	0.08
783.865	0.08
784.17	0.08
784.474	0.08
784.778	0.08
785.082	0.08
785.386	0.08
785.69	0.08
785.994	0.08
786.298	0.08
786.602	0.08
786.906	0.08
787.209	0.08
787.513	0.08
787.817	0.08
788.12	0.08
788.424	0.08
788.727	0.08
789.03	0.08
789.333	0.08
789.637	0.08
789.94	0.08
790.243	0.08
790.546	0.08
790.849	0.08
791.152	0.08
791.454	0.08
791.757	0.08
792.06	0.09
792.362	0.09
792.665	0.09
792.967	0.08
793.27	0.09
793.572	0.09
793.874	0.09
794.177	0.09
794.479	0.09
794.781	0.09
795.083	0.09
795.385	0.09
795.687	0.09
795.989	0.09
796.29	0.09
796.592	0.1
796.894	0.1
797.195	0.1
797.497	0.1
797.798	0.1
798.1	0.1
798.401	0.1
798.702	0.1
799.003	0.09
799.304	0.1
799.605	0.1
799.906	0.1
800.207	0.1
800.508	0.1
800.809	0.1
801.11	0.1
801.41	0.1
801.711	0.1
802.011	0.1
802.312	0.1
802.612	0.1
802.913	0.1
803.213	0.1
803.513	0.1
803.813	0.11
804.113	0.1
804.413	0.1
804.713	0.1
805.013	0.1
805.313	0.11
805.613	0.11
805.912	0.1
806.212	0.11
806.511	0.1
806.811	0.1
807.11	0.11
807.41	0.11
807.709	0.11
808.008	0.11
808.307	0.11
808.606	0.11
808.905	0.11
809.204	0.11
809.503	0.11
809.802	0.11
810.101	0.11
810.399	0.11
810.698	0.11
810.997	0.11
811.295	0.11
811.593	0.11
811.892	0.12
812.19	0.12
812.488	0.12
812.786	0.12
813.084	0.12
813.383	0.12
813.68	0.12
813.978	0.12
814.276	0.12
814.574	0.12
814.872	0.12
815.169	0.12
815.467	0.12
815.764	0.12
816.062	0.12
816.359	0.12
816.656	0.12
816.954	0.12
817.251	0.13
817.548	0.13
817.845	0.13
818.142	0.13
818.439	0.13
818.735	0.13
819.032	0.13
819.329	0.13
819.626	0.13
819.922	0.13
820.219	0.13
820.515	0.13
820.811	0.13
821.108	0.13
821.404	0.13
821.7	0.13
821.996	0.13
822.292	0.13
822.588	0.13
822.884	0.13
823.18	0.13
823.475	0.13
823.771	0.14
824.067	0.13
824.362	0.14
824.658	0.13
824.953	0.14
825.249	0.14
825.544	0.14
825.839	0.13
826.134	0.14
826.429	0.14
826.724	0.14
827.019	0.14
827.314	0.14
827.609	0.14
827.904	0.14
828.198	0.15
828.493	0.14
828.787	0.14
829.082	0.14
829.376	0.14
829.671	0.14
829.965	0.14
830.259	0.15
830.553	0.15
830.847	0.16
831.141	0.15
831.435	0.15
831.729	0.16
832.023	0.16
832.317	0.16
832.61	0.15
832.904	0.16
833.197	0.16
833.491	0.16
833.784	0.16
834.077	0.16
834.371	0.17
834.664	0.16
834.957	0.15
835.25	0.15
835.543	0.17
835.836	0.17
836.129	0.16
836.421	0.17
836.714	0.16
837.007	0.16
837.299	0.17
837.592	0.17
837.884	0.17
838.177	0.16
838.469	0.16
838.761	0.16
839.053	0.17
839.345	0.16
839.637	0.16
839.929	0.16
840.221	0.16
840.513	0.17
840.805	0.17
841.096	0.16
841.388	0.16
841.68	0.17
841.971	0.16
842.262	0.17
842.554	0.17
842.845	0.18
843.136	0.18
843.427	0.18
843.718	0.17
844.009	0.17
844.3	0.18
844.591	0.18
844.882	0.18
845.173	0.17
845.463	0.18
845.754	0.18
846.044	0.18
846.335	0.17
846.625	0.18
846.915	0.17
847.206	0.18
847.496	0.18
847.786	0.18
848.076	0.19
848.366	0.18
848.656	0.19
848.945	0.18
849.235	0.17
849.525	0.18
849.814	0.18
850.104	0.18
850.393	0.19
850.683	0.18
850.972	0.19
851.261	0.19
851.551	0.19
851.84	0.19
852.129	0.2
852.418	0.18
852.707	0.18
852.995	0.19
853.284	0.19
853.573	0.2
853.862	0.19
854.15	0.19
854.439	0.2
854.727	0.2
855.015	0.21
855.304	0.19
855.592	0.18
855.88	0.19
856.168	0.2
856.456	0.2
856.744	0.2
857.032	0.2
857.32	0.22
857.607	0.21
857.895	0.22
858.183	0.22
858.47	0.21
858.757	0.21
859.045	0.2
859.332	0.19
859.619	0.21
859.907	0.21
860.194	0.23
860.481	0.2
860.768	0.2
861.054	0.22
861.341	0.2
861.628	0.21
861.915	0.23
862.201	0.22
862.488	0.17
862.774	0.22
863.061	0.22
863.347	0.22
863.633	0.22
863.919	0.19
864.205	0.21
864.491	0.21
864.777	0.21
865.063	0.22
865.349	0.22
865.635	0.21
865.92	0.23
866.206	0.19
866.492	0.2
866.777	0.22
867.062	0.19
867.348	0.18
867.633	0.19
867.918	0.19
868.203	0.24
868.488	0.22
868.773	0.23
869.058	0.23
869.343	0.24
869.628	0.18
869.912	0.23
870.197	0.23
870.482	0.23
870.766	0.24
871.05	0.22
871.335	0.22
871.619	0.2
871.903	0.17
872.187	0.25
872.471	0.24
872.755	0.23
873.039	0.15
873.323	0.17
873.607	0.2
873.89	0.21
874.174	0.24
874.458	0.18
874.741	0.26
875.024	0.2
875.308	0.17
875.591	0.25
875.874	0.23
876.157	0.24
876.44	0.24
876.723	0.4
877.006	0.2
877.289	0.19
877.572	0.32
877.854	0.17
878.137	0.15
878.42	0.13
878.702	0.19
878.984	0.19
879.267	0.16
879.549	0.29
879.831	0.48
880.113	0.2
880.395	0.22
880.677	0.23
880.959	0.2
