Data from Rubpy_BV_1800_EDTA_Buffered_Absorbance_16-47-28-620.txt Node
Date: Wed Jul 01 16:47:28 BST 2026
User: fpm-admin
Spectrometer: OFX00224
Trigger mode: 0
Integration Time (sec): 7.000000E-2
Scans to average: 3
Nonlinearity correction enabled: false
Boxcar width: 0
Storing dark spectrum: false
XAxis mode: Wavelengths
Number of Pixels in Spectrum: 2136
>>>>>Begin Spectral Data<<<<<
154.91	-0
155.289	-0.29
155.669	-0
156.048	-0.09
156.428	-0
156.807	0.02
157.186	-1.15
157.566	-0.23
157.945	-0
158.325	-0.18
158.704	-0.08
159.083	0.95
159.462	-0
159.842	-0
160.221	-0
160.6	-0
160.979	-0
161.359	0.36
161.738	-0.52
162.117	-0.44
162.496	-0.09
162.875	-0.13
163.254	-0.12
163.633	0.19
164.012	0.21
164.391	0.43
164.77	0.15
165.149	-0.73
165.528	-0
165.907	-0
166.286	-0.16
166.665	-0
167.044	-0
167.423	0.55
167.802	-0
168.181	-0
168.559	0.7
168.938	0.8
169.317	0.05
169.696	-0
170.074	-0.32
170.453	-0.35
170.832	-0
171.21	0.24
171.589	-0
171.968	0.63
172.346	-0
172.725	-0
173.103	-0.19
173.482	0.2
173.861	1
174.239	-0.04
174.617	0.16
174.996	-0.04
175.374	-0.37
175.753	-0
176.131	0.68
176.51	-0.56
176.888	0.05
177.266	-0
177.645	-0.03
178.023	-0
178.401	-0.21
178.779	-0.05
179.158	-0.02
179.536	0.17
179.914	0.78
180.292	0.92
180.67	-0.35
181.048	0.34
181.427	0.3
181.805	0.1
182.183	-0.11
182.561	-0.13
182.939	0.03
183.317	-0.41
183.695	-0.14
184.073	-0
184.451	0.7
184.829	-0.37
185.206	-0.58
185.584	-0
185.962	-0.67
186.34	-0.21
186.718	0.19
187.096	-0
187.473	-0.52
187.851	0.16
188.229	-0.15
188.607	0.21
188.984	0.33
189.362	0.18
189.74	0.27
190.117	0.23
190.495	0.11
190.872	0.17
191.25	0.26
191.627	0.21
192.005	0.17
192.382	0.3
192.76	0.23
193.137	0.27
193.515	0.33
193.892	0.34
194.269	0.32
194.647	0.26
195.024	0.21
195.401	0.3
195.779	0.09
196.156	0.38
196.533	0.23
196.91	0.25
197.288	0.29
197.665	0.21
198.042	0.07
198.419	0.28
198.796	0.28
199.173	0.29
199.55	0.27
199.927	0.23
200.304	0.3
200.681	0.28
201.058	0.24
201.435	0.38
201.812	0.16
202.189	0.21
202.566	0.3
202.943	0.32
203.32	0.42
203.697	0.25
204.073	0.11
204.45	0.3
204.827	0.24
205.204	0.27
205.58	0.28
205.957	0.34
206.334	0.17
206.71	0.54
207.087	0.47
207.464	0.22
207.84	0.35
208.217	0.2
208.593	0.07
208.97	0.2
209.346	0.39
209.723	0.31
210.099	0.35
210.476	0.34
210.852	0.34
211.228	0.25
211.605	0.18
211.981	0.22
212.357	0.27
212.733	0.3
213.11	0.35
213.486	0.3
213.862	0.25
214.238	0.25
214.614	0.13
214.991	0.25
215.367	0.25
215.743	0.24
216.119	0.32
216.495	0.33
216.871	0.2
217.247	0.29
217.623	0.27
217.999	0.38
218.375	0.29
218.751	0.2
219.127	0.22
219.502	0.25
219.878	0.24
220.254	0.37
220.63	0.3
221.006	0.25
221.381	0.35
221.757	0.35
222.133	0.18
222.508	0.41
222.884	0.19
223.26	0.28
223.635	0.18
224.011	0.36
224.386	0.23
224.762	0.39
225.137	0.38
225.513	0.3
225.888	0.31
226.264	0.2
226.639	0.18
227.014	0.37
227.39	0.23
227.765	0.21
228.14	0.26
228.516	0.4
228.891	0.28
229.266	0.18
229.641	0.43
230.017	0.21
230.392	0.35
230.767	0.28
231.142	0.38
231.517	0.31
231.892	0.35
232.267	0.31
232.642	0.27
233.017	0.28
233.392	0.32
233.767	0.28
234.142	0.31
234.517	0.24
234.892	0.27
235.267	0.19
235.641	0.32
236.016	0.32
236.391	0.2
236.766	0.32
237.14	0.22
237.515	0.36
237.89	0.27
238.264	0.38
238.639	0.18
239.014	0.43
239.388	0.27
239.763	0.29
240.137	0.24
240.512	0.3
240.886	0.25
241.261	0.27
241.635	0.26
242.009	0.31
242.384	0.22
242.758	0.29
243.132	0.19
243.507	0.3
243.881	0.29
244.255	0.23
244.629	0.11
245.004	0.31
245.378	0.28
245.752	0.22
246.126	0.24
246.5	0.32
246.874	0.22
247.248	0.27
247.622	0.27
247.996	0.24
248.37	0.35
248.744	0.22
249.118	0.34
249.492	0.23
249.866	0.27
250.24	0.46
250.613	0.41
250.987	0.36
251.361	0.4
251.735	0.35
252.108	0.37
252.482	0.29
252.856	0.18
253.229	0.41
253.603	0.22
253.977	0.3
254.35	0.26
254.724	0.26
255.097	0.32
255.471	0.16
255.844	0.2
256.218	0.25
256.591	0.23
256.964	0.41
257.338	0.22
257.711	0.27
258.084	0.27
258.458	0.34
258.831	0.33
259.204	0.3
259.577	0.27
259.95	0.22
260.323	0.24
260.697	0.21
261.07	0.27
261.443	0.36
261.816	0.15
262.189	0.27
262.562	0.32
262.935	0.27
263.308	0.22
263.68	0.3
264.053	0.27
264.426	0.28
264.799	0.24
265.172	0.39
265.545	0.31
265.917	0.28
266.29	0.26
266.663	0.36
267.035	0.23
267.408	0.39
267.781	0.36
268.153	0.35
268.526	0.26
268.898	0.33
269.271	0.3
269.643	0.27
270.016	0.27
270.388	0.28
270.76	0.33
271.133	0.26
271.505	0.3
271.877	0.24
272.25	0.29
272.622	0.32
272.994	0.51
273.366	0.34
273.739	0.24
274.111	0.41
274.483	0.25
274.855	0.3
275.227	0.49
275.599	0.45
275.971	0.35
276.343	0.22
276.715	0.33
277.087	0.42
277.459	0.31
277.831	0.25
278.203	0.24
278.574	0.3
278.946	0.31
279.318	0.15
279.69	0.33
280.061	0.25
280.433	0.21
280.805	0.19
281.176	0.3
281.548	0.32
281.92	0.34
282.291	0.32
282.663	0.25
283.034	0.25
283.406	0.35
283.777	0.3
284.148	0.37
284.52	0.35
284.891	0.33
285.262	0.29
285.634	0.36
286.005	0.27
286.376	0.31
286.747	0.32
287.119	0.3
287.49	0.32
287.861	0.38
288.232	0.5
288.603	0.26
288.974	0.3
289.345	0.28
289.716	0.2
290.087	0.28
290.458	0.28
290.829	0.29
291.2	0.27
291.571	0.33
291.941	0.25
292.312	0.35
292.683	0.35
293.054	0.37
293.424	0.23
293.795	0.23
294.166	0.28
294.536	0.32
294.907	0.25
295.277	0.3
295.648	0.34
296.018	0.34
296.389	0.32
296.759	0.27
297.13	0.4
297.5	0.35
297.871	0.34
298.241	0.47
298.611	0.24
298.981	0.26
299.352	0.34
299.722	0.27
300.092	0.37
300.462	0.31
300.832	0.28
301.202	0.3
301.573	0.29
301.943	0.34
302.313	0.3
302.683	0.25
303.053	0.27
303.422	0.28
303.792	0.34
304.162	0.35
304.532	0.34
304.902	0.29
305.272	0.3
305.641	0.3
306.011	0.36
306.381	0.27
306.75	0.26
307.12	0.25
307.49	0.26
307.859	0.26
308.229	0.25
308.598	0.27
308.968	0.26
309.337	0.25
309.707	0.25
310.076	0.21
310.445	0.23
310.815	0.25
311.184	0.23
311.553	0.2
311.923	0.22
312.292	0.26
312.661	0.23
313.03	0.21
313.399	0.21
313.768	0.24
314.137	0.21
314.506	0.23
314.875	0.24
315.244	0.22
315.613	0.22
315.982	0.25
316.351	0.24
316.72	0.22
317.089	0.24
317.458	0.26
317.826	0.27
318.195	0.25
318.564	0.26
318.933	0.27
319.301	0.25
319.67	0.27
320.038	0.26
320.407	0.29
320.775	0.29
321.144	0.29
321.512	0.29
321.881	0.29
322.249	0.3
322.618	0.3
322.986	0.3
323.354	0.3
323.723	0.3
324.091	0.3
324.459	0.32
324.827	0.32
325.195	0.33
325.564	0.34
325.932	0.34
326.3	0.33
326.668	0.35
327.036	0.34
327.404	0.35
327.772	0.36
328.14	0.35
328.508	0.35
328.875	0.36
329.243	0.38
329.611	0.38
329.979	0.4
330.346	0.38
330.714	0.39
331.082	0.41
331.449	0.4
331.817	0.41
332.185	0.43
332.552	0.43
332.92	0.44
333.287	0.45
333.655	0.45
334.022	0.46
334.389	0.47
334.757	0.48
335.124	0.49
335.491	0.5
335.859	0.51
336.226	0.51
336.593	0.53
336.96	0.54
337.327	0.55
337.695	0.56
338.062	0.56
338.429	0.58
338.796	0.59
339.163	0.6
339.53	0.62
339.897	0.62
340.263	0.63
340.63	0.65
340.997	0.65
341.364	0.67
341.731	0.67
342.097	0.69
342.464	0.7
342.831	0.71
343.197	0.72
343.564	0.74
343.931	0.74
344.297	0.74
344.664	0.76
345.03	0.77
345.396	0.78
345.763	0.8
346.129	0.81
346.496	0.83
346.862	0.84
347.228	0.84
347.594	0.86
347.961	0.87
348.327	0.89
348.693	0.88
349.059	0.9
349.425	0.91
349.791	0.93
350.157	0.94
350.523	0.94
350.889	0.95
351.255	0.97
351.621	0.96
351.987	0.99
352.353	0.99
352.719	1.01
353.084	1.02
353.45	1.03
353.816	1.05
354.181	1.05
354.547	1.06
354.913	1.08
355.278	1.08
355.644	1.1
356.009	1.12
356.375	1.13
356.74	1.14
357.106	1.18
357.471	1.17
357.836	1.18
358.202	1.21
358.567	1.22
358.932	1.23
359.297	1.25
359.663	1.28
360.028	1.27
360.393	1.29
360.758	1.3
361.123	1.33
361.488	1.34
361.853	1.36
362.218	1.37
362.583	1.39
362.948	1.41
363.312	1.42
363.677	1.43
364.042	1.43
364.407	1.48
364.772	1.49
365.136	1.46
365.501	1.49
365.865	1.49
366.23	1.51
366.595	1.52
366.959	1.55
367.324	1.56
367.688	1.58
368.052	1.57
368.417	1.57
368.781	1.61
369.145	1.62
369.51	1.62
369.874	1.63
370.238	1.61
370.602	1.59
370.967	1.66
371.331	1.62
371.695	1.63
372.059	1.64
372.423	1.64
372.787	1.63
373.151	1.61
373.515	1.64
373.878	1.64
374.242	1.61
374.606	1.64
374.97	1.61
375.334	1.63
375.697	1.58
376.061	1.58
376.425	1.58
376.788	1.56
377.152	1.55
377.515	1.55
377.879	1.51
378.242	1.5
378.606	1.48
378.969	1.47
379.333	1.44
379.696	1.43
380.059	1.43
380.422	1.41
380.786	1.39
381.149	1.38
381.512	1.36
381.875	1.35
382.238	1.34
382.601	1.31
382.964	1.3
383.327	1.28
383.69	1.28
384.053	1.25
384.416	1.24
384.779	1.24
385.142	1.22
385.504	1.21
385.867	1.21
386.23	1.2
386.593	1.2
386.955	1.2
387.318	1.18
387.68	1.17
388.043	1.18
388.405	1.17
388.768	1.17
389.13	1.17
389.493	1.17
389.855	1.14
390.217	1.14
390.58	1.12
390.942	1.1
391.304	1.1
391.666	1.08
392.028	1.07
392.391	1.05
392.753	1.05
393.115	1.03
393.477	1.02
393.839	1.01
394.201	1
394.563	0.99
394.924	1
395.286	0.99
395.648	0.99
396.01	0.99
396.371	1
396.733	1.02
397.095	1.03
397.456	1.05
397.818	1.08
398.18	1.1
398.541	1.12
398.903	1.14
399.264	1.16
399.625	1.19
399.987	1.21
400.348	1.23
400.709	1.24
401.071	1.24
401.432	1.25
401.793	1.25
402.154	1.25
402.515	1.23
402.876	1.22
403.238	1.18
403.599	1.15
403.96	1.12
404.32	1.08
404.681	1.04
405.042	0.99
405.403	0.96
405.764	0.91
406.125	0.88
406.485	0.83
406.846	0.79
407.207	0.75
407.567	0.71
407.928	0.67
408.288	0.64
408.649	0.6
409.009	0.57
409.37	0.53
409.73	0.51
410.091	0.48
410.451	0.46
410.811	0.43
411.171	0.41
411.532	0.4
411.892	0.37
412.252	0.36
412.612	0.34
412.972	0.32
413.332	0.32
413.692	0.3
414.052	0.29
414.412	0.28
414.772	0.26
415.132	0.26
415.492	0.25
415.851	0.24
416.211	0.23
416.571	0.23
416.931	0.22
417.29	0.21
417.65	0.21
418.009	0.2
418.369	0.2
418.728	0.19
419.088	0.19
419.447	0.18
419.807	0.19
420.166	0.18
420.525	0.17
420.884	0.17
421.244	0.17
421.603	0.16
421.962	0.15
422.321	0.16
422.68	0.16
423.039	0.15
423.398	0.15
423.757	0.15
424.116	0.14
424.475	0.15
424.834	0.14
425.193	0.14
425.551	0.15
425.91	0.15
426.269	0.14
426.628	0.14
426.986	0.13
427.345	0.13
427.703	0.13
428.062	0.14
428.42	0.14
428.779	0.13
429.137	0.14
429.496	0.13
429.854	0.13
430.212	0.14
430.57	0.13
430.929	0.13
431.287	0.13
431.645	0.12
432.003	0.12
432.361	0.12
432.719	0.12
433.077	0.13
433.435	0.12
433.793	0.12
434.151	0.12
434.509	0.13
434.866	0.12
435.224	0.12
435.582	0.12
435.94	0.12
436.297	0.12
436.655	0.13
437.012	0.12
437.37	0.12
437.727	0.12
438.085	0.13
438.442	0.12
438.8	0.12
439.157	0.12
439.514	0.12
439.872	0.11
440.229	0.12
440.586	0.13
440.943	0.13
441.3	0.12
441.657	0.13
442.014	0.13
442.371	0.12
442.728	0.13
443.085	0.12
443.442	0.11
443.799	0.12
444.156	0.12
444.513	0.13
444.869	0.12
445.226	0.13
445.583	0.13
445.939	0.13
446.296	0.11
446.652	0.13
447.009	0.13
447.365	0.12
447.722	0.12
448.078	0.12
448.434	0.12
448.791	0.13
449.147	0.12
449.503	0.12
449.859	0.12
450.215	0.12
450.571	0.13
450.928	0.13
451.284	0.13
451.64	0.13
451.995	0.12
452.351	0.12
452.707	0.12
453.063	0.13
453.419	0.12
453.775	0.11
454.13	0.11
454.486	0.12
454.842	0.12
455.197	0.12
455.553	0.11
455.908	0.11
456.264	0.11
456.619	0.11
456.975	0.11
457.33	0.1
457.685	0.11
458.04	0.1
458.396	0.1
458.751	0.1
459.106	0.09
459.461	0.09
459.816	0.09
460.171	0.08
460.526	0.09
460.881	0.08
461.236	0.08
461.591	0.07
461.946	0.07
462.301	0.07
462.655	0.07
463.01	0.07
463.365	0.06
463.719	0.06
464.074	0.06
464.428	0.04
464.783	0.04
465.137	0.04
465.492	0.04
465.846	0.04
466.201	0.05
466.555	0.05
466.909	0.06
467.263	0.05
467.618	0.06
467.972	0.06
468.326	0.05
468.68	0.05
469.034	0.05
469.388	0.05
469.742	0.05
470.096	0.06
470.45	0.06
470.804	0.07
471.157	0.06
471.511	0.06
471.865	0.06
472.218	0.07
472.572	0.08
472.926	0.07
473.279	0.09
473.633	0.09
473.986	0.1
474.34	0.11
474.693	0.12
475.046	0.13
475.4	0.13
475.753	0.15
476.106	0.16
476.459	0.16
476.812	0.17
477.165	0.17
477.519	0.18
477.872	0.19
478.224	0.19
478.577	0.2
478.93	0.21
479.283	0.22
479.636	0.22
479.989	0.23
480.341	0.24
480.694	0.25
481.047	0.25
481.399	0.25
481.752	0.26
482.104	0.26
482.457	0.28
482.809	0.28
483.162	0.28
483.514	0.29
483.866	0.29
484.219	0.3
484.571	0.3
484.923	0.3
485.275	0.32
485.627	0.31
485.979	0.32
486.331	0.33
486.683	0.33
487.035	0.34
487.387	0.34
487.739	0.35
488.091	0.35
488.443	0.36
488.794	0.36
489.146	0.36
489.498	0.36
489.849	0.37
490.201	0.37
490.552	0.37
490.904	0.37
491.255	0.38
491.607	0.39
491.958	0.39
492.309	0.4
492.661	0.39
493.012	0.4
493.363	0.4
493.714	0.4
494.065	0.41
494.416	0.41
494.767	0.42
495.118	0.42
495.469	0.43
495.82	0.43
496.171	0.43
496.522	0.44
496.872	0.45
497.223	0.45
497.574	0.45
497.924	0.46
498.275	0.46
498.626	0.46
498.976	0.47
499.327	0.48
499.677	0.47
500.027	0.48
500.378	0.48
500.728	0.49
501.078	0.49
501.428	0.5
501.779	0.5
502.129	0.5
502.479	0.51
502.829	0.51
503.179	0.52
503.529	0.52
503.879	0.52
504.229	0.52
504.578	0.53
504.928	0.52
505.278	0.53
505.628	0.54
505.977	0.54
506.327	0.54
506.676	0.55
507.026	0.55
507.375	0.56
507.725	0.56
508.074	0.56
508.424	0.56
508.773	0.56
509.122	0.57
509.471	0.57
509.82	0.57
510.17	0.57
510.519	0.58
510.868	0.58
511.217	0.59
511.566	0.59
511.915	0.6
512.263	0.59
512.612	0.6
512.961	0.6
513.31	0.61
513.659	0.61
514.007	0.61
514.356	0.62
514.704	0.62
515.053	0.62
515.401	0.62
515.75	0.62
516.098	0.63
516.447	0.64
516.795	0.63
517.143	0.64
517.491	0.64
517.839	0.64
518.188	0.65
518.536	0.64
518.884	0.66
519.232	0.66
519.58	0.65
519.928	0.66
520.275	0.66
520.623	0.66
520.971	0.67
521.319	0.67
521.666	0.68
522.014	0.67
522.362	0.68
522.709	0.69
523.057	0.69
523.404	0.69
523.752	0.68
524.099	0.69
524.446	0.69
524.794	0.69
525.141	0.69
525.488	0.7
525.835	0.7
526.182	0.7
526.529	0.71
526.876	0.7
527.223	0.71
527.57	0.72
527.917	0.71
528.264	0.72
528.611	0.72
528.958	0.72
529.304	0.71
529.651	0.72
529.998	0.72
530.344	0.72
530.691	0.73
531.037	0.73
531.384	0.73
531.73	0.73
532.076	0.73
532.423	0.74
532.769	0.74
533.115	0.74
533.461	0.74
533.807	0.74
534.154	0.74
534.5	0.75
534.846	0.75
535.192	0.75
535.537	0.76
535.883	0.74
536.229	0.76
536.575	0.76
536.921	0.76
537.266	0.76
537.612	0.76
537.957	0.76
538.303	0.76
538.649	0.76
538.994	0.76
539.339	0.76
539.685	0.77
540.03	0.77
540.375	0.77
540.721	0.77
541.066	0.77
541.411	0.77
541.756	0.78
542.101	0.77
542.446	0.78
542.791	0.78
543.136	0.79
543.481	0.78
543.825	0.78
544.17	0.78
544.515	0.78
544.86	0.78
545.204	0.78
545.549	0.78
545.893	0.79
546.238	0.78
546.582	0.78
546.927	0.78
547.271	0.79
547.615	0.79
547.96	0.79
548.304	0.79
548.648	0.79
548.992	0.79
549.336	0.79
549.68	0.79
550.024	0.79
550.368	0.79
550.712	0.79
551.056	0.79
551.4	0.78
551.743	0.79
552.087	0.79
552.431	0.79
552.774	0.79
553.118	0.79
553.462	0.8
553.805	0.79
554.148	0.79
554.492	0.79
554.835	0.79
555.178	0.79
555.522	0.79
555.865	0.79
556.208	0.79
556.551	0.78
556.894	0.79
557.237	0.78
557.58	0.79
557.923	0.79
558.266	0.79
558.609	0.79
558.952	0.79
559.294	0.78
559.637	0.79
559.98	0.79
560.322	0.78
560.665	0.78
561.007	0.78
561.35	0.77
561.692	0.78
562.034	0.78
562.377	0.78
562.719	0.77
563.061	0.77
563.403	0.78
563.745	0.78
564.088	0.78
564.43	0.78
564.772	0.77
565.113	0.77
565.455	0.77
565.797	0.77
566.139	0.77
566.481	0.77
566.822	0.77
567.164	0.77
567.506	0.77
567.847	0.77
568.189	0.76
568.53	0.76
568.872	0.77
569.213	0.76
569.554	0.76
569.895	0.76
570.237	0.75
570.578	0.75
570.919	0.76
571.26	0.75
571.601	0.75
571.942	0.75
572.283	0.74
572.624	0.74
572.965	0.74
573.306	0.74
573.646	0.74
573.987	0.74
574.328	0.74
574.668	0.73
575.009	0.73
575.349	0.73
575.69	0.73
576.03	0.72
576.37	0.72
576.711	0.72
577.051	0.72
577.391	0.73
577.731	0.72
578.072	0.72
578.412	0.71
578.752	0.71
579.092	0.71
579.431	0.7
579.771	0.69
580.111	0.69
580.451	0.7
580.791	0.7
581.13	0.71
581.47	0.7
581.81	0.7
582.149	0.7
582.489	0.7
582.828	0.69
583.167	0.67
583.507	0.63
583.846	0.63
584.185	0.67
584.525	0.68
584.864	0.69
585.203	0.7
585.542	0.7
585.881	0.69
586.22	0.69
586.559	0.69
586.898	0.68
587.236	0.67
587.575	0.67
587.914	0.68
588.252	0.69
588.591	0.69
588.93	0.68
589.268	0.68
589.607	0.68
589.945	0.68
590.283	0.68
590.622	0.68
590.96	0.69
591.298	0.68
591.636	0.69
591.974	0.69
592.313	0.68
592.651	0.69
592.989	0.68
593.326	0.69
593.664	0.68
594.002	0.68
594.34	0.68
594.678	0.68
595.015	0.67
595.353	0.67
595.691	0.68
596.028	0.68
596.366	0.68
596.703	0.68
597.04	0.68
597.378	0.68
597.715	0.68
598.052	0.68
598.389	0.68
598.726	0.68
599.064	0.68
599.401	0.68
599.738	0.68
600.074	0.68
600.411	0.67
600.748	0.67
601.085	0.67
601.422	0.66
601.758	0.66
602.095	0.67
602.432	0.67
602.768	0.66
603.105	0.67
603.441	0.67
603.777	0.67
604.114	0.67
604.45	0.67
604.786	0.66
605.122	0.66
605.459	0.66
605.795	0.66
606.131	0.65
606.467	0.66
606.803	0.66
607.139	0.65
607.474	0.65
607.81	0.65
608.146	0.65
608.482	0.64
608.817	0.64
609.153	0.64
609.488	0.64
609.824	0.64
610.159	0.64
610.495	0.64
610.83	0.64
611.165	0.63
611.5	0.63
611.836	0.63
612.171	0.63
612.506	0.63
612.841	0.62
613.176	0.62
613.511	0.62
613.845	0.62
614.18	0.61
614.515	0.61
614.85	0.61
615.184	0.61
615.519	0.61
615.854	0.61
616.188	0.6
616.523	0.6
616.857	0.6
617.191	0.6
617.526	0.6
617.86	0.6
618.194	0.59
618.528	0.59
618.862	0.59
619.196	0.59
619.53	0.58
619.864	0.58
620.198	0.58
620.532	0.58
620.866	0.58
621.2	0.57
621.533	0.57
621.867	0.57
622.201	0.56
622.534	0.57
622.868	0.57
623.201	0.56
623.534	0.56
623.868	0.56
624.201	0.55
624.534	0.55
624.868	0.55
625.201	0.55
625.534	0.54
625.867	0.54
626.2	0.54
626.533	0.54
626.865	0.53
627.198	0.53
627.531	0.53
627.864	0.53
628.196	0.53
628.529	0.52
628.862	0.52
629.194	0.52
629.527	0.51
629.859	0.51
630.191	0.51
630.524	0.51
630.856	0.5
631.188	0.5
631.52	0.5
631.852	0.49
632.184	0.49
632.516	0.49
632.848	0.48
633.18	0.48
633.512	0.48
633.844	0.48
634.175	0.47
634.507	0.47
634.839	0.47
635.17	0.46
635.502	0.46
635.833	0.46
636.165	0.46
636.496	0.45
636.827	0.45
637.159	0.45
637.49	0.45
637.821	0.44
638.152	0.44
638.483	0.43
638.814	0.43
639.145	0.43
639.476	0.43
639.807	0.42
640.137	0.42
640.468	0.42
640.799	0.41
641.129	0.41
641.46	0.41
641.791	0.4
642.121	0.41
642.451	0.4
642.782	0.4
643.112	0.4
643.442	0.4
643.773	0.39
644.103	0.39
644.433	0.39
644.763	0.38
645.093	0.39
645.423	0.38
645.753	0.38
646.082	0.38
646.412	0.37
646.742	0.37
647.072	0.38
647.401	0.37
647.731	0.37
648.06	0.37
648.39	0.37
648.719	0.36
649.048	0.36
649.378	0.36
649.707	0.36
650.036	0.36
650.365	0.36
650.694	0.35
651.023	0.35
651.352	0.35
651.681	0.35
652.01	0.35
652.339	0.35
652.668	0.35
652.996	0.35
653.325	0.35
653.654	0.35
653.982	0.34
654.311	0.34
654.639	0.34
654.967	0.34
655.296	0.34
655.624	0.34
655.952	0.34
656.28	0.34
656.609	0.33
656.937	0.34
657.265	0.32
657.593	0.18
657.92	0.09
658.248	0.07
658.576	0.14
658.904	0.26
659.231	0.32
659.559	0.33
659.887	0.32
660.214	0.32
660.542	0.32
660.869	0.32
661.196	0.32
661.524	0.32
661.851	0.31
662.178	0.31
662.505	0.32
662.832	0.31
663.159	0.31
663.486	0.31
663.813	0.31
664.14	0.31
664.467	0.31
664.794	0.3
665.12	0.31
665.447	0.3
665.774	0.3
666.1	0.3
666.427	0.3
666.753	0.3
667.079	0.3
667.406	0.29
667.732	0.29
668.058	0.29
668.384	0.29
668.71	0.29
669.036	0.29
669.362	0.28
669.688	0.28
670.014	0.28
670.34	0.28
670.666	0.27
670.991	0.28
671.317	0.27
671.643	0.27
671.968	0.27
672.294	0.27
672.619	0.26
672.945	0.26
673.27	0.26
673.595	0.26
673.92	0.26
674.246	0.26
674.571	0.25
674.896	0.25
675.221	0.25
675.546	0.25
675.87	0.25
676.195	0.24
676.52	0.24
676.845	0.24
677.169	0.24
677.494	0.24
677.819	0.23
678.143	0.23
678.468	0.23
678.792	0.23
679.116	0.23
679.44	0.22
679.765	0.22
680.089	0.22
680.413	0.21
680.737	0.22
681.061	0.21
681.385	0.21
681.709	0.21
682.033	0.2
682.356	0.21
682.68	0.2
683.004	0.2
683.327	0.2
683.651	0.19
683.974	0.2
684.298	0.2
684.621	0.19
684.944	0.19
685.268	0.19
685.591	0.18
685.914	0.18
686.237	0.18
686.56	0.18
686.883	0.17
687.206	0.17
687.529	0.17
687.852	0.17
688.175	0.17
688.497	0.17
688.82	0.17
689.142	0.16
689.465	0.16
689.787	0.16
690.11	0.16
690.432	0.16
690.755	0.15
691.077	0.15
691.399	0.15
691.721	0.15
692.043	0.15
692.365	0.14
692.687	0.14
693.009	0.14
693.331	0.14
693.653	0.13
693.974	0.14
694.296	0.13
694.618	0.13
694.939	0.13
695.261	0.13
695.582	0.13
695.904	0.13
696.225	0.13
696.546	0.13
696.868	0.12
697.189	0.12
697.51	0.12
697.831	0.12
698.152	0.12
698.473	0.12
698.794	0.11
699.114	0.11
699.435	0.11
699.756	0.11
700.077	0.11
700.397	0.11
700.718	0.11
701.038	0.11
701.359	0.11
701.679	0.11
701.999	0.11
702.32	0.11
702.64	0.11
702.96	0.11
703.28	0.11
703.6	0.11
703.92	0.1
704.24	0.1
704.56	0.1
704.879	0.1
705.199	0.1
705.519	0.1
705.838	0.1
706.158	0.1
706.478	0.1
706.797	0.1
707.116	0.1
707.436	0.1
707.755	0.1
708.074	0.1
708.393	0.1
708.712	0.09
709.031	0.09
709.35	0.09
709.669	0.09
709.988	0.09
710.307	0.09
710.626	0.09
710.944	0.09
711.263	0.09
711.582	0.09
711.9	0.09
712.219	0.1
712.537	0.09
712.855	0.09
713.174	0.1
713.492	0.1
713.81	0.1
714.128	0.1
714.446	0.1
714.764	0.09
715.082	0.09
715.4	0.1
715.718	0.09
716.035	0.09
716.353	0.09
716.671	0.1
716.988	0.09
717.306	0.09
717.623	0.1
717.941	0.1
718.258	0.1
718.575	0.1
718.893	0.1
719.21	0.1
719.527	0.1
719.844	0.1
720.161	0.1
720.478	0.1
720.795	0.1
721.112	0.1
721.428	0.1
721.745	0.1
722.062	0.1
722.378	0.1
722.695	0.1
723.011	0.1
723.328	0.1
723.644	0.1
723.96	0.1
724.276	0.1
724.593	0.1
724.909	0.1
725.225	0.1
725.541	0.1
725.857	0.1
726.173	0.1
726.488	0.11
726.804	0.1
727.12	0.1
727.435	0.1
727.751	0.1
728.067	0.1
728.382	0.1
728.697	0.1
729.013	0.1
729.328	0.1
729.643	0.1
729.958	0.1
730.273	0.1
730.588	0.1
730.903	0.1
731.218	0.1
731.533	0.1
731.848	0.1
732.163	0.1
732.477	0.09
732.792	0.1
733.107	0.09
733.421	0.1
733.736	0.09
734.05	0.1
734.364	0.1
734.678	0.09
734.993	0.09
735.307	0.1
735.621	0.09
735.935	0.09
736.249	0.09
736.563	0.09
736.877	0.09
737.19	0.1
737.504	0.09
737.818	0.09
738.131	0.09
738.445	0.09
738.758	0.09
739.072	0.09
739.385	0.09
739.698	0.09
740.012	0.09
740.325	0.09
740.638	0.09
740.951	0.09
741.264	0.08
741.577	0.09
741.89	0.09
742.203	0.08
742.515	0.09
742.828	0.08
743.141	0.08
743.453	0.08
743.766	0.08
744.078	0.08
744.391	0.08
744.703	0.08
745.015	0.08
745.327	0.08
745.639	0.08
745.952	0.08
746.264	0.08
746.575	0.08
746.887	0.08
747.199	0.08
747.511	0.07
747.823	0.07
748.134	0.07
748.446	0.07
748.757	0.07
749.069	0.07
749.38	0.07
749.692	0.07
750.003	0.07
750.314	0.07
750.625	0.07
750.936	0.07
751.248	0.07
751.559	0.07
751.869	0.06
752.18	0.07
752.491	0.06
752.802	0.06
753.112	0.06
753.423	0.06
753.734	0.06
754.044	0.06
754.355	0.06
754.665	0.06
754.975	0.06
755.285	0.06
755.596	0.06
755.906	0.06
756.216	0.06
756.526	0.06
756.836	0.06
757.146	0.06
757.455	0.06
757.765	0.05
758.075	0.05
758.385	0.05
758.694	0.05
759.004	0.05
759.313	0.05
759.622	0.05
759.932	0.05
760.241	0.05
760.55	0.05
760.859	0.05
761.168	0.05
761.477	0.05
761.786	0.05
762.095	0.05
762.404	0.05
762.713	0.05
763.021	0.05
763.33	0.05
763.639	0.05
763.947	0.05
764.256	0.05
764.564	0.05
764.872	0.05
765.181	0.05
765.489	0.05
765.797	0.05
766.105	0.05
766.413	0.05
766.721	0.05
767.029	0.05
767.337	0.05
767.644	0.05
767.952	0.05
768.26	0.05
768.567	0.05
768.875	0.05
769.182	0.05
769.49	0.05
769.797	0.05
770.104	0.05
770.411	0.05
770.718	0.05
771.026	0.05
771.333	0.05
771.639	0.05
771.946	0.05
772.253	0.05
772.56	0.05
772.867	0.05
773.173	0.05
773.48	0.05
773.786	0.05
774.093	0.05
774.399	0.05
774.705	0.05
775.012	0.04
775.318	0.05
775.624	0.04
775.93	0.05
776.236	0.04
776.542	0.05
776.848	0.05
777.154	0.04
777.459	0.05
777.765	0.05
778.071	0.05
778.376	0.05
778.682	0.05
778.987	0.05
779.292	0.05
779.598	0.05
779.903	0.05
780.208	0.05
780.513	0.05
780.818	0.05
781.123	0.05
781.428	0.05
781.733	0.05
782.038	0.05
782.343	0.05
782.647	0.05
782.952	0.05
783.256	0.05
783.561	0.05
783.865	0.06
784.17	0.05
784.474	0.05
784.778	0.05
785.082	0.05
785.386	0.05
785.69	0.05
785.994	0.05
786.298	0.05
786.602	0.05
786.906	0.05
787.209	0.05
787.513	0.05
787.817	0.05
788.12	0.05
788.424	0.05
788.727	0.05
789.03	0.05
789.333	0.05
789.637	0.05
789.94	0.05
790.243	0.05
790.546	0.05
790.849	0.05
791.152	0.05
791.454	0.05
791.757	0.05
792.06	0.05
792.362	0.05
792.665	0.05
792.967	0.05
793.27	0.05
793.572	0.05
793.874	0.05
794.177	0.05
794.479	0.05
794.781	0.06
795.083	0.05
795.385	0.06
795.687	0.06
795.989	0.06
796.29	0.06
796.592	0.06
796.894	0.06
797.195	0.06
797.497	0.06
797.798	0.06
798.1	0.06
798.401	0.06
798.702	0.07
799.003	0.06
799.304	0.06
799.605	0.06
799.906	0.06
800.207	0.06
800.508	0.06
800.809	0.06
801.11	0.06
801.41	0.06
801.711	0.06
802.011	0.07
802.312	0.06
802.612	0.06
802.913	0.06
803.213	0.07
803.513	0.06
803.813	0.07
804.113	0.06
804.413	0.06
804.713	0.07
805.013	0.06
805.313	0.06
805.613	0.07
805.912	0.07
806.212	0.07
806.511	0.07
806.811	0.06
807.11	0.07
807.41	0.07
807.709	0.07
808.008	0.07
808.307	0.06
808.606	0.07
808.905	0.07
809.204	0.07
809.503	0.07
809.802	0.07
810.101	0.07
810.399	0.07
810.698	0.07
810.997	0.07
811.295	0.07
811.593	0.07
811.892	0.07
812.19	0.08
812.488	0.08
812.786	0.07
813.084	0.07
813.383	0.08
813.68	0.08
813.978	0.08
814.276	0.07
814.574	0.08
814.872	0.08
815.169	0.07
815.467	0.08
815.764	0.08
816.062	0.08
816.359	0.08
816.656	0.08
816.954	0.07
817.251	0.08
817.548	0.08
817.845	0.08
818.142	0.08
818.439	0.08
818.735	0.08
819.032	0.08
819.329	0.08
819.626	0.08
819.922	0.08
820.219	0.08
820.515	0.09
820.811	0.08
821.108	0.08
821.404	0.08
821.7	0.09
821.996	0.08
822.292	0.08
822.588	0.08
822.884	0.08
823.18	0.08
823.475	0.08
823.771	0.08
824.067	0.08
824.362	0.08
824.658	0.08
824.953	0.09
825.249	0.08
825.544	0.09
825.839	0.08
826.134	0.09
826.429	0.09
826.724	0.09
827.019	0.08
827.314	0.09
827.609	0.09
827.904	0.09
828.198	0.09
828.493	0.09
828.787	0.09
829.082	0.09
829.376	0.09
829.671	0.09
829.965	0.09
830.259	0.09
830.553	0.09
830.847	0.09
831.141	0.09
831.435	0.1
831.729	0.09
832.023	0.1
832.317	0.1
832.61	0.1
832.904	0.1
833.197	0.1
833.491	0.1
833.784	0.1
834.077	0.1
834.371	0.1
834.664	0.09
834.957	0.09
835.25	0.1
835.543	0.1
835.836	0.1
836.129	0.1
836.421	0.1
836.714	0.1
837.007	0.09
837.299	0.09
837.592	0.1
837.884	0.11
838.177	0.09
838.469	0.1
838.761	0.09
839.053	0.09
839.345	0.1
839.637	0.11
839.929	0.11
840.221	0.1
840.513	0.1
840.805	0.1
841.096	0.1
841.388	0.1
841.68	0.1
841.971	0.09
842.262	0.1
842.554	0.11
842.845	0.11
843.136	0.11
843.427	0.11
843.718	0.1
844.009	0.1
844.3	0.11
844.591	0.11
844.882	0.11
845.173	0.11
845.463	0.12
845.754	0.1
846.044	0.1
846.335	0.11
846.625	0.11
846.915	0.1
847.206	0.12
847.496	0.11
847.786	0.11
848.076	0.12
848.366	0.11
848.656	0.12
848.945	0.12
849.235	0.11
849.525	0.11
849.814	0.12
850.104	0.11
850.393	0.11
850.683	0.11
850.972	0.12
851.261	0.12
851.551	0.12
851.84	0.11
852.129	0.12
852.418	0.1
852.707	0.12
852.995	0.12
853.284	0.12
853.573	0.11
853.862	0.11
854.15	0.13
854.439	0.12
854.727	0.13
855.015	0.12
855.304	0.12
855.592	0.12
855.88	0.14
856.168	0.13
856.456	0.13
856.744	0.13
857.032	0.13
857.32	0.12
857.607	0.14
857.895	0.13
858.183	0.13
858.47	0.14
858.757	0.12
859.045	0.13
859.332	0.11
859.619	0.13
859.907	0.15
860.194	0.14
860.481	0.15
860.768	0.11
861.054	0.14
861.341	0.1
861.628	0.13
861.915	0.14
862.201	0.12
862.488	0.13
862.774	0.12
863.061	0.15
863.347	0.12
863.633	0.11
863.919	0.1
864.205	0.11
864.491	0.12
864.777	0.13
865.063	0.13
865.349	0.11
865.635	0.14
865.92	0.11
866.206	0.11
866.492	0.09
866.777	0.12
867.062	0.11
867.348	0.11
867.633	0.13
867.918	0.1
868.203	0.13
868.488	0.12
868.773	0.17
869.058	0.14
869.343	0.13
869.628	0.1
869.912	0.13
870.197	0.15
870.482	0.16
870.766	0.07
871.05	0.12
871.335	0.13
871.619	0.08
871.903	0.1
872.187	0.2
872.471	0.1
872.755	0.19
873.039	0.06
873.323	0.12
873.607	0.14
873.89	0.1
874.174	0.06
874.458	0.09
874.741	0.09
875.024	0.08
875.308	0.14
875.591	0.08
875.874	0.11
876.157	0.17
876.44	0.12
876.723	0.13
877.006	0.11
877.289	0.06
877.572	0.21
877.854	0.12
878.137	0.11
878.42	0.08
878.702	0.13
878.984	0.11
879.267	0.14
879.549	0.14
879.831	0.06
880.113	0.04
880.395	0.13
880.677	0.1
880.959	0.08
