Data from Rubpy_BV_1800_EDTA_Buffered_Absorbance_16-47-44-614.txt Node
Date: Wed Jul 01 16:47:44 BST 2026
User: fpm-admin
Spectrometer: OFX00224
Trigger mode: 0
Integration Time (sec): 7.000000E-2
Scans to average: 3
Nonlinearity correction enabled: false
Boxcar width: 0
Storing dark spectrum: false
XAxis mode: Wavelengths
Number of Pixels in Spectrum: 2136
>>>>>Begin Spectral Data<<<<<
154.91	-0
155.289	-0.41
155.669	0.44
156.048	-0
156.428	-0
156.807	0.01
157.186	-0.95
157.566	-0.02
157.945	-0
158.325	-0.07
158.704	-0.36
159.083	0.06
159.462	-0.1
159.842	-0
160.221	-0
160.6	-0.85
160.979	-0
161.359	-0
161.738	-0.36
162.117	0.6
162.496	0.03
162.875	-0.58
163.254	0.17
163.633	-0
164.012	-0
164.391	0.89
164.77	0.08
165.149	-0.7
165.528	-0
165.907	0.21
166.286	-0.23
166.665	-0
167.044	-0
167.423	0.14
167.802	-0
168.181	-1.79
168.559	-0.6
168.938	0.49
169.317	-0
169.696	-1.41
170.074	0.7
170.453	-0.44
170.832	-1.04
171.21	-0.03
171.589	-0.19
171.968	1.23
172.346	-0.56
172.725	-0
173.103	-0.1
173.482	0.24
173.861	0.05
174.239	-0.04
174.617	-0.16
174.996	0.02
175.374	-0.5
175.753	-0.75
176.131	-0
176.51	-0
176.888	-0
177.266	-0
177.645	0.01
178.023	0.9
178.401	-0.26
178.779	-0.1
179.158	-0
179.536	-0.07
179.914	-0
180.292	-0.18
180.67	-0.23
181.048	-0
181.427	-0
181.805	0.05
182.183	-0.63
182.561	-0
182.939	-0.08
183.317	-0.48
183.695	-0
184.073	-0
184.451	-0.76
184.829	-0.2
185.206	-0.14
185.584	-0
185.962	-0.51
186.34	-0.4
186.718	0.23
187.096	-0
187.473	-0.41
187.851	-0
188.229	-0.36
188.607	0.15
188.984	0.18
189.362	0.21
189.74	0.44
190.117	0.25
190.495	0.3
190.872	0.07
191.25	0.21
191.627	0.39
192.005	0.2
192.382	0.31
192.76	0.29
193.137	0.4
193.515	0.4
193.892	0.3
194.269	0.3
194.647	0.3
195.024	0.18
195.401	0.32
195.779	0.11
196.156	0.38
196.533	0.31
196.91	0.43
197.288	0.2
197.665	0.18
198.042	0.24
198.419	0.29
198.796	0.28
199.173	0.21
199.55	0.23
199.927	0.26
200.304	0.27
200.681	0.25
201.058	0.22
201.435	0.43
201.812	0.18
202.189	0.19
202.566	0.26
202.943	0.14
203.32	0.46
203.697	0.37
204.073	0.3
204.45	0.5
204.827	0.21
205.204	0.16
205.58	0.25
205.957	0.21
206.334	0.3
206.71	0.32
207.087	0.23
207.464	0.36
207.84	0.22
208.217	0.2
208.593	0.16
208.97	0.26
209.346	0.35
209.723	0.25
210.099	0.48
210.476	0.27
210.852	0.32
211.228	0.24
211.605	0.32
211.981	0.27
212.357	0.41
212.733	0.28
213.11	0.22
213.486	0.31
213.862	0.29
214.238	0.36
214.614	0.26
214.991	0.3
215.367	0.34
215.743	0.26
216.119	0.32
216.495	0.54
216.871	0.23
217.247	0.33
217.623	0.26
217.999	0.36
218.375	0.27
218.751	0.21
219.127	0.29
219.502	0.23
219.878	0.17
220.254	0.38
220.63	0.5
221.006	0.33
221.381	0.53
221.757	0.27
222.133	0.25
222.508	0.44
222.884	0.2
223.26	0.36
223.635	0.29
224.011	0.26
224.386	0.24
224.762	0.48
225.137	0.37
225.513	0.43
225.888	0.27
226.264	0.25
226.639	0.24
227.014	0.37
227.39	0.23
227.765	0.3
228.14	0.28
228.516	0.29
228.891	0.28
229.266	0.37
229.641	0.34
230.017	0.3
230.392	0.27
230.767	0.34
231.142	0.31
231.517	0.31
231.892	0.32
232.267	0.37
232.642	0.33
233.017	0.37
233.392	0.37
233.767	0.36
234.142	0.19
234.517	0.22
234.892	0.42
235.267	0.23
235.641	0.4
236.016	0.41
236.391	0.37
236.766	0.34
237.14	0.31
237.515	0.28
237.89	0.41
238.264	0.5
238.639	0.24
239.014	0.62
239.388	0.15
239.763	0.39
240.137	0.15
240.512	0.26
240.886	0.26
241.261	0.38
241.635	0.31
242.009	0.32
242.384	0.28
242.758	0.4
243.132	0.29
243.507	0.24
243.881	0.23
244.255	0.23
244.629	0.35
245.004	0.42
245.378	0.4
245.752	0.35
246.126	0.32
246.5	0.3
246.874	0.18
247.248	0.3
247.622	0.49
247.996	0.28
248.37	0.29
248.744	0.29
249.118	0.34
249.492	0.26
249.866	0.27
250.24	0.4
250.613	0.39
250.987	0.27
251.361	0.33
251.735	0.33
252.108	0.37
252.482	0.29
252.856	0.24
253.229	0.32
253.603	0.32
253.977	0.46
254.35	0.4
254.724	0.29
255.097	0.32
255.471	0.25
255.844	0.33
256.218	0.39
256.591	0.27
256.964	0.46
257.338	0.33
257.711	0.31
258.084	0.24
258.458	0.27
258.831	0.49
259.204	0.43
259.577	0.36
259.95	0.34
260.323	0.33
260.697	0.29
261.07	0.22
261.443	0.41
261.816	0.35
262.189	0.32
262.562	0.28
262.935	0.4
263.308	0.23
263.68	0.39
264.053	0.35
264.426	0.39
264.799	0.32
265.172	0.35
265.545	0.32
265.917	0.45
266.29	0.34
266.663	0.28
267.035	0.28
267.408	0.28
267.781	0.28
268.153	0.2
268.526	0.24
268.898	0.31
269.271	0.35
269.643	0.34
270.016	0.3
270.388	0.23
270.76	0.33
271.133	0.32
271.505	0.27
271.877	0.19
272.25	0.33
272.622	0.32
272.994	0.5
273.366	0.34
273.739	0.23
274.111	0.28
274.483	0.24
274.855	0.27
275.227	0.35
275.599	0.37
275.971	0.24
276.343	0.29
276.715	0.24
277.087	0.35
277.459	0.47
277.831	0.23
278.203	0.23
278.574	0.29
278.946	0.24
279.318	0.29
279.69	0.32
280.061	0.29
280.433	0.26
280.805	0.32
281.176	0.38
281.548	0.35
281.92	0.36
282.291	0.32
282.663	0.24
283.034	0.26
283.406	0.31
283.777	0.32
284.148	0.32
284.52	0.27
284.891	0.29
285.262	0.33
285.634	0.32
286.005	0.27
286.376	0.38
286.747	0.31
287.119	0.27
287.49	0.36
287.861	0.27
288.232	0.27
288.603	0.39
288.974	0.19
289.345	0.28
289.716	0.24
290.087	0.24
290.458	0.29
290.829	0.31
291.2	0.33
291.571	0.45
291.941	0.33
292.312	0.33
292.683	0.31
293.054	0.27
293.424	0.26
293.795	0.34
294.166	0.27
294.536	0.3
294.907	0.29
295.277	0.34
295.648	0.4
296.018	0.31
296.389	0.25
296.759	0.21
297.13	0.28
297.5	0.36
297.871	0.3
298.241	0.44
298.611	0.28
298.981	0.33
299.352	0.39
299.722	0.29
300.092	0.38
300.462	0.28
300.832	0.34
301.202	0.31
301.573	0.31
301.943	0.27
302.313	0.26
302.683	0.32
303.053	0.35
303.422	0.36
303.792	0.29
304.162	0.33
304.532	0.36
304.902	0.28
305.272	0.28
305.641	0.3
306.011	0.29
306.381	0.33
306.75	0.34
307.12	0.3
307.49	0.29
307.859	0.24
308.229	0.23
308.598	0.25
308.968	0.26
309.337	0.22
309.707	0.28
310.076	0.22
310.445	0.23
310.815	0.23
311.184	0.25
311.553	0.27
311.923	0.23
312.292	0.23
312.661	0.23
313.03	0.24
313.399	0.23
313.768	0.23
314.137	0.21
314.506	0.22
314.875	0.23
315.244	0.21
315.613	0.23
315.982	0.25
316.351	0.26
316.72	0.25
317.089	0.25
317.458	0.25
317.826	0.27
318.195	0.27
318.564	0.27
318.933	0.27
319.301	0.27
319.67	0.27
320.038	0.28
320.407	0.28
320.775	0.28
321.144	0.29
321.512	0.29
321.881	0.3
322.249	0.3
322.618	0.32
322.986	0.31
323.354	0.31
323.723	0.31
324.091	0.33
324.459	0.33
324.827	0.33
325.195	0.33
325.564	0.35
325.932	0.35
326.3	0.35
326.668	0.35
327.036	0.36
327.404	0.37
327.772	0.36
328.14	0.37
328.508	0.36
328.875	0.38
329.243	0.39
329.611	0.4
329.979	0.4
330.346	0.41
330.714	0.41
331.082	0.43
331.449	0.41
331.817	0.42
332.185	0.44
332.552	0.44
332.92	0.46
333.287	0.45
333.655	0.46
334.022	0.48
334.389	0.47
334.757	0.49
335.124	0.5
335.491	0.52
335.859	0.52
336.226	0.53
336.593	0.54
336.96	0.56
337.327	0.56
337.695	0.57
338.062	0.57
338.429	0.58
338.796	0.6
339.163	0.62
339.53	0.62
339.897	0.64
340.263	0.65
340.63	0.65
340.997	0.67
341.364	0.68
341.731	0.7
342.097	0.7
342.464	0.72
342.831	0.73
343.197	0.74
343.564	0.75
343.931	0.76
344.297	0.76
344.664	0.79
345.03	0.8
345.396	0.8
345.763	0.82
346.129	0.84
346.496	0.84
346.862	0.86
347.228	0.86
347.594	0.87
347.961	0.89
348.327	0.9
348.693	0.91
349.059	0.93
349.425	0.93
349.791	0.95
350.157	0.96
350.523	0.97
350.889	0.98
351.255	0.99
351.621	1
351.987	1
352.353	1.02
352.719	1.03
353.084	1.05
353.45	1.05
353.816	1.07
354.181	1.07
354.547	1.08
354.913	1.1
355.278	1.12
355.644	1.12
356.009	1.15
356.375	1.16
356.74	1.16
357.106	1.18
357.471	1.18
357.836	1.22
358.202	1.24
358.567	1.25
358.932	1.28
359.297	1.28
359.663	1.29
360.028	1.31
360.393	1.33
360.758	1.34
361.123	1.36
361.488	1.38
361.853	1.39
362.218	1.41
362.583	1.42
362.948	1.44
363.312	1.46
363.677	1.45
364.042	1.49
364.407	1.5
364.772	1.49
365.136	1.53
365.501	1.52
365.865	1.54
366.23	1.54
366.595	1.55
366.959	1.6
367.324	1.58
367.688	1.61
368.052	1.62
368.417	1.64
368.781	1.63
369.145	1.64
369.51	1.67
369.874	1.67
370.238	1.66
370.602	1.66
370.967	1.69
371.331	1.68
371.695	1.65
372.059	1.67
372.423	1.67
372.787	1.68
373.151	1.64
373.515	1.68
373.878	1.68
374.242	1.67
374.606	1.65
374.97	1.66
375.334	1.66
375.697	1.62
376.061	1.63
376.425	1.62
376.788	1.6
377.152	1.57
377.515	1.59
377.879	1.57
378.242	1.52
378.606	1.5
378.969	1.5
379.333	1.48
379.696	1.47
380.059	1.45
380.422	1.42
380.786	1.42
381.149	1.42
381.512	1.38
381.875	1.39
382.238	1.37
382.601	1.34
382.964	1.33
383.327	1.31
383.69	1.3
384.053	1.28
384.416	1.27
384.779	1.26
385.142	1.25
385.504	1.25
385.867	1.24
386.23	1.24
386.593	1.22
386.955	1.2
387.318	1.2
387.68	1.19
388.043	1.2
388.405	1.19
388.768	1.19
389.13	1.18
389.493	1.18
389.855	1.16
390.217	1.14
390.58	1.15
390.942	1.13
391.304	1.11
391.666	1.1
392.028	1.09
392.391	1.09
392.753	1.07
393.115	1.05
393.477	1.03
393.839	1.04
394.201	1.02
394.563	1.01
394.924	1.01
395.286	1.01
395.648	1.01
396.01	1.01
396.371	1.03
396.733	1.04
397.095	1.05
397.456	1.06
397.818	1.09
398.18	1.12
398.541	1.13
398.903	1.16
399.264	1.19
399.625	1.2
399.987	1.24
400.348	1.25
400.709	1.27
401.071	1.27
401.432	1.28
401.793	1.27
402.154	1.25
402.515	1.25
402.876	1.23
403.238	1.21
403.599	1.17
403.96	1.15
404.32	1.09
404.681	1.06
405.042	1.01
405.403	0.98
405.764	0.93
406.125	0.89
406.485	0.84
406.846	0.8
407.207	0.75
407.567	0.72
407.928	0.69
408.288	0.64
408.649	0.61
409.009	0.57
409.37	0.54
409.73	0.52
410.091	0.48
410.451	0.47
410.811	0.44
411.171	0.43
411.532	0.4
411.892	0.38
412.252	0.36
412.612	0.35
412.972	0.33
413.332	0.31
413.692	0.3
414.052	0.29
414.412	0.28
414.772	0.27
415.132	0.27
415.492	0.25
415.851	0.25
416.211	0.24
416.571	0.24
416.931	0.23
417.29	0.22
417.65	0.22
418.009	0.2
418.369	0.2
418.728	0.2
419.088	0.2
419.447	0.19
419.807	0.19
420.166	0.18
420.525	0.18
420.884	0.17
421.244	0.17
421.603	0.17
421.962	0.15
422.321	0.16
422.68	0.16
423.039	0.15
423.398	0.15
423.757	0.15
424.116	0.15
424.475	0.15
424.834	0.14
425.193	0.15
425.551	0.15
425.91	0.14
426.269	0.15
426.628	0.14
426.986	0.14
427.345	0.13
427.703	0.13
428.062	0.13
428.42	0.14
428.779	0.13
429.137	0.14
429.496	0.12
429.854	0.13
430.212	0.13
430.57	0.13
430.929	0.12
431.287	0.13
431.645	0.13
432.003	0.13
432.361	0.13
432.719	0.13
433.077	0.13
433.435	0.12
433.793	0.13
434.151	0.13
434.509	0.13
434.866	0.13
435.224	0.12
435.582	0.12
435.94	0.12
436.297	0.13
436.655	0.13
437.012	0.12
437.37	0.13
437.727	0.13
438.085	0.13
438.442	0.13
438.8	0.13
439.157	0.12
439.514	0.12
439.872	0.11
440.229	0.12
440.586	0.12
440.943	0.13
441.3	0.13
441.657	0.13
442.014	0.13
442.371	0.13
442.728	0.13
443.085	0.12
443.442	0.12
443.799	0.12
444.156	0.12
444.513	0.13
444.869	0.12
445.226	0.13
445.583	0.13
445.939	0.13
446.296	0.12
446.652	0.13
447.009	0.12
447.365	0.13
447.722	0.13
448.078	0.13
448.434	0.14
448.791	0.13
449.147	0.13
449.503	0.12
449.859	0.12
450.215	0.13
450.571	0.13
450.928	0.13
451.284	0.12
451.64	0.13
451.995	0.13
452.351	0.13
452.707	0.13
453.063	0.13
453.419	0.12
453.775	0.12
454.13	0.12
454.486	0.12
454.842	0.12
455.197	0.11
455.553	0.12
455.908	0.11
456.264	0.1
456.619	0.11
456.975	0.11
457.33	0.11
457.685	0.11
458.04	0.1
458.396	0.11
458.751	0.1
459.106	0.09
459.461	0.09
459.816	0.1
460.171	0.08
460.526	0.09
460.881	0.08
461.236	0.07
461.591	0.08
461.946	0.08
462.301	0.07
462.655	0.07
463.01	0.07
463.365	0.06
463.719	0.06
464.074	0.05
464.428	0.04
464.783	0.04
465.137	0.04
465.492	0.03
465.846	0.04
466.201	0.04
466.555	0.05
466.909	0.05
467.263	0.06
467.618	0.06
467.972	0.06
468.326	0.05
468.68	0.05
469.034	0.05
469.388	0.04
469.742	0.05
470.096	0.06
470.45	0.06
470.804	0.06
471.157	0.06
471.511	0.06
471.865	0.06
472.218	0.07
472.572	0.08
472.926	0.08
473.279	0.09
473.633	0.09
473.986	0.1
474.34	0.1
474.693	0.12
475.046	0.13
475.4	0.14
475.753	0.15
476.106	0.15
476.459	0.16
476.812	0.17
477.165	0.17
477.519	0.18
477.872	0.19
478.224	0.2
478.577	0.21
478.93	0.21
479.283	0.23
479.636	0.23
479.989	0.23
480.341	0.24
480.694	0.25
481.047	0.25
481.399	0.26
481.752	0.26
482.104	0.27
482.457	0.28
482.809	0.29
483.162	0.28
483.514	0.29
483.866	0.3
484.219	0.3
484.571	0.31
484.923	0.31
485.275	0.32
485.627	0.32
485.979	0.33
486.331	0.34
486.683	0.33
487.035	0.34
487.387	0.35
487.739	0.36
488.091	0.36
488.443	0.37
488.794	0.36
489.146	0.37
489.498	0.37
489.849	0.37
490.201	0.38
490.552	0.38
490.904	0.39
491.255	0.39
491.607	0.4
491.958	0.4
492.309	0.4
492.661	0.41
493.012	0.41
493.363	0.41
493.714	0.42
494.065	0.42
494.416	0.43
494.767	0.43
495.118	0.43
495.469	0.44
495.82	0.44
496.171	0.45
496.522	0.46
496.872	0.46
497.223	0.45
497.574	0.46
497.924	0.46
498.275	0.48
498.626	0.48
498.976	0.48
499.327	0.49
499.677	0.48
500.027	0.49
500.378	0.49
500.728	0.49
501.078	0.5
501.428	0.5
501.779	0.51
502.129	0.51
502.479	0.52
502.829	0.52
503.179	0.53
503.529	0.53
503.879	0.54
504.229	0.54
504.578	0.54
504.928	0.54
505.278	0.55
505.628	0.55
505.977	0.55
506.327	0.56
506.676	0.57
507.026	0.57
507.375	0.57
507.725	0.58
508.074	0.58
508.424	0.58
508.773	0.58
509.122	0.58
509.471	0.59
509.82	0.59
510.17	0.6
510.519	0.59
510.868	0.6
511.217	0.6
511.566	0.6
511.915	0.61
512.263	0.6
512.612	0.62
512.961	0.62
513.31	0.62
513.659	0.62
514.007	0.64
514.356	0.63
514.704	0.63
515.053	0.64
515.401	0.64
515.75	0.65
516.098	0.65
516.447	0.65
516.795	0.65
517.143	0.65
517.491	0.66
517.839	0.66
518.188	0.66
518.536	0.67
518.884	0.67
519.232	0.66
519.58	0.67
519.928	0.67
520.275	0.68
520.623	0.68
520.971	0.69
521.319	0.69
521.666	0.69
522.014	0.69
522.362	0.69
522.709	0.7
523.057	0.7
523.404	0.7
523.752	0.7
524.099	0.71
524.446	0.71
524.794	0.71
525.141	0.71
525.488	0.72
525.835	0.72
526.182	0.72
526.529	0.73
526.876	0.72
527.223	0.73
527.57	0.73
527.917	0.73
528.264	0.73
528.611	0.73
528.958	0.74
529.304	0.73
529.651	0.73
529.998	0.75
530.344	0.75
530.691	0.75
531.037	0.75
531.384	0.75
531.73	0.75
532.076	0.76
532.423	0.75
532.769	0.75
533.115	0.76
533.461	0.75
533.807	0.76
534.154	0.76
534.5	0.77
534.846	0.77
535.192	0.76
535.537	0.77
535.883	0.77
536.229	0.78
536.575	0.78
536.921	0.77
537.266	0.78
537.612	0.78
537.957	0.78
538.303	0.78
538.649	0.79
538.994	0.79
539.339	0.78
539.685	0.79
540.03	0.79
540.375	0.79
540.721	0.79
541.066	0.79
541.411	0.79
541.756	0.79
542.101	0.79
542.446	0.8
542.791	0.8
543.136	0.8
543.481	0.8
543.825	0.8
544.17	0.8
544.515	0.8
544.86	0.8
545.204	0.81
545.549	0.8
545.893	0.8
546.238	0.8
546.582	0.8
546.927	0.8
547.271	0.81
547.615	0.81
547.96	0.81
548.304	0.81
548.648	0.81
548.992	0.81
549.336	0.81
549.68	0.81
550.024	0.82
550.368	0.81
550.712	0.81
551.056	0.81
551.4	0.81
551.743	0.81
552.087	0.81
552.431	0.81
552.774	0.81
553.118	0.81
553.462	0.81
553.805	0.81
554.148	0.81
554.492	0.81
554.835	0.81
555.178	0.81
555.522	0.81
555.865	0.81
556.208	0.81
556.551	0.8
556.894	0.81
557.237	0.81
557.58	0.81
557.923	0.81
558.266	0.81
558.609	0.8
558.952	0.8
559.294	0.8
559.637	0.8
559.98	0.8
560.322	0.8
560.665	0.8
561.007	0.79
561.35	0.8
561.692	0.79
562.034	0.8
562.377	0.8
562.719	0.79
563.061	0.79
563.403	0.79
563.745	0.79
564.088	0.79
564.43	0.79
564.772	0.78
565.113	0.79
565.455	0.79
565.797	0.79
566.139	0.79
566.481	0.79
566.822	0.78
567.164	0.78
567.506	0.78
567.847	0.78
568.189	0.78
568.53	0.78
568.872	0.78
569.213	0.78
569.554	0.78
569.895	0.78
570.237	0.77
570.578	0.77
570.919	0.77
571.26	0.77
571.601	0.76
571.942	0.77
572.283	0.75
572.624	0.76
572.965	0.76
573.306	0.75
573.646	0.75
573.987	0.75
574.328	0.75
574.668	0.75
575.009	0.75
575.349	0.75
575.69	0.74
576.03	0.74
576.37	0.74
576.711	0.73
577.051	0.73
577.391	0.74
577.731	0.74
578.072	0.74
578.412	0.73
578.752	0.73
579.092	0.73
579.431	0.72
579.771	0.71
580.111	0.7
580.451	0.72
580.791	0.72
581.13	0.72
581.47	0.72
581.81	0.72
582.149	0.71
582.489	0.72
582.828	0.7
583.167	0.68
583.507	0.65
583.846	0.65
584.185	0.69
584.525	0.7
584.864	0.71
585.203	0.71
585.542	0.71
585.881	0.71
586.22	0.71
586.559	0.7
586.898	0.69
587.236	0.69
587.575	0.69
587.914	0.69
588.252	0.7
588.591	0.7
588.93	0.7
589.268	0.69
589.607	0.7
589.945	0.7
590.283	0.7
590.622	0.69
590.96	0.7
591.298	0.7
591.636	0.7
591.974	0.71
592.313	0.7
592.651	0.7
592.989	0.69
593.326	0.7
593.664	0.7
594.002	0.69
594.34	0.69
594.678	0.69
595.015	0.69
595.353	0.68
595.691	0.69
596.028	0.7
596.366	0.69
596.703	0.69
597.04	0.69
597.378	0.7
597.715	0.69
598.052	0.69
598.389	0.69
598.726	0.69
599.064	0.69
599.401	0.69
599.738	0.69
600.074	0.69
600.411	0.69
600.748	0.69
601.085	0.68
601.422	0.68
601.758	0.68
602.095	0.68
602.432	0.68
602.768	0.68
603.105	0.68
603.441	0.68
603.777	0.68
604.114	0.68
604.45	0.68
604.786	0.67
605.122	0.68
605.459	0.67
605.795	0.67
606.131	0.67
606.467	0.67
606.803	0.67
607.139	0.66
607.474	0.66
607.81	0.66
608.146	0.66
608.482	0.66
608.817	0.66
609.153	0.65
609.488	0.65
609.824	0.65
610.159	0.65
610.495	0.65
610.83	0.65
611.165	0.65
611.5	0.64
611.836	0.64
612.171	0.64
612.506	0.64
612.841	0.64
613.176	0.63
613.511	0.63
613.845	0.63
614.18	0.63
614.515	0.63
614.85	0.63
615.184	0.62
615.519	0.62
615.854	0.61
616.188	0.61
616.523	0.61
616.857	0.61
617.191	0.61
617.526	0.61
617.86	0.6
618.194	0.6
618.528	0.6
618.862	0.6
619.196	0.6
619.53	0.6
619.864	0.6
620.198	0.59
620.532	0.59
620.866	0.59
621.2	0.58
621.533	0.58
621.867	0.58
622.201	0.58
622.534	0.58
622.868	0.57
623.201	0.57
623.534	0.57
623.868	0.57
624.201	0.56
624.534	0.56
624.868	0.56
625.201	0.56
625.534	0.56
625.867	0.55
626.2	0.55
626.533	0.55
626.865	0.55
627.198	0.55
627.531	0.54
627.864	0.54
628.196	0.53
628.529	0.53
628.862	0.53
629.194	0.52
629.527	0.53
629.859	0.52
630.191	0.52
630.524	0.52
630.856	0.51
631.188	0.51
631.52	0.5
631.852	0.5
632.184	0.5
632.516	0.5
632.848	0.49
633.18	0.49
633.512	0.49
633.844	0.49
634.175	0.48
634.507	0.48
634.839	0.47
635.17	0.48
635.502	0.47
635.833	0.47
636.165	0.46
636.496	0.46
636.827	0.45
637.159	0.46
637.49	0.46
637.821	0.45
638.152	0.45
638.483	0.44
638.814	0.44
639.145	0.44
639.476	0.43
639.807	0.43
640.137	0.43
640.468	0.42
640.799	0.42
641.129	0.42
641.46	0.42
641.791	0.41
642.121	0.41
642.451	0.41
642.782	0.41
643.112	0.4
643.442	0.41
643.773	0.4
644.103	0.4
644.433	0.4
644.763	0.39
645.093	0.39
645.423	0.39
645.753	0.39
646.082	0.38
646.412	0.39
646.742	0.39
647.072	0.38
647.401	0.38
647.731	0.37
648.06	0.37
648.39	0.38
648.719	0.37
649.048	0.37
649.378	0.37
649.707	0.37
650.036	0.36
650.365	0.36
650.694	0.36
651.023	0.36
651.352	0.36
651.681	0.36
652.01	0.36
652.339	0.36
652.668	0.35
652.996	0.35
653.325	0.35
653.654	0.35
653.982	0.35
654.311	0.35
654.639	0.35
654.967	0.35
655.296	0.34
655.624	0.35
655.952	0.35
656.28	0.34
656.609	0.34
656.937	0.34
657.265	0.33
657.593	0.19
657.92	0.1
658.248	0.07
658.576	0.15
658.904	0.27
659.231	0.33
659.559	0.34
659.887	0.33
660.214	0.33
660.542	0.32
660.869	0.32
661.196	0.33
661.524	0.32
661.851	0.32
662.178	0.32
662.505	0.32
662.832	0.32
663.159	0.32
663.486	0.31
663.813	0.31
664.14	0.32
664.467	0.31
664.794	0.31
665.12	0.31
665.447	0.31
665.774	0.31
666.1	0.3
666.427	0.31
666.753	0.3
667.079	0.3
667.406	0.3
667.732	0.3
668.058	0.3
668.384	0.29
668.71	0.29
669.036	0.29
669.362	0.29
669.688	0.28
670.014	0.29
670.34	0.28
670.666	0.28
670.991	0.28
671.317	0.28
671.643	0.27
671.968	0.27
672.294	0.27
672.619	0.27
672.945	0.27
673.27	0.27
673.595	0.26
673.92	0.26
674.246	0.26
674.571	0.26
674.896	0.26
675.221	0.26
675.546	0.26
675.87	0.25
676.195	0.25
676.52	0.25
676.845	0.25
677.169	0.24
677.494	0.24
677.819	0.24
678.143	0.23
678.468	0.23
678.792	0.23
679.116	0.23
679.44	0.23
679.765	0.22
680.089	0.22
680.413	0.22
680.737	0.22
681.061	0.21
681.385	0.21
681.709	0.21
682.033	0.21
682.356	0.21
682.68	0.21
683.004	0.21
683.327	0.2
683.651	0.2
683.974	0.2
684.298	0.2
684.621	0.19
684.944	0.19
685.268	0.19
685.591	0.19
685.914	0.18
686.237	0.18
686.56	0.18
686.883	0.18
687.206	0.18
687.529	0.17
687.852	0.17
688.175	0.17
688.497	0.17
688.82	0.17
689.142	0.17
689.465	0.17
689.787	0.16
690.11	0.16
690.432	0.16
690.755	0.16
691.077	0.15
691.399	0.15
691.721	0.15
692.043	0.15
692.365	0.15
692.687	0.14
693.009	0.14
693.331	0.14
693.653	0.14
693.974	0.14
694.296	0.14
694.618	0.14
694.939	0.13
695.261	0.13
695.582	0.13
695.904	0.13
696.225	0.13
696.546	0.13
696.868	0.13
697.189	0.13
697.51	0.12
697.831	0.12
698.152	0.12
698.473	0.12
698.794	0.11
699.114	0.12
699.435	0.11
699.756	0.12
700.077	0.11
700.397	0.12
700.718	0.11
701.038	0.11
701.359	0.11
701.679	0.11
701.999	0.11
702.32	0.11
702.64	0.11
702.96	0.11
703.28	0.11
703.6	0.11
703.92	0.11
704.24	0.11
704.56	0.11
704.879	0.1
705.199	0.11
705.519	0.11
705.838	0.11
706.158	0.11
706.478	0.1
706.797	0.1
707.116	0.1
707.436	0.1
707.755	0.1
708.074	0.1
708.393	0.1
708.712	0.1
709.031	0.09
709.35	0.09
709.669	0.09
709.988	0.09
710.307	0.09
710.626	0.09
710.944	0.1
711.263	0.1
711.582	0.1
711.9	0.1
712.219	0.1
712.537	0.1
712.855	0.09
713.174	0.1
713.492	0.1
713.81	0.1
714.128	0.1
714.446	0.1
714.764	0.09
715.082	0.09
715.4	0.1
715.718	0.09
716.035	0.09
716.353	0.1
716.671	0.1
716.988	0.1
717.306	0.1
717.623	0.1
717.941	0.1
718.258	0.1
718.575	0.1
718.893	0.1
719.21	0.1
719.527	0.1
719.844	0.1
720.161	0.1
720.478	0.1
720.795	0.1
721.112	0.1
721.428	0.1
721.745	0.1
722.062	0.1
722.378	0.1
722.695	0.1
723.011	0.1
723.328	0.1
723.644	0.1
723.96	0.1
724.276	0.1
724.593	0.11
724.909	0.1
725.225	0.1
725.541	0.1
725.857	0.1
726.173	0.1
726.488	0.11
726.804	0.1
727.12	0.1
727.435	0.1
727.751	0.1
728.067	0.1
728.382	0.1
728.697	0.1
729.013	0.1
729.328	0.1
729.643	0.1
729.958	0.1
730.273	0.1
730.588	0.1
730.903	0.1
731.218	0.1
731.533	0.1
731.848	0.1
732.163	0.1
732.477	0.1
732.792	0.1
733.107	0.09
733.421	0.1
733.736	0.1
734.05	0.1
734.364	0.1
734.678	0.1
734.993	0.1
735.307	0.1
735.621	0.1
735.935	0.09
736.249	0.09
736.563	0.1
736.877	0.09
737.19	0.1
737.504	0.1
737.818	0.1
738.131	0.09
738.445	0.1
738.758	0.1
739.072	0.1
739.385	0.09
739.698	0.09
740.012	0.09
740.325	0.09
740.638	0.09
740.951	0.09
741.264	0.08
741.577	0.09
741.89	0.09
742.203	0.09
742.515	0.09
742.828	0.09
743.141	0.08
743.453	0.08
743.766	0.08
744.078	0.08
744.391	0.08
744.703	0.08
745.015	0.08
745.327	0.08
745.639	0.08
745.952	0.08
746.264	0.08
746.575	0.08
746.887	0.08
747.199	0.08
747.511	0.08
747.823	0.08
748.134	0.07
748.446	0.07
748.757	0.07
749.069	0.07
749.38	0.07
749.692	0.07
750.003	0.07
750.314	0.07
750.625	0.07
750.936	0.07
751.248	0.07
751.559	0.07
751.869	0.07
752.18	0.07
752.491	0.06
752.802	0.06
753.112	0.06
753.423	0.06
753.734	0.06
754.044	0.06
754.355	0.06
754.665	0.06
754.975	0.06
755.285	0.06
755.596	0.06
755.906	0.06
756.216	0.06
756.526	0.06
756.836	0.06
757.146	0.06
757.455	0.06
757.765	0.06
758.075	0.05
758.385	0.05
758.694	0.05
759.004	0.05
759.313	0.05
759.622	0.05
759.932	0.05
760.241	0.05
760.55	0.05
760.859	0.05
761.168	0.05
761.477	0.05
761.786	0.05
762.095	0.05
762.404	0.05
762.713	0.05
763.021	0.05
763.33	0.05
763.639	0.05
763.947	0.05
764.256	0.05
764.564	0.05
764.872	0.05
765.181	0.05
765.489	0.05
765.797	0.05
766.105	0.05
766.413	0.05
766.721	0.05
767.029	0.05
767.337	0.05
767.644	0.05
767.952	0.05
768.26	0.05
768.567	0.05
768.875	0.05
769.182	0.05
769.49	0.05
769.797	0.05
770.104	0.05
770.411	0.05
770.718	0.05
771.026	0.05
771.333	0.05
771.639	0.05
771.946	0.05
772.253	0.05
772.56	0.05
772.867	0.05
773.173	0.05
773.48	0.05
773.786	0.05
774.093	0.05
774.399	0.05
774.705	0.05
775.012	0.05
775.318	0.05
775.624	0.04
775.93	0.05
776.236	0.05
776.542	0.05
776.848	0.05
777.154	0.05
777.459	0.05
777.765	0.05
778.071	0.05
778.376	0.05
778.682	0.05
778.987	0.05
779.292	0.05
779.598	0.05
779.903	0.05
780.208	0.05
780.513	0.05
780.818	0.05
781.123	0.05
781.428	0.05
781.733	0.05
782.038	0.05
782.343	0.05
782.647	0.05
782.952	0.05
783.256	0.05
783.561	0.06
783.865	0.05
784.17	0.05
784.474	0.05
784.778	0.05
785.082	0.05
785.386	0.05
785.69	0.05
785.994	0.05
786.298	0.05
786.602	0.05
786.906	0.05
787.209	0.05
787.513	0.05
787.817	0.05
788.12	0.06
788.424	0.05
788.727	0.05
789.03	0.05
789.333	0.05
789.637	0.05
789.94	0.05
790.243	0.05
790.546	0.05
790.849	0.05
791.152	0.05
791.454	0.05
791.757	0.05
792.06	0.05
792.362	0.06
792.665	0.06
792.967	0.05
793.27	0.06
793.572	0.06
793.874	0.06
794.177	0.06
794.479	0.05
794.781	0.06
795.083	0.05
795.385	0.06
795.687	0.06
795.989	0.06
796.29	0.06
796.592	0.06
796.894	0.06
797.195	0.06
797.497	0.07
797.798	0.07
798.1	0.07
798.401	0.06
798.702	0.06
799.003	0.06
799.304	0.06
799.605	0.06
799.906	0.07
800.207	0.06
800.508	0.07
800.809	0.07
801.11	0.06
801.41	0.06
801.711	0.07
802.011	0.06
802.312	0.06
802.612	0.07
802.913	0.06
803.213	0.07
803.513	0.06
803.813	0.07
804.113	0.06
804.413	0.06
804.713	0.06
805.013	0.07
805.313	0.07
805.613	0.07
805.912	0.07
806.212	0.07
806.511	0.07
806.811	0.06
807.11	0.07
807.41	0.07
807.709	0.07
808.008	0.07
808.307	0.07
808.606	0.07
808.905	0.07
809.204	0.07
809.503	0.07
809.802	0.07
810.101	0.07
810.399	0.07
810.698	0.07
810.997	0.07
811.295	0.07
811.593	0.07
811.892	0.08
812.19	0.08
812.488	0.08
812.786	0.08
813.084	0.08
813.383	0.08
813.68	0.08
813.978	0.08
814.276	0.08
814.574	0.08
814.872	0.08
815.169	0.08
815.467	0.08
815.764	0.07
816.062	0.08
816.359	0.07
816.656	0.08
816.954	0.08
817.251	0.08
817.548	0.08
817.845	0.08
818.142	0.08
818.439	0.08
818.735	0.08
819.032	0.09
819.329	0.09
819.626	0.08
819.922	0.09
820.219	0.08
820.515	0.09
820.811	0.09
821.108	0.08
821.404	0.09
821.7	0.09
821.996	0.09
822.292	0.09
822.588	0.09
822.884	0.09
823.18	0.09
823.475	0.08
823.771	0.08
824.067	0.08
824.362	0.09
824.658	0.08
824.953	0.09
825.249	0.09
825.544	0.09
825.839	0.09
826.134	0.09
826.429	0.09
826.724	0.09
827.019	0.09
827.314	0.09
827.609	0.09
827.904	0.09
828.198	0.09
828.493	0.1
828.787	0.09
829.082	0.09
829.376	0.09
829.671	0.09
829.965	0.09
830.259	0.1
830.553	0.09
830.847	0.1
831.141	0.09
831.435	0.09
831.729	0.1
832.023	0.11
832.317	0.1
832.61	0.1
832.904	0.1
833.197	0.1
833.491	0.1
833.784	0.1
834.077	0.1
834.371	0.11
834.664	0.09
834.957	0.1
835.25	0.11
835.543	0.1
835.836	0.11
836.129	0.1
836.421	0.11
836.714	0.1
837.007	0.1
837.299	0.1
837.592	0.1
837.884	0.1
838.177	0.1
838.469	0.1
838.761	0.1
839.053	0.09
839.345	0.11
839.637	0.11
839.929	0.1
840.221	0.1
840.513	0.1
840.805	0.1
841.096	0.1
841.388	0.11
841.68	0.11
841.971	0.1
842.262	0.11
842.554	0.11
842.845	0.12
843.136	0.11
843.427	0.11
843.718	0.11
844.009	0.11
844.3	0.11
844.591	0.11
844.882	0.11
845.173	0.11
845.463	0.11
845.754	0.11
846.044	0.11
846.335	0.11
846.625	0.12
846.915	0.11
847.206	0.11
847.496	0.11
847.786	0.12
848.076	0.12
848.366	0.11
848.656	0.12
848.945	0.12
849.235	0.12
849.525	0.12
849.814	0.11
850.104	0.12
850.393	0.12
850.683	0.12
850.972	0.12
851.261	0.11
851.551	0.12
851.84	0.11
852.129	0.12
852.418	0.11
852.707	0.13
852.995	0.12
853.284	0.12
853.573	0.12
853.862	0.12
854.15	0.14
854.439	0.13
854.727	0.13
855.015	0.13
855.304	0.12
855.592	0.13
855.88	0.13
856.168	0.13
856.456	0.13
856.744	0.13
857.032	0.14
857.32	0.14
857.607	0.15
857.895	0.14
858.183	0.13
858.47	0.13
858.757	0.13
859.045	0.13
859.332	0.12
859.619	0.14
859.907	0.12
860.194	0.15
860.481	0.14
860.768	0.11
861.054	0.14
861.341	0.13
861.628	0.13
861.915	0.14
862.201	0.14
862.488	0.13
862.774	0.11
863.061	0.13
863.347	0.15
863.633	0.14
863.919	0.1
864.205	0.14
864.491	0.12
864.777	0.14
865.063	0.12
865.349	0.11
865.635	0.14
865.92	0.1
866.206	0.11
866.492	0.12
866.777	0.13
867.062	0.14
867.348	0.1
867.633	0.13
867.918	0.12
868.203	0.16
868.488	0.14
868.773	0.15
869.058	0.14
869.343	0.13
869.628	0.14
869.912	0.14
870.197	0.18
870.482	0.17
870.766	0.13
871.05	0.14
871.335	0.14
871.619	0.13
871.903	0.11
872.187	0.15
872.471	0.12
872.755	0.18
873.039	0.12
873.323	0.15
873.607	0.15
873.89	0.11
874.174	0.12
874.458	0.14
874.741	0.21
875.024	0.14
875.308	0.12
875.591	0.2
875.874	0.15
876.157	0.06
876.44	0.12
876.723	0.14
877.006	0.16
877.289	0.16
877.572	0.21
877.854	0.14
878.137	0.14
878.42	0.1
878.702	0.15
878.984	0.08
879.267	0.14
879.549	0.17
879.831	0.07
880.113	0.05
880.395	0.07
880.677	0.12
880.959	0.12
