Data from Rubpy_BV_1800_EDTA_Buffered_Absorbance_16-49-51-686.txt Node
Date: Wed Jul 01 16:49:51 BST 2026
User: fpm-admin
Spectrometer: OFX00224
Trigger mode: 0
Integration Time (sec): 7.000000E-2
Scans to average: 3
Nonlinearity correction enabled: false
Boxcar width: 0
Storing dark spectrum: false
XAxis mode: Wavelengths
Number of Pixels in Spectrum: 2136
>>>>>Begin Spectral Data<<<<<
154.91	-0
155.289	0.11
155.669	-0
156.048	0.18
156.428	-0
156.807	0.25
157.186	-0
157.566	-0
157.945	-0.95
158.325	-0.04
158.704	-0.07
159.083	0.21
159.462	-0
159.842	-0
160.221	-0
160.6	-0
160.979	-0
161.359	-0.05
161.738	-0
162.117	-0.48
162.496	0.21
162.875	-0.18
163.254	0.09
163.633	0.67
164.012	-0
164.391	-0.05
164.77	-0.11
165.149	-0.56
165.528	-0
165.907	-0
166.286	-0.21
166.665	-0
167.044	0.05
167.423	0.27
167.802	0.18
168.181	-0.3
168.559	-0.45
168.938	-0
169.317	-0
169.696	-0
170.074	-0.36
170.453	-0.09
170.832	-0.85
171.21	0.01
171.589	-0
171.968	1.05
172.346	-0.04
172.725	-0
173.103	-0
173.482	0.29
173.861	-0
174.239	-0.48
174.617	0.09
174.996	0.07
175.374	-0
175.753	0.18
176.131	0.07
176.51	-0
176.888	1.34
177.266	-0
177.645	-0.02
178.023	0.68
178.401	-0.11
178.779	-0.05
179.158	-0
179.536	0.27
179.914	-0.18
180.292	-0
180.67	-0.3
181.048	-0
181.427	0.2
181.805	0.7
182.183	-0.54
182.561	0.22
182.939	-0.19
183.317	-0.08
183.695	-0.12
184.073	-0
184.451	-0.15
184.829	0.4
185.206	-0.22
185.584	-0
185.962	0.33
186.34	-0.51
186.718	0.21
187.096	-0
187.473	0.05
187.851	-0.15
188.229	-0.3
188.607	0.16
188.984	0.19
189.362	0.12
189.74	0.4
190.117	0.31
190.495	0.4
190.872	0.35
191.25	0.42
191.627	0.3
192.005	0.27
192.382	0.36
192.76	0.36
193.137	0.3
193.515	0.32
193.892	0.25
194.269	0.28
194.647	0.26
195.024	0.24
195.401	0.34
195.779	0.22
196.156	0.27
196.533	0.28
196.91	0.34
197.288	0.54
197.665	0.19
198.042	0.13
198.419	0.16
198.796	0.07
199.173	0.28
199.55	0.41
199.927	0.23
200.304	0.2
200.681	0.28
201.058	0.18
201.435	0.34
201.812	0.27
202.189	0.5
202.566	0.53
202.943	0.18
203.32	0.38
203.697	0.32
204.073	0.06
204.45	0.28
204.827	0.38
205.204	0.05
205.58	0.22
205.957	0.35
206.334	0.2
206.71	0.38
207.087	0.42
207.464	0.29
207.84	0.46
208.217	0.24
208.593	0.16
208.97	0.34
209.346	0.34
209.723	0.29
210.099	0.5
210.476	0.27
210.852	0.43
211.228	0.27
211.605	0.25
211.981	0.27
212.357	0.46
212.733	0.28
213.11	0.23
213.486	0.34
213.862	0.35
214.238	0.35
214.614	0.32
214.991	0.36
215.367	0.39
215.743	0.31
216.119	0.24
216.495	0.39
216.871	0.26
217.247	0.32
217.623	0.25
217.999	0.5
218.375	0.42
218.751	0.27
219.127	0.39
219.502	0.17
219.878	0.34
220.254	0.39
220.63	0.34
221.006	0.34
221.381	0.28
221.757	0.23
222.133	0.2
222.508	0.44
222.884	0.17
223.26	0.28
223.635	0.23
224.011	0.4
224.386	0.29
224.762	0.49
225.137	0.47
225.513	0.3
225.888	0.29
226.264	0.19
226.639	0.26
227.014	0.45
227.39	0.32
227.765	0.3
228.14	0.33
228.516	0.33
228.891	0.3
229.266	0.21
229.641	0.25
230.017	0.44
230.392	0.28
230.767	0.37
231.142	0.57
231.517	0.34
231.892	0.32
232.267	0.36
232.642	0.37
233.017	0.34
233.392	0.31
233.767	0.4
234.142	0.24
234.517	0.38
234.892	0.26
235.267	0.28
235.641	0.44
236.016	0.37
236.391	0.43
236.766	0.26
237.14	0.28
237.515	0.46
237.89	0.32
238.264	0.42
238.639	0.18
239.014	0.6
239.388	0.31
239.763	0.36
240.137	0.23
240.512	0.26
240.886	0.43
241.261	0.22
241.635	0.26
242.009	0.45
242.384	0.3
242.758	0.47
243.132	0.34
243.507	0.28
243.881	0.31
244.255	0.38
244.629	0.33
245.004	0.34
245.378	0.48
245.752	0.25
246.126	0.26
246.5	0.36
246.874	0.25
247.248	0.35
247.622	0.21
247.996	0.29
248.37	0.34
248.744	0.2
249.118	0.09
249.492	0.29
249.866	0.37
250.24	0.44
250.613	0.42
250.987	0.41
251.361	0.32
251.735	0.26
252.108	0.57
252.482	0.44
252.856	0.25
253.229	0.34
253.603	0.2
253.977	0.37
254.35	0.33
254.724	0.3
255.097	0.34
255.471	0.32
255.844	0.27
256.218	0.3
256.591	0.23
256.964	0.39
257.338	0.28
257.711	0.34
258.084	0.35
258.458	0.34
258.831	0.22
259.204	0.22
259.577	0.31
259.95	0.29
260.323	0.32
260.697	0.26
261.07	0.24
261.443	0.39
261.816	0.43
262.189	0.29
262.562	0.28
262.935	0.41
263.308	0.21
263.68	0.32
264.053	0.49
264.426	0.32
264.799	0.29
265.172	0.42
265.545	0.33
265.917	0.42
266.29	0.4
266.663	0.39
267.035	0.37
267.408	0.34
267.781	0.34
268.153	0.25
268.526	0.36
268.898	0.32
269.271	0.25
269.643	0.26
270.016	0.3
270.388	0.23
270.76	0.31
271.133	0.29
271.505	0.48
271.877	0.22
272.25	0.42
272.622	0.37
272.994	0.33
273.366	0.43
273.739	0.22
274.111	0.35
274.483	0.33
274.855	0.39
275.227	0.4
275.599	0.35
275.971	0.33
276.343	0.34
276.715	0.25
277.087	0.34
277.459	0.35
277.831	0.28
278.203	0.33
278.574	0.29
278.946	0.24
279.318	0.46
279.69	0.32
280.061	0.28
280.433	0.26
280.805	0.27
281.176	0.35
281.548	0.34
281.92	0.44
282.291	0.34
282.663	0.32
283.034	0.42
283.406	0.48
283.777	0.44
284.148	0.32
284.52	0.42
284.891	0.34
285.262	0.53
285.634	0.32
286.005	0.36
286.376	0.35
286.747	0.44
287.119	0.31
287.49	0.41
287.861	0.35
288.232	0.42
288.603	0.37
288.974	0.26
289.345	0.33
289.716	0.39
290.087	0.36
290.458	0.28
290.829	0.33
291.2	0.3
291.571	0.32
291.941	0.41
292.312	0.24
292.683	0.35
293.054	0.4
293.424	0.32
293.795	0.24
294.166	0.34
294.536	0.38
294.907	0.41
295.277	0.34
295.648	0.44
296.018	0.34
296.389	0.33
296.759	0.39
297.13	0.41
297.5	0.37
297.871	0.38
298.241	0.4
298.611	0.46
298.981	0.4
299.352	0.32
299.722	0.25
300.092	0.33
300.462	0.36
300.832	0.28
301.202	0.42
301.573	0.36
301.943	0.4
302.313	0.31
302.683	0.32
303.053	0.32
303.422	0.34
303.792	0.31
304.162	0.31
304.532	0.33
304.902	0.27
305.272	0.28
305.641	0.36
306.011	0.22
306.381	0.34
306.75	0.44
307.12	0.32
307.49	0.29
307.859	0.29
308.229	0.28
308.598	0.31
308.968	0.27
309.337	0.26
309.707	0.27
310.076	0.25
310.445	0.28
310.815	0.26
311.184	0.29
311.553	0.28
311.923	0.25
312.292	0.25
312.661	0.27
313.03	0.25
313.399	0.29
313.768	0.29
314.137	0.26
314.506	0.28
314.875	0.28
315.244	0.27
315.613	0.26
315.982	0.31
316.351	0.29
316.72	0.28
317.089	0.29
317.458	0.3
317.826	0.32
318.195	0.29
318.564	0.29
318.933	0.31
319.301	0.3
319.67	0.31
320.038	0.32
320.407	0.32
320.775	0.33
321.144	0.34
321.512	0.33
321.881	0.34
322.249	0.35
322.618	0.35
322.986	0.33
323.354	0.36
323.723	0.37
324.091	0.37
324.459	0.39
324.827	0.38
325.195	0.38
325.564	0.4
325.932	0.41
326.3	0.4
326.668	0.4
327.036	0.41
327.404	0.43
327.772	0.43
328.14	0.42
328.508	0.43
328.875	0.45
329.243	0.44
329.611	0.45
329.979	0.46
330.346	0.46
330.714	0.48
331.082	0.49
331.449	0.48
331.817	0.49
332.185	0.51
332.552	0.51
332.92	0.53
333.287	0.53
333.655	0.54
334.022	0.56
334.389	0.56
334.757	0.58
335.124	0.59
335.491	0.6
335.859	0.61
336.226	0.62
336.593	0.64
336.96	0.64
337.327	0.64
337.695	0.67
338.062	0.68
338.429	0.69
338.796	0.71
339.163	0.72
339.53	0.74
339.897	0.75
340.263	0.75
340.63	0.77
340.997	0.78
341.364	0.79
341.731	0.82
342.097	0.82
342.464	0.84
342.831	0.85
343.197	0.86
343.564	0.89
343.931	0.89
344.297	0.9
344.664	0.91
345.03	0.92
345.396	0.94
345.763	0.97
346.129	0.96
346.496	0.99
346.862	1
347.228	1.01
347.594	1.03
347.961	1.05
348.327	1.04
348.693	1.06
349.059	1.08
349.425	1.09
349.791	1.1
350.157	1.11
350.523	1.13
350.889	1.13
351.255	1.15
351.621	1.18
351.987	1.18
352.353	1.19
352.719	1.19
353.084	1.22
353.45	1.22
353.816	1.25
354.181	1.26
354.547	1.26
354.913	1.28
355.278	1.29
355.644	1.31
356.009	1.33
356.375	1.37
356.74	1.36
357.106	1.38
357.471	1.39
357.836	1.4
358.202	1.44
358.567	1.45
358.932	1.45
359.297	1.48
359.663	1.49
360.028	1.51
360.393	1.54
360.758	1.54
361.123	1.56
361.488	1.56
361.853	1.63
362.218	1.6
362.583	1.63
362.948	1.65
363.312	1.63
363.677	1.65
364.042	1.7
364.407	1.71
364.772	1.68
365.136	1.72
365.501	1.72
365.865	1.77
366.23	1.74
366.595	1.79
366.959	1.8
367.324	1.82
367.688	1.84
368.052	1.8
368.417	1.82
368.781	1.84
369.145	1.88
369.51	1.85
369.874	1.87
370.238	1.9
370.602	1.82
370.967	1.9
371.331	1.83
371.695	1.86
372.059	1.91
372.423	1.84
372.787	1.85
373.151	1.86
373.515	1.86
373.878	1.85
374.242	1.83
374.606	1.84
374.97	1.83
375.334	1.85
375.697	1.79
376.061	1.81
376.425	1.8
376.788	1.77
377.152	1.79
377.515	1.75
377.879	1.76
378.242	1.69
378.606	1.74
378.969	1.7
379.333	1.67
379.696	1.68
380.059	1.64
380.422	1.63
380.786	1.59
381.149	1.62
381.512	1.59
381.875	1.56
382.238	1.53
382.601	1.51
382.964	1.5
383.327	1.5
383.69	1.49
384.053	1.43
384.416	1.44
384.779	1.42
385.142	1.43
385.504	1.42
385.867	1.4
386.23	1.39
386.593	1.38
386.955	1.36
387.318	1.37
387.68	1.35
388.043	1.35
388.405	1.33
388.768	1.36
389.13	1.33
389.493	1.32
389.855	1.31
390.217	1.3
390.58	1.3
390.942	1.27
391.304	1.24
391.666	1.23
392.028	1.23
392.391	1.21
392.753	1.19
393.115	1.18
393.477	1.16
393.839	1.15
394.201	1.15
394.563	1.13
394.924	1.13
395.286	1.13
395.648	1.13
396.01	1.13
396.371	1.14
396.733	1.15
397.095	1.16
397.456	1.18
397.818	1.22
398.18	1.23
398.541	1.26
398.903	1.29
399.264	1.32
399.625	1.34
399.987	1.34
400.348	1.38
400.709	1.4
401.071	1.38
401.432	1.4
401.793	1.39
402.154	1.37
402.515	1.36
402.876	1.34
403.238	1.33
403.599	1.29
403.96	1.25
404.32	1.2
404.681	1.17
405.042	1.11
405.403	1.08
405.764	1.02
406.125	0.97
406.485	0.93
406.846	0.88
407.207	0.84
407.567	0.79
407.928	0.76
408.288	0.71
408.649	0.67
409.009	0.64
409.37	0.61
409.73	0.58
410.091	0.54
410.451	0.52
410.811	0.49
411.171	0.46
411.532	0.45
411.892	0.43
412.252	0.41
412.612	0.38
412.972	0.36
413.332	0.36
413.692	0.34
414.052	0.33
414.412	0.32
414.772	0.31
415.132	0.3
415.492	0.28
415.851	0.28
416.211	0.27
416.571	0.26
416.931	0.26
417.29	0.25
417.65	0.24
418.009	0.23
418.369	0.23
418.728	0.22
419.088	0.21
419.447	0.22
419.807	0.21
420.166	0.21
420.525	0.19
420.884	0.19
421.244	0.19
421.603	0.19
421.962	0.18
422.321	0.19
422.68	0.18
423.039	0.17
423.398	0.17
423.757	0.17
424.116	0.17
424.475	0.17
424.834	0.16
425.193	0.16
425.551	0.16
425.91	0.17
426.269	0.16
426.628	0.15
426.986	0.16
427.345	0.15
427.703	0.16
428.062	0.16
428.42	0.16
428.779	0.15
429.137	0.16
429.496	0.15
429.854	0.16
430.212	0.16
430.57	0.15
430.929	0.14
431.287	0.15
431.645	0.15
432.003	0.15
432.361	0.15
432.719	0.14
433.077	0.14
433.435	0.14
433.793	0.15
434.151	0.14
434.509	0.15
434.866	0.14
435.224	0.14
435.582	0.14
435.94	0.15
436.297	0.15
436.655	0.14
437.012	0.15
437.37	0.14
437.727	0.14
438.085	0.14
438.442	0.14
438.8	0.15
439.157	0.14
439.514	0.15
439.872	0.14
440.229	0.14
440.586	0.14
440.943	0.15
441.3	0.15
441.657	0.15
442.014	0.16
442.371	0.15
442.728	0.14
443.085	0.15
443.442	0.13
443.799	0.14
444.156	0.14
444.513	0.15
444.869	0.13
445.226	0.15
445.583	0.15
445.939	0.16
446.296	0.13
446.652	0.14
447.009	0.15
447.365	0.15
447.722	0.15
448.078	0.14
448.434	0.15
448.791	0.15
449.147	0.15
449.503	0.14
449.859	0.14
450.215	0.15
450.571	0.15
450.928	0.15
451.284	0.15
451.64	0.15
451.995	0.14
452.351	0.15
452.707	0.15
453.063	0.14
453.419	0.15
453.775	0.14
454.13	0.14
454.486	0.14
454.842	0.15
455.197	0.15
455.553	0.14
455.908	0.14
456.264	0.13
456.619	0.13
456.975	0.14
457.33	0.13
457.685	0.13
458.04	0.13
458.396	0.13
458.751	0.12
459.106	0.12
459.461	0.12
459.816	0.12
460.171	0.11
460.526	0.12
460.881	0.11
461.236	0.1
461.591	0.1
461.946	0.09
462.301	0.09
462.655	0.09
463.01	0.09
463.365	0.09
463.719	0.08
464.074	0.07
464.428	0.07
464.783	0.07
465.137	0.07
465.492	0.07
465.846	0.07
466.201	0.06
466.555	0.07
466.909	0.07
467.263	0.08
467.618	0.08
467.972	0.09
468.326	0.08
468.68	0.08
469.034	0.08
469.388	0.07
469.742	0.08
470.096	0.08
470.45	0.08
470.804	0.09
471.157	0.09
471.511	0.08
471.865	0.08
472.218	0.1
472.572	0.1
472.926	0.11
473.279	0.12
473.633	0.12
473.986	0.13
474.34	0.14
474.693	0.15
475.046	0.16
475.4	0.17
475.753	0.18
476.106	0.19
476.459	0.2
476.812	0.21
477.165	0.21
477.519	0.22
477.872	0.23
478.224	0.24
478.577	0.25
478.93	0.26
479.283	0.26
479.636	0.27
479.989	0.28
480.341	0.29
480.694	0.29
481.047	0.3
481.399	0.31
481.752	0.31
482.104	0.32
482.457	0.34
482.809	0.34
483.162	0.34
483.514	0.35
483.866	0.35
484.219	0.36
484.571	0.36
484.923	0.36
485.275	0.37
485.627	0.37
485.979	0.39
486.331	0.39
486.683	0.39
487.035	0.4
487.387	0.41
487.739	0.42
488.091	0.42
488.443	0.43
488.794	0.43
489.146	0.43
489.498	0.44
489.849	0.44
490.201	0.44
490.552	0.45
490.904	0.45
491.255	0.46
491.607	0.46
491.958	0.47
492.309	0.47
492.661	0.48
493.012	0.48
493.363	0.48
493.714	0.49
494.065	0.5
494.416	0.5
494.767	0.5
495.118	0.51
495.469	0.51
495.82	0.52
496.171	0.53
496.522	0.52
496.872	0.53
497.223	0.54
497.574	0.54
497.924	0.55
498.275	0.56
498.626	0.56
498.976	0.56
499.327	0.57
499.677	0.57
500.027	0.57
500.378	0.58
500.728	0.58
501.078	0.6
501.428	0.59
501.779	0.6
502.129	0.6
502.479	0.61
502.829	0.61
503.179	0.62
503.529	0.62
503.879	0.63
504.229	0.63
504.578	0.64
504.928	0.63
505.278	0.64
505.628	0.64
505.977	0.65
506.327	0.65
506.676	0.66
507.026	0.66
507.375	0.66
507.725	0.67
508.074	0.67
508.424	0.67
508.773	0.68
509.122	0.68
509.471	0.69
509.82	0.68
510.17	0.69
510.519	0.69
510.868	0.7
511.217	0.7
511.566	0.71
511.915	0.72
512.263	0.72
512.612	0.73
512.961	0.73
513.31	0.72
513.659	0.73
514.007	0.73
514.356	0.74
514.704	0.74
515.053	0.74
515.401	0.75
515.75	0.74
516.098	0.76
516.447	0.76
516.795	0.76
517.143	0.76
517.491	0.77
517.839	0.76
518.188	0.77
518.536	0.77
518.884	0.78
519.232	0.78
519.58	0.78
519.928	0.78
520.275	0.8
520.623	0.79
520.971	0.8
521.319	0.81
521.666	0.81
522.014	0.81
522.362	0.82
522.709	0.81
523.057	0.82
523.404	0.83
523.752	0.83
524.099	0.82
524.446	0.83
524.794	0.83
525.141	0.82
525.488	0.84
525.835	0.84
526.182	0.83
526.529	0.85
526.876	0.84
527.223	0.85
527.57	0.85
527.917	0.85
528.264	0.85
528.611	0.86
528.958	0.85
529.304	0.86
529.651	0.86
529.998	0.87
530.344	0.87
530.691	0.87
531.037	0.86
531.384	0.88
531.73	0.88
532.076	0.88
532.423	0.88
532.769	0.88
533.115	0.88
533.461	0.88
533.807	0.89
534.154	0.88
534.5	0.89
534.846	0.9
535.192	0.89
535.537	0.89
535.883	0.9
536.229	0.9
536.575	0.9
536.921	0.91
537.266	0.91
537.612	0.91
537.957	0.9
538.303	0.9
538.649	0.92
538.994	0.91
539.339	0.91
539.685	0.91
540.03	0.92
540.375	0.91
540.721	0.92
541.066	0.92
541.411	0.92
541.756	0.92
542.101	0.93
542.446	0.92
542.791	0.93
543.136	0.93
543.481	0.93
543.825	0.92
544.17	0.92
544.515	0.92
544.86	0.93
545.204	0.93
545.549	0.93
545.893	0.93
546.238	0.93
546.582	0.93
546.927	0.93
547.271	0.94
547.615	0.93
547.96	0.94
548.304	0.94
548.648	0.93
548.992	0.93
549.336	0.93
549.68	0.94
550.024	0.94
550.368	0.93
550.712	0.94
551.056	0.94
551.4	0.93
551.743	0.94
552.087	0.94
552.431	0.94
552.774	0.93
553.118	0.94
553.462	0.93
553.805	0.93
554.148	0.93
554.492	0.94
554.835	0.94
555.178	0.93
555.522	0.93
555.865	0.93
556.208	0.93
556.551	0.93
556.894	0.94
557.237	0.93
557.58	0.93
557.923	0.93
558.266	0.93
558.609	0.93
558.952	0.93
559.294	0.92
559.637	0.93
559.98	0.92
560.322	0.92
560.665	0.93
561.007	0.92
561.35	0.92
561.692	0.92
562.034	0.92
562.377	0.92
562.719	0.92
563.061	0.91
563.403	0.91
563.745	0.92
564.088	0.92
564.43	0.91
564.772	0.92
565.113	0.91
565.455	0.91
565.797	0.91
566.139	0.91
566.481	0.91
566.822	0.9
567.164	0.9
567.506	0.9
567.847	0.9
568.189	0.9
568.53	0.9
568.872	0.9
569.213	0.89
569.554	0.89
569.895	0.89
570.237	0.89
570.578	0.88
570.919	0.89
571.26	0.88
571.601	0.89
571.942	0.88
572.283	0.88
572.624	0.87
572.965	0.87
573.306	0.87
573.646	0.87
573.987	0.87
574.328	0.87
574.668	0.86
575.009	0.86
575.349	0.86
575.69	0.85
576.03	0.86
576.37	0.85
576.711	0.84
577.051	0.85
577.391	0.85
577.731	0.85
578.072	0.85
578.412	0.84
578.752	0.84
579.092	0.84
579.431	0.83
579.771	0.82
580.111	0.81
580.451	0.83
580.791	0.83
581.13	0.83
581.47	0.82
581.81	0.82
582.149	0.82
582.489	0.82
582.828	0.81
583.167	0.79
583.507	0.76
583.846	0.76
584.185	0.8
584.525	0.81
584.864	0.81
585.203	0.82
585.542	0.82
585.881	0.82
586.22	0.81
586.559	0.81
586.898	0.79
587.236	0.79
587.575	0.79
587.914	0.8
588.252	0.8
588.591	0.8
588.93	0.8
589.268	0.79
589.607	0.8
589.945	0.8
590.283	0.8
590.622	0.8
590.96	0.8
591.298	0.8
591.636	0.8
591.974	0.8
592.313	0.8
592.651	0.8
592.989	0.79
593.326	0.8
593.664	0.8
594.002	0.8
594.34	0.79
594.678	0.79
595.015	0.79
595.353	0.78
595.691	0.79
596.028	0.8
596.366	0.79
596.703	0.79
597.04	0.79
597.378	0.79
597.715	0.79
598.052	0.79
598.389	0.79
598.726	0.79
599.064	0.79
599.401	0.79
599.738	0.78
600.074	0.78
600.411	0.78
600.748	0.78
601.085	0.77
601.422	0.77
601.758	0.78
602.095	0.77
602.432	0.78
602.768	0.77
603.105	0.78
603.441	0.77
603.777	0.77
604.114	0.77
604.45	0.77
604.786	0.77
605.122	0.77
605.459	0.76
605.795	0.76
606.131	0.76
606.467	0.76
606.803	0.76
607.139	0.76
607.474	0.75
607.81	0.75
608.146	0.75
608.482	0.75
608.817	0.74
609.153	0.74
609.488	0.74
609.824	0.74
610.159	0.74
610.495	0.74
610.83	0.74
611.165	0.73
611.5	0.73
611.836	0.73
612.171	0.72
612.506	0.72
612.841	0.72
613.176	0.72
613.511	0.72
613.845	0.72
614.18	0.71
614.515	0.71
614.85	0.71
615.184	0.71
615.519	0.7
615.854	0.7
616.188	0.69
616.523	0.69
616.857	0.69
617.191	0.69
617.526	0.69
617.86	0.69
618.194	0.68
618.528	0.68
618.862	0.68
619.196	0.68
619.53	0.67
619.864	0.67
620.198	0.67
620.532	0.67
620.866	0.66
621.2	0.67
621.533	0.66
621.867	0.66
622.201	0.65
622.534	0.65
622.868	0.65
623.201	0.64
623.534	0.64
623.868	0.64
624.201	0.64
624.534	0.63
624.868	0.63
625.201	0.63
625.534	0.62
625.867	0.62
626.2	0.62
626.533	0.63
626.865	0.62
627.198	0.62
627.531	0.61
627.864	0.61
628.196	0.61
628.529	0.6
628.862	0.6
629.194	0.59
629.527	0.59
629.859	0.59
630.191	0.59
630.524	0.59
630.856	0.58
631.188	0.58
631.52	0.57
631.852	0.57
632.184	0.56
632.516	0.57
632.848	0.56
633.18	0.56
633.512	0.56
633.844	0.55
634.175	0.55
634.507	0.54
634.839	0.54
635.17	0.54
635.502	0.53
635.833	0.53
636.165	0.53
636.496	0.52
636.827	0.52
637.159	0.52
637.49	0.51
637.821	0.51
638.152	0.5
638.483	0.5
638.814	0.5
639.145	0.5
639.476	0.49
639.807	0.49
640.137	0.49
640.468	0.48
640.799	0.48
641.129	0.47
641.46	0.47
641.791	0.47
642.121	0.46
642.451	0.47
642.782	0.46
643.112	0.46
643.442	0.46
643.773	0.45
644.103	0.46
644.433	0.45
644.763	0.45
645.093	0.44
645.423	0.44
645.753	0.44
646.082	0.44
646.412	0.44
646.742	0.44
647.072	0.43
647.401	0.43
647.731	0.43
648.06	0.42
648.39	0.42
648.719	0.42
649.048	0.42
649.378	0.42
649.707	0.42
650.036	0.41
650.365	0.41
650.694	0.41
651.023	0.41
651.352	0.41
651.681	0.41
652.01	0.4
652.339	0.4
652.668	0.4
652.996	0.4
653.325	0.4
653.654	0.4
653.982	0.39
654.311	0.39
654.639	0.39
654.967	0.39
655.296	0.39
655.624	0.39
655.952	0.39
656.28	0.38
656.609	0.39
656.937	0.38
657.265	0.37
657.593	0.22
657.92	0.14
658.248	0.11
658.576	0.19
658.904	0.32
659.231	0.37
659.559	0.38
659.887	0.37
660.214	0.37
660.542	0.37
660.869	0.37
661.196	0.37
661.524	0.37
661.851	0.36
662.178	0.36
662.505	0.36
662.832	0.36
663.159	0.36
663.486	0.35
663.813	0.36
664.14	0.35
664.467	0.35
664.794	0.35
665.12	0.35
665.447	0.35
665.774	0.34
666.1	0.34
666.427	0.34
666.753	0.34
667.079	0.34
667.406	0.34
667.732	0.34
668.058	0.33
668.384	0.33
668.71	0.33
669.036	0.33
669.362	0.33
669.688	0.32
670.014	0.32
670.34	0.32
670.666	0.31
670.991	0.32
671.317	0.31
671.643	0.31
671.968	0.31
672.294	0.31
672.619	0.3
672.945	0.3
673.27	0.3
673.595	0.29
673.92	0.29
674.246	0.29
674.571	0.29
674.896	0.29
675.221	0.29
675.546	0.29
675.87	0.28
676.195	0.28
676.52	0.28
676.845	0.28
677.169	0.27
677.494	0.27
677.819	0.26
678.143	0.26
678.468	0.26
678.792	0.26
679.116	0.26
679.44	0.25
679.765	0.25
680.089	0.25
680.413	0.25
680.737	0.25
681.061	0.24
681.385	0.24
681.709	0.24
682.033	0.24
682.356	0.24
682.68	0.23
683.004	0.23
683.327	0.23
683.651	0.22
683.974	0.22
684.298	0.22
684.621	0.22
684.944	0.22
685.268	0.21
685.591	0.21
685.914	0.21
686.237	0.2
686.56	0.2
686.883	0.2
687.206	0.2
687.529	0.2
687.852	0.19
688.175	0.19
688.497	0.19
688.82	0.19
689.142	0.19
689.465	0.19
689.787	0.18
690.11	0.18
690.432	0.18
690.755	0.18
691.077	0.17
691.399	0.17
691.721	0.17
692.043	0.17
692.365	0.17
692.687	0.16
693.009	0.16
693.331	0.16
693.653	0.16
693.974	0.16
694.296	0.16
694.618	0.15
694.939	0.15
695.261	0.15
695.582	0.15
695.904	0.14
696.225	0.15
696.546	0.14
696.868	0.14
697.189	0.14
697.51	0.14
697.831	0.14
698.152	0.14
698.473	0.14
698.794	0.13
699.114	0.13
699.435	0.13
699.756	0.13
700.077	0.13
700.397	0.13
700.718	0.13
701.038	0.13
701.359	0.13
701.679	0.13
701.999	0.13
702.32	0.13
702.64	0.12
702.96	0.13
703.28	0.12
703.6	0.12
703.92	0.12
704.24	0.12
704.56	0.12
704.879	0.12
705.199	0.12
705.519	0.12
705.838	0.12
706.158	0.12
706.478	0.12
706.797	0.12
707.116	0.12
707.436	0.12
707.755	0.11
708.074	0.11
708.393	0.11
708.712	0.11
709.031	0.1
709.35	0.1
709.669	0.1
709.988	0.1
710.307	0.1
710.626	0.11
710.944	0.11
711.263	0.11
711.582	0.11
711.9	0.11
712.219	0.11
712.537	0.11
712.855	0.11
713.174	0.11
713.492	0.11
713.81	0.11
714.128	0.11
714.446	0.11
714.764	0.11
715.082	0.1
715.4	0.11
715.718	0.11
716.035	0.1
716.353	0.11
716.671	0.11
716.988	0.11
717.306	0.11
717.623	0.11
717.941	0.11
718.258	0.11
718.575	0.11
718.893	0.11
719.21	0.11
719.527	0.11
719.844	0.11
720.161	0.11
720.478	0.11
720.795	0.11
721.112	0.11
721.428	0.11
721.745	0.11
722.062	0.11
722.378	0.11
722.695	0.11
723.011	0.11
723.328	0.11
723.644	0.12
723.96	0.11
724.276	0.12
724.593	0.12
724.909	0.12
725.225	0.11
725.541	0.12
725.857	0.12
726.173	0.12
726.488	0.12
726.804	0.12
727.12	0.12
727.435	0.12
727.751	0.12
728.067	0.12
728.382	0.12
728.697	0.12
729.013	0.12
729.328	0.11
729.643	0.12
729.958	0.12
730.273	0.11
730.588	0.11
730.903	0.11
731.218	0.11
731.533	0.11
731.848	0.11
732.163	0.11
732.477	0.11
732.792	0.11
733.107	0.1
733.421	0.11
733.736	0.11
734.05	0.11
734.364	0.11
734.678	0.11
734.993	0.11
735.307	0.11
735.621	0.11
735.935	0.11
736.249	0.11
736.563	0.11
736.877	0.11
737.19	0.11
737.504	0.11
737.818	0.11
738.131	0.11
738.445	0.11
738.758	0.11
739.072	0.11
739.385	0.1
739.698	0.11
740.012	0.11
740.325	0.1
740.638	0.1
740.951	0.1
741.264	0.09
741.577	0.1
741.89	0.1
742.203	0.1
742.515	0.1
742.828	0.1
743.141	0.1
743.453	0.1
743.766	0.09
744.078	0.09
744.391	0.09
744.703	0.09
745.015	0.09
745.327	0.09
745.639	0.09
745.952	0.09
746.264	0.09
746.575	0.09
746.887	0.09
747.199	0.09
747.511	0.09
747.823	0.09
748.134	0.08
748.446	0.08
748.757	0.08
749.069	0.08
749.38	0.08
749.692	0.08
750.003	0.08
750.314	0.08
750.625	0.08
750.936	0.08
751.248	0.08
751.559	0.07
751.869	0.08
752.18	0.07
752.491	0.07
752.802	0.08
753.112	0.07
753.423	0.07
753.734	0.07
754.044	0.07
754.355	0.07
754.665	0.07
754.975	0.07
755.285	0.07
755.596	0.07
755.906	0.07
756.216	0.07
756.526	0.07
756.836	0.07
757.146	0.07
757.455	0.06
757.765	0.07
758.075	0.06
758.385	0.06
758.694	0.06
759.004	0.06
759.313	0.06
759.622	0.06
759.932	0.06
760.241	0.06
760.55	0.06
760.859	0.06
761.168	0.06
761.477	0.06
761.786	0.06
762.095	0.06
762.404	0.06
762.713	0.06
763.021	0.06
763.33	0.06
763.639	0.06
763.947	0.06
764.256	0.06
764.564	0.06
764.872	0.06
765.181	0.06
765.489	0.05
765.797	0.05
766.105	0.06
766.413	0.06
766.721	0.06
767.029	0.06
767.337	0.06
767.644	0.06
767.952	0.06
768.26	0.06
768.567	0.06
768.875	0.05
769.182	0.06
769.49	0.05
769.797	0.05
770.104	0.05
770.411	0.05
770.718	0.05
771.026	0.05
771.333	0.05
771.639	0.06
771.946	0.06
772.253	0.06
772.56	0.06
772.867	0.06
773.173	0.06
773.48	0.06
773.786	0.05
774.093	0.06
774.399	0.06
774.705	0.06
775.012	0.06
775.318	0.06
775.624	0.05
775.93	0.06
776.236	0.05
776.542	0.05
776.848	0.06
777.154	0.05
777.459	0.06
777.765	0.05
778.071	0.06
778.376	0.06
778.682	0.06
778.987	0.06
779.292	0.06
779.598	0.06
779.903	0.06
780.208	0.06
780.513	0.06
780.818	0.06
781.123	0.06
781.428	0.06
781.733	0.06
782.038	0.06
782.343	0.06
782.647	0.06
782.952	0.06
783.256	0.06
783.561	0.06
783.865	0.06
784.17	0.06
784.474	0.06
784.778	0.06
785.082	0.06
785.386	0.06
785.69	0.06
785.994	0.07
786.298	0.06
786.602	0.07
786.906	0.06
787.209	0.06
787.513	0.06
787.817	0.06
788.12	0.06
788.424	0.06
788.727	0.06
789.03	0.06
789.333	0.06
789.637	0.06
789.94	0.06
790.243	0.06
790.546	0.07
790.849	0.06
791.152	0.07
791.454	0.06
791.757	0.06
792.06	0.06
792.362	0.07
792.665	0.07
792.967	0.07
793.27	0.07
793.572	0.07
793.874	0.07
794.177	0.07
794.479	0.07
794.781	0.07
795.083	0.07
795.385	0.07
795.687	0.07
795.989	0.07
796.29	0.07
796.592	0.07
796.894	0.07
797.195	0.07
797.497	0.07
797.798	0.07
798.1	0.08
798.401	0.07
798.702	0.07
799.003	0.07
799.304	0.07
799.605	0.07
799.906	0.08
800.207	0.07
800.508	0.07
800.809	0.07
801.11	0.07
801.41	0.07
801.711	0.08
802.011	0.08
802.312	0.08
802.612	0.07
802.913	0.07
803.213	0.08
803.513	0.08
803.813	0.08
804.113	0.08
804.413	0.08
804.713	0.08
805.013	0.08
805.313	0.08
805.613	0.08
805.912	0.08
806.212	0.08
806.511	0.08
806.811	0.08
807.11	0.08
807.41	0.08
807.709	0.08
808.008	0.08
808.307	0.08
808.606	0.08
808.905	0.08
809.204	0.08
809.503	0.08
809.802	0.08
810.101	0.09
810.399	0.08
810.698	0.09
810.997	0.09
811.295	0.08
811.593	0.08
811.892	0.09
812.19	0.09
812.488	0.09
812.786	0.09
813.084	0.09
813.383	0.09
813.68	0.09
813.978	0.09
814.276	0.09
814.574	0.09
814.872	0.09
815.169	0.09
815.467	0.1
815.764	0.09
816.062	0.09
816.359	0.09
816.656	0.1
816.954	0.09
817.251	0.1
817.548	0.1
817.845	0.09
818.142	0.1
818.439	0.1
818.735	0.1
819.032	0.1
819.329	0.1
819.626	0.1
819.922	0.1
820.219	0.1
820.515	0.1
820.811	0.1
821.108	0.1
821.404	0.1
821.7	0.1
821.996	0.1
822.292	0.1
822.588	0.1
822.884	0.1
823.18	0.11
823.475	0.1
823.771	0.1
824.067	0.1
824.362	0.1
824.658	0.1
824.953	0.11
825.249	0.11
825.544	0.11
825.839	0.11
826.134	0.11
826.429	0.11
826.724	0.11
827.019	0.1
827.314	0.11
827.609	0.1
827.904	0.11
828.198	0.11
828.493	0.11
828.787	0.1
829.082	0.11
829.376	0.1
829.671	0.11
829.965	0.1
830.259	0.11
830.553	0.12
830.847	0.12
831.141	0.12
831.435	0.11
831.729	0.12
832.023	0.12
832.317	0.12
832.61	0.12
832.904	0.12
833.197	0.12
833.491	0.12
833.784	0.11
834.077	0.12
834.371	0.12
834.664	0.11
834.957	0.11
835.25	0.12
835.543	0.11
835.836	0.12
836.129	0.12
836.421	0.13
836.714	0.12
837.007	0.12
837.299	0.12
837.592	0.13
837.884	0.13
838.177	0.12
838.469	0.13
838.761	0.13
839.053	0.12
839.345	0.13
839.637	0.13
839.929	0.13
840.221	0.12
840.513	0.12
840.805	0.13
841.096	0.13
841.388	0.13
841.68	0.13
841.971	0.13
842.262	0.13
842.554	0.13
842.845	0.14
843.136	0.14
843.427	0.14
843.718	0.13
844.009	0.13
844.3	0.13
844.591	0.13
844.882	0.12
845.173	0.12
845.463	0.14
845.754	0.14
846.044	0.13
846.335	0.13
846.625	0.14
846.915	0.13
847.206	0.14
847.496	0.13
847.786	0.13
848.076	0.14
848.366	0.13
848.656	0.14
848.945	0.15
849.235	0.13
849.525	0.14
849.814	0.13
850.104	0.14
850.393	0.14
850.683	0.15
850.972	0.15
851.261	0.14
851.551	0.15
851.84	0.14
852.129	0.15
852.418	0.14
852.707	0.15
852.995	0.14
853.284	0.14
853.573	0.14
853.862	0.14
854.15	0.15
854.439	0.15
854.727	0.15
855.015	0.15
855.304	0.15
855.592	0.14
855.88	0.14
856.168	0.15
856.456	0.16
856.744	0.15
857.032	0.15
857.32	0.15
857.607	0.16
857.895	0.15
858.183	0.16
858.47	0.16
858.757	0.15
859.045	0.14
859.332	0.16
859.619	0.14
859.907	0.14
860.194	0.15
860.481	0.15
860.768	0.15
861.054	0.16
861.341	0.14
861.628	0.15
861.915	0.18
862.201	0.16
862.488	0.15
862.774	0.13
863.061	0.16
863.347	0.17
863.633	0.15
863.919	0.15
864.205	0.16
864.491	0.13
864.777	0.16
865.063	0.14
865.349	0.14
865.635	0.16
865.92	0.14
866.206	0.15
866.492	0.14
866.777	0.16
867.062	0.14
867.348	0.15
867.633	0.16
867.918	0.12
868.203	0.15
868.488	0.14
868.773	0.17
869.058	0.17
869.343	0.19
869.628	0.14
869.912	0.13
870.197	0.16
870.482	0.18
870.766	0.14
871.05	0.17
871.335	0.16
871.619	0.11
871.903	0.17
872.187	0.14
872.471	0.15
872.755	0.19
873.039	0.13
873.323	0.13
873.607	0.13
873.89	0.19
874.174	0.11
874.458	0.12
874.741	0.16
875.024	0.14
875.308	0.11
875.591	0.15
875.874	0.11
876.157	0.04
876.44	0.09
876.723	0.21
877.006	0.14
877.289	0.19
877.572	0.28
877.854	0.12
878.137	0.18
878.42	0.11
878.702	0.15
878.984	0.02
879.267	0.06
879.549	0.21
879.831	0.13
880.113	0.13
880.395	0.13
880.677	0.14
880.959	0.04
