Data from Rubpy_BV_1800_EDTA_Buffered_Absorbance_16-49-37-700.txt Node
Date: Wed Jul 01 16:49:37 BST 2026
User: fpm-admin
Spectrometer: OFX00224
Trigger mode: 0
Integration Time (sec): 7.000000E-2
Scans to average: 3
Nonlinearity correction enabled: false
Boxcar width: 0
Storing dark spectrum: false
XAxis mode: Wavelengths
Number of Pixels in Spectrum: 2136
>>>>>Begin Spectral Data<<<<<
154.91	-0
155.289	-0.14
155.669	-0
156.048	0.11
156.428	-0
156.807	0.03
157.186	-0
157.566	0.46
157.945	-0.78
158.325	0.02
158.704	-0.05
159.083	0.06
159.462	-0.4
159.842	-0
160.221	0.7
160.6	-0
160.979	-0
161.359	-0
161.738	-0
162.117	-0
162.496	-0.14
162.875	-0.49
163.254	-0.14
163.633	-0
164.012	0.62
164.391	0.3
164.77	0.04
165.149	-0.88
165.528	-0
165.907	-0.15
166.286	-0
166.665	-0.02
167.044	0.1
167.423	-0
167.802	-0.16
168.181	-0
168.559	-0.82
168.938	0.92
169.317	-0.22
169.696	-0
170.074	-0
170.453	-0
170.832	-1.23
171.21	-0.16
171.589	-0
171.968	0.23
172.346	-0.46
172.725	-0
173.103	-0.34
173.482	0.85
173.861	-0
174.239	-0.34
174.617	0.09
174.996	1.32
175.374	-0.12
175.753	-0.22
176.131	0.32
176.51	-0
176.888	-0
177.266	-0
177.645	-0
178.023	1.01
178.401	-0.19
178.779	0.01
179.158	-0.15
179.536	-0
179.914	-0
180.292	-0.26
180.67	-0.05
181.048	0.46
181.427	-0.7
181.805	-0.36
182.183	-0.41
182.561	0.6
182.939	-0.03
183.317	-0.36
183.695	0.02
184.073	-0
184.451	-0.68
184.829	-0.03
185.206	0.14
185.584	0.43
185.962	-0.39
186.34	0.5
186.718	0.75
187.096	-0
187.473	-0.18
187.851	-0.53
188.229	-0.18
188.607	0.17
188.984	0.15
189.362	0.12
189.74	0.36
190.117	0.22
190.495	0.4
190.872	0.39
191.25	0.29
191.627	0.33
192.005	0.32
192.382	0.29
192.76	0.37
193.137	0.12
193.515	0.28
193.892	0.24
194.269	0.3
194.647	0.28
195.024	0.28
195.401	0.24
195.779	0.35
196.156	0.25
196.533	0.23
196.91	0.27
197.288	0.33
197.665	0.17
198.042	0.14
198.419	0.25
198.796	0.23
199.173	0.51
199.55	0.22
199.927	0.21
200.304	0.24
200.681	0.3
201.058	0.25
201.435	0.55
201.812	0.26
202.189	0.18
202.566	0.3
202.943	0.19
203.32	0.22
203.697	0.37
204.073	0.19
204.45	0.23
204.827	0.25
205.204	0.23
205.58	0.27
205.957	0.56
206.334	0.22
206.71	0.3
207.087	0.15
207.464	0.3
207.84	0.37
208.217	0.39
208.593	0.11
208.97	0.49
209.346	0.4
209.723	0.29
210.099	0.37
210.476	0.37
210.852	0.47
211.228	0.19
211.605	0.19
211.981	0.25
212.357	0.33
212.733	0.25
213.11	0.18
213.486	0.33
213.862	0.27
214.238	0.33
214.614	0.36
214.991	0.37
215.367	0.33
215.743	0.26
216.119	0.26
216.495	0.38
216.871	0.23
217.247	0.28
217.623	0.25
217.999	0.42
218.375	0.34
218.751	0.26
219.127	0.51
219.502	0.23
219.878	0.24
220.254	0.39
220.63	0.31
221.006	0.39
221.381	0.39
221.757	0.31
222.133	0.26
222.508	0.48
222.884	0.31
223.26	0.25
223.635	0.25
224.011	0.25
224.386	0.25
224.762	0.33
225.137	0.28
225.513	0.22
225.888	0.26
226.264	0.26
226.639	0.22
227.014	0.42
227.39	0.25
227.765	0.34
228.14	0.32
228.516	0.31
228.891	0.35
229.266	0.27
229.641	0.37
230.017	0.34
230.392	0.36
230.767	0.36
231.142	0.42
231.517	0.34
231.892	0.43
232.267	0.43
232.642	0.42
233.017	0.27
233.392	0.3
233.767	0.18
234.142	0.29
234.517	0.26
234.892	0.35
235.267	0.24
235.641	0.4
236.016	0.35
236.391	0.27
236.766	0.41
237.14	0.26
237.515	0.35
237.89	0.24
238.264	0.26
238.639	0.27
239.014	0.37
239.388	0.25
239.763	0.32
240.137	0.3
240.512	0.29
240.886	0.28
241.261	0.22
241.635	0.22
242.009	0.32
242.384	0.3
242.758	0.34
243.132	0.19
243.507	0.41
243.881	0.24
244.255	0.26
244.629	0.21
245.004	0.3
245.378	0.21
245.752	0.45
246.126	0.26
246.5	0.29
246.874	0.36
247.248	0.25
247.622	0.54
247.996	0.27
248.37	0.29
248.744	0.22
249.118	0.07
249.492	0.32
249.866	0.25
250.24	0.41
250.613	0.47
250.987	0.36
251.361	0.37
251.735	0.28
252.108	0.5
252.482	0.3
252.856	0.18
253.229	0.36
253.603	0.31
253.977	0.37
254.35	0.32
254.724	0.29
255.097	0.29
255.471	0.3
255.844	0.28
256.218	0.44
256.591	0.28
256.964	0.4
257.338	0.32
257.711	0.29
258.084	0.38
258.458	0.3
258.831	0.33
259.204	0.24
259.577	0.34
259.95	0.47
260.323	0.22
260.697	0.23
261.07	0.34
261.443	0.38
261.816	0.31
262.189	0.44
262.562	0.24
262.935	0.36
263.308	0.18
263.68	0.26
264.053	0.35
264.426	0.41
264.799	0.24
265.172	0.38
265.545	0.34
265.917	0.33
266.29	0.4
266.663	0.28
267.035	0.34
267.408	0.37
267.781	0.35
268.153	0.27
268.526	0.43
268.898	0.43
269.271	0.27
269.643	0.39
270.016	0.28
270.388	0.21
270.76	0.37
271.133	0.28
271.505	0.48
271.877	0.2
272.25	0.4
272.622	0.32
272.994	0.4
273.366	0.34
273.739	0.29
274.111	0.34
274.483	0.19
274.855	0.28
275.227	0.42
275.599	0.45
275.971	0.31
276.343	0.26
276.715	0.38
277.087	0.52
277.459	0.42
277.831	0.25
278.203	0.32
278.574	0.34
278.946	0.24
279.318	0.31
279.69	0.32
280.061	0.32
280.433	0.26
280.805	0.26
281.176	0.31
281.548	0.27
281.92	0.32
282.291	0.28
282.663	0.35
283.034	0.31
283.406	0.38
283.777	0.35
284.148	0.28
284.52	0.33
284.891	0.38
285.262	0.37
285.634	0.4
286.005	0.32
286.376	0.5
286.747	0.33
287.119	0.28
287.49	0.38
287.861	0.37
288.232	0.31
288.603	0.43
288.974	0.26
289.345	0.33
289.716	0.3
290.087	0.34
290.458	0.26
290.829	0.4
291.2	0.38
291.571	0.36
291.941	0.34
292.312	0.31
292.683	0.33
293.054	0.3
293.424	0.19
293.795	0.4
294.166	0.26
294.536	0.3
294.907	0.24
295.277	0.41
295.648	0.36
296.018	0.37
296.389	0.26
296.759	0.28
297.13	0.31
297.5	0.27
297.871	0.34
298.241	0.33
298.611	0.32
298.981	0.3
299.352	0.29
299.722	0.32
300.092	0.34
300.462	0.35
300.832	0.4
301.202	0.34
301.573	0.32
301.943	0.31
302.313	0.28
302.683	0.29
303.053	0.36
303.422	0.41
303.792	0.33
304.162	0.26
304.532	0.37
304.902	0.26
305.272	0.32
305.641	0.33
306.011	0.31
306.381	0.33
306.75	0.29
307.12	0.3
307.49	0.32
307.859	0.28
308.229	0.28
308.598	0.25
308.968	0.29
309.337	0.25
309.707	0.28
310.076	0.23
310.445	0.26
310.815	0.28
311.184	0.25
311.553	0.23
311.923	0.26
312.292	0.26
312.661	0.26
313.03	0.26
313.399	0.25
313.768	0.27
314.137	0.25
314.506	0.27
314.875	0.28
315.244	0.23
315.613	0.26
315.982	0.26
316.351	0.27
316.72	0.27
317.089	0.27
317.458	0.29
317.826	0.28
318.195	0.3
318.564	0.3
318.933	0.31
319.301	0.31
319.67	0.32
320.038	0.31
320.407	0.33
320.775	0.32
321.144	0.33
321.512	0.34
321.881	0.35
322.249	0.34
322.618	0.35
322.986	0.35
323.354	0.35
323.723	0.35
324.091	0.36
324.459	0.38
324.827	0.37
325.195	0.39
325.564	0.38
325.932	0.39
326.3	0.39
326.668	0.4
327.036	0.41
327.404	0.41
327.772	0.42
328.14	0.41
328.508	0.43
328.875	0.43
329.243	0.44
329.611	0.44
329.979	0.46
330.346	0.45
330.714	0.47
331.082	0.48
331.449	0.48
331.817	0.49
332.185	0.5
332.552	0.51
332.92	0.51
333.287	0.53
333.655	0.54
334.022	0.56
334.389	0.55
334.757	0.57
335.124	0.58
335.491	0.59
335.859	0.61
336.226	0.61
336.593	0.62
336.96	0.64
337.327	0.64
337.695	0.66
338.062	0.67
338.429	0.68
338.796	0.7
339.163	0.7
339.53	0.71
339.897	0.73
340.263	0.74
340.63	0.76
340.997	0.77
341.364	0.79
341.731	0.8
342.097	0.81
342.464	0.83
342.831	0.85
343.197	0.84
343.564	0.86
343.931	0.88
344.297	0.88
344.664	0.9
345.03	0.91
345.396	0.93
345.763	0.95
346.129	0.96
346.496	0.97
346.862	0.98
347.228	1
347.594	1
347.961	1.02
348.327	1.05
348.693	1.05
349.059	1.06
349.425	1.07
349.791	1.09
350.157	1.1
350.523	1.11
350.889	1.13
351.255	1.14
351.621	1.15
351.987	1.16
352.353	1.17
352.719	1.2
353.084	1.18
353.45	1.2
353.816	1.22
354.181	1.24
354.547	1.26
354.913	1.27
355.278	1.28
355.644	1.3
356.009	1.32
356.375	1.32
356.74	1.33
357.106	1.36
357.471	1.37
357.836	1.4
358.202	1.41
358.567	1.41
358.932	1.44
359.297	1.45
359.663	1.48
360.028	1.49
360.393	1.49
360.758	1.51
361.123	1.53
361.488	1.58
361.853	1.57
362.218	1.59
362.583	1.6
362.948	1.6
363.312	1.62
363.677	1.64
364.042	1.66
364.407	1.69
364.772	1.68
365.136	1.7
365.501	1.69
365.865	1.72
366.23	1.7
366.595	1.74
366.959	1.76
367.324	1.76
367.688	1.79
368.052	1.78
368.417	1.8
368.781	1.84
369.145	1.85
369.51	1.83
369.874	1.83
370.238	1.88
370.602	1.79
370.967	1.85
371.331	1.82
371.695	1.79
372.059	1.86
372.423	1.86
372.787	1.83
373.151	1.79
373.515	1.84
373.878	1.86
374.242	1.83
374.606	1.8
374.97	1.82
375.334	1.88
375.697	1.79
376.061	1.76
376.425	1.77
376.788	1.76
377.152	1.76
377.515	1.75
377.879	1.74
378.242	1.69
378.606	1.71
378.969	1.68
379.333	1.64
379.696	1.62
380.059	1.64
380.422	1.61
380.786	1.58
381.149	1.59
381.512	1.56
381.875	1.53
382.238	1.53
382.601	1.51
382.964	1.49
383.327	1.48
383.69	1.47
384.053	1.42
384.416	1.43
384.779	1.4
385.142	1.4
385.504	1.39
385.867	1.39
386.23	1.37
386.593	1.37
386.955	1.34
387.318	1.34
387.68	1.35
388.043	1.34
388.405	1.32
388.768	1.34
389.13	1.32
389.493	1.31
389.855	1.28
390.217	1.27
390.58	1.27
390.942	1.26
391.304	1.24
391.666	1.22
392.028	1.21
392.391	1.19
392.753	1.18
393.115	1.16
393.477	1.15
393.839	1.15
394.201	1.13
394.563	1.12
394.924	1.12
395.286	1.11
395.648	1.11
396.01	1.12
396.371	1.13
396.733	1.13
397.095	1.15
397.456	1.17
397.818	1.19
398.18	1.21
398.541	1.25
398.903	1.26
399.264	1.29
399.625	1.32
399.987	1.36
400.348	1.35
400.709	1.39
401.071	1.39
401.432	1.4
401.793	1.4
402.154	1.36
402.515	1.36
402.876	1.33
403.238	1.29
403.599	1.27
403.96	1.24
404.32	1.19
404.681	1.15
405.042	1.1
405.403	1.07
405.764	1.01
406.125	0.98
406.485	0.92
406.846	0.89
407.207	0.83
407.567	0.79
407.928	0.75
408.288	0.71
408.649	0.67
409.009	0.63
409.37	0.59
409.73	0.57
410.091	0.54
410.451	0.5
410.811	0.48
411.171	0.46
411.532	0.44
411.892	0.43
412.252	0.41
412.612	0.38
412.972	0.37
413.332	0.36
413.692	0.34
414.052	0.32
414.412	0.31
414.772	0.31
415.132	0.29
415.492	0.28
415.851	0.27
416.211	0.27
416.571	0.26
416.931	0.25
417.29	0.24
417.65	0.24
418.009	0.23
418.369	0.22
418.728	0.22
419.088	0.21
419.447	0.21
419.807	0.21
420.166	0.2
420.525	0.2
420.884	0.19
421.244	0.18
421.603	0.19
421.962	0.17
422.321	0.18
422.68	0.18
423.039	0.17
423.398	0.17
423.757	0.17
424.116	0.17
424.475	0.16
424.834	0.17
425.193	0.16
425.551	0.16
425.91	0.16
426.269	0.16
426.628	0.16
426.986	0.15
427.345	0.15
427.703	0.15
428.062	0.15
428.42	0.15
428.779	0.15
429.137	0.16
429.496	0.15
429.854	0.15
430.212	0.15
430.57	0.15
430.929	0.14
431.287	0.15
431.645	0.14
432.003	0.15
432.361	0.14
432.719	0.14
433.077	0.14
433.435	0.14
433.793	0.15
434.151	0.14
434.509	0.14
434.866	0.14
435.224	0.14
435.582	0.14
435.94	0.14
436.297	0.15
436.655	0.14
437.012	0.14
437.37	0.14
437.727	0.14
438.085	0.14
438.442	0.14
438.8	0.15
439.157	0.13
439.514	0.14
439.872	0.13
440.229	0.13
440.586	0.13
440.943	0.14
441.3	0.14
441.657	0.14
442.014	0.14
442.371	0.14
442.728	0.14
443.085	0.15
443.442	0.14
443.799	0.15
444.156	0.14
444.513	0.14
444.869	0.14
445.226	0.14
445.583	0.15
445.939	0.14
446.296	0.13
446.652	0.15
447.009	0.14
447.365	0.15
447.722	0.15
448.078	0.15
448.434	0.15
448.791	0.16
449.147	0.15
449.503	0.14
449.859	0.15
450.215	0.14
450.571	0.15
450.928	0.15
451.284	0.15
451.64	0.15
451.995	0.16
452.351	0.15
452.707	0.15
453.063	0.14
453.419	0.14
453.775	0.14
454.13	0.14
454.486	0.13
454.842	0.14
455.197	0.14
455.553	0.13
455.908	0.13
456.264	0.13
456.619	0.12
456.975	0.13
457.33	0.13
457.685	0.13
458.04	0.12
458.396	0.12
458.751	0.12
459.106	0.12
459.461	0.11
459.816	0.11
460.171	0.1
460.526	0.11
460.881	0.1
461.236	0.1
461.591	0.09
461.946	0.09
462.301	0.09
462.655	0.09
463.01	0.09
463.365	0.08
463.719	0.08
464.074	0.07
464.428	0.07
464.783	0.06
465.137	0.06
465.492	0.06
465.846	0.06
466.201	0.06
466.555	0.07
466.909	0.07
467.263	0.08
467.618	0.08
467.972	0.08
468.326	0.08
468.68	0.07
469.034	0.07
469.388	0.06
469.742	0.08
470.096	0.08
470.45	0.08
470.804	0.09
471.157	0.08
471.511	0.08
471.865	0.08
472.218	0.09
472.572	0.11
472.926	0.1
473.279	0.11
473.633	0.11
473.986	0.13
474.34	0.14
474.693	0.15
475.046	0.16
475.4	0.17
475.753	0.18
476.106	0.19
476.459	0.2
476.812	0.21
477.165	0.21
477.519	0.22
477.872	0.23
478.224	0.23
478.577	0.25
478.93	0.25
479.283	0.26
479.636	0.27
479.989	0.27
480.341	0.28
480.694	0.29
481.047	0.3
481.399	0.3
481.752	0.31
482.104	0.31
482.457	0.32
482.809	0.33
483.162	0.33
483.514	0.35
483.866	0.35
484.219	0.35
484.571	0.36
484.923	0.36
485.275	0.37
485.627	0.37
485.979	0.38
486.331	0.38
486.683	0.39
487.035	0.39
487.387	0.4
487.739	0.42
488.091	0.42
488.443	0.42
488.794	0.43
489.146	0.43
489.498	0.43
489.849	0.44
490.201	0.44
490.552	0.44
490.904	0.44
491.255	0.46
491.607	0.46
491.958	0.46
492.309	0.46
492.661	0.47
493.012	0.47
493.363	0.48
493.714	0.48
494.065	0.49
494.416	0.49
494.767	0.49
495.118	0.5
495.469	0.51
495.82	0.51
496.171	0.51
496.522	0.52
496.872	0.52
497.223	0.53
497.574	0.53
497.924	0.54
498.275	0.55
498.626	0.56
498.976	0.56
499.327	0.56
499.677	0.56
500.027	0.56
500.378	0.57
500.728	0.57
501.078	0.58
501.428	0.59
501.779	0.58
502.129	0.59
502.479	0.59
502.829	0.6
503.179	0.61
503.529	0.6
503.879	0.62
504.229	0.62
504.578	0.63
504.928	0.63
505.278	0.63
505.628	0.64
505.977	0.64
506.327	0.65
506.676	0.64
507.026	0.65
507.375	0.66
507.725	0.66
508.074	0.67
508.424	0.66
508.773	0.67
509.122	0.67
509.471	0.68
509.82	0.67
510.17	0.68
510.519	0.69
510.868	0.69
511.217	0.69
511.566	0.7
511.915	0.7
512.263	0.7
512.612	0.71
512.961	0.72
513.31	0.71
513.659	0.72
514.007	0.73
514.356	0.73
514.704	0.73
515.053	0.74
515.401	0.74
515.75	0.73
516.098	0.74
516.447	0.74
516.795	0.75
517.143	0.75
517.491	0.75
517.839	0.76
518.188	0.76
518.536	0.77
518.884	0.77
519.232	0.77
519.58	0.77
519.928	0.77
520.275	0.79
520.623	0.78
520.971	0.79
521.319	0.79
521.666	0.79
522.014	0.79
522.362	0.79
522.709	0.8
523.057	0.81
523.404	0.81
523.752	0.81
524.099	0.81
524.446	0.82
524.794	0.81
525.141	0.81
525.488	0.82
525.835	0.83
526.182	0.83
526.529	0.83
526.876	0.84
527.223	0.84
527.57	0.83
527.917	0.84
528.264	0.84
528.611	0.84
528.958	0.85
529.304	0.85
529.651	0.85
529.998	0.85
530.344	0.85
530.691	0.87
531.037	0.85
531.384	0.86
531.73	0.85
532.076	0.87
532.423	0.87
532.769	0.87
533.115	0.87
533.461	0.87
533.807	0.87
534.154	0.88
534.5	0.88
534.846	0.88
535.192	0.88
535.537	0.88
535.883	0.88
536.229	0.88
536.575	0.89
536.921	0.89
537.266	0.89
537.612	0.89
537.957	0.89
538.303	0.89
538.649	0.89
538.994	0.89
539.339	0.89
539.685	0.9
540.03	0.9
540.375	0.9
540.721	0.9
541.066	0.9
541.411	0.91
541.756	0.91
542.101	0.91
542.446	0.9
542.791	0.91
543.136	0.91
543.481	0.91
543.825	0.91
544.17	0.91
544.515	0.91
544.86	0.91
545.204	0.92
545.549	0.91
545.893	0.92
546.238	0.91
546.582	0.92
546.927	0.92
547.271	0.92
547.615	0.92
547.96	0.93
548.304	0.92
548.648	0.92
548.992	0.92
549.336	0.92
549.68	0.92
550.024	0.93
550.368	0.92
550.712	0.92
551.056	0.92
551.4	0.92
551.743	0.92
552.087	0.92
552.431	0.92
552.774	0.92
553.118	0.92
553.462	0.92
553.805	0.92
554.148	0.92
554.492	0.93
554.835	0.92
555.178	0.92
555.522	0.92
555.865	0.92
556.208	0.91
556.551	0.91
556.894	0.92
557.237	0.92
557.58	0.92
557.923	0.92
558.266	0.91
558.609	0.91
558.952	0.91
559.294	0.91
559.637	0.92
559.98	0.91
560.322	0.91
560.665	0.91
561.007	0.91
561.35	0.91
561.692	0.91
562.034	0.91
562.377	0.91
562.719	0.9
563.061	0.9
563.403	0.91
563.745	0.9
564.088	0.9
564.43	0.9
564.772	0.9
565.113	0.9
565.455	0.89
565.797	0.89
566.139	0.9
566.481	0.89
566.822	0.89
567.164	0.89
567.506	0.89
567.847	0.89
568.189	0.88
568.53	0.88
568.872	0.89
569.213	0.88
569.554	0.88
569.895	0.88
570.237	0.88
570.578	0.88
570.919	0.88
571.26	0.87
571.601	0.87
571.942	0.87
572.283	0.86
572.624	0.86
572.965	0.86
573.306	0.86
573.646	0.86
573.987	0.85
574.328	0.85
574.668	0.85
575.009	0.85
575.349	0.85
575.69	0.84
576.03	0.84
576.37	0.84
576.711	0.83
577.051	0.84
577.391	0.84
577.731	0.84
578.072	0.84
578.412	0.83
578.752	0.83
579.092	0.82
579.431	0.82
579.771	0.8
580.111	0.8
580.451	0.81
580.791	0.82
581.13	0.81
581.47	0.81
581.81	0.81
582.149	0.81
582.489	0.81
582.828	0.8
583.167	0.78
583.507	0.74
583.846	0.75
584.185	0.78
584.525	0.8
584.864	0.8
585.203	0.8
585.542	0.81
585.881	0.8
586.22	0.8
586.559	0.79
586.898	0.79
587.236	0.78
587.575	0.78
587.914	0.79
588.252	0.79
588.591	0.79
588.93	0.79
589.268	0.78
589.607	0.79
589.945	0.79
590.283	0.79
590.622	0.79
590.96	0.79
591.298	0.79
591.636	0.79
591.974	0.79
592.313	0.79
592.651	0.79
592.989	0.79
593.326	0.79
593.664	0.78
594.002	0.78
594.34	0.78
594.678	0.78
595.015	0.78
595.353	0.77
595.691	0.78
596.028	0.79
596.366	0.78
596.703	0.78
597.04	0.78
597.378	0.78
597.715	0.78
598.052	0.78
598.389	0.78
598.726	0.78
599.064	0.78
599.401	0.77
599.738	0.78
600.074	0.77
600.411	0.77
600.748	0.77
601.085	0.77
601.422	0.76
601.758	0.77
602.095	0.77
602.432	0.77
602.768	0.76
603.105	0.77
603.441	0.77
603.777	0.77
604.114	0.77
604.45	0.76
604.786	0.76
605.122	0.76
605.459	0.75
605.795	0.76
606.131	0.75
606.467	0.75
606.803	0.75
607.139	0.74
607.474	0.74
607.81	0.74
608.146	0.74
608.482	0.74
608.817	0.73
609.153	0.73
609.488	0.73
609.824	0.73
610.159	0.73
610.495	0.73
610.83	0.73
611.165	0.73
611.5	0.72
611.836	0.72
612.171	0.72
612.506	0.72
612.841	0.72
613.176	0.71
613.511	0.71
613.845	0.71
614.18	0.7
614.515	0.7
614.85	0.7
615.184	0.7
615.519	0.7
615.854	0.69
616.188	0.69
616.523	0.69
616.857	0.68
617.191	0.67
617.526	0.68
617.86	0.68
618.194	0.68
618.528	0.68
618.862	0.67
619.196	0.67
619.53	0.67
619.864	0.66
620.198	0.66
620.532	0.66
620.866	0.66
621.2	0.66
621.533	0.65
621.867	0.65
622.201	0.64
622.534	0.64
622.868	0.64
623.201	0.64
623.534	0.63
623.868	0.63
624.201	0.63
624.534	0.63
624.868	0.63
625.201	0.63
625.534	0.62
625.867	0.62
626.2	0.62
626.533	0.62
626.865	0.61
627.198	0.61
627.531	0.6
627.864	0.6
628.196	0.6
628.529	0.6
628.862	0.59
629.194	0.59
629.527	0.58
629.859	0.58
630.191	0.58
630.524	0.58
630.856	0.58
631.188	0.57
631.52	0.57
631.852	0.56
632.184	0.56
632.516	0.56
632.848	0.55
633.18	0.55
633.512	0.55
633.844	0.54
634.175	0.54
634.507	0.54
634.839	0.53
635.17	0.53
635.502	0.52
635.833	0.52
636.165	0.52
636.496	0.52
636.827	0.51
637.159	0.51
637.49	0.51
637.821	0.5
638.152	0.5
638.483	0.5
638.814	0.49
639.145	0.49
639.476	0.48
639.807	0.48
640.137	0.48
640.468	0.48
640.799	0.47
641.129	0.47
641.46	0.47
641.791	0.46
642.121	0.46
642.451	0.46
642.782	0.46
643.112	0.45
643.442	0.45
643.773	0.45
644.103	0.45
644.433	0.44
644.763	0.44
645.093	0.44
645.423	0.44
645.753	0.43
646.082	0.44
646.412	0.43
646.742	0.43
647.072	0.43
647.401	0.42
647.731	0.42
648.06	0.42
648.39	0.42
648.719	0.42
649.048	0.41
649.378	0.41
649.707	0.41
650.036	0.41
650.365	0.4
650.694	0.4
651.023	0.4
651.352	0.4
651.681	0.4
652.01	0.4
652.339	0.4
652.668	0.4
652.996	0.39
653.325	0.4
653.654	0.39
653.982	0.39
654.311	0.39
654.639	0.39
654.967	0.39
655.296	0.39
655.624	0.39
655.952	0.39
656.28	0.38
656.609	0.38
656.937	0.38
657.265	0.37
657.593	0.22
657.92	0.13
658.248	0.11
658.576	0.18
658.904	0.31
659.231	0.36
659.559	0.37
659.887	0.37
660.214	0.37
660.542	0.37
660.869	0.36
661.196	0.36
661.524	0.36
661.851	0.36
662.178	0.36
662.505	0.36
662.832	0.36
663.159	0.35
663.486	0.35
663.813	0.35
664.14	0.35
664.467	0.35
664.794	0.34
665.12	0.35
665.447	0.34
665.774	0.34
666.1	0.34
666.427	0.34
666.753	0.34
667.079	0.34
667.406	0.33
667.732	0.33
668.058	0.33
668.384	0.33
668.71	0.32
669.036	0.33
669.362	0.32
669.688	0.32
670.014	0.32
670.34	0.31
670.666	0.31
670.991	0.31
671.317	0.31
671.643	0.31
671.968	0.31
672.294	0.3
672.619	0.3
672.945	0.3
673.27	0.3
673.595	0.29
673.92	0.29
674.246	0.29
674.571	0.29
674.896	0.29
675.221	0.28
675.546	0.28
675.87	0.28
676.195	0.28
676.52	0.27
676.845	0.27
677.169	0.27
677.494	0.27
677.819	0.26
678.143	0.26
678.468	0.26
678.792	0.26
679.116	0.26
679.44	0.26
679.765	0.25
680.089	0.24
680.413	0.24
680.737	0.24
681.061	0.24
681.385	0.24
681.709	0.23
682.033	0.23
682.356	0.23
682.68	0.23
683.004	0.23
683.327	0.22
683.651	0.22
683.974	0.22
684.298	0.22
684.621	0.22
684.944	0.21
685.268	0.21
685.591	0.21
685.914	0.2
686.237	0.2
686.56	0.2
686.883	0.2
687.206	0.2
687.529	0.19
687.852	0.19
688.175	0.19
688.497	0.19
688.82	0.19
689.142	0.18
689.465	0.18
689.787	0.18
690.11	0.18
690.432	0.17
690.755	0.17
691.077	0.17
691.399	0.17
691.721	0.17
692.043	0.16
692.365	0.16
692.687	0.16
693.009	0.16
693.331	0.16
693.653	0.15
693.974	0.16
694.296	0.15
694.618	0.15
694.939	0.15
695.261	0.15
695.582	0.15
695.904	0.14
696.225	0.15
696.546	0.14
696.868	0.14
697.189	0.14
697.51	0.14
697.831	0.14
698.152	0.14
698.473	0.13
698.794	0.13
699.114	0.13
699.435	0.13
699.756	0.13
700.077	0.13
700.397	0.13
700.718	0.13
701.038	0.13
701.359	0.12
701.679	0.13
701.999	0.13
702.32	0.12
702.64	0.12
702.96	0.12
703.28	0.13
703.6	0.12
703.92	0.12
704.24	0.12
704.56	0.12
704.879	0.12
705.199	0.12
705.519	0.12
705.838	0.12
706.158	0.12
706.478	0.12
706.797	0.12
707.116	0.12
707.436	0.12
707.755	0.11
708.074	0.11
708.393	0.11
708.712	0.11
709.031	0.1
709.35	0.1
709.669	0.1
709.988	0.1
710.307	0.1
710.626	0.11
710.944	0.11
711.263	0.11
711.582	0.11
711.9	0.11
712.219	0.11
712.537	0.11
712.855	0.11
713.174	0.11
713.492	0.11
713.81	0.11
714.128	0.11
714.446	0.11
714.764	0.11
715.082	0.1
715.4	0.11
715.718	0.11
716.035	0.1
716.353	0.11
716.671	0.11
716.988	0.11
717.306	0.11
717.623	0.11
717.941	0.11
718.258	0.11
718.575	0.11
718.893	0.11
719.21	0.11
719.527	0.11
719.844	0.11
720.161	0.11
720.478	0.11
720.795	0.11
721.112	0.11
721.428	0.11
721.745	0.11
722.062	0.11
722.378	0.11
722.695	0.11
723.011	0.11
723.328	0.11
723.644	0.11
723.96	0.11
724.276	0.12
724.593	0.12
724.909	0.11
725.225	0.11
725.541	0.12
725.857	0.11
726.173	0.12
726.488	0.12
726.804	0.11
727.12	0.12
727.435	0.12
727.751	0.11
728.067	0.11
728.382	0.12
728.697	0.11
729.013	0.12
729.328	0.11
729.643	0.11
729.958	0.11
730.273	0.11
730.588	0.11
730.903	0.11
731.218	0.11
731.533	0.11
731.848	0.11
732.163	0.11
732.477	0.11
732.792	0.11
733.107	0.1
733.421	0.11
733.736	0.11
734.05	0.11
734.364	0.11
734.678	0.11
734.993	0.11
735.307	0.11
735.621	0.11
735.935	0.1
736.249	0.1
736.563	0.11
736.877	0.11
737.19	0.11
737.504	0.11
737.818	0.11
738.131	0.11
738.445	0.1
738.758	0.11
739.072	0.1
739.385	0.1
739.698	0.1
740.012	0.11
740.325	0.1
740.638	0.1
740.951	0.1
741.264	0.09
741.577	0.1
741.89	0.1
742.203	0.1
742.515	0.1
742.828	0.1
743.141	0.1
743.453	0.09
743.766	0.09
744.078	0.09
744.391	0.09
744.703	0.09
745.015	0.09
745.327	0.09
745.639	0.09
745.952	0.09
746.264	0.09
746.575	0.09
746.887	0.09
747.199	0.09
747.511	0.09
747.823	0.09
748.134	0.08
748.446	0.08
748.757	0.08
749.069	0.08
749.38	0.08
749.692	0.08
750.003	0.08
750.314	0.08
750.625	0.08
750.936	0.07
751.248	0.07
751.559	0.08
751.869	0.07
752.18	0.08
752.491	0.07
752.802	0.07
753.112	0.07
753.423	0.07
753.734	0.07
754.044	0.07
754.355	0.07
754.665	0.07
754.975	0.07
755.285	0.07
755.596	0.07
755.906	0.07
756.216	0.07
756.526	0.07
756.836	0.06
757.146	0.06
757.455	0.06
757.765	0.06
758.075	0.06
758.385	0.06
758.694	0.06
759.004	0.06
759.313	0.06
759.622	0.06
759.932	0.06
760.241	0.06
760.55	0.06
760.859	0.06
761.168	0.06
761.477	0.06
761.786	0.06
762.095	0.06
762.404	0.06
762.713	0.06
763.021	0.06
763.33	0.06
763.639	0.06
763.947	0.06
764.256	0.06
764.564	0.06
764.872	0.06
765.181	0.06
765.489	0.05
765.797	0.05
766.105	0.05
766.413	0.06
766.721	0.06
767.029	0.06
767.337	0.06
767.644	0.06
767.952	0.06
768.26	0.05
768.567	0.05
768.875	0.05
769.182	0.05
769.49	0.05
769.797	0.05
770.104	0.05
770.411	0.05
770.718	0.05
771.026	0.06
771.333	0.06
771.639	0.06
771.946	0.06
772.253	0.06
772.56	0.06
772.867	0.06
773.173	0.06
773.48	0.06
773.786	0.05
774.093	0.06
774.399	0.06
774.705	0.06
775.012	0.05
775.318	0.06
775.624	0.05
775.93	0.05
776.236	0.05
776.542	0.06
776.848	0.06
777.154	0.05
777.459	0.05
777.765	0.05
778.071	0.06
778.376	0.06
778.682	0.06
778.987	0.06
779.292	0.06
779.598	0.06
779.903	0.06
780.208	0.06
780.513	0.06
780.818	0.06
781.123	0.06
781.428	0.06
781.733	0.06
782.038	0.06
782.343	0.06
782.647	0.06
782.952	0.06
783.256	0.06
783.561	0.06
783.865	0.06
784.17	0.06
784.474	0.06
784.778	0.06
785.082	0.06
785.386	0.06
785.69	0.06
785.994	0.06
786.298	0.06
786.602	0.06
786.906	0.06
787.209	0.06
787.513	0.06
787.817	0.06
788.12	0.06
788.424	0.06
788.727	0.06
789.03	0.06
789.333	0.06
789.637	0.06
789.94	0.06
790.243	0.06
790.546	0.06
790.849	0.06
791.152	0.06
791.454	0.06
791.757	0.06
792.06	0.06
792.362	0.07
792.665	0.07
792.967	0.07
793.27	0.07
793.572	0.07
793.874	0.06
794.177	0.07
794.479	0.06
794.781	0.07
795.083	0.07
795.385	0.07
795.687	0.07
795.989	0.07
796.29	0.07
796.592	0.07
796.894	0.07
797.195	0.07
797.497	0.08
797.798	0.08
798.1	0.07
798.401	0.07
798.702	0.08
799.003	0.07
799.304	0.07
799.605	0.07
799.906	0.08
800.207	0.07
800.508	0.07
800.809	0.07
801.11	0.07
801.41	0.07
801.711	0.08
802.011	0.07
802.312	0.08
802.612	0.07
802.913	0.07
803.213	0.08
803.513	0.07
803.813	0.08
804.113	0.07
804.413	0.08
804.713	0.08
805.013	0.08
805.313	0.08
805.613	0.08
805.912	0.08
806.212	0.08
806.511	0.08
806.811	0.08
807.11	0.08
807.41	0.08
807.709	0.08
808.008	0.08
808.307	0.08
808.606	0.08
808.905	0.08
809.204	0.08
809.503	0.08
809.802	0.08
810.101	0.08
810.399	0.08
810.698	0.08
810.997	0.09
811.295	0.08
811.593	0.08
811.892	0.09
812.19	0.09
812.488	0.09
812.786	0.09
813.084	0.09
813.383	0.09
813.68	0.09
813.978	0.09
814.276	0.09
814.574	0.09
814.872	0.09
815.169	0.09
815.467	0.09
815.764	0.09
816.062	0.09
816.359	0.09
816.656	0.09
816.954	0.09
817.251	0.09
817.548	0.1
817.845	0.09
818.142	0.1
818.439	0.1
818.735	0.09
819.032	0.1
819.329	0.1
819.626	0.1
819.922	0.1
820.219	0.1
820.515	0.1
820.811	0.1
821.108	0.1
821.404	0.1
821.7	0.1
821.996	0.1
822.292	0.1
822.588	0.1
822.884	0.1
823.18	0.1
823.475	0.1
823.771	0.1
824.067	0.1
824.362	0.1
824.658	0.1
824.953	0.11
825.249	0.1
825.544	0.1
825.839	0.1
826.134	0.1
826.429	0.1
826.724	0.11
827.019	0.1
827.314	0.1
827.609	0.1
827.904	0.11
828.198	0.11
828.493	0.11
828.787	0.1
829.082	0.11
829.376	0.1
829.671	0.11
829.965	0.11
830.259	0.11
830.553	0.11
830.847	0.11
831.141	0.11
831.435	0.12
831.729	0.11
832.023	0.12
832.317	0.12
832.61	0.11
832.904	0.11
833.197	0.11
833.491	0.12
833.784	0.12
834.077	0.11
834.371	0.12
834.664	0.12
834.957	0.11
835.25	0.12
835.543	0.11
835.836	0.12
836.129	0.12
836.421	0.12
836.714	0.12
837.007	0.12
837.299	0.12
837.592	0.12
837.884	0.13
838.177	0.12
838.469	0.13
838.761	0.12
839.053	0.13
839.345	0.13
839.637	0.12
839.929	0.13
840.221	0.12
840.513	0.12
840.805	0.13
841.096	0.12
841.388	0.12
841.68	0.12
841.971	0.13
842.262	0.14
842.554	0.13
842.845	0.13
843.136	0.13
843.427	0.13
843.718	0.13
844.009	0.13
844.3	0.12
844.591	0.13
844.882	0.13
845.173	0.13
845.463	0.14
845.754	0.13
846.044	0.13
846.335	0.12
846.625	0.14
846.915	0.12
847.206	0.13
847.496	0.13
847.786	0.13
848.076	0.13
848.366	0.14
848.656	0.14
848.945	0.14
849.235	0.13
849.525	0.13
849.814	0.14
850.104	0.12
850.393	0.13
850.683	0.15
850.972	0.15
851.261	0.13
851.551	0.15
851.84	0.13
852.129	0.13
852.418	0.14
852.707	0.15
852.995	0.14
853.284	0.14
853.573	0.13
853.862	0.14
854.15	0.15
854.439	0.15
854.727	0.14
855.015	0.15
855.304	0.15
855.592	0.14
855.88	0.13
856.168	0.15
856.456	0.15
856.744	0.15
857.032	0.13
857.32	0.15
857.607	0.15
857.895	0.15
858.183	0.15
858.47	0.15
858.757	0.15
859.045	0.15
859.332	0.15
859.619	0.15
859.907	0.16
860.194	0.14
860.481	0.18
860.768	0.11
861.054	0.16
861.341	0.13
861.628	0.15
861.915	0.17
862.201	0.16
862.488	0.13
862.774	0.14
863.061	0.15
863.347	0.18
863.633	0.16
863.919	0.15
864.205	0.15
864.491	0.15
864.777	0.14
865.063	0.15
865.349	0.16
865.635	0.16
865.92	0.16
866.206	0.16
866.492	0.15
866.777	0.17
867.062	0.14
867.348	0.13
867.633	0.14
867.918	0.14
868.203	0.2
868.488	0.17
868.773	0.17
869.058	0.13
869.343	0.18
869.628	0.1
869.912	0.14
870.197	0.16
870.482	0.18
870.766	0.15
871.05	0.16
871.335	0.13
871.619	0.12
871.903	0.12
872.187	0.17
872.471	0.16
872.755	0.22
873.039	0.11
873.323	0.15
873.607	0.14
873.89	0.15
874.174	0.14
874.458	0.09
874.741	0.16
875.024	0.15
875.308	0.15
875.591	0.13
875.874	0.13
876.157	0.07
876.44	0.1
876.723	0.12
877.006	0.17
877.289	0.11
877.572	0.18
877.854	0.18
878.137	0.14
878.42	0.08
878.702	0.14
878.984	0.13
879.267	0.11
879.549	0.14
879.831	0.25
880.113	0.09
880.395	0.1
880.677	0.17
880.959	-0.01
