Data from Rubpy_BV_1800_EDTA_Buffered_Absorbance_16-49-24-618.txt Node
Date: Wed Jul 01 16:49:24 BST 2026
User: fpm-admin
Spectrometer: OFX00224
Trigger mode: 0
Integration Time (sec): 7.000000E-2
Scans to average: 3
Nonlinearity correction enabled: false
Boxcar width: 0
Storing dark spectrum: false
XAxis mode: Wavelengths
Number of Pixels in Spectrum: 2136
>>>>>Begin Spectral Data<<<<<
154.91	0.07
155.289	-0.16
155.669	-0.06
156.048	-0
156.428	-0
156.807	0.16
157.186	-0
157.566	0.07
157.945	-0
158.325	0.3
158.704	-0.05
159.083	0.33
159.462	-0
159.842	-0
160.221	-0
160.6	-0
160.979	-0
161.359	0.51
161.738	-0
162.117	-0.54
162.496	-0.06
162.875	-0
163.254	0.06
163.633	0.67
164.012	-0
164.391	0.27
164.77	-0.04
165.149	-0.48
165.528	-0
165.907	1.02
166.286	-0.3
166.665	-0
167.044	0.13
167.423	0.35
167.802	-0
168.181	-0
168.559	0.1
168.938	-0
169.317	0.45
169.696	-1.18
170.074	-0
170.453	-0.19
170.832	-1.46
171.21	0.08
171.589	-0
171.968	-0
172.346	-0.18
172.725	-0
173.103	-0
173.482	-0
173.861	-0
174.239	-0.63
174.617	0.9
174.996	-0
175.374	-0.73
175.753	-0.5
176.131	0.04
176.51	0.05
176.888	0.28
177.266	-0
177.645	0.04
178.023	0.78
178.401	-0.3
178.779	-0.06
179.158	0.15
179.536	-0
179.914	0.14
180.292	-0.26
180.67	-0.14
181.048	0.5
181.427	-0.42
181.805	-0
182.183	-0
182.561	-0.24
182.939	-0.34
183.317	-0.11
183.695	0.15
184.073	-0
184.451	-0.62
184.829	-0.51
185.206	-0.54
185.584	0.12
185.962	-0
186.34	-0.02
186.718	0.05
187.096	-0
187.473	-0.45
187.851	-0.29
188.229	-0.35
188.607	0.11
188.984	0.15
189.362	0.27
189.74	0.29
190.117	0.41
190.495	0.37
190.872	0.22
191.25	0.34
191.627	0.25
192.005	0.3
192.382	0.39
192.76	0.34
193.137	0.31
193.515	0.32
193.892	0.28
194.269	0.3
194.647	0.3
195.024	0.21
195.401	0.46
195.779	0.26
196.156	0.51
196.533	0.32
196.91	0.29
197.288	0.39
197.665	0.23
198.042	0.23
198.419	0.2
198.796	0.25
199.173	0.26
199.55	0.26
199.927	0.27
200.304	0.15
200.681	0.23
201.058	0.23
201.435	0.34
201.812	0.29
202.189	0.4
202.566	0.38
202.943	0.17
203.32	0.33
203.697	0.28
204.073	0.19
204.45	0.48
204.827	0.23
205.204	0.19
205.58	0.37
205.957	0.28
206.334	0.4
206.71	0.32
207.087	0.26
207.464	0.45
207.84	0.26
208.217	0.29
208.593	0.21
208.97	0.3
209.346	0.37
209.723	0.29
210.099	0.58
210.476	0.45
210.852	0.33
211.228	0.19
211.605	0.36
211.981	0.25
212.357	0.51
212.733	0.25
213.11	0.25
213.486	0.28
213.862	0.39
214.238	0.26
214.614	0.35
214.991	0.32
215.367	0.51
215.743	0.29
216.119	0.37
216.495	0.37
216.871	0.26
217.247	0.36
217.623	0.22
217.999	0.44
218.375	0.25
218.751	0.24
219.127	0.3
219.502	0.28
219.878	0.29
220.254	0.37
220.63	0.37
221.006	0.27
221.381	0.43
221.757	0.35
222.133	0.24
222.508	0.43
222.884	0.26
223.26	0.28
223.635	0.3
224.011	0.32
224.386	0.21
224.762	0.55
225.137	0.43
225.513	0.17
225.888	0.3
226.264	0.36
226.639	0.2
227.014	0.4
227.39	0.25
227.765	0.35
228.14	0.25
228.516	0.38
228.891	0.24
229.266	0.33
229.641	0.22
230.017	0.33
230.392	0.47
230.767	0.4
231.142	0.24
231.517	0.45
231.892	0.46
232.267	0.33
232.642	0.42
233.017	0.26
233.392	0.4
233.767	0.36
234.142	0.3
234.517	0.22
234.892	0.26
235.267	0.42
235.641	0.42
236.016	0.38
236.391	0.21
236.766	0.3
237.14	0.42
237.515	0.42
237.89	0.37
238.264	0.47
238.639	0.34
239.014	0.39
239.388	0.18
239.763	0.34
240.137	0.32
240.512	0.31
240.886	0.36
241.261	0.26
241.635	0.36
242.009	0.42
242.384	0.47
242.758	0.4
243.132	0.25
243.507	0.31
243.881	0.36
244.255	0.29
244.629	0.27
245.004	0.34
245.378	0.29
245.752	0.53
246.126	0.24
246.5	0.28
246.874	0.26
247.248	0.37
247.622	0.36
247.996	0.38
248.37	0.38
248.744	0.33
249.118	0.15
249.492	0.38
249.866	0.26
250.24	0.34
250.613	0.51
250.987	0.4
251.361	0.36
251.735	0.37
252.108	0.42
252.482	0.35
252.856	0.18
253.229	0.27
253.603	0.25
253.977	0.44
254.35	0.33
254.724	0.32
255.097	0.32
255.471	0.37
255.844	0.3
256.218	0.37
256.591	0.31
256.964	0.38
257.338	0.27
257.711	0.35
258.084	0.31
258.458	0.31
258.831	0.45
259.204	0.28
259.577	0.27
259.95	0.38
260.323	0.25
260.697	0.41
261.07	0.32
261.443	0.43
261.816	0.34
262.189	0.43
262.562	0.3
262.935	0.46
263.308	0.15
263.68	0.43
264.053	0.54
264.426	0.44
264.799	0.28
265.172	0.26
265.545	0.29
265.917	0.42
266.29	0.35
266.663	0.35
267.035	0.32
267.408	0.48
267.781	0.3
268.153	0.35
268.526	0.3
268.898	0.41
269.271	0.41
269.643	0.29
270.016	0.39
270.388	0.2
270.76	0.35
271.133	0.31
271.505	0.33
271.877	0.36
272.25	0.28
272.622	0.35
272.994	0.49
273.366	0.34
273.739	0.29
274.111	0.34
274.483	0.26
274.855	0.31
275.227	0.37
275.599	0.33
275.971	0.31
276.343	0.27
276.715	0.35
277.087	0.39
277.459	0.44
277.831	0.32
278.203	0.31
278.574	0.41
278.946	0.26
279.318	0.31
279.69	0.35
280.061	0.36
280.433	0.37
280.805	0.39
281.176	0.37
281.548	0.32
281.92	0.37
282.291	0.29
282.663	0.36
283.034	0.36
283.406	0.4
283.777	0.39
284.148	0.38
284.52	0.33
284.891	0.48
285.262	0.38
285.634	0.3
286.005	0.34
286.376	0.27
286.747	0.37
287.119	0.28
287.49	0.4
287.861	0.35
288.232	0.33
288.603	0.42
288.974	0.4
289.345	0.35
289.716	0.36
290.087	0.29
290.458	0.32
290.829	0.32
291.2	0.46
291.571	0.38
291.941	0.33
292.312	0.37
292.683	0.35
293.054	0.3
293.424	0.41
293.795	0.32
294.166	0.27
294.536	0.3
294.907	0.35
295.277	0.37
295.648	0.36
296.018	0.38
296.389	0.3
296.759	0.3
297.13	0.32
297.5	0.4
297.871	0.33
298.241	0.42
298.611	0.32
298.981	0.34
299.352	0.42
299.722	0.3
300.092	0.34
300.462	0.31
300.832	0.43
301.202	0.37
301.573	0.35
301.943	0.34
302.313	0.3
302.683	0.3
303.053	0.36
303.422	0.34
303.792	0.37
304.162	0.31
304.532	0.44
304.902	0.3
305.272	0.33
305.641	0.36
306.011	0.29
306.381	0.35
306.75	0.37
307.12	0.3
307.49	0.3
307.859	0.3
308.229	0.33
308.598	0.23
308.968	0.29
309.337	0.28
309.707	0.28
310.076	0.21
310.445	0.25
310.815	0.26
311.184	0.29
311.553	0.22
311.923	0.24
312.292	0.26
312.661	0.28
313.03	0.26
313.399	0.23
313.768	0.29
314.137	0.28
314.506	0.25
314.875	0.3
315.244	0.23
315.613	0.27
315.982	0.27
316.351	0.28
316.72	0.28
317.089	0.29
317.458	0.27
317.826	0.3
318.195	0.28
318.564	0.29
318.933	0.31
319.301	0.3
319.67	0.31
320.038	0.32
320.407	0.33
320.775	0.31
321.144	0.33
321.512	0.33
321.881	0.33
322.249	0.33
322.618	0.35
322.986	0.34
323.354	0.35
323.723	0.35
324.091	0.36
324.459	0.37
324.827	0.38
325.195	0.38
325.564	0.37
325.932	0.38
326.3	0.39
326.668	0.39
327.036	0.41
327.404	0.42
327.772	0.41
328.14	0.41
328.508	0.42
328.875	0.42
329.243	0.43
329.611	0.43
329.979	0.46
330.346	0.46
330.714	0.47
331.082	0.48
331.449	0.47
331.817	0.48
332.185	0.49
332.552	0.5
332.92	0.51
333.287	0.51
333.655	0.53
334.022	0.54
334.389	0.55
334.757	0.56
335.124	0.56
335.491	0.59
335.859	0.59
336.226	0.6
336.593	0.6
336.96	0.63
337.327	0.63
337.695	0.65
338.062	0.65
338.429	0.67
338.796	0.68
339.163	0.69
339.53	0.71
339.897	0.72
340.263	0.74
340.63	0.75
340.997	0.76
341.364	0.77
341.731	0.79
342.097	0.8
342.464	0.82
342.831	0.83
343.197	0.84
343.564	0.85
343.931	0.87
344.297	0.87
344.664	0.9
345.03	0.9
345.396	0.92
345.763	0.94
346.129	0.95
346.496	0.96
346.862	0.98
347.228	0.98
347.594	1
347.961	1.02
348.327	1.03
348.693	1.03
349.059	1.05
349.425	1.06
349.791	1.07
350.157	1.09
350.523	1.1
350.889	1.11
351.255	1.13
351.621	1.13
351.987	1.15
352.353	1.15
352.719	1.17
353.084	1.18
353.45	1.19
353.816	1.2
354.181	1.21
354.547	1.23
354.913	1.24
355.278	1.28
355.644	1.25
356.009	1.29
356.375	1.3
356.74	1.34
357.106	1.35
357.471	1.35
357.836	1.36
358.202	1.39
358.567	1.38
358.932	1.43
359.297	1.44
359.663	1.45
360.028	1.47
360.393	1.47
360.758	1.48
361.123	1.52
361.488	1.51
361.853	1.58
362.218	1.56
362.583	1.59
362.948	1.58
363.312	1.63
363.677	1.63
364.042	1.66
364.407	1.65
364.772	1.69
365.136	1.67
365.501	1.7
365.865	1.75
366.23	1.73
366.595	1.73
366.959	1.8
367.324	1.75
367.688	1.76
368.052	1.76
368.417	1.77
368.781	1.79
369.145	1.81
369.51	1.84
369.874	1.83
370.238	1.83
370.602	1.79
370.967	1.89
371.331	1.81
371.695	1.85
372.059	1.81
372.423	1.82
372.787	1.83
373.151	1.83
373.515	1.84
373.878	1.85
374.242	1.81
374.606	1.78
374.97	1.79
375.334	1.82
375.697	1.77
376.061	1.78
376.425	1.8
376.788	1.71
377.152	1.74
377.515	1.74
377.879	1.71
378.242	1.68
378.606	1.67
378.969	1.67
379.333	1.67
379.696	1.63
380.059	1.61
380.422	1.61
380.786	1.58
381.149	1.58
381.512	1.54
381.875	1.5
382.238	1.49
382.601	1.5
382.964	1.48
383.327	1.43
383.69	1.46
384.053	1.42
384.416	1.41
384.779	1.4
385.142	1.38
385.504	1.37
385.867	1.36
386.23	1.36
386.593	1.34
386.955	1.33
387.318	1.34
387.68	1.33
388.043	1.31
388.405	1.32
388.768	1.31
389.13	1.31
389.493	1.31
389.855	1.27
390.217	1.27
390.58	1.27
390.942	1.24
391.304	1.23
391.666	1.21
392.028	1.2
392.391	1.18
392.753	1.17
393.115	1.14
393.477	1.14
393.839	1.13
394.201	1.12
394.563	1.11
394.924	1.11
395.286	1.11
395.648	1.11
396.01	1.11
396.371	1.11
396.733	1.13
397.095	1.14
397.456	1.16
397.818	1.19
398.18	1.2
398.541	1.23
398.903	1.27
399.264	1.29
399.625	1.3
399.987	1.33
400.348	1.35
400.709	1.37
401.071	1.38
401.432	1.38
401.793	1.4
402.154	1.36
402.515	1.35
402.876	1.34
403.238	1.29
403.599	1.26
403.96	1.23
404.32	1.19
404.681	1.15
405.042	1.11
405.403	1.06
405.764	1.01
406.125	0.97
406.485	0.91
406.846	0.88
407.207	0.82
407.567	0.77
407.928	0.75
408.288	0.7
408.649	0.66
409.009	0.63
409.37	0.59
409.73	0.56
410.091	0.53
410.451	0.51
410.811	0.48
411.171	0.46
411.532	0.44
411.892	0.42
412.252	0.4
412.612	0.38
412.972	0.37
413.332	0.35
413.692	0.34
414.052	0.32
414.412	0.31
414.772	0.3
415.132	0.29
415.492	0.28
415.851	0.27
416.211	0.26
416.571	0.25
416.931	0.25
417.29	0.24
417.65	0.24
418.009	0.22
418.369	0.22
418.728	0.22
419.088	0.21
419.447	0.21
419.807	0.2
420.166	0.2
420.525	0.2
420.884	0.19
421.244	0.19
421.603	0.18
421.962	0.18
422.321	0.18
422.68	0.18
423.039	0.17
423.398	0.17
423.757	0.17
424.116	0.17
424.475	0.17
424.834	0.16
425.193	0.16
425.551	0.17
425.91	0.15
426.269	0.16
426.628	0.15
426.986	0.15
427.345	0.14
427.703	0.15
428.062	0.15
428.42	0.15
428.779	0.15
429.137	0.16
429.496	0.14
429.854	0.15
430.212	0.15
430.57	0.14
430.929	0.14
431.287	0.14
431.645	0.14
432.003	0.14
432.361	0.14
432.719	0.14
433.077	0.14
433.435	0.14
433.793	0.14
434.151	0.13
434.509	0.15
434.866	0.13
435.224	0.14
435.582	0.15
435.94	0.14
436.297	0.14
436.655	0.14
437.012	0.14
437.37	0.14
437.727	0.13
438.085	0.14
438.442	0.14
438.8	0.14
439.157	0.14
439.514	0.14
439.872	0.14
440.229	0.14
440.586	0.13
440.943	0.14
441.3	0.14
441.657	0.15
442.014	0.14
442.371	0.13
442.728	0.14
443.085	0.15
443.442	0.13
443.799	0.14
444.156	0.14
444.513	0.15
444.869	0.13
445.226	0.14
445.583	0.15
445.939	0.14
446.296	0.13
446.652	0.14
447.009	0.14
447.365	0.16
447.722	0.14
448.078	0.14
448.434	0.15
448.791	0.15
449.147	0.14
449.503	0.14
449.859	0.14
450.215	0.14
450.571	0.14
450.928	0.14
451.284	0.15
451.64	0.14
451.995	0.14
452.351	0.15
452.707	0.14
453.063	0.15
453.419	0.14
453.775	0.14
454.13	0.14
454.486	0.14
454.842	0.14
455.197	0.14
455.553	0.13
455.908	0.14
456.264	0.13
456.619	0.13
456.975	0.13
457.33	0.13
457.685	0.13
458.04	0.12
458.396	0.12
458.751	0.11
459.106	0.12
459.461	0.11
459.816	0.11
460.171	0.11
460.526	0.11
460.881	0.1
461.236	0.1
461.591	0.09
461.946	0.09
462.301	0.09
462.655	0.09
463.01	0.09
463.365	0.08
463.719	0.07
464.074	0.07
464.428	0.06
464.783	0.05
465.137	0.06
465.492	0.06
465.846	0.06
466.201	0.07
466.555	0.07
466.909	0.07
467.263	0.08
467.618	0.08
467.972	0.08
468.326	0.08
468.68	0.07
469.034	0.07
469.388	0.07
469.742	0.07
470.096	0.08
470.45	0.08
470.804	0.08
471.157	0.08
471.511	0.09
471.865	0.08
472.218	0.09
472.572	0.1
472.926	0.1
473.279	0.11
473.633	0.12
473.986	0.13
474.34	0.13
474.693	0.14
475.046	0.16
475.4	0.17
475.753	0.17
476.106	0.18
476.459	0.18
476.812	0.2
477.165	0.21
477.519	0.22
477.872	0.23
478.224	0.23
478.577	0.24
478.93	0.25
479.283	0.25
479.636	0.26
479.989	0.27
480.341	0.27
480.694	0.29
481.047	0.29
481.399	0.3
481.752	0.3
482.104	0.31
482.457	0.32
482.809	0.33
483.162	0.32
483.514	0.34
483.866	0.35
484.219	0.35
484.571	0.35
484.923	0.35
485.275	0.37
485.627	0.36
485.979	0.38
486.331	0.38
486.683	0.39
487.035	0.39
487.387	0.4
487.739	0.41
488.091	0.41
488.443	0.41
488.794	0.42
489.146	0.42
489.498	0.42
489.849	0.43
490.201	0.44
490.552	0.43
490.904	0.44
491.255	0.44
491.607	0.45
491.958	0.45
492.309	0.46
492.661	0.46
493.012	0.47
493.363	0.48
493.714	0.48
494.065	0.48
494.416	0.49
494.767	0.49
495.118	0.49
495.469	0.5
495.82	0.5
496.171	0.5
496.522	0.51
496.872	0.52
497.223	0.52
497.574	0.52
497.924	0.53
498.275	0.54
498.626	0.54
498.976	0.55
499.327	0.55
499.677	0.55
500.027	0.56
500.378	0.56
500.728	0.56
501.078	0.57
501.428	0.57
501.779	0.58
502.129	0.59
502.479	0.58
502.829	0.59
503.179	0.6
503.529	0.6
503.879	0.61
504.229	0.62
504.578	0.61
504.928	0.62
505.278	0.62
505.628	0.63
505.977	0.63
506.327	0.64
506.676	0.64
507.026	0.65
507.375	0.64
507.725	0.65
508.074	0.65
508.424	0.66
508.773	0.66
509.122	0.66
509.471	0.66
509.82	0.67
510.17	0.68
510.519	0.68
510.868	0.68
511.217	0.68
511.566	0.69
511.915	0.69
512.263	0.7
512.612	0.7
512.961	0.71
513.31	0.71
513.659	0.7
514.007	0.71
514.356	0.72
514.704	0.72
515.053	0.73
515.401	0.73
515.75	0.73
516.098	0.73
516.447	0.74
516.795	0.74
517.143	0.74
517.491	0.74
517.839	0.75
518.188	0.75
518.536	0.76
518.884	0.76
519.232	0.76
519.58	0.76
519.928	0.77
520.275	0.78
520.623	0.77
520.971	0.77
521.319	0.78
521.666	0.78
522.014	0.79
522.362	0.78
522.709	0.79
523.057	0.8
523.404	0.8
523.752	0.8
524.099	0.8
524.446	0.81
524.794	0.81
525.141	0.8
525.488	0.81
525.835	0.81
526.182	0.82
526.529	0.82
526.876	0.82
527.223	0.82
527.57	0.82
527.917	0.83
528.264	0.83
528.611	0.83
528.958	0.84
529.304	0.83
529.651	0.84
529.998	0.84
530.344	0.84
530.691	0.85
531.037	0.85
531.384	0.84
531.73	0.85
532.076	0.86
532.423	0.86
532.769	0.86
533.115	0.85
533.461	0.86
533.807	0.86
534.154	0.86
534.5	0.86
534.846	0.87
535.192	0.86
535.537	0.86
535.883	0.87
536.229	0.87
536.575	0.87
536.921	0.88
537.266	0.88
537.612	0.87
537.957	0.87
538.303	0.88
538.649	0.88
538.994	0.89
539.339	0.89
539.685	0.89
540.03	0.88
540.375	0.89
540.721	0.89
541.066	0.89
541.411	0.89
541.756	0.9
542.101	0.9
542.446	0.89
542.791	0.89
543.136	0.9
543.481	0.9
543.825	0.9
544.17	0.9
544.515	0.9
544.86	0.9
545.204	0.9
545.549	0.91
545.893	0.91
546.238	0.9
546.582	0.91
546.927	0.91
547.271	0.91
547.615	0.91
547.96	0.92
548.304	0.91
548.648	0.92
548.992	0.91
549.336	0.9
549.68	0.9
550.024	0.91
550.368	0.91
550.712	0.91
551.056	0.92
551.4	0.91
551.743	0.91
552.087	0.91
552.431	0.91
552.774	0.91
553.118	0.91
553.462	0.91
553.805	0.91
554.148	0.91
554.492	0.91
554.835	0.91
555.178	0.91
555.522	0.91
555.865	0.91
556.208	0.91
556.551	0.9
556.894	0.9
557.237	0.91
557.58	0.91
557.923	0.9
558.266	0.91
558.609	0.9
558.952	0.9
559.294	0.91
559.637	0.9
559.98	0.91
560.322	0.9
560.665	0.9
561.007	0.9
561.35	0.89
561.692	0.9
562.034	0.89
562.377	0.9
562.719	0.89
563.061	0.89
563.403	0.89
563.745	0.89
564.088	0.89
564.43	0.89
564.772	0.89
565.113	0.88
565.455	0.88
565.797	0.88
566.139	0.88
566.481	0.88
566.822	0.88
567.164	0.88
567.506	0.88
567.847	0.88
568.189	0.87
568.53	0.88
568.872	0.88
569.213	0.87
569.554	0.87
569.895	0.86
570.237	0.86
570.578	0.86
570.919	0.87
571.26	0.86
571.601	0.86
571.942	0.85
572.283	0.85
572.624	0.86
572.965	0.85
573.306	0.85
573.646	0.84
573.987	0.85
574.328	0.85
574.668	0.84
575.009	0.83
575.349	0.84
575.69	0.83
576.03	0.83
576.37	0.83
576.711	0.82
577.051	0.83
577.391	0.83
577.731	0.83
578.072	0.82
578.412	0.82
578.752	0.82
579.092	0.82
579.431	0.81
579.771	0.79
580.111	0.79
580.451	0.8
580.791	0.81
581.13	0.81
581.47	0.81
581.81	0.8
582.149	0.8
582.489	0.8
582.828	0.79
583.167	0.77
583.507	0.74
583.846	0.73
584.185	0.77
584.525	0.79
584.864	0.79
585.203	0.79
585.542	0.8
585.881	0.79
586.22	0.79
586.559	0.79
586.898	0.78
587.236	0.77
587.575	0.78
587.914	0.78
588.252	0.79
588.591	0.78
588.93	0.78
589.268	0.78
589.607	0.77
589.945	0.78
590.283	0.78
590.622	0.78
590.96	0.78
591.298	0.78
591.636	0.78
591.974	0.78
592.313	0.78
592.651	0.78
592.989	0.78
593.326	0.78
593.664	0.78
594.002	0.78
594.34	0.77
594.678	0.77
595.015	0.77
595.353	0.76
595.691	0.77
596.028	0.78
596.366	0.77
596.703	0.77
597.04	0.77
597.378	0.77
597.715	0.77
598.052	0.77
598.389	0.76
598.726	0.77
599.064	0.77
599.401	0.77
599.738	0.77
600.074	0.76
600.411	0.76
600.748	0.76
601.085	0.76
601.422	0.76
601.758	0.75
602.095	0.76
602.432	0.76
602.768	0.76
603.105	0.76
603.441	0.76
603.777	0.76
604.114	0.76
604.45	0.76
604.786	0.75
605.122	0.75
605.459	0.75
605.795	0.74
606.131	0.74
606.467	0.74
606.803	0.75
607.139	0.74
607.474	0.73
607.81	0.73
608.146	0.73
608.482	0.73
608.817	0.73
609.153	0.73
609.488	0.73
609.824	0.72
610.159	0.72
610.495	0.72
610.83	0.72
611.165	0.72
611.5	0.71
611.836	0.71
612.171	0.71
612.506	0.71
612.841	0.71
613.176	0.7
613.511	0.7
613.845	0.7
614.18	0.69
614.515	0.7
614.85	0.69
615.184	0.69
615.519	0.69
615.854	0.68
616.188	0.68
616.523	0.68
616.857	0.68
617.191	0.67
617.526	0.67
617.86	0.67
618.194	0.67
618.528	0.67
618.862	0.66
619.196	0.66
619.53	0.66
619.864	0.65
620.198	0.66
620.532	0.65
620.866	0.65
621.2	0.65
621.533	0.64
621.867	0.64
622.201	0.64
622.534	0.64
622.868	0.64
623.201	0.64
623.534	0.63
623.868	0.63
624.201	0.62
624.534	0.62
624.868	0.62
625.201	0.61
625.534	0.61
625.867	0.61
626.2	0.61
626.533	0.61
626.865	0.6
627.198	0.6
627.531	0.6
627.864	0.59
628.196	0.59
628.529	0.59
628.862	0.59
629.194	0.58
629.527	0.58
629.859	0.57
630.191	0.57
630.524	0.57
630.856	0.56
631.188	0.56
631.52	0.56
631.852	0.56
632.184	0.55
632.516	0.55
632.848	0.54
633.18	0.55
633.512	0.54
633.844	0.54
634.175	0.53
634.507	0.53
634.839	0.53
635.17	0.52
635.502	0.52
635.833	0.52
636.165	0.51
636.496	0.51
636.827	0.51
637.159	0.51
637.49	0.5
637.821	0.5
638.152	0.49
638.483	0.49
638.814	0.49
639.145	0.48
639.476	0.48
639.807	0.48
640.137	0.47
640.468	0.47
640.799	0.47
641.129	0.46
641.46	0.46
641.791	0.45
642.121	0.45
642.451	0.45
642.782	0.45
643.112	0.45
643.442	0.45
643.773	0.44
644.103	0.44
644.433	0.44
644.763	0.44
645.093	0.43
645.423	0.43
645.753	0.43
646.082	0.43
646.412	0.43
646.742	0.43
647.072	0.42
647.401	0.42
647.731	0.42
648.06	0.41
648.39	0.41
648.719	0.41
649.048	0.41
649.378	0.41
649.707	0.41
650.036	0.4
650.365	0.4
650.694	0.4
651.023	0.4
651.352	0.4
651.681	0.4
652.01	0.4
652.339	0.39
652.668	0.39
652.996	0.39
653.325	0.39
653.654	0.39
653.982	0.38
654.311	0.38
654.639	0.39
654.967	0.38
655.296	0.38
655.624	0.38
655.952	0.38
656.28	0.38
656.609	0.38
656.937	0.37
657.265	0.36
657.593	0.22
657.92	0.13
658.248	0.11
658.576	0.18
658.904	0.31
659.231	0.36
659.559	0.37
659.887	0.37
660.214	0.36
660.542	0.36
660.869	0.36
661.196	0.36
661.524	0.36
661.851	0.35
662.178	0.35
662.505	0.35
662.832	0.35
663.159	0.35
663.486	0.35
663.813	0.35
664.14	0.34
664.467	0.34
664.794	0.34
665.12	0.34
665.447	0.34
665.774	0.34
666.1	0.33
666.427	0.34
666.753	0.33
667.079	0.33
667.406	0.33
667.732	0.33
668.058	0.32
668.384	0.32
668.71	0.32
669.036	0.32
669.362	0.32
669.688	0.31
670.014	0.31
670.34	0.31
670.666	0.31
670.991	0.31
671.317	0.3
671.643	0.3
671.968	0.3
672.294	0.3
672.619	0.3
672.945	0.3
673.27	0.29
673.595	0.29
673.92	0.28
674.246	0.28
674.571	0.29
674.896	0.28
675.221	0.28
675.546	0.28
675.87	0.28
676.195	0.27
676.52	0.27
676.845	0.27
677.169	0.27
677.494	0.27
677.819	0.26
678.143	0.26
678.468	0.26
678.792	0.26
679.116	0.25
679.44	0.25
679.765	0.25
680.089	0.24
680.413	0.24
680.737	0.24
681.061	0.23
681.385	0.23
681.709	0.23
682.033	0.23
682.356	0.23
682.68	0.23
683.004	0.23
683.327	0.22
683.651	0.22
683.974	0.22
684.298	0.22
684.621	0.21
684.944	0.21
685.268	0.21
685.591	0.21
685.914	0.2
686.237	0.2
686.56	0.2
686.883	0.19
687.206	0.19
687.529	0.19
687.852	0.19
688.175	0.19
688.497	0.19
688.82	0.19
689.142	0.18
689.465	0.18
689.787	0.18
690.11	0.18
690.432	0.17
690.755	0.17
691.077	0.17
691.399	0.17
691.721	0.17
692.043	0.17
692.365	0.16
692.687	0.16
693.009	0.15
693.331	0.15
693.653	0.15
693.974	0.15
694.296	0.15
694.618	0.15
694.939	0.15
695.261	0.15
695.582	0.15
695.904	0.14
696.225	0.14
696.546	0.14
696.868	0.14
697.189	0.14
697.51	0.14
697.831	0.14
698.152	0.14
698.473	0.13
698.794	0.13
699.114	0.13
699.435	0.12
699.756	0.13
700.077	0.13
700.397	0.13
700.718	0.12
701.038	0.13
701.359	0.13
701.679	0.12
701.999	0.13
702.32	0.12
702.64	0.12
702.96	0.12
703.28	0.12
703.6	0.12
703.92	0.12
704.24	0.12
704.56	0.12
704.879	0.12
705.199	0.12
705.519	0.12
705.838	0.12
706.158	0.12
706.478	0.11
706.797	0.12
707.116	0.11
707.436	0.12
707.755	0.11
708.074	0.11
708.393	0.11
708.712	0.1
709.031	0.1
709.35	0.1
709.669	0.1
709.988	0.1
710.307	0.1
710.626	0.1
710.944	0.11
711.263	0.11
711.582	0.11
711.9	0.11
712.219	0.11
712.537	0.11
712.855	0.11
713.174	0.11
713.492	0.11
713.81	0.11
714.128	0.11
714.446	0.11
714.764	0.1
715.082	0.1
715.4	0.11
715.718	0.11
716.035	0.1
716.353	0.11
716.671	0.11
716.988	0.11
717.306	0.1
717.623	0.11
717.941	0.11
718.258	0.11
718.575	0.11
718.893	0.11
719.21	0.11
719.527	0.11
719.844	0.11
720.161	0.11
720.478	0.11
720.795	0.11
721.112	0.11
721.428	0.11
721.745	0.11
722.062	0.11
722.378	0.11
722.695	0.11
723.011	0.11
723.328	0.11
723.644	0.11
723.96	0.11
724.276	0.11
724.593	0.11
724.909	0.12
725.225	0.11
725.541	0.11
725.857	0.11
726.173	0.11
726.488	0.12
726.804	0.11
727.12	0.12
727.435	0.11
727.751	0.11
728.067	0.11
728.382	0.11
728.697	0.11
729.013	0.11
729.328	0.11
729.643	0.11
729.958	0.11
730.273	0.11
730.588	0.11
730.903	0.11
731.218	0.11
731.533	0.11
731.848	0.11
732.163	0.11
732.477	0.11
732.792	0.11
733.107	0.1
733.421	0.11
733.736	0.11
734.05	0.11
734.364	0.11
734.678	0.11
734.993	0.11
735.307	0.11
735.621	0.1
735.935	0.1
736.249	0.11
736.563	0.11
736.877	0.11
737.19	0.11
737.504	0.11
737.818	0.11
738.131	0.1
738.445	0.1
738.758	0.1
739.072	0.1
739.385	0.1
739.698	0.1
740.012	0.11
740.325	0.1
740.638	0.1
740.951	0.1
741.264	0.1
741.577	0.1
741.89	0.1
742.203	0.1
742.515	0.1
742.828	0.1
743.141	0.1
743.453	0.09
743.766	0.09
744.078	0.09
744.391	0.09
744.703	0.09
745.015	0.09
745.327	0.09
745.639	0.09
745.952	0.09
746.264	0.09
746.575	0.09
746.887	0.08
747.199	0.09
747.511	0.09
747.823	0.09
748.134	0.08
748.446	0.08
748.757	0.08
749.069	0.08
749.38	0.08
749.692	0.08
750.003	0.08
750.314	0.08
750.625	0.08
750.936	0.07
751.248	0.07
751.559	0.07
751.869	0.07
752.18	0.07
752.491	0.07
752.802	0.07
753.112	0.07
753.423	0.07
753.734	0.07
754.044	0.07
754.355	0.07
754.665	0.07
754.975	0.07
755.285	0.06
755.596	0.07
755.906	0.07
756.216	0.07
756.526	0.06
756.836	0.06
757.146	0.06
757.455	0.06
757.765	0.06
758.075	0.06
758.385	0.06
758.694	0.06
759.004	0.06
759.313	0.06
759.622	0.06
759.932	0.06
760.241	0.06
760.55	0.06
760.859	0.06
761.168	0.06
761.477	0.06
761.786	0.06
762.095	0.06
762.404	0.06
762.713	0.06
763.021	0.06
763.33	0.06
763.639	0.06
763.947	0.06
764.256	0.06
764.564	0.06
764.872	0.05
765.181	0.06
765.489	0.05
765.797	0.05
766.105	0.05
766.413	0.05
766.721	0.06
767.029	0.06
767.337	0.06
767.644	0.06
767.952	0.06
768.26	0.06
768.567	0.05
768.875	0.05
769.182	0.05
769.49	0.05
769.797	0.05
770.104	0.05
770.411	0.05
770.718	0.05
771.026	0.05
771.333	0.05
771.639	0.06
771.946	0.06
772.253	0.06
772.56	0.06
772.867	0.06
773.173	0.06
773.48	0.06
773.786	0.05
774.093	0.06
774.399	0.06
774.705	0.06
775.012	0.06
775.318	0.06
775.624	0.05
775.93	0.05
776.236	0.05
776.542	0.05
776.848	0.06
777.154	0.05
777.459	0.06
777.765	0.05
778.071	0.06
778.376	0.06
778.682	0.06
778.987	0.06
779.292	0.06
779.598	0.05
779.903	0.06
780.208	0.06
780.513	0.06
780.818	0.06
781.123	0.06
781.428	0.06
781.733	0.06
782.038	0.06
782.343	0.06
782.647	0.06
782.952	0.06
783.256	0.06
783.561	0.06
783.865	0.06
784.17	0.06
784.474	0.06
784.778	0.06
785.082	0.06
785.386	0.06
785.69	0.06
785.994	0.06
786.298	0.06
786.602	0.06
786.906	0.06
787.209	0.06
787.513	0.06
787.817	0.06
788.12	0.06
788.424	0.06
788.727	0.06
789.03	0.06
789.333	0.06
789.637	0.06
789.94	0.06
790.243	0.06
790.546	0.06
790.849	0.06
791.152	0.06
791.454	0.06
791.757	0.06
792.06	0.06
792.362	0.07
792.665	0.07
792.967	0.06
793.27	0.07
793.572	0.06
793.874	0.06
794.177	0.07
794.479	0.06
794.781	0.07
795.083	0.06
795.385	0.07
795.687	0.07
795.989	0.07
796.29	0.07
796.592	0.07
796.894	0.07
797.195	0.07
797.497	0.07
797.798	0.07
798.1	0.07
798.401	0.07
798.702	0.07
799.003	0.07
799.304	0.07
799.605	0.07
799.906	0.07
800.207	0.07
800.508	0.07
800.809	0.07
801.11	0.07
801.41	0.07
801.711	0.08
802.011	0.07
802.312	0.07
802.612	0.07
802.913	0.07
803.213	0.07
803.513	0.08
803.813	0.07
804.113	0.07
804.413	0.08
804.713	0.07
805.013	0.08
805.313	0.08
805.613	0.08
805.912	0.08
806.212	0.08
806.511	0.08
806.811	0.07
807.11	0.08
807.41	0.08
807.709	0.08
808.008	0.08
808.307	0.08
808.606	0.08
808.905	0.08
809.204	0.08
809.503	0.08
809.802	0.08
810.101	0.08
810.399	0.09
810.698	0.08
810.997	0.08
811.295	0.08
811.593	0.08
811.892	0.09
812.19	0.09
812.488	0.09
812.786	0.09
813.084	0.09
813.383	0.09
813.68	0.09
813.978	0.09
814.276	0.09
814.574	0.09
814.872	0.09
815.169	0.09
815.467	0.09
815.764	0.09
816.062	0.09
816.359	0.09
816.656	0.1
816.954	0.09
817.251	0.09
817.548	0.1
817.845	0.09
818.142	0.09
818.439	0.09
818.735	0.1
819.032	0.1
819.329	0.1
819.626	0.09
819.922	0.1
820.219	0.1
820.515	0.1
820.811	0.1
821.108	0.1
821.404	0.09
821.7	0.1
821.996	0.09
822.292	0.1
822.588	0.1
822.884	0.1
823.18	0.1
823.475	0.09
823.771	0.1
824.067	0.1
824.362	0.1
824.658	0.1
824.953	0.1
825.249	0.1
825.544	0.1
825.839	0.1
826.134	0.11
826.429	0.1
826.724	0.1
827.019	0.1
827.314	0.1
827.609	0.11
827.904	0.1
828.198	0.11
828.493	0.1
828.787	0.1
829.082	0.11
829.376	0.1
829.671	0.11
829.965	0.11
830.259	0.11
830.553	0.11
830.847	0.11
831.141	0.11
831.435	0.11
831.729	0.11
832.023	0.12
832.317	0.12
832.61	0.11
832.904	0.11
833.197	0.11
833.491	0.11
833.784	0.11
834.077	0.11
834.371	0.11
834.664	0.11
834.957	0.11
835.25	0.12
835.543	0.11
835.836	0.12
836.129	0.11
836.421	0.12
836.714	0.12
837.007	0.12
837.299	0.12
837.592	0.13
837.884	0.12
838.177	0.12
838.469	0.13
838.761	0.12
839.053	0.12
839.345	0.12
839.637	0.12
839.929	0.12
840.221	0.12
840.513	0.13
840.805	0.12
841.096	0.12
841.388	0.12
841.68	0.13
841.971	0.12
842.262	0.13
842.554	0.12
842.845	0.12
843.136	0.14
843.427	0.13
843.718	0.13
844.009	0.13
844.3	0.13
844.591	0.13
844.882	0.13
845.173	0.13
845.463	0.13
845.754	0.13
846.044	0.12
846.335	0.12
846.625	0.13
846.915	0.12
847.206	0.13
847.496	0.13
847.786	0.13
848.076	0.14
848.366	0.13
848.656	0.14
848.945	0.15
849.235	0.13
849.525	0.14
849.814	0.13
850.104	0.14
850.393	0.13
850.683	0.14
850.972	0.14
851.261	0.13
851.551	0.15
851.84	0.13
852.129	0.13
852.418	0.12
852.707	0.13
852.995	0.13
853.284	0.14
853.573	0.14
853.862	0.14
854.15	0.16
854.439	0.14
854.727	0.15
855.015	0.15
855.304	0.15
855.592	0.14
855.88	0.14
856.168	0.14
856.456	0.15
856.744	0.14
857.032	0.14
857.32	0.15
857.607	0.16
857.895	0.15
858.183	0.14
858.47	0.16
858.757	0.15
859.045	0.15
859.332	0.16
859.619	0.14
859.907	0.14
860.194	0.16
860.481	0.16
860.768	0.15
861.054	0.16
861.341	0.15
861.628	0.14
861.915	0.15
862.201	0.17
862.488	0.14
862.774	0.15
863.061	0.16
863.347	0.17
863.633	0.16
863.919	0.15
864.205	0.15
864.491	0.14
864.777	0.13
865.063	0.15
865.349	0.15
865.635	0.11
865.92	0.13
866.206	0.15
866.492	0.14
866.777	0.15
867.062	0.14
867.348	0.16
867.633	0.16
867.918	0.16
868.203	0.17
868.488	0.15
868.773	0.18
869.058	0.14
869.343	0.17
869.628	0.17
869.912	0.18
870.197	0.17
870.482	0.21
870.766	0.12
871.05	0.18
871.335	0.14
871.619	0.14
871.903	0.13
872.187	0.21
872.471	0.14
872.755	0.17
873.039	0.12
873.323	0.12
873.607	0.17
873.89	0.14
874.174	0.08
874.458	0.11
874.741	0.23
875.024	0.24
875.308	0.15
875.591	0.11
875.874	0.11
876.157	0.15
876.44	0.06
876.723	0.11
877.006	0.16
877.289	0.13
877.572	0.21
877.854	0.1
878.137	0.17
878.42	0.12
878.702	0.16
878.984	0.15
879.267	0.13
879.549	0.22
879.831	0.13
880.113	0.08
880.395	0.11
880.677	0.14
880.959	0.08
