Data from Rubpy_BV_1800_EDTA_Buffered_Absorbance_16-41-22-534.txt Node
Date: Wed Jul 01 16:41:22 BST 2026
User: fpm-admin
Spectrometer: OFX00224
Trigger mode: 0
Integration Time (sec): 7.000000E-2
Scans to average: 3
Nonlinearity correction enabled: false
Boxcar width: 0
Storing dark spectrum: false
XAxis mode: Wavelengths
Number of Pixels in Spectrum: 2136
>>>>>Begin Spectral Data<<<<<
154.91	1.59
155.289	-0.39
155.669	-0
156.048	0.35
156.428	-0
156.807	0.16
157.186	-0.7
157.566	0.07
157.945	-0
158.325	0.2
158.704	0.03
159.083	-0.26
159.462	0.12
159.842	-0.16
160.221	-0
160.6	-0
160.979	-0
161.359	-0.19
161.738	-0.5
162.117	0.3
162.496	-0
162.875	-0.23
163.254	0.14
163.633	0.54
164.012	0.18
164.391	0.59
164.77	0.02
165.149	-0.7
165.528	-0
165.907	-0.06
166.286	0.09
166.665	0.62
167.044	0.13
167.423	0.03
167.802	-0.16
168.181	-1.41
168.559	-0.48
168.938	-0
169.317	0.28
169.696	-1.26
170.074	-0
170.453	-0
170.832	-1.4
171.21	-0.01
171.589	-0
171.968	0.23
172.346	-0.08
172.725	-0
173.103	1.18
173.482	-0
173.861	0.52
174.239	-0
174.617	-0.3
174.996	0.72
175.374	-0.45
175.753	-0.4
176.131	0.2
176.51	0.15
176.888	0.17
177.266	1.57
177.645	-0.11
178.023	1.86
178.401	-0.04
178.779	-0.1
179.158	-0.11
179.536	0.1
179.914	0.56
180.292	0.02
180.67	-0.31
181.048	0.22
181.427	0.2
181.805	-0
182.183	-0.06
182.561	-0
182.939	-0.2
183.317	-0.56
183.695	0.23
184.073	-0
184.451	-0.75
184.829	-0
185.206	-0.32
185.584	0.03
185.962	-0.41
186.34	-0.37
186.718	0.16
187.096	-0
187.473	1
187.851	-0.3
188.229	-0.27
188.607	0.09
188.984	0.12
189.362	0.04
189.74	0.24
190.117	0.06
190.495	0.21
190.872	0.14
191.25	0.14
191.627	0.13
192.005	0.19
192.382	0.09
192.76	0.24
193.137	-0.01
193.515	0.15
193.892	0.11
194.269	0.18
194.647	0.08
195.024	0.05
195.401	0.16
195.779	0.1
196.156	0.14
196.533	0.05
196.91	0.06
197.288	0.2
197.665	0.08
198.042	0.04
198.419	0.17
198.796	0.05
199.173	0.17
199.55	0.14
199.927	0.08
200.304	0.08
200.681	0.07
201.058	0.03
201.435	0.15
201.812	-0
202.189	0.11
202.566	0.14
202.943	0.04
203.32	0.07
203.697	0.16
204.073	-0.06
204.45	0.18
204.827	0.1
205.204	0.1
205.58	0.19
205.957	0.12
206.334	0.05
206.71	0.13
207.087	0.07
207.464	0.14
207.84	0.12
208.217	0.09
208.593	0.07
208.97	0.12
209.346	0.21
209.723	0.05
210.099	0.12
210.476	0.21
210.852	0.22
211.228	0.24
211.605	0.06
211.981	0.19
212.357	0.29
212.733	0.06
213.11	0.15
213.486	0.17
213.862	0.11
214.238	0.07
214.614	0.17
214.991	0.13
215.367	0.21
215.743	0.13
216.119	0.13
216.495	0.1
216.871	0.05
217.247	0.1
217.623	0.12
217.999	0.16
218.375	0.14
218.751	0.1
219.127	0.1
219.502	0.12
219.878	0.05
220.254	0.13
220.63	0.22
221.006	0.11
221.381	0.24
221.757	0.17
222.133	0.03
222.508	0.13
222.884	0.1
223.26	0.14
223.635	0.05
224.011	0.15
224.386	0.22
224.762	0.27
225.137	0.17
225.513	0.13
225.888	0.09
226.264	0.08
226.639	0.11
227.014	0.18
227.39	0.11
227.765	0.13
228.14	0.14
228.516	0.07
228.891	0.14
229.266	0.11
229.641	0.2
230.017	0.22
230.392	0.19
230.767	0.09
231.142	0.13
231.517	0.07
231.892	0.19
232.267	0.17
232.642	0.16
233.017	0.11
233.392	0.18
233.767	0.15
234.142	0.12
234.517	0.02
234.892	0.22
235.267	0.14
235.641	0.14
236.016	0.06
236.391	0.13
236.766	0.1
237.14	0.14
237.515	0.27
237.89	0.13
238.264	0.15
238.639	0.12
239.014	0.25
239.388	0.08
239.763	0.12
240.137	-0.06
240.512	0.1
240.886	0.17
241.261	0.04
241.635	0.12
242.009	0.26
242.384	0.11
242.758	0.13
243.132	0.1
243.507	0.13
243.881	0.12
244.255	0.1
244.629	0.02
245.004	0.16
245.378	0.22
245.752	0.15
246.126	0.1
246.5	0.25
246.874	0.05
247.248	0.12
247.622	0.12
247.996	0.18
248.37	0.16
248.744	0.15
249.118	0.01
249.492	0.05
249.866	0.11
250.24	0.14
250.613	0.25
250.987	0.16
251.361	0.18
251.735	0.15
252.108	0.22
252.482	0.18
252.856	0.02
253.229	0.12
253.603	0.09
253.977	0.17
254.35	0.11
254.724	0.2
255.097	0.15
255.471	0.03
255.844	0.15
256.218	0.05
256.591	0.11
256.964	0.18
257.338	0.12
257.711	0.07
258.084	0.05
258.458	0.14
258.831	0.21
259.204	0.16
259.577	0.13
259.95	0.12
260.323	0.08
260.697	0.14
261.07	0.06
261.443	0.25
261.816	0.09
262.189	0.13
262.562	0.14
262.935	0.1
263.308	0.06
263.68	0.13
264.053	0.16
264.426	0.08
264.799	0.09
265.172	0.15
265.545	0.12
265.917	0.19
266.29	0.16
266.663	0.09
267.035	0.2
267.408	0.15
267.781	0.21
268.153	0.05
268.526	0.11
268.898	0.17
269.271	0.16
269.643	0.12
270.016	0.19
270.388	0.05
270.76	0.15
271.133	0.09
271.505	0.15
271.877	0.04
272.25	0.15
272.622	0.16
272.994	0.17
273.366	0.12
273.739	0.08
274.111	0.13
274.483	0.09
274.855	0.12
275.227	0.21
275.599	0.15
275.971	0.09
276.343	0.12
276.715	0.09
277.087	0.1
277.459	0.1
277.831	0.12
278.203	0.13
278.574	0.12
278.946	0.09
279.318	0.06
279.69	0.16
280.061	0.12
280.433	0.07
280.805	0.13
281.176	0.16
281.548	0.12
281.92	0.16
282.291	0.07
282.663	0.12
283.034	0.02
283.406	0.18
283.777	0.17
284.148	0.12
284.52	0.14
284.891	0.09
285.262	0.16
285.634	0.13
286.005	0.11
286.376	0.21
286.747	0.1
287.119	0.12
287.49	0.2
287.861	0.1
288.232	0.15
288.603	0.19
288.974	0.12
289.345	0.1
289.716	0.09
290.087	0.17
290.458	0.14
290.829	0.18
291.2	0.12
291.571	0.12
291.941	0.13
292.312	0.09
292.683	0.13
293.054	0.12
293.424	0.1
293.795	0.15
294.166	0.1
294.536	0.13
294.907	0.1
295.277	0.17
295.648	0.18
296.018	0.15
296.389	0.07
296.759	0.08
297.13	0.14
297.5	0.12
297.871	0.13
298.241	0.16
298.611	0.1
298.981	0.11
299.352	0.11
299.722	0.11
300.092	0.09
300.462	0.15
300.832	0.11
301.202	0.1
301.573	0.13
301.943	0.08
302.313	0.09
302.683	0.16
303.053	0.15
303.422	0.09
303.792	0.14
304.162	0.11
304.532	0.17
304.902	0.16
305.272	0.1
305.641	0.13
306.011	0.1
306.381	0.15
306.75	0.18
307.12	0.08
307.49	0.08
307.859	0.09
308.229	0.12
308.598	0.13
308.968	0.09
309.337	0.1
309.707	0.07
310.076	0.08
310.445	0.1
310.815	0.09
311.184	0.09
311.553	0.1
311.923	0.08
312.292	0.08
312.661	0.09
313.03	0.08
313.399	0.1
313.768	0.07
314.137	0.08
314.506	0.07
314.875	0.07
315.244	0.07
315.613	0.08
315.982	0.08
316.351	0.08
316.72	0.08
317.089	0.08
317.458	0.08
317.826	0.07
318.195	0.08
318.564	0.08
318.933	0.09
319.301	0.09
319.67	0.07
320.038	0.07
320.407	0.09
320.775	0.08
321.144	0.08
321.512	0.08
321.881	0.08
322.249	0.08
322.618	0.09
322.986	0.09
323.354	0.08
323.723	0.08
324.091	0.09
324.459	0.1
324.827	0.09
325.195	0.09
325.564	0.1
325.932	0.1
326.3	0.1
326.668	0.1
327.036	0.1
327.404	0.11
327.772	0.1
328.14	0.1
328.508	0.1
328.875	0.1
329.243	0.1
329.611	0.09
329.979	0.11
330.346	0.1
330.714	0.1
331.082	0.11
331.449	0.11
331.817	0.11
332.185	0.11
332.552	0.1
332.92	0.11
333.287	0.12
333.655	0.12
334.022	0.12
334.389	0.12
334.757	0.12
335.124	0.13
335.491	0.13
335.859	0.13
336.226	0.13
336.593	0.13
336.96	0.14
337.327	0.13
337.695	0.14
338.062	0.15
338.429	0.15
338.796	0.15
339.163	0.15
339.53	0.16
339.897	0.16
340.263	0.17
340.63	0.16
340.997	0.16
341.364	0.17
341.731	0.17
342.097	0.17
342.464	0.18
342.831	0.18
343.197	0.18
343.564	0.19
343.931	0.19
344.297	0.19
344.664	0.19
345.03	0.2
345.396	0.2
345.763	0.2
346.129	0.2
346.496	0.21
346.862	0.21
347.228	0.21
347.594	0.22
347.961	0.23
348.327	0.22
348.693	0.23
349.059	0.23
349.425	0.24
349.791	0.23
350.157	0.24
350.523	0.25
350.889	0.25
351.255	0.25
351.621	0.25
351.987	0.25
352.353	0.25
352.719	0.26
353.084	0.26
353.45	0.26
353.816	0.26
354.181	0.27
354.547	0.28
354.913	0.27
355.278	0.28
355.644	0.28
356.009	0.29
356.375	0.29
356.74	0.3
357.106	0.3
357.471	0.3
357.836	0.31
358.202	0.32
358.567	0.31
358.932	0.33
359.297	0.33
359.663	0.33
360.028	0.34
360.393	0.34
360.758	0.35
361.123	0.35
361.488	0.36
361.853	0.37
362.218	0.37
362.583	0.37
362.948	0.38
363.312	0.38
363.677	0.38
364.042	0.39
364.407	0.4
364.772	0.41
365.136	0.4
365.501	0.41
365.865	0.41
366.23	0.42
366.595	0.41
366.959	0.42
367.324	0.43
367.688	0.43
368.052	0.44
368.417	0.44
368.781	0.44
369.145	0.45
369.51	0.46
369.874	0.46
370.238	0.46
370.602	0.47
370.967	0.47
371.331	0.48
371.695	0.48
372.059	0.48
372.423	0.48
372.787	0.48
373.151	0.48
373.515	0.48
373.878	0.47
374.242	0.48
374.606	0.47
374.97	0.46
375.334	0.47
375.697	0.46
376.061	0.46
376.425	0.46
376.788	0.46
377.152	0.46
377.515	0.44
377.879	0.44
378.242	0.43
378.606	0.43
378.969	0.43
379.333	0.42
379.696	0.42
380.059	0.42
380.422	0.41
380.786	0.41
381.149	0.41
381.512	0.4
381.875	0.4
382.238	0.4
382.601	0.39
382.964	0.39
383.327	0.39
383.69	0.39
384.053	0.39
384.416	0.38
384.779	0.39
385.142	0.38
385.504	0.39
385.867	0.39
386.23	0.39
386.593	0.39
386.955	0.4
387.318	0.39
387.68	0.4
388.043	0.4
388.405	0.4
388.768	0.4
389.13	0.41
389.493	0.41
389.855	0.41
390.217	0.4
390.58	0.4
390.942	0.4
391.304	0.4
391.666	0.4
392.028	0.39
392.391	0.39
392.753	0.38
393.115	0.38
393.477	0.37
393.839	0.37
394.201	0.38
394.563	0.37
394.924	0.37
395.286	0.37
395.648	0.38
396.01	0.38
396.371	0.39
396.733	0.39
397.095	0.4
397.456	0.41
397.818	0.43
398.18	0.44
398.541	0.45
398.903	0.46
399.264	0.47
399.625	0.48
399.987	0.49
400.348	0.51
400.709	0.52
401.071	0.51
401.432	0.52
401.793	0.52
402.154	0.51
402.515	0.51
402.876	0.5
403.238	0.49
403.599	0.48
403.96	0.46
404.32	0.45
404.681	0.43
405.042	0.41
405.403	0.39
405.764	0.37
406.125	0.36
406.485	0.34
406.846	0.32
407.207	0.29
407.567	0.28
407.928	0.27
408.288	0.24
408.649	0.24
409.009	0.22
409.37	0.21
409.73	0.2
410.091	0.18
410.451	0.18
410.811	0.16
411.171	0.16
411.532	0.14
411.892	0.14
412.252	0.13
412.612	0.13
412.972	0.12
413.332	0.11
413.692	0.11
414.052	0.1
414.412	0.1
414.772	0.1
415.132	0.1
415.492	0.09
415.851	0.09
416.211	0.08
416.571	0.09
416.931	0.09
417.29	0.08
417.65	0.07
418.009	0.07
418.369	0.07
418.728	0.07
419.088	0.07
419.447	0.07
419.807	0.07
420.166	0.06
420.525	0.06
420.884	0.06
421.244	0.05
421.603	0.06
421.962	0.05
422.321	0.06
422.68	0.06
423.039	0.05
423.398	0.05
423.757	0.05
424.116	0.05
424.475	0.05
424.834	0.04
425.193	0.05
425.551	0.05
425.91	0.04
426.269	0.05
426.628	0.04
426.986	0.04
427.345	0.04
427.703	0.04
428.062	0.05
428.42	0.05
428.779	0.05
429.137	0.05
429.496	0.04
429.854	0.05
430.212	0.04
430.57	0.04
430.929	0.04
431.287	0.04
431.645	0.04
432.003	0.04
432.361	0.04
432.719	0.04
433.077	0.04
433.435	0.03
433.793	0.04
434.151	0.03
434.509	0.05
434.866	0.04
435.224	0.04
435.582	0.04
435.94	0.04
436.297	0.04
436.655	0.04
437.012	0.03
437.37	0.03
437.727	0.03
438.085	0.04
438.442	0.03
438.8	0.04
439.157	0.03
439.514	0.04
439.872	0.03
440.229	0.03
440.586	0.03
440.943	0.04
441.3	0.04
441.657	0.04
442.014	0.04
442.371	0.03
442.728	0.03
443.085	0.03
443.442	0.03
443.799	0.03
444.156	0.03
444.513	0.03
444.869	0.02
445.226	0.03
445.583	0.03
445.939	0.03
446.296	0.01
446.652	0.03
447.009	0.02
447.365	0.03
447.722	0.03
448.078	0.03
448.434	0.03
448.791	0.03
449.147	0.02
449.503	0.02
449.859	0.02
450.215	0.02
450.571	0.03
450.928	0.02
451.284	0.01
451.64	0.02
451.995	0.01
452.351	0.01
452.707	0.02
453.063	0.02
453.419	0.01
453.775	0.01
454.13	0
454.486	0.01
454.842	0.01
455.197	0
455.553	-0.01
455.908	-0
456.264	-0.01
456.619	-0
456.975	-0
457.33	-0.01
457.685	-0.01
458.04	-0.02
458.396	-0.01
458.751	-0.02
459.106	-0.03
459.461	-0.02
459.816	-0.03
460.171	-0.04
460.526	-0.03
460.881	-0.04
461.236	-0.04
461.591	-0.05
461.946	-0.05
462.301	-0.04
462.655	-0.05
463.01	-0.06
463.365	-0.06
463.719	-0.07
464.074	-0.08
464.428	-0.08
464.783	-0.08
465.137	-0.09
465.492	-0.08
465.846	-0.08
466.201	-0.08
466.555	-0.08
466.909	-0.08
467.263	-0.07
467.618	-0.07
467.972	-0.07
468.326	-0.08
468.68	-0.08
469.034	-0.09
469.388	-0.09
469.742	-0.08
470.096	-0.08
470.45	-0.08
470.804	-0.08
471.157	-0.08
471.511	-0.08
471.865	-0.08
472.218	-0.08
472.572	-0.07
472.926	-0.07
473.279	-0.06
473.633	-0.05
473.986	-0.05
474.34	-0.06
474.693	-0.04
475.046	-0.03
475.4	-0.04
475.753	-0.03
476.106	-0.02
476.459	-0.02
476.812	-0.01
477.165	-0.01
477.519	-0.01
477.872	0
478.224	0
478.577	0.01
478.93	0.01
479.283	0.02
479.636	0.01
479.989	0.02
480.341	0.02
480.694	0.03
481.047	0.03
481.399	0.03
481.752	0.04
482.104	0.04
482.457	0.04
482.809	0.05
483.162	0.04
483.514	0.05
483.866	0.05
484.219	0.05
484.571	0.05
484.923	0.05
485.275	0.05
485.627	0.05
485.979	0.06
486.331	0.06
486.683	0.06
487.035	0.07
487.387	0.07
487.739	0.07
488.091	0.07
488.443	0.08
488.794	0.08
489.146	0.08
489.498	0.08
489.849	0.08
490.201	0.08
490.552	0.08
490.904	0.08
491.255	0.08
491.607	0.09
491.958	0.09
492.309	0.09
492.661	0.09
493.012	0.09
493.363	0.09
493.714	0.09
494.065	0.09
494.416	0.09
494.767	0.09
495.118	0.09
495.469	0.1
495.82	0.1
496.171	0.1
496.522	0.1
496.872	0.1
497.223	0.1
497.574	0.1
497.924	0.11
498.275	0.11
498.626	0.11
498.976	0.11
499.327	0.11
499.677	0.11
500.027	0.12
500.378	0.12
500.728	0.11
501.078	0.12
501.428	0.12
501.779	0.13
502.129	0.12
502.479	0.12
502.829	0.13
503.179	0.13
503.529	0.12
503.879	0.13
504.229	0.13
504.578	0.13
504.928	0.12
505.278	0.13
505.628	0.13
505.977	0.13
506.327	0.13
506.676	0.14
507.026	0.13
507.375	0.14
507.725	0.14
508.074	0.14
508.424	0.14
508.773	0.14
509.122	0.14
509.471	0.14
509.82	0.14
510.17	0.15
510.519	0.14
510.868	0.14
511.217	0.15
511.566	0.15
511.915	0.15
512.263	0.15
512.612	0.15
512.961	0.15
513.31	0.15
513.659	0.15
514.007	0.16
514.356	0.16
514.704	0.15
515.053	0.16
515.401	0.16
515.75	0.15
516.098	0.16
516.447	0.16
516.795	0.16
517.143	0.16
517.491	0.16
517.839	0.16
518.188	0.17
518.536	0.17
518.884	0.17
519.232	0.17
519.58	0.16
519.928	0.17
520.275	0.17
520.623	0.17
520.971	0.17
521.319	0.17
521.666	0.17
522.014	0.17
522.362	0.17
522.709	0.17
523.057	0.18
523.404	0.18
523.752	0.18
524.099	0.17
524.446	0.18
524.794	0.18
525.141	0.18
525.488	0.18
525.835	0.18
526.182	0.18
526.529	0.18
526.876	0.18
527.223	0.18
527.57	0.19
527.917	0.18
528.264	0.19
528.611	0.19
528.958	0.19
529.304	0.19
529.651	0.19
529.998	0.19
530.344	0.19
530.691	0.2
531.037	0.19
531.384	0.2
531.73	0.19
532.076	0.2
532.423	0.2
532.769	0.2
533.115	0.19
533.461	0.2
533.807	0.19
534.154	0.2
534.5	0.19
534.846	0.2
535.192	0.2
535.537	0.2
535.883	0.2
536.229	0.2
536.575	0.2
536.921	0.21
537.266	0.21
537.612	0.2
537.957	0.2
538.303	0.2
538.649	0.2
538.994	0.21
539.339	0.21
539.685	0.21
540.03	0.21
540.375	0.21
540.721	0.21
541.066	0.21
541.411	0.21
541.756	0.21
542.101	0.21
542.446	0.21
542.791	0.21
543.136	0.21
543.481	0.21
543.825	0.21
544.17	0.21
544.515	0.21
544.86	0.22
545.204	0.22
545.549	0.21
545.893	0.22
546.238	0.21
546.582	0.22
546.927	0.22
547.271	0.22
547.615	0.22
547.96	0.22
548.304	0.22
548.648	0.22
548.992	0.22
549.336	0.22
549.68	0.22
550.024	0.22
550.368	0.22
550.712	0.22
551.056	0.22
551.4	0.22
551.743	0.22
552.087	0.22
552.431	0.22
552.774	0.23
553.118	0.22
553.462	0.22
553.805	0.22
554.148	0.22
554.492	0.22
554.835	0.22
555.178	0.22
555.522	0.22
555.865	0.22
556.208	0.22
556.551	0.22
556.894	0.22
557.237	0.22
557.58	0.23
557.923	0.22
558.266	0.23
558.609	0.22
558.952	0.22
559.294	0.22
559.637	0.23
559.98	0.22
560.322	0.23
560.665	0.22
561.007	0.22
561.35	0.22
561.692	0.23
562.034	0.23
562.377	0.23
562.719	0.23
563.061	0.22
563.403	0.23
563.745	0.22
564.088	0.23
564.43	0.22
564.772	0.22
565.113	0.23
565.455	0.23
565.797	0.22
566.139	0.22
566.481	0.23
566.822	0.23
567.164	0.23
567.506	0.23
567.847	0.23
568.189	0.22
568.53	0.22
568.872	0.23
569.213	0.22
569.554	0.22
569.895	0.22
570.237	0.22
570.578	0.22
570.919	0.22
571.26	0.22
571.601	0.22
571.942	0.22
572.283	0.21
572.624	0.22
572.965	0.22
573.306	0.22
573.646	0.22
573.987	0.22
574.328	0.22
574.668	0.21
575.009	0.21
575.349	0.21
575.69	0.21
576.03	0.21
576.37	0.21
576.711	0.21
577.051	0.21
577.391	0.21
577.731	0.22
578.072	0.21
578.412	0.21
578.752	0.21
579.092	0.21
579.431	0.2
579.771	0.19
580.111	0.19
580.451	0.2
580.791	0.21
581.13	0.21
581.47	0.21
581.81	0.21
582.149	0.21
582.489	0.21
582.828	0.2
583.167	0.18
583.507	0.15
583.846	0.15
584.185	0.18
584.525	0.2
584.864	0.2
585.203	0.21
585.542	0.21
585.881	0.21
586.22	0.21
586.559	0.2
586.898	0.2
587.236	0.19
587.575	0.2
587.914	0.2
588.252	0.21
588.591	0.21
588.93	0.21
589.268	0.2
589.607	0.21
589.945	0.21
590.283	0.21
590.622	0.21
590.96	0.21
591.298	0.21
591.636	0.21
591.974	0.21
592.313	0.21
592.651	0.21
592.989	0.21
593.326	0.21
593.664	0.21
594.002	0.21
594.34	0.21
594.678	0.21
595.015	0.21
595.353	0.2
595.691	0.21
596.028	0.21
596.366	0.21
596.703	0.21
597.04	0.22
597.378	0.22
597.715	0.22
598.052	0.22
598.389	0.22
598.726	0.21
599.064	0.21
599.401	0.22
599.738	0.22
600.074	0.21
600.411	0.21
600.748	0.21
601.085	0.21
601.422	0.21
601.758	0.21
602.095	0.21
602.432	0.21
602.768	0.21
603.105	0.21
603.441	0.22
603.777	0.22
604.114	0.22
604.45	0.22
604.786	0.22
605.122	0.21
605.459	0.21
605.795	0.21
606.131	0.21
606.467	0.21
606.803	0.22
607.139	0.21
607.474	0.21
607.81	0.21
608.146	0.21
608.482	0.21
608.817	0.21
609.153	0.21
609.488	0.21
609.824	0.21
610.159	0.21
610.495	0.21
610.83	0.21
611.165	0.21
611.5	0.21
611.836	0.21
612.171	0.21
612.506	0.21
612.841	0.21
613.176	0.21
613.511	0.2
613.845	0.2
614.18	0.2
614.515	0.2
614.85	0.2
615.184	0.2
615.519	0.2
615.854	0.2
616.188	0.2
616.523	0.2
616.857	0.2
617.191	0.2
617.526	0.2
617.86	0.2
618.194	0.2
618.528	0.2
618.862	0.2
619.196	0.19
619.53	0.2
619.864	0.2
620.198	0.19
620.532	0.2
620.866	0.19
621.2	0.19
621.533	0.19
621.867	0.19
622.201	0.19
622.534	0.19
622.868	0.19
623.201	0.19
623.534	0.19
623.868	0.19
624.201	0.18
624.534	0.19
624.868	0.19
625.201	0.19
625.534	0.18
625.867	0.18
626.2	0.18
626.533	0.19
626.865	0.18
627.198	0.18
627.531	0.18
627.864	0.18
628.196	0.18
628.529	0.17
628.862	0.18
629.194	0.18
629.527	0.17
629.859	0.17
630.191	0.17
630.524	0.17
630.856	0.17
631.188	0.17
631.52	0.17
631.852	0.17
632.184	0.16
632.516	0.17
632.848	0.16
633.18	0.16
633.512	0.16
633.844	0.16
634.175	0.16
634.507	0.16
634.839	0.16
635.17	0.16
635.502	0.16
635.833	0.16
636.165	0.15
636.496	0.15
636.827	0.15
637.159	0.15
637.49	0.15
637.821	0.15
638.152	0.15
638.483	0.15
638.814	0.15
639.145	0.14
639.476	0.14
639.807	0.14
640.137	0.14
640.468	0.14
640.799	0.14
641.129	0.14
641.46	0.14
641.791	0.13
642.121	0.14
642.451	0.13
642.782	0.14
643.112	0.13
643.442	0.13
643.773	0.13
644.103	0.13
644.433	0.13
644.763	0.13
645.093	0.13
645.423	0.13
645.753	0.13
646.082	0.13
646.412	0.13
646.742	0.13
647.072	0.13
647.401	0.13
647.731	0.13
648.06	0.13
648.39	0.13
648.719	0.12
649.048	0.12
649.378	0.12
649.707	0.12
650.036	0.12
650.365	0.12
650.694	0.12
651.023	0.12
651.352	0.12
651.681	0.12
652.01	0.12
652.339	0.12
652.668	0.12
652.996	0.12
653.325	0.12
653.654	0.12
653.982	0.12
654.311	0.12
654.639	0.12
654.967	0.12
655.296	0.12
655.624	0.12
655.952	0.12
656.28	0.12
656.609	0.12
656.937	0.12
657.265	0.11
657.593	0
657.92	0
658.248	0
658.576	0
658.904	0.06
659.231	0.11
659.559	0.12
659.887	0.11
660.214	0.11
660.542	0.11
660.869	0.11
661.196	0.11
661.524	0.11
661.851	0.11
662.178	0.11
662.505	0.11
662.832	0.11
663.159	0.11
663.486	0.11
663.813	0.11
664.14	0.11
664.467	0.11
664.794	0.11
665.12	0.11
665.447	0.11
665.774	0.11
666.1	0.1
666.427	0.11
666.753	0.1
667.079	0.1
667.406	0.1
667.732	0.1
668.058	0.1
668.384	0.1
668.71	0.1
669.036	0.1
669.362	0.1
669.688	0.1
670.014	0.1
670.34	0.1
670.666	0.1
670.991	0.1
671.317	0.09
671.643	0.1
671.968	0.09
672.294	0.1
672.619	0.09
672.945	0.09
673.27	0.09
673.595	0.09
673.92	0.09
674.246	0.09
674.571	0.09
674.896	0.09
675.221	0.09
675.546	0.09
675.87	0.09
676.195	0.09
676.52	0.09
676.845	0.09
677.169	0.08
677.494	0.08
677.819	0.08
678.143	0.08
678.468	0.08
678.792	0.08
679.116	0.08
679.44	0.08
679.765	0.08
680.089	0.08
680.413	0.07
680.737	0.07
681.061	0.07
681.385	0.07
681.709	0.07
682.033	0.07
682.356	0.07
682.68	0.07
683.004	0.07
683.327	0.07
683.651	0.07
683.974	0.07
684.298	0.07
684.621	0.07
684.944	0.07
685.268	0.07
685.591	0.06
685.914	0.06
686.237	0.06
686.56	0.06
686.883	0.06
687.206	0.06
687.529	0.06
687.852	0.06
688.175	0.06
688.497	0.06
688.82	0.06
689.142	0.06
689.465	0.06
689.787	0.06
690.11	0.06
690.432	0.05
690.755	0.05
691.077	0.05
691.399	0.05
691.721	0.05
692.043	0.05
692.365	0.05
692.687	0.05
693.009	0.04
693.331	0.05
693.653	0.05
693.974	0.05
694.296	0.05
694.618	0.05
694.939	0.05
695.261	0.05
695.582	0.05
695.904	0.04
696.225	0.04
696.546	0.04
696.868	0.04
697.189	0.04
697.51	0.04
697.831	0.04
698.152	0.04
698.473	0.04
698.794	0.04
699.114	0.04
699.435	0.04
699.756	0.04
700.077	0.04
700.397	0.04
700.718	0.04
701.038	0.04
701.359	0.04
701.679	0.04
701.999	0.04
702.32	0.04
702.64	0.04
702.96	0.04
703.28	0.04
703.6	0.04
703.92	0.04
704.24	0.04
704.56	0.03
704.879	0.04
705.199	0.04
705.519	0.04
705.838	0.04
706.158	0.04
706.478	0.04
706.797	0.03
707.116	0.03
707.436	0.04
707.755	0.04
708.074	0.03
708.393	0.03
708.712	0.03
709.031	0.03
709.35	0.03
709.669	0.03
709.988	0.03
710.307	0.03
710.626	0.03
710.944	0.03
711.263	0.03
711.582	0.03
711.9	0.03
712.219	0.03
712.537	0.03
712.855	0.03
713.174	0.03
713.492	0.03
713.81	0.03
714.128	0.03
714.446	0.03
714.764	0.03
715.082	0.03
715.4	0.03
715.718	0.03
716.035	0.03
716.353	0.03
716.671	0.03
716.988	0.03
717.306	0.03
717.623	0.03
717.941	0.04
718.258	0.03
718.575	0.03
718.893	0.04
719.21	0.03
719.527	0.03
719.844	0.03
720.161	0.03
720.478	0.03
720.795	0.03
721.112	0.04
721.428	0.04
721.745	0.03
722.062	0.04
722.378	0.04
722.695	0.04
723.011	0.04
723.328	0.04
723.644	0.04
723.96	0.04
724.276	0.04
724.593	0.04
724.909	0.04
725.225	0.04
725.541	0.04
725.857	0.04
726.173	0.04
726.488	0.04
726.804	0.04
727.12	0.04
727.435	0.04
727.751	0.04
728.067	0.04
728.382	0.04
728.697	0.04
729.013	0.04
729.328	0.04
729.643	0.03
729.958	0.04
730.273	0.04
730.588	0.03
730.903	0.04
731.218	0.04
731.533	0.04
731.848	0.03
732.163	0.04
732.477	0.03
732.792	0.04
733.107	0.03
733.421	0.03
733.736	0.03
734.05	0.04
734.364	0.03
734.678	0.03
734.993	0.03
735.307	0.03
735.621	0.03
735.935	0.03
736.249	0.03
736.563	0.03
736.877	0.03
737.19	0.04
737.504	0.03
737.818	0.04
738.131	0.03
738.445	0.03
738.758	0.03
739.072	0.04
739.385	0.03
739.698	0.03
740.012	0.03
740.325	0.03
740.638	0.03
740.951	0.03
741.264	0.03
741.577	0.03
741.89	0.03
742.203	0.03
742.515	0.03
742.828	0.03
743.141	0.03
743.453	0.03
743.766	0.03
744.078	0.03
744.391	0.03
744.703	0.03
745.015	0.03
745.327	0.03
745.639	0.03
745.952	0.03
746.264	0.03
746.575	0.03
746.887	0.03
747.199	0.03
747.511	0.03
747.823	0.02
748.134	0.02
748.446	0.02
748.757	0.03
749.069	0.02
749.38	0.03
749.692	0.02
750.003	0.03
750.314	0.02
750.625	0.02
750.936	0.02
751.248	0.02
751.559	0.02
751.869	0.02
752.18	0.02
752.491	0.02
752.802	0.02
753.112	0.02
753.423	0.02
753.734	0.02
754.044	0.02
754.355	0.02
754.665	0.02
754.975	0.02
755.285	0.02
755.596	0.02
755.906	0.02
756.216	0.02
756.526	0.02
756.836	0.02
757.146	0.02
757.455	0.02
757.765	0.02
758.075	0.02
758.385	0.02
758.694	0.01
759.004	0.01
759.313	0.02
759.622	0.01
759.932	0.01
760.241	0.02
760.55	0.02
760.859	0.02
761.168	0.02
761.477	0.02
761.786	0.01
762.095	0.01
762.404	0.01
762.713	0.01
763.021	0.01
763.33	0.01
763.639	0.01
763.947	0.02
764.256	0.01
764.564	0.01
764.872	0.01
765.181	0.02
765.489	0.01
765.797	0.01
766.105	0.01
766.413	0.01
766.721	0.02
767.029	0.02
767.337	0.02
767.644	0.01
767.952	0.02
768.26	0.02
768.567	0.01
768.875	0.01
769.182	0.01
769.49	0.01
769.797	0.01
770.104	0.01
770.411	0.01
770.718	0.01
771.026	0.01
771.333	0.01
771.639	0.01
771.946	0.01
772.253	0.01
772.56	0.02
772.867	0.01
773.173	0.01
773.48	0.01
773.786	0.01
774.093	0.01
774.399	0.01
774.705	0.01
775.012	0.01
775.318	0.01
775.624	0.01
775.93	0.01
776.236	0.01
776.542	0.01
776.848	0.01
777.154	0.01
777.459	0.01
777.765	0.01
778.071	0.01
778.376	0.01
778.682	0.01
778.987	0.01
779.292	0.01
779.598	0.01
779.903	0.01
780.208	0.01
780.513	0.01
780.818	0.01
781.123	0.01
781.428	0.01
781.733	0.01
782.038	0.01
782.343	0.01
782.647	0.01
782.952	0.01
783.256	0.01
783.561	0.02
783.865	0.01
784.17	0.01
784.474	0.01
784.778	0.01
785.082	0.01
785.386	0.01
785.69	0.01
785.994	0.01
786.298	0.01
786.602	0.01
786.906	0.01
787.209	0.01
787.513	0.01
787.817	0.01
788.12	0.01
788.424	0.01
788.727	0.01
789.03	0.01
789.333	0.01
789.637	0.01
789.94	0.01
790.243	0.01
790.546	0.01
790.849	0.01
791.152	0.01
791.454	0.01
791.757	0.01
792.06	0.01
792.362	0.01
792.665	0.01
792.967	0.01
793.27	0.01
793.572	0.01
793.874	0.01
794.177	0.01
794.479	0.01
794.781	0.01
795.083	0.01
795.385	0.01
795.687	0.01
795.989	0.01
796.29	0.01
796.592	0.01
796.894	0.01
797.195	0.01
797.497	0.02
797.798	0.02
798.1	0.02
798.401	0.01
798.702	0.02
799.003	0.01
799.304	0.02
799.605	0.01
799.906	0.02
800.207	0.01
800.508	0.01
800.809	0.02
801.11	0.01
801.41	0.01
801.711	0.02
802.011	0.02
802.312	0.01
802.612	0.01
802.913	0.01
803.213	0.02
803.513	0.01
803.813	0.01
804.113	0.01
804.413	0.01
804.713	0.01
805.013	0.01
805.313	0.01
805.613	0.02
805.912	0.02
806.212	0.02
806.511	0.01
806.811	0.01
807.11	0.01
807.41	0.02
807.709	0.02
808.008	0.01
808.307	0.02
808.606	0.02
808.905	0.01
809.204	0.02
809.503	0.02
809.802	0.02
810.101	0.01
810.399	0.02
810.698	0.02
810.997	0.02
811.295	0.02
811.593	0.02
811.892	0.02
812.19	0.02
812.488	0.02
812.786	0.01
813.084	0.02
813.383	0.02
813.68	0.02
813.978	0.02
814.276	0.02
814.574	0.02
814.872	0.02
815.169	0.02
815.467	0.02
815.764	0.01
816.062	0.02
816.359	0.01
816.656	0.02
816.954	0.02
817.251	0.02
817.548	0.02
817.845	0.02
818.142	0.02
818.439	0.01
818.735	0.02
819.032	0.02
819.329	0.02
819.626	0.02
819.922	0.02
820.219	0.02
820.515	0.02
820.811	0.02
821.108	0.02
821.404	0.02
821.7	0.02
821.996	0.02
822.292	0.02
822.588	0.02
822.884	0.02
823.18	0.02
823.475	0.02
823.771	0.01
824.067	0.02
824.362	0.02
824.658	0.02
824.953	0.02
825.249	0.02
825.544	0.01
825.839	0.02
826.134	0.02
826.429	0.02
826.724	0.02
827.019	0.02
827.314	0.02
827.609	0.02
827.904	0.02
828.198	0.02
828.493	0.02
828.787	0.02
829.082	0.02
829.376	0.01
829.671	0.02
829.965	0.01
830.259	0.02
830.553	0.02
830.847	0.02
831.141	0.02
831.435	0.02
831.729	0.02
832.023	0.03
832.317	0.02
832.61	0.02
832.904	0.02
833.197	0.02
833.491	0.02
833.784	0.02
834.077	0.02
834.371	0.02
834.664	0.02
834.957	0.02
835.25	0.02
835.543	0.02
835.836	0.03
836.129	0.02
836.421	0.02
836.714	0.02
837.007	0.02
837.299	0.02
837.592	0.02
837.884	0.02
838.177	0.01
838.469	0.02
838.761	0.03
839.053	0.02
839.345	0.02
839.637	0.02
839.929	0.02
840.221	0.01
840.513	0.02
840.805	0.02
841.096	0.02
841.388	0.02
841.68	0.01
841.971	0.01
842.262	0.01
842.554	0.02
842.845	0.02
843.136	0.02
843.427	0.02
843.718	0.02
844.009	0.02
844.3	0.02
844.591	0.02
844.882	0.02
845.173	0.02
845.463	0.03
845.754	0.02
846.044	0.02
846.335	0.02
846.625	0.02
846.915	0.01
847.206	0.03
847.496	0.02
847.786	0.02
848.076	0.04
848.366	0.02
848.656	0.03
848.945	0.03
849.235	0.02
849.525	0.02
849.814	0.02
850.104	0.01
850.393	0.02
850.683	0.03
850.972	0.03
851.261	0.02
851.551	0.03
851.84	0.03
852.129	0.02
852.418	0.02
852.707	0.03
852.995	0.02
853.284	0.02
853.573	0.02
853.862	0.02
854.15	0.03
854.439	0.03
854.727	0.04
855.015	0.04
855.304	0.03
855.592	0.03
855.88	0.02
856.168	0.03
856.456	0.02
856.744	0.02
857.032	0.02
857.32	0.03
857.607	0.03
857.895	0.03
858.183	0.02
858.47	0.03
858.757	0.02
859.045	0.02
859.332	0.02
859.619	0.02
859.907	0.02
860.194	0.03
860.481	0.03
860.768	0.01
861.054	0.05
861.341	0.01
861.628	0.03
861.915	0.05
862.201	0.03
862.488	0.03
862.774	0.01
863.061	0.04
863.347	0.02
863.633	0.02
863.919	0.03
864.205	0.02
864.491	0.01
864.777	0.03
865.063	0.04
865.349	0.02
865.635	0.03
865.92	-0
866.206	0.02
866.492	-0
866.777	0.01
867.062	0.02
867.348	0
867.633	0.04
867.918	-0
868.203	0.06
868.488	0.01
868.773	0.04
869.058	0.02
869.343	0.06
869.628	0
869.912	0.01
870.197	0.09
870.482	0.03
870.766	-0
871.05	0.02
871.335	0.02
871.619	-0.01
871.903	0.01
872.187	0.03
872.471	0.02
872.755	0.08
873.039	0.02
873.323	0.01
873.607	-0
873.89	0.03
874.174	0
874.458	-0
874.741	0.06
875.024	-0.03
875.308	0.07
875.591	0.01
875.874	0.03
876.157	-0.03
876.44	-0.05
876.723	0.04
877.006	0.04
877.289	0.04
877.572	0.11
877.854	0
878.137	0.03
878.42	0.04
878.702	0.04
878.984	0.01
879.267	0
879.549	0.1
879.831	0.03
880.113	-0.08
880.395	-0.02
880.677	0.01
880.959	0.04
