Data from Rubpy_BV_1800_EDTA_Buffered_Absorbance_16-56-19-537.txt Node
Date: Wed Jul 01 16:56:19 BST 2026
User: fpm-admin
Spectrometer: OFX00224
Trigger mode: 0
Integration Time (sec): 7.000000E-2
Scans to average: 3
Nonlinearity correction enabled: false
Boxcar width: 0
Storing dark spectrum: false
XAxis mode: Wavelengths
Number of Pixels in Spectrum: 2136
>>>>>Begin Spectral Data<<<<<
154.91	-0
155.289	0.21
155.669	-0
156.048	-0
156.428	-0
156.807	-0.11
157.186	-1.26
157.566	-0
157.945	-1.22
158.325	-0.13
158.704	-0.08
159.083	-0.13
159.462	-0.4
159.842	-0
160.221	0.27
160.6	-0
160.979	0.15
161.359	0.25
161.738	-0.86
162.117	-0.74
162.496	0.05
162.875	-0.57
163.254	0.23
163.633	-0
164.012	-0
164.391	0.35
164.77	0.12
165.149	-0
165.528	-0
165.907	0.24
166.286	-0.41
166.665	0.42
167.044	0.02
167.423	0.33
167.802	-0
168.181	-1.11
168.559	-0
168.938	0.62
169.317	1.23
169.696	-0
170.074	0.22
170.453	-0.28
170.832	-1.36
171.21	0.29
171.589	-0.09
171.968	1.53
172.346	-0.04
172.725	-0
173.103	-0.36
173.482	0.4
173.861	-0
174.239	-0.2
174.617	0.36
174.996	-0.09
175.374	-0.07
175.753	-0.56
176.131	0.88
176.51	-0
176.888	1.64
177.266	-0
177.645	0.05
178.023	0.58
178.401	-0.2
178.779	0.18
179.158	-0.14
179.536	0.13
179.914	0.14
180.292	0.08
180.67	-0.34
181.048	0.54
181.427	-0.68
181.805	-0
182.183	-0
182.561	-0
182.939	-0
183.317	-0.6
183.695	0.09
184.073	-0
184.451	-0.9
184.829	0.06
185.206	-0.16
185.584	-0
185.962	-0.43
186.34	0.06
186.718	0.27
187.096	-0
187.473	-0.63
187.851	-0.42
188.229	-0.33
188.607	0.24
188.984	0.39
189.362	0.14
189.74	0.45
190.117	0.31
190.495	0.62
190.872	0.24
191.25	0.45
191.627	0.29
192.005	0.29
192.382	0.4
192.76	0.47
193.137	0.22
193.515	0.31
193.892	0.36
194.269	0.41
194.647	0.5
195.024	0.38
195.401	0.28
195.779	0.47
196.156	0.42
196.533	0.39
196.91	0.22
197.288	0.38
197.665	0.3
198.042	0.34
198.419	0.34
198.796	0.28
199.173	0.39
199.55	0.24
199.927	0.29
200.304	0.36
200.681	0.29
201.058	0.32
201.435	0.44
201.812	0.18
202.189	0.41
202.566	0.4
202.943	0.24
203.32	0.5
203.697	0.36
204.073	0.26
204.45	0.45
204.827	0.31
205.204	0.3
205.58	0.28
205.957	0.3
206.334	0.34
206.71	0.45
207.087	0.28
207.464	0.47
207.84	0.49
208.217	0.43
208.593	0.25
208.97	0.35
209.346	0.36
209.723	0.3
210.099	0.49
210.476	0.43
210.852	0.52
211.228	0.45
211.605	0.37
211.981	0.24
212.357	0.42
212.733	0.39
213.11	0.32
213.486	0.42
213.862	0.29
214.238	0.52
214.614	0.3
214.991	0.27
215.367	0.34
215.743	0.24
216.119	0.45
216.495	0.46
216.871	0.38
217.247	0.27
217.623	0.33
217.999	0.43
218.375	0.38
218.751	0.26
219.127	0.33
219.502	0.3
219.878	0.35
220.254	0.42
220.63	0.35
221.006	0.45
221.381	0.39
221.757	0.34
222.133	0.35
222.508	0.62
222.884	0.26
223.26	0.35
223.635	0.28
224.011	0.34
224.386	0.35
224.762	0.78
225.137	0.46
225.513	0.3
225.888	0.5
226.264	0.27
226.639	0.36
227.014	0.43
227.39	0.4
227.765	0.27
228.14	0.34
228.516	0.42
228.891	0.49
229.266	0.35
229.641	0.2
230.017	0.42
230.392	0.36
230.767	0.47
231.142	0.35
231.517	0.46
231.892	0.41
232.267	0.36
232.642	0.39
233.017	0.53
233.392	0.49
233.767	0.41
234.142	0.31
234.517	0.21
234.892	0.39
235.267	0.29
235.641	0.59
236.016	0.4
236.391	0.33
236.766	0.31
237.14	0.42
237.515	0.42
237.89	0.47
238.264	0.36
238.639	0.94
239.014	0.37
239.388	0.37
239.763	0.48
240.137	0.33
240.512	0.54
240.886	0.26
241.261	0.36
241.635	0.34
242.009	0.61
242.384	0.38
242.758	0.51
243.132	0.41
243.507	0.58
243.881	0.27
244.255	0.44
244.629	0.38
245.004	0.73
245.378	0.45
245.752	0.56
246.126	0.35
246.5	0.31
246.874	0.39
247.248	0.39
247.622	0.38
247.996	0.5
248.37	0.43
248.744	0.35
249.118	0.59
249.492	0.3
249.866	0.49
250.24	0.49
250.613	0.58
250.987	0.5
251.361	0.55
251.735	0.51
252.108	0.42
252.482	0.32
252.856	0.35
253.229	0.47
253.603	0.4
253.977	0.43
254.35	0.39
254.724	0.44
255.097	0.26
255.471	0.38
255.844	0.44
256.218	0.32
256.591	0.44
256.964	0.49
257.338	0.33
257.711	0.53
258.084	0.41
258.458	0.45
258.831	0.62
259.204	0.34
259.577	0.48
259.95	0.39
260.323	0.34
260.697	0.24
261.07	0.37
261.443	0.54
261.816	0.41
262.189	0.45
262.562	0.43
262.935	0.52
263.308	0.48
263.68	0.37
264.053	0.41
264.426	0.58
264.799	0.35
265.172	0.49
265.545	0.57
265.917	0.45
266.29	0.38
266.663	0.43
267.035	0.45
267.408	0.48
267.781	0.51
268.153	0.27
268.526	0.5
268.898	0.58
269.271	0.46
269.643	0.5
270.016	0.42
270.388	0.38
270.76	0.32
271.133	0.36
271.505	0.69
271.877	0.24
272.25	0.33
272.622	0.32
272.994	0.41
273.366	0.46
273.739	0.41
274.111	0.38
274.483	0.39
274.855	0.47
275.227	0.45
275.599	0.55
275.971	0.36
276.343	0.42
276.715	0.48
277.087	0.35
277.459	0.42
277.831	0.35
278.203	0.42
278.574	0.38
278.946	0.37
279.318	0.37
279.69	0.42
280.061	0.38
280.433	0.34
280.805	0.41
281.176	0.48
281.548	0.48
281.92	0.37
282.291	0.45
282.663	0.33
283.034	0.45
283.406	0.47
283.777	0.51
284.148	0.4
284.52	0.39
284.891	0.44
285.262	0.45
285.634	0.52
286.005	0.55
286.376	0.51
286.747	0.36
287.119	0.32
287.49	0.47
287.861	0.57
288.232	0.66
288.603	0.62
288.974	0.42
289.345	0.54
289.716	0.51
290.087	0.35
290.458	0.4
290.829	0.55
291.2	0.36
291.571	0.42
291.941	0.41
292.312	0.37
292.683	0.5
293.054	0.4
293.424	0.34
293.795	0.46
294.166	0.44
294.536	0.37
294.907	0.44
295.277	0.46
295.648	0.44
296.018	0.43
296.389	0.27
296.759	0.43
297.13	0.4
297.5	0.42
297.871	0.36
298.241	0.62
298.611	0.42
298.981	0.38
299.352	0.43
299.722	0.34
300.092	0.39
300.462	0.48
300.832	0.47
301.202	0.42
301.573	0.36
301.943	0.58
302.313	0.36
302.683	0.33
303.053	0.42
303.422	0.38
303.792	0.35
304.162	0.35
304.532	0.48
304.902	0.38
305.272	0.35
305.641	0.42
306.011	0.34
306.381	0.42
306.75	0.43
307.12	0.36
307.49	0.33
307.859	0.32
308.229	0.3
308.598	0.34
308.968	0.34
309.337	0.34
309.707	0.35
310.076	0.33
310.445	0.32
310.815	0.34
311.184	0.35
311.553	0.34
311.923	0.32
312.292	0.36
312.661	0.34
313.03	0.35
313.399	0.33
313.768	0.34
314.137	0.33
314.506	0.32
314.875	0.36
315.244	0.32
315.613	0.34
315.982	0.37
316.351	0.39
316.72	0.36
317.089	0.35
317.458	0.39
317.826	0.4
318.195	0.4
318.564	0.39
318.933	0.41
319.301	0.4
319.67	0.41
320.038	0.42
320.407	0.42
320.775	0.42
321.144	0.43
321.512	0.45
321.881	0.45
322.249	0.44
322.618	0.47
322.986	0.48
323.354	0.46
323.723	0.47
324.091	0.49
324.459	0.48
324.827	0.51
325.195	0.51
325.564	0.51
325.932	0.51
326.3	0.53
326.668	0.55
327.036	0.54
327.404	0.55
327.772	0.56
328.14	0.57
328.508	0.57
328.875	0.57
329.243	0.6
329.611	0.58
329.979	0.6
330.346	0.62
330.714	0.62
331.082	0.63
331.449	0.65
331.817	0.65
332.185	0.67
332.552	0.68
332.92	0.7
333.287	0.7
333.655	0.72
334.022	0.74
334.389	0.74
334.757	0.76
335.124	0.78
335.491	0.8
335.859	0.82
336.226	0.82
336.593	0.83
336.96	0.86
337.327	0.86
337.695	0.88
338.062	0.91
338.429	0.92
338.796	0.94
339.163	0.96
339.53	0.97
339.897	0.99
340.263	1.01
340.63	1.03
340.997	1.03
341.364	1.06
341.731	1.06
342.097	1.08
342.464	1.1
342.831	1.14
343.197	1.13
343.564	1.17
343.931	1.18
344.297	1.2
344.664	1.21
345.03	1.23
345.396	1.26
345.763	1.29
346.129	1.29
346.496	1.32
346.862	1.32
347.228	1.34
347.594	1.36
347.961	1.36
348.327	1.38
348.693	1.42
349.059	1.41
349.425	1.43
349.791	1.45
350.157	1.46
350.523	1.5
350.889	1.5
351.255	1.52
351.621	1.52
351.987	1.54
352.353	1.55
352.719	1.58
353.084	1.58
353.45	1.58
353.816	1.64
354.181	1.62
354.547	1.63
354.913	1.68
355.278	1.67
355.644	1.69
356.009	1.72
356.375	1.73
356.74	1.74
357.106	1.78
357.471	1.82
357.836	1.79
358.202	1.83
358.567	1.81
358.932	1.83
359.297	1.85
359.663	1.88
360.028	1.85
360.393	1.92
360.758	1.86
361.123	1.9
361.488	2.01
361.853	2.02
362.218	2.02
362.583	1.98
362.948	1.99
363.312	2.02
363.677	2.05
364.042	2.01
364.407	2.05
364.772	2.03
365.136	2.09
365.501	2.06
365.865	2.04
366.23	2.1
366.595	2.08
366.959	2.12
367.324	2.14
367.688	2.14
368.052	2.15
368.417	2.09
368.781	2.18
369.145	2.24
369.51	2.17
369.874	2.14
370.238	2.2
370.602	2.09
370.967	2.23
371.331	2.14
371.695	2.14
372.059	2.12
372.423	2.1
372.787	2.1
373.151	2.11
373.515	2.2
373.878	2.19
374.242	2.13
374.606	2.12
374.97	2.17
375.334	2.16
375.697	2.13
376.061	2.1
376.425	2.16
376.788	2.09
377.152	2.12
377.515	2.09
377.879	2.18
378.242	2.06
378.606	2.12
378.969	2.03
379.333	2.08
379.696	2.09
380.059	2
380.422	1.96
380.786	1.97
381.149	2
381.512	1.94
381.875	1.97
382.238	1.89
382.601	1.94
382.964	1.9
383.327	1.86
383.69	1.88
384.053	1.82
384.416	1.8
384.779	1.8
385.142	1.76
385.504	1.79
385.867	1.76
386.23	1.75
386.593	1.73
386.955	1.71
387.318	1.72
387.68	1.68
388.043	1.69
388.405	1.65
388.768	1.66
389.13	1.67
389.493	1.64
389.855	1.62
390.217	1.61
390.58	1.59
390.942	1.58
391.304	1.55
391.666	1.52
392.028	1.5
392.391	1.48
392.753	1.46
393.115	1.44
393.477	1.43
393.839	1.41
394.201	1.4
394.563	1.41
394.924	1.38
395.286	1.38
395.648	1.38
396.01	1.38
396.371	1.39
396.733	1.42
397.095	1.41
397.456	1.43
397.818	1.46
398.18	1.49
398.541	1.49
398.903	1.54
399.264	1.57
399.625	1.58
399.987	1.62
400.348	1.63
400.709	1.64
401.071	1.64
401.432	1.67
401.793	1.67
402.154	1.64
402.515	1.61
402.876	1.6
403.238	1.55
403.599	1.52
403.96	1.5
404.32	1.42
404.681	1.4
405.042	1.34
405.403	1.27
405.764	1.24
406.125	1.19
406.485	1.13
406.846	1.07
407.207	1.02
407.567	0.97
407.928	0.93
408.288	0.87
408.649	0.82
409.009	0.78
409.37	0.74
409.73	0.71
410.091	0.65
410.451	0.63
410.811	0.6
411.171	0.58
411.532	0.55
411.892	0.53
412.252	0.5
412.612	0.48
412.972	0.46
413.332	0.45
413.692	0.43
414.052	0.4
414.412	0.4
414.772	0.38
415.132	0.38
415.492	0.36
415.851	0.35
416.211	0.33
416.571	0.33
416.931	0.32
417.29	0.31
417.65	0.31
418.009	0.29
418.369	0.28
418.728	0.29
419.088	0.28
419.447	0.26
419.807	0.27
420.166	0.26
420.525	0.25
420.884	0.25
421.244	0.25
421.603	0.24
421.962	0.23
422.321	0.23
422.68	0.23
423.039	0.22
423.398	0.22
423.757	0.21
424.116	0.22
424.475	0.22
424.834	0.21
425.193	0.21
425.551	0.21
425.91	0.21
426.269	0.2
426.628	0.2
426.986	0.2
427.345	0.19
427.703	0.2
428.062	0.19
428.42	0.19
428.779	0.19
429.137	0.2
429.496	0.19
429.854	0.19
430.212	0.19
430.57	0.18
430.929	0.17
431.287	0.19
431.645	0.19
432.003	0.18
432.361	0.18
432.719	0.19
433.077	0.18
433.435	0.18
433.793	0.2
434.151	0.18
434.509	0.19
434.866	0.18
435.224	0.19
435.582	0.19
435.94	0.18
436.297	0.18
436.655	0.19
437.012	0.18
437.37	0.19
437.727	0.19
438.085	0.18
438.442	0.18
438.8	0.19
439.157	0.18
439.514	0.18
439.872	0.18
440.229	0.19
440.586	0.18
440.943	0.19
441.3	0.2
441.657	0.2
442.014	0.19
442.371	0.19
442.728	0.19
443.085	0.19
443.442	0.18
443.799	0.19
444.156	0.19
444.513	0.2
444.869	0.18
445.226	0.19
445.583	0.2
445.939	0.2
446.296	0.19
446.652	0.2
447.009	0.2
447.365	0.2
447.722	0.2
448.078	0.19
448.434	0.2
448.791	0.2
449.147	0.2
449.503	0.19
449.859	0.19
450.215	0.2
450.571	0.2
450.928	0.21
451.284	0.2
451.64	0.21
451.995	0.2
452.351	0.2
452.707	0.21
453.063	0.21
453.419	0.2
453.775	0.19
454.13	0.2
454.486	0.2
454.842	0.19
455.197	0.2
455.553	0.19
455.908	0.19
456.264	0.19
456.619	0.19
456.975	0.19
457.33	0.19
457.685	0.19
458.04	0.18
458.396	0.18
458.751	0.17
459.106	0.17
459.461	0.17
459.816	0.18
460.171	0.16
460.526	0.16
460.881	0.16
461.236	0.16
461.591	0.15
461.946	0.15
462.301	0.15
462.655	0.15
463.01	0.15
463.365	0.13
463.719	0.13
464.074	0.12
464.428	0.12
464.783	0.11
465.137	0.11
465.492	0.11
465.846	0.11
466.201	0.11
466.555	0.13
466.909	0.13
467.263	0.13
467.618	0.13
467.972	0.14
468.326	0.13
468.68	0.13
469.034	0.12
469.388	0.13
469.742	0.13
470.096	0.14
470.45	0.14
470.804	0.14
471.157	0.14
471.511	0.14
471.865	0.14
472.218	0.16
472.572	0.16
472.926	0.17
473.279	0.18
473.633	0.19
473.986	0.21
474.34	0.2
474.693	0.22
475.046	0.23
475.4	0.25
475.753	0.25
476.106	0.27
476.459	0.28
476.812	0.29
477.165	0.3
477.519	0.31
477.872	0.32
478.224	0.34
478.577	0.33
478.93	0.35
479.283	0.36
479.636	0.37
479.989	0.38
480.341	0.39
480.694	0.4
481.047	0.41
481.399	0.42
481.752	0.42
482.104	0.43
482.457	0.44
482.809	0.45
483.162	0.46
483.514	0.47
483.866	0.47
484.219	0.48
484.571	0.49
484.923	0.49
485.275	0.5
485.627	0.51
485.979	0.52
486.331	0.53
486.683	0.53
487.035	0.53
487.387	0.55
487.739	0.57
488.091	0.56
488.443	0.57
488.794	0.57
489.146	0.58
489.498	0.58
489.849	0.59
490.201	0.6
490.552	0.6
490.904	0.6
491.255	0.61
491.607	0.62
491.958	0.63
492.309	0.63
492.661	0.63
493.012	0.65
493.363	0.65
493.714	0.65
494.065	0.66
494.416	0.67
494.767	0.67
495.118	0.68
495.469	0.69
495.82	0.69
496.171	0.69
496.522	0.71
496.872	0.71
497.223	0.72
497.574	0.72
497.924	0.73
498.275	0.73
498.626	0.74
498.976	0.75
499.327	0.76
499.677	0.76
500.027	0.77
500.378	0.77
500.728	0.78
501.078	0.78
501.428	0.8
501.779	0.8
502.129	0.79
502.479	0.8
502.829	0.82
503.179	0.83
503.529	0.82
503.879	0.82
504.229	0.84
504.578	0.85
504.928	0.84
505.278	0.85
505.628	0.86
505.977	0.87
506.327	0.87
506.676	0.88
507.026	0.88
507.375	0.88
507.725	0.88
508.074	0.89
508.424	0.89
508.773	0.91
509.122	0.91
509.471	0.91
509.82	0.91
510.17	0.92
510.519	0.94
510.868	0.92
511.217	0.94
511.566	0.95
511.915	0.95
512.263	0.96
512.612	0.95
512.961	0.97
513.31	0.97
513.659	0.98
514.007	0.98
514.356	0.98
514.704	0.99
515.053	1
515.401	0.99
515.75	0.99
516.098	1.01
516.447	1.01
516.795	1
517.143	1.01
517.491	1.01
517.839	1.02
518.188	1.02
518.536	1.02
518.884	1.03
519.232	1.04
519.58	1.04
519.928	1.04
520.275	1.04
520.623	1.06
520.971	1.07
521.319	1.07
521.666	1.06
522.014	1.07
522.362	1.07
522.709	1.08
523.057	1.09
523.404	1.09
523.752	1.1
524.099	1.08
524.446	1.1
524.794	1.11
525.141	1.1
525.488	1.11
525.835	1.11
526.182	1.11
526.529	1.11
526.876	1.12
527.223	1.12
527.57	1.12
527.917	1.12
528.264	1.13
528.611	1.14
528.958	1.13
529.304	1.14
529.651	1.15
529.998	1.14
530.344	1.13
530.691	1.15
531.037	1.15
531.384	1.16
531.73	1.16
532.076	1.16
532.423	1.16
532.769	1.16
533.115	1.16
533.461	1.17
533.807	1.16
534.154	1.16
534.5	1.18
534.846	1.17
535.192	1.17
535.537	1.18
535.883	1.17
536.229	1.19
536.575	1.19
536.921	1.19
537.266	1.19
537.612	1.18
537.957	1.18
538.303	1.2
538.649	1.2
538.994	1.2
539.339	1.19
539.685	1.2
540.03	1.21
540.375	1.19
540.721	1.21
541.066	1.21
541.411	1.2
541.756	1.21
542.101	1.21
542.446	1.21
542.791	1.2
543.136	1.22
543.481	1.21
543.825	1.21
544.17	1.21
544.515	1.22
544.86	1.22
545.204	1.22
545.549	1.22
545.893	1.22
546.238	1.21
546.582	1.22
546.927	1.22
547.271	1.22
547.615	1.22
547.96	1.22
548.304	1.22
548.648	1.23
548.992	1.23
549.336	1.23
549.68	1.22
550.024	1.23
550.368	1.22
550.712	1.24
551.056	1.23
551.4	1.22
551.743	1.22
552.087	1.23
552.431	1.22
552.774	1.22
553.118	1.22
553.462	1.22
553.805	1.22
554.148	1.23
554.492	1.23
554.835	1.22
555.178	1.21
555.522	1.22
555.865	1.22
556.208	1.22
556.551	1.22
556.894	1.21
557.237	1.22
557.58	1.21
557.923	1.21
558.266	1.21
558.609	1.21
558.952	1.21
559.294	1.2
559.637	1.21
559.98	1.21
560.322	1.2
560.665	1.2
561.007	1.2
561.35	1.19
561.692	1.19
562.034	1.19
562.377	1.2
562.719	1.2
563.061	1.19
563.403	1.19
563.745	1.19
564.088	1.19
564.43	1.19
564.772	1.18
565.113	1.18
565.455	1.18
565.797	1.18
566.139	1.18
566.481	1.17
566.822	1.18
567.164	1.17
567.506	1.16
567.847	1.17
568.189	1.16
568.53	1.17
568.872	1.17
569.213	1.16
569.554	1.15
569.895	1.15
570.237	1.15
570.578	1.15
570.919	1.15
571.26	1.14
571.601	1.14
571.942	1.14
572.283	1.13
572.624	1.13
572.965	1.14
573.306	1.13
573.646	1.13
573.987	1.13
574.328	1.13
574.668	1.12
575.009	1.12
575.349	1.11
575.69	1.11
576.03	1.11
576.37	1.1
576.711	1.1
577.051	1.1
577.391	1.1
577.731	1.1
578.072	1.09
578.412	1.09
578.752	1.09
579.092	1.08
579.431	1.07
579.771	1.06
580.111	1.06
580.451	1.07
580.791	1.07
581.13	1.07
581.47	1.08
581.81	1.06
582.149	1.07
582.489	1.06
582.828	1.05
583.167	1.03
583.507	0.99
583.846	1
584.185	1.04
584.525	1.05
584.864	1.05
585.203	1.05
585.542	1.05
585.881	1.05
586.22	1.04
586.559	1.04
586.898	1.03
587.236	1.02
587.575	1.03
587.914	1.03
588.252	1.03
588.591	1.04
588.93	1.03
589.268	1.03
589.607	1.03
589.945	1.03
590.283	1.03
590.622	1.02
590.96	1.03
591.298	1.03
591.636	1.03
591.974	1.02
592.313	1.02
592.651	1.02
592.989	1.02
593.326	1.02
593.664	1.02
594.002	1.02
594.34	1.01
594.678	1.01
595.015	1.01
595.353	1
595.691	1.01
596.028	1.02
596.366	1.01
596.703	1.01
597.04	1.01
597.378	1
597.715	1.01
598.052	1.01
598.389	1.01
598.726	1
599.064	1
599.401	1
599.738	1
600.074	1
600.411	1
600.748	0.99
601.085	0.99
601.422	0.99
601.758	0.99
602.095	0.98
602.432	0.99
602.768	0.98
603.105	0.99
603.441	0.98
603.777	0.99
604.114	0.99
604.45	0.98
604.786	0.97
605.122	0.97
605.459	0.97
605.795	0.97
606.131	0.97
606.467	0.97
606.803	0.96
607.139	0.95
607.474	0.95
607.81	0.96
608.146	0.95
608.482	0.95
608.817	0.94
609.153	0.93
609.488	0.94
609.824	0.94
610.159	0.94
610.495	0.93
610.83	0.93
611.165	0.93
611.5	0.93
611.836	0.92
612.171	0.92
612.506	0.91
612.841	0.91
613.176	0.9
613.511	0.91
613.845	0.9
614.18	0.89
614.515	0.9
614.85	0.89
615.184	0.89
615.519	0.89
615.854	0.88
616.188	0.88
616.523	0.88
616.857	0.87
617.191	0.87
617.526	0.87
617.86	0.87
618.194	0.86
618.528	0.86
618.862	0.86
619.196	0.86
619.53	0.86
619.864	0.85
620.198	0.84
620.532	0.84
620.866	0.83
621.2	0.83
621.533	0.83
621.867	0.83
622.201	0.82
622.534	0.82
622.868	0.82
623.201	0.81
623.534	0.81
623.868	0.81
624.201	0.8
624.534	0.8
624.868	0.8
625.201	0.79
625.534	0.79
625.867	0.79
626.2	0.78
626.533	0.78
626.865	0.78
627.198	0.78
627.531	0.77
627.864	0.77
628.196	0.77
628.529	0.76
628.862	0.75
629.194	0.75
629.527	0.74
629.859	0.74
630.191	0.74
630.524	0.74
630.856	0.73
631.188	0.73
631.52	0.72
631.852	0.72
632.184	0.71
632.516	0.71
632.848	0.7
633.18	0.7
633.512	0.7
633.844	0.69
634.175	0.69
634.507	0.68
634.839	0.68
635.17	0.68
635.502	0.67
635.833	0.67
636.165	0.66
636.496	0.66
636.827	0.66
637.159	0.65
637.49	0.65
637.821	0.64
638.152	0.64
638.483	0.63
638.814	0.63
639.145	0.62
639.476	0.62
639.807	0.62
640.137	0.61
640.468	0.61
640.799	0.6
641.129	0.59
641.46	0.59
641.791	0.59
642.121	0.58
642.451	0.59
642.782	0.58
643.112	0.58
643.442	0.58
643.773	0.57
644.103	0.57
644.433	0.57
644.763	0.56
645.093	0.56
645.423	0.56
645.753	0.55
646.082	0.55
646.412	0.55
646.742	0.54
647.072	0.54
647.401	0.54
647.731	0.54
648.06	0.54
648.39	0.53
648.719	0.53
649.048	0.52
649.378	0.52
649.707	0.52
650.036	0.52
650.365	0.52
650.694	0.51
651.023	0.51
651.352	0.51
651.681	0.51
652.01	0.51
652.339	0.5
652.668	0.5
652.996	0.5
653.325	0.5
653.654	0.5
653.982	0.5
654.311	0.49
654.639	0.49
654.967	0.49
655.296	0.49
655.624	0.49
655.952	0.49
656.28	0.48
656.609	0.48
656.937	0.48
657.265	0.46
657.593	0.32
657.92	0.23
658.248	0.2
658.576	0.28
658.904	0.41
659.231	0.46
659.559	0.47
659.887	0.47
660.214	0.46
660.542	0.46
660.869	0.46
661.196	0.46
661.524	0.46
661.851	0.45
662.178	0.45
662.505	0.45
662.832	0.45
663.159	0.45
663.486	0.44
663.813	0.44
664.14	0.44
664.467	0.44
664.794	0.43
665.12	0.44
665.447	0.43
665.774	0.43
666.1	0.43
666.427	0.43
666.753	0.42
667.079	0.42
667.406	0.42
667.732	0.41
668.058	0.42
668.384	0.41
668.71	0.41
669.036	0.41
669.362	0.4
669.688	0.4
670.014	0.4
670.34	0.4
670.666	0.39
670.991	0.39
671.317	0.39
671.643	0.38
671.968	0.38
672.294	0.38
672.619	0.38
672.945	0.38
673.27	0.37
673.595	0.37
673.92	0.37
674.246	0.36
674.571	0.36
674.896	0.36
675.221	0.36
675.546	0.35
675.87	0.35
676.195	0.35
676.52	0.35
676.845	0.34
677.169	0.34
677.494	0.34
677.819	0.33
678.143	0.33
678.468	0.33
678.792	0.33
679.116	0.32
679.44	0.32
679.765	0.32
680.089	0.31
680.413	0.31
680.737	0.3
681.061	0.3
681.385	0.3
681.709	0.29
682.033	0.29
682.356	0.3
682.68	0.29
683.004	0.29
683.327	0.28
683.651	0.28
683.974	0.28
684.298	0.27
684.621	0.27
684.944	0.27
685.268	0.27
685.591	0.27
685.914	0.26
686.237	0.26
686.56	0.25
686.883	0.25
687.206	0.25
687.529	0.25
687.852	0.24
688.175	0.24
688.497	0.24
688.82	0.24
689.142	0.23
689.465	0.23
689.787	0.23
690.11	0.23
690.432	0.22
690.755	0.22
691.077	0.22
691.399	0.21
691.721	0.21
692.043	0.21
692.365	0.21
692.687	0.2
693.009	0.2
693.331	0.2
693.653	0.2
693.974	0.2
694.296	0.2
694.618	0.19
694.939	0.19
695.261	0.19
695.582	0.19
695.904	0.18
696.225	0.18
696.546	0.18
696.868	0.18
697.189	0.18
697.51	0.18
697.831	0.18
698.152	0.18
698.473	0.17
698.794	0.16
699.114	0.17
699.435	0.16
699.756	0.17
700.077	0.17
700.397	0.17
700.718	0.16
701.038	0.16
701.359	0.16
701.679	0.16
701.999	0.16
702.32	0.16
702.64	0.16
702.96	0.16
703.28	0.15
703.6	0.16
703.92	0.15
704.24	0.15
704.56	0.15
704.879	0.15
705.199	0.15
705.519	0.15
705.838	0.15
706.158	0.15
706.478	0.15
706.797	0.15
707.116	0.15
707.436	0.15
707.755	0.15
708.074	0.14
708.393	0.14
708.712	0.14
709.031	0.13
709.35	0.13
709.669	0.13
709.988	0.13
710.307	0.13
710.626	0.13
710.944	0.14
711.263	0.14
711.582	0.14
711.9	0.14
712.219	0.14
712.537	0.14
712.855	0.14
713.174	0.14
713.492	0.14
713.81	0.14
714.128	0.14
714.446	0.14
714.764	0.13
715.082	0.13
715.4	0.14
715.718	0.13
716.035	0.13
716.353	0.14
716.671	0.14
716.988	0.14
717.306	0.13
717.623	0.14
717.941	0.14
718.258	0.14
718.575	0.14
718.893	0.14
719.21	0.14
719.527	0.14
719.844	0.14
720.161	0.14
720.478	0.14
720.795	0.14
721.112	0.14
721.428	0.14
721.745	0.14
722.062	0.14
722.378	0.15
722.695	0.14
723.011	0.14
723.328	0.14
723.644	0.14
723.96	0.15
724.276	0.15
724.593	0.15
724.909	0.15
725.225	0.14
725.541	0.14
725.857	0.14
726.173	0.15
726.488	0.15
726.804	0.14
727.12	0.15
727.435	0.15
727.751	0.15
728.067	0.14
728.382	0.14
728.697	0.14
729.013	0.15
729.328	0.14
729.643	0.14
729.958	0.14
730.273	0.14
730.588	0.14
730.903	0.14
731.218	0.14
731.533	0.14
731.848	0.14
732.163	0.14
732.477	0.14
732.792	0.14
733.107	0.13
733.421	0.14
733.736	0.14
734.05	0.14
734.364	0.14
734.678	0.14
734.993	0.14
735.307	0.14
735.621	0.13
735.935	0.13
736.249	0.13
736.563	0.13
736.877	0.13
737.19	0.13
737.504	0.13
737.818	0.14
738.131	0.13
738.445	0.13
738.758	0.14
739.072	0.13
739.385	0.13
739.698	0.13
740.012	0.13
740.325	0.13
740.638	0.13
740.951	0.13
741.264	0.12
741.577	0.12
741.89	0.12
742.203	0.12
742.515	0.13
742.828	0.12
743.141	0.12
743.453	0.12
743.766	0.12
744.078	0.12
744.391	0.12
744.703	0.11
745.015	0.11
745.327	0.12
745.639	0.11
745.952	0.11
746.264	0.11
746.575	0.11
746.887	0.11
747.199	0.11
747.511	0.11
747.823	0.11
748.134	0.11
748.446	0.11
748.757	0.11
749.069	0.1
749.38	0.1
749.692	0.1
750.003	0.1
750.314	0.1
750.625	0.1
750.936	0.1
751.248	0.1
751.559	0.1
751.869	0.1
752.18	0.1
752.491	0.1
752.802	0.1
753.112	0.09
753.423	0.09
753.734	0.09
754.044	0.09
754.355	0.09
754.665	0.09
754.975	0.09
755.285	0.09
755.596	0.09
755.906	0.09
756.216	0.09
756.526	0.09
756.836	0.09
757.146	0.08
757.455	0.08
757.765	0.08
758.075	0.08
758.385	0.08
758.694	0.08
759.004	0.08
759.313	0.08
759.622	0.08
759.932	0.08
760.241	0.08
760.55	0.08
760.859	0.08
761.168	0.08
761.477	0.08
761.786	0.08
762.095	0.08
762.404	0.08
762.713	0.08
763.021	0.08
763.33	0.08
763.639	0.08
763.947	0.08
764.256	0.08
764.564	0.08
764.872	0.08
765.181	0.08
765.489	0.07
765.797	0.07
766.105	0.07
766.413	0.07
766.721	0.08
767.029	0.08
767.337	0.08
767.644	0.07
767.952	0.08
768.26	0.08
768.567	0.08
768.875	0.07
769.182	0.07
769.49	0.07
769.797	0.07
770.104	0.07
770.411	0.07
770.718	0.07
771.026	0.07
771.333	0.07
771.639	0.08
771.946	0.07
772.253	0.08
772.56	0.08
772.867	0.08
773.173	0.07
773.48	0.08
773.786	0.07
774.093	0.07
774.399	0.07
774.705	0.07
775.012	0.07
775.318	0.07
775.624	0.07
775.93	0.07
776.236	0.07
776.542	0.07
776.848	0.08
777.154	0.08
777.459	0.07
777.765	0.07
778.071	0.08
778.376	0.08
778.682	0.08
778.987	0.08
779.292	0.08
779.598	0.08
779.903	0.08
780.208	0.08
780.513	0.08
780.818	0.08
781.123	0.08
781.428	0.08
781.733	0.08
782.038	0.08
782.343	0.08
782.647	0.08
782.952	0.08
783.256	0.08
783.561	0.09
783.865	0.09
784.17	0.08
784.474	0.08
784.778	0.08
785.082	0.08
785.386	0.08
785.69	0.08
785.994	0.09
786.298	0.08
786.602	0.09
786.906	0.08
787.209	0.08
787.513	0.09
787.817	0.09
788.12	0.09
788.424	0.08
788.727	0.08
789.03	0.08
789.333	0.09
789.637	0.09
789.94	0.08
790.243	0.09
790.546	0.09
790.849	0.08
791.152	0.09
791.454	0.09
791.757	0.08
792.06	0.09
792.362	0.09
792.665	0.09
792.967	0.09
793.27	0.09
793.572	0.09
793.874	0.09
794.177	0.09
794.479	0.09
794.781	0.1
795.083	0.09
795.385	0.09
795.687	0.09
795.989	0.09
796.29	0.09
796.592	0.1
796.894	0.1
797.195	0.1
797.497	0.1
797.798	0.1
798.1	0.1
798.401	0.1
798.702	0.1
799.003	0.1
799.304	0.1
799.605	0.1
799.906	0.1
800.207	0.1
800.508	0.1
800.809	0.1
801.11	0.1
801.41	0.1
801.711	0.11
802.011	0.11
802.312	0.1
802.612	0.1
802.913	0.11
803.213	0.11
803.513	0.11
803.813	0.11
804.113	0.1
804.413	0.11
804.713	0.11
805.013	0.11
805.313	0.11
805.613	0.11
805.912	0.11
806.212	0.11
806.511	0.11
806.811	0.11
807.11	0.11
807.41	0.11
807.709	0.11
808.008	0.11
808.307	0.11
808.606	0.11
808.905	0.11
809.204	0.11
809.503	0.11
809.802	0.12
810.101	0.12
810.399	0.12
810.698	0.12
810.997	0.12
811.295	0.12
811.593	0.12
811.892	0.12
812.19	0.12
812.488	0.12
812.786	0.12
813.084	0.13
813.383	0.12
813.68	0.13
813.978	0.13
814.276	0.12
814.574	0.12
814.872	0.12
815.169	0.12
815.467	0.12
815.764	0.12
816.062	0.13
816.359	0.12
816.656	0.13
816.954	0.13
817.251	0.13
817.548	0.13
817.845	0.13
818.142	0.14
818.439	0.13
818.735	0.13
819.032	0.13
819.329	0.13
819.626	0.13
819.922	0.13
820.219	0.14
820.515	0.14
820.811	0.14
821.108	0.14
821.404	0.14
821.7	0.14
821.996	0.14
822.292	0.14
822.588	0.14
822.884	0.14
823.18	0.14
823.475	0.14
823.771	0.14
824.067	0.14
824.362	0.14
824.658	0.14
824.953	0.15
825.249	0.15
825.544	0.14
825.839	0.14
826.134	0.15
826.429	0.14
826.724	0.15
827.019	0.15
827.314	0.14
827.609	0.15
827.904	0.15
828.198	0.15
828.493	0.15
828.787	0.14
829.082	0.14
829.376	0.14
829.671	0.15
829.965	0.15
830.259	0.15
830.553	0.16
830.847	0.16
831.141	0.15
831.435	0.16
831.729	0.16
832.023	0.16
832.317	0.16
832.61	0.16
832.904	0.17
833.197	0.16
833.491	0.16
833.784	0.16
834.077	0.16
834.371	0.16
834.664	0.16
834.957	0.16
835.25	0.17
835.543	0.16
835.836	0.17
836.129	0.17
836.421	0.17
836.714	0.17
837.007	0.16
837.299	0.16
837.592	0.17
837.884	0.17
838.177	0.16
838.469	0.17
838.761	0.17
839.053	0.17
839.345	0.17
839.637	0.17
839.929	0.17
840.221	0.17
840.513	0.17
840.805	0.18
841.096	0.17
841.388	0.17
841.68	0.17
841.971	0.18
842.262	0.17
842.554	0.17
842.845	0.17
843.136	0.18
843.427	0.18
843.718	0.17
844.009	0.18
844.3	0.18
844.591	0.19
844.882	0.18
845.173	0.19
845.463	0.19
845.754	0.19
846.044	0.18
846.335	0.18
846.625	0.19
846.915	0.18
847.206	0.19
847.496	0.19
847.786	0.19
848.076	0.2
848.366	0.18
848.656	0.19
848.945	0.19
849.235	0.19
849.525	0.2
849.814	0.2
850.104	0.19
850.393	0.2
850.683	0.19
850.972	0.2
851.261	0.19
851.551	0.2
851.84	0.2
852.129	0.19
852.418	0.19
852.707	0.19
852.995	0.21
853.284	0.2
853.573	0.21
853.862	0.2
854.15	0.21
854.439	0.21
854.727	0.2
855.015	0.21
855.304	0.2
855.592	0.19
855.88	0.2
856.168	0.21
856.456	0.2
856.744	0.21
857.032	0.2
857.32	0.21
857.607	0.21
857.895	0.21
858.183	0.21
858.47	0.21
858.757	0.21
859.045	0.21
859.332	0.21
859.619	0.2
859.907	0.2
860.194	0.22
860.481	0.22
860.768	0.18
861.054	0.21
861.341	0.21
861.628	0.22
861.915	0.22
862.201	0.22
862.488	0.21
862.774	0.22
863.061	0.23
863.347	0.22
863.633	0.23
863.919	0.2
864.205	0.21
864.491	0.21
864.777	0.2
865.063	0.23
865.349	0.21
865.635	0.22
865.92	0.18
866.206	0.21
866.492	0.21
866.777	0.21
867.062	0.23
867.348	0.19
867.633	0.2
867.918	0.18
868.203	0.24
868.488	0.25
868.773	0.22
869.058	0.21
869.343	0.25
869.628	0.18
869.912	0.19
870.197	0.2
870.482	0.26
870.766	0.25
871.05	0.22
871.335	0.21
871.619	0.19
871.903	0.15
872.187	0.24
872.471	0.22
872.755	0.26
873.039	0.24
873.323	0.18
873.607	0.22
873.89	0.2
874.174	0.14
874.458	0.15
874.741	0.29
875.024	0.2
875.308	0.32
875.591	0.16
875.874	0.22
876.157	0.16
876.44	0.17
876.723	0.19
877.006	0.21
877.289	0.3
877.572	0.31
877.854	0.2
878.137	0.2
878.42	0.15
878.702	0.22
878.984	0.24
879.267	0.25
879.549	0.34
879.831	0.18
880.113	0.14
880.395	0.26
880.677	0.09
880.959	0.1
