Data from Rubpy_BV_1800_EDTA_Buffered_Absorbance_16-43-28-732.txt Node
Date: Wed Jul 01 16:43:28 BST 2026
User: fpm-admin
Spectrometer: OFX00224
Trigger mode: 0
Integration Time (sec): 7.000000E-2
Scans to average: 3
Nonlinearity correction enabled: false
Boxcar width: 0
Storing dark spectrum: false
XAxis mode: Wavelengths
Number of Pixels in Spectrum: 2136
>>>>>Begin Spectral Data<<<<<
154.91	-0
155.289	0.05
155.669	-0
156.048	-0
156.428	-0
156.807	-0.08
157.186	-0
157.566	0.22
157.945	-0
158.325	-0.04
158.704	-0.04
159.083	-0.03
159.462	0.3
159.842	-0
160.221	-0
160.6	-0
160.979	0.33
161.359	-0
161.738	-0.48
162.117	-0
162.496	-0.15
162.875	-0.08
163.254	0.2
163.633	-0
164.012	-0
164.391	0.62
164.77	0.09
165.149	0.18
165.528	-0
165.907	-0
166.286	-0
166.665	0.24
167.044	0.24
167.423	0.1
167.802	-0.49
168.181	-0.9
168.559	-0.15
168.938	0.62
169.317	0.63
169.696	-1.71
170.074	0.3
170.453	-0.39
170.832	-0.85
171.21	0.09
171.589	-0
171.968	0.83
172.346	0.05
172.725	-0
173.103	-0
173.482	0.29
173.861	-0
174.239	-0.34
174.617	-0
174.996	-0.28
175.374	-0
175.753	0.48
176.131	0.47
176.51	-0.26
176.888	-0
177.266	-0
177.645	-0.03
178.023	0.6
178.401	-0.27
178.779	0.08
179.158	0.9
179.536	0.79
179.914	0.48
180.292	0.02
180.67	1.2
181.048	0.46
181.427	-0.33
181.805	-0.34
182.183	-0.57
182.561	-0
182.939	-0
183.317	-0.71
183.695	0.23
184.073	-0
184.451	-0
184.829	-0.2
185.206	-0.3
185.584	-0
185.962	1.18
186.34	-0.1
186.718	-0.12
187.096	-0
187.473	0.4
187.851	-0
188.229	-0.29
188.607	0.19
188.984	0.08
189.362	0.06
189.74	0.18
190.117	0.14
190.495	0.15
190.872	0.13
191.25	0.11
191.627	0.17
192.005	0.11
192.382	0.17
192.76	0.18
193.137	0.28
193.515	0.19
193.892	0.21
194.269	0.21
194.647	0.09
195.024	0.1
195.401	0.23
195.779	0.11
196.156	0.19
196.533	0.16
196.91	0.15
197.288	0.15
197.665	0.12
198.042	0.13
198.419	0.18
198.796	0.2
199.173	0.16
199.55	0.28
199.927	0.15
200.304	0.13
200.681	0.17
201.058	0.17
201.435	0.16
201.812	0.14
202.189	0.14
202.566	0.31
202.943	0.12
203.32	0.24
203.697	0.26
204.073	0.01
204.45	0.37
204.827	0.12
205.204	0.05
205.58	0.21
205.957	0.21
206.334	0.14
206.71	0.13
207.087	0.13
207.464	0.19
207.84	0.35
208.217	0.2
208.593	0.04
208.97	0.19
209.346	0.21
209.723	0.25
210.099	0.3
210.476	0.13
210.852	0.36
211.228	0.18
211.605	0.27
211.981	0.14
212.357	0.29
212.733	0.2
213.11	0.32
213.486	0.27
213.862	0.19
214.238	0.2
214.614	0.17
214.991	0.27
215.367	0.5
215.743	0.16
216.119	0.14
216.495	0.18
216.871	0.13
217.247	0.19
217.623	0.17
217.999	0.21
218.375	0.26
218.751	0.13
219.127	0.11
219.502	0.11
219.878	0.15
220.254	0.25
220.63	0.21
221.006	0.13
221.381	0.2
221.757	0.28
222.133	0.2
222.508	0.3
222.884	0.16
223.26	0.09
223.635	0.11
224.011	0.15
224.386	0.15
224.762	0.22
225.137	0.24
225.513	0.12
225.888	0.18
226.264	0.19
226.639	0.12
227.014	0.29
227.39	0.18
227.765	0.16
228.14	0.15
228.516	0.23
228.891	0.16
229.266	0.09
229.641	0.2
230.017	0.31
230.392	0.22
230.767	0.34
231.142	0.37
231.517	0.23
231.892	0.22
232.267	0.36
232.642	0.24
233.017	0.1
233.392	0.17
233.767	0.22
234.142	0.16
234.517	0.09
234.892	0.23
235.267	0.13
235.641	0.22
236.016	0.21
236.391	0.12
236.766	0.26
237.14	0.19
237.515	0.33
237.89	0.21
238.264	0.14
238.639	0.19
239.014	0.27
239.388	0.17
239.763	0.17
240.137	0.02
240.512	0.17
240.886	0.25
241.261	0.25
241.635	0.11
242.009	0.22
242.384	0.15
242.758	0.07
243.132	0.05
243.507	0.13
243.881	0.28
244.255	0.12
244.629	0.15
245.004	0.23
245.378	0.15
245.752	0.14
246.126	0.14
246.5	0.14
246.874	0.18
247.248	0.28
247.622	0.2
247.996	0.26
248.37	0.23
248.744	0.18
249.118	-0.01
249.492	0.13
249.866	0.25
250.24	0.23
250.613	0.23
250.987	0.32
251.361	0.3
251.735	0.2
252.108	0.35
252.482	0.06
252.856	0.15
253.229	0.27
253.603	0.1
253.977	0.25
254.35	0.23
254.724	0.18
255.097	0.15
255.471	0.25
255.844	0.26
256.218	0.13
256.591	0.18
256.964	0.23
257.338	0.11
257.711	0.16
258.084	0.26
258.458	0.18
258.831	0.19
259.204	0.2
259.577	0.21
259.95	0.17
260.323	0.2
260.697	0.08
261.07	0.12
261.443	0.33
261.816	0.11
262.189	0.14
262.562	0.15
262.935	0.16
263.308	0.06
263.68	0.17
264.053	0.07
264.426	0.25
264.799	0.28
265.172	0.19
265.545	0.19
265.917	0.26
266.29	0.2
266.663	0.17
267.035	0.35
267.408	0.17
267.781	0.21
268.153	0.13
268.526	0.16
268.898	0.21
269.271	0.15
269.643	0.15
270.016	0.22
270.388	0.06
270.76	0.27
271.133	0.2
271.505	0.21
271.877	0.14
272.25	0.14
272.622	0.2
272.994	0.22
273.366	0.23
273.739	0.16
274.111	0.26
274.483	0.12
274.855	0.13
275.227	0.24
275.599	0.27
275.971	0.15
276.343	0.19
276.715	0.18
277.087	0.19
277.459	0.22
277.831	0.2
278.203	0.2
278.574	0.17
278.946	0.12
279.318	0.19
279.69	0.2
280.061	0.2
280.433	0.11
280.805	0.16
281.176	0.22
281.548	0.19
281.92	0.22
282.291	0.26
282.663	0.24
283.034	0.22
283.406	0.23
283.777	0.26
284.148	0.23
284.52	0.33
284.891	0.17
285.262	0.21
285.634	0.19
286.005	0.22
286.376	0.2
286.747	0.21
287.119	0.17
287.49	0.22
287.861	0.18
288.232	0.19
288.603	0.17
288.974	0.18
289.345	0.2
289.716	0.16
290.087	0.12
290.458	0.14
290.829	0.18
291.2	0.2
291.571	0.17
291.941	0.11
292.312	0.16
292.683	0.18
293.054	0.22
293.424	0.11
293.795	0.2
294.166	0.19
294.536	0.23
294.907	0.17
295.277	0.15
295.648	0.24
296.018	0.28
296.389	0.16
296.759	0.21
297.13	0.21
297.5	0.2
297.871	0.12
298.241	0.23
298.611	0.17
298.981	0.18
299.352	0.21
299.722	0.2
300.092	0.2
300.462	0.13
300.832	0.21
301.202	0.17
301.573	0.19
301.943	0.14
302.313	0.18
302.683	0.19
303.053	0.18
303.422	0.18
303.792	0.22
304.162	0.16
304.532	0.22
304.902	0.18
305.272	0.15
305.641	0.19
306.011	0.15
306.381	0.19
306.75	0.25
307.12	0.14
307.49	0.17
307.859	0.13
308.229	0.15
308.598	0.18
308.968	0.22
309.337	0.19
309.707	0.13
310.076	0.13
310.445	0.15
310.815	0.15
311.184	0.15
311.553	0.14
311.923	0.14
312.292	0.14
312.661	0.15
313.03	0.11
313.399	0.14
313.768	0.16
314.137	0.12
314.506	0.15
314.875	0.15
315.244	0.13
315.613	0.14
315.982	0.18
316.351	0.16
316.72	0.14
317.089	0.16
317.458	0.16
317.826	0.16
318.195	0.16
318.564	0.15
318.933	0.17
319.301	0.16
319.67	0.17
320.038	0.17
320.407	0.18
320.775	0.17
321.144	0.19
321.512	0.18
321.881	0.19
322.249	0.18
322.618	0.18
322.986	0.17
323.354	0.18
323.723	0.18
324.091	0.19
324.459	0.19
324.827	0.18
325.195	0.2
325.564	0.2
325.932	0.2
326.3	0.21
326.668	0.21
327.036	0.21
327.404	0.21
327.772	0.22
328.14	0.22
328.508	0.22
328.875	0.21
329.243	0.22
329.611	0.23
329.979	0.23
330.346	0.23
330.714	0.24
331.082	0.24
331.449	0.24
331.817	0.24
332.185	0.25
332.552	0.25
332.92	0.26
333.287	0.26
333.655	0.26
334.022	0.27
334.389	0.28
334.757	0.28
335.124	0.29
335.491	0.3
335.859	0.3
336.226	0.3
336.593	0.31
336.96	0.32
337.327	0.32
337.695	0.33
338.062	0.34
338.429	0.34
338.796	0.34
339.163	0.35
339.53	0.36
339.897	0.36
340.263	0.37
340.63	0.37
340.997	0.38
341.364	0.39
341.731	0.4
342.097	0.4
342.464	0.41
342.831	0.42
343.197	0.42
343.564	0.43
343.931	0.44
344.297	0.44
344.664	0.45
345.03	0.46
345.396	0.46
345.763	0.48
346.129	0.48
346.496	0.49
346.862	0.49
347.228	0.5
347.594	0.5
347.961	0.51
348.327	0.52
348.693	0.52
349.059	0.53
349.425	0.54
349.791	0.54
350.157	0.55
350.523	0.56
350.889	0.56
351.255	0.57
351.621	0.58
351.987	0.57
352.353	0.58
352.719	0.6
353.084	0.6
353.45	0.61
353.816	0.61
354.181	0.62
354.547	0.63
354.913	0.64
355.278	0.65
355.644	0.66
356.009	0.66
356.375	0.68
356.74	0.68
357.106	0.69
357.471	0.7
357.836	0.7
358.202	0.72
358.567	0.72
358.932	0.73
359.297	0.74
359.663	0.76
360.028	0.77
360.393	0.78
360.758	0.79
361.123	0.8
361.488	0.81
361.853	0.82
362.218	0.83
362.583	0.85
362.948	0.85
363.312	0.86
363.677	0.87
364.042	0.88
364.407	0.89
364.772	0.9
365.136	0.91
365.501	0.91
365.865	0.93
366.23	0.94
366.595	0.94
366.959	0.96
367.324	0.97
367.688	0.96
368.052	0.98
368.417	0.98
368.781	0.99
369.145	1.01
369.51	1.01
369.874	1.02
370.238	1.02
370.602	1.02
370.967	1.03
371.331	1.05
371.695	1.05
372.059	1.05
372.423	1.05
372.787	1.04
373.151	1.04
373.515	1.04
373.878	1.03
374.242	1.04
374.606	1.02
374.97	1.02
375.334	1.01
375.697	1
376.061	0.99
376.425	0.98
376.788	0.99
377.152	0.97
377.515	0.96
377.879	0.96
378.242	0.94
378.606	0.93
378.969	0.92
379.333	0.91
379.696	0.9
380.059	0.89
380.422	0.88
380.786	0.87
381.149	0.85
381.512	0.86
381.875	0.85
382.238	0.84
382.601	0.83
382.964	0.82
383.327	0.81
383.69	0.81
384.053	0.8
384.416	0.79
384.779	0.79
385.142	0.78
385.504	0.78
385.867	0.78
386.23	0.79
386.593	0.78
386.955	0.77
387.318	0.78
387.68	0.77
388.043	0.77
388.405	0.77
388.768	0.78
389.13	0.77
389.493	0.77
389.855	0.77
390.217	0.76
390.58	0.76
390.942	0.75
391.304	0.74
391.666	0.74
392.028	0.73
392.391	0.71
392.753	0.71
393.115	0.7
393.477	0.7
393.839	0.7
394.201	0.69
394.563	0.68
394.924	0.68
395.286	0.68
395.648	0.69
396.01	0.69
396.371	0.7
396.733	0.71
397.095	0.72
397.456	0.73
397.818	0.75
398.18	0.78
398.541	0.79
398.903	0.81
399.264	0.83
399.625	0.85
399.987	0.87
400.348	0.89
400.709	0.9
401.071	0.9
401.432	0.91
401.793	0.9
402.154	0.89
402.515	0.89
402.876	0.88
403.238	0.85
403.599	0.83
403.96	0.81
404.32	0.78
404.681	0.76
405.042	0.72
405.403	0.69
405.764	0.65
406.125	0.62
406.485	0.6
406.846	0.56
407.207	0.53
407.567	0.5
407.928	0.48
408.288	0.45
408.649	0.42
409.009	0.4
409.37	0.37
409.73	0.35
410.091	0.32
410.451	0.31
410.811	0.3
411.171	0.29
411.532	0.27
411.892	0.25
412.252	0.24
412.612	0.23
412.972	0.22
413.332	0.21
413.692	0.2
414.052	0.2
414.412	0.18
414.772	0.18
415.132	0.18
415.492	0.17
415.851	0.16
416.211	0.16
416.571	0.16
416.931	0.15
417.29	0.14
417.65	0.14
418.009	0.14
418.369	0.13
418.728	0.13
419.088	0.13
419.447	0.12
419.807	0.13
420.166	0.12
420.525	0.12
420.884	0.11
421.244	0.11
421.603	0.11
421.962	0.11
422.321	0.11
422.68	0.11
423.039	0.1
423.398	0.1
423.757	0.1
424.116	0.1
424.475	0.09
424.834	0.09
425.193	0.09
425.551	0.1
425.91	0.09
426.269	0.09
426.628	0.09
426.986	0.09
427.345	0.08
427.703	0.09
428.062	0.09
428.42	0.09
428.779	0.08
429.137	0.1
429.496	0.09
429.854	0.08
430.212	0.08
430.57	0.08
430.929	0.08
431.287	0.08
431.645	0.07
432.003	0.08
432.361	0.08
432.719	0.08
433.077	0.07
433.435	0.08
433.793	0.09
434.151	0.07
434.509	0.08
434.866	0.07
435.224	0.08
435.582	0.08
435.94	0.07
436.297	0.07
436.655	0.08
437.012	0.08
437.37	0.08
437.727	0.08
438.085	0.07
438.442	0.07
438.8	0.07
439.157	0.07
439.514	0.07
439.872	0.07
440.229	0.07
440.586	0.07
440.943	0.08
441.3	0.07
441.657	0.08
442.014	0.08
442.371	0.08
442.728	0.07
443.085	0.08
443.442	0.07
443.799	0.07
444.156	0.07
444.513	0.07
444.869	0.06
445.226	0.07
445.583	0.07
445.939	0.08
446.296	0.06
446.652	0.07
447.009	0.07
447.365	0.07
447.722	0.07
448.078	0.06
448.434	0.07
448.791	0.07
449.147	0.07
449.503	0.07
449.859	0.06
450.215	0.06
450.571	0.07
450.928	0.07
451.284	0.07
451.64	0.07
451.995	0.05
452.351	0.07
452.707	0.07
453.063	0.06
453.419	0.06
453.775	0.06
454.13	0.06
454.486	0.05
454.842	0.06
455.197	0.05
455.553	0.05
455.908	0.05
456.264	0.04
456.619	0.04
456.975	0.04
457.33	0.04
457.685	0.04
458.04	0.03
458.396	0.04
458.751	0.03
459.106	0.02
459.461	0.03
459.816	0.02
460.171	0.02
460.526	0.02
460.881	0.01
461.236	0.01
461.591	0.01
461.946	0
462.301	0
462.655	-0
463.01	-0
463.365	-0.01
463.719	-0.02
464.074	-0.02
464.428	-0.03
464.783	-0.03
465.137	-0.03
465.492	-0.03
465.846	-0.03
466.201	-0.03
466.555	-0.03
466.909	-0.02
467.263	-0.01
467.618	-0.02
467.972	-0.02
468.326	-0.02
468.68	-0.02
469.034	-0.03
469.388	-0.03
469.742	-0.03
470.096	-0.02
470.45	-0.02
470.804	-0.02
471.157	-0.03
471.511	-0.02
471.865	-0.02
472.218	-0.02
472.572	-0.01
472.926	-0.01
473.279	0
473.633	0.01
473.986	0.01
474.34	0.01
474.693	0.03
475.046	0.04
475.4	0.04
475.753	0.04
476.106	0.05
476.459	0.05
476.812	0.07
477.165	0.07
477.519	0.07
477.872	0.08
478.224	0.08
478.577	0.09
478.93	0.09
479.283	0.11
479.636	0.11
479.989	0.11
480.341	0.11
480.694	0.12
481.047	0.13
481.399	0.13
481.752	0.13
482.104	0.14
482.457	0.14
482.809	0.15
483.162	0.14
483.514	0.15
483.866	0.16
484.219	0.16
484.571	0.16
484.923	0.16
485.275	0.17
485.627	0.17
485.979	0.18
486.331	0.18
486.683	0.18
487.035	0.18
487.387	0.19
487.739	0.2
488.091	0.2
488.443	0.2
488.794	0.2
489.146	0.21
489.498	0.2
489.849	0.21
490.201	0.21
490.552	0.21
490.904	0.21
491.255	0.22
491.607	0.22
491.958	0.22
492.309	0.22
492.661	0.22
493.012	0.23
493.363	0.23
493.714	0.23
494.065	0.24
494.416	0.24
494.767	0.24
495.118	0.24
495.469	0.25
495.82	0.24
496.171	0.25
496.522	0.26
496.872	0.26
497.223	0.25
497.574	0.26
497.924	0.26
498.275	0.27
498.626	0.27
498.976	0.27
499.327	0.27
499.677	0.27
500.027	0.28
500.378	0.28
500.728	0.28
501.078	0.29
501.428	0.29
501.779	0.29
502.129	0.29
502.479	0.29
502.829	0.3
503.179	0.3
503.529	0.3
503.879	0.3
504.229	0.31
504.578	0.31
504.928	0.3
505.278	0.31
505.628	0.31
505.977	0.32
506.327	0.32
506.676	0.32
507.026	0.32
507.375	0.33
507.725	0.33
508.074	0.32
508.424	0.32
508.773	0.33
509.122	0.33
509.471	0.33
509.82	0.33
510.17	0.34
510.519	0.34
510.868	0.34
511.217	0.35
511.566	0.35
511.915	0.34
512.263	0.35
512.612	0.36
512.961	0.36
513.31	0.36
513.659	0.35
514.007	0.36
514.356	0.36
514.704	0.36
515.053	0.37
515.401	0.37
515.75	0.37
516.098	0.37
516.447	0.37
516.795	0.38
517.143	0.38
517.491	0.38
517.839	0.38
518.188	0.38
518.536	0.39
518.884	0.38
519.232	0.38
519.58	0.38
519.928	0.39
520.275	0.39
520.623	0.39
520.971	0.4
521.319	0.4
521.666	0.39
522.014	0.4
522.362	0.39
522.709	0.4
523.057	0.4
523.404	0.41
523.752	0.41
524.099	0.4
524.446	0.41
524.794	0.41
525.141	0.41
525.488	0.42
525.835	0.42
526.182	0.41
526.529	0.42
526.876	0.42
527.223	0.42
527.57	0.42
527.917	0.42
528.264	0.42
528.611	0.43
528.958	0.42
529.304	0.43
529.651	0.43
529.998	0.43
530.344	0.43
530.691	0.44
531.037	0.44
531.384	0.44
531.73	0.43
532.076	0.44
532.423	0.44
532.769	0.44
533.115	0.44
533.461	0.44
533.807	0.44
534.154	0.44
534.5	0.44
534.846	0.44
535.192	0.45
535.537	0.45
535.883	0.45
536.229	0.45
536.575	0.45
536.921	0.45
537.266	0.45
537.612	0.46
537.957	0.45
538.303	0.46
538.649	0.46
538.994	0.46
539.339	0.46
539.685	0.46
540.03	0.46
540.375	0.46
540.721	0.46
541.066	0.46
541.411	0.46
541.756	0.46
542.101	0.47
542.446	0.47
542.791	0.47
543.136	0.47
543.481	0.47
543.825	0.47
544.17	0.47
544.515	0.47
544.86	0.47
545.204	0.47
545.549	0.47
545.893	0.48
546.238	0.48
546.582	0.48
546.927	0.47
547.271	0.48
547.615	0.48
547.96	0.48
548.304	0.48
548.648	0.48
548.992	0.48
549.336	0.48
549.68	0.48
550.024	0.49
550.368	0.48
550.712	0.48
551.056	0.48
551.4	0.48
551.743	0.48
552.087	0.48
552.431	0.48
552.774	0.48
553.118	0.48
553.462	0.48
553.805	0.48
554.148	0.48
554.492	0.48
554.835	0.48
555.178	0.48
555.522	0.48
555.865	0.48
556.208	0.48
556.551	0.48
556.894	0.48
557.237	0.48
557.58	0.48
557.923	0.48
558.266	0.48
558.609	0.48
558.952	0.48
559.294	0.48
559.637	0.48
559.98	0.48
560.322	0.48
560.665	0.48
561.007	0.48
561.35	0.48
561.692	0.48
562.034	0.48
562.377	0.48
562.719	0.47
563.061	0.48
563.403	0.47
563.745	0.48
564.088	0.48
564.43	0.48
564.772	0.48
565.113	0.48
565.455	0.47
565.797	0.48
566.139	0.48
566.481	0.48
566.822	0.47
567.164	0.48
567.506	0.47
567.847	0.48
568.189	0.47
568.53	0.47
568.872	0.47
569.213	0.47
569.554	0.47
569.895	0.47
570.237	0.47
570.578	0.47
570.919	0.47
571.26	0.46
571.601	0.47
571.942	0.46
572.283	0.46
572.624	0.46
572.965	0.46
573.306	0.46
573.646	0.46
573.987	0.46
574.328	0.46
574.668	0.45
575.009	0.45
575.349	0.45
575.69	0.45
576.03	0.45
576.37	0.45
576.711	0.44
577.051	0.45
577.391	0.45
577.731	0.45
578.072	0.45
578.412	0.45
578.752	0.45
579.092	0.44
579.431	0.43
579.771	0.42
580.111	0.42
580.451	0.43
580.791	0.44
581.13	0.44
581.47	0.44
581.81	0.44
582.149	0.43
582.489	0.44
582.828	0.43
583.167	0.41
583.507	0.37
583.846	0.37
584.185	0.41
584.525	0.42
584.864	0.43
585.203	0.44
585.542	0.44
585.881	0.44
586.22	0.43
586.559	0.43
586.898	0.42
587.236	0.42
587.575	0.42
587.914	0.42
588.252	0.43
588.591	0.43
588.93	0.43
589.268	0.43
589.607	0.43
589.945	0.43
590.283	0.43
590.622	0.43
590.96	0.43
591.298	0.44
591.636	0.43
591.974	0.44
592.313	0.44
592.651	0.44
592.989	0.43
593.326	0.43
593.664	0.44
594.002	0.44
594.34	0.43
594.678	0.43
595.015	0.42
595.353	0.42
595.691	0.43
596.028	0.44
596.366	0.44
596.703	0.43
597.04	0.44
597.378	0.44
597.715	0.44
598.052	0.44
598.389	0.44
598.726	0.44
599.064	0.43
599.401	0.43
599.738	0.43
600.074	0.43
600.411	0.43
600.748	0.43
601.085	0.43
601.422	0.43
601.758	0.43
602.095	0.43
602.432	0.43
602.768	0.43
603.105	0.43
603.441	0.43
603.777	0.43
604.114	0.43
604.45	0.43
604.786	0.43
605.122	0.43
605.459	0.43
605.795	0.43
606.131	0.43
606.467	0.43
606.803	0.43
607.139	0.42
607.474	0.42
607.81	0.42
608.146	0.42
608.482	0.42
608.817	0.42
609.153	0.42
609.488	0.42
609.824	0.42
610.159	0.42
610.495	0.42
610.83	0.42
611.165	0.42
611.5	0.41
611.836	0.41
612.171	0.41
612.506	0.41
612.841	0.41
613.176	0.4
613.511	0.41
613.845	0.4
614.18	0.4
614.515	0.4
614.85	0.4
615.184	0.4
615.519	0.4
615.854	0.39
616.188	0.39
616.523	0.39
616.857	0.39
617.191	0.39
617.526	0.39
617.86	0.39
618.194	0.39
618.528	0.39
618.862	0.39
619.196	0.39
619.53	0.38
619.864	0.38
620.198	0.38
620.532	0.38
620.866	0.38
621.2	0.38
621.533	0.37
621.867	0.37
622.201	0.37
622.534	0.37
622.868	0.37
623.201	0.37
623.534	0.37
623.868	0.37
624.201	0.37
624.534	0.36
624.868	0.36
625.201	0.36
625.534	0.36
625.867	0.35
626.2	0.35
626.533	0.35
626.865	0.35
627.198	0.35
627.531	0.35
627.864	0.35
628.196	0.35
628.529	0.34
628.862	0.34
629.194	0.34
629.527	0.34
629.859	0.33
630.191	0.34
630.524	0.34
630.856	0.33
631.188	0.33
631.52	0.33
631.852	0.32
632.184	0.32
632.516	0.32
632.848	0.32
633.18	0.32
633.512	0.32
633.844	0.31
634.175	0.31
634.507	0.31
634.839	0.31
635.17	0.31
635.502	0.3
635.833	0.3
636.165	0.3
636.496	0.3
636.827	0.3
637.159	0.29
637.49	0.29
637.821	0.29
638.152	0.29
638.483	0.28
638.814	0.28
639.145	0.28
639.476	0.28
639.807	0.28
640.137	0.27
640.468	0.27
640.799	0.27
641.129	0.27
641.46	0.27
641.791	0.27
642.121	0.27
642.451	0.26
642.782	0.26
643.112	0.26
643.442	0.26
643.773	0.26
644.103	0.26
644.433	0.26
644.763	0.25
645.093	0.25
645.423	0.25
645.753	0.25
646.082	0.25
646.412	0.25
646.742	0.25
647.072	0.25
647.401	0.25
647.731	0.24
648.06	0.24
648.39	0.24
648.719	0.24
649.048	0.24
649.378	0.24
649.707	0.24
650.036	0.24
650.365	0.23
650.694	0.23
651.023	0.23
651.352	0.23
651.681	0.23
652.01	0.23
652.339	0.23
652.668	0.23
652.996	0.23
653.325	0.23
653.654	0.23
653.982	0.23
654.311	0.23
654.639	0.23
654.967	0.23
655.296	0.23
655.624	0.22
655.952	0.23
656.28	0.22
656.609	0.22
656.937	0.22
657.265	0.21
657.593	0.08
657.92	0.01
658.248	0
658.576	0.04
658.904	0.16
659.231	0.21
659.559	0.22
659.887	0.22
660.214	0.22
660.542	0.21
660.869	0.21
661.196	0.21
661.524	0.21
661.851	0.21
662.178	0.21
662.505	0.21
662.832	0.21
663.159	0.21
663.486	0.21
663.813	0.21
664.14	0.21
664.467	0.21
664.794	0.2
665.12	0.2
665.447	0.2
665.774	0.2
666.1	0.2
666.427	0.2
666.753	0.2
667.079	0.2
667.406	0.2
667.732	0.2
668.058	0.19
668.384	0.2
668.71	0.19
669.036	0.19
669.362	0.19
669.688	0.19
670.014	0.19
670.34	0.19
670.666	0.18
670.991	0.19
671.317	0.18
671.643	0.18
671.968	0.18
672.294	0.18
672.619	0.18
672.945	0.18
673.27	0.18
673.595	0.17
673.92	0.17
674.246	0.17
674.571	0.17
674.896	0.17
675.221	0.17
675.546	0.17
675.87	0.17
676.195	0.16
676.52	0.16
676.845	0.16
677.169	0.16
677.494	0.16
677.819	0.16
678.143	0.15
678.468	0.15
678.792	0.15
679.116	0.15
679.44	0.15
679.765	0.15
680.089	0.15
680.413	0.14
680.737	0.14
681.061	0.14
681.385	0.14
681.709	0.14
682.033	0.14
682.356	0.14
682.68	0.14
683.004	0.14
683.327	0.13
683.651	0.13
683.974	0.13
684.298	0.13
684.621	0.13
684.944	0.12
685.268	0.13
685.591	0.12
685.914	0.12
686.237	0.12
686.56	0.12
686.883	0.11
687.206	0.11
687.529	0.11
687.852	0.11
688.175	0.11
688.497	0.11
688.82	0.11
689.142	0.11
689.465	0.11
689.787	0.11
690.11	0.11
690.432	0.1
690.755	0.1
691.077	0.1
691.399	0.1
691.721	0.1
692.043	0.1
692.365	0.1
692.687	0.09
693.009	0.09
693.331	0.09
693.653	0.09
693.974	0.09
694.296	0.09
694.618	0.09
694.939	0.09
695.261	0.09
695.582	0.08
695.904	0.08
696.225	0.08
696.546	0.08
696.868	0.08
697.189	0.08
697.51	0.08
697.831	0.08
698.152	0.08
698.473	0.08
698.794	0.07
699.114	0.07
699.435	0.07
699.756	0.07
700.077	0.08
700.397	0.07
700.718	0.07
701.038	0.07
701.359	0.07
701.679	0.07
701.999	0.07
702.32	0.07
702.64	0.07
702.96	0.07
703.28	0.07
703.6	0.07
703.92	0.07
704.24	0.07
704.56	0.07
704.879	0.07
705.199	0.07
705.519	0.07
705.838	0.07
706.158	0.07
706.478	0.07
706.797	0.07
707.116	0.07
707.436	0.07
707.755	0.07
708.074	0.06
708.393	0.06
708.712	0.06
709.031	0.05
709.35	0.06
709.669	0.05
709.988	0.06
710.307	0.06
710.626	0.06
710.944	0.06
711.263	0.06
711.582	0.06
711.9	0.06
712.219	0.06
712.537	0.06
712.855	0.06
713.174	0.06
713.492	0.06
713.81	0.06
714.128	0.06
714.446	0.06
714.764	0.06
715.082	0.06
715.4	0.06
715.718	0.06
716.035	0.06
716.353	0.06
716.671	0.06
716.988	0.06
717.306	0.06
717.623	0.06
717.941	0.07
718.258	0.06
718.575	0.07
718.893	0.07
719.21	0.06
719.527	0.06
719.844	0.07
720.161	0.06
720.478	0.07
720.795	0.07
721.112	0.07
721.428	0.07
721.745	0.06
722.062	0.07
722.378	0.07
722.695	0.07
723.011	0.07
723.328	0.07
723.644	0.07
723.96	0.07
724.276	0.07
724.593	0.07
724.909	0.07
725.225	0.07
725.541	0.07
725.857	0.07
726.173	0.07
726.488	0.07
726.804	0.07
727.12	0.07
727.435	0.07
727.751	0.07
728.067	0.07
728.382	0.07
728.697	0.07
729.013	0.07
729.328	0.07
729.643	0.07
729.958	0.07
730.273	0.07
730.588	0.06
730.903	0.07
731.218	0.06
731.533	0.07
731.848	0.06
732.163	0.07
732.477	0.06
732.792	0.06
733.107	0.06
733.421	0.07
733.736	0.06
734.05	0.06
734.364	0.06
734.678	0.06
734.993	0.06
735.307	0.06
735.621	0.06
735.935	0.06
736.249	0.06
736.563	0.06
736.877	0.06
737.19	0.06
737.504	0.06
737.818	0.06
738.131	0.06
738.445	0.06
738.758	0.06
739.072	0.06
739.385	0.06
739.698	0.06
740.012	0.06
740.325	0.06
740.638	0.06
740.951	0.06
741.264	0.05
741.577	0.06
741.89	0.06
742.203	0.06
742.515	0.06
742.828	0.06
743.141	0.06
743.453	0.05
743.766	0.05
744.078	0.05
744.391	0.05
744.703	0.05
745.015	0.05
745.327	0.05
745.639	0.05
745.952	0.05
746.264	0.05
746.575	0.05
746.887	0.05
747.199	0.05
747.511	0.05
747.823	0.05
748.134	0.05
748.446	0.05
748.757	0.05
749.069	0.05
749.38	0.05
749.692	0.05
750.003	0.05
750.314	0.05
750.625	0.05
750.936	0.04
751.248	0.04
751.559	0.04
751.869	0.04
752.18	0.04
752.491	0.04
752.802	0.04
753.112	0.04
753.423	0.04
753.734	0.04
754.044	0.04
754.355	0.04
754.665	0.04
754.975	0.04
755.285	0.04
755.596	0.04
755.906	0.04
756.216	0.04
756.526	0.04
756.836	0.03
757.146	0.03
757.455	0.03
757.765	0.03
758.075	0.03
758.385	0.03
758.694	0.03
759.004	0.03
759.313	0.03
759.622	0.03
759.932	0.03
760.241	0.03
760.55	0.03
760.859	0.03
761.168	0.03
761.477	0.03
761.786	0.03
762.095	0.03
762.404	0.03
762.713	0.03
763.021	0.03
763.33	0.03
763.639	0.03
763.947	0.03
764.256	0.03
764.564	0.03
764.872	0.03
765.181	0.03
765.489	0.03
765.797	0.03
766.105	0.03
766.413	0.03
766.721	0.03
767.029	0.03
767.337	0.03
767.644	0.03
767.952	0.03
768.26	0.03
768.567	0.03
768.875	0.03
769.182	0.03
769.49	0.03
769.797	0.03
770.104	0.03
770.411	0.03
770.718	0.03
771.026	0.03
771.333	0.03
771.639	0.03
771.946	0.03
772.253	0.03
772.56	0.03
772.867	0.03
773.173	0.03
773.48	0.03
773.786	0.02
774.093	0.03
774.399	0.03
774.705	0.03
775.012	0.03
775.318	0.03
775.624	0.03
775.93	0.03
776.236	0.03
776.542	0.03
776.848	0.03
777.154	0.03
777.459	0.03
777.765	0.03
778.071	0.03
778.376	0.03
778.682	0.03
778.987	0.03
779.292	0.03
779.598	0.03
779.903	0.03
780.208	0.03
780.513	0.03
780.818	0.03
781.123	0.03
781.428	0.03
781.733	0.03
782.038	0.03
782.343	0.03
782.647	0.03
782.952	0.03
783.256	0.03
783.561	0.03
783.865	0.03
784.17	0.03
784.474	0.03
784.778	0.03
785.082	0.03
785.386	0.03
785.69	0.03
785.994	0.03
786.298	0.03
786.602	0.03
786.906	0.03
787.209	0.03
787.513	0.03
787.817	0.03
788.12	0.03
788.424	0.03
788.727	0.03
789.03	0.03
789.333	0.03
789.637	0.03
789.94	0.03
790.243	0.03
790.546	0.03
790.849	0.03
791.152	0.03
791.454	0.03
791.757	0.02
792.06	0.03
792.362	0.03
792.665	0.03
792.967	0.03
793.27	0.03
793.572	0.03
793.874	0.03
794.177	0.03
794.479	0.03
794.781	0.03
795.083	0.03
795.385	0.03
795.687	0.03
795.989	0.03
796.29	0.03
796.592	0.03
796.894	0.03
797.195	0.03
797.497	0.04
797.798	0.03
798.1	0.03
798.401	0.03
798.702	0.04
799.003	0.03
799.304	0.04
799.605	0.03
799.906	0.03
800.207	0.03
800.508	0.04
800.809	0.03
801.11	0.03
801.41	0.03
801.711	0.04
802.011	0.03
802.312	0.03
802.612	0.03
802.913	0.03
803.213	0.03
803.513	0.04
803.813	0.04
804.113	0.03
804.413	0.03
804.713	0.04
805.013	0.04
805.313	0.04
805.613	0.04
805.912	0.04
806.212	0.04
806.511	0.04
806.811	0.04
807.11	0.04
807.41	0.04
807.709	0.04
808.008	0.04
808.307	0.03
808.606	0.04
808.905	0.03
809.204	0.04
809.503	0.04
809.802	0.04
810.101	0.04
810.399	0.04
810.698	0.04
810.997	0.04
811.295	0.04
811.593	0.04
811.892	0.04
812.19	0.04
812.488	0.04
812.786	0.04
813.084	0.04
813.383	0.04
813.68	0.04
813.978	0.04
814.276	0.04
814.574	0.04
814.872	0.04
815.169	0.04
815.467	0.04
815.764	0.04
816.062	0.05
816.359	0.04
816.656	0.05
816.954	0.04
817.251	0.05
817.548	0.04
817.845	0.04
818.142	0.04
818.439	0.04
818.735	0.05
819.032	0.05
819.329	0.05
819.626	0.04
819.922	0.04
820.219	0.05
820.515	0.05
820.811	0.04
821.108	0.05
821.404	0.04
821.7	0.04
821.996	0.04
822.292	0.05
822.588	0.05
822.884	0.04
823.18	0.05
823.475	0.04
823.771	0.05
824.067	0.04
824.362	0.05
824.658	0.04
824.953	0.05
825.249	0.05
825.544	0.05
825.839	0.05
826.134	0.05
826.429	0.05
826.724	0.05
827.019	0.05
827.314	0.05
827.609	0.05
827.904	0.05
828.198	0.05
828.493	0.05
828.787	0.05
829.082	0.05
829.376	0.04
829.671	0.05
829.965	0.05
830.259	0.05
830.553	0.05
830.847	0.05
831.141	0.05
831.435	0.06
831.729	0.05
832.023	0.06
832.317	0.05
832.61	0.05
832.904	0.05
833.197	0.05
833.491	0.06
833.784	0.05
834.077	0.05
834.371	0.05
834.664	0.05
834.957	0.04
835.25	0.06
835.543	0.05
835.836	0.06
836.129	0.05
836.421	0.06
836.714	0.05
837.007	0.06
837.299	0.06
837.592	0.06
837.884	0.06
838.177	0.05
838.469	0.06
838.761	0.05
839.053	0.06
839.345	0.07
839.637	0.06
839.929	0.06
840.221	0.05
840.513	0.06
840.805	0.06
841.096	0.05
841.388	0.05
841.68	0.05
841.971	0.05
842.262	0.05
842.554	0.05
842.845	0.06
843.136	0.06
843.427	0.06
843.718	0.06
844.009	0.05
844.3	0.06
844.591	0.06
844.882	0.06
845.173	0.06
845.463	0.06
845.754	0.06
846.044	0.05
846.335	0.05
846.625	0.05
846.915	0.05
847.206	0.06
847.496	0.06
847.786	0.06
848.076	0.08
848.366	0.06
848.656	0.07
848.945	0.06
849.235	0.05
849.525	0.06
849.814	0.06
850.104	0.06
850.393	0.06
850.683	0.07
850.972	0.07
851.261	0.06
851.551	0.08
851.84	0.06
852.129	0.07
852.418	0.06
852.707	0.06
852.995	0.06
853.284	0.07
853.573	0.06
853.862	0.06
854.15	0.07
854.439	0.07
854.727	0.07
855.015	0.06
855.304	0.07
855.592	0.07
855.88	0.06
856.168	0.06
856.456	0.07
856.744	0.07
857.032	0.06
857.32	0.06
857.607	0.07
857.895	0.06
858.183	0.07
858.47	0.08
858.757	0.07
859.045	0.07
859.332	0.06
859.619	0.06
859.907	0.08
860.194	0.07
860.481	0.08
860.768	0.05
861.054	0.07
861.341	0.07
861.628	0.07
861.915	0.09
862.201	0.05
862.488	0.08
862.774	0.08
863.061	0.06
863.347	0.08
863.633	0.08
863.919	0.05
864.205	0.07
864.491	0.06
864.777	0.07
865.063	0.05
865.349	0.06
865.635	0.07
865.92	0.05
866.206	0.06
866.492	0.05
866.777	0.07
867.062	0.07
867.348	0.05
867.633	0.06
867.918	0.03
868.203	0.08
868.488	0.04
868.773	0.1
869.058	0.09
869.343	0.08
869.628	0.06
869.912	0.09
870.197	0.07
870.482	0.1
870.766	0.06
871.05	0.09
871.335	0.04
871.619	0.07
871.903	0.06
872.187	0.07
872.471	0.04
872.755	0.08
873.039	0.03
873.323	0.06
873.607	0.04
873.89	0.06
874.174	0
874.458	0.01
874.741	0.03
875.024	0.04
875.308	0.08
875.591	0.08
875.874	0.06
876.157	0.03
876.44	0.03
876.723	-0
877.006	0.06
877.289	0.07
877.572	0.08
877.854	0.03
878.137	0.05
878.42	0.01
878.702	-0
878.984	0.01
879.267	0.04
879.549	0.2
879.831	0.06
880.113	0.02
880.395	-0.01
880.677	0.01
880.959	-0.06
