Data from Rubpy_BV_1800_EDTA_Buffered_Absorbance_17-05-20-680.txt Node
Date: Wed Jul 01 17:05:20 BST 2026
User: fpm-admin
Spectrometer: OFX00224
Trigger mode: 0
Integration Time (sec): 7.000000E-2
Scans to average: 3
Nonlinearity correction enabled: false
Boxcar width: 0
Storing dark spectrum: false
XAxis mode: Wavelengths
Number of Pixels in Spectrum: 2136
>>>>>Begin Spectral Data<<<<<
154.91	-0
155.289	-0.52
155.669	1.06
156.048	-0
156.428	-0
156.807	0.16
157.186	-1.23
157.566	-0.22
157.945	-0
158.325	-0.35
158.704	-0.03
159.083	0.01
159.462	-0
159.842	-0
160.221	-0
160.6	-0
160.979	-0
161.359	-0.16
161.738	-0
162.117	0.3
162.496	-0.3
162.875	-0.35
163.254	0.21
163.633	-0
164.012	0.23
164.391	0.13
164.77	0.14
165.149	-0.87
165.528	-0
165.907	0.09
166.286	-0.19
166.665	-0.04
167.044	0.07
167.423	0.07
167.802	-0.25
168.181	-0.48
168.559	-0.68
168.938	-0
169.317	-0.11
169.696	-0.78
170.074	-0
170.453	-0.41
170.832	-0
171.21	0.19
171.589	-0
171.968	0.28
172.346	0.05
172.725	-0
173.103	-0.22
173.482	-0
173.861	-0
174.239	-0
174.617	0.3
174.996	-0.23
175.374	-0
175.753	-0.86
176.131	0.28
176.51	-0
176.888	-0
177.266	-0
177.645	0.03
178.023	0.33
178.401	-0.12
178.779	-0.15
179.158	-0.05
179.536	0.17
179.914	0.35
180.292	-0.24
180.67	-0.03
181.048	0.7
181.427	0.9
181.805	-0
182.183	-0.27
182.561	-0.1
182.939	0.88
183.317	-0.52
183.695	-0.07
184.073	-0
184.451	-0.08
184.829	-0.03
185.206	-0.5
185.584	-0
185.962	0.48
186.34	-0.31
186.718	-0.14
187.096	-0
187.473	0.4
187.851	-0.28
188.229	-0.45
188.607	0.1
188.984	0.31
189.362	0.42
189.74	0.4
190.117	0.22
190.495	0.34
190.872	0.24
191.25	0.44
191.627	0.34
192.005	0.28
192.382	0.34
192.76	0.49
193.137	0.32
193.515	0.32
193.892	0.34
194.269	0.31
194.647	0.67
195.024	0.22
195.401	0.4
195.779	0.46
196.156	0.54
196.533	0.57
196.91	0.37
197.288	0.33
197.665	0.26
198.042	0.23
198.419	0.24
198.796	0.53
199.173	0.82
199.55	0.33
199.927	0.36
200.304	0.31
200.681	0.33
201.058	0.13
201.435	0.32
201.812	0.34
202.189	0.23
202.566	0.31
202.943	0.43
203.32	0.37
203.697	0.28
204.073	0.34
204.45	0.4
204.827	0.34
205.204	0.34
205.58	0.57
205.957	0.32
206.334	0.45
206.71	0.38
207.087	0.88
207.464	0.45
207.84	0.5
208.217	0.27
208.593	0.23
208.97	0.33
209.346	0.4
209.723	0.25
210.099	0.44
210.476	0.47
210.852	0.38
211.228	0.4
211.605	0.39
211.981	0.39
212.357	0.54
212.733	0.28
213.11	0.37
213.486	0.36
213.862	0.24
214.238	0.58
214.614	0.37
214.991	0.37
215.367	0.37
215.743	0.31
216.119	0.31
216.495	0.51
216.871	0.33
217.247	0.34
217.623	0.15
217.999	0.47
218.375	0.4
218.751	0.41
219.127	0.32
219.502	0.28
219.878	0.27
220.254	0.43
220.63	0.44
221.006	0.67
221.381	0.47
221.757	0.38
222.133	0.4
222.508	0.53
222.884	0.33
223.26	0.36
223.635	0.34
224.011	0.45
224.386	0.31
224.762	0.51
225.137	0.39
225.513	0.41
225.888	0.36
226.264	0.2
226.639	0.31
227.014	0.41
227.39	0.27
227.765	0.29
228.14	0.3
228.516	0.5
228.891	0.36
229.266	0.28
229.641	0.36
230.017	0.38
230.392	0.33
230.767	0.44
231.142	0.45
231.517	0.41
231.892	0.36
232.267	0.38
232.642	0.5
233.017	0.29
233.392	0.42
233.767	0.34
234.142	0.4
234.517	0.21
234.892	0.44
235.267	0.35
235.641	0.48
236.016	0.34
236.391	0.36
236.766	0.44
237.14	0.35
237.515	0.48
237.89	0.3
238.264	0.45
238.639	0.28
239.014	0.49
239.388	0.32
239.763	0.38
240.137	0.24
240.512	0.32
240.886	0.36
241.261	0.44
241.635	0.33
242.009	0.49
242.384	0.23
242.758	0.36
243.132	0.35
243.507	0.31
243.881	0.27
244.255	0.35
244.629	0.43
245.004	0.61
245.378	0.36
245.752	0.3
246.126	0.24
246.5	0.35
246.874	0.35
247.248	0.38
247.622	0.5
247.996	0.34
248.37	0.34
248.744	0.28
249.118	0.08
249.492	0.23
249.866	0.35
250.24	0.34
250.613	0.45
250.987	0.57
251.361	0.43
251.735	0.36
252.108	0.46
252.482	0.29
252.856	0.31
253.229	0.4
253.603	0.31
253.977	0.43
254.35	0.49
254.724	0.33
255.097	0.31
255.471	0.35
255.844	0.36
256.218	0.38
256.591	0.25
256.964	0.34
257.338	0.33
257.711	0.43
258.084	0.26
258.458	0.34
258.831	0.47
259.204	0.49
259.577	0.43
259.95	0.44
260.323	0.48
260.697	0.32
261.07	0.33
261.443	0.61
261.816	0.34
262.189	0.55
262.562	0.39
262.935	0.36
263.308	0.35
263.68	0.42
264.053	0.43
264.426	0.33
264.799	0.42
265.172	0.34
265.545	0.36
265.917	0.34
266.29	0.37
266.663	0.39
267.035	0.33
267.408	0.37
267.781	0.45
268.153	0.3
268.526	0.63
268.898	0.42
269.271	0.31
269.643	0.37
270.016	0.43
270.388	0.22
270.76	0.34
271.133	0.37
271.505	0.36
271.877	0.31
272.25	0.43
272.622	0.36
272.994	0.45
273.366	0.38
273.739	0.26
274.111	0.42
274.483	0.33
274.855	0.36
275.227	0.5
275.599	0.38
275.971	0.42
276.343	0.32
276.715	0.35
277.087	0.32
277.459	0.3
277.831	0.36
278.203	0.36
278.574	0.36
278.946	0.36
279.318	0.25
279.69	0.48
280.061	0.38
280.433	0.35
280.805	0.44
281.176	0.37
281.548	0.39
281.92	0.37
282.291	0.44
282.663	0.38
283.034	0.43
283.406	0.49
283.777	0.42
284.148	0.48
284.52	0.35
284.891	0.43
285.262	0.34
285.634	0.33
286.005	0.43
286.376	0.35
286.747	0.34
287.119	0.33
287.49	0.5
287.861	0.4
288.232	0.42
288.603	0.42
288.974	0.37
289.345	0.35
289.716	0.39
290.087	0.28
290.458	0.41
290.829	0.37
291.2	0.42
291.571	0.5
291.941	0.38
292.312	0.38
292.683	0.42
293.054	0.53
293.424	0.42
293.795	0.36
294.166	0.39
294.536	0.41
294.907	0.41
295.277	0.46
295.648	0.43
296.018	0.48
296.389	0.29
296.759	0.34
297.13	0.45
297.5	0.43
297.871	0.4
298.241	0.48
298.611	0.39
298.981	0.37
299.352	0.42
299.722	0.33
300.092	0.46
300.462	0.54
300.832	0.47
301.202	0.42
301.573	0.45
301.943	0.42
302.313	0.4
302.683	0.34
303.053	0.33
303.422	0.39
303.792	0.41
304.162	0.38
304.532	0.48
304.902	0.34
305.272	0.45
305.641	0.42
306.011	0.34
306.381	0.36
306.75	0.37
307.12	0.28
307.49	0.39
307.859	0.28
308.229	0.3
308.598	0.39
308.968	0.32
309.337	0.34
309.707	0.28
310.076	0.32
310.445	0.28
310.815	0.31
311.184	0.29
311.553	0.29
311.923	0.27
312.292	0.28
312.661	0.28
313.03	0.29
313.399	0.3
313.768	0.31
314.137	0.29
314.506	0.3
314.875	0.3
315.244	0.29
315.613	0.31
315.982	0.33
316.351	0.32
316.72	0.31
317.089	0.31
317.458	0.33
317.826	0.34
318.195	0.33
318.564	0.34
318.933	0.34
319.301	0.35
319.67	0.32
320.038	0.37
320.407	0.37
320.775	0.39
321.144	0.38
321.512	0.37
321.881	0.39
322.249	0.39
322.618	0.38
322.986	0.39
323.354	0.41
323.723	0.4
324.091	0.42
324.459	0.43
324.827	0.44
325.195	0.44
325.564	0.45
325.932	0.43
326.3	0.46
326.668	0.46
327.036	0.46
327.404	0.49
327.772	0.49
328.14	0.47
328.508	0.49
328.875	0.5
329.243	0.53
329.611	0.52
329.979	0.53
330.346	0.53
330.714	0.55
331.082	0.56
331.449	0.55
331.817	0.57
332.185	0.58
332.552	0.58
332.92	0.6
333.287	0.61
333.655	0.62
334.022	0.64
334.389	0.64
334.757	0.66
335.124	0.67
335.491	0.69
335.859	0.69
336.226	0.7
336.593	0.72
336.96	0.74
337.327	0.75
337.695	0.77
338.062	0.79
338.429	0.78
338.796	0.82
339.163	0.82
339.53	0.83
339.897	0.84
340.263	0.87
340.63	0.88
340.997	0.89
341.364	0.92
341.731	0.93
342.097	0.93
342.464	0.95
342.831	0.98
343.197	0.98
343.564	1.01
343.931	1.01
344.297	1.03
344.664	1.06
345.03	1.06
345.396	1.08
345.763	1.1
346.129	1.1
346.496	1.12
346.862	1.14
347.228	1.15
347.594	1.18
347.961	1.19
348.327	1.2
348.693	1.21
349.059	1.23
349.425	1.25
349.791	1.28
350.157	1.27
350.523	1.28
350.889	1.31
351.255	1.32
351.621	1.32
351.987	1.35
352.353	1.36
352.719	1.37
353.084	1.38
353.45	1.39
353.816	1.4
354.181	1.42
354.547	1.47
354.913	1.47
355.278	1.48
355.644	1.48
356.009	1.51
356.375	1.51
356.74	1.55
357.106	1.56
357.471	1.57
357.836	1.58
358.202	1.65
358.567	1.62
358.932	1.64
359.297	1.67
359.663	1.68
360.028	1.7
360.393	1.71
360.758	1.74
361.123	1.76
361.488	1.74
361.853	1.79
362.218	1.8
362.583	1.82
362.948	1.86
363.312	1.8
363.677	1.8
364.042	1.87
364.407	1.88
364.772	1.93
365.136	1.9
365.501	1.86
365.865	1.93
366.23	1.94
366.595	1.9
366.959	2
367.324	1.98
367.688	1.98
368.052	1.97
368.417	1.99
368.781	1.98
369.145	2.02
369.51	2.03
369.874	2.03
370.238	2
370.602	1.92
370.967	2.08
371.331	1.98
371.695	1.99
372.059	2.02
372.423	2.02
372.787	2.04
373.151	1.95
373.515	2.03
373.878	2.14
374.242	1.97
374.606	1.99
374.97	1.95
375.334	2.01
375.697	1.92
376.061	2
376.425	2
376.788	1.98
377.152	1.96
377.515	1.97
377.879	1.95
378.242	1.91
378.606	1.91
378.969	1.88
379.333	1.86
379.696	1.84
380.059	1.85
380.422	1.79
380.786	1.78
381.149	1.81
381.512	1.74
381.875	1.74
382.238	1.7
382.601	1.69
382.964	1.7
383.327	1.68
383.69	1.68
384.053	1.62
384.416	1.62
384.779	1.6
385.142	1.58
385.504	1.55
385.867	1.57
386.23	1.57
386.593	1.54
386.955	1.53
387.318	1.52
387.68	1.53
388.043	1.53
388.405	1.48
388.768	1.51
389.13	1.51
389.493	1.47
389.855	1.47
390.217	1.44
390.58	1.45
390.942	1.41
391.304	1.41
391.666	1.38
392.028	1.36
392.391	1.34
392.753	1.33
393.115	1.32
393.477	1.29
393.839	1.29
394.201	1.28
394.563	1.28
394.924	1.26
395.286	1.26
395.648	1.26
396.01	1.26
396.371	1.26
396.733	1.29
397.095	1.3
397.456	1.31
397.818	1.35
398.18	1.36
398.541	1.38
398.903	1.42
399.264	1.44
399.625	1.46
399.987	1.49
400.348	1.51
400.709	1.55
401.071	1.52
401.432	1.54
401.793	1.53
402.154	1.53
402.515	1.49
402.876	1.49
403.238	1.44
403.599	1.41
403.96	1.37
404.32	1.33
404.681	1.29
405.042	1.24
405.403	1.2
405.764	1.13
406.125	1.08
406.485	1.03
406.846	0.99
407.207	0.94
407.567	0.89
407.928	0.84
408.288	0.8
408.649	0.75
409.009	0.71
409.37	0.68
409.73	0.65
410.091	0.6
410.451	0.58
410.811	0.55
411.171	0.53
411.532	0.5
411.892	0.47
412.252	0.46
412.612	0.43
412.972	0.42
413.332	0.4
413.692	0.39
414.052	0.37
414.412	0.36
414.772	0.35
415.132	0.33
415.492	0.32
415.851	0.31
416.211	0.3
416.571	0.3
416.931	0.29
417.29	0.27
417.65	0.27
418.009	0.26
418.369	0.25
418.728	0.26
419.088	0.25
419.447	0.24
419.807	0.24
420.166	0.23
420.525	0.22
420.884	0.22
421.244	0.22
421.603	0.21
421.962	0.2
422.321	0.21
422.68	0.21
423.039	0.19
423.398	0.19
423.757	0.2
424.116	0.19
424.475	0.2
424.834	0.19
425.193	0.18
425.551	0.19
425.91	0.18
426.269	0.18
426.628	0.18
426.986	0.18
427.345	0.17
427.703	0.18
428.062	0.17
428.42	0.18
428.779	0.17
429.137	0.18
429.496	0.17
429.854	0.17
430.212	0.16
430.57	0.17
430.929	0.16
431.287	0.17
431.645	0.16
432.003	0.16
432.361	0.16
432.719	0.16
433.077	0.17
433.435	0.16
433.793	0.16
434.151	0.16
434.509	0.16
434.866	0.16
435.224	0.16
435.582	0.16
435.94	0.16
436.297	0.16
436.655	0.17
437.012	0.16
437.37	0.15
437.727	0.15
438.085	0.16
438.442	0.16
438.8	0.17
439.157	0.16
439.514	0.16
439.872	0.16
440.229	0.16
440.586	0.16
440.943	0.17
441.3	0.17
441.657	0.17
442.014	0.17
442.371	0.17
442.728	0.16
443.085	0.17
443.442	0.16
443.799	0.16
444.156	0.16
444.513	0.17
444.869	0.16
445.226	0.17
445.583	0.17
445.939	0.17
446.296	0.16
446.652	0.17
447.009	0.17
447.365	0.17
447.722	0.17
448.078	0.17
448.434	0.18
448.791	0.17
449.147	0.17
449.503	0.17
449.859	0.17
450.215	0.17
450.571	0.17
450.928	0.18
451.284	0.18
451.64	0.18
451.995	0.17
452.351	0.17
452.707	0.17
453.063	0.17
453.419	0.17
453.775	0.17
454.13	0.16
454.486	0.17
454.842	0.17
455.197	0.17
455.553	0.16
455.908	0.16
456.264	0.16
456.619	0.16
456.975	0.15
457.33	0.16
457.685	0.15
458.04	0.15
458.396	0.15
458.751	0.15
459.106	0.14
459.461	0.14
459.816	0.14
460.171	0.14
460.526	0.12
460.881	0.13
461.236	0.12
461.591	0.12
461.946	0.12
462.301	0.12
462.655	0.11
463.01	0.12
463.365	0.1
463.719	0.1
464.074	0.09
464.428	0.09
464.783	0.08
465.137	0.09
465.492	0.08
465.846	0.09
466.201	0.09
466.555	0.09
466.909	0.1
467.263	0.11
467.618	0.1
467.972	0.1
468.326	0.1
468.68	0.1
469.034	0.09
469.388	0.09
469.742	0.1
470.096	0.1
470.45	0.11
470.804	0.11
471.157	0.11
471.511	0.11
471.865	0.12
472.218	0.12
472.572	0.14
472.926	0.13
473.279	0.14
473.633	0.15
473.986	0.16
474.34	0.17
474.693	0.18
475.046	0.2
475.4	0.2
475.753	0.22
476.106	0.22
476.459	0.23
476.812	0.25
477.165	0.25
477.519	0.26
477.872	0.28
478.224	0.28
478.577	0.29
478.93	0.3
479.283	0.31
479.636	0.31
479.989	0.32
480.341	0.33
480.694	0.34
481.047	0.36
481.399	0.36
481.752	0.36
482.104	0.37
482.457	0.38
482.809	0.39
483.162	0.39
483.514	0.4
483.866	0.41
484.219	0.41
484.571	0.42
484.923	0.43
485.275	0.43
485.627	0.43
485.979	0.44
486.331	0.45
486.683	0.46
487.035	0.46
487.387	0.47
487.739	0.48
488.091	0.5
488.443	0.49
488.794	0.49
489.146	0.5
489.498	0.51
489.849	0.51
490.201	0.52
490.552	0.52
490.904	0.52
491.255	0.53
491.607	0.53
491.958	0.54
492.309	0.55
492.661	0.55
493.012	0.56
493.363	0.55
493.714	0.57
494.065	0.57
494.416	0.58
494.767	0.58
495.118	0.58
495.469	0.59
495.82	0.6
496.171	0.6
496.522	0.61
496.872	0.61
497.223	0.62
497.574	0.62
497.924	0.63
498.275	0.64
498.626	0.64
498.976	0.65
499.327	0.65
499.677	0.66
500.027	0.66
500.378	0.66
500.728	0.67
501.078	0.67
501.428	0.68
501.779	0.69
502.129	0.69
502.479	0.69
502.829	0.7
503.179	0.71
503.529	0.7
503.879	0.72
504.229	0.72
504.578	0.73
504.928	0.73
505.278	0.74
505.628	0.74
505.977	0.75
506.327	0.76
506.676	0.75
507.026	0.76
507.375	0.76
507.725	0.77
508.074	0.77
508.424	0.78
508.773	0.78
509.122	0.78
509.471	0.79
509.82	0.79
510.17	0.8
510.519	0.8
510.868	0.8
511.217	0.82
511.566	0.82
511.915	0.82
512.263	0.82
512.612	0.83
512.961	0.83
513.31	0.83
513.659	0.84
514.007	0.85
514.356	0.85
514.704	0.84
515.053	0.85
515.401	0.86
515.75	0.86
516.098	0.87
516.447	0.87
516.795	0.87
517.143	0.87
517.491	0.87
517.839	0.88
518.188	0.88
518.536	0.9
518.884	0.89
519.232	0.89
519.58	0.89
519.928	0.91
520.275	0.9
520.623	0.92
520.971	0.91
521.319	0.93
521.666	0.93
522.014	0.92
522.362	0.93
522.709	0.94
523.057	0.93
523.404	0.94
523.752	0.94
524.099	0.94
524.446	0.94
524.794	0.95
525.141	0.95
525.488	0.96
525.835	0.95
526.182	0.97
526.529	0.97
526.876	0.97
527.223	0.97
527.57	0.98
527.917	0.97
528.264	0.97
528.611	0.97
528.958	0.98
529.304	0.99
529.651	0.99
529.998	1
530.344	1
530.691	1
531.037	1
531.384	1
531.73	1
532.076	1
532.423	1
532.769	1.01
533.115	1.01
533.461	1.01
533.807	1.02
534.154	1.02
534.5	1.02
534.846	1.01
535.192	1.02
535.537	1.03
535.883	1.03
536.229	1.04
536.575	1.02
536.921	1.03
537.266	1.04
537.612	1.03
537.957	1.03
538.303	1.04
538.649	1.03
538.994	1.04
539.339	1.03
539.685	1.05
540.03	1.04
540.375	1.05
540.721	1.05
541.066	1.05
541.411	1.05
541.756	1.05
542.101	1.05
542.446	1.05
542.791	1.05
543.136	1.06
543.481	1.06
543.825	1.06
544.17	1.06
544.515	1.07
544.86	1.06
545.204	1.07
545.549	1.06
545.893	1.07
546.238	1.06
546.582	1.07
546.927	1.07
547.271	1.07
547.615	1.07
547.96	1.07
548.304	1.07
548.648	1.08
548.992	1.07
549.336	1.06
549.68	1.06
550.024	1.08
550.368	1.07
550.712	1.07
551.056	1.08
551.4	1.07
551.743	1.07
552.087	1.06
552.431	1.06
552.774	1.07
553.118	1.07
553.462	1.07
553.805	1.06
554.148	1.07
554.492	1.07
554.835	1.06
555.178	1.06
555.522	1.06
555.865	1.06
556.208	1.06
556.551	1.06
556.894	1.06
557.237	1.06
557.58	1.06
557.923	1.06
558.266	1.06
558.609	1.06
558.952	1.06
559.294	1.05
559.637	1.05
559.98	1.06
560.322	1.05
560.665	1.05
561.007	1.05
561.35	1.05
561.692	1.05
562.034	1.04
562.377	1.04
562.719	1.04
563.061	1.04
563.403	1.04
563.745	1.04
564.088	1.04
564.43	1.04
564.772	1.03
565.113	1.04
565.455	1.03
565.797	1.03
566.139	1.04
566.481	1.03
566.822	1.03
567.164	1.03
567.506	1.02
567.847	1.03
568.189	1.02
568.53	1.02
568.872	1.02
569.213	1.02
569.554	1.02
569.895	1.02
570.237	1.01
570.578	1.01
570.919	1.01
571.26	1.01
571.601	1
571.942	1.01
572.283	1
572.624	1
572.965	0.99
573.306	1
573.646	0.98
573.987	0.99
574.328	0.99
574.668	0.98
575.009	0.97
575.349	0.97
575.69	0.97
576.03	0.97
576.37	0.97
576.711	0.96
577.051	0.96
577.391	0.96
577.731	0.96
578.072	0.96
578.412	0.96
578.752	0.95
579.092	0.95
579.431	0.95
579.771	0.93
580.111	0.93
580.451	0.94
580.791	0.95
581.13	0.94
581.47	0.94
581.81	0.94
582.149	0.94
582.489	0.93
582.828	0.93
583.167	0.9
583.507	0.87
583.846	0.87
584.185	0.91
584.525	0.92
584.864	0.93
585.203	0.93
585.542	0.93
585.881	0.92
586.22	0.92
586.559	0.91
586.898	0.91
587.236	0.9
587.575	0.9
587.914	0.91
588.252	0.91
588.591	0.91
588.93	0.9
589.268	0.9
589.607	0.91
589.945	0.9
590.283	0.91
590.622	0.91
590.96	0.91
591.298	0.91
591.636	0.9
591.974	0.9
592.313	0.91
592.651	0.91
592.989	0.9
593.326	0.91
593.664	0.9
594.002	0.9
594.34	0.9
594.678	0.89
595.015	0.89
595.353	0.89
595.691	0.89
596.028	0.9
596.366	0.9
596.703	0.9
597.04	0.9
597.378	0.89
597.715	0.9
598.052	0.9
598.389	0.89
598.726	0.9
599.064	0.9
599.401	0.89
599.738	0.89
600.074	0.89
600.411	0.88
600.748	0.88
601.085	0.88
601.422	0.87
601.758	0.88
602.095	0.88
602.432	0.88
602.768	0.88
603.105	0.88
603.441	0.88
603.777	0.88
604.114	0.88
604.45	0.87
604.786	0.87
605.122	0.87
605.459	0.86
605.795	0.86
606.131	0.86
606.467	0.86
606.803	0.86
607.139	0.85
607.474	0.85
607.81	0.85
608.146	0.85
608.482	0.85
608.817	0.84
609.153	0.84
609.488	0.84
609.824	0.83
610.159	0.84
610.495	0.83
610.83	0.83
611.165	0.83
611.5	0.83
611.836	0.83
612.171	0.82
612.506	0.82
612.841	0.82
613.176	0.81
613.511	0.81
613.845	0.8
614.18	0.8
614.515	0.8
614.85	0.8
615.184	0.79
615.519	0.79
615.854	0.79
616.188	0.78
616.523	0.78
616.857	0.78
617.191	0.77
617.526	0.78
617.86	0.78
618.194	0.77
618.528	0.77
618.862	0.77
619.196	0.77
619.53	0.76
619.864	0.76
620.198	0.76
620.532	0.76
620.866	0.75
621.2	0.74
621.533	0.74
621.867	0.74
622.201	0.74
622.534	0.74
622.868	0.73
623.201	0.73
623.534	0.73
623.868	0.72
624.201	0.72
624.534	0.71
624.868	0.71
625.201	0.71
625.534	0.71
625.867	0.7
626.2	0.7
626.533	0.7
626.865	0.7
627.198	0.69
627.531	0.69
627.864	0.69
628.196	0.69
628.529	0.68
628.862	0.67
629.194	0.67
629.527	0.66
629.859	0.67
630.191	0.66
630.524	0.66
630.856	0.66
631.188	0.65
631.52	0.64
631.852	0.64
632.184	0.64
632.516	0.64
632.848	0.63
633.18	0.63
633.512	0.63
633.844	0.62
634.175	0.61
634.507	0.61
634.839	0.61
635.17	0.6
635.502	0.6
635.833	0.6
636.165	0.59
636.496	0.59
636.827	0.59
637.159	0.58
637.49	0.58
637.821	0.58
638.152	0.57
638.483	0.57
638.814	0.56
639.145	0.56
639.476	0.56
639.807	0.55
640.137	0.55
640.468	0.54
640.799	0.54
641.129	0.54
641.46	0.53
641.791	0.53
642.121	0.53
642.451	0.52
642.782	0.52
643.112	0.52
643.442	0.52
643.773	0.51
644.103	0.51
644.433	0.51
644.763	0.51
645.093	0.5
645.423	0.5
645.753	0.5
646.082	0.5
646.412	0.49
646.742	0.49
647.072	0.49
647.401	0.48
647.731	0.48
648.06	0.48
648.39	0.48
648.719	0.47
649.048	0.47
649.378	0.47
649.707	0.47
650.036	0.46
650.365	0.47
650.694	0.46
651.023	0.46
651.352	0.46
651.681	0.46
652.01	0.46
652.339	0.45
652.668	0.45
652.996	0.45
653.325	0.45
653.654	0.45
653.982	0.44
654.311	0.44
654.639	0.44
654.967	0.44
655.296	0.44
655.624	0.44
655.952	0.44
656.28	0.44
656.609	0.43
656.937	0.43
657.265	0.42
657.593	0.27
657.92	0.18
658.248	0.16
658.576	0.24
658.904	0.36
659.231	0.42
659.559	0.42
659.887	0.42
660.214	0.41
660.542	0.41
660.869	0.41
661.196	0.41
661.524	0.41
661.851	0.41
662.178	0.41
662.505	0.4
662.832	0.41
663.159	0.41
663.486	0.4
663.813	0.4
664.14	0.4
664.467	0.4
664.794	0.39
665.12	0.39
665.447	0.39
665.774	0.39
666.1	0.39
666.427	0.39
666.753	0.39
667.079	0.38
667.406	0.38
667.732	0.38
668.058	0.37
668.384	0.37
668.71	0.37
669.036	0.37
669.362	0.37
669.688	0.36
670.014	0.36
670.34	0.36
670.666	0.36
670.991	0.35
671.317	0.35
671.643	0.35
671.968	0.35
672.294	0.35
672.619	0.34
672.945	0.34
673.27	0.34
673.595	0.33
673.92	0.33
674.246	0.33
674.571	0.33
674.896	0.33
675.221	0.32
675.546	0.33
675.87	0.32
676.195	0.32
676.52	0.31
676.845	0.31
677.169	0.3
677.494	0.31
677.819	0.3
678.143	0.3
678.468	0.3
678.792	0.3
679.116	0.29
679.44	0.29
679.765	0.28
680.089	0.28
680.413	0.28
680.737	0.27
681.061	0.27
681.385	0.27
681.709	0.27
682.033	0.26
682.356	0.27
682.68	0.26
683.004	0.26
683.327	0.26
683.651	0.25
683.974	0.25
684.298	0.25
684.621	0.25
684.944	0.24
685.268	0.24
685.591	0.24
685.914	0.23
686.237	0.23
686.56	0.23
686.883	0.22
687.206	0.22
687.529	0.22
687.852	0.22
688.175	0.22
688.497	0.22
688.82	0.22
689.142	0.21
689.465	0.21
689.787	0.21
690.11	0.21
690.432	0.2
690.755	0.2
691.077	0.19
691.399	0.19
691.721	0.19
692.043	0.19
692.365	0.19
692.687	0.18
693.009	0.18
693.331	0.18
693.653	0.18
693.974	0.18
694.296	0.18
694.618	0.17
694.939	0.17
695.261	0.17
695.582	0.17
695.904	0.17
696.225	0.17
696.546	0.16
696.868	0.16
697.189	0.16
697.51	0.16
697.831	0.16
698.152	0.16
698.473	0.15
698.794	0.15
699.114	0.15
699.435	0.14
699.756	0.15
700.077	0.15
700.397	0.15
700.718	0.15
701.038	0.15
701.359	0.15
701.679	0.15
701.999	0.15
702.32	0.14
702.64	0.14
702.96	0.14
703.28	0.14
703.6	0.14
703.92	0.14
704.24	0.14
704.56	0.13
704.879	0.13
705.199	0.13
705.519	0.14
705.838	0.14
706.158	0.14
706.478	0.13
706.797	0.13
707.116	0.13
707.436	0.13
707.755	0.13
708.074	0.13
708.393	0.13
708.712	0.12
709.031	0.12
709.35	0.12
709.669	0.12
709.988	0.12
710.307	0.12
710.626	0.12
710.944	0.12
711.263	0.12
711.582	0.12
711.9	0.12
712.219	0.12
712.537	0.12
712.855	0.12
713.174	0.13
713.492	0.13
713.81	0.12
714.128	0.13
714.446	0.13
714.764	0.12
715.082	0.12
715.4	0.12
715.718	0.12
716.035	0.12
716.353	0.12
716.671	0.12
716.988	0.12
717.306	0.12
717.623	0.12
717.941	0.13
718.258	0.12
718.575	0.13
718.893	0.13
719.21	0.12
719.527	0.12
719.844	0.13
720.161	0.12
720.478	0.13
720.795	0.13
721.112	0.13
721.428	0.13
721.745	0.13
722.062	0.13
722.378	0.13
722.695	0.13
723.011	0.13
723.328	0.13
723.644	0.13
723.96	0.13
724.276	0.13
724.593	0.13
724.909	0.13
725.225	0.13
725.541	0.13
725.857	0.13
726.173	0.13
726.488	0.14
726.804	0.13
727.12	0.13
727.435	0.13
727.751	0.13
728.067	0.13
728.382	0.13
728.697	0.13
729.013	0.13
729.328	0.13
729.643	0.13
729.958	0.13
730.273	0.13
730.588	0.12
730.903	0.13
731.218	0.13
731.533	0.13
731.848	0.12
732.163	0.12
732.477	0.12
732.792	0.12
733.107	0.12
733.421	0.12
733.736	0.12
734.05	0.12
734.364	0.12
734.678	0.12
734.993	0.12
735.307	0.12
735.621	0.12
735.935	0.12
736.249	0.12
736.563	0.12
736.877	0.12
737.19	0.12
737.504	0.12
737.818	0.12
738.131	0.12
738.445	0.12
738.758	0.12
739.072	0.12
739.385	0.12
739.698	0.12
740.012	0.12
740.325	0.11
740.638	0.11
740.951	0.11
741.264	0.11
741.577	0.11
741.89	0.11
742.203	0.11
742.515	0.11
742.828	0.11
743.141	0.11
743.453	0.11
743.766	0.11
744.078	0.11
744.391	0.11
744.703	0.1
745.015	0.1
745.327	0.1
745.639	0.1
745.952	0.1
746.264	0.1
746.575	0.1
746.887	0.1
747.199	0.1
747.511	0.1
747.823	0.1
748.134	0.09
748.446	0.1
748.757	0.1
749.069	0.09
749.38	0.1
749.692	0.09
750.003	0.09
750.314	0.09
750.625	0.09
750.936	0.09
751.248	0.09
751.559	0.09
751.869	0.08
752.18	0.09
752.491	0.08
752.802	0.08
753.112	0.08
753.423	0.08
753.734	0.08
754.044	0.08
754.355	0.08
754.665	0.08
754.975	0.08
755.285	0.08
755.596	0.08
755.906	0.08
756.216	0.08
756.526	0.08
756.836	0.08
757.146	0.07
757.455	0.07
757.765	0.07
758.075	0.07
758.385	0.07
758.694	0.07
759.004	0.07
759.313	0.07
759.622	0.07
759.932	0.07
760.241	0.07
760.55	0.07
760.859	0.07
761.168	0.07
761.477	0.07
761.786	0.07
762.095	0.07
762.404	0.07
762.713	0.07
763.021	0.07
763.33	0.07
763.639	0.06
763.947	0.07
764.256	0.07
764.564	0.07
764.872	0.07
765.181	0.07
765.489	0.06
765.797	0.06
766.105	0.06
766.413	0.06
766.721	0.07
767.029	0.07
767.337	0.07
767.644	0.06
767.952	0.07
768.26	0.07
768.567	0.07
768.875	0.06
769.182	0.06
769.49	0.06
769.797	0.06
770.104	0.06
770.411	0.06
770.718	0.06
771.026	0.06
771.333	0.07
771.639	0.07
771.946	0.06
772.253	0.07
772.56	0.07
772.867	0.06
773.173	0.07
773.48	0.07
773.786	0.06
774.093	0.07
774.399	0.07
774.705	0.07
775.012	0.06
775.318	0.07
775.624	0.06
775.93	0.06
776.236	0.07
776.542	0.06
776.848	0.07
777.154	0.07
777.459	0.06
777.765	0.06
778.071	0.07
778.376	0.07
778.682	0.07
778.987	0.07
779.292	0.07
779.598	0.07
779.903	0.07
780.208	0.07
780.513	0.07
780.818	0.07
781.123	0.07
781.428	0.07
781.733	0.07
782.038	0.07
782.343	0.07
782.647	0.07
782.952	0.07
783.256	0.07
783.561	0.07
783.865	0.07
784.17	0.07
784.474	0.07
784.778	0.07
785.082	0.07
785.386	0.07
785.69	0.07
785.994	0.07
786.298	0.07
786.602	0.08
786.906	0.08
787.209	0.07
787.513	0.07
787.817	0.07
788.12	0.08
788.424	0.07
788.727	0.07
789.03	0.07
789.333	0.08
789.637	0.07
789.94	0.07
790.243	0.07
790.546	0.07
790.849	0.07
791.152	0.08
791.454	0.07
791.757	0.07
792.06	0.07
792.362	0.08
792.665	0.08
792.967	0.08
793.27	0.08
793.572	0.08
793.874	0.08
794.177	0.08
794.479	0.08
794.781	0.08
795.083	0.08
795.385	0.08
795.687	0.08
795.989	0.08
796.29	0.08
796.592	0.08
796.894	0.08
797.195	0.09
797.497	0.09
797.798	0.09
798.1	0.09
798.401	0.08
798.702	0.09
799.003	0.09
799.304	0.08
799.605	0.09
799.906	0.08
800.207	0.08
800.508	0.08
800.809	0.09
801.11	0.09
801.41	0.09
801.711	0.09
802.011	0.09
802.312	0.09
802.612	0.09
802.913	0.09
803.213	0.09
803.513	0.09
803.813	0.09
804.113	0.09
804.413	0.09
804.713	0.09
805.013	0.1
805.313	0.09
805.613	0.1
805.912	0.09
806.212	0.1
806.511	0.1
806.811	0.09
807.11	0.1
807.41	0.1
807.709	0.1
808.008	0.09
808.307	0.09
808.606	0.1
808.905	0.1
809.204	0.1
809.503	0.1
809.802	0.1
810.101	0.1
810.399	0.1
810.698	0.1
810.997	0.1
811.295	0.1
811.593	0.1
811.892	0.11
812.19	0.11
812.488	0.11
812.786	0.1
813.084	0.1
813.383	0.11
813.68	0.11
813.978	0.11
814.276	0.11
814.574	0.11
814.872	0.11
815.169	0.11
815.467	0.11
815.764	0.11
816.062	0.11
816.359	0.11
816.656	0.11
816.954	0.11
817.251	0.11
817.548	0.11
817.845	0.11
818.142	0.11
818.439	0.11
818.735	0.11
819.032	0.11
819.329	0.11
819.626	0.11
819.922	0.12
820.219	0.12
820.515	0.12
820.811	0.12
821.108	0.11
821.404	0.11
821.7	0.12
821.996	0.12
822.292	0.12
822.588	0.12
822.884	0.12
823.18	0.12
823.475	0.12
823.771	0.12
824.067	0.12
824.362	0.12
824.658	0.12
824.953	0.13
825.249	0.12
825.544	0.12
825.839	0.12
826.134	0.13
826.429	0.12
826.724	0.12
827.019	0.12
827.314	0.13
827.609	0.13
827.904	0.13
828.198	0.13
828.493	0.13
828.787	0.13
829.082	0.13
829.376	0.12
829.671	0.13
829.965	0.14
830.259	0.13
830.553	0.13
830.847	0.14
831.141	0.14
831.435	0.14
831.729	0.14
832.023	0.14
832.317	0.14
832.61	0.14
832.904	0.14
833.197	0.14
833.491	0.14
833.784	0.14
834.077	0.13
834.371	0.13
834.664	0.13
834.957	0.14
835.25	0.14
835.543	0.14
835.836	0.15
836.129	0.14
836.421	0.15
836.714	0.14
837.007	0.15
837.299	0.15
837.592	0.15
837.884	0.14
838.177	0.14
838.469	0.16
838.761	0.15
839.053	0.14
839.345	0.16
839.637	0.15
839.929	0.15
840.221	0.15
840.513	0.15
840.805	0.15
841.096	0.15
841.388	0.15
841.68	0.16
841.971	0.15
842.262	0.15
842.554	0.16
842.845	0.16
843.136	0.16
843.427	0.16
843.718	0.15
844.009	0.16
844.3	0.15
844.591	0.16
844.882	0.16
845.173	0.16
845.463	0.17
845.754	0.16
846.044	0.16
846.335	0.16
846.625	0.16
846.915	0.15
847.206	0.16
847.496	0.16
847.786	0.17
848.076	0.17
848.366	0.17
848.656	0.18
848.945	0.17
849.235	0.17
849.525	0.18
849.814	0.17
850.104	0.16
850.393	0.17
850.683	0.17
850.972	0.16
851.261	0.16
851.551	0.18
851.84	0.17
852.129	0.16
852.418	0.17
852.707	0.18
852.995	0.17
853.284	0.18
853.573	0.17
853.862	0.17
854.15	0.19
854.439	0.18
854.727	0.19
855.015	0.18
855.304	0.16
855.592	0.18
855.88	0.18
856.168	0.18
856.456	0.19
856.744	0.19
857.032	0.18
857.32	0.19
857.607	0.2
857.895	0.18
858.183	0.19
858.47	0.18
858.757	0.18
859.045	0.2
859.332	0.19
859.619	0.2
859.907	0.19
860.194	0.2
860.481	0.18
860.768	0.16
861.054	0.2
861.341	0.19
861.628	0.18
861.915	0.19
862.201	0.19
862.488	0.18
862.774	0.19
863.061	0.2
863.347	0.19
863.633	0.2
863.919	0.16
864.205	0.21
864.491	0.19
864.777	0.18
865.063	0.2
865.349	0.19
865.635	0.19
865.92	0.19
866.206	0.2
866.492	0.18
866.777	0.19
867.062	0.21
867.348	0.18
867.633	0.19
867.918	0.17
868.203	0.2
868.488	0.19
868.773	0.21
869.058	0.21
869.343	0.21
869.628	0.2
869.912	0.2
870.197	0.22
870.482	0.17
870.766	0.17
871.05	0.2
871.335	0.22
871.619	0.16
871.903	0.17
872.187	0.18
872.471	0.19
872.755	0.25
873.039	0.18
873.323	0.22
873.607	0.17
873.89	0.14
874.174	0.23
874.458	0.14
874.741	0.2
875.024	0.14
875.308	0.19
875.591	0.23
875.874	0.17
876.157	0.21
876.44	0.17
876.723	0.19
877.006	0.16
877.289	0.25
877.572	0.25
877.854	0.14
878.137	0.27
878.42	0.19
878.702	0.08
878.984	0.21
879.267	0.18
879.549	0.26
879.831	0.16
880.113	0.14
880.395	0.12
880.677	0.14
880.959	0.24
