Data from Rubpy_BV_1800_EDTA_Buffered_Absorbance_16-51-34-521.txt Node
Date: Wed Jul 01 16:51:34 BST 2026
User: fpm-admin
Spectrometer: OFX00224
Trigger mode: 0
Integration Time (sec): 7.000000E-2
Scans to average: 3
Nonlinearity correction enabled: false
Boxcar width: 0
Storing dark spectrum: false
XAxis mode: Wavelengths
Number of Pixels in Spectrum: 2136
>>>>>Begin Spectral Data<<<<<
154.91	-0
155.289	-0.58
155.669	0.3
156.048	-0
156.428	-0
156.807	-0.03
157.186	-1.15
157.566	0.07
157.945	-0
158.325	-0.21
158.704	-0.03
159.083	0.86
159.462	-0.99
159.842	-0
160.221	-0
160.6	-0
160.979	-0
161.359	-0.1
161.738	-0
162.117	-0
162.496	-0.03
162.875	0.37
163.254	0.71
163.633	0.45
164.012	0.51
164.391	0.14
164.77	0.26
165.149	-0
165.528	-0
165.907	-0
166.286	0.3
166.665	-0.14
167.044	-0.17
167.423	-0.09
167.802	-0.32
168.181	-1.4
168.559	-0.78
168.938	-0
169.317	-0
169.696	-0
170.074	-0
170.453	-0.19
170.832	-0
171.21	0.04
171.589	-0
171.968	1.23
172.346	-0.54
172.725	-0
173.103	-0
173.482	0.34
173.861	-0
174.239	-0.23
174.617	0.2
174.996	1.02
175.374	-0.56
175.753	0.08
176.131	1.58
176.51	-0.2
176.888	-0
177.266	-0
177.645	0.09
178.023	0.26
178.401	-0.24
178.779	-0.11
179.158	-0
179.536	0.2
179.914	0.11
180.292	0.62
180.67	-0.03
181.048	-0
181.427	-0
181.805	-0
182.183	-0.78
182.561	-0
182.939	-0
183.317	-0.4
183.695	-0.35
184.073	-0
184.451	-0.95
184.829	0.4
185.206	-0.54
185.584	-0
185.962	-0.36
186.34	-0.25
186.718	0.19
187.096	-0
187.473	-0.38
187.851	0.32
188.229	0.12
188.607	0.13
188.984	0.33
189.362	0.36
189.74	0.42
190.117	0.56
190.495	0.39
190.872	0.38
191.25	0.75
191.627	0.44
192.005	0.2
192.382	0.38
192.76	0.43
193.137	0.28
193.515	0.28
193.892	0.28
194.269	0.25
194.647	0.24
195.024	0.3
195.401	0.3
195.779	0.63
196.156	0.36
196.533	0.29
196.91	0.35
197.288	0.24
197.665	0.26
198.042	0.3
198.419	0.36
198.796	0.17
199.173	0.45
199.55	0.37
199.927	0.14
200.304	0.3
200.681	0.28
201.058	0.24
201.435	0.35
201.812	0.25
202.189	0.33
202.566	0.56
202.943	0.3
203.32	0.31
203.697	0.32
204.073	0.36
204.45	0.37
204.827	0.2
205.204	0.27
205.58	0.34
205.957	0.27
206.334	0.34
206.71	0.29
207.087	0.35
207.464	0.51
207.84	0.26
208.217	0.32
208.593	0.21
208.97	0.33
209.346	0.44
209.723	0.28
210.099	0.49
210.476	0.44
210.852	0.55
211.228	0.41
211.605	0.2
211.981	0.27
212.357	0.55
212.733	0.28
213.11	0.38
213.486	0.3
213.862	0.35
214.238	0.18
214.614	0.29
214.991	0.33
215.367	0.42
215.743	0.32
216.119	0.33
216.495	0.24
216.871	0.39
217.247	0.25
217.623	0.28
217.999	0.39
218.375	0.49
218.751	0.19
219.127	0.34
219.502	0.16
219.878	0.26
220.254	0.28
220.63	0.34
221.006	0.35
221.381	0.25
221.757	0.37
222.133	0.53
222.508	0.54
222.884	0.3
223.26	0.24
223.635	0.48
224.011	0.38
224.386	0.29
224.762	0.37
225.137	0.44
225.513	0.27
225.888	0.33
226.264	0.3
226.639	0.26
227.014	0.36
227.39	0.26
227.765	0.32
228.14	0.29
228.516	0.38
228.891	0.36
229.266	0.32
229.641	0.26
230.017	0.34
230.392	0.33
230.767	0.45
231.142	0.3
231.517	0.26
231.892	0.44
232.267	0.27
232.642	0.33
233.017	0.39
233.392	0.42
233.767	0.2
234.142	0.32
234.517	0.3
234.892	0.41
235.267	0.38
235.641	0.4
236.016	0.38
236.391	0.26
236.766	0.31
237.14	0.47
237.515	0.43
237.89	0.39
238.264	0.36
238.639	0.35
239.014	0.71
239.388	0.32
239.763	0.34
240.137	0.21
240.512	0.35
240.886	0.36
241.261	0.29
241.635	0.33
242.009	0.54
242.384	0.35
242.758	0.46
243.132	0.24
243.507	0.33
243.881	0.35
244.255	0.21
244.629	0.37
245.004	0.47
245.378	0.26
245.752	0.25
246.126	0.28
246.5	0.29
246.874	0.34
247.248	0.23
247.622	0.34
247.996	0.29
248.37	0.34
248.744	0.34
249.118	0.29
249.492	0.54
249.866	0.29
250.24	0.57
250.613	0.58
250.987	0.43
251.361	0.5
251.735	0.42
252.108	0.54
252.482	0.39
252.856	0.23
253.229	0.38
253.603	0.39
253.977	0.51
254.35	0.26
254.724	0.33
255.097	0.34
255.471	0.3
255.844	0.4
256.218	0.2
256.591	0.23
256.964	0.42
257.338	0.36
257.711	0.35
258.084	0.31
258.458	0.39
258.831	0.29
259.204	0.41
259.577	0.34
259.95	0.3
260.323	0.35
260.697	0.33
261.07	0.22
261.443	0.33
261.816	0.37
262.189	0.35
262.562	0.3
262.935	0.32
263.308	0.15
263.68	0.35
264.053	0.39
264.426	0.44
264.799	0.34
265.172	0.33
265.545	0.52
265.917	0.39
266.29	0.28
266.663	0.33
267.035	0.32
267.408	0.34
267.781	0.43
268.153	0.27
268.526	0.44
268.898	0.36
269.271	0.34
269.643	0.36
270.016	0.41
270.388	0.32
270.76	0.34
271.133	0.35
271.505	0.35
271.877	0.32
272.25	0.43
272.622	0.49
272.994	0.54
273.366	0.42
273.739	0.37
274.111	0.31
274.483	0.28
274.855	0.42
275.227	0.57
275.599	0.55
275.971	0.35
276.343	0.35
276.715	0.48
277.087	0.27
277.459	0.38
277.831	0.37
278.203	0.32
278.574	0.3
278.946	0.36
279.318	0.28
279.69	0.37
280.061	0.36
280.433	0.4
280.805	0.38
281.176	0.45
281.548	0.43
281.92	0.35
282.291	0.32
282.663	0.28
283.034	0.36
283.406	0.31
283.777	0.41
284.148	0.38
284.52	0.4
284.891	0.4
285.262	0.36
285.634	0.42
286.005	0.42
286.376	0.45
286.747	0.38
287.119	0.37
287.49	0.46
287.861	0.33
288.232	0.33
288.603	0.46
288.974	0.35
289.345	0.39
289.716	0.32
290.087	0.31
290.458	0.42
290.829	0.32
291.2	0.5
291.571	0.45
291.941	0.31
292.312	0.37
292.683	0.39
293.054	0.37
293.424	0.29
293.795	0.33
294.166	0.38
294.536	0.25
294.907	0.39
295.277	0.47
295.648	0.45
296.018	0.36
296.389	0.24
296.759	0.28
297.13	0.44
297.5	0.31
297.871	0.28
298.241	0.4
298.611	0.36
298.981	0.34
299.352	0.44
299.722	0.37
300.092	0.4
300.462	0.41
300.832	0.42
301.202	0.41
301.573	0.42
301.943	0.39
302.313	0.35
302.683	0.39
303.053	0.33
303.422	0.37
303.792	0.31
304.162	0.35
304.532	0.38
304.902	0.35
305.272	0.33
305.641	0.53
306.011	0.31
306.381	0.3
306.75	0.35
307.12	0.33
307.49	0.33
307.859	0.31
308.229	0.27
308.598	0.31
308.968	0.29
309.337	0.28
309.707	0.26
310.076	0.27
310.445	0.25
310.815	0.29
311.184	0.29
311.553	0.26
311.923	0.31
312.292	0.29
312.661	0.28
313.03	0.28
313.399	0.3
313.768	0.3
314.137	0.27
314.506	0.28
314.875	0.31
315.244	0.26
315.613	0.3
315.982	0.31
316.351	0.32
316.72	0.3
317.089	0.33
317.458	0.33
317.826	0.32
318.195	0.32
318.564	0.34
318.933	0.33
319.301	0.33
319.67	0.34
320.038	0.34
320.407	0.37
320.775	0.37
321.144	0.37
321.512	0.37
321.881	0.36
322.249	0.37
322.618	0.37
322.986	0.38
323.354	0.39
323.723	0.39
324.091	0.4
324.459	0.43
324.827	0.42
325.195	0.42
325.564	0.43
325.932	0.44
326.3	0.45
326.668	0.44
327.036	0.45
327.404	0.47
327.772	0.47
328.14	0.47
328.508	0.48
328.875	0.49
329.243	0.49
329.611	0.51
329.979	0.51
330.346	0.53
330.714	0.53
331.082	0.53
331.449	0.54
331.817	0.53
332.185	0.56
332.552	0.57
332.92	0.58
333.287	0.57
333.655	0.6
334.022	0.61
334.389	0.63
334.757	0.64
335.124	0.64
335.491	0.66
335.859	0.67
336.226	0.68
336.593	0.7
336.96	0.71
337.327	0.73
337.695	0.73
338.062	0.74
338.429	0.76
338.796	0.77
339.163	0.79
339.53	0.81
339.897	0.81
340.263	0.83
340.63	0.86
340.997	0.85
341.364	0.88
341.731	0.9
342.097	0.9
342.464	0.92
342.831	0.95
343.197	0.96
343.564	0.97
343.931	0.98
344.297	0.98
344.664	1.01
345.03	1.02
345.396	1.03
345.763	1.06
346.129	1.07
346.496	1.09
346.862	1.1
347.228	1.12
347.594	1.13
347.961	1.14
348.327	1.15
348.693	1.17
349.059	1.19
349.425	1.2
349.791	1.22
350.157	1.23
350.523	1.25
350.889	1.24
351.255	1.27
351.621	1.27
351.987	1.28
352.353	1.32
352.719	1.31
353.084	1.34
353.45	1.35
353.816	1.36
354.181	1.37
354.547	1.39
354.913	1.41
355.278	1.44
355.644	1.42
356.009	1.44
356.375	1.46
356.74	1.48
357.106	1.5
357.471	1.53
357.836	1.51
358.202	1.57
358.567	1.56
358.932	1.59
359.297	1.59
359.663	1.64
360.028	1.62
360.393	1.68
360.758	1.71
361.123	1.68
361.488	1.71
361.853	1.75
362.218	1.74
362.583	1.75
362.948	1.75
363.312	1.79
363.677	1.78
364.042	1.81
364.407	1.82
364.772	1.82
365.136	1.81
365.501	1.82
365.865	1.89
366.23	1.86
366.595	1.88
366.959	1.92
367.324	1.92
367.688	1.93
368.052	1.96
368.417	1.94
368.781	1.94
369.145	2.02
369.51	1.98
369.874	1.98
370.238	1.96
370.602	1.87
370.967	1.98
371.331	1.95
371.695	1.96
372.059	1.92
372.423	1.93
372.787	1.95
373.151	1.95
373.515	2
373.878	1.98
374.242	1.94
374.606	1.96
374.97	1.98
375.334	1.96
375.697	1.92
376.061	1.89
376.425	1.9
376.788	1.9
377.152	1.96
377.515	1.87
377.879	1.87
378.242	1.82
378.606	1.8
378.969	1.82
379.333	1.82
379.696	1.81
380.059	1.78
380.422	1.76
380.786	1.76
381.149	1.78
381.512	1.72
381.875	1.68
382.238	1.66
382.601	1.66
382.964	1.67
383.327	1.61
383.69	1.61
384.053	1.56
384.416	1.54
384.779	1.54
385.142	1.54
385.504	1.53
385.867	1.51
386.23	1.51
386.593	1.49
386.955	1.49
387.318	1.46
387.68	1.46
388.043	1.44
388.405	1.45
388.768	1.43
389.13	1.42
389.493	1.43
389.855	1.41
390.217	1.41
390.58	1.37
390.942	1.36
391.304	1.35
391.666	1.32
392.028	1.32
392.391	1.29
392.753	1.28
393.115	1.27
393.477	1.24
393.839	1.23
394.201	1.23
394.563	1.22
394.924	1.22
395.286	1.21
395.648	1.21
396.01	1.21
396.371	1.22
396.733	1.23
397.095	1.24
397.456	1.26
397.818	1.28
398.18	1.31
398.541	1.34
398.903	1.37
399.264	1.38
399.625	1.42
399.987	1.44
400.348	1.46
400.709	1.49
401.071	1.48
401.432	1.47
401.793	1.48
402.154	1.46
402.515	1.44
402.876	1.43
403.238	1.4
403.599	1.36
403.96	1.33
404.32	1.27
404.681	1.25
405.042	1.19
405.403	1.15
405.764	1.09
406.125	1.04
406.485	0.99
406.846	0.95
407.207	0.89
407.567	0.85
407.928	0.81
408.288	0.77
408.649	0.72
409.009	0.69
409.37	0.64
409.73	0.62
410.091	0.58
410.451	0.55
410.811	0.53
411.171	0.51
411.532	0.48
411.892	0.45
412.252	0.43
412.612	0.42
412.972	0.39
413.332	0.38
413.692	0.36
414.052	0.35
414.412	0.34
414.772	0.33
415.132	0.32
415.492	0.31
415.851	0.3
416.211	0.29
416.571	0.29
416.931	0.28
417.29	0.27
417.65	0.26
418.009	0.25
418.369	0.24
418.728	0.24
419.088	0.24
419.447	0.24
419.807	0.23
420.166	0.22
420.525	0.22
420.884	0.22
421.244	0.21
421.603	0.21
421.962	0.19
422.321	0.2
422.68	0.2
423.039	0.19
423.398	0.19
423.757	0.19
424.116	0.18
424.475	0.18
424.834	0.18
425.193	0.18
425.551	0.18
425.91	0.18
426.269	0.17
426.628	0.17
426.986	0.18
427.345	0.16
427.703	0.17
428.062	0.18
428.42	0.18
428.779	0.17
429.137	0.18
429.496	0.16
429.854	0.16
430.212	0.17
430.57	0.16
430.929	0.16
431.287	0.15
431.645	0.16
432.003	0.16
432.361	0.15
432.719	0.15
433.077	0.16
433.435	0.16
433.793	0.16
434.151	0.15
434.509	0.16
434.866	0.15
435.224	0.15
435.582	0.15
435.94	0.16
436.297	0.16
436.655	0.16
437.012	0.15
437.37	0.16
437.727	0.15
438.085	0.15
438.442	0.16
438.8	0.16
439.157	0.15
439.514	0.16
439.872	0.15
440.229	0.15
440.586	0.16
440.943	0.16
441.3	0.16
441.657	0.16
442.014	0.16
442.371	0.15
442.728	0.15
443.085	0.16
443.442	0.15
443.799	0.16
444.156	0.16
444.513	0.16
444.869	0.15
445.226	0.17
445.583	0.17
445.939	0.16
446.296	0.15
446.652	0.17
447.009	0.17
447.365	0.16
447.722	0.17
448.078	0.16
448.434	0.17
448.791	0.17
449.147	0.16
449.503	0.16
449.859	0.16
450.215	0.16
450.571	0.17
450.928	0.17
451.284	0.17
451.64	0.17
451.995	0.17
452.351	0.16
452.707	0.16
453.063	0.16
453.419	0.16
453.775	0.16
454.13	0.16
454.486	0.17
454.842	0.16
455.197	0.16
455.553	0.15
455.908	0.15
456.264	0.14
456.619	0.15
456.975	0.15
457.33	0.16
457.685	0.14
458.04	0.14
458.396	0.14
458.751	0.13
459.106	0.13
459.461	0.14
459.816	0.13
460.171	0.12
460.526	0.13
460.881	0.12
461.236	0.12
461.591	0.11
461.946	0.11
462.301	0.11
462.655	0.11
463.01	0.11
463.365	0.1
463.719	0.1
464.074	0.09
464.428	0.08
464.783	0.07
465.137	0.08
465.492	0.08
465.846	0.08
466.201	0.08
466.555	0.08
466.909	0.09
467.263	0.1
467.618	0.1
467.972	0.1
468.326	0.09
468.68	0.09
469.034	0.08
469.388	0.09
469.742	0.09
470.096	0.1
470.45	0.11
470.804	0.1
471.157	0.1
471.511	0.1
471.865	0.1
472.218	0.11
472.572	0.12
472.926	0.13
473.279	0.13
473.633	0.15
473.986	0.15
474.34	0.15
474.693	0.17
475.046	0.19
475.4	0.19
475.753	0.2
476.106	0.21
476.459	0.23
476.812	0.24
477.165	0.24
477.519	0.25
477.872	0.26
478.224	0.27
478.577	0.27
478.93	0.29
479.283	0.29
479.636	0.3
479.989	0.31
480.341	0.31
480.694	0.32
481.047	0.34
481.399	0.34
481.752	0.35
482.104	0.35
482.457	0.36
482.809	0.37
483.162	0.37
483.514	0.38
483.866	0.39
484.219	0.4
484.571	0.4
484.923	0.4
485.275	0.41
485.627	0.41
485.979	0.42
486.331	0.43
486.683	0.44
487.035	0.44
487.387	0.45
487.739	0.47
488.091	0.47
488.443	0.48
488.794	0.47
489.146	0.48
489.498	0.49
489.849	0.49
490.201	0.49
490.552	0.5
490.904	0.5
491.255	0.51
491.607	0.51
491.958	0.52
492.309	0.52
492.661	0.52
493.012	0.53
493.363	0.53
493.714	0.54
494.065	0.55
494.416	0.55
494.767	0.55
495.118	0.56
495.469	0.57
495.82	0.57
496.171	0.58
496.522	0.58
496.872	0.59
497.223	0.59
497.574	0.59
497.924	0.6
498.275	0.61
498.626	0.61
498.976	0.62
499.327	0.63
499.677	0.63
500.027	0.63
500.378	0.64
500.728	0.64
501.078	0.65
501.428	0.65
501.779	0.66
502.129	0.66
502.479	0.67
502.829	0.67
503.179	0.69
503.529	0.68
503.879	0.69
504.229	0.69
504.578	0.69
504.928	0.7
505.278	0.7
505.628	0.71
505.977	0.72
506.327	0.72
506.676	0.72
507.026	0.73
507.375	0.73
507.725	0.74
508.074	0.74
508.424	0.74
508.773	0.75
509.122	0.75
509.471	0.75
509.82	0.76
510.17	0.77
510.519	0.77
510.868	0.77
511.217	0.78
511.566	0.77
511.915	0.79
512.263	0.79
512.612	0.79
512.961	0.8
513.31	0.8
513.659	0.8
514.007	0.81
514.356	0.81
514.704	0.81
515.053	0.82
515.401	0.83
515.75	0.82
516.098	0.84
516.447	0.83
516.795	0.83
517.143	0.84
517.491	0.83
517.839	0.85
518.188	0.85
518.536	0.85
518.884	0.86
519.232	0.85
519.58	0.86
519.928	0.86
520.275	0.88
520.623	0.87
520.971	0.88
521.319	0.88
521.666	0.89
522.014	0.89
522.362	0.88
522.709	0.89
523.057	0.9
523.404	0.91
523.752	0.9
524.099	0.9
524.446	0.91
524.794	0.91
525.141	0.91
525.488	0.93
525.835	0.92
526.182	0.93
526.529	0.93
526.876	0.92
527.223	0.93
527.57	0.93
527.917	0.93
528.264	0.93
528.611	0.94
528.958	0.94
529.304	0.94
529.651	0.94
529.998	0.96
530.344	0.95
530.691	0.95
531.037	0.96
531.384	0.96
531.73	0.96
532.076	0.96
532.423	0.97
532.769	0.97
533.115	0.98
533.461	0.97
533.807	0.97
534.154	0.97
534.5	0.98
534.846	0.98
535.192	0.98
535.537	0.99
535.883	0.99
536.229	0.99
536.575	0.99
536.921	0.99
537.266	0.99
537.612	0.99
537.957	0.99
538.303	0.99
538.649	0.99
538.994	0.99
539.339	1
539.685	1
540.03	1.01
540.375	1.01
540.721	1.01
541.066	1.01
541.411	1
541.756	1.01
542.101	1.01
542.446	1.01
542.791	1.01
543.136	1.02
543.481	1.02
543.825	1.02
544.17	1.01
544.515	1.02
544.86	1.02
545.204	1.02
545.549	1.01
545.893	1.02
546.238	1.01
546.582	1.02
546.927	1.02
547.271	1.02
547.615	1.03
547.96	1.02
548.304	1.02
548.648	1.03
548.992	1.02
549.336	1.02
549.68	1.02
550.024	1.02
550.368	1.03
550.712	1.03
551.056	1.02
551.4	1.03
551.743	1.02
552.087	1.02
552.431	1.02
552.774	1.02
553.118	1.02
553.462	1.02
553.805	1.02
554.148	1.03
554.492	1.02
554.835	1.02
555.178	1.02
555.522	1.02
555.865	1.02
556.208	1.01
556.551	1.01
556.894	1.02
557.237	1.02
557.58	1.02
557.923	1.01
558.266	1.01
558.609	1.02
558.952	1.02
559.294	1.02
559.637	1.01
559.98	1.02
560.322	1.01
560.665	1
561.007	1
561.35	1
561.692	1
562.034	1
562.377	1.01
562.719	1
563.061	1
563.403	1
563.745	1
564.088	1
564.43	1
564.772	0.99
565.113	0.99
565.455	0.99
565.797	0.99
566.139	0.99
566.481	0.99
566.822	0.98
567.164	0.99
567.506	0.98
567.847	0.99
568.189	0.98
568.53	0.98
568.872	0.98
569.213	0.98
569.554	0.97
569.895	0.97
570.237	0.96
570.578	0.97
570.919	0.97
571.26	0.96
571.601	0.96
571.942	0.97
572.283	0.95
572.624	0.96
572.965	0.95
573.306	0.95
573.646	0.95
573.987	0.94
574.328	0.95
574.668	0.94
575.009	0.94
575.349	0.93
575.69	0.93
576.03	0.93
576.37	0.93
576.711	0.92
577.051	0.92
577.391	0.93
577.731	0.93
578.072	0.92
578.412	0.92
578.752	0.92
579.092	0.91
579.431	0.9
579.771	0.89
580.111	0.89
580.451	0.9
580.791	0.91
581.13	0.9
581.47	0.9
581.81	0.9
582.149	0.9
582.489	0.9
582.828	0.89
583.167	0.86
583.507	0.83
583.846	0.83
584.185	0.87
584.525	0.88
584.864	0.89
585.203	0.89
585.542	0.89
585.881	0.89
586.22	0.88
586.559	0.87
586.898	0.87
587.236	0.86
587.575	0.87
587.914	0.87
588.252	0.88
588.591	0.88
588.93	0.87
589.268	0.86
589.607	0.87
589.945	0.87
590.283	0.87
590.622	0.87
590.96	0.87
591.298	0.87
591.636	0.87
591.974	0.87
592.313	0.87
592.651	0.87
592.989	0.87
593.326	0.87
593.664	0.86
594.002	0.86
594.34	0.86
594.678	0.86
595.015	0.85
595.353	0.85
595.691	0.86
596.028	0.86
596.366	0.86
596.703	0.86
597.04	0.86
597.378	0.86
597.715	0.86
598.052	0.86
598.389	0.85
598.726	0.86
599.064	0.85
599.401	0.85
599.738	0.86
600.074	0.85
600.411	0.85
600.748	0.84
601.085	0.84
601.422	0.84
601.758	0.84
602.095	0.84
602.432	0.84
602.768	0.84
603.105	0.84
603.441	0.84
603.777	0.84
604.114	0.84
604.45	0.83
604.786	0.83
605.122	0.83
605.459	0.82
605.795	0.82
606.131	0.83
606.467	0.82
606.803	0.82
607.139	0.82
607.474	0.82
607.81	0.82
608.146	0.81
608.482	0.81
608.817	0.81
609.153	0.8
609.488	0.8
609.824	0.8
610.159	0.8
610.495	0.8
610.83	0.8
611.165	0.8
611.5	0.79
611.836	0.79
612.171	0.79
612.506	0.78
612.841	0.78
613.176	0.78
613.511	0.78
613.845	0.77
614.18	0.77
614.515	0.77
614.85	0.77
615.184	0.77
615.519	0.76
615.854	0.76
616.188	0.75
616.523	0.75
616.857	0.75
617.191	0.75
617.526	0.74
617.86	0.74
618.194	0.74
618.528	0.74
618.862	0.73
619.196	0.73
619.53	0.73
619.864	0.73
620.198	0.73
620.532	0.72
620.866	0.72
621.2	0.71
621.533	0.71
621.867	0.71
622.201	0.71
622.534	0.7
622.868	0.7
623.201	0.7
623.534	0.69
623.868	0.69
624.201	0.69
624.534	0.69
624.868	0.69
625.201	0.68
625.534	0.68
625.867	0.67
626.2	0.67
626.533	0.67
626.865	0.67
627.198	0.66
627.531	0.66
627.864	0.66
628.196	0.65
628.529	0.65
628.862	0.65
629.194	0.64
629.527	0.64
629.859	0.63
630.191	0.63
630.524	0.63
630.856	0.63
631.188	0.62
631.52	0.62
631.852	0.61
632.184	0.61
632.516	0.61
632.848	0.61
633.18	0.6
633.512	0.6
633.844	0.59
634.175	0.59
634.507	0.59
634.839	0.58
635.17	0.58
635.502	0.57
635.833	0.57
636.165	0.57
636.496	0.56
636.827	0.56
637.159	0.56
637.49	0.56
637.821	0.55
638.152	0.55
638.483	0.54
638.814	0.54
639.145	0.53
639.476	0.53
639.807	0.53
640.137	0.52
640.468	0.52
640.799	0.52
641.129	0.51
641.46	0.51
641.791	0.5
642.121	0.5
642.451	0.5
642.782	0.5
643.112	0.49
643.442	0.49
643.773	0.49
644.103	0.49
644.433	0.48
644.763	0.48
645.093	0.48
645.423	0.48
645.753	0.47
646.082	0.47
646.412	0.47
646.742	0.47
647.072	0.47
647.401	0.46
647.731	0.46
648.06	0.46
648.39	0.46
648.719	0.45
649.048	0.45
649.378	0.45
649.707	0.45
650.036	0.44
650.365	0.44
650.694	0.44
651.023	0.44
651.352	0.44
651.681	0.44
652.01	0.44
652.339	0.43
652.668	0.43
652.996	0.43
653.325	0.43
653.654	0.43
653.982	0.43
654.311	0.42
654.639	0.42
654.967	0.42
655.296	0.42
655.624	0.42
655.952	0.42
656.28	0.42
656.609	0.41
656.937	0.41
657.265	0.4
657.593	0.25
657.92	0.16
658.248	0.14
658.576	0.22
658.904	0.34
659.231	0.4
659.559	0.4
659.887	0.4
660.214	0.4
660.542	0.4
660.869	0.4
661.196	0.39
661.524	0.39
661.851	0.39
662.178	0.39
662.505	0.39
662.832	0.39
663.159	0.39
663.486	0.38
663.813	0.38
664.14	0.38
664.467	0.38
664.794	0.38
665.12	0.37
665.447	0.37
665.774	0.37
666.1	0.37
666.427	0.37
666.753	0.36
667.079	0.36
667.406	0.36
667.732	0.36
668.058	0.36
668.384	0.36
668.71	0.35
669.036	0.35
669.362	0.35
669.688	0.34
670.014	0.34
670.34	0.34
670.666	0.34
670.991	0.34
671.317	0.34
671.643	0.33
671.968	0.33
672.294	0.33
672.619	0.32
672.945	0.32
673.27	0.32
673.595	0.32
673.92	0.31
674.246	0.31
674.571	0.31
674.896	0.31
675.221	0.31
675.546	0.31
675.87	0.31
676.195	0.3
676.52	0.3
676.845	0.29
677.169	0.29
677.494	0.29
677.819	0.29
678.143	0.28
678.468	0.28
678.792	0.28
679.116	0.28
679.44	0.28
679.765	0.27
680.089	0.27
680.413	0.26
680.737	0.26
681.061	0.26
681.385	0.26
681.709	0.25
682.033	0.25
682.356	0.25
682.68	0.25
683.004	0.25
683.327	0.24
683.651	0.24
683.974	0.24
684.298	0.24
684.621	0.23
684.944	0.23
685.268	0.23
685.591	0.23
685.914	0.22
686.237	0.22
686.56	0.22
686.883	0.22
687.206	0.21
687.529	0.21
687.852	0.21
688.175	0.21
688.497	0.21
688.82	0.2
689.142	0.2
689.465	0.2
689.787	0.2
690.11	0.2
690.432	0.19
690.755	0.19
691.077	0.19
691.399	0.18
691.721	0.18
692.043	0.18
692.365	0.18
692.687	0.18
693.009	0.17
693.331	0.17
693.653	0.17
693.974	0.17
694.296	0.17
694.618	0.17
694.939	0.16
695.261	0.16
695.582	0.16
695.904	0.16
696.225	0.16
696.546	0.16
696.868	0.15
697.189	0.15
697.51	0.15
697.831	0.15
698.152	0.15
698.473	0.15
698.794	0.14
699.114	0.14
699.435	0.14
699.756	0.14
700.077	0.14
700.397	0.14
700.718	0.14
701.038	0.14
701.359	0.14
701.679	0.14
701.999	0.14
702.32	0.14
702.64	0.14
702.96	0.13
703.28	0.13
703.6	0.13
703.92	0.13
704.24	0.13
704.56	0.13
704.879	0.13
705.199	0.13
705.519	0.13
705.838	0.13
706.158	0.13
706.478	0.13
706.797	0.13
707.116	0.13
707.436	0.13
707.755	0.13
708.074	0.12
708.393	0.12
708.712	0.12
709.031	0.11
709.35	0.11
709.669	0.11
709.988	0.11
710.307	0.11
710.626	0.12
710.944	0.12
711.263	0.12
711.582	0.12
711.9	0.12
712.219	0.12
712.537	0.12
712.855	0.12
713.174	0.12
713.492	0.12
713.81	0.12
714.128	0.12
714.446	0.12
714.764	0.12
715.082	0.11
715.4	0.12
715.718	0.12
716.035	0.11
716.353	0.12
716.671	0.12
716.988	0.12
717.306	0.12
717.623	0.12
717.941	0.12
718.258	0.12
718.575	0.12
718.893	0.12
719.21	0.12
719.527	0.12
719.844	0.12
720.161	0.12
720.478	0.12
720.795	0.12
721.112	0.12
721.428	0.12
721.745	0.12
722.062	0.12
722.378	0.12
722.695	0.12
723.011	0.12
723.328	0.12
723.644	0.12
723.96	0.12
724.276	0.13
724.593	0.13
724.909	0.13
725.225	0.12
725.541	0.13
725.857	0.12
726.173	0.13
726.488	0.13
726.804	0.12
727.12	0.13
727.435	0.13
727.751	0.13
728.067	0.12
728.382	0.12
728.697	0.13
729.013	0.13
729.328	0.12
729.643	0.12
729.958	0.12
730.273	0.12
730.588	0.12
730.903	0.12
731.218	0.12
731.533	0.12
731.848	0.12
732.163	0.12
732.477	0.12
732.792	0.12
733.107	0.11
733.421	0.12
733.736	0.12
734.05	0.12
734.364	0.12
734.678	0.12
734.993	0.12
735.307	0.12
735.621	0.11
735.935	0.12
736.249	0.11
736.563	0.11
736.877	0.11
737.19	0.12
737.504	0.12
737.818	0.12
738.131	0.11
738.445	0.11
738.758	0.12
739.072	0.11
739.385	0.11
739.698	0.11
740.012	0.12
740.325	0.11
740.638	0.11
740.951	0.11
741.264	0.1
741.577	0.11
741.89	0.11
742.203	0.1
742.515	0.11
742.828	0.11
743.141	0.11
743.453	0.1
743.766	0.1
744.078	0.1
744.391	0.1
744.703	0.1
745.015	0.09
745.327	0.1
745.639	0.1
745.952	0.1
746.264	0.1
746.575	0.1
746.887	0.09
747.199	0.09
747.511	0.09
747.823	0.09
748.134	0.09
748.446	0.09
748.757	0.09
749.069	0.09
749.38	0.09
749.692	0.09
750.003	0.09
750.314	0.08
750.625	0.09
750.936	0.08
751.248	0.08
751.559	0.08
751.869	0.08
752.18	0.08
752.491	0.08
752.802	0.08
753.112	0.08
753.423	0.08
753.734	0.08
754.044	0.08
754.355	0.07
754.665	0.08
754.975	0.07
755.285	0.07
755.596	0.07
755.906	0.08
756.216	0.07
756.526	0.07
756.836	0.07
757.146	0.07
757.455	0.07
757.765	0.07
758.075	0.07
758.385	0.07
758.694	0.07
759.004	0.07
759.313	0.06
759.622	0.07
759.932	0.06
760.241	0.07
760.55	0.07
760.859	0.07
761.168	0.07
761.477	0.07
761.786	0.06
762.095	0.06
762.404	0.06
762.713	0.06
763.021	0.06
763.33	0.06
763.639	0.06
763.947	0.06
764.256	0.07
764.564	0.07
764.872	0.06
765.181	0.06
765.489	0.06
765.797	0.06
766.105	0.06
766.413	0.06
766.721	0.06
767.029	0.06
767.337	0.06
767.644	0.06
767.952	0.06
768.26	0.06
768.567	0.06
768.875	0.06
769.182	0.06
769.49	0.06
769.797	0.06
770.104	0.06
770.411	0.06
770.718	0.06
771.026	0.06
771.333	0.06
771.639	0.06
771.946	0.06
772.253	0.06
772.56	0.06
772.867	0.06
773.173	0.06
773.48	0.06
773.786	0.06
774.093	0.06
774.399	0.06
774.705	0.06
775.012	0.06
775.318	0.06
775.624	0.06
775.93	0.06
776.236	0.06
776.542	0.06
776.848	0.06
777.154	0.06
777.459	0.06
777.765	0.06
778.071	0.07
778.376	0.07
778.682	0.07
778.987	0.07
779.292	0.07
779.598	0.07
779.903	0.07
780.208	0.06
780.513	0.07
780.818	0.06
781.123	0.06
781.428	0.06
781.733	0.06
782.038	0.06
782.343	0.07
782.647	0.06
782.952	0.07
783.256	0.07
783.561	0.07
783.865	0.07
784.17	0.07
784.474	0.07
784.778	0.07
785.082	0.07
785.386	0.07
785.69	0.07
785.994	0.07
786.298	0.07
786.602	0.07
786.906	0.07
787.209	0.07
787.513	0.07
787.817	0.07
788.12	0.07
788.424	0.07
788.727	0.07
789.03	0.07
789.333	0.07
789.637	0.07
789.94	0.07
790.243	0.07
790.546	0.07
790.849	0.07
791.152	0.07
791.454	0.07
791.757	0.07
792.06	0.07
792.362	0.07
792.665	0.08
792.967	0.07
793.27	0.07
793.572	0.07
793.874	0.07
794.177	0.07
794.479	0.07
794.781	0.08
795.083	0.07
795.385	0.08
795.687	0.08
795.989	0.08
796.29	0.08
796.592	0.08
796.894	0.08
797.195	0.08
797.497	0.08
797.798	0.08
798.1	0.08
798.401	0.08
798.702	0.09
799.003	0.08
799.304	0.08
799.605	0.08
799.906	0.08
800.207	0.08
800.508	0.08
800.809	0.08
801.11	0.08
801.41	0.08
801.711	0.09
802.011	0.09
802.312	0.08
802.612	0.08
802.913	0.08
803.213	0.09
803.513	0.09
803.813	0.09
804.113	0.08
804.413	0.09
804.713	0.09
805.013	0.09
805.313	0.09
805.613	0.09
805.912	0.09
806.212	0.09
806.511	0.09
806.811	0.09
807.11	0.09
807.41	0.09
807.709	0.09
808.008	0.09
808.307	0.09
808.606	0.09
808.905	0.09
809.204	0.09
809.503	0.09
809.802	0.09
810.101	0.09
810.399	0.09
810.698	0.09
810.997	0.09
811.295	0.1
811.593	0.1
811.892	0.1
812.19	0.1
812.488	0.1
812.786	0.1
813.084	0.1
813.383	0.1
813.68	0.1
813.978	0.1
814.276	0.1
814.574	0.1
814.872	0.1
815.169	0.1
815.467	0.11
815.764	0.1
816.062	0.11
816.359	0.1
816.656	0.1
816.954	0.1
817.251	0.1
817.548	0.11
817.845	0.1
818.142	0.11
818.439	0.11
818.735	0.1
819.032	0.11
819.329	0.1
819.626	0.11
819.922	0.11
820.219	0.11
820.515	0.11
820.811	0.11
821.108	0.11
821.404	0.11
821.7	0.11
821.996	0.11
822.292	0.11
822.588	0.11
822.884	0.11
823.18	0.12
823.475	0.11
823.771	0.11
824.067	0.11
824.362	0.11
824.658	0.11
824.953	0.12
825.249	0.11
825.544	0.12
825.839	0.12
826.134	0.12
826.429	0.12
826.724	0.12
827.019	0.11
827.314	0.12
827.609	0.12
827.904	0.12
828.198	0.12
828.493	0.12
828.787	0.12
829.082	0.12
829.376	0.11
829.671	0.12
829.965	0.12
830.259	0.13
830.553	0.12
830.847	0.13
831.141	0.12
831.435	0.13
831.729	0.13
832.023	0.13
832.317	0.13
832.61	0.13
832.904	0.13
833.197	0.13
833.491	0.13
833.784	0.13
834.077	0.13
834.371	0.13
834.664	0.13
834.957	0.12
835.25	0.14
835.543	0.13
835.836	0.14
836.129	0.13
836.421	0.14
836.714	0.13
837.007	0.14
837.299	0.13
837.592	0.14
837.884	0.14
838.177	0.13
838.469	0.14
838.761	0.13
839.053	0.14
839.345	0.14
839.637	0.14
839.929	0.14
840.221	0.14
840.513	0.13
840.805	0.14
841.096	0.14
841.388	0.14
841.68	0.14
841.971	0.13
842.262	0.14
842.554	0.14
842.845	0.15
843.136	0.15
843.427	0.15
843.718	0.14
844.009	0.14
844.3	0.15
844.591	0.15
844.882	0.14
845.173	0.14
845.463	0.16
845.754	0.15
846.044	0.15
846.335	0.14
846.625	0.15
846.915	0.14
847.206	0.15
847.496	0.15
847.786	0.16
848.076	0.16
848.366	0.15
848.656	0.16
848.945	0.16
849.235	0.15
849.525	0.16
849.814	0.16
850.104	0.15
850.393	0.15
850.683	0.16
850.972	0.15
851.261	0.16
851.551	0.15
851.84	0.16
852.129	0.15
852.418	0.15
852.707	0.16
852.995	0.16
853.284	0.15
853.573	0.15
853.862	0.17
854.15	0.17
854.439	0.17
854.727	0.17
855.015	0.17
855.304	0.16
855.592	0.15
855.88	0.15
856.168	0.17
856.456	0.17
856.744	0.17
857.032	0.16
857.32	0.17
857.607	0.19
857.895	0.18
858.183	0.18
858.47	0.18
858.757	0.18
859.045	0.17
859.332	0.16
859.619	0.18
859.907	0.18
860.194	0.2
860.481	0.18
860.768	0.14
861.054	0.19
861.341	0.17
861.628	0.17
861.915	0.19
862.201	0.16
862.488	0.16
862.774	0.16
863.061	0.18
863.347	0.2
863.633	0.18
863.919	0.15
864.205	0.18
864.491	0.16
864.777	0.19
865.063	0.2
865.349	0.18
865.635	0.15
865.92	0.17
866.206	0.15
866.492	0.14
866.777	0.19
867.062	0.19
867.348	0.14
867.633	0.18
867.918	0.19
868.203	0.2
868.488	0.17
868.773	0.22
869.058	0.16
869.343	0.22
869.628	0.15
869.912	0.19
870.197	0.17
870.482	0.24
870.766	0.18
871.05	0.19
871.335	0.2
871.619	0.14
871.903	0.17
872.187	0.19
872.471	0.18
872.755	0.22
873.039	0.14
873.323	0.18
873.607	0.21
873.89	0.19
874.174	0.18
874.458	0.08
874.741	0.19
875.024	0.17
875.308	0.19
875.591	0.2
875.874	0.17
876.157	0.15
876.44	0.13
876.723	0.17
877.006	0.17
877.289	0.21
877.572	0.24
877.854	0.15
878.137	0.12
878.42	0.13
878.702	0.13
878.984	0.14
879.267	0.19
879.549	0.23
879.831	0.13
880.113	0.09
880.395	0.21
880.677	0.22
880.959	0.12
