Data from Rubpy_BV_1800_EDTA_Buffered_Absorbance_16-43-32-557.txt Node
Date: Wed Jul 01 16:43:32 BST 2026
User: fpm-admin
Spectrometer: OFX00224
Trigger mode: 0
Integration Time (sec): 7.000000E-2
Scans to average: 3
Nonlinearity correction enabled: false
Boxcar width: 0
Storing dark spectrum: false
XAxis mode: Wavelengths
Number of Pixels in Spectrum: 2136
>>>>>Begin Spectral Data<<<<<
154.91	0.64
155.289	0.3
155.669	-0
156.048	-0
156.428	-0
156.807	0.31
157.186	-0
157.566	-0
157.945	-0.99
158.325	0.87
158.704	-0.32
159.083	-0.03
159.462	-0.24
159.842	-0
160.221	0.13
160.6	-0
160.979	0.05
161.359	-0
161.738	-0
162.117	-0.68
162.496	0.41
162.875	0.07
163.254	0.33
163.633	-0
164.012	0.21
164.391	0.45
164.77	-0.06
165.149	-0.8
165.528	0.1
165.907	0.18
166.286	-0.33
166.665	-0
167.044	-0.17
167.423	-0.04
167.802	0.26
168.181	-1.52
168.559	-0
168.938	-0
169.317	-0
169.696	-0
170.074	-0
170.453	-0
170.832	-0.85
171.21	0.54
171.589	0.48
171.968	0.08
172.346	-0.32
172.725	-0.8
173.103	-0
173.482	-0
173.861	0.52
174.239	-0.46
174.617	-0
174.996	-0.22
175.374	-0.45
175.753	-0
176.131	0.73
176.51	-0
176.888	-0
177.266	-0
177.645	-0.11
178.023	1.86
178.401	-0.25
178.779	-0.16
179.158	-0
179.536	0.16
179.914	0.41
180.292	-0
180.67	-0
181.048	0.54
181.427	-0.33
181.805	-0.36
182.183	-0.33
182.561	1
182.939	-0
183.317	0.15
183.695	0.95
184.073	-0
184.451	-0
184.829	-0.17
185.206	-0.51
185.584	-0
185.962	-0.45
186.34	-0.28
186.718	-0.07
187.096	-0
187.473	-0.58
187.851	-0.08
188.229	-0.08
188.607	0.04
188.984	0.16
189.362	0.06
189.74	0.26
190.117	0.04
190.495	0.18
190.872	0.15
191.25	0.19
191.627	0.2
192.005	0.15
192.382	0.32
192.76	0.1
193.137	0.12
193.515	0.24
193.892	0.17
194.269	0.18
194.647	0.04
195.024	0.14
195.401	0.27
195.779	0.22
196.156	0.16
196.533	0.23
196.91	0.11
197.288	0.29
197.665	0.13
198.042	0.14
198.419	0.15
198.796	0.11
199.173	0.16
199.55	0.19
199.927	0.12
200.304	0.31
200.681	0.12
201.058	0.05
201.435	0.23
201.812	0.09
202.189	0.11
202.566	0.23
202.943	0.11
203.32	0.17
203.697	0.14
204.073	0.19
204.45	0.3
204.827	0.12
205.204	0.21
205.58	0.31
205.957	0.15
206.334	0.17
206.71	0.21
207.087	0.11
207.464	0.2
207.84	0.21
208.217	0.2
208.593	0.16
208.97	0.16
209.346	0.25
209.723	0.13
210.099	0.17
210.476	0.21
210.852	0.33
211.228	0.22
211.605	0.17
211.981	0.21
212.357	0.24
212.733	0.14
213.11	0.17
213.486	0.23
213.862	0.14
214.238	0.21
214.614	0.18
214.991	0.22
215.367	0.23
215.743	0.12
216.119	0.21
216.495	0.25
216.871	0.13
217.247	0.13
217.623	0.13
217.999	0.18
218.375	0.22
218.751	0.18
219.127	0.27
219.502	0.27
219.878	0.12
220.254	0.27
220.63	0.23
221.006	0.25
221.381	0.18
221.757	0.24
222.133	0.19
222.508	0.17
222.884	0.09
223.26	0.13
223.635	0.11
224.011	0.12
224.386	0.15
224.762	0.14
225.137	0.29
225.513	0.15
225.888	0.17
226.264	0.28
226.639	0.16
227.014	0.41
227.39	0.27
227.765	0.18
228.14	0.17
228.516	0.19
228.891	0.2
229.266	0.16
229.641	0.15
230.017	0.25
230.392	0.16
230.767	0.24
231.142	0.24
231.517	0.21
231.892	0.2
232.267	0.27
232.642	0.2
233.017	0.16
233.392	0.25
233.767	0.21
234.142	0.17
234.517	0.13
234.892	0.25
235.267	0.16
235.641	0.19
236.016	0.22
236.391	0.16
236.766	0.3
237.14	0.15
237.515	0.35
237.89	0.19
238.264	0.4
238.639	0.06
239.014	0.34
239.388	0.18
239.763	0.19
240.137	0.22
240.512	0.28
240.886	0.18
241.261	0.09
241.635	0.16
242.009	0.18
242.384	0.18
242.758	0.22
243.132	0.18
243.507	0.23
243.881	0.16
244.255	0.2
244.629	0.13
245.004	0.22
245.378	0.34
245.752	0.25
246.126	0.25
246.5	0.18
246.874	0.17
247.248	0.16
247.622	0.26
247.996	0.19
248.37	0.22
248.744	0.15
249.118	-0.02
249.492	0.2
249.866	0.2
250.24	0.23
250.613	0.22
250.987	0.21
251.361	0.2
251.735	0.25
252.108	0.16
252.482	0.17
252.856	0.09
253.229	0.3
253.603	0.2
253.977	0.18
254.35	0.23
254.724	0.22
255.097	0.16
255.471	0.16
255.844	0.17
256.218	0.2
256.591	0.17
256.964	0.25
257.338	0.2
257.711	0.21
258.084	0.18
258.458	0.24
258.831	0.35
259.204	0.21
259.577	0.13
259.95	0.2
260.323	0.18
260.697	0.08
261.07	0.14
261.443	0.2
261.816	0.16
262.189	0.12
262.562	0.15
262.935	0.18
263.308	0.11
263.68	0.2
264.053	0.31
264.426	0.22
264.799	0.22
265.172	0.23
265.545	0.13
265.917	0.26
266.29	0.17
266.663	0.18
267.035	0.22
267.408	0.2
267.781	0.23
268.153	0.16
268.526	0.25
268.898	0.27
269.271	0.18
269.643	0.22
270.016	0.33
270.388	0.09
270.76	0.2
271.133	0.16
271.505	0.11
271.877	0.13
272.25	0.15
272.622	0.18
272.994	0.22
273.366	0.24
273.739	0.17
274.111	0.2
274.483	0.15
274.855	0.17
275.227	0.26
275.599	0.13
275.971	0.24
276.343	0.16
276.715	0.16
277.087	0.21
277.459	0.24
277.831	0.17
278.203	0.19
278.574	0.26
278.946	0.09
279.318	0.14
279.69	0.2
280.061	0.14
280.433	0.26
280.805	0.29
281.176	0.2
281.548	0.25
281.92	0.24
282.291	0.17
282.663	0.12
283.034	0.17
283.406	0.2
283.777	0.26
284.148	0.21
284.52	0.28
284.891	0.27
285.262	0.25
285.634	0.18
286.005	0.21
286.376	0.2
286.747	0.17
287.119	0.23
287.49	0.27
287.861	0.14
288.232	0.15
288.603	0.2
288.974	0.12
289.345	0.16
289.716	0.19
290.087	0.19
290.458	0.18
290.829	0.14
291.2	0.22
291.571	0.23
291.941	0.17
292.312	0.18
292.683	0.14
293.054	0.23
293.424	0.16
293.795	0.22
294.166	0.18
294.536	0.16
294.907	0.17
295.277	0.17
295.648	0.23
296.018	0.2
296.389	0.14
296.759	0.15
297.13	0.25
297.5	0.2
297.871	0.19
298.241	0.23
298.611	0.2
298.981	0.19
299.352	0.2
299.722	0.17
300.092	0.26
300.462	0.2
300.832	0.24
301.202	0.2
301.573	0.14
301.943	0.26
302.313	0.21
302.683	0.18
303.053	0.18
303.422	0.17
303.792	0.23
304.162	0.2
304.532	0.24
304.902	0.14
305.272	0.17
305.641	0.24
306.011	0.21
306.381	0.21
306.75	0.2
307.12	0.15
307.49	0.2
307.859	0.16
308.229	0.21
308.598	0.17
308.968	0.19
309.337	0.19
309.707	0.16
310.076	0.1
310.445	0.14
310.815	0.15
311.184	0.15
311.553	0.17
311.923	0.16
312.292	0.14
312.661	0.16
313.03	0.14
313.399	0.16
313.768	0.17
314.137	0.14
314.506	0.15
314.875	0.14
315.244	0.13
315.613	0.15
315.982	0.17
316.351	0.15
316.72	0.15
317.089	0.17
317.458	0.17
317.826	0.15
318.195	0.15
318.564	0.16
318.933	0.17
319.301	0.16
319.67	0.16
320.038	0.17
320.407	0.18
320.775	0.18
321.144	0.18
321.512	0.19
321.881	0.18
322.249	0.18
322.618	0.19
322.986	0.18
323.354	0.19
323.723	0.18
324.091	0.19
324.459	0.2
324.827	0.19
325.195	0.2
325.564	0.2
325.932	0.2
326.3	0.2
326.668	0.21
327.036	0.21
327.404	0.22
327.772	0.22
328.14	0.22
328.508	0.22
328.875	0.22
329.243	0.23
329.611	0.23
329.979	0.23
330.346	0.24
330.714	0.24
331.082	0.24
331.449	0.24
331.817	0.24
332.185	0.26
332.552	0.26
332.92	0.26
333.287	0.26
333.655	0.27
334.022	0.28
334.389	0.28
334.757	0.29
335.124	0.28
335.491	0.3
335.859	0.3
336.226	0.3
336.593	0.31
336.96	0.32
337.327	0.32
337.695	0.33
338.062	0.34
338.429	0.34
338.796	0.35
339.163	0.35
339.53	0.36
339.897	0.37
340.263	0.38
340.63	0.38
340.997	0.39
341.364	0.4
341.731	0.41
342.097	0.41
342.464	0.41
342.831	0.42
343.197	0.43
343.564	0.43
343.931	0.44
344.297	0.44
344.664	0.45
345.03	0.47
345.396	0.46
345.763	0.48
346.129	0.48
346.496	0.49
346.862	0.5
347.228	0.5
347.594	0.51
347.961	0.52
348.327	0.53
348.693	0.53
349.059	0.53
349.425	0.55
349.791	0.55
350.157	0.56
350.523	0.56
350.889	0.57
351.255	0.58
351.621	0.58
351.987	0.59
352.353	0.59
352.719	0.6
353.084	0.61
353.45	0.61
353.816	0.62
354.181	0.63
354.547	0.64
354.913	0.65
355.278	0.65
355.644	0.66
356.009	0.67
356.375	0.68
356.74	0.69
357.106	0.7
357.471	0.71
357.836	0.71
358.202	0.73
358.567	0.73
358.932	0.75
359.297	0.75
359.663	0.77
360.028	0.78
360.393	0.79
360.758	0.8
361.123	0.81
361.488	0.83
361.853	0.84
362.218	0.84
362.583	0.86
362.948	0.87
363.312	0.87
363.677	0.88
364.042	0.89
364.407	0.9
364.772	0.91
365.136	0.92
365.501	0.92
365.865	0.95
366.23	0.95
366.595	0.96
366.959	0.97
367.324	0.97
367.688	0.98
368.052	0.99
368.417	1
368.781	1
369.145	1.01
369.51	1.02
369.874	1.03
370.238	1.04
370.602	1.04
370.967	1.06
371.331	1.04
371.695	1.05
372.059	1.06
372.423	1.05
372.787	1.05
373.151	1.05
373.515	1.05
373.878	1.04
374.242	1.05
374.606	1.04
374.97	1.04
375.334	1.03
375.697	1.01
376.061	1
376.425	0.99
376.788	0.99
377.152	0.99
377.515	0.97
377.879	0.97
378.242	0.94
378.606	0.94
378.969	0.94
379.333	0.92
379.696	0.91
380.059	0.91
380.422	0.89
380.786	0.88
381.149	0.88
381.512	0.86
381.875	0.85
382.238	0.84
382.601	0.84
382.964	0.83
383.327	0.82
383.69	0.82
384.053	0.8
384.416	0.8
384.779	0.79
385.142	0.79
385.504	0.79
385.867	0.78
386.23	0.78
386.593	0.79
386.955	0.78
387.318	0.79
387.68	0.79
388.043	0.79
388.405	0.79
388.768	0.79
389.13	0.78
389.493	0.78
389.855	0.77
390.217	0.77
390.58	0.77
390.942	0.76
391.304	0.75
391.666	0.74
392.028	0.73
392.391	0.73
392.753	0.72
393.115	0.71
393.477	0.7
393.839	0.7
394.201	0.7
394.563	0.69
394.924	0.68
395.286	0.68
395.648	0.7
396.01	0.69
396.371	0.7
396.733	0.72
397.095	0.72
397.456	0.74
397.818	0.75
398.18	0.78
398.541	0.8
398.903	0.82
399.264	0.84
399.625	0.85
399.987	0.88
400.348	0.89
400.709	0.91
401.071	0.9
401.432	0.92
401.793	0.91
402.154	0.9
402.515	0.88
402.876	0.88
403.238	0.86
403.599	0.83
403.96	0.82
404.32	0.78
404.681	0.75
405.042	0.72
405.403	0.69
405.764	0.66
406.125	0.62
406.485	0.6
406.846	0.56
407.207	0.53
407.567	0.49
407.928	0.47
408.288	0.45
408.649	0.42
409.009	0.4
409.37	0.37
409.73	0.36
410.091	0.33
410.451	0.32
410.811	0.3
411.171	0.29
411.532	0.27
411.892	0.25
412.252	0.24
412.612	0.24
412.972	0.22
413.332	0.22
413.692	0.21
414.052	0.2
414.412	0.19
414.772	0.18
415.132	0.17
415.492	0.17
415.851	0.16
416.211	0.16
416.571	0.16
416.931	0.15
417.29	0.14
417.65	0.14
418.009	0.14
418.369	0.13
418.728	0.13
419.088	0.13
419.447	0.12
419.807	0.12
420.166	0.12
420.525	0.11
420.884	0.11
421.244	0.1
421.603	0.11
421.962	0.1
422.321	0.11
422.68	0.1
423.039	0.1
423.398	0.1
423.757	0.1
424.116	0.1
424.475	0.1
424.834	0.1
425.193	0.09
425.551	0.09
425.91	0.09
426.269	0.09
426.628	0.09
426.986	0.09
427.345	0.08
427.703	0.09
428.062	0.08
428.42	0.09
428.779	0.08
429.137	0.1
429.496	0.08
429.854	0.08
430.212	0.09
430.57	0.08
430.929	0.08
431.287	0.08
431.645	0.08
432.003	0.09
432.361	0.07
432.719	0.08
433.077	0.08
433.435	0.08
433.793	0.08
434.151	0.08
434.509	0.08
434.866	0.08
435.224	0.07
435.582	0.08
435.94	0.08
436.297	0.08
436.655	0.08
437.012	0.07
437.37	0.08
437.727	0.08
438.085	0.07
438.442	0.08
438.8	0.08
439.157	0.07
439.514	0.08
439.872	0.07
440.229	0.08
440.586	0.07
440.943	0.08
441.3	0.07
441.657	0.08
442.014	0.07
442.371	0.07
442.728	0.08
443.085	0.07
443.442	0.07
443.799	0.08
444.156	0.07
444.513	0.08
444.869	0.07
445.226	0.08
445.583	0.08
445.939	0.08
446.296	0.07
446.652	0.07
447.009	0.07
447.365	0.08
447.722	0.08
448.078	0.07
448.434	0.08
448.791	0.07
449.147	0.07
449.503	0.06
449.859	0.06
450.215	0.06
450.571	0.07
450.928	0.07
451.284	0.07
451.64	0.07
451.995	0.07
452.351	0.07
452.707	0.06
453.063	0.06
453.419	0.06
453.775	0.06
454.13	0.06
454.486	0.06
454.842	0.06
455.197	0.05
455.553	0.05
455.908	0.05
456.264	0.05
456.619	0.04
456.975	0.05
457.33	0.05
457.685	0.04
458.04	0.03
458.396	0.04
458.751	0.03
459.106	0.02
459.461	0.03
459.816	0.03
460.171	0.02
460.526	0.02
460.881	0.01
461.236	0
461.591	0.01
461.946	0
462.301	0.01
462.655	0
463.01	-0
463.365	-0.01
463.719	-0.02
464.074	-0.02
464.428	-0.02
464.783	-0.04
465.137	-0.03
465.492	-0.03
465.846	-0.02
466.201	-0.02
466.555	-0.02
466.909	-0.02
467.263	-0.01
467.618	-0.02
467.972	-0.02
468.326	-0.02
468.68	-0.02
469.034	-0.03
469.388	-0.03
469.742	-0.03
470.096	-0.02
470.45	-0.02
470.804	-0.02
471.157	-0.02
471.511	-0.02
471.865	-0.02
472.218	-0.01
472.572	-0
472.926	-0.01
473.279	0
473.633	0.01
473.986	0.01
474.34	0.02
474.693	0.03
475.046	0.03
475.4	0.04
475.753	0.05
476.106	0.05
476.459	0.06
476.812	0.07
477.165	0.07
477.519	0.08
477.872	0.09
478.224	0.09
478.577	0.09
478.93	0.1
479.283	0.1
479.636	0.11
479.989	0.11
480.341	0.12
480.694	0.12
481.047	0.13
481.399	0.14
481.752	0.14
482.104	0.14
482.457	0.15
482.809	0.15
483.162	0.15
483.514	0.15
483.866	0.16
484.219	0.16
484.571	0.16
484.923	0.17
485.275	0.17
485.627	0.17
485.979	0.18
486.331	0.18
486.683	0.18
487.035	0.18
487.387	0.19
487.739	0.2
488.091	0.2
488.443	0.2
488.794	0.2
489.146	0.2
489.498	0.21
489.849	0.21
490.201	0.21
490.552	0.21
490.904	0.21
491.255	0.22
491.607	0.22
491.958	0.22
492.309	0.22
492.661	0.23
493.012	0.23
493.363	0.23
493.714	0.23
494.065	0.24
494.416	0.24
494.767	0.24
495.118	0.25
495.469	0.24
495.82	0.25
496.171	0.25
496.522	0.26
496.872	0.26
497.223	0.26
497.574	0.26
497.924	0.27
498.275	0.27
498.626	0.27
498.976	0.28
499.327	0.28
499.677	0.28
500.027	0.28
500.378	0.28
500.728	0.28
501.078	0.29
501.428	0.29
501.779	0.29
502.129	0.29
502.479	0.29
502.829	0.3
503.179	0.3
503.529	0.3
503.879	0.31
504.229	0.31
504.578	0.31
504.928	0.31
505.278	0.32
505.628	0.31
505.977	0.32
506.327	0.32
506.676	0.32
507.026	0.33
507.375	0.33
507.725	0.33
508.074	0.33
508.424	0.33
508.773	0.34
509.122	0.33
509.471	0.33
509.82	0.34
510.17	0.34
510.519	0.34
510.868	0.34
511.217	0.35
511.566	0.35
511.915	0.35
512.263	0.35
512.612	0.36
512.961	0.36
513.31	0.35
513.659	0.36
514.007	0.37
514.356	0.37
514.704	0.37
515.053	0.37
515.401	0.37
515.75	0.37
516.098	0.38
516.447	0.38
516.795	0.38
517.143	0.38
517.491	0.38
517.839	0.38
518.188	0.38
518.536	0.39
518.884	0.39
519.232	0.39
519.58	0.39
519.928	0.39
520.275	0.4
520.623	0.4
520.971	0.4
521.319	0.4
521.666	0.4
522.014	0.4
522.362	0.4
522.709	0.41
523.057	0.41
523.404	0.41
523.752	0.41
524.099	0.41
524.446	0.41
524.794	0.42
525.141	0.41
525.488	0.42
525.835	0.42
526.182	0.42
526.529	0.42
526.876	0.43
527.223	0.42
527.57	0.43
527.917	0.43
528.264	0.43
528.611	0.43
528.958	0.43
529.304	0.43
529.651	0.43
529.998	0.43
530.344	0.43
530.691	0.44
531.037	0.44
531.384	0.44
531.73	0.44
532.076	0.44
532.423	0.44
532.769	0.44
533.115	0.44
533.461	0.45
533.807	0.45
534.154	0.45
534.5	0.45
534.846	0.45
535.192	0.45
535.537	0.45
535.883	0.45
536.229	0.46
536.575	0.46
536.921	0.46
537.266	0.46
537.612	0.46
537.957	0.46
538.303	0.46
538.649	0.46
538.994	0.47
539.339	0.46
539.685	0.46
540.03	0.47
540.375	0.47
540.721	0.47
541.066	0.47
541.411	0.47
541.756	0.47
542.101	0.47
542.446	0.47
542.791	0.47
543.136	0.48
543.481	0.48
543.825	0.47
544.17	0.48
544.515	0.48
544.86	0.48
545.204	0.48
545.549	0.48
545.893	0.48
546.238	0.47
546.582	0.48
546.927	0.48
547.271	0.48
547.615	0.48
547.96	0.48
548.304	0.48
548.648	0.49
548.992	0.48
549.336	0.48
549.68	0.48
550.024	0.49
550.368	0.49
550.712	0.49
551.056	0.49
551.4	0.48
551.743	0.49
552.087	0.49
552.431	0.48
552.774	0.49
553.118	0.49
553.462	0.49
553.805	0.49
554.148	0.49
554.492	0.49
554.835	0.48
555.178	0.49
555.522	0.49
555.865	0.49
556.208	0.49
556.551	0.48
556.894	0.49
557.237	0.49
557.58	0.49
557.923	0.49
558.266	0.49
558.609	0.49
558.952	0.48
559.294	0.48
559.637	0.49
559.98	0.49
560.322	0.49
560.665	0.49
561.007	0.49
561.35	0.48
561.692	0.49
562.034	0.49
562.377	0.49
562.719	0.48
563.061	0.48
563.403	0.48
563.745	0.48
564.088	0.48
564.43	0.48
564.772	0.48
565.113	0.48
565.455	0.48
565.797	0.48
566.139	0.48
566.481	0.48
566.822	0.48
567.164	0.48
567.506	0.48
567.847	0.48
568.189	0.48
568.53	0.48
568.872	0.48
569.213	0.48
569.554	0.48
569.895	0.47
570.237	0.47
570.578	0.48
570.919	0.47
571.26	0.47
571.601	0.47
571.942	0.47
572.283	0.47
572.624	0.47
572.965	0.47
573.306	0.46
573.646	0.46
573.987	0.46
574.328	0.46
574.668	0.46
575.009	0.45
575.349	0.46
575.69	0.45
576.03	0.45
576.37	0.45
576.711	0.45
577.051	0.45
577.391	0.45
577.731	0.46
578.072	0.45
578.412	0.45
578.752	0.45
579.092	0.45
579.431	0.44
579.771	0.42
580.111	0.42
580.451	0.44
580.791	0.45
581.13	0.44
581.47	0.44
581.81	0.44
582.149	0.44
582.489	0.44
582.828	0.43
583.167	0.41
583.507	0.38
583.846	0.38
584.185	0.42
584.525	0.43
584.864	0.43
585.203	0.44
585.542	0.44
585.881	0.44
586.22	0.44
586.559	0.43
586.898	0.43
587.236	0.42
587.575	0.43
587.914	0.43
588.252	0.44
588.591	0.44
588.93	0.43
589.268	0.43
589.607	0.43
589.945	0.43
590.283	0.43
590.622	0.44
590.96	0.44
591.298	0.44
591.636	0.44
591.974	0.44
592.313	0.44
592.651	0.44
592.989	0.44
593.326	0.44
593.664	0.44
594.002	0.44
594.34	0.44
594.678	0.43
595.015	0.43
595.353	0.43
595.691	0.43
596.028	0.44
596.366	0.44
596.703	0.44
597.04	0.44
597.378	0.44
597.715	0.44
598.052	0.44
598.389	0.44
598.726	0.44
599.064	0.44
599.401	0.44
599.738	0.44
600.074	0.44
600.411	0.44
600.748	0.43
601.085	0.43
601.422	0.43
601.758	0.43
602.095	0.43
602.432	0.43
602.768	0.43
603.105	0.43
603.441	0.44
603.777	0.44
604.114	0.44
604.45	0.44
604.786	0.44
605.122	0.43
605.459	0.43
605.795	0.43
606.131	0.43
606.467	0.43
606.803	0.43
607.139	0.43
607.474	0.42
607.81	0.42
608.146	0.42
608.482	0.42
608.817	0.42
609.153	0.42
609.488	0.42
609.824	0.42
610.159	0.42
610.495	0.42
610.83	0.42
611.165	0.42
611.5	0.42
611.836	0.41
612.171	0.41
612.506	0.42
612.841	0.41
613.176	0.41
613.511	0.41
613.845	0.41
614.18	0.41
614.515	0.41
614.85	0.41
615.184	0.4
615.519	0.4
615.854	0.4
616.188	0.4
616.523	0.39
616.857	0.39
617.191	0.39
617.526	0.39
617.86	0.39
618.194	0.39
618.528	0.39
618.862	0.39
619.196	0.39
619.53	0.39
619.864	0.38
620.198	0.38
620.532	0.38
620.866	0.38
621.2	0.38
621.533	0.38
621.867	0.38
622.201	0.37
622.534	0.38
622.868	0.37
623.201	0.37
623.534	0.37
623.868	0.37
624.201	0.37
624.534	0.37
624.868	0.37
625.201	0.36
625.534	0.36
625.867	0.36
626.2	0.36
626.533	0.36
626.865	0.35
627.198	0.36
627.531	0.35
627.864	0.35
628.196	0.35
628.529	0.35
628.862	0.34
629.194	0.34
629.527	0.34
629.859	0.34
630.191	0.34
630.524	0.34
630.856	0.33
631.188	0.33
631.52	0.33
631.852	0.33
632.184	0.32
632.516	0.32
632.848	0.32
633.18	0.32
633.512	0.32
633.844	0.32
634.175	0.31
634.507	0.31
634.839	0.31
635.17	0.31
635.502	0.3
635.833	0.3
636.165	0.3
636.496	0.3
636.827	0.3
637.159	0.3
637.49	0.3
637.821	0.29
638.152	0.29
638.483	0.29
638.814	0.29
639.145	0.28
639.476	0.28
639.807	0.28
640.137	0.28
640.468	0.28
640.799	0.28
641.129	0.27
641.46	0.27
641.791	0.27
642.121	0.27
642.451	0.27
642.782	0.26
643.112	0.26
643.442	0.26
643.773	0.26
644.103	0.26
644.433	0.26
644.763	0.26
645.093	0.26
645.423	0.25
645.753	0.26
646.082	0.25
646.412	0.25
646.742	0.25
647.072	0.25
647.401	0.25
647.731	0.25
648.06	0.25
648.39	0.24
648.719	0.24
649.048	0.24
649.378	0.24
649.707	0.24
650.036	0.24
650.365	0.24
650.694	0.23
651.023	0.23
651.352	0.23
651.681	0.23
652.01	0.24
652.339	0.23
652.668	0.23
652.996	0.23
653.325	0.23
653.654	0.23
653.982	0.23
654.311	0.23
654.639	0.23
654.967	0.23
655.296	0.23
655.624	0.23
655.952	0.23
656.28	0.22
656.609	0.23
656.937	0.22
657.265	0.21
657.593	0.08
657.92	0.01
658.248	0
658.576	0.04
658.904	0.16
659.231	0.21
659.559	0.22
659.887	0.22
660.214	0.22
660.542	0.22
660.869	0.21
661.196	0.21
661.524	0.21
661.851	0.21
662.178	0.21
662.505	0.21
662.832	0.21
663.159	0.21
663.486	0.21
663.813	0.21
664.14	0.21
664.467	0.2
664.794	0.21
665.12	0.21
665.447	0.21
665.774	0.2
666.1	0.2
666.427	0.2
666.753	0.2
667.079	0.2
667.406	0.2
667.732	0.2
668.058	0.2
668.384	0.2
668.71	0.19
669.036	0.19
669.362	0.19
669.688	0.19
670.014	0.19
670.34	0.19
670.666	0.18
670.991	0.19
671.317	0.18
671.643	0.18
671.968	0.18
672.294	0.18
672.619	0.18
672.945	0.18
673.27	0.18
673.595	0.17
673.92	0.17
674.246	0.17
674.571	0.17
674.896	0.17
675.221	0.17
675.546	0.17
675.87	0.17
676.195	0.16
676.52	0.16
676.845	0.16
677.169	0.16
677.494	0.16
677.819	0.16
678.143	0.15
678.468	0.16
678.792	0.15
679.116	0.15
679.44	0.15
679.765	0.15
680.089	0.15
680.413	0.14
680.737	0.14
681.061	0.14
681.385	0.14
681.709	0.14
682.033	0.14
682.356	0.14
682.68	0.14
683.004	0.14
683.327	0.13
683.651	0.13
683.974	0.13
684.298	0.13
684.621	0.13
684.944	0.13
685.268	0.13
685.591	0.12
685.914	0.12
686.237	0.12
686.56	0.12
686.883	0.12
687.206	0.12
687.529	0.11
687.852	0.11
688.175	0.11
688.497	0.11
688.82	0.11
689.142	0.11
689.465	0.11
689.787	0.11
690.11	0.11
690.432	0.1
690.755	0.1
691.077	0.1
691.399	0.1
691.721	0.1
692.043	0.1
692.365	0.1
692.687	0.09
693.009	0.09
693.331	0.09
693.653	0.09
693.974	0.09
694.296	0.09
694.618	0.09
694.939	0.09
695.261	0.09
695.582	0.09
695.904	0.08
696.225	0.08
696.546	0.08
696.868	0.08
697.189	0.08
697.51	0.08
697.831	0.08
698.152	0.08
698.473	0.08
698.794	0.07
699.114	0.07
699.435	0.07
699.756	0.07
700.077	0.07
700.397	0.07
700.718	0.08
701.038	0.07
701.359	0.07
701.679	0.07
701.999	0.07
702.32	0.07
702.64	0.07
702.96	0.07
703.28	0.07
703.6	0.07
703.92	0.07
704.24	0.07
704.56	0.07
704.879	0.07
705.199	0.07
705.519	0.07
705.838	0.07
706.158	0.07
706.478	0.07
706.797	0.07
707.116	0.07
707.436	0.07
707.755	0.07
708.074	0.06
708.393	0.06
708.712	0.06
709.031	0.05
709.35	0.06
709.669	0.06
709.988	0.06
710.307	0.06
710.626	0.06
710.944	0.06
711.263	0.06
711.582	0.06
711.9	0.06
712.219	0.06
712.537	0.06
712.855	0.06
713.174	0.06
713.492	0.07
713.81	0.06
714.128	0.06
714.446	0.06
714.764	0.06
715.082	0.06
715.4	0.06
715.718	0.06
716.035	0.06
716.353	0.06
716.671	0.06
716.988	0.06
717.306	0.06
717.623	0.07
717.941	0.07
718.258	0.07
718.575	0.07
718.893	0.06
719.21	0.06
719.527	0.07
719.844	0.07
720.161	0.07
720.478	0.07
720.795	0.07
721.112	0.07
721.428	0.07
721.745	0.06
722.062	0.07
722.378	0.07
722.695	0.07
723.011	0.07
723.328	0.07
723.644	0.07
723.96	0.07
724.276	0.07
724.593	0.07
724.909	0.07
725.225	0.07
725.541	0.07
725.857	0.07
726.173	0.07
726.488	0.07
726.804	0.07
727.12	0.07
727.435	0.07
727.751	0.07
728.067	0.07
728.382	0.07
728.697	0.07
729.013	0.07
729.328	0.07
729.643	0.07
729.958	0.07
730.273	0.07
730.588	0.06
730.903	0.07
731.218	0.07
731.533	0.07
731.848	0.06
732.163	0.07
732.477	0.06
732.792	0.06
733.107	0.06
733.421	0.07
733.736	0.06
734.05	0.06
734.364	0.06
734.678	0.06
734.993	0.06
735.307	0.06
735.621	0.06
735.935	0.06
736.249	0.06
736.563	0.06
736.877	0.06
737.19	0.06
737.504	0.06
737.818	0.06
738.131	0.06
738.445	0.06
738.758	0.07
739.072	0.06
739.385	0.06
739.698	0.06
740.012	0.06
740.325	0.06
740.638	0.06
740.951	0.06
741.264	0.06
741.577	0.06
741.89	0.06
742.203	0.06
742.515	0.06
742.828	0.06
743.141	0.06
743.453	0.05
743.766	0.05
744.078	0.05
744.391	0.05
744.703	0.05
745.015	0.05
745.327	0.05
745.639	0.05
745.952	0.05
746.264	0.05
746.575	0.05
746.887	0.05
747.199	0.05
747.511	0.05
747.823	0.05
748.134	0.05
748.446	0.05
748.757	0.05
749.069	0.05
749.38	0.05
749.692	0.05
750.003	0.05
750.314	0.04
750.625	0.04
750.936	0.04
751.248	0.04
751.559	0.04
751.869	0.04
752.18	0.04
752.491	0.04
752.802	0.04
753.112	0.04
753.423	0.04
753.734	0.04
754.044	0.04
754.355	0.04
754.665	0.04
754.975	0.04
755.285	0.04
755.596	0.04
755.906	0.04
756.216	0.04
756.526	0.04
756.836	0.03
757.146	0.03
757.455	0.03
757.765	0.03
758.075	0.03
758.385	0.03
758.694	0.03
759.004	0.03
759.313	0.03
759.622	0.03
759.932	0.03
760.241	0.03
760.55	0.03
760.859	0.03
761.168	0.03
761.477	0.03
761.786	0.03
762.095	0.03
762.404	0.03
762.713	0.03
763.021	0.03
763.33	0.03
763.639	0.03
763.947	0.03
764.256	0.03
764.564	0.03
764.872	0.03
765.181	0.03
765.489	0.03
765.797	0.03
766.105	0.03
766.413	0.03
766.721	0.03
767.029	0.03
767.337	0.03
767.644	0.03
767.952	0.03
768.26	0.03
768.567	0.03
768.875	0.03
769.182	0.03
769.49	0.03
769.797	0.03
770.104	0.03
770.411	0.03
770.718	0.03
771.026	0.03
771.333	0.03
771.639	0.03
771.946	0.03
772.253	0.03
772.56	0.03
772.867	0.03
773.173	0.03
773.48	0.03
773.786	0.03
774.093	0.03
774.399	0.03
774.705	0.03
775.012	0.03
775.318	0.03
775.624	0.02
775.93	0.03
776.236	0.03
776.542	0.03
776.848	0.03
777.154	0.03
777.459	0.03
777.765	0.02
778.071	0.03
778.376	0.03
778.682	0.03
778.987	0.03
779.292	0.03
779.598	0.03
779.903	0.03
780.208	0.03
780.513	0.03
780.818	0.03
781.123	0.03
781.428	0.03
781.733	0.03
782.038	0.03
782.343	0.03
782.647	0.03
782.952	0.03
783.256	0.03
783.561	0.03
783.865	0.03
784.17	0.03
784.474	0.03
784.778	0.03
785.082	0.03
785.386	0.03
785.69	0.03
785.994	0.03
786.298	0.03
786.602	0.03
786.906	0.03
787.209	0.03
787.513	0.03
787.817	0.03
788.12	0.03
788.424	0.03
788.727	0.03
789.03	0.03
789.333	0.03
789.637	0.03
789.94	0.03
790.243	0.03
790.546	0.03
790.849	0.03
791.152	0.03
791.454	0.03
791.757	0.03
792.06	0.03
792.362	0.03
792.665	0.03
792.967	0.03
793.27	0.03
793.572	0.03
793.874	0.03
794.177	0.03
794.479	0.03
794.781	0.03
795.083	0.03
795.385	0.03
795.687	0.03
795.989	0.03
796.29	0.03
796.592	0.04
796.894	0.03
797.195	0.03
797.497	0.04
797.798	0.04
798.1	0.03
798.401	0.03
798.702	0.03
799.003	0.03
799.304	0.04
799.605	0.03
799.906	0.04
800.207	0.04
800.508	0.03
800.809	0.04
801.11	0.03
801.41	0.03
801.711	0.04
802.011	0.04
802.312	0.03
802.612	0.03
802.913	0.03
803.213	0.04
803.513	0.04
803.813	0.04
804.113	0.03
804.413	0.04
804.713	0.04
805.013	0.04
805.313	0.04
805.613	0.04
805.912	0.04
806.212	0.04
806.511	0.04
806.811	0.04
807.11	0.04
807.41	0.04
807.709	0.04
808.008	0.04
808.307	0.03
808.606	0.04
808.905	0.04
809.204	0.04
809.503	0.04
809.802	0.04
810.101	0.04
810.399	0.04
810.698	0.04
810.997	0.04
811.295	0.04
811.593	0.04
811.892	0.04
812.19	0.04
812.488	0.04
812.786	0.04
813.084	0.04
813.383	0.04
813.68	0.04
813.978	0.04
814.276	0.04
814.574	0.04
814.872	0.04
815.169	0.04
815.467	0.04
815.764	0.04
816.062	0.04
816.359	0.04
816.656	0.04
816.954	0.04
817.251	0.04
817.548	0.04
817.845	0.04
818.142	0.04
818.439	0.04
818.735	0.05
819.032	0.05
819.329	0.04
819.626	0.05
819.922	0.05
820.219	0.05
820.515	0.05
820.811	0.04
821.108	0.05
821.404	0.05
821.7	0.05
821.996	0.05
822.292	0.05
822.588	0.05
822.884	0.05
823.18	0.05
823.475	0.04
823.771	0.05
824.067	0.05
824.362	0.04
824.658	0.05
824.953	0.05
825.249	0.05
825.544	0.05
825.839	0.05
826.134	0.05
826.429	0.05
826.724	0.05
827.019	0.05
827.314	0.05
827.609	0.05
827.904	0.05
828.198	0.05
828.493	0.05
828.787	0.05
829.082	0.05
829.376	0.04
829.671	0.05
829.965	0.05
830.259	0.05
830.553	0.05
830.847	0.05
831.141	0.05
831.435	0.05
831.729	0.05
832.023	0.06
832.317	0.06
832.61	0.05
832.904	0.05
833.197	0.05
833.491	0.05
833.784	0.05
834.077	0.05
834.371	0.05
834.664	0.05
834.957	0.05
835.25	0.06
835.543	0.05
835.836	0.06
836.129	0.05
836.421	0.05
836.714	0.05
837.007	0.05
837.299	0.06
837.592	0.06
837.884	0.06
838.177	0.05
838.469	0.06
838.761	0.06
839.053	0.05
839.345	0.06
839.637	0.06
839.929	0.05
840.221	0.05
840.513	0.06
840.805	0.06
841.096	0.05
841.388	0.06
841.68	0.05
841.971	0.05
842.262	0.06
842.554	0.06
842.845	0.06
843.136	0.06
843.427	0.06
843.718	0.06
844.009	0.05
844.3	0.06
844.591	0.06
844.882	0.06
845.173	0.06
845.463	0.07
845.754	0.06
846.044	0.06
846.335	0.05
846.625	0.05
846.915	0.05
847.206	0.06
847.496	0.05
847.786	0.06
848.076	0.07
848.366	0.05
848.656	0.07
848.945	0.06
849.235	0.05
849.525	0.06
849.814	0.06
850.104	0.05
850.393	0.05
850.683	0.06
850.972	0.06
851.261	0.06
851.551	0.07
851.84	0.06
852.129	0.06
852.418	0.06
852.707	0.07
852.995	0.06
853.284	0.06
853.573	0.06
853.862	0.06
854.15	0.08
854.439	0.07
854.727	0.07
855.015	0.08
855.304	0.07
855.592	0.06
855.88	0.06
856.168	0.07
856.456	0.06
856.744	0.07
857.032	0.06
857.32	0.07
857.607	0.07
857.895	0.07
858.183	0.08
858.47	0.07
858.757	0.06
859.045	0.07
859.332	0.06
859.619	0.06
859.907	0.06
860.194	0.08
860.481	0.07
860.768	0.06
861.054	0.08
861.341	0.08
861.628	0.06
861.915	0.07
862.201	0.08
862.488	0.07
862.774	0.05
863.061	0.09
863.347	0.07
863.633	0.08
863.919	0.06
864.205	0.06
864.491	0.07
864.777	0.07
865.063	0.06
865.349	0.05
865.635	0.08
865.92	0.05
866.206	0.06
866.492	0.04
866.777	0.05
867.062	0.05
867.348	0.02
867.633	0.04
867.918	0.07
868.203	0.07
868.488	0.05
868.773	0.08
869.058	0.06
869.343	0.09
869.628	0.05
869.912	0.03
870.197	0.08
870.482	0.07
870.766	0.08
871.05	0.06
871.335	0.06
871.619	0.04
871.903	0.06
872.187	0.07
872.471	0.04
872.755	0.11
873.039	0.03
873.323	0.06
873.607	0.07
873.89	0.04
874.174	0.03
874.458	0.04
874.741	0.07
875.024	0.03
875.308	0.03
875.591	0.06
875.874	0.07
876.157	-0.01
876.44	0.08
876.723	0.06
877.006	0.08
877.289	0.08
877.572	0.18
877.854	0.03
878.137	0.05
878.42	0.05
878.702	0.03
878.984	-0.02
879.267	0.04
879.549	0.03
879.831	0.19
880.113	0.11
880.395	0.05
880.677	0.02
880.959	-0.01
