Data from Rubpy_BV_1800_EDTA_Buffered_Absorbance_16-49-06-595.txt Node
Date: Wed Jul 01 16:49:06 BST 2026
User: fpm-admin
Spectrometer: OFX00224
Trigger mode: 0
Integration Time (sec): 7.000000E-2
Scans to average: 3
Nonlinearity correction enabled: false
Boxcar width: 0
Storing dark spectrum: false
XAxis mode: Wavelengths
Number of Pixels in Spectrum: 2136
>>>>>Begin Spectral Data<<<<<
154.91	-0
155.289	-0.39
155.669	-0
156.048	-0.3
156.428	-0
156.807	0.11
157.186	-1.41
157.566	0.52
157.945	-0
158.325	-0.37
158.704	-0
159.083	0.16
159.462	-0
159.842	0.2
160.221	-0
160.6	-0
160.979	-0
161.359	-0.16
161.738	-0.66
162.117	-0
162.496	-0.19
162.875	-0.06
163.254	0.01
163.633	-0
164.012	0.1
164.391	-0
164.77	0.14
165.149	-0
165.528	-0
165.907	-0
166.286	-0
166.665	-0.17
167.044	-0
167.423	0.79
167.802	0.18
168.181	-1.65
168.559	-0.94
168.938	-0
169.317	-0
169.696	-1.65
170.074	-0.46
170.453	-0.74
170.832	-0.48
171.21	0.32
171.589	-0
171.968	0.83
172.346	-0
172.725	-0
173.103	-0.51
173.482	-0
173.861	-0
174.239	-0
174.617	-0.31
174.996	0.28
175.374	-0.78
175.753	-0.71
176.131	-0
176.51	-0.18
176.888	1.34
177.266	-0
177.645	-0.01
178.023	0.46
178.401	-0.12
178.779	-0.14
179.158	-0.27
179.536	-0.02
179.914	0.08
180.292	-0.32
180.67	-0
181.048	0.94
181.427	-0.59
181.805	-0
182.183	-0.6
182.561	-0
182.939	-0
183.317	-0.64
183.695	0.53
184.073	-0
184.451	-0.2
184.829	-0.24
185.206	-0.49
185.584	-0
185.962	-0.44
186.34	-0.31
186.718	0.06
187.096	-0
187.473	-0
187.851	-0.02
188.229	0.26
188.607	0.21
188.984	0.28
189.362	0.22
189.74	0.5
190.117	0.44
190.495	0.27
190.872	0.27
191.25	0.4
191.627	0.18
192.005	0.51
192.382	0.38
192.76	0.38
193.137	0.42
193.515	0.29
193.892	0.25
194.269	0.28
194.647	0.33
195.024	0.25
195.401	0.28
195.779	0.4
196.156	0.35
196.533	0.25
196.91	0.32
197.288	0.29
197.665	0.25
198.042	0.32
198.419	0.33
198.796	0.29
199.173	0.34
199.55	0.28
199.927	0.38
200.304	0.23
200.681	0.47
201.058	0.25
201.435	0.43
201.812	0.2
202.189	0.37
202.566	0.37
202.943	0.31
203.32	0.38
203.697	0.37
204.073	0.19
204.45	0.48
204.827	0.23
205.204	0.37
205.58	0.5
205.957	0.4
206.334	0.28
206.71	0.35
207.087	0.21
207.464	0.2
207.84	0.47
208.217	0.34
208.593	0.36
208.97	0.36
209.346	0.4
209.723	0.42
210.099	0.52
210.476	0.29
210.852	0.46
211.228	0.29
211.605	0.28
211.981	0.32
212.357	0.48
212.733	0.3
213.11	0.2
213.486	0.4
213.862	0.44
214.238	0.34
214.614	0.35
214.991	0.37
215.367	0.42
215.743	0.34
216.119	0.39
216.495	0.38
216.871	0.3
217.247	0.53
217.623	0.29
217.999	0.42
218.375	0.34
218.751	0.24
219.127	0.29
219.502	0.27
219.878	0.23
220.254	0.48
220.63	0.39
221.006	0.47
221.381	0.31
221.757	0.41
222.133	0.33
222.508	0.51
222.884	0.24
223.26	0.41
223.635	0.31
224.011	0.27
224.386	0.43
224.762	0.38
225.137	0.26
225.513	0.32
225.888	0.36
226.264	0.43
226.639	0.23
227.014	0.48
227.39	0.33
227.765	0.25
228.14	0.23
228.516	0.38
228.891	0.35
229.266	0.32
229.641	0.45
230.017	0.29
230.392	0.41
230.767	0.32
231.142	0.39
231.517	0.55
231.892	0.52
232.267	0.49
232.642	0.34
233.017	0.43
233.392	0.42
233.767	0.36
234.142	0.36
234.517	0.35
234.892	0.41
235.267	0.28
235.641	0.31
236.016	0.24
236.391	0.32
236.766	0.5
237.14	0.29
237.515	0.64
237.89	0.34
238.264	0.48
238.639	0.37
239.014	0.34
239.388	0.53
239.763	0.33
240.137	0.19
240.512	0.27
240.886	0.29
241.261	0.3
241.635	0.44
242.009	0.45
242.384	0.29
242.758	0.42
243.132	0.37
243.507	0.47
243.881	0.38
244.255	0.25
244.629	0.38
245.004	0.9
245.378	0.46
245.752	0.56
246.126	0.38
246.5	0.33
246.874	0.28
247.248	0.44
247.622	0.36
247.996	0.33
248.37	0.5
248.744	0.38
249.118	0.26
249.492	0.36
249.866	0.35
250.24	0.41
250.613	0.38
250.987	0.39
251.361	0.41
251.735	0.48
252.108	0.47
252.482	0.28
252.856	0.24
253.229	0.39
253.603	0.36
253.977	0.36
254.35	0.32
254.724	0.35
255.097	0.3
255.471	0.31
255.844	0.33
256.218	0.41
256.591	0.27
256.964	0.42
257.338	0.22
257.711	0.32
258.084	0.31
258.458	0.47
258.831	0.53
259.204	0.41
259.577	0.33
259.95	0.42
260.323	0.29
260.697	0.32
261.07	0.26
261.443	0.39
261.816	0.35
262.189	0.41
262.562	0.37
262.935	0.37
263.308	0.19
263.68	0.19
264.053	0.32
264.426	0.51
264.799	0.23
265.172	0.48
265.545	0.29
265.917	0.49
266.29	0.34
266.663	0.51
267.035	0.43
267.408	0.38
267.781	0.27
268.153	0.34
268.526	0.42
268.898	0.35
269.271	0.36
269.643	0.36
270.016	0.53
270.388	0.29
270.76	0.35
271.133	0.34
271.505	0.33
271.877	0.3
272.25	0.32
272.622	0.35
272.994	0.37
273.366	0.38
273.739	0.33
274.111	0.48
274.483	0.31
274.855	0.33
275.227	0.42
275.599	0.36
275.971	0.28
276.343	0.47
276.715	0.28
277.087	0.31
277.459	0.46
277.831	0.38
278.203	0.33
278.574	0.35
278.946	0.35
279.318	0.35
279.69	0.31
280.061	0.28
280.433	0.41
280.805	0.34
281.176	0.4
281.548	0.38
281.92	0.37
282.291	0.48
282.663	0.36
283.034	0.38
283.406	0.42
283.777	0.35
284.148	0.38
284.52	0.33
284.891	0.38
285.262	0.29
285.634	0.34
286.005	0.37
286.376	0.41
286.747	0.34
287.119	0.34
287.49	0.34
287.861	0.36
288.232	0.43
288.603	0.36
288.974	0.35
289.345	0.29
289.716	0.54
290.087	0.37
290.458	0.35
290.829	0.38
291.2	0.37
291.571	0.46
291.941	0.34
292.312	0.28
292.683	0.35
293.054	0.54
293.424	0.32
293.795	0.38
294.166	0.29
294.536	0.42
294.907	0.36
295.277	0.45
295.648	0.4
296.018	0.48
296.389	0.31
296.759	0.34
297.13	0.44
297.5	0.37
297.871	0.4
298.241	0.46
298.611	0.39
298.981	0.3
299.352	0.46
299.722	0.29
300.092	0.36
300.462	0.47
300.832	0.35
301.202	0.37
301.573	0.31
301.943	0.3
302.313	0.33
302.683	0.35
303.053	0.39
303.422	0.31
303.792	0.34
304.162	0.39
304.532	0.41
304.902	0.36
305.272	0.39
305.641	0.34
306.011	0.29
306.381	0.3
306.75	0.33
307.12	0.29
307.49	0.3
307.859	0.3
308.229	0.3
308.598	0.24
308.968	0.29
309.337	0.3
309.707	0.24
310.076	0.22
310.445	0.25
310.815	0.24
311.184	0.24
311.553	0.28
311.923	0.23
312.292	0.26
312.661	0.27
313.03	0.24
313.399	0.27
313.768	0.26
314.137	0.24
314.506	0.27
314.875	0.27
315.244	0.25
315.613	0.28
315.982	0.28
316.351	0.28
316.72	0.27
317.089	0.28
317.458	0.28
317.826	0.3
318.195	0.28
318.564	0.29
318.933	0.31
319.301	0.29
319.67	0.31
320.038	0.32
320.407	0.32
320.775	0.31
321.144	0.33
321.512	0.32
321.881	0.32
322.249	0.32
322.618	0.35
322.986	0.34
323.354	0.34
323.723	0.34
324.091	0.35
324.459	0.36
324.827	0.36
325.195	0.37
325.564	0.37
325.932	0.37
326.3	0.38
326.668	0.4
327.036	0.39
327.404	0.4
327.772	0.4
328.14	0.42
328.508	0.41
328.875	0.41
329.243	0.43
329.611	0.43
329.979	0.44
330.346	0.44
330.714	0.45
331.082	0.46
331.449	0.47
331.817	0.47
332.185	0.49
332.552	0.5
332.92	0.49
333.287	0.5
333.655	0.51
334.022	0.53
334.389	0.53
334.757	0.54
335.124	0.56
335.491	0.57
335.859	0.58
336.226	0.59
336.593	0.61
336.96	0.61
337.327	0.62
337.695	0.62
338.062	0.65
338.429	0.66
338.796	0.67
339.163	0.68
339.53	0.69
339.897	0.7
340.263	0.72
340.63	0.73
340.997	0.74
341.364	0.76
341.731	0.78
342.097	0.78
342.464	0.79
342.831	0.81
343.197	0.82
343.564	0.85
343.931	0.85
344.297	0.85
344.664	0.87
345.03	0.9
345.396	0.9
345.763	0.92
346.129	0.93
346.496	0.94
346.862	0.96
347.228	0.96
347.594	0.97
347.961	0.99
348.327	1
348.693	1.02
349.059	1.03
349.425	1.03
349.791	1.06
350.157	1.07
350.523	1.08
350.889	1.08
351.255	1.1
351.621	1.11
351.987	1.12
352.353	1.13
352.719	1.14
353.084	1.15
353.45	1.17
353.816	1.18
354.181	1.18
354.547	1.23
354.913	1.23
355.278	1.23
355.644	1.26
356.009	1.28
356.375	1.29
356.74	1.3
357.106	1.31
357.471	1.33
357.836	1.35
358.202	1.38
358.567	1.38
358.932	1.4
359.297	1.42
359.663	1.42
360.028	1.43
360.393	1.47
360.758	1.5
361.123	1.51
361.488	1.52
361.853	1.56
362.218	1.54
362.583	1.55
362.948	1.6
363.312	1.59
363.677	1.58
364.042	1.62
364.407	1.66
364.772	1.63
365.136	1.66
365.501	1.66
365.865	1.7
366.23	1.69
366.595	1.69
366.959	1.74
367.324	1.74
367.688	1.77
368.052	1.75
368.417	1.75
368.781	1.79
369.145	1.78
369.51	1.8
369.874	1.8
370.238	1.8
370.602	1.79
370.967	1.8
371.331	1.8
371.695	1.78
372.059	1.8
372.423	1.81
372.787	1.83
373.151	1.78
373.515	1.84
373.878	1.82
374.242	1.81
374.606	1.78
374.97	1.77
375.334	1.81
375.697	1.74
376.061	1.77
376.425	1.77
376.788	1.75
377.152	1.7
377.515	1.68
377.879	1.7
378.242	1.65
378.606	1.65
378.969	1.65
379.333	1.63
379.696	1.61
380.059	1.59
380.422	1.57
380.786	1.54
381.149	1.56
381.512	1.51
381.875	1.51
382.238	1.48
382.601	1.48
382.964	1.45
383.327	1.43
383.69	1.41
384.053	1.4
384.416	1.39
384.779	1.39
385.142	1.36
385.504	1.36
385.867	1.35
386.23	1.35
386.593	1.34
386.955	1.32
387.318	1.3
387.68	1.3
388.043	1.3
388.405	1.28
388.768	1.3
389.13	1.31
389.493	1.29
389.855	1.26
390.217	1.25
390.58	1.25
390.942	1.23
391.304	1.21
391.666	1.2
392.028	1.17
392.391	1.16
392.753	1.16
393.115	1.13
393.477	1.13
393.839	1.12
394.201	1.1
394.563	1.09
394.924	1.09
395.286	1.08
395.648	1.09
396.01	1.09
396.371	1.1
396.733	1.11
397.095	1.13
397.456	1.15
397.818	1.17
398.18	1.19
398.541	1.22
398.903	1.24
399.264	1.27
399.625	1.29
399.987	1.31
400.348	1.35
400.709	1.36
401.071	1.36
401.432	1.35
401.793	1.37
402.154	1.34
402.515	1.32
402.876	1.32
403.238	1.27
403.599	1.25
403.96	1.22
404.32	1.17
404.681	1.13
405.042	1.09
405.403	1.04
405.764	0.99
406.125	0.96
406.485	0.9
406.846	0.85
407.207	0.82
407.567	0.77
407.928	0.74
408.288	0.69
408.649	0.65
409.009	0.62
409.37	0.58
409.73	0.55
410.091	0.52
410.451	0.5
410.811	0.47
411.171	0.45
411.532	0.42
411.892	0.41
412.252	0.39
412.612	0.37
412.972	0.36
413.332	0.34
413.692	0.33
414.052	0.32
414.412	0.31
414.772	0.3
415.132	0.28
415.492	0.28
415.851	0.27
416.211	0.26
416.571	0.25
416.931	0.25
417.29	0.24
417.65	0.23
418.009	0.23
418.369	0.22
418.728	0.22
419.088	0.21
419.447	0.21
419.807	0.21
420.166	0.2
420.525	0.19
420.884	0.19
421.244	0.19
421.603	0.19
421.962	0.18
422.321	0.18
422.68	0.18
423.039	0.17
423.398	0.17
423.757	0.16
424.116	0.17
424.475	0.16
424.834	0.16
425.193	0.15
425.551	0.16
425.91	0.15
426.269	0.16
426.628	0.14
426.986	0.15
427.345	0.15
427.703	0.15
428.062	0.15
428.42	0.15
428.779	0.15
429.137	0.16
429.496	0.15
429.854	0.14
430.212	0.15
430.57	0.14
430.929	0.14
431.287	0.14
431.645	0.14
432.003	0.15
432.361	0.13
432.719	0.13
433.077	0.13
433.435	0.14
433.793	0.15
434.151	0.13
434.509	0.14
434.866	0.13
435.224	0.13
435.582	0.14
435.94	0.14
436.297	0.14
436.655	0.14
437.012	0.14
437.37	0.14
437.727	0.13
438.085	0.14
438.442	0.13
438.8	0.14
439.157	0.13
439.514	0.13
439.872	0.13
440.229	0.14
440.586	0.13
440.943	0.14
441.3	0.14
441.657	0.15
442.014	0.14
442.371	0.14
442.728	0.13
443.085	0.14
443.442	0.14
443.799	0.14
444.156	0.14
444.513	0.14
444.869	0.13
445.226	0.14
445.583	0.15
445.939	0.14
446.296	0.13
446.652	0.14
447.009	0.15
447.365	0.14
447.722	0.15
448.078	0.15
448.434	0.14
448.791	0.14
449.147	0.14
449.503	0.14
449.859	0.14
450.215	0.14
450.571	0.14
450.928	0.14
451.284	0.14
451.64	0.15
451.995	0.14
452.351	0.15
452.707	0.14
453.063	0.14
453.419	0.14
453.775	0.14
454.13	0.13
454.486	0.14
454.842	0.14
455.197	0.13
455.553	0.12
455.908	0.13
456.264	0.12
456.619	0.13
456.975	0.13
457.33	0.12
457.685	0.13
458.04	0.12
458.396	0.12
458.751	0.12
459.106	0.11
459.461	0.11
459.816	0.11
460.171	0.1
460.526	0.1
460.881	0.1
461.236	0.09
461.591	0.09
461.946	0.09
462.301	0.09
462.655	0.09
463.01	0.08
463.365	0.08
463.719	0.07
464.074	0.06
464.428	0.06
464.783	0.05
465.137	0.06
465.492	0.06
465.846	0.05
466.201	0.06
466.555	0.06
466.909	0.07
467.263	0.08
467.618	0.07
467.972	0.07
468.326	0.07
468.68	0.07
469.034	0.06
469.388	0.06
469.742	0.07
470.096	0.07
470.45	0.07
470.804	0.08
471.157	0.08
471.511	0.07
471.865	0.08
472.218	0.09
472.572	0.09
472.926	0.1
473.279	0.11
473.633	0.12
473.986	0.12
474.34	0.13
474.693	0.14
475.046	0.15
475.4	0.16
475.753	0.17
476.106	0.17
476.459	0.19
476.812	0.2
477.165	0.21
477.519	0.21
477.872	0.22
478.224	0.22
478.577	0.23
478.93	0.24
479.283	0.25
479.636	0.25
479.989	0.26
480.341	0.27
480.694	0.28
481.047	0.29
481.399	0.29
481.752	0.3
482.104	0.3
482.457	0.31
482.809	0.32
483.162	0.32
483.514	0.33
483.866	0.33
484.219	0.34
484.571	0.35
484.923	0.35
485.275	0.35
485.627	0.36
485.979	0.37
486.331	0.38
486.683	0.38
487.035	0.38
487.387	0.39
487.739	0.39
488.091	0.41
488.443	0.4
488.794	0.41
489.146	0.41
489.498	0.42
489.849	0.42
490.201	0.42
490.552	0.43
490.904	0.42
491.255	0.43
491.607	0.44
491.958	0.44
492.309	0.45
492.661	0.45
493.012	0.46
493.363	0.46
493.714	0.46
494.065	0.47
494.416	0.48
494.767	0.48
495.118	0.48
495.469	0.49
495.82	0.49
496.171	0.5
496.522	0.5
496.872	0.5
497.223	0.51
497.574	0.51
497.924	0.52
498.275	0.53
498.626	0.53
498.976	0.54
499.327	0.54
499.677	0.54
500.027	0.55
500.378	0.55
500.728	0.55
501.078	0.57
501.428	0.56
501.779	0.57
502.129	0.57
502.479	0.58
502.829	0.58
503.179	0.59
503.529	0.59
503.879	0.59
504.229	0.6
504.578	0.6
504.928	0.6
505.278	0.61
505.628	0.61
505.977	0.62
506.327	0.62
506.676	0.63
507.026	0.63
507.375	0.64
507.725	0.64
508.074	0.64
508.424	0.64
508.773	0.65
509.122	0.65
509.471	0.65
509.82	0.65
510.17	0.67
510.519	0.66
510.868	0.66
511.217	0.67
511.566	0.68
511.915	0.68
512.263	0.68
512.612	0.69
512.961	0.7
513.31	0.68
513.659	0.69
514.007	0.7
514.356	0.71
514.704	0.7
515.053	0.71
515.401	0.71
515.75	0.71
516.098	0.73
516.447	0.72
516.795	0.72
517.143	0.72
517.491	0.74
517.839	0.74
518.188	0.74
518.536	0.74
518.884	0.74
519.232	0.75
519.58	0.75
519.928	0.75
520.275	0.76
520.623	0.77
520.971	0.77
521.319	0.77
521.666	0.77
522.014	0.77
522.362	0.77
522.709	0.78
523.057	0.78
523.404	0.78
523.752	0.78
524.099	0.78
524.446	0.79
524.794	0.79
525.141	0.79
525.488	0.8
525.835	0.8
526.182	0.8
526.529	0.8
526.876	0.81
527.223	0.81
527.57	0.81
527.917	0.82
528.264	0.82
528.611	0.82
528.958	0.82
529.304	0.82
529.651	0.82
529.998	0.82
530.344	0.83
530.691	0.83
531.037	0.83
531.384	0.84
531.73	0.83
532.076	0.84
532.423	0.84
532.769	0.84
533.115	0.85
533.461	0.84
533.807	0.85
534.154	0.84
534.5	0.84
534.846	0.85
535.192	0.85
535.537	0.85
535.883	0.86
536.229	0.86
536.575	0.86
536.921	0.86
537.266	0.86
537.612	0.86
537.957	0.86
538.303	0.87
538.649	0.86
538.994	0.87
539.339	0.87
539.685	0.87
540.03	0.87
540.375	0.87
540.721	0.88
541.066	0.87
541.411	0.88
541.756	0.88
542.101	0.88
542.446	0.88
542.791	0.88
543.136	0.88
543.481	0.88
543.825	0.88
544.17	0.89
544.515	0.89
544.86	0.88
545.204	0.89
545.549	0.89
545.893	0.89
546.238	0.89
546.582	0.89
546.927	0.89
547.271	0.89
547.615	0.9
547.96	0.9
548.304	0.89
548.648	0.9
548.992	0.89
549.336	0.89
549.68	0.89
550.024	0.89
550.368	0.89
550.712	0.89
551.056	0.89
551.4	0.89
551.743	0.9
552.087	0.9
552.431	0.89
552.774	0.89
553.118	0.89
553.462	0.9
553.805	0.89
554.148	0.89
554.492	0.89
554.835	0.89
555.178	0.89
555.522	0.89
555.865	0.89
556.208	0.89
556.551	0.89
556.894	0.89
557.237	0.89
557.58	0.89
557.923	0.89
558.266	0.89
558.609	0.89
558.952	0.89
559.294	0.89
559.637	0.89
559.98	0.88
560.322	0.88
560.665	0.88
561.007	0.88
561.35	0.88
561.692	0.88
562.034	0.88
562.377	0.88
562.719	0.88
563.061	0.87
563.403	0.88
563.745	0.87
564.088	0.87
564.43	0.87
564.772	0.87
565.113	0.87
565.455	0.87
565.797	0.87
566.139	0.87
566.481	0.87
566.822	0.86
567.164	0.87
567.506	0.87
567.847	0.86
568.189	0.85
568.53	0.86
568.872	0.86
569.213	0.86
569.554	0.86
569.895	0.85
570.237	0.86
570.578	0.85
570.919	0.85
571.26	0.84
571.601	0.85
571.942	0.84
572.283	0.84
572.624	0.83
572.965	0.83
573.306	0.83
573.646	0.83
573.987	0.83
574.328	0.83
574.668	0.83
575.009	0.83
575.349	0.82
575.69	0.82
576.03	0.82
576.37	0.82
576.711	0.81
577.051	0.81
577.391	0.81
577.731	0.81
578.072	0.81
578.412	0.8
578.752	0.81
579.092	0.8
579.431	0.79
579.771	0.78
580.111	0.77
580.451	0.79
580.791	0.8
581.13	0.79
581.47	0.79
581.81	0.79
582.149	0.79
582.489	0.79
582.828	0.77
583.167	0.76
583.507	0.72
583.846	0.72
584.185	0.76
584.525	0.77
584.864	0.77
585.203	0.78
585.542	0.78
585.881	0.78
586.22	0.77
586.559	0.77
586.898	0.76
587.236	0.76
587.575	0.76
587.914	0.76
588.252	0.77
588.591	0.77
588.93	0.77
589.268	0.76
589.607	0.76
589.945	0.77
590.283	0.76
590.622	0.76
590.96	0.77
591.298	0.77
591.636	0.77
591.974	0.77
592.313	0.77
592.651	0.77
592.989	0.76
593.326	0.76
593.664	0.76
594.002	0.76
594.34	0.76
594.678	0.75
595.015	0.75
595.353	0.75
595.691	0.76
596.028	0.76
596.366	0.76
596.703	0.76
597.04	0.76
597.378	0.76
597.715	0.76
598.052	0.76
598.389	0.76
598.726	0.75
599.064	0.75
599.401	0.75
599.738	0.76
600.074	0.75
600.411	0.75
600.748	0.75
601.085	0.74
601.422	0.74
601.758	0.74
602.095	0.74
602.432	0.74
602.768	0.74
603.105	0.75
603.441	0.75
603.777	0.74
604.114	0.74
604.45	0.74
604.786	0.74
605.122	0.74
605.459	0.73
605.795	0.73
606.131	0.73
606.467	0.73
606.803	0.73
607.139	0.73
607.474	0.72
607.81	0.72
608.146	0.72
608.482	0.72
608.817	0.72
609.153	0.71
609.488	0.71
609.824	0.71
610.159	0.71
610.495	0.71
610.83	0.7
611.165	0.71
611.5	0.7
611.836	0.7
612.171	0.7
612.506	0.69
612.841	0.7
613.176	0.69
613.511	0.69
613.845	0.68
614.18	0.69
614.515	0.68
614.85	0.68
615.184	0.68
615.519	0.67
615.854	0.67
616.188	0.67
616.523	0.67
616.857	0.67
617.191	0.66
617.526	0.66
617.86	0.66
618.194	0.66
618.528	0.66
618.862	0.65
619.196	0.65
619.53	0.64
619.864	0.65
620.198	0.64
620.532	0.64
620.866	0.64
621.2	0.64
621.533	0.63
621.867	0.63
622.201	0.63
622.534	0.63
622.868	0.63
623.201	0.62
623.534	0.62
623.868	0.62
624.201	0.61
624.534	0.61
624.868	0.61
625.201	0.61
625.534	0.6
625.867	0.6
626.2	0.6
626.533	0.6
626.865	0.59
627.198	0.59
627.531	0.59
627.864	0.59
628.196	0.58
628.529	0.58
628.862	0.58
629.194	0.57
629.527	0.57
629.859	0.57
630.191	0.56
630.524	0.57
630.856	0.56
631.188	0.56
631.52	0.55
631.852	0.54
632.184	0.55
632.516	0.54
632.848	0.54
633.18	0.54
633.512	0.53
633.844	0.53
634.175	0.53
634.507	0.52
634.839	0.52
635.17	0.52
635.502	0.51
635.833	0.51
636.165	0.51
636.496	0.51
636.827	0.5
637.159	0.5
637.49	0.5
637.821	0.49
638.152	0.49
638.483	0.48
638.814	0.48
639.145	0.47
639.476	0.47
639.807	0.47
640.137	0.47
640.468	0.46
640.799	0.46
641.129	0.46
641.46	0.46
641.791	0.45
642.121	0.45
642.451	0.45
642.782	0.44
643.112	0.44
643.442	0.44
643.773	0.44
644.103	0.44
644.433	0.43
644.763	0.43
645.093	0.43
645.423	0.43
645.753	0.42
646.082	0.42
646.412	0.42
646.742	0.42
647.072	0.42
647.401	0.41
647.731	0.41
648.06	0.41
648.39	0.41
648.719	0.4
649.048	0.4
649.378	0.4
649.707	0.4
650.036	0.4
650.365	0.39
650.694	0.39
651.023	0.39
651.352	0.39
651.681	0.39
652.01	0.39
652.339	0.39
652.668	0.39
652.996	0.38
653.325	0.38
653.654	0.38
653.982	0.38
654.311	0.38
654.639	0.38
654.967	0.38
655.296	0.38
655.624	0.38
655.952	0.38
656.28	0.37
656.609	0.37
656.937	0.37
657.265	0.36
657.593	0.21
657.92	0.12
658.248	0.1
658.576	0.17
658.904	0.3
659.231	0.36
659.559	0.36
659.887	0.36
660.214	0.36
660.542	0.36
660.869	0.35
661.196	0.35
661.524	0.35
661.851	0.35
662.178	0.35
662.505	0.35
662.832	0.35
663.159	0.35
663.486	0.34
663.813	0.34
664.14	0.34
664.467	0.34
664.794	0.34
665.12	0.34
665.447	0.34
665.774	0.33
666.1	0.33
666.427	0.33
666.753	0.33
667.079	0.33
667.406	0.33
667.732	0.32
668.058	0.32
668.384	0.32
668.71	0.32
669.036	0.32
669.362	0.31
669.688	0.31
670.014	0.31
670.34	0.3
670.666	0.3
670.991	0.31
671.317	0.3
671.643	0.3
671.968	0.3
672.294	0.3
672.619	0.29
672.945	0.29
673.27	0.29
673.595	0.28
673.92	0.28
674.246	0.28
674.571	0.28
674.896	0.28
675.221	0.28
675.546	0.28
675.87	0.27
676.195	0.27
676.52	0.27
676.845	0.26
677.169	0.26
677.494	0.26
677.819	0.26
678.143	0.25
678.468	0.25
678.792	0.25
679.116	0.25
679.44	0.25
679.765	0.24
680.089	0.24
680.413	0.24
680.737	0.23
681.061	0.23
681.385	0.23
681.709	0.23
682.033	0.23
682.356	0.23
682.68	0.22
683.004	0.22
683.327	0.22
683.651	0.21
683.974	0.21
684.298	0.21
684.621	0.21
684.944	0.21
685.268	0.2
685.591	0.2
685.914	0.2
686.237	0.2
686.56	0.19
686.883	0.19
687.206	0.19
687.529	0.19
687.852	0.19
688.175	0.19
688.497	0.18
688.82	0.18
689.142	0.18
689.465	0.18
689.787	0.18
690.11	0.18
690.432	0.17
690.755	0.17
691.077	0.17
691.399	0.16
691.721	0.16
692.043	0.16
692.365	0.16
692.687	0.15
693.009	0.15
693.331	0.15
693.653	0.15
693.974	0.15
694.296	0.15
694.618	0.15
694.939	0.14
695.261	0.14
695.582	0.14
695.904	0.14
696.225	0.14
696.546	0.14
696.868	0.14
697.189	0.14
697.51	0.13
697.831	0.14
698.152	0.14
698.473	0.13
698.794	0.13
699.114	0.13
699.435	0.12
699.756	0.13
700.077	0.13
700.397	0.13
700.718	0.12
701.038	0.12
701.359	0.12
701.679	0.12
701.999	0.12
702.32	0.12
702.64	0.12
702.96	0.12
703.28	0.12
703.6	0.12
703.92	0.12
704.24	0.12
704.56	0.11
704.879	0.11
705.199	0.11
705.519	0.12
705.838	0.11
706.158	0.11
706.478	0.11
706.797	0.11
707.116	0.11
707.436	0.11
707.755	0.11
708.074	0.11
708.393	0.1
708.712	0.1
709.031	0.1
709.35	0.1
709.669	0.1
709.988	0.1
710.307	0.1
710.626	0.1
710.944	0.1
711.263	0.1
711.582	0.1
711.9	0.1
712.219	0.1
712.537	0.11
712.855	0.1
713.174	0.11
713.492	0.11
713.81	0.11
714.128	0.11
714.446	0.1
714.764	0.1
715.082	0.1
715.4	0.11
715.718	0.1
716.035	0.1
716.353	0.1
716.671	0.11
716.988	0.1
717.306	0.1
717.623	0.11
717.941	0.11
718.258	0.11
718.575	0.11
718.893	0.11
719.21	0.11
719.527	0.11
719.844	0.11
720.161	0.11
720.478	0.11
720.795	0.11
721.112	0.11
721.428	0.11
721.745	0.11
722.062	0.11
722.378	0.11
722.695	0.11
723.011	0.11
723.328	0.11
723.644	0.11
723.96	0.11
724.276	0.11
724.593	0.11
724.909	0.11
725.225	0.11
725.541	0.11
725.857	0.11
726.173	0.11
726.488	0.12
726.804	0.11
727.12	0.11
727.435	0.11
727.751	0.11
728.067	0.11
728.382	0.11
728.697	0.11
729.013	0.11
729.328	0.11
729.643	0.11
729.958	0.11
730.273	0.11
730.588	0.11
730.903	0.11
731.218	0.11
731.533	0.11
731.848	0.11
732.163	0.11
732.477	0.1
732.792	0.11
733.107	0.1
733.421	0.11
733.736	0.1
734.05	0.11
734.364	0.1
734.678	0.1
734.993	0.1
735.307	0.1
735.621	0.1
735.935	0.1
736.249	0.1
736.563	0.1
736.877	0.1
737.19	0.1
737.504	0.1
737.818	0.1
738.131	0.1
738.445	0.1
738.758	0.1
739.072	0.1
739.385	0.1
739.698	0.1
740.012	0.1
740.325	0.1
740.638	0.1
740.951	0.1
741.264	0.09
741.577	0.1
741.89	0.09
742.203	0.09
742.515	0.09
742.828	0.09
743.141	0.09
743.453	0.09
743.766	0.09
744.078	0.09
744.391	0.09
744.703	0.09
745.015	0.09
745.327	0.09
745.639	0.09
745.952	0.09
746.264	0.09
746.575	0.09
746.887	0.08
747.199	0.08
747.511	0.08
747.823	0.08
748.134	0.08
748.446	0.08
748.757	0.08
749.069	0.08
749.38	0.08
749.692	0.08
750.003	0.08
750.314	0.08
750.625	0.08
750.936	0.07
751.248	0.07
751.559	0.07
751.869	0.07
752.18	0.07
752.491	0.07
752.802	0.07
753.112	0.07
753.423	0.07
753.734	0.07
754.044	0.07
754.355	0.07
754.665	0.07
754.975	0.06
755.285	0.06
755.596	0.06
755.906	0.07
756.216	0.07
756.526	0.06
756.836	0.06
757.146	0.06
757.455	0.06
757.765	0.06
758.075	0.06
758.385	0.06
758.694	0.06
759.004	0.06
759.313	0.06
759.622	0.06
759.932	0.06
760.241	0.06
760.55	0.06
760.859	0.06
761.168	0.06
761.477	0.06
761.786	0.06
762.095	0.06
762.404	0.06
762.713	0.06
763.021	0.06
763.33	0.05
763.639	0.05
763.947	0.05
764.256	0.06
764.564	0.06
764.872	0.05
765.181	0.06
765.489	0.05
765.797	0.05
766.105	0.05
766.413	0.05
766.721	0.06
767.029	0.06
767.337	0.05
767.644	0.05
767.952	0.06
768.26	0.05
768.567	0.05
768.875	0.05
769.182	0.05
769.49	0.05
769.797	0.05
770.104	0.05
770.411	0.05
770.718	0.05
771.026	0.05
771.333	0.05
771.639	0.06
771.946	0.05
772.253	0.06
772.56	0.06
772.867	0.06
773.173	0.05
773.48	0.05
773.786	0.05
774.093	0.05
774.399	0.05
774.705	0.05
775.012	0.05
775.318	0.05
775.624	0.05
775.93	0.05
776.236	0.05
776.542	0.05
776.848	0.05
777.154	0.05
777.459	0.05
777.765	0.05
778.071	0.06
778.376	0.06
778.682	0.06
778.987	0.06
779.292	0.06
779.598	0.05
779.903	0.05
780.208	0.06
780.513	0.06
780.818	0.06
781.123	0.06
781.428	0.06
781.733	0.06
782.038	0.06
782.343	0.06
782.647	0.06
782.952	0.06
783.256	0.06
783.561	0.06
783.865	0.06
784.17	0.06
784.474	0.06
784.778	0.06
785.082	0.06
785.386	0.06
785.69	0.06
785.994	0.06
786.298	0.06
786.602	0.06
786.906	0.06
787.209	0.06
787.513	0.06
787.817	0.06
788.12	0.06
788.424	0.06
788.727	0.06
789.03	0.06
789.333	0.06
789.637	0.06
789.94	0.06
790.243	0.06
790.546	0.06
790.849	0.06
791.152	0.06
791.454	0.06
791.757	0.06
792.06	0.06
792.362	0.06
792.665	0.07
792.967	0.06
793.27	0.06
793.572	0.06
793.874	0.06
794.177	0.07
794.479	0.06
794.781	0.06
795.083	0.06
795.385	0.07
795.687	0.07
795.989	0.07
796.29	0.07
796.592	0.07
796.894	0.07
797.195	0.07
797.497	0.07
797.798	0.07
798.1	0.07
798.401	0.07
798.702	0.07
799.003	0.07
799.304	0.07
799.605	0.07
799.906	0.08
800.207	0.07
800.508	0.07
800.809	0.07
801.11	0.07
801.41	0.07
801.711	0.07
802.011	0.07
802.312	0.07
802.612	0.07
802.913	0.07
803.213	0.08
803.513	0.08
803.813	0.07
804.113	0.07
804.413	0.07
804.713	0.07
805.013	0.07
805.313	0.08
805.613	0.08
805.912	0.08
806.212	0.08
806.511	0.07
806.811	0.08
807.11	0.08
807.41	0.08
807.709	0.08
808.008	0.08
808.307	0.08
808.606	0.08
808.905	0.08
809.204	0.08
809.503	0.08
809.802	0.08
810.101	0.08
810.399	0.08
810.698	0.08
810.997	0.08
811.295	0.08
811.593	0.08
811.892	0.09
812.19	0.09
812.488	0.09
812.786	0.08
813.084	0.09
813.383	0.09
813.68	0.09
813.978	0.09
814.276	0.08
814.574	0.09
814.872	0.09
815.169	0.09
815.467	0.09
815.764	0.08
816.062	0.09
816.359	0.09
816.656	0.09
816.954	0.09
817.251	0.09
817.548	0.09
817.845	0.09
818.142	0.09
818.439	0.09
818.735	0.09
819.032	0.09
819.329	0.09
819.626	0.09
819.922	0.09
820.219	0.1
820.515	0.1
820.811	0.09
821.108	0.09
821.404	0.09
821.7	0.09
821.996	0.09
822.292	0.1
822.588	0.09
822.884	0.09
823.18	0.1
823.475	0.09
823.771	0.1
824.067	0.09
824.362	0.1
824.658	0.09
824.953	0.1
825.249	0.1
825.544	0.1
825.839	0.09
826.134	0.1
826.429	0.1
826.724	0.1
827.019	0.1
827.314	0.1
827.609	0.1
827.904	0.1
828.198	0.11
828.493	0.11
828.787	0.1
829.082	0.1
829.376	0.1
829.671	0.1
829.965	0.1
830.259	0.11
830.553	0.11
830.847	0.11
831.141	0.1
831.435	0.11
831.729	0.11
832.023	0.11
832.317	0.12
832.61	0.11
832.904	0.11
833.197	0.11
833.491	0.11
833.784	0.11
834.077	0.11
834.371	0.11
834.664	0.11
834.957	0.11
835.25	0.12
835.543	0.11
835.836	0.12
836.129	0.11
836.421	0.12
836.714	0.12
837.007	0.11
837.299	0.12
837.592	0.12
837.884	0.12
838.177	0.11
838.469	0.12
838.761	0.12
839.053	0.11
839.345	0.12
839.637	0.12
839.929	0.12
840.221	0.11
840.513	0.12
840.805	0.11
841.096	0.12
841.388	0.12
841.68	0.13
841.971	0.12
842.262	0.12
842.554	0.12
842.845	0.12
843.136	0.12
843.427	0.13
843.718	0.12
844.009	0.12
844.3	0.12
844.591	0.13
844.882	0.13
845.173	0.13
845.463	0.13
845.754	0.12
846.044	0.13
846.335	0.13
846.625	0.13
846.915	0.12
847.206	0.12
847.496	0.12
847.786	0.13
848.076	0.13
848.366	0.12
848.656	0.14
848.945	0.13
849.235	0.13
849.525	0.13
849.814	0.13
850.104	0.13
850.393	0.13
850.683	0.14
850.972	0.14
851.261	0.14
851.551	0.14
851.84	0.13
852.129	0.13
852.418	0.13
852.707	0.14
852.995	0.14
853.284	0.14
853.573	0.14
853.862	0.14
854.15	0.15
854.439	0.15
854.727	0.15
855.015	0.15
855.304	0.14
855.592	0.14
855.88	0.13
856.168	0.14
856.456	0.15
856.744	0.15
857.032	0.14
857.32	0.15
857.607	0.16
857.895	0.16
858.183	0.16
858.47	0.15
858.757	0.15
859.045	0.16
859.332	0.15
859.619	0.14
859.907	0.16
860.194	0.14
860.481	0.15
860.768	0.14
861.054	0.17
861.341	0.14
861.628	0.15
861.915	0.16
862.201	0.16
862.488	0.13
862.774	0.13
863.061	0.15
863.347	0.17
863.633	0.15
863.919	0.14
864.205	0.16
864.491	0.16
864.777	0.17
865.063	0.16
865.349	0.14
865.635	0.15
865.92	0.14
866.206	0.15
866.492	0.14
866.777	0.16
867.062	0.15
867.348	0.12
867.633	0.12
867.918	0.16
868.203	0.15
868.488	0.14
868.773	0.19
869.058	0.17
869.343	0.19
869.628	0.13
869.912	0.14
870.197	0.22
870.482	0.23
870.766	0.2
871.05	0.16
871.335	0.17
871.619	0.12
871.903	0.13
872.187	0.17
872.471	0.19
872.755	0.19
873.039	0.2
873.323	0.11
873.607	0.19
873.89	0.11
874.174	0.1
874.458	0.17
874.741	0.23
875.024	0.14
875.308	0.15
875.591	0.23
875.874	0.17
876.157	0.18
876.44	0.22
876.723	0.18
877.006	0.2
877.289	0.18
877.572	0.25
877.854	0.14
878.137	0.18
878.42	0.04
878.702	0.12
878.984	0.18
879.267	0.13
879.549	0.21
879.831	0.07
880.113	0.1
880.395	0.21
880.677	0.13
880.959	0.2
