Data from Rubpy_BV_1800_EDTA_Buffered_Absorbance_17-04-45-578.txt Node
Date: Wed Jul 01 17:04:45 BST 2026
User: fpm-admin
Spectrometer: OFX00224
Trigger mode: 0
Integration Time (sec): 7.000000E-2
Scans to average: 3
Nonlinearity correction enabled: false
Boxcar width: 0
Storing dark spectrum: false
XAxis mode: Wavelengths
Number of Pixels in Spectrum: 2136
>>>>>Begin Spectral Data<<<<<
154.91	-0
155.289	0.02
155.669	-0
156.048	-0.22
156.428	-0
156.807	0.04
157.186	-0.48
157.566	-0
157.945	-0.6
158.325	0.17
158.704	-0
159.083	0.01
159.462	-0
159.842	-0
160.221	0.33
160.6	-0
160.979	-0
161.359	-0.03
161.738	-0
162.117	-0.8
162.496	0.46
162.875	-0.39
163.254	0.53
163.633	-0
164.012	0.23
164.391	0.48
164.77	0.48
165.149	-0.73
165.528	-0
165.907	1.32
166.286	-0
166.665	-0.11
167.044	-0.23
167.423	1.03
167.802	-0.3
168.181	-1.46
168.559	-0.83
168.938	-0
169.317	-0
169.696	-1.54
170.074	-0.36
170.453	-0.43
170.832	-0
171.21	0.24
171.589	-0
171.968	0.58
172.346	-0
172.725	-0.67
173.103	-0.4
173.482	-0
173.861	-0
174.239	-0.2
174.617	0.09
174.996	-0
175.374	0.78
175.753	-0.37
176.131	0.88
176.51	-0.48
176.888	-0
177.266	-0
177.645	0.05
178.023	1.01
178.401	-0.27
178.779	-0.11
179.158	-0.14
179.536	-0
179.914	0.78
180.292	0.06
180.67	-0
181.048	-0
181.427	-0.54
181.805	-0
182.183	-0.73
182.561	0.19
182.939	0.22
183.317	-0.63
183.695	0.48
184.073	-0
184.451	-0.2
184.829	0.03
185.206	-0.43
185.584	-0
185.962	-0.08
186.34	-0.53
186.718	0.23
187.096	-0
187.473	-0.53
187.851	0.05
188.229	-0.34
188.607	0.13
188.984	0.37
189.362	0.45
189.74	0.35
190.117	0.42
190.495	0.35
190.872	0.17
191.25	0.76
191.627	0.5
192.005	0.23
192.382	0.31
192.76	0.3
193.137	0.39
193.515	0.36
193.892	0.33
194.269	0.34
194.647	0.28
195.024	0.3
195.401	0.42
195.779	0.42
196.156	0.4
196.533	0.24
196.91	0.42
197.288	0.35
197.665	0.28
198.042	0.21
198.419	0.25
198.796	0.38
199.173	0.31
199.55	0.3
199.927	0.26
200.304	0.39
200.681	0.33
201.058	0.17
201.435	0.33
201.812	0.22
202.189	0.55
202.566	0.39
202.943	0.15
203.32	0.47
203.697	0.32
204.073	0.21
204.45	0.5
204.827	0.41
205.204	0.35
205.58	0.27
205.957	0.43
206.334	0.32
206.71	0.37
207.087	0.81
207.464	0.29
207.84	0.65
208.217	0.31
208.593	0.23
208.97	0.26
209.346	0.31
209.723	0.31
210.099	0.4
210.476	0.4
210.852	0.42
211.228	0.3
211.605	0.32
211.981	0.4
212.357	0.52
212.733	0.33
213.11	0.35
213.486	0.37
213.862	0.27
214.238	0.36
214.614	0.38
214.991	0.42
215.367	0.47
215.743	0.37
216.119	0.43
216.495	0.29
216.871	0.28
217.247	0.32
217.623	0.35
217.999	0.41
218.375	0.39
218.751	0.37
219.127	0.27
219.502	0.22
219.878	0.21
220.254	0.41
220.63	0.47
221.006	0.43
221.381	0.36
221.757	0.39
222.133	0.38
222.508	0.59
222.884	0.31
223.26	0.43
223.635	0.39
224.011	0.35
224.386	0.49
224.762	0.49
225.137	0.48
225.513	0.31
225.888	0.3
226.264	0.28
226.639	0.23
227.014	0.5
227.39	0.43
227.765	0.35
228.14	0.44
228.516	0.46
228.891	0.35
229.266	0.44
229.641	0.44
230.017	0.47
230.392	0.29
230.767	0.37
231.142	0.52
231.517	0.37
231.892	0.52
232.267	0.37
232.642	0.31
233.017	0.29
233.392	0.25
233.767	0.53
234.142	0.33
234.517	0.5
234.892	0.36
235.267	0.41
235.641	0.46
236.016	0.56
236.391	0.25
236.766	0.28
237.14	0.41
237.515	0.58
237.89	0.46
238.264	0.43
238.639	0.23
239.014	0.6
239.388	0.67
239.763	0.36
240.137	0.24
240.512	0.3
240.886	0.41
241.261	0.4
241.635	0.34
242.009	0.53
242.384	0.26
242.758	0.46
243.132	0.51
243.507	0.42
243.881	0.36
244.255	0.4
244.629	0.5
245.004	0.71
245.378	0.51
245.752	0.64
246.126	0.28
246.5	0.35
246.874	0.26
247.248	0.38
247.622	0.39
247.996	0.53
248.37	0.42
248.744	0.32
249.118	0.1
249.492	0.34
249.866	0.34
250.24	0.44
250.613	0.4
250.987	0.45
251.361	0.43
251.735	0.39
252.108	0.62
252.482	0.31
252.856	0.23
253.229	0.44
253.603	0.38
253.977	0.42
254.35	0.46
254.724	0.41
255.097	0.34
255.471	0.26
255.844	0.41
256.218	0.4
256.591	0.4
256.964	0.38
257.338	0.37
257.711	0.57
258.084	0.35
258.458	0.32
258.831	0.44
259.204	0.39
259.577	0.34
259.95	0.35
260.323	0.49
260.697	0.3
261.07	0.28
261.443	0.4
261.816	0.41
262.189	0.44
262.562	0.39
262.935	0.41
263.308	0.34
263.68	0.43
264.053	0.48
264.426	0.41
264.799	0.43
265.172	0.31
265.545	0.38
265.917	0.61
266.29	0.43
266.663	0.47
267.035	0.49
267.408	0.49
267.781	0.58
268.153	0.36
268.526	0.39
268.898	0.48
269.271	0.37
269.643	0.44
270.016	0.43
270.388	0.32
270.76	0.3
271.133	0.48
271.505	0.53
271.877	0.45
272.25	0.43
272.622	0.38
272.994	0.41
273.366	0.38
273.739	0.36
274.111	0.45
274.483	0.26
274.855	0.28
275.227	0.52
275.599	0.49
275.971	0.31
276.343	0.39
276.715	0.33
277.087	0.51
277.459	0.63
277.831	0.32
278.203	0.35
278.574	0.37
278.946	0.38
279.318	0.31
279.69	0.41
280.061	0.44
280.433	0.3
280.805	0.43
281.176	0.34
281.548	0.45
281.92	0.43
282.291	0.44
282.663	0.43
283.034	0.46
283.406	0.38
283.777	0.39
284.148	0.42
284.52	0.37
284.891	0.5
285.262	0.38
285.634	0.42
286.005	0.46
286.376	0.52
286.747	0.39
287.119	0.45
287.49	0.43
287.861	0.43
288.232	0.4
288.603	0.43
288.974	0.3
289.345	0.38
289.716	0.41
290.087	0.34
290.458	0.31
290.829	0.52
291.2	0.51
291.571	0.4
291.941	0.32
292.312	0.43
292.683	0.43
293.054	0.48
293.424	0.43
293.795	0.43
294.166	0.46
294.536	0.4
294.907	0.3
295.277	0.45
295.648	0.47
296.018	0.43
296.389	0.3
296.759	0.43
297.13	0.51
297.5	0.41
297.871	0.38
298.241	0.42
298.611	0.39
298.981	0.4
299.352	0.53
299.722	0.39
300.092	0.44
300.462	0.39
300.832	0.5
301.202	0.52
301.573	0.44
301.943	0.33
302.313	0.42
302.683	0.37
303.053	0.34
303.422	0.38
303.792	0.41
304.162	0.37
304.532	0.43
304.902	0.34
305.272	0.42
305.641	0.4
306.011	0.33
306.381	0.38
306.75	0.38
307.12	0.35
307.49	0.3
307.859	0.3
308.229	0.32
308.598	0.35
308.968	0.31
309.337	0.29
309.707	0.31
310.076	0.27
310.445	0.34
310.815	0.29
311.184	0.3
311.553	0.31
311.923	0.3
312.292	0.28
312.661	0.3
313.03	0.31
313.399	0.31
313.768	0.3
314.137	0.3
314.506	0.31
314.875	0.32
315.244	0.29
315.613	0.31
315.982	0.33
316.351	0.32
316.72	0.31
317.089	0.34
317.458	0.37
317.826	0.36
318.195	0.35
318.564	0.35
318.933	0.34
319.301	0.36
319.67	0.36
320.038	0.38
320.407	0.38
320.775	0.38
321.144	0.39
321.512	0.4
321.881	0.41
322.249	0.4
322.618	0.41
322.986	0.4
323.354	0.41
323.723	0.42
324.091	0.43
324.459	0.44
324.827	0.46
325.195	0.45
325.564	0.47
325.932	0.47
326.3	0.47
326.668	0.48
327.036	0.49
327.404	0.49
327.772	0.52
328.14	0.5
328.508	0.52
328.875	0.53
329.243	0.52
329.611	0.54
329.979	0.55
330.346	0.54
330.714	0.56
331.082	0.57
331.449	0.57
331.817	0.58
332.185	0.6
332.552	0.6
332.92	0.62
333.287	0.63
333.655	0.65
334.022	0.65
334.389	0.68
334.757	0.68
335.124	0.69
335.491	0.71
335.859	0.73
336.226	0.74
336.593	0.74
336.96	0.76
337.327	0.77
337.695	0.8
338.062	0.8
338.429	0.81
338.796	0.83
339.163	0.85
339.53	0.86
339.897	0.88
340.263	0.88
340.63	0.9
340.997	0.93
341.364	0.94
341.731	0.95
342.097	0.97
342.464	0.98
342.831	1.02
343.197	1.02
343.564	1.04
343.931	1.04
344.297	1.07
344.664	1.09
345.03	1.1
345.396	1.11
345.763	1.13
346.129	1.15
346.496	1.16
346.862	1.18
347.228	1.19
347.594	1.21
347.961	1.22
348.327	1.22
348.693	1.25
349.059	1.26
349.425	1.28
349.791	1.31
350.157	1.3
350.523	1.31
350.889	1.33
351.255	1.35
351.621	1.36
351.987	1.39
352.353	1.38
352.719	1.4
353.084	1.43
353.45	1.42
353.816	1.45
354.181	1.45
354.547	1.48
354.913	1.5
355.278	1.5
355.644	1.54
356.009	1.55
356.375	1.56
356.74	1.59
357.106	1.59
357.471	1.6
357.836	1.62
358.202	1.7
358.567	1.66
358.932	1.69
359.297	1.71
359.663	1.72
360.028	1.73
360.393	1.78
360.758	1.75
361.123	1.74
361.488	1.82
361.853	1.86
362.218	1.88
362.583	1.85
362.948	1.89
363.312	1.87
363.677	1.91
364.042	1.87
364.407	1.94
364.772	1.92
365.136	1.9
365.501	1.93
365.865	1.97
366.23	1.95
366.595	1.99
366.959	2.02
367.324	2.03
367.688	2.03
368.052	2.01
368.417	2.02
368.781	2.04
369.145	2.05
369.51	2.06
369.874	2.07
370.238	2.05
370.602	2.03
370.967	2.07
371.331	2.06
371.695	2.02
372.059	2.04
372.423	2.04
372.787	2.08
373.151	2.02
373.515	2.07
373.878	2.1
374.242	2.01
374.606	2.06
374.97	2.01
375.334	2.06
375.697	1.99
376.061	2.02
376.425	2.04
376.788	2
377.152	1.97
377.515	1.97
377.879	1.97
378.242	1.9
378.606	1.98
378.969	1.92
379.333	1.94
379.696	1.91
380.059	1.87
380.422	1.84
380.786	1.84
381.149	1.82
381.512	1.81
381.875	1.79
382.238	1.78
382.601	1.77
382.964	1.71
383.327	1.71
383.69	1.74
384.053	1.68
384.416	1.67
384.779	1.64
385.142	1.63
385.504	1.6
385.867	1.59
386.23	1.59
386.593	1.57
386.955	1.57
387.318	1.56
387.68	1.57
388.043	1.54
388.405	1.53
388.768	1.54
389.13	1.53
389.493	1.51
389.855	1.48
390.217	1.5
390.58	1.48
390.942	1.45
391.304	1.42
391.666	1.41
392.028	1.4
392.391	1.37
392.753	1.35
393.115	1.35
393.477	1.34
393.839	1.3
394.201	1.3
394.563	1.29
394.924	1.3
395.286	1.28
395.648	1.29
396.01	1.28
396.371	1.29
396.733	1.31
397.095	1.31
397.456	1.35
397.818	1.37
398.18	1.38
398.541	1.42
398.903	1.43
399.264	1.46
399.625	1.49
399.987	1.51
400.348	1.54
400.709	1.56
401.071	1.55
401.432	1.57
401.793	1.56
402.154	1.53
402.515	1.5
402.876	1.52
403.238	1.47
403.599	1.44
403.96	1.41
404.32	1.36
404.681	1.31
405.042	1.25
405.403	1.22
405.764	1.15
406.125	1.11
406.485	1.06
406.846	1.02
407.207	0.95
407.567	0.9
407.928	0.86
408.288	0.81
408.649	0.77
409.009	0.73
409.37	0.69
409.73	0.66
410.091	0.63
410.451	0.59
410.811	0.56
411.171	0.54
411.532	0.51
411.892	0.48
412.252	0.48
412.612	0.45
412.972	0.42
413.332	0.41
413.692	0.39
414.052	0.38
414.412	0.36
414.772	0.35
415.132	0.34
415.492	0.33
415.851	0.32
416.211	0.31
416.571	0.3
416.931	0.3
417.29	0.29
417.65	0.28
418.009	0.27
418.369	0.26
418.728	0.26
419.088	0.26
419.447	0.25
419.807	0.25
420.166	0.24
420.525	0.23
420.884	0.23
421.244	0.22
421.603	0.22
421.962	0.21
422.321	0.21
422.68	0.21
423.039	0.2
423.398	0.2
423.757	0.2
424.116	0.2
424.475	0.19
424.834	0.19
425.193	0.19
425.551	0.2
425.91	0.19
426.269	0.18
426.628	0.18
426.986	0.19
427.345	0.17
427.703	0.18
428.062	0.18
428.42	0.18
428.779	0.17
429.137	0.18
429.496	0.17
429.854	0.17
430.212	0.17
430.57	0.17
430.929	0.16
431.287	0.17
431.645	0.17
432.003	0.17
432.361	0.17
432.719	0.17
433.077	0.17
433.435	0.17
433.793	0.17
434.151	0.16
434.509	0.17
434.866	0.17
435.224	0.16
435.582	0.17
435.94	0.17
436.297	0.16
436.655	0.17
437.012	0.16
437.37	0.16
437.727	0.17
438.085	0.17
438.442	0.16
438.8	0.17
439.157	0.16
439.514	0.16
439.872	0.16
440.229	0.17
440.586	0.17
440.943	0.17
441.3	0.17
441.657	0.18
442.014	0.17
442.371	0.17
442.728	0.17
443.085	0.17
443.442	0.16
443.799	0.16
444.156	0.17
444.513	0.18
444.869	0.16
445.226	0.17
445.583	0.18
445.939	0.18
446.296	0.16
446.652	0.16
447.009	0.18
447.365	0.18
447.722	0.17
448.078	0.18
448.434	0.18
448.791	0.18
449.147	0.18
449.503	0.18
449.859	0.17
450.215	0.18
450.571	0.18
450.928	0.18
451.284	0.19
451.64	0.19
451.995	0.18
452.351	0.18
452.707	0.18
453.063	0.17
453.419	0.17
453.775	0.17
454.13	0.17
454.486	0.17
454.842	0.17
455.197	0.17
455.553	0.17
455.908	0.17
456.264	0.16
456.619	0.16
456.975	0.17
457.33	0.16
457.685	0.16
458.04	0.16
458.396	0.16
458.751	0.15
459.106	0.14
459.461	0.15
459.816	0.15
460.171	0.15
460.526	0.13
460.881	0.13
461.236	0.13
461.591	0.13
461.946	0.13
462.301	0.12
462.655	0.12
463.01	0.12
463.365	0.11
463.719	0.11
464.074	0.1
464.428	0.09
464.783	0.09
465.137	0.09
465.492	0.09
465.846	0.1
466.201	0.1
466.555	0.1
466.909	0.11
467.263	0.11
467.618	0.11
467.972	0.11
468.326	0.12
468.68	0.11
469.034	0.11
469.388	0.1
469.742	0.11
470.096	0.11
470.45	0.11
470.804	0.12
471.157	0.11
471.511	0.11
471.865	0.11
472.218	0.13
472.572	0.14
472.926	0.14
473.279	0.15
473.633	0.16
473.986	0.17
474.34	0.18
474.693	0.19
475.046	0.2
475.4	0.21
475.753	0.22
476.106	0.24
476.459	0.24
476.812	0.26
477.165	0.26
477.519	0.28
477.872	0.28
478.224	0.29
478.577	0.3
478.93	0.31
479.283	0.32
479.636	0.33
479.989	0.34
480.341	0.34
480.694	0.36
481.047	0.36
481.399	0.37
481.752	0.37
482.104	0.37
482.457	0.39
482.809	0.41
483.162	0.4
483.514	0.42
483.866	0.42
484.219	0.43
484.571	0.43
484.923	0.44
485.275	0.44
485.627	0.45
485.979	0.46
486.331	0.46
486.683	0.48
487.035	0.48
487.387	0.49
487.739	0.51
488.091	0.5
488.443	0.51
488.794	0.51
489.146	0.52
489.498	0.52
489.849	0.53
490.201	0.53
490.552	0.54
490.904	0.53
491.255	0.54
491.607	0.55
491.958	0.56
492.309	0.56
492.661	0.57
493.012	0.57
493.363	0.57
493.714	0.58
494.065	0.6
494.416	0.59
494.767	0.6
495.118	0.6
495.469	0.61
495.82	0.62
496.171	0.62
496.522	0.63
496.872	0.63
497.223	0.63
497.574	0.64
497.924	0.66
498.275	0.66
498.626	0.67
498.976	0.67
499.327	0.68
499.677	0.68
500.027	0.69
500.378	0.69
500.728	0.69
501.078	0.7
501.428	0.71
501.779	0.72
502.129	0.72
502.479	0.72
502.829	0.73
503.179	0.74
503.529	0.73
503.879	0.75
504.229	0.75
504.578	0.75
504.928	0.76
505.278	0.76
505.628	0.76
505.977	0.77
506.327	0.77
506.676	0.78
507.026	0.78
507.375	0.79
507.725	0.79
508.074	0.8
508.424	0.79
508.773	0.81
509.122	0.81
509.471	0.82
509.82	0.82
510.17	0.82
510.519	0.83
510.868	0.82
511.217	0.83
511.566	0.84
511.915	0.84
512.263	0.86
512.612	0.86
512.961	0.85
513.31	0.86
513.659	0.85
514.007	0.87
514.356	0.88
514.704	0.89
515.053	0.89
515.401	0.88
515.75	0.89
516.098	0.89
516.447	0.9
516.795	0.9
517.143	0.91
517.491	0.91
517.839	0.92
518.188	0.92
518.536	0.92
518.884	0.92
519.232	0.93
519.58	0.93
519.928	0.93
520.275	0.94
520.623	0.94
520.971	0.95
521.319	0.96
521.666	0.96
522.014	0.96
522.362	0.95
522.709	0.97
523.057	0.96
523.404	0.98
523.752	0.98
524.099	0.98
524.446	0.97
524.794	0.99
525.141	0.98
525.488	0.98
525.835	0.99
526.182	1
526.529	1
526.876	1.01
527.223	1.01
527.57	1
527.917	1
528.264	1
528.611	1.01
528.958	1.02
529.304	1.02
529.651	1.02
529.998	1.03
530.344	1.02
530.691	1.02
531.037	1.03
531.384	1.04
531.73	1.03
532.076	1.04
532.423	1.04
532.769	1.04
533.115	1.04
533.461	1.05
533.807	1.05
534.154	1.04
534.5	1.05
534.846	1.06
535.192	1.06
535.537	1.06
535.883	1.07
536.229	1.07
536.575	1.07
536.921	1.06
537.266	1.07
537.612	1.07
537.957	1.06
538.303	1.07
538.649	1.07
538.994	1.07
539.339	1.07
539.685	1.08
540.03	1.08
540.375	1.08
540.721	1.09
541.066	1.08
541.411	1.08
541.756	1.09
542.101	1.09
542.446	1.09
542.791	1.09
543.136	1.1
543.481	1.09
543.825	1.09
544.17	1.09
544.515	1.1
544.86	1.09
545.204	1.09
545.549	1.09
545.893	1.1
546.238	1.09
546.582	1.09
546.927	1.1
547.271	1.1
547.615	1.1
547.96	1.1
548.304	1.1
548.648	1.11
548.992	1.1
549.336	1.09
549.68	1.1
550.024	1.11
550.368	1.11
550.712	1.11
551.056	1.1
551.4	1.11
551.743	1.1
552.087	1.1
552.431	1.1
552.774	1.11
553.118	1.1
553.462	1.09
553.805	1.1
554.148	1.1
554.492	1.1
554.835	1.1
555.178	1.09
555.522	1.1
555.865	1.1
556.208	1.1
556.551	1.1
556.894	1.1
557.237	1.09
557.58	1.09
557.923	1.1
558.266	1.09
558.609	1.09
558.952	1.09
559.294	1.09
559.637	1.09
559.98	1.09
560.322	1.09
560.665	1.08
561.007	1.08
561.35	1.07
561.692	1.08
562.034	1.08
562.377	1.07
562.719	1.08
563.061	1.07
563.403	1.07
563.745	1.07
564.088	1.07
564.43	1.07
564.772	1.07
565.113	1.07
565.455	1.06
565.797	1.07
566.139	1.07
566.481	1.06
566.822	1.06
567.164	1.06
567.506	1.05
567.847	1.05
568.189	1.05
568.53	1.05
568.872	1.06
569.213	1.05
569.554	1.05
569.895	1.04
570.237	1.05
570.578	1.04
570.919	1.04
571.26	1.03
571.601	1.03
571.942	1.03
572.283	1.02
572.624	1.03
572.965	1.02
573.306	1.02
573.646	1.01
573.987	1.02
574.328	1.02
574.668	1.01
575.009	1.01
575.349	1
575.69	1.01
576.03	1
576.37	0.99
576.711	0.99
577.051	1
577.391	1
577.731	0.99
578.072	0.99
578.412	0.98
578.752	0.98
579.092	0.98
579.431	0.97
579.771	0.96
580.111	0.96
580.451	0.97
580.791	0.98
581.13	0.97
581.47	0.97
581.81	0.97
582.149	0.96
582.489	0.96
582.828	0.95
583.167	0.93
583.507	0.9
583.846	0.9
584.185	0.93
584.525	0.95
584.864	0.95
585.203	0.95
585.542	0.96
585.881	0.95
586.22	0.95
586.559	0.94
586.898	0.93
587.236	0.93
587.575	0.93
587.914	0.93
588.252	0.94
588.591	0.94
588.93	0.93
589.268	0.93
589.607	0.93
589.945	0.93
590.283	0.93
590.622	0.94
590.96	0.94
591.298	0.93
591.636	0.94
591.974	0.93
592.313	0.93
592.651	0.94
592.989	0.93
593.326	0.93
593.664	0.93
594.002	0.93
594.34	0.92
594.678	0.92
595.015	0.92
595.353	0.92
595.691	0.92
596.028	0.93
596.366	0.92
596.703	0.92
597.04	0.92
597.378	0.92
597.715	0.92
598.052	0.92
598.389	0.92
598.726	0.92
599.064	0.91
599.401	0.92
599.738	0.92
600.074	0.91
600.411	0.91
600.748	0.91
601.085	0.91
601.422	0.9
601.758	0.9
602.095	0.9
602.432	0.9
602.768	0.9
603.105	0.9
603.441	0.91
603.777	0.9
604.114	0.9
604.45	0.9
604.786	0.9
605.122	0.89
605.459	0.88
605.795	0.88
606.131	0.88
606.467	0.88
606.803	0.88
607.139	0.88
607.474	0.88
607.81	0.87
608.146	0.87
608.482	0.87
608.817	0.86
609.153	0.85
609.488	0.86
609.824	0.86
610.159	0.86
610.495	0.86
610.83	0.85
611.165	0.85
611.5	0.84
611.836	0.84
612.171	0.84
612.506	0.84
612.841	0.84
613.176	0.83
613.511	0.83
613.845	0.83
614.18	0.83
614.515	0.82
614.85	0.82
615.184	0.82
615.519	0.82
615.854	0.81
616.188	0.81
616.523	0.8
616.857	0.8
617.191	0.8
617.526	0.8
617.86	0.79
618.194	0.79
618.528	0.79
618.862	0.79
619.196	0.79
619.53	0.78
619.864	0.78
620.198	0.77
620.532	0.77
620.866	0.77
621.2	0.77
621.533	0.76
621.867	0.76
622.201	0.75
622.534	0.76
622.868	0.75
623.201	0.75
623.534	0.74
623.868	0.74
624.201	0.74
624.534	0.74
624.868	0.73
625.201	0.73
625.534	0.73
625.867	0.72
626.2	0.72
626.533	0.72
626.865	0.71
627.198	0.71
627.531	0.71
627.864	0.71
628.196	0.7
628.529	0.7
628.862	0.69
629.194	0.69
629.527	0.69
629.859	0.68
630.191	0.68
630.524	0.68
630.856	0.67
631.188	0.67
631.52	0.66
631.852	0.66
632.184	0.66
632.516	0.65
632.848	0.65
633.18	0.65
633.512	0.65
633.844	0.64
634.175	0.63
634.507	0.63
634.839	0.62
635.17	0.62
635.502	0.62
635.833	0.62
636.165	0.61
636.496	0.61
636.827	0.6
637.159	0.6
637.49	0.59
637.821	0.6
638.152	0.59
638.483	0.58
638.814	0.58
639.145	0.57
639.476	0.57
639.807	0.57
640.137	0.56
640.468	0.56
640.799	0.56
641.129	0.55
641.46	0.55
641.791	0.54
642.121	0.54
642.451	0.54
642.782	0.54
643.112	0.53
643.442	0.53
643.773	0.52
644.103	0.52
644.433	0.52
644.763	0.52
645.093	0.51
645.423	0.51
645.753	0.51
646.082	0.51
646.412	0.51
646.742	0.5
647.072	0.5
647.401	0.5
647.731	0.5
648.06	0.49
648.39	0.49
648.719	0.49
649.048	0.49
649.378	0.48
649.707	0.48
650.036	0.48
650.365	0.48
650.694	0.47
651.023	0.47
651.352	0.47
651.681	0.47
652.01	0.47
652.339	0.46
652.668	0.47
652.996	0.46
653.325	0.46
653.654	0.46
653.982	0.46
654.311	0.46
654.639	0.46
654.967	0.45
655.296	0.45
655.624	0.45
655.952	0.45
656.28	0.45
656.609	0.44
656.937	0.44
657.265	0.42
657.593	0.28
657.92	0.19
658.248	0.17
658.576	0.25
658.904	0.37
659.231	0.43
659.559	0.43
659.887	0.43
660.214	0.43
660.542	0.42
660.869	0.42
661.196	0.42
661.524	0.42
661.851	0.42
662.178	0.42
662.505	0.42
662.832	0.42
663.159	0.41
663.486	0.41
663.813	0.41
664.14	0.41
664.467	0.41
664.794	0.41
665.12	0.4
665.447	0.4
665.774	0.4
666.1	0.4
666.427	0.4
666.753	0.39
667.079	0.39
667.406	0.39
667.732	0.39
668.058	0.39
668.384	0.38
668.71	0.38
669.036	0.38
669.362	0.37
669.688	0.37
670.014	0.37
670.34	0.37
670.666	0.36
670.991	0.36
671.317	0.36
671.643	0.36
671.968	0.36
672.294	0.36
672.619	0.35
672.945	0.35
673.27	0.35
673.595	0.34
673.92	0.34
674.246	0.34
674.571	0.34
674.896	0.33
675.221	0.33
675.546	0.33
675.87	0.33
676.195	0.32
676.52	0.32
676.845	0.32
677.169	0.31
677.494	0.31
677.819	0.31
678.143	0.3
678.468	0.31
678.792	0.3
679.116	0.3
679.44	0.3
679.765	0.29
680.089	0.29
680.413	0.28
680.737	0.28
681.061	0.28
681.385	0.28
681.709	0.27
682.033	0.27
682.356	0.27
682.68	0.27
683.004	0.27
683.327	0.26
683.651	0.26
683.974	0.26
684.298	0.25
684.621	0.25
684.944	0.25
685.268	0.25
685.591	0.24
685.914	0.24
686.237	0.24
686.56	0.23
686.883	0.23
687.206	0.23
687.529	0.23
687.852	0.23
688.175	0.22
688.497	0.22
688.82	0.22
689.142	0.21
689.465	0.21
689.787	0.21
690.11	0.21
690.432	0.21
690.755	0.21
691.077	0.2
691.399	0.2
691.721	0.2
692.043	0.19
692.365	0.19
692.687	0.19
693.009	0.18
693.331	0.18
693.653	0.18
693.974	0.18
694.296	0.18
694.618	0.18
694.939	0.18
695.261	0.18
695.582	0.17
695.904	0.17
696.225	0.17
696.546	0.17
696.868	0.17
697.189	0.16
697.51	0.16
697.831	0.16
698.152	0.16
698.473	0.16
698.794	0.15
699.114	0.15
699.435	0.15
699.756	0.15
700.077	0.15
700.397	0.15
700.718	0.15
701.038	0.15
701.359	0.15
701.679	0.15
701.999	0.15
702.32	0.15
702.64	0.14
702.96	0.15
703.28	0.14
703.6	0.14
703.92	0.14
704.24	0.14
704.56	0.14
704.879	0.14
705.199	0.14
705.519	0.14
705.838	0.14
706.158	0.14
706.478	0.14
706.797	0.14
707.116	0.14
707.436	0.14
707.755	0.14
708.074	0.13
708.393	0.13
708.712	0.13
709.031	0.12
709.35	0.12
709.669	0.12
709.988	0.12
710.307	0.12
710.626	0.12
710.944	0.13
711.263	0.13
711.582	0.13
711.9	0.13
712.219	0.13
712.537	0.13
712.855	0.13
713.174	0.13
713.492	0.13
713.81	0.13
714.128	0.13
714.446	0.13
714.764	0.12
715.082	0.12
715.4	0.13
715.718	0.13
716.035	0.12
716.353	0.13
716.671	0.13
716.988	0.13
717.306	0.12
717.623	0.13
717.941	0.13
718.258	0.13
718.575	0.13
718.893	0.13
719.21	0.13
719.527	0.13
719.844	0.13
720.161	0.13
720.478	0.13
720.795	0.13
721.112	0.13
721.428	0.13
721.745	0.13
722.062	0.13
722.378	0.13
722.695	0.13
723.011	0.13
723.328	0.13
723.644	0.13
723.96	0.13
724.276	0.13
724.593	0.14
724.909	0.14
725.225	0.13
725.541	0.13
725.857	0.13
726.173	0.14
726.488	0.14
726.804	0.13
727.12	0.14
727.435	0.14
727.751	0.13
728.067	0.13
728.382	0.13
728.697	0.13
729.013	0.14
729.328	0.13
729.643	0.13
729.958	0.13
730.273	0.13
730.588	0.13
730.903	0.13
731.218	0.13
731.533	0.13
731.848	0.13
732.163	0.13
732.477	0.12
732.792	0.12
733.107	0.12
733.421	0.13
733.736	0.12
734.05	0.13
734.364	0.13
734.678	0.13
734.993	0.12
735.307	0.13
735.621	0.12
735.935	0.12
736.249	0.12
736.563	0.13
736.877	0.12
737.19	0.12
737.504	0.12
737.818	0.12
738.131	0.12
738.445	0.12
738.758	0.12
739.072	0.12
739.385	0.12
739.698	0.12
740.012	0.12
740.325	0.12
740.638	0.12
740.951	0.12
741.264	0.11
741.577	0.12
741.89	0.11
742.203	0.11
742.515	0.12
742.828	0.12
743.141	0.11
743.453	0.11
743.766	0.11
744.078	0.11
744.391	0.11
744.703	0.11
745.015	0.1
745.327	0.11
745.639	0.1
745.952	0.11
746.264	0.11
746.575	0.11
746.887	0.1
747.199	0.1
747.511	0.1
747.823	0.1
748.134	0.1
748.446	0.1
748.757	0.1
749.069	0.09
749.38	0.1
749.692	0.1
750.003	0.1
750.314	0.09
750.625	0.09
750.936	0.09
751.248	0.09
751.559	0.09
751.869	0.09
752.18	0.09
752.491	0.09
752.802	0.09
753.112	0.08
753.423	0.09
753.734	0.08
754.044	0.08
754.355	0.08
754.665	0.08
754.975	0.08
755.285	0.08
755.596	0.08
755.906	0.08
756.216	0.08
756.526	0.08
756.836	0.08
757.146	0.08
757.455	0.08
757.765	0.08
758.075	0.08
758.385	0.07
758.694	0.07
759.004	0.07
759.313	0.07
759.622	0.07
759.932	0.07
760.241	0.07
760.55	0.07
760.859	0.07
761.168	0.07
761.477	0.07
761.786	0.07
762.095	0.07
762.404	0.07
762.713	0.07
763.021	0.07
763.33	0.07
763.639	0.07
763.947	0.07
764.256	0.07
764.564	0.07
764.872	0.07
765.181	0.07
765.489	0.07
765.797	0.07
766.105	0.07
766.413	0.07
766.721	0.07
767.029	0.07
767.337	0.07
767.644	0.07
767.952	0.07
768.26	0.07
768.567	0.07
768.875	0.07
769.182	0.07
769.49	0.07
769.797	0.07
770.104	0.07
770.411	0.07
770.718	0.06
771.026	0.06
771.333	0.07
771.639	0.07
771.946	0.07
772.253	0.07
772.56	0.07
772.867	0.07
773.173	0.07
773.48	0.07
773.786	0.07
774.093	0.07
774.399	0.07
774.705	0.07
775.012	0.07
775.318	0.07
775.624	0.07
775.93	0.07
776.236	0.06
776.542	0.07
776.848	0.07
777.154	0.07
777.459	0.07
777.765	0.07
778.071	0.07
778.376	0.07
778.682	0.07
778.987	0.07
779.292	0.07
779.598	0.07
779.903	0.07
780.208	0.07
780.513	0.07
780.818	0.07
781.123	0.07
781.428	0.07
781.733	0.07
782.038	0.07
782.343	0.07
782.647	0.07
782.952	0.07
783.256	0.07
783.561	0.08
783.865	0.07
784.17	0.08
784.474	0.08
784.778	0.08
785.082	0.07
785.386	0.07
785.69	0.07
785.994	0.08
786.298	0.08
786.602	0.08
786.906	0.08
787.209	0.08
787.513	0.08
787.817	0.08
788.12	0.08
788.424	0.08
788.727	0.08
789.03	0.08
789.333	0.08
789.637	0.08
789.94	0.08
790.243	0.08
790.546	0.08
790.849	0.08
791.152	0.08
791.454	0.08
791.757	0.08
792.06	0.08
792.362	0.08
792.665	0.08
792.967	0.08
793.27	0.08
793.572	0.08
793.874	0.08
794.177	0.08
794.479	0.08
794.781	0.08
795.083	0.08
795.385	0.08
795.687	0.09
795.989	0.08
796.29	0.09
796.592	0.09
796.894	0.09
797.195	0.09
797.497	0.09
797.798	0.09
798.1	0.09
798.401	0.09
798.702	0.09
799.003	0.09
799.304	0.09
799.605	0.09
799.906	0.09
800.207	0.09
800.508	0.09
800.809	0.09
801.11	0.09
801.41	0.09
801.711	0.09
802.011	0.09
802.312	0.09
802.612	0.09
802.913	0.09
803.213	0.09
803.513	0.09
803.813	0.1
804.113	0.09
804.413	0.09
804.713	0.1
805.013	0.1
805.313	0.1
805.613	0.1
805.912	0.1
806.212	0.1
806.511	0.1
806.811	0.09
807.11	0.1
807.41	0.1
807.709	0.1
808.008	0.1
808.307	0.09
808.606	0.1
808.905	0.1
809.204	0.1
809.503	0.1
809.802	0.1
810.101	0.1
810.399	0.11
810.698	0.1
810.997	0.11
811.295	0.11
811.593	0.11
811.892	0.11
812.19	0.11
812.488	0.11
812.786	0.11
813.084	0.11
813.383	0.11
813.68	0.11
813.978	0.12
814.276	0.11
814.574	0.11
814.872	0.11
815.169	0.11
815.467	0.11
815.764	0.11
816.062	0.11
816.359	0.11
816.656	0.12
816.954	0.11
817.251	0.12
817.548	0.11
817.845	0.11
818.142	0.12
818.439	0.12
818.735	0.12
819.032	0.12
819.329	0.12
819.626	0.12
819.922	0.12
820.219	0.12
820.515	0.12
820.811	0.12
821.108	0.12
821.404	0.12
821.7	0.12
821.996	0.12
822.292	0.12
822.588	0.13
822.884	0.13
823.18	0.12
823.475	0.12
823.771	0.12
824.067	0.12
824.362	0.13
824.658	0.13
824.953	0.14
825.249	0.13
825.544	0.13
825.839	0.13
826.134	0.13
826.429	0.13
826.724	0.13
827.019	0.13
827.314	0.13
827.609	0.13
827.904	0.13
828.198	0.14
828.493	0.14
828.787	0.13
829.082	0.14
829.376	0.13
829.671	0.13
829.965	0.14
830.259	0.14
830.553	0.14
830.847	0.15
831.141	0.13
831.435	0.15
831.729	0.14
832.023	0.15
832.317	0.15
832.61	0.15
832.904	0.15
833.197	0.14
833.491	0.15
833.784	0.15
834.077	0.15
834.371	0.14
834.664	0.14
834.957	0.14
835.25	0.15
835.543	0.15
835.836	0.15
836.129	0.14
836.421	0.15
836.714	0.15
837.007	0.16
837.299	0.15
837.592	0.16
837.884	0.16
838.177	0.15
838.469	0.17
838.761	0.16
839.053	0.16
839.345	0.16
839.637	0.16
839.929	0.15
840.221	0.16
840.513	0.16
840.805	0.16
841.096	0.15
841.388	0.16
841.68	0.17
841.971	0.16
842.262	0.17
842.554	0.17
842.845	0.16
843.136	0.17
843.427	0.17
843.718	0.16
844.009	0.16
844.3	0.16
844.591	0.16
844.882	0.16
845.173	0.17
845.463	0.17
845.754	0.17
846.044	0.17
846.335	0.16
846.625	0.17
846.915	0.15
847.206	0.18
847.496	0.17
847.786	0.18
848.076	0.18
848.366	0.17
848.656	0.18
848.945	0.18
849.235	0.17
849.525	0.18
849.814	0.18
850.104	0.17
850.393	0.18
850.683	0.19
850.972	0.18
851.261	0.18
851.551	0.19
851.84	0.18
852.129	0.18
852.418	0.18
852.707	0.18
852.995	0.18
853.284	0.18
853.573	0.18
853.862	0.19
854.15	0.19
854.439	0.18
854.727	0.19
855.015	0.19
855.304	0.17
855.592	0.19
855.88	0.18
856.168	0.19
856.456	0.19
856.744	0.19
857.032	0.18
857.32	0.2
857.607	0.19
857.895	0.19
858.183	0.2
858.47	0.21
858.757	0.18
859.045	0.2
859.332	0.19
859.619	0.2
859.907	0.19
860.194	0.21
860.481	0.2
860.768	0.19
861.054	0.2
861.341	0.2
861.628	0.2
861.915	0.22
862.201	0.2
862.488	0.19
862.774	0.19
863.061	0.2
863.347	0.23
863.633	0.19
863.919	0.18
864.205	0.19
864.491	0.2
864.777	0.23
865.063	0.21
865.349	0.23
865.635	0.2
865.92	0.2
866.206	0.17
866.492	0.19
866.777	0.19
867.062	0.17
867.348	0.19
867.633	0.19
867.918	0.21
868.203	0.21
868.488	0.2
868.773	0.23
869.058	0.21
869.343	0.24
869.628	0.2
869.912	0.2
870.197	0.26
870.482	0.26
870.766	0.19
871.05	0.25
871.335	0.24
871.619	0.16
871.903	0.17
872.187	0.21
872.471	0.22
872.755	0.22
873.039	0.2
873.323	0.22
873.607	0.23
873.89	0.18
874.174	0.23
874.458	0.15
874.741	0.19
875.024	0.15
875.308	0.21
875.591	0.23
875.874	0.15
876.157	0.18
876.44	0.12
876.723	0.23
877.006	0.26
877.289	0.25
877.572	0.27
877.854	0.12
878.137	0.25
878.42	0.09
878.702	0.15
878.984	0.05
879.267	0.2
879.549	0.27
879.831	0.25
880.113	0.2
880.395	0.18
880.677	0.2
880.959	0.17
