Data from Rubpy_BV_1800_EDTA_Buffered_Absorbance_16-56-16-624.txt Node
Date: Wed Jul 01 16:56:16 BST 2026
User: fpm-admin
Spectrometer: OFX00224
Trigger mode: 0
Integration Time (sec): 7.000000E-2
Scans to average: 3
Nonlinearity correction enabled: false
Boxcar width: 0
Storing dark spectrum: false
XAxis mode: Wavelengths
Number of Pixels in Spectrum: 2136
>>>>>Begin Spectral Data<<<<<
154.91	-0
155.289	-0.24
155.669	1.06
156.048	-0
156.428	-0
156.807	0.38
157.186	-1.08
157.566	-0
157.945	-0
158.325	0.06
158.704	-0.2
159.083	0.51
159.462	-0
159.842	-0
160.221	-0
160.6	-0
160.979	-0
161.359	-0.24
161.738	0.15
162.117	-0.88
162.496	-0.05
162.875	-0.06
163.254	0.18
163.633	-0
164.012	-0.04
164.391	-0
164.77	0.2
165.149	-0.78
165.528	-0
165.907	-0
166.286	-0
166.665	-0.18
167.044	-0
167.423	0.59
167.802	-0
168.181	-1.36
168.559	-0.98
168.938	0.06
169.317	-0
169.696	-1.08
170.074	-0.45
170.453	0.11
170.832	-0
171.21	1.19
171.589	-0
171.968	-0
172.346	-0
172.725	-0
173.103	-0.53
173.482	0.77
173.861	-0
174.239	-0.26
174.617	-0.34
174.996	-0
175.374	-0.5
175.753	-0.9
176.131	0.98
176.51	-0.2
176.888	0.94
177.266	-0
177.645	0.03
178.023	-0
178.401	-0.07
178.779	0.07
179.158	-0.02
179.536	0.31
179.914	-0
180.292	-0.05
180.67	-0.38
181.048	0.77
181.427	0.12
181.805	-0.04
182.183	-0.27
182.561	0.22
182.939	-0.1
183.317	-0.57
183.695	-0.26
184.073	-0
184.451	-0.2
184.829	-0.41
185.206	-0.62
185.584	-0
185.962	-0.51
186.34	-0.38
186.718	-0.05
187.096	-0
187.473	-0.23
187.851	-0.18
188.229	-0.38
188.607	0.19
188.984	0.36
189.362	0.42
189.74	0.58
190.117	0.43
190.495	0.54
190.872	0.22
191.25	0.75
191.627	0.25
192.005	0.36
192.382	0.28
192.76	0.68
193.137	0.57
193.515	0.51
193.892	0.4
194.269	0.22
194.647	0.27
195.024	0.26
195.401	0.43
195.779	0.28
196.156	0.46
196.533	0.4
196.91	0.23
197.288	0.53
197.665	0.14
198.042	0.14
198.419	0.28
198.796	0.36
199.173	0.41
199.55	0.27
199.927	0.35
200.304	0.16
200.681	0.26
201.058	0.28
201.435	0.58
201.812	0.26
202.189	0.32
202.566	0.36
202.943	0.33
203.32	0.4
203.697	0.32
204.073	0.26
204.45	0.6
204.827	0.3
205.204	0.36
205.58	0.34
205.957	0.41
206.334	0.34
206.71	0.37
207.087	0.31
207.464	0.43
207.84	0.33
208.217	0.33
208.593	0.2
208.97	0.42
209.346	0.35
209.723	0.37
210.099	0.47
210.476	0.34
210.852	0.41
211.228	0.28
211.605	0.42
211.981	0.44
212.357	0.41
212.733	0.31
213.11	0.38
213.486	0.33
213.862	0.41
214.238	0.31
214.614	0.31
214.991	0.38
215.367	0.49
215.743	0.31
216.119	0.35
216.495	0.32
216.871	0.44
217.247	0.44
217.623	0.36
217.999	0.39
218.375	0.37
218.751	0.33
219.127	0.45
219.502	0.41
219.878	0.29
220.254	0.66
220.63	0.47
221.006	0.52
221.381	0.46
221.757	0.34
222.133	0.33
222.508	0.57
222.884	0.36
223.26	0.33
223.635	0.25
224.011	0.41
224.386	0.42
224.762	0.6
225.137	0.46
225.513	0.34
225.888	0.5
226.264	0.26
226.639	0.26
227.014	0.38
227.39	0.29
227.765	0.31
228.14	0.35
228.516	0.65
228.891	0.42
229.266	0.36
229.641	0.39
230.017	0.6
230.392	0.54
230.767	0.52
231.142	0.31
231.517	0.4
231.892	0.45
232.267	0.56
232.642	0.43
233.017	0.52
233.392	0.48
233.767	0.42
234.142	0.41
234.517	0.32
234.892	0.42
235.267	0.44
235.641	0.61
236.016	0.41
236.391	0.33
236.766	0.47
237.14	0.52
237.515	0.69
237.89	0.44
238.264	0.51
238.639	0.47
239.014	0.57
239.388	0.54
239.763	0.44
240.137	0.39
240.512	0.55
240.886	0.36
241.261	0.45
241.635	0.33
242.009	0.48
242.384	0.32
242.758	0.55
243.132	0.44
243.507	0.42
243.881	0.34
244.255	0.36
244.629	0.52
245.004	0.45
245.378	0.42
245.752	0.47
246.126	0.32
246.5	0.52
246.874	0.38
247.248	0.35
247.622	0.61
247.996	0.33
248.37	0.4
248.744	0.37
249.118	0.36
249.492	0.38
249.866	0.39
250.24	0.56
250.613	0.5
250.987	0.48
251.361	0.51
251.735	0.41
252.108	0.52
252.482	0.31
252.856	0.35
253.229	0.25
253.603	0.42
253.977	0.49
254.35	0.44
254.724	0.42
255.097	0.34
255.471	0.38
255.844	0.43
256.218	0.52
256.591	0.32
256.964	0.44
257.338	0.47
257.711	0.42
258.084	0.35
258.458	0.45
258.831	0.48
259.204	0.34
259.577	0.41
259.95	0.37
260.323	0.33
260.697	0.36
261.07	0.33
261.443	0.41
261.816	0.29
262.189	0.42
262.562	0.39
262.935	0.55
263.308	0.29
263.68	0.48
264.053	0.61
264.426	0.46
264.799	0.47
265.172	0.45
265.545	0.36
265.917	0.47
266.29	0.42
266.663	0.46
267.035	0.58
267.408	0.48
267.781	0.42
268.153	0.39
268.526	0.45
268.898	0.49
269.271	0.38
269.643	0.46
270.016	0.51
270.388	0.3
270.76	0.43
271.133	0.4
271.505	0.5
271.877	0.31
272.25	0.4
272.622	0.42
272.994	0.39
273.366	0.48
273.739	0.44
274.111	0.55
274.483	0.26
274.855	0.49
275.227	0.41
275.599	0.49
275.971	0.44
276.343	0.39
276.715	0.35
277.087	0.45
277.459	0.4
277.831	0.37
278.203	0.43
278.574	0.41
278.946	0.49
279.318	0.36
279.69	0.4
280.061	0.44
280.433	0.43
280.805	0.44
281.176	0.45
281.548	0.56
281.92	0.51
282.291	0.38
282.663	0.43
283.034	0.37
283.406	0.54
283.777	0.52
284.148	0.39
284.52	0.47
284.891	0.45
285.262	0.37
285.634	0.41
286.005	0.38
286.376	0.51
286.747	0.41
287.119	0.36
287.49	0.54
287.861	0.5
288.232	0.34
288.603	0.49
288.974	0.42
289.345	0.45
289.716	0.43
290.087	0.42
290.458	0.49
290.829	0.4
291.2	0.55
291.571	0.45
291.941	0.41
292.312	0.43
292.683	0.36
293.054	0.45
293.424	0.37
293.795	0.45
294.166	0.43
294.536	0.45
294.907	0.41
295.277	0.44
295.648	0.49
296.018	0.5
296.389	0.33
296.759	0.44
297.13	0.45
297.5	0.52
297.871	0.39
298.241	0.41
298.611	0.55
298.981	0.38
299.352	0.49
299.722	0.34
300.092	0.46
300.462	0.59
300.832	0.41
301.202	0.5
301.573	0.41
301.943	0.47
302.313	0.41
302.683	0.36
303.053	0.52
303.422	0.4
303.792	0.38
304.162	0.4
304.532	0.42
304.902	0.4
305.272	0.37
305.641	0.44
306.011	0.37
306.381	0.45
306.75	0.4
307.12	0.33
307.49	0.38
307.859	0.34
308.229	0.36
308.598	0.36
308.968	0.36
309.337	0.33
309.707	0.3
310.076	0.3
310.445	0.34
310.815	0.3
311.184	0.35
311.553	0.34
311.923	0.34
312.292	0.31
312.661	0.35
313.03	0.31
313.399	0.33
313.768	0.32
314.137	0.34
314.506	0.34
314.875	0.35
315.244	0.32
315.613	0.35
315.982	0.38
316.351	0.37
316.72	0.35
317.089	0.36
317.458	0.39
317.826	0.38
318.195	0.42
318.564	0.4
318.933	0.41
319.301	0.39
319.67	0.42
320.038	0.42
320.407	0.42
320.775	0.43
321.144	0.45
321.512	0.44
321.881	0.44
322.249	0.45
322.618	0.47
322.986	0.45
323.354	0.47
323.723	0.46
324.091	0.47
324.459	0.48
324.827	0.51
325.195	0.51
325.564	0.51
325.932	0.52
326.3	0.52
326.668	0.54
327.036	0.55
327.404	0.55
327.772	0.57
328.14	0.57
328.508	0.58
328.875	0.58
329.243	0.6
329.611	0.61
329.979	0.61
330.346	0.63
330.714	0.62
331.082	0.66
331.449	0.64
331.817	0.64
332.185	0.67
332.552	0.67
332.92	0.7
333.287	0.7
333.655	0.72
334.022	0.74
334.389	0.73
334.757	0.77
335.124	0.78
335.491	0.78
335.859	0.81
336.226	0.82
336.593	0.84
336.96	0.85
337.327	0.86
337.695	0.89
338.062	0.9
338.429	0.93
338.796	0.94
339.163	0.95
339.53	0.96
339.897	0.99
340.263	1
340.63	1.01
340.997	1.03
341.364	1.05
341.731	1.09
342.097	1.08
342.464	1.12
342.831	1.13
343.197	1.14
343.564	1.16
343.931	1.18
344.297	1.19
344.664	1.21
345.03	1.23
345.396	1.24
345.763	1.27
346.129	1.28
346.496	1.3
346.862	1.31
347.228	1.33
347.594	1.36
347.961	1.36
348.327	1.4
348.693	1.4
349.059	1.42
349.425	1.44
349.791	1.45
350.157	1.46
350.523	1.48
350.889	1.48
351.255	1.49
351.621	1.53
351.987	1.55
352.353	1.55
352.719	1.57
353.084	1.6
353.45	1.6
353.816	1.62
354.181	1.58
354.547	1.63
354.913	1.66
355.278	1.71
355.644	1.68
356.009	1.71
356.375	1.73
356.74	1.76
357.106	1.76
357.471	1.76
357.836	1.79
358.202	1.8
358.567	1.8
358.932	1.87
359.297	1.88
359.663	1.88
360.028	1.91
360.393	1.89
360.758	1.9
361.123	1.95
361.488	1.97
361.853	1.96
362.218	2
362.583	2
362.948	2.05
363.312	2.05
363.677	1.98
364.042	2.05
364.407	2.12
364.772	2.07
365.136	2.02
365.501	2.07
365.865	2.12
366.23	2
366.595	2.07
366.959	2.09
367.324	2.13
367.688	2.13
368.052	2.17
368.417	2.07
368.781	2.18
369.145	2.2
369.51	2.25
369.874	2.23
370.238	2.2
370.602	2.08
370.967	2.2
371.331	2.1
371.695	2.11
372.059	2.13
372.423	2.15
372.787	2.15
373.151	2.12
373.515	2.25
373.878	2.19
374.242	2.23
374.606	2.14
374.97	2.12
375.334	2.17
375.697	2.07
376.061	2.17
376.425	2.13
376.788	2.12
377.152	2.18
377.515	2.12
377.879	2.14
378.242	2.08
378.606	2.09
378.969	2.03
379.333	2.06
379.696	2.03
380.059	2.02
380.422	2.01
380.786	1.97
381.149	2.02
381.512	1.92
381.875	1.92
382.238	1.92
382.601	1.92
382.964	1.88
383.327	1.9
383.69	1.89
384.053	1.78
384.416	1.82
384.779	1.77
385.142	1.78
385.504	1.77
385.867	1.74
386.23	1.73
386.593	1.71
386.955	1.73
387.318	1.7
387.68	1.69
388.043	1.69
388.405	1.65
388.768	1.67
389.13	1.65
389.493	1.64
389.855	1.61
390.217	1.61
390.58	1.59
390.942	1.56
391.304	1.55
391.666	1.52
392.028	1.49
392.391	1.47
392.753	1.48
393.115	1.44
393.477	1.42
393.839	1.42
394.201	1.41
394.563	1.41
394.924	1.39
395.286	1.39
395.648	1.38
396.01	1.38
396.371	1.38
396.733	1.41
397.095	1.41
397.456	1.44
397.818	1.44
398.18	1.47
398.541	1.51
398.903	1.54
399.264	1.57
399.625	1.56
399.987	1.62
400.348	1.64
400.709	1.66
401.071	1.65
401.432	1.63
401.793	1.65
402.154	1.63
402.515	1.61
402.876	1.63
403.238	1.55
403.599	1.53
403.96	1.48
404.32	1.44
404.681	1.4
405.042	1.33
405.403	1.27
405.764	1.22
406.125	1.17
406.485	1.13
406.846	1.06
407.207	1.01
407.567	0.96
407.928	0.93
408.288	0.86
408.649	0.82
409.009	0.78
409.37	0.74
409.73	0.7
410.091	0.66
410.451	0.63
410.811	0.61
411.171	0.58
411.532	0.55
411.892	0.53
412.252	0.5
412.612	0.48
412.972	0.46
413.332	0.44
413.692	0.42
414.052	0.41
414.412	0.39
414.772	0.38
415.132	0.38
415.492	0.35
415.851	0.34
416.211	0.33
416.571	0.33
416.931	0.32
417.29	0.31
417.65	0.3
418.009	0.3
418.369	0.28
418.728	0.28
419.088	0.27
419.447	0.27
419.807	0.27
420.166	0.26
420.525	0.25
420.884	0.25
421.244	0.25
421.603	0.24
421.962	0.23
422.321	0.23
422.68	0.23
423.039	0.22
423.398	0.22
423.757	0.22
424.116	0.22
424.475	0.22
424.834	0.21
425.193	0.21
425.551	0.22
425.91	0.21
426.269	0.21
426.628	0.2
426.986	0.2
427.345	0.19
427.703	0.2
428.062	0.2
428.42	0.2
428.779	0.2
429.137	0.2
429.496	0.2
429.854	0.19
430.212	0.19
430.57	0.19
430.929	0.18
431.287	0.18
431.645	0.19
432.003	0.18
432.361	0.18
432.719	0.19
433.077	0.19
433.435	0.18
433.793	0.19
434.151	0.19
434.509	0.19
434.866	0.18
435.224	0.17
435.582	0.19
435.94	0.19
436.297	0.18
436.655	0.19
437.012	0.18
437.37	0.18
437.727	0.19
438.085	0.18
438.442	0.18
438.8	0.19
439.157	0.19
439.514	0.18
439.872	0.18
440.229	0.19
440.586	0.18
440.943	0.19
441.3	0.19
441.657	0.2
442.014	0.2
442.371	0.19
442.728	0.19
443.085	0.2
443.442	0.18
443.799	0.18
444.156	0.19
444.513	0.2
444.869	0.18
445.226	0.19
445.583	0.2
445.939	0.2
446.296	0.19
446.652	0.19
447.009	0.2
447.365	0.2
447.722	0.2
448.078	0.2
448.434	0.2
448.791	0.21
449.147	0.2
449.503	0.2
449.859	0.2
450.215	0.2
450.571	0.2
450.928	0.2
451.284	0.21
451.64	0.21
451.995	0.21
452.351	0.21
452.707	0.2
453.063	0.2
453.419	0.2
453.775	0.19
454.13	0.19
454.486	0.21
454.842	0.2
455.197	0.19
455.553	0.19
455.908	0.2
456.264	0.18
456.619	0.19
456.975	0.19
457.33	0.18
457.685	0.18
458.04	0.18
458.396	0.18
458.751	0.18
459.106	0.17
459.461	0.17
459.816	0.18
460.171	0.16
460.526	0.16
460.881	0.16
461.236	0.16
461.591	0.16
461.946	0.15
462.301	0.15
462.655	0.15
463.01	0.14
463.365	0.14
463.719	0.13
464.074	0.12
464.428	0.12
464.783	0.12
465.137	0.11
465.492	0.11
465.846	0.12
466.201	0.12
466.555	0.12
466.909	0.12
467.263	0.13
467.618	0.14
467.972	0.14
468.326	0.13
468.68	0.13
469.034	0.13
469.388	0.12
469.742	0.13
470.096	0.14
470.45	0.15
470.804	0.14
471.157	0.14
471.511	0.15
471.865	0.14
472.218	0.16
472.572	0.17
472.926	0.17
473.279	0.18
473.633	0.19
473.986	0.2
474.34	0.2
474.693	0.22
475.046	0.23
475.4	0.25
475.753	0.26
476.106	0.26
476.459	0.28
476.812	0.29
477.165	0.31
477.519	0.31
477.872	0.32
478.224	0.33
478.577	0.34
478.93	0.35
479.283	0.36
479.636	0.37
479.989	0.38
480.341	0.38
480.694	0.39
481.047	0.41
481.399	0.41
481.752	0.42
482.104	0.43
482.457	0.44
482.809	0.45
483.162	0.45
483.514	0.47
483.866	0.48
484.219	0.48
484.571	0.49
484.923	0.49
485.275	0.5
485.627	0.5
485.979	0.52
486.331	0.53
486.683	0.53
487.035	0.54
487.387	0.55
487.739	0.56
488.091	0.57
488.443	0.57
488.794	0.57
489.146	0.58
489.498	0.59
489.849	0.59
490.201	0.59
490.552	0.6
490.904	0.6
491.255	0.61
491.607	0.62
491.958	0.63
492.309	0.63
492.661	0.64
493.012	0.65
493.363	0.65
493.714	0.65
494.065	0.66
494.416	0.67
494.767	0.67
495.118	0.67
495.469	0.68
495.82	0.69
496.171	0.7
496.522	0.7
496.872	0.71
497.223	0.71
497.574	0.71
497.924	0.73
498.275	0.74
498.626	0.74
498.976	0.76
499.327	0.76
499.677	0.76
500.027	0.76
500.378	0.77
500.728	0.77
501.078	0.78
501.428	0.78
501.779	0.8
502.129	0.8
502.479	0.81
502.829	0.81
503.179	0.82
503.529	0.82
503.879	0.83
504.229	0.84
504.578	0.85
504.928	0.84
505.278	0.85
505.628	0.86
505.977	0.86
506.327	0.87
506.676	0.87
507.026	0.87
507.375	0.89
507.725	0.91
508.074	0.89
508.424	0.89
508.773	0.91
509.122	0.9
509.471	0.91
509.82	0.92
510.17	0.92
510.519	0.92
510.868	0.92
511.217	0.93
511.566	0.95
511.915	0.94
512.263	0.95
512.612	0.95
512.961	0.97
513.31	0.95
513.659	0.96
514.007	0.98
514.356	0.98
514.704	0.98
515.053	0.99
515.401	0.99
515.75	1
516.098	1
516.447	1
516.795	1
517.143	1
517.491	1.02
517.839	1.02
518.188	1.02
518.536	1.03
518.884	1.03
519.232	1.03
519.58	1.04
519.928	1.04
520.275	1.06
520.623	1.05
520.971	1.06
521.319	1.07
521.666	1.07
522.014	1.07
522.362	1.07
522.709	1.09
523.057	1.08
523.404	1.09
523.752	1.08
524.099	1.08
524.446	1.11
524.794	1.1
525.141	1.1
525.488	1.1
525.835	1.1
526.182	1.13
526.529	1.11
526.876	1.11
527.223	1.12
527.57	1.13
527.917	1.13
528.264	1.13
528.611	1.14
528.958	1.13
529.304	1.13
529.651	1.14
529.998	1.15
530.344	1.14
530.691	1.15
531.037	1.15
531.384	1.15
531.73	1.15
532.076	1.16
532.423	1.16
532.769	1.15
533.115	1.17
533.461	1.17
533.807	1.16
534.154	1.16
534.5	1.18
534.846	1.17
535.192	1.17
535.537	1.19
535.883	1.18
536.229	1.19
536.575	1.19
536.921	1.19
537.266	1.2
537.612	1.18
537.957	1.19
538.303	1.19
538.649	1.19
538.994	1.2
539.339	1.2
539.685	1.19
540.03	1.2
540.375	1.21
540.721	1.2
541.066	1.2
541.411	1.21
541.756	1.22
542.101	1.21
542.446	1.21
542.791	1.2
543.136	1.22
543.481	1.21
543.825	1.21
544.17	1.2
544.515	1.21
544.86	1.22
545.204	1.21
545.549	1.21
545.893	1.23
546.238	1.21
546.582	1.21
546.927	1.23
547.271	1.23
547.615	1.22
547.96	1.23
548.304	1.22
548.648	1.23
548.992	1.22
549.336	1.22
549.68	1.22
550.024	1.23
550.368	1.22
550.712	1.24
551.056	1.22
551.4	1.22
551.743	1.22
552.087	1.22
552.431	1.21
552.774	1.22
553.118	1.22
553.462	1.22
553.805	1.22
554.148	1.22
554.492	1.22
554.835	1.22
555.178	1.21
555.522	1.21
555.865	1.21
556.208	1.22
556.551	1.21
556.894	1.21
557.237	1.21
557.58	1.21
557.923	1.21
558.266	1.21
558.609	1.21
558.952	1.2
559.294	1.21
559.637	1.19
559.98	1.2
560.322	1.19
560.665	1.2
561.007	1.19
561.35	1.19
561.692	1.19
562.034	1.2
562.377	1.19
562.719	1.19
563.061	1.18
563.403	1.18
563.745	1.19
564.088	1.19
564.43	1.18
564.772	1.18
565.113	1.19
565.455	1.18
565.797	1.17
566.139	1.18
566.481	1.18
566.822	1.17
567.164	1.17
567.506	1.16
567.847	1.17
568.189	1.17
568.53	1.16
568.872	1.17
569.213	1.16
569.554	1.15
569.895	1.16
570.237	1.15
570.578	1.16
570.919	1.15
571.26	1.14
571.601	1.14
571.942	1.14
572.283	1.14
572.624	1.13
572.965	1.13
573.306	1.13
573.646	1.13
573.987	1.12
574.328	1.13
574.668	1.11
575.009	1.11
575.349	1.11
575.69	1.11
576.03	1.1
576.37	1.1
576.711	1.09
577.051	1.1
577.391	1.1
577.731	1.09
578.072	1.09
578.412	1.09
578.752	1.09
579.092	1.08
579.431	1.07
579.771	1.06
580.111	1.06
580.451	1.07
580.791	1.07
581.13	1.06
581.47	1.07
581.81	1.06
582.149	1.06
582.489	1.06
582.828	1.05
583.167	1.03
583.507	1
583.846	0.99
584.185	1.04
584.525	1.04
584.864	1.05
585.203	1.05
585.542	1.04
585.881	1.04
586.22	1.04
586.559	1.03
586.898	1.03
587.236	1.02
587.575	1.02
587.914	1.03
588.252	1.03
588.591	1.04
588.93	1.03
589.268	1.02
589.607	1.02
589.945	1.03
590.283	1.03
590.622	1.02
590.96	1.03
591.298	1.03
591.636	1.03
591.974	1.03
592.313	1.02
592.651	1.02
592.989	1.02
593.326	1.02
593.664	1.02
594.002	1.01
594.34	1.01
594.678	1.01
595.015	1.01
595.353	1
595.691	1.01
596.028	1.01
596.366	1.02
596.703	1.01
597.04	1.01
597.378	1.01
597.715	1
598.052	1.01
598.389	1.01
598.726	1
599.064	1.01
599.401	1
599.738	1
600.074	1
600.411	1
600.748	0.99
601.085	0.99
601.422	0.98
601.758	0.99
602.095	0.98
602.432	0.99
602.768	0.98
603.105	0.98
603.441	0.98
603.777	0.99
604.114	0.98
604.45	0.98
604.786	0.98
605.122	0.97
605.459	0.97
605.795	0.96
606.131	0.97
606.467	0.96
606.803	0.96
607.139	0.96
607.474	0.95
607.81	0.95
608.146	0.94
608.482	0.95
608.817	0.95
609.153	0.94
609.488	0.93
609.824	0.93
610.159	0.94
610.495	0.93
610.83	0.93
611.165	0.92
611.5	0.92
611.836	0.92
612.171	0.92
612.506	0.91
612.841	0.91
613.176	0.91
613.511	0.91
613.845	0.9
614.18	0.9
614.515	0.89
614.85	0.89
615.184	0.89
615.519	0.89
615.854	0.88
616.188	0.88
616.523	0.87
616.857	0.87
617.191	0.87
617.526	0.87
617.86	0.86
618.194	0.86
618.528	0.86
618.862	0.86
619.196	0.85
619.53	0.85
619.864	0.85
620.198	0.84
620.532	0.84
620.866	0.84
621.2	0.84
621.533	0.83
621.867	0.83
622.201	0.82
622.534	0.82
622.868	0.82
623.201	0.81
623.534	0.8
623.868	0.81
624.201	0.8
624.534	0.79
624.868	0.8
625.201	0.79
625.534	0.79
625.867	0.79
626.2	0.78
626.533	0.78
626.865	0.78
627.198	0.77
627.531	0.77
627.864	0.77
628.196	0.76
628.529	0.75
628.862	0.75
629.194	0.75
629.527	0.74
629.859	0.74
630.191	0.73
630.524	0.74
630.856	0.72
631.188	0.72
631.52	0.72
631.852	0.71
632.184	0.71
632.516	0.71
632.848	0.71
633.18	0.7
633.512	0.69
633.844	0.69
634.175	0.69
634.507	0.68
634.839	0.68
635.17	0.68
635.502	0.67
635.833	0.67
636.165	0.66
636.496	0.66
636.827	0.65
637.159	0.65
637.49	0.65
637.821	0.64
638.152	0.63
638.483	0.63
638.814	0.63
639.145	0.62
639.476	0.62
639.807	0.62
640.137	0.61
640.468	0.61
640.799	0.6
641.129	0.6
641.46	0.59
641.791	0.59
642.121	0.59
642.451	0.58
642.782	0.58
643.112	0.58
643.442	0.57
643.773	0.57
644.103	0.57
644.433	0.57
644.763	0.56
645.093	0.56
645.423	0.56
645.753	0.56
646.082	0.55
646.412	0.55
646.742	0.55
647.072	0.55
647.401	0.54
647.731	0.54
648.06	0.53
648.39	0.53
648.719	0.53
649.048	0.53
649.378	0.52
649.707	0.52
650.036	0.52
650.365	0.52
650.694	0.51
651.023	0.51
651.352	0.51
651.681	0.51
652.01	0.51
652.339	0.51
652.668	0.5
652.996	0.5
653.325	0.5
653.654	0.5
653.982	0.49
654.311	0.49
654.639	0.49
654.967	0.49
655.296	0.49
655.624	0.49
655.952	0.49
656.28	0.48
656.609	0.48
656.937	0.48
657.265	0.46
657.593	0.32
657.92	0.23
658.248	0.2
658.576	0.28
658.904	0.41
659.231	0.46
659.559	0.47
659.887	0.46
660.214	0.46
660.542	0.46
660.869	0.46
661.196	0.46
661.524	0.46
661.851	0.45
662.178	0.45
662.505	0.45
662.832	0.45
663.159	0.44
663.486	0.44
663.813	0.44
664.14	0.44
664.467	0.44
664.794	0.43
665.12	0.44
665.447	0.43
665.774	0.43
666.1	0.43
666.427	0.42
666.753	0.42
667.079	0.42
667.406	0.42
667.732	0.41
668.058	0.41
668.384	0.41
668.71	0.41
669.036	0.41
669.362	0.4
669.688	0.4
670.014	0.4
670.34	0.4
670.666	0.39
670.991	0.39
671.317	0.39
671.643	0.38
671.968	0.39
672.294	0.38
672.619	0.38
672.945	0.38
673.27	0.37
673.595	0.37
673.92	0.37
674.246	0.36
674.571	0.36
674.896	0.36
675.221	0.36
675.546	0.36
675.87	0.35
676.195	0.35
676.52	0.34
676.845	0.34
677.169	0.34
677.494	0.34
677.819	0.34
678.143	0.33
678.468	0.32
678.792	0.33
679.116	0.32
679.44	0.32
679.765	0.31
680.089	0.31
680.413	0.31
680.737	0.31
681.061	0.3
681.385	0.3
681.709	0.29
682.033	0.29
682.356	0.29
682.68	0.29
683.004	0.29
683.327	0.28
683.651	0.28
683.974	0.28
684.298	0.28
684.621	0.27
684.944	0.27
685.268	0.27
685.591	0.26
685.914	0.26
686.237	0.26
686.56	0.25
686.883	0.25
687.206	0.25
687.529	0.24
687.852	0.24
688.175	0.24
688.497	0.24
688.82	0.24
689.142	0.23
689.465	0.23
689.787	0.23
690.11	0.23
690.432	0.22
690.755	0.22
691.077	0.22
691.399	0.21
691.721	0.21
692.043	0.21
692.365	0.21
692.687	0.21
693.009	0.2
693.331	0.2
693.653	0.2
693.974	0.2
694.296	0.2
694.618	0.19
694.939	0.19
695.261	0.19
695.582	0.19
695.904	0.18
696.225	0.18
696.546	0.18
696.868	0.18
697.189	0.18
697.51	0.18
697.831	0.18
698.152	0.17
698.473	0.17
698.794	0.16
699.114	0.17
699.435	0.16
699.756	0.17
700.077	0.17
700.397	0.17
700.718	0.16
701.038	0.16
701.359	0.16
701.679	0.16
701.999	0.16
702.32	0.16
702.64	0.16
702.96	0.16
703.28	0.16
703.6	0.16
703.92	0.15
704.24	0.15
704.56	0.15
704.879	0.15
705.199	0.15
705.519	0.15
705.838	0.15
706.158	0.15
706.478	0.15
706.797	0.15
707.116	0.15
707.436	0.15
707.755	0.15
708.074	0.14
708.393	0.14
708.712	0.14
709.031	0.13
709.35	0.13
709.669	0.13
709.988	0.13
710.307	0.13
710.626	0.14
710.944	0.14
711.263	0.14
711.582	0.14
711.9	0.14
712.219	0.14
712.537	0.14
712.855	0.14
713.174	0.14
713.492	0.14
713.81	0.14
714.128	0.14
714.446	0.14
714.764	0.13
715.082	0.13
715.4	0.14
715.718	0.13
716.035	0.13
716.353	0.14
716.671	0.14
716.988	0.14
717.306	0.13
717.623	0.14
717.941	0.14
718.258	0.14
718.575	0.14
718.893	0.14
719.21	0.14
719.527	0.14
719.844	0.14
720.161	0.14
720.478	0.14
720.795	0.14
721.112	0.14
721.428	0.14
721.745	0.14
722.062	0.14
722.378	0.14
722.695	0.14
723.011	0.14
723.328	0.14
723.644	0.15
723.96	0.15
724.276	0.15
724.593	0.15
724.909	0.15
725.225	0.14
725.541	0.15
725.857	0.14
726.173	0.15
726.488	0.15
726.804	0.14
727.12	0.15
727.435	0.15
727.751	0.14
728.067	0.15
728.382	0.14
728.697	0.14
729.013	0.15
729.328	0.14
729.643	0.14
729.958	0.14
730.273	0.14
730.588	0.14
730.903	0.14
731.218	0.14
731.533	0.14
731.848	0.14
732.163	0.14
732.477	0.14
732.792	0.14
733.107	0.13
733.421	0.14
733.736	0.13
734.05	0.14
734.364	0.14
734.678	0.14
734.993	0.14
735.307	0.14
735.621	0.13
735.935	0.13
736.249	0.13
736.563	0.13
736.877	0.13
737.19	0.13
737.504	0.13
737.818	0.13
738.131	0.13
738.445	0.13
738.758	0.14
739.072	0.13
739.385	0.13
739.698	0.13
740.012	0.13
740.325	0.13
740.638	0.13
740.951	0.13
741.264	0.12
741.577	0.12
741.89	0.12
742.203	0.12
742.515	0.12
742.828	0.12
743.141	0.12
743.453	0.12
743.766	0.12
744.078	0.12
744.391	0.12
744.703	0.11
745.015	0.11
745.327	0.11
745.639	0.11
745.952	0.12
746.264	0.11
746.575	0.11
746.887	0.11
747.199	0.11
747.511	0.11
747.823	0.11
748.134	0.11
748.446	0.11
748.757	0.11
749.069	0.1
749.38	0.11
749.692	0.1
750.003	0.1
750.314	0.1
750.625	0.1
750.936	0.1
751.248	0.1
751.559	0.09
751.869	0.1
752.18	0.1
752.491	0.09
752.802	0.09
753.112	0.09
753.423	0.09
753.734	0.09
754.044	0.09
754.355	0.09
754.665	0.09
754.975	0.09
755.285	0.09
755.596	0.09
755.906	0.09
756.216	0.09
756.526	0.09
756.836	0.08
757.146	0.08
757.455	0.08
757.765	0.08
758.075	0.08
758.385	0.08
758.694	0.08
759.004	0.08
759.313	0.08
759.622	0.08
759.932	0.08
760.241	0.08
760.55	0.08
760.859	0.08
761.168	0.08
761.477	0.08
761.786	0.08
762.095	0.08
762.404	0.07
762.713	0.08
763.021	0.08
763.33	0.08
763.639	0.08
763.947	0.08
764.256	0.08
764.564	0.08
764.872	0.08
765.181	0.08
765.489	0.08
765.797	0.07
766.105	0.07
766.413	0.07
766.721	0.08
767.029	0.08
767.337	0.08
767.644	0.08
767.952	0.08
768.26	0.08
768.567	0.07
768.875	0.07
769.182	0.07
769.49	0.07
769.797	0.07
770.104	0.07
770.411	0.07
770.718	0.07
771.026	0.07
771.333	0.07
771.639	0.08
771.946	0.08
772.253	0.08
772.56	0.08
772.867	0.08
773.173	0.08
773.48	0.08
773.786	0.07
774.093	0.08
774.399	0.08
774.705	0.08
775.012	0.07
775.318	0.08
775.624	0.07
775.93	0.07
776.236	0.07
776.542	0.07
776.848	0.08
777.154	0.07
777.459	0.07
777.765	0.08
778.071	0.08
778.376	0.08
778.682	0.08
778.987	0.08
779.292	0.08
779.598	0.07
779.903	0.08
780.208	0.08
780.513	0.08
780.818	0.08
781.123	0.08
781.428	0.08
781.733	0.08
782.038	0.08
782.343	0.08
782.647	0.08
782.952	0.08
783.256	0.08
783.561	0.09
783.865	0.08
784.17	0.08
784.474	0.08
784.778	0.09
785.082	0.08
785.386	0.08
785.69	0.08
785.994	0.09
786.298	0.08
786.602	0.08
786.906	0.08
787.209	0.08
787.513	0.09
787.817	0.09
788.12	0.09
788.424	0.08
788.727	0.09
789.03	0.08
789.333	0.09
789.637	0.08
789.94	0.09
790.243	0.09
790.546	0.08
790.849	0.09
791.152	0.09
791.454	0.08
791.757	0.09
792.06	0.09
792.362	0.09
792.665	0.09
792.967	0.09
793.27	0.09
793.572	0.09
793.874	0.09
794.177	0.09
794.479	0.09
794.781	0.09
795.083	0.09
795.385	0.09
795.687	0.09
795.989	0.09
796.29	0.1
796.592	0.1
796.894	0.1
797.195	0.1
797.497	0.1
797.798	0.1
798.1	0.1
798.401	0.1
798.702	0.1
799.003	0.1
799.304	0.1
799.605	0.1
799.906	0.11
800.207	0.1
800.508	0.1
800.809	0.1
801.11	0.1
801.41	0.11
801.711	0.11
802.011	0.1
802.312	0.1
802.612	0.1
802.913	0.1
803.213	0.11
803.513	0.11
803.813	0.11
804.113	0.1
804.413	0.1
804.713	0.11
805.013	0.11
805.313	0.11
805.613	0.11
805.912	0.11
806.212	0.11
806.511	0.11
806.811	0.11
807.11	0.11
807.41	0.11
807.709	0.11
808.008	0.11
808.307	0.11
808.606	0.11
808.905	0.11
809.204	0.11
809.503	0.12
809.802	0.12
810.101	0.12
810.399	0.12
810.698	0.12
810.997	0.12
811.295	0.12
811.593	0.12
811.892	0.12
812.19	0.12
812.488	0.12
812.786	0.12
813.084	0.12
813.383	0.12
813.68	0.13
813.978	0.13
814.276	0.12
814.574	0.12
814.872	0.13
815.169	0.13
815.467	0.12
815.764	0.13
816.062	0.13
816.359	0.12
816.656	0.13
816.954	0.13
817.251	0.13
817.548	0.14
817.845	0.13
818.142	0.13
818.439	0.13
818.735	0.13
819.032	0.14
819.329	0.13
819.626	0.14
819.922	0.14
820.219	0.14
820.515	0.14
820.811	0.14
821.108	0.14
821.404	0.14
821.7	0.14
821.996	0.14
822.292	0.14
822.588	0.14
822.884	0.14
823.18	0.14
823.475	0.14
823.771	0.14
824.067	0.13
824.362	0.14
824.658	0.14
824.953	0.15
825.249	0.14
825.544	0.15
825.839	0.14
826.134	0.14
826.429	0.14
826.724	0.15
827.019	0.15
827.314	0.15
827.609	0.15
827.904	0.15
828.198	0.14
828.493	0.15
828.787	0.15
829.082	0.15
829.376	0.15
829.671	0.15
829.965	0.15
830.259	0.15
830.553	0.15
830.847	0.16
831.141	0.15
831.435	0.16
831.729	0.16
832.023	0.17
832.317	0.16
832.61	0.16
832.904	0.16
833.197	0.16
833.491	0.16
833.784	0.16
834.077	0.16
834.371	0.16
834.664	0.16
834.957	0.16
835.25	0.17
835.543	0.17
835.836	0.17
836.129	0.16
836.421	0.17
836.714	0.16
837.007	0.16
837.299	0.16
837.592	0.17
837.884	0.17
838.177	0.16
838.469	0.18
838.761	0.17
839.053	0.17
839.345	0.18
839.637	0.17
839.929	0.17
840.221	0.17
840.513	0.17
840.805	0.17
841.096	0.17
841.388	0.17
841.68	0.18
841.971	0.17
842.262	0.18
842.554	0.17
842.845	0.18
843.136	0.18
843.427	0.18
843.718	0.18
844.009	0.18
844.3	0.18
844.591	0.19
844.882	0.18
845.173	0.18
845.463	0.19
845.754	0.17
846.044	0.19
846.335	0.18
846.625	0.19
846.915	0.18
847.206	0.19
847.496	0.18
847.786	0.19
848.076	0.19
848.366	0.18
848.656	0.2
848.945	0.19
849.235	0.18
849.525	0.19
849.814	0.19
850.104	0.18
850.393	0.2
850.683	0.19
850.972	0.21
851.261	0.2
851.551	0.2
851.84	0.2
852.129	0.19
852.418	0.19
852.707	0.2
852.995	0.2
853.284	0.21
853.573	0.21
853.862	0.2
854.15	0.21
854.439	0.21
854.727	0.21
855.015	0.2
855.304	0.21
855.592	0.2
855.88	0.19
856.168	0.2
856.456	0.21
856.744	0.19
857.032	0.21
857.32	0.22
857.607	0.22
857.895	0.23
858.183	0.21
858.47	0.23
858.757	0.22
859.045	0.2
859.332	0.22
859.619	0.23
859.907	0.21
860.194	0.21
860.481	0.23
860.768	0.2
861.054	0.22
861.341	0.22
861.628	0.21
861.915	0.22
862.201	0.22
862.488	0.21
862.774	0.23
863.061	0.2
863.347	0.22
863.633	0.2
863.919	0.21
864.205	0.2
864.491	0.22
864.777	0.2
865.063	0.23
865.349	0.2
865.635	0.2
865.92	0.2
866.206	0.18
866.492	0.21
866.777	0.23
867.062	0.21
867.348	0.2
867.633	0.21
867.918	0.25
868.203	0.24
868.488	0.19
868.773	0.25
869.058	0.22
869.343	0.22
869.628	0.21
869.912	0.17
870.197	0.25
870.482	0.25
870.766	0.18
871.05	0.22
871.335	0.2
871.619	0.2
871.903	0.17
872.187	0.25
872.471	0.23
872.755	0.26
873.039	0.17
873.323	0.2
873.607	0.27
873.89	0.21
874.174	0.2
874.458	0.19
874.741	0.15
875.024	0.25
875.308	0.14
875.591	0.18
875.874	0.2
876.157	0.17
876.44	0.17
876.723	0.17
877.006	0.21
877.289	0.2
877.572	0.22
877.854	0.13
878.137	0.28
878.42	0.21
878.702	0.22
878.984	0.06
879.267	0.15
879.549	0.26
879.831	0.29
880.113	0.14
880.395	0.3
880.677	0.17
880.959	0.17
