Data from Rubpy_BV_1800_EDTA_Buffered_Absorbance_16-45-21-699.txt Node
Date: Wed Jul 01 16:45:21 BST 2026
User: fpm-admin
Spectrometer: OFX00224
Trigger mode: 0
Integration Time (sec): 7.000000E-2
Scans to average: 3
Nonlinearity correction enabled: false
Boxcar width: 0
Storing dark spectrum: false
XAxis mode: Wavelengths
Number of Pixels in Spectrum: 2136
>>>>>Begin Spectral Data<<<<<
154.91	-0
155.289	0.02
155.669	-0
156.048	0.35
156.428	-0
156.807	0.1
157.186	-0.7
157.566	-0
157.945	-0
158.325	-0.2
158.704	0.27
159.083	-0.05
159.462	-0
159.842	-0
160.221	-0
160.6	-0
160.979	-0
161.359	-0
161.738	-0
162.117	-0
162.496	-0.34
162.875	-0.06
163.254	0.12
163.633	-0
164.012	0.35
164.391	0.11
164.77	-0
165.149	-0.9
165.528	-0
165.907	0.21
166.286	0.12
166.665	-0
167.044	0.68
167.423	0.01
167.802	-0.19
168.181	-1.36
168.559	-0.45
168.938	0.44
169.317	-0
169.696	-0
170.074	-0
170.453	-0
170.832	-0.78
171.21	0.03
171.589	-0
171.968	-0
172.346	-0.11
172.725	0.18
173.103	-0
173.482	0.08
173.861	-0
174.239	-0.63
174.617	0.06
174.996	0.48
175.374	-0.48
175.753	-0.83
176.131	0.88
176.51	-0
176.888	-0
177.266	-0
177.645	-0.05
178.023	-0
178.401	-0.28
178.779	0.14
179.158	0.3
179.536	0.2
179.914	-0
180.292	-0.02
180.67	-0
181.048	0.22
181.427	-0.48
181.805	-0.15
182.183	-0
182.561	0.26
182.939	-0
183.317	-0.28
183.695	-0
184.073	-0
184.451	-0.15
184.829	-0.08
185.206	-0.41
185.584	-0
185.962	0.27
186.34	-0.07
186.718	0.05
187.096	-0
187.473	-0
187.851	-0.06
188.229	-0.06
188.607	0.07
188.984	0.14
189.362	0.18
189.74	0.48
190.117	0.13
190.495	0.17
190.872	0.19
191.25	0.15
191.627	0.37
192.005	0.21
192.382	0.38
192.76	0.36
193.137	0.29
193.515	0.28
193.892	0.12
194.269	0.28
194.647	0.18
195.024	0.13
195.401	0.3
195.779	0.23
196.156	0.27
196.533	0.34
196.91	0.15
197.288	0.31
197.665	0.23
198.042	0.14
198.419	0.22
198.796	0.17
199.173	0.2
199.55	0.33
199.927	0.15
200.304	0.2
200.681	0.18
201.058	0.12
201.435	0.25
201.812	0.1
202.189	0.24
202.566	0.24
202.943	0.18
203.32	0.33
203.697	0.31
204.073	0.12
204.45	0.23
204.827	0.17
205.204	0.16
205.58	0.3
205.957	0.28
206.334	0.2
206.71	0.28
207.087	0.19
207.464	0.14
207.84	0.36
208.217	0.25
208.593	0.09
208.97	0.26
209.346	0.33
209.723	0.39
210.099	0.2
210.476	0.24
210.852	0.37
211.228	0.31
211.605	0.2
211.981	0.33
212.357	0.3
212.733	0.17
213.11	0.18
213.486	0.26
213.862	0.13
214.238	0.29
214.614	0.25
214.991	0.49
215.367	0.36
215.743	0.25
216.119	0.21
216.495	0.21
216.871	0.26
217.247	0.2
217.623	0.19
217.999	0.26
218.375	0.35
218.751	0.19
219.127	0.32
219.502	0.11
219.878	0.17
220.254	0.31
220.63	0.33
221.006	0.27
221.381	0.29
221.757	0.21
222.133	0.18
222.508	0.43
222.884	0.18
223.26	0.21
223.635	0.22
224.011	0.25
224.386	0.17
224.762	0.29
225.137	0.34
225.513	0.16
225.888	0.26
226.264	0.16
226.639	0.18
227.014	0.32
227.39	0.13
227.765	0.26
228.14	0.33
228.516	0.4
228.891	0.25
229.266	0.34
229.641	0.29
230.017	0.23
230.392	0.29
230.767	0.28
231.142	0.29
231.517	0.24
231.892	0.31
232.267	0.29
232.642	0.2
233.017	0.22
233.392	0.3
233.767	0.24
234.142	0.14
234.517	0.2
234.892	0.26
235.267	0.3
235.641	0.25
236.016	0.22
236.391	0.21
236.766	0.16
237.14	0.37
237.515	0.42
237.89	0.25
238.264	0.33
238.639	0.31
239.014	0.42
239.388	0.29
239.763	0.2
240.137	0.31
240.512	0.23
240.886	0.23
241.261	0.26
241.635	0.24
242.009	0.35
242.384	0.27
242.758	0.4
243.132	0.21
243.507	0.23
243.881	0.21
244.255	0.24
244.629	0.27
245.004	0.2
245.378	0.25
245.752	0.15
246.126	0.23
246.5	0.3
246.874	0.31
247.248	0.29
247.622	0.37
247.996	0.25
248.37	0.36
248.744	0.23
249.118	0.25
249.492	0.28
249.866	0.33
250.24	0.43
250.613	0.33
250.987	0.37
251.361	0.43
251.735	0.24
252.108	0.26
252.482	0.27
252.856	0.12
253.229	0.13
253.603	0.21
253.977	0.28
254.35	0.27
254.724	0.28
255.097	0.25
255.471	0.17
255.844	0.14
256.218	0.29
256.591	0.15
256.964	0.26
257.338	0.16
257.711	0.21
258.084	0.27
258.458	0.3
258.831	0.27
259.204	0.3
259.577	0.11
259.95	0.24
260.323	0.27
260.697	0.17
261.07	0.22
261.443	0.26
261.816	0.2
262.189	0.12
262.562	0.28
262.935	0.29
263.308	0.18
263.68	0.31
264.053	0.52
264.426	0.22
264.799	0.29
265.172	0.33
265.545	0.24
265.917	0.27
266.29	0.24
266.663	0.25
267.035	0.24
267.408	0.26
267.781	0.22
268.153	0.23
268.526	0.21
268.898	0.35
269.271	0.3
269.643	0.19
270.016	0.29
270.388	0.23
270.76	0.22
271.133	0.27
271.505	0.19
271.877	0.22
272.25	0.24
272.622	0.31
272.994	0.28
273.366	0.33
273.739	0.24
274.111	0.19
274.483	0.19
274.855	0.18
275.227	0.38
275.599	0.26
275.971	0.31
276.343	0.29
276.715	0.22
277.087	0.32
277.459	0.52
277.831	0.21
278.203	0.26
278.574	0.25
278.946	0.24
279.318	0.25
279.69	0.3
280.061	0.32
280.433	0.16
280.805	0.22
281.176	0.26
281.548	0.26
281.92	0.32
282.291	0.28
282.663	0.34
283.034	0.25
283.406	0.2
283.777	0.32
284.148	0.26
284.52	0.29
284.891	0.3
285.262	0.27
285.634	0.3
286.005	0.21
286.376	0.27
286.747	0.3
287.119	0.22
287.49	0.27
287.861	0.25
288.232	0.25
288.603	0.29
288.974	0.25
289.345	0.31
289.716	0.27
290.087	0.25
290.458	0.22
290.829	0.3
291.2	0.22
291.571	0.29
291.941	0.25
292.312	0.28
292.683	0.23
293.054	0.31
293.424	0.27
293.795	0.23
294.166	0.25
294.536	0.3
294.907	0.2
295.277	0.29
295.648	0.33
296.018	0.31
296.389	0.2
296.759	0.24
297.13	0.29
297.5	0.32
297.871	0.2
298.241	0.33
298.611	0.27
298.981	0.27
299.352	0.34
299.722	0.21
300.092	0.34
300.462	0.26
300.832	0.24
301.202	0.28
301.573	0.26
301.943	0.28
302.313	0.27
302.683	0.28
303.053	0.27
303.422	0.26
303.792	0.22
304.162	0.24
304.532	0.23
304.902	0.25
305.272	0.25
305.641	0.31
306.011	0.19
306.381	0.24
306.75	0.3
307.12	0.2
307.49	0.21
307.859	0.22
308.229	0.25
308.598	0.21
308.968	0.23
309.337	0.23
309.707	0.23
310.076	0.16
310.445	0.22
310.815	0.19
311.184	0.25
311.553	0.19
311.923	0.18
312.292	0.2
312.661	0.19
313.03	0.2
313.399	0.21
313.768	0.18
314.137	0.17
314.506	0.19
314.875	0.21
315.244	0.17
315.613	0.22
315.982	0.21
316.351	0.21
316.72	0.2
317.089	0.19
317.458	0.21
317.826	0.2
318.195	0.19
318.564	0.2
318.933	0.22
319.301	0.22
319.67	0.2
320.038	0.22
320.407	0.22
320.775	0.22
321.144	0.23
321.512	0.23
321.881	0.23
322.249	0.24
322.618	0.25
322.986	0.23
323.354	0.24
323.723	0.25
324.091	0.25
324.459	0.26
324.827	0.25
325.195	0.26
325.564	0.27
325.932	0.28
326.3	0.27
326.668	0.28
327.036	0.27
327.404	0.28
327.772	0.27
328.14	0.28
328.508	0.28
328.875	0.28
329.243	0.31
329.611	0.3
329.979	0.31
330.346	0.31
330.714	0.32
331.082	0.32
331.449	0.33
331.817	0.32
332.185	0.34
332.552	0.34
332.92	0.35
333.287	0.35
333.655	0.36
334.022	0.37
334.389	0.37
334.757	0.38
335.124	0.39
335.491	0.39
335.859	0.4
336.226	0.41
336.593	0.42
336.96	0.43
337.327	0.43
337.695	0.43
338.062	0.45
338.429	0.46
338.796	0.46
339.163	0.47
339.53	0.48
339.897	0.49
340.263	0.5
340.63	0.51
340.997	0.52
341.364	0.53
341.731	0.53
342.097	0.54
342.464	0.56
342.831	0.57
343.197	0.57
343.564	0.58
343.931	0.59
344.297	0.59
344.664	0.6
345.03	0.61
345.396	0.62
345.763	0.63
346.129	0.64
346.496	0.64
346.862	0.66
347.228	0.67
347.594	0.67
347.961	0.7
348.327	0.69
348.693	0.7
349.059	0.71
349.425	0.72
349.791	0.73
350.157	0.74
350.523	0.74
350.889	0.75
351.255	0.76
351.621	0.77
351.987	0.78
352.353	0.78
352.719	0.8
353.084	0.81
353.45	0.83
353.816	0.82
354.181	0.83
354.547	0.84
354.913	0.86
355.278	0.86
355.644	0.86
356.009	0.88
356.375	0.9
356.74	0.9
357.106	0.92
357.471	0.92
357.836	0.95
358.202	0.95
358.567	0.98
358.932	0.99
359.297	0.99
359.663	1.01
360.028	1.01
360.393	1.03
360.758	1.04
361.123	1.06
361.488	1.09
361.853	1.09
362.218	1.11
362.583	1.12
362.948	1.13
363.312	1.13
363.677	1.16
364.042	1.16
364.407	1.18
364.772	1.17
365.136	1.19
365.501	1.2
365.865	1.23
366.23	1.23
366.595	1.22
366.959	1.26
367.324	1.25
367.688	1.29
368.052	1.3
368.417	1.3
368.781	1.3
369.145	1.32
369.51	1.32
369.874	1.32
370.238	1.33
370.602	1.34
370.967	1.34
371.331	1.34
371.695	1.37
372.059	1.36
372.423	1.35
372.787	1.37
373.151	1.34
373.515	1.35
373.878	1.34
374.242	1.36
374.606	1.33
374.97	1.32
375.334	1.33
375.697	1.31
376.061	1.29
376.425	1.29
376.788	1.28
377.152	1.27
377.515	1.25
377.879	1.25
378.242	1.21
378.606	1.2
378.969	1.2
379.333	1.2
379.696	1.17
380.059	1.16
380.422	1.15
380.786	1.13
381.149	1.12
381.512	1.1
381.875	1.09
382.238	1.08
382.601	1.06
382.964	1.06
383.327	1.05
383.69	1.04
384.053	1.02
384.416	1.02
384.779	1.01
385.142	1
385.504	0.99
385.867	0.99
386.23	0.99
386.593	0.99
386.955	0.99
387.318	0.98
387.68	0.98
388.043	0.97
388.405	0.96
388.768	0.96
389.13	0.97
389.493	0.97
389.855	0.96
390.217	0.95
390.58	0.94
390.942	0.93
391.304	0.92
391.666	0.92
392.028	0.9
392.391	0.89
392.753	0.88
393.115	0.87
393.477	0.86
393.839	0.84
394.201	0.85
394.563	0.84
394.924	0.84
395.286	0.83
395.648	0.83
396.01	0.84
396.371	0.85
396.733	0.86
397.095	0.87
397.456	0.89
397.818	0.91
398.18	0.94
398.541	0.96
398.903	0.98
399.264	1
399.625	1.02
399.987	1.05
400.348	1.07
400.709	1.07
401.071	1.09
401.432	1.08
401.793	1.09
402.154	1.07
402.515	1.06
402.876	1.05
403.238	1.02
403.599	0.99
403.96	0.97
404.32	0.93
404.681	0.9
405.042	0.86
405.403	0.83
405.764	0.78
406.125	0.76
406.485	0.71
406.846	0.67
407.207	0.64
407.567	0.6
407.928	0.58
408.288	0.54
408.649	0.5
409.009	0.47
409.37	0.46
409.73	0.43
410.091	0.4
410.451	0.38
410.811	0.37
411.171	0.35
411.532	0.33
411.892	0.31
412.252	0.31
412.612	0.29
412.972	0.28
413.332	0.26
413.692	0.25
414.052	0.24
414.412	0.24
414.772	0.23
415.132	0.22
415.492	0.21
415.851	0.2
416.211	0.2
416.571	0.19
416.931	0.18
417.29	0.17
417.65	0.17
418.009	0.17
418.369	0.16
418.728	0.17
419.088	0.16
419.447	0.15
419.807	0.15
420.166	0.14
420.525	0.14
420.884	0.15
421.244	0.14
421.603	0.13
421.962	0.13
422.321	0.13
422.68	0.14
423.039	0.12
423.398	0.13
423.757	0.13
424.116	0.12
424.475	0.12
424.834	0.12
425.193	0.12
425.551	0.12
425.91	0.12
426.269	0.12
426.628	0.11
426.986	0.11
427.345	0.11
427.703	0.11
428.062	0.11
428.42	0.12
428.779	0.11
429.137	0.12
429.496	0.11
429.854	0.1
430.212	0.11
430.57	0.11
430.929	0.1
431.287	0.11
431.645	0.1
432.003	0.11
432.361	0.1
432.719	0.11
433.077	0.1
433.435	0.1
433.793	0.11
434.151	0.1
434.509	0.11
434.866	0.1
435.224	0.09
435.582	0.1
435.94	0.11
436.297	0.1
436.655	0.1
437.012	0.1
437.37	0.1
437.727	0.09
438.085	0.1
438.442	0.1
438.8	0.1
439.157	0.09
439.514	0.1
439.872	0.09
440.229	0.1
440.586	0.1
440.943	0.11
441.3	0.11
441.657	0.11
442.014	0.1
442.371	0.1
442.728	0.1
443.085	0.1
443.442	0.09
443.799	0.1
444.156	0.09
444.513	0.1
444.869	0.09
445.226	0.1
445.583	0.1
445.939	0.1
446.296	0.1
446.652	0.09
447.009	0.1
447.365	0.1
447.722	0.1
448.078	0.09
448.434	0.1
448.791	0.1
449.147	0.09
449.503	0.09
449.859	0.09
450.215	0.09
450.571	0.09
450.928	0.09
451.284	0.1
451.64	0.1
451.995	0.09
452.351	0.09
452.707	0.09
453.063	0.08
453.419	0.09
453.775	0.09
454.13	0.08
454.486	0.09
454.842	0.09
455.197	0.09
455.553	0.08
455.908	0.07
456.264	0.07
456.619	0.07
456.975	0.07
457.33	0.07
457.685	0.07
458.04	0.06
458.396	0.07
458.751	0.06
459.106	0.05
459.461	0.06
459.816	0.05
460.171	0.05
460.526	0.05
460.881	0.04
461.236	0.04
461.591	0.04
461.946	0.03
462.301	0.04
462.655	0.02
463.01	0.03
463.365	0.02
463.719	0.02
464.074	0.01
464.428	-0
464.783	-0
465.137	0.01
465.492	0
465.846	0
466.201	-0
466.555	0.01
466.909	0.01
467.263	0.01
467.618	0.01
467.972	0.02
468.326	0.01
468.68	0.01
469.034	0
469.388	-0
469.742	0.01
470.096	0.02
470.45	0.01
470.804	0.02
471.157	0.01
471.511	0.02
471.865	0.02
472.218	0.03
472.572	0.03
472.926	0.03
473.279	0.04
473.633	0.04
473.986	0.06
474.34	0.06
474.693	0.07
475.046	0.08
475.4	0.08
475.753	0.09
476.106	0.1
476.459	0.1
476.812	0.11
477.165	0.12
477.519	0.12
477.872	0.13
478.224	0.14
478.577	0.14
478.93	0.15
479.283	0.16
479.636	0.16
479.989	0.17
480.341	0.17
480.694	0.18
481.047	0.18
481.399	0.19
481.752	0.19
482.104	0.19
482.457	0.21
482.809	0.21
483.162	0.21
483.514	0.22
483.866	0.22
484.219	0.23
484.571	0.23
484.923	0.22
485.275	0.24
485.627	0.23
485.979	0.25
486.331	0.25
486.683	0.25
487.035	0.26
487.387	0.26
487.739	0.27
488.091	0.27
488.443	0.27
488.794	0.28
489.146	0.27
489.498	0.28
489.849	0.29
490.201	0.29
490.552	0.29
490.904	0.28
491.255	0.3
491.607	0.3
491.958	0.3
492.309	0.31
492.661	0.31
493.012	0.31
493.363	0.31
493.714	0.32
494.065	0.32
494.416	0.33
494.767	0.32
495.118	0.33
495.469	0.33
495.82	0.34
496.171	0.34
496.522	0.34
496.872	0.35
497.223	0.35
497.574	0.35
497.924	0.35
498.275	0.36
498.626	0.36
498.976	0.37
499.327	0.37
499.677	0.37
500.027	0.37
500.378	0.38
500.728	0.38
501.078	0.38
501.428	0.39
501.779	0.39
502.129	0.39
502.479	0.4
502.829	0.4
503.179	0.41
503.529	0.4
503.879	0.41
504.229	0.41
504.578	0.41
504.928	0.42
505.278	0.41
505.628	0.42
505.977	0.43
506.327	0.42
506.676	0.43
507.026	0.43
507.375	0.44
507.725	0.44
508.074	0.44
508.424	0.44
508.773	0.45
509.122	0.44
509.471	0.45
509.82	0.45
510.17	0.46
510.519	0.45
510.868	0.46
511.217	0.46
511.566	0.46
511.915	0.47
512.263	0.47
512.612	0.48
512.961	0.48
513.31	0.47
513.659	0.47
514.007	0.48
514.356	0.49
514.704	0.48
515.053	0.49
515.401	0.49
515.75	0.49
516.098	0.5
516.447	0.5
516.795	0.5
517.143	0.5
517.491	0.5
517.839	0.51
518.188	0.51
518.536	0.51
518.884	0.52
519.232	0.52
519.58	0.52
519.928	0.52
520.275	0.53
520.623	0.53
520.971	0.53
521.319	0.53
521.666	0.53
522.014	0.54
522.362	0.53
522.709	0.54
523.057	0.54
523.404	0.54
523.752	0.55
524.099	0.54
524.446	0.54
524.794	0.54
525.141	0.55
525.488	0.55
525.835	0.55
526.182	0.55
526.529	0.56
526.876	0.55
527.223	0.56
527.57	0.57
527.917	0.56
528.264	0.56
528.611	0.57
528.958	0.57
529.304	0.57
529.651	0.57
529.998	0.57
530.344	0.57
530.691	0.58
531.037	0.58
531.384	0.59
531.73	0.58
532.076	0.58
532.423	0.59
532.769	0.58
533.115	0.59
533.461	0.58
533.807	0.59
534.154	0.59
534.5	0.59
534.846	0.59
535.192	0.59
535.537	0.59
535.883	0.6
536.229	0.6
536.575	0.6
536.921	0.6
537.266	0.6
537.612	0.6
537.957	0.6
538.303	0.61
538.649	0.61
538.994	0.61
539.339	0.61
539.685	0.61
540.03	0.61
540.375	0.61
540.721	0.61
541.066	0.61
541.411	0.61
541.756	0.61
542.101	0.62
542.446	0.61
542.791	0.62
543.136	0.62
543.481	0.62
543.825	0.62
544.17	0.62
544.515	0.62
544.86	0.62
545.204	0.62
545.549	0.62
545.893	0.62
546.238	0.63
546.582	0.63
546.927	0.63
547.271	0.63
547.615	0.63
547.96	0.63
548.304	0.63
548.648	0.63
548.992	0.63
549.336	0.63
549.68	0.63
550.024	0.64
550.368	0.64
550.712	0.63
551.056	0.63
551.4	0.63
551.743	0.63
552.087	0.63
552.431	0.63
552.774	0.63
553.118	0.63
553.462	0.63
553.805	0.63
554.148	0.63
554.492	0.63
554.835	0.63
555.178	0.63
555.522	0.63
555.865	0.64
556.208	0.63
556.551	0.63
556.894	0.64
557.237	0.63
557.58	0.63
557.923	0.63
558.266	0.63
558.609	0.63
558.952	0.63
559.294	0.63
559.637	0.63
559.98	0.63
560.322	0.63
560.665	0.63
561.007	0.63
561.35	0.63
561.692	0.62
562.034	0.63
562.377	0.63
562.719	0.63
563.061	0.63
563.403	0.62
563.745	0.62
564.088	0.62
564.43	0.62
564.772	0.62
565.113	0.62
565.455	0.62
565.797	0.62
566.139	0.62
566.481	0.62
566.822	0.62
567.164	0.62
567.506	0.62
567.847	0.62
568.189	0.62
568.53	0.62
568.872	0.62
569.213	0.61
569.554	0.61
569.895	0.61
570.237	0.61
570.578	0.61
570.919	0.61
571.26	0.6
571.601	0.6
571.942	0.6
572.283	0.6
572.624	0.6
572.965	0.6
573.306	0.6
573.646	0.59
573.987	0.59
574.328	0.6
574.668	0.59
575.009	0.59
575.349	0.59
575.69	0.58
576.03	0.59
576.37	0.58
576.711	0.58
577.051	0.58
577.391	0.58
577.731	0.58
578.072	0.58
578.412	0.58
578.752	0.58
579.092	0.57
579.431	0.57
579.771	0.55
580.111	0.55
580.451	0.57
580.791	0.57
581.13	0.57
581.47	0.57
581.81	0.57
582.149	0.57
582.489	0.57
582.828	0.55
583.167	0.54
583.507	0.5
583.846	0.5
584.185	0.54
584.525	0.55
584.864	0.56
585.203	0.56
585.542	0.57
585.881	0.56
586.22	0.56
586.559	0.55
586.898	0.55
587.236	0.54
587.575	0.55
587.914	0.55
588.252	0.56
588.591	0.55
588.93	0.55
589.268	0.55
589.607	0.56
589.945	0.56
590.283	0.56
590.622	0.55
590.96	0.56
591.298	0.56
591.636	0.56
591.974	0.56
592.313	0.56
592.651	0.56
592.989	0.56
593.326	0.56
593.664	0.55
594.002	0.55
594.34	0.55
594.678	0.55
595.015	0.55
595.353	0.54
595.691	0.55
596.028	0.56
596.366	0.56
596.703	0.55
597.04	0.56
597.378	0.56
597.715	0.56
598.052	0.56
598.389	0.56
598.726	0.56
599.064	0.56
599.401	0.55
599.738	0.56
600.074	0.55
600.411	0.55
600.748	0.55
601.085	0.54
601.422	0.54
601.758	0.54
602.095	0.54
602.432	0.55
602.768	0.55
603.105	0.55
603.441	0.55
603.777	0.55
604.114	0.55
604.45	0.55
604.786	0.54
605.122	0.54
605.459	0.54
605.795	0.54
606.131	0.54
606.467	0.54
606.803	0.54
607.139	0.54
607.474	0.53
607.81	0.53
608.146	0.53
608.482	0.53
608.817	0.53
609.153	0.53
609.488	0.53
609.824	0.53
610.159	0.53
610.495	0.53
610.83	0.53
611.165	0.53
611.5	0.52
611.836	0.52
612.171	0.52
612.506	0.52
612.841	0.52
613.176	0.51
613.511	0.51
613.845	0.51
614.18	0.51
614.515	0.51
614.85	0.5
615.184	0.51
615.519	0.5
615.854	0.5
616.188	0.5
616.523	0.49
616.857	0.49
617.191	0.49
617.526	0.49
617.86	0.49
618.194	0.49
618.528	0.49
618.862	0.48
619.196	0.48
619.53	0.48
619.864	0.48
620.198	0.48
620.532	0.48
620.866	0.48
621.2	0.47
621.533	0.47
621.867	0.47
622.201	0.47
622.534	0.47
622.868	0.47
623.201	0.46
623.534	0.46
623.868	0.46
624.201	0.46
624.534	0.46
624.868	0.46
625.201	0.45
625.534	0.45
625.867	0.45
626.2	0.45
626.533	0.45
626.865	0.44
627.198	0.44
627.531	0.44
627.864	0.44
628.196	0.44
628.529	0.43
628.862	0.43
629.194	0.43
629.527	0.42
629.859	0.42
630.191	0.42
630.524	0.42
630.856	0.42
631.188	0.41
631.52	0.41
631.852	0.41
632.184	0.41
632.516	0.41
632.848	0.4
633.18	0.4
633.512	0.4
633.844	0.39
634.175	0.4
634.507	0.39
634.839	0.39
635.17	0.38
635.502	0.38
635.833	0.38
636.165	0.38
636.496	0.38
636.827	0.37
637.159	0.37
637.49	0.37
637.821	0.37
638.152	0.36
638.483	0.36
638.814	0.36
639.145	0.35
639.476	0.35
639.807	0.35
640.137	0.35
640.468	0.35
640.799	0.34
641.129	0.34
641.46	0.34
641.791	0.34
642.121	0.34
642.451	0.33
642.782	0.33
643.112	0.33
643.442	0.33
643.773	0.33
644.103	0.33
644.433	0.33
644.763	0.32
645.093	0.32
645.423	0.32
645.753	0.32
646.082	0.32
646.412	0.31
646.742	0.31
647.072	0.31
647.401	0.31
647.731	0.31
648.06	0.31
648.39	0.31
648.719	0.3
649.048	0.3
649.378	0.3
649.707	0.3
650.036	0.29
650.365	0.29
650.694	0.29
651.023	0.3
651.352	0.29
651.681	0.29
652.01	0.29
652.339	0.29
652.668	0.29
652.996	0.29
653.325	0.29
653.654	0.29
653.982	0.29
654.311	0.29
654.639	0.28
654.967	0.28
655.296	0.28
655.624	0.28
655.952	0.28
656.28	0.28
656.609	0.28
656.937	0.28
657.265	0.27
657.593	0.13
657.92	0.04
658.248	0.02
658.576	0.09
658.904	0.21
659.231	0.27
659.559	0.27
659.887	0.27
660.214	0.27
660.542	0.27
660.869	0.27
661.196	0.27
661.524	0.27
661.851	0.27
662.178	0.26
662.505	0.26
662.832	0.26
663.159	0.26
663.486	0.26
663.813	0.26
664.14	0.26
664.467	0.25
664.794	0.25
665.12	0.25
665.447	0.25
665.774	0.25
666.1	0.25
666.427	0.25
666.753	0.25
667.079	0.25
667.406	0.24
667.732	0.24
668.058	0.24
668.384	0.24
668.71	0.24
669.036	0.24
669.362	0.24
669.688	0.24
670.014	0.24
670.34	0.23
670.666	0.23
670.991	0.23
671.317	0.23
671.643	0.22
671.968	0.23
672.294	0.22
672.619	0.22
672.945	0.22
673.27	0.22
673.595	0.22
673.92	0.21
674.246	0.21
674.571	0.21
674.896	0.21
675.221	0.21
675.546	0.21
675.87	0.21
676.195	0.2
676.52	0.2
676.845	0.2
677.169	0.2
677.494	0.2
677.819	0.2
678.143	0.19
678.468	0.19
678.792	0.19
679.116	0.19
679.44	0.19
679.765	0.18
680.089	0.18
680.413	0.18
680.737	0.18
681.061	0.17
681.385	0.18
681.709	0.17
682.033	0.17
682.356	0.17
682.68	0.17
683.004	0.17
683.327	0.16
683.651	0.16
683.974	0.16
684.298	0.16
684.621	0.16
684.944	0.16
685.268	0.16
685.591	0.15
685.914	0.15
686.237	0.15
686.56	0.15
686.883	0.14
687.206	0.14
687.529	0.14
687.852	0.14
688.175	0.14
688.497	0.14
688.82	0.14
689.142	0.13
689.465	0.13
689.787	0.13
690.11	0.13
690.432	0.13
690.755	0.13
691.077	0.12
691.399	0.12
691.721	0.12
692.043	0.12
692.365	0.12
692.687	0.12
693.009	0.11
693.331	0.12
693.653	0.11
693.974	0.11
694.296	0.11
694.618	0.11
694.939	0.11
695.261	0.11
695.582	0.11
695.904	0.11
696.225	0.1
696.546	0.1
696.868	0.1
697.189	0.1
697.51	0.1
697.831	0.1
698.152	0.1
698.473	0.1
698.794	0.09
699.114	0.09
699.435	0.09
699.756	0.09
700.077	0.1
700.397	0.1
700.718	0.09
701.038	0.09
701.359	0.09
701.679	0.09
701.999	0.09
702.32	0.09
702.64	0.09
702.96	0.09
703.28	0.09
703.6	0.09
703.92	0.09
704.24	0.09
704.56	0.08
704.879	0.08
705.199	0.09
705.519	0.09
705.838	0.09
706.158	0.09
706.478	0.08
706.797	0.08
707.116	0.08
707.436	0.08
707.755	0.08
708.074	0.08
708.393	0.08
708.712	0.08
709.031	0.07
709.35	0.07
709.669	0.07
709.988	0.07
710.307	0.07
710.626	0.08
710.944	0.08
711.263	0.08
711.582	0.08
711.9	0.08
712.219	0.08
712.537	0.08
712.855	0.08
713.174	0.08
713.492	0.08
713.81	0.08
714.128	0.08
714.446	0.08
714.764	0.08
715.082	0.07
715.4	0.08
715.718	0.08
716.035	0.08
716.353	0.08
716.671	0.08
716.988	0.08
717.306	0.08
717.623	0.08
717.941	0.08
718.258	0.08
718.575	0.08
718.893	0.08
719.21	0.08
719.527	0.08
719.844	0.08
720.161	0.08
720.478	0.08
720.795	0.08
721.112	0.08
721.428	0.08
721.745	0.08
722.062	0.08
722.378	0.08
722.695	0.09
723.011	0.08
723.328	0.08
723.644	0.08
723.96	0.08
724.276	0.09
724.593	0.09
724.909	0.09
725.225	0.09
725.541	0.09
725.857	0.08
726.173	0.09
726.488	0.09
726.804	0.09
727.12	0.09
727.435	0.09
727.751	0.09
728.067	0.09
728.382	0.09
728.697	0.09
729.013	0.09
729.328	0.08
729.643	0.08
729.958	0.08
730.273	0.08
730.588	0.08
730.903	0.08
731.218	0.08
731.533	0.08
731.848	0.08
732.163	0.08
732.477	0.08
732.792	0.08
733.107	0.07
733.421	0.08
733.736	0.08
734.05	0.08
734.364	0.08
734.678	0.08
734.993	0.08
735.307	0.08
735.621	0.08
735.935	0.08
736.249	0.08
736.563	0.08
736.877	0.08
737.19	0.08
737.504	0.08
737.818	0.08
738.131	0.08
738.445	0.08
738.758	0.08
739.072	0.08
739.385	0.08
739.698	0.08
740.012	0.08
740.325	0.08
740.638	0.07
740.951	0.07
741.264	0.07
741.577	0.08
741.89	0.07
742.203	0.07
742.515	0.07
742.828	0.07
743.141	0.07
743.453	0.07
743.766	0.07
744.078	0.07
744.391	0.07
744.703	0.07
745.015	0.07
745.327	0.07
745.639	0.07
745.952	0.07
746.264	0.07
746.575	0.07
746.887	0.07
747.199	0.06
747.511	0.06
747.823	0.06
748.134	0.06
748.446	0.06
748.757	0.06
749.069	0.06
749.38	0.06
749.692	0.06
750.003	0.06
750.314	0.06
750.625	0.06
750.936	0.06
751.248	0.05
751.559	0.05
751.869	0.06
752.18	0.06
752.491	0.05
752.802	0.05
753.112	0.05
753.423	0.05
753.734	0.05
754.044	0.05
754.355	0.05
754.665	0.05
754.975	0.05
755.285	0.05
755.596	0.05
755.906	0.05
756.216	0.05
756.526	0.05
756.836	0.05
757.146	0.05
757.455	0.05
757.765	0.05
758.075	0.04
758.385	0.04
758.694	0.04
759.004	0.04
759.313	0.04
759.622	0.04
759.932	0.04
760.241	0.04
760.55	0.04
760.859	0.04
761.168	0.04
761.477	0.04
761.786	0.04
762.095	0.04
762.404	0.04
762.713	0.04
763.021	0.04
763.33	0.04
763.639	0.04
763.947	0.04
764.256	0.04
764.564	0.04
764.872	0.04
765.181	0.04
765.489	0.04
765.797	0.04
766.105	0.04
766.413	0.04
766.721	0.04
767.029	0.04
767.337	0.04
767.644	0.04
767.952	0.04
768.26	0.04
768.567	0.04
768.875	0.04
769.182	0.04
769.49	0.04
769.797	0.04
770.104	0.04
770.411	0.04
770.718	0.04
771.026	0.04
771.333	0.04
771.639	0.04
771.946	0.04
772.253	0.04
772.56	0.04
772.867	0.04
773.173	0.04
773.48	0.04
773.786	0.04
774.093	0.04
774.399	0.04
774.705	0.04
775.012	0.04
775.318	0.04
775.624	0.04
775.93	0.04
776.236	0.04
776.542	0.04
776.848	0.04
777.154	0.04
777.459	0.04
777.765	0.04
778.071	0.04
778.376	0.04
778.682	0.04
778.987	0.04
779.292	0.04
779.598	0.04
779.903	0.04
780.208	0.04
780.513	0.04
780.818	0.04
781.123	0.04
781.428	0.04
781.733	0.04
782.038	0.04
782.343	0.04
782.647	0.04
782.952	0.04
783.256	0.04
783.561	0.04
783.865	0.04
784.17	0.04
784.474	0.04
784.778	0.04
785.082	0.04
785.386	0.04
785.69	0.04
785.994	0.04
786.298	0.04
786.602	0.04
786.906	0.04
787.209	0.04
787.513	0.04
787.817	0.04
788.12	0.04
788.424	0.04
788.727	0.04
789.03	0.04
789.333	0.04
789.637	0.04
789.94	0.04
790.243	0.04
790.546	0.04
790.849	0.04
791.152	0.04
791.454	0.04
791.757	0.04
792.06	0.04
792.362	0.04
792.665	0.04
792.967	0.04
793.27	0.04
793.572	0.04
793.874	0.04
794.177	0.04
794.479	0.04
794.781	0.04
795.083	0.04
795.385	0.04
795.687	0.05
795.989	0.04
796.29	0.04
796.592	0.05
796.894	0.05
797.195	0.05
797.497	0.05
797.798	0.05
798.1	0.05
798.401	0.05
798.702	0.05
799.003	0.05
799.304	0.05
799.605	0.05
799.906	0.05
800.207	0.05
800.508	0.04
800.809	0.04
801.11	0.05
801.41	0.05
801.711	0.05
802.011	0.05
802.312	0.05
802.612	0.05
802.913	0.04
803.213	0.05
803.513	0.05
803.813	0.05
804.113	0.05
804.413	0.05
804.713	0.05
805.013	0.05
805.313	0.05
805.613	0.05
805.912	0.05
806.212	0.06
806.511	0.05
806.811	0.05
807.11	0.05
807.41	0.05
807.709	0.05
808.008	0.05
808.307	0.05
808.606	0.05
808.905	0.05
809.204	0.05
809.503	0.05
809.802	0.05
810.101	0.06
810.399	0.06
810.698	0.06
810.997	0.06
811.295	0.05
811.593	0.05
811.892	0.06
812.19	0.06
812.488	0.06
812.786	0.06
813.084	0.06
813.383	0.06
813.68	0.06
813.978	0.06
814.276	0.06
814.574	0.06
814.872	0.06
815.169	0.06
815.467	0.06
815.764	0.06
816.062	0.06
816.359	0.06
816.656	0.06
816.954	0.06
817.251	0.06
817.548	0.06
817.845	0.06
818.142	0.06
818.439	0.06
818.735	0.06
819.032	0.06
819.329	0.06
819.626	0.06
819.922	0.06
820.219	0.07
820.515	0.06
820.811	0.06
821.108	0.07
821.404	0.06
821.7	0.06
821.996	0.06
822.292	0.06
822.588	0.06
822.884	0.06
823.18	0.07
823.475	0.06
823.771	0.07
824.067	0.06
824.362	0.07
824.658	0.06
824.953	0.07
825.249	0.07
825.544	0.06
825.839	0.06
826.134	0.07
826.429	0.06
826.724	0.07
827.019	0.06
827.314	0.06
827.609	0.07
827.904	0.07
828.198	0.07
828.493	0.07
828.787	0.07
829.082	0.07
829.376	0.06
829.671	0.07
829.965	0.07
830.259	0.07
830.553	0.07
830.847	0.08
831.141	0.07
831.435	0.08
831.729	0.08
832.023	0.08
832.317	0.08
832.61	0.07
832.904	0.08
833.197	0.07
833.491	0.07
833.784	0.07
834.077	0.07
834.371	0.08
834.664	0.07
834.957	0.07
835.25	0.08
835.543	0.07
835.836	0.08
836.129	0.07
836.421	0.08
836.714	0.07
837.007	0.08
837.299	0.08
837.592	0.08
837.884	0.08
838.177	0.08
838.469	0.09
838.761	0.08
839.053	0.07
839.345	0.08
839.637	0.08
839.929	0.08
840.221	0.08
840.513	0.08
840.805	0.08
841.096	0.08
841.388	0.08
841.68	0.08
841.971	0.08
842.262	0.08
842.554	0.08
842.845	0.09
843.136	0.09
843.427	0.09
843.718	0.08
844.009	0.09
844.3	0.08
844.591	0.08
844.882	0.07
845.173	0.08
845.463	0.09
845.754	0.08
846.044	0.08
846.335	0.08
846.625	0.08
846.915	0.07
847.206	0.08
847.496	0.08
847.786	0.08
848.076	0.09
848.366	0.08
848.656	0.09
848.945	0.09
849.235	0.08
849.525	0.09
849.814	0.08
850.104	0.08
850.393	0.09
850.683	0.09
850.972	0.1
851.261	0.08
851.551	0.09
851.84	0.1
852.129	0.08
852.418	0.09
852.707	0.1
852.995	0.09
853.284	0.09
853.573	0.09
853.862	0.09
854.15	0.09
854.439	0.09
854.727	0.09
855.015	0.09
855.304	0.08
855.592	0.08
855.88	0.09
856.168	0.1
856.456	0.09
856.744	0.1
857.032	0.09
857.32	0.09
857.607	0.1
857.895	0.11
858.183	0.1
858.47	0.1
858.757	0.09
859.045	0.1
859.332	0.1
859.619	0.1
859.907	0.09
860.194	0.11
860.481	0.11
860.768	0.08
861.054	0.1
861.341	0.1
861.628	0.09
861.915	0.1
862.201	0.1
862.488	0.09
862.774	0.08
863.061	0.1
863.347	0.13
863.633	0.09
863.919	0.08
864.205	0.1
864.491	0.1
864.777	0.1
865.063	0.09
865.349	0.12
865.635	0.12
865.92	0.08
866.206	0.11
866.492	0.11
866.777	0.1
867.062	0.11
867.348	0.07
867.633	0.11
867.918	0.1
868.203	0.11
868.488	0.11
868.773	0.1
869.058	0.08
869.343	0.12
869.628	0.06
869.912	0.06
870.197	0.13
870.482	0.12
870.766	0.1
871.05	0.12
871.335	0.1
871.619	0.05
871.903	0.11
872.187	0.1
872.471	0.09
872.755	0.12
873.039	0.11
873.323	0.08
873.607	0.09
873.89	0.06
874.174	0.07
874.458	0.06
874.741	0.1
875.024	0.09
875.308	0.1
875.591	0.08
875.874	0.08
876.157	0.05
876.44	0.08
876.723	0.03
877.006	0.14
877.289	0.12
877.572	0.23
877.854	0.12
878.137	0.1
878.42	0.02
878.702	0.1
878.984	-0.02
879.267	0.03
879.549	0.2
879.831	0.17
880.113	0.04
880.395	0.1
880.677	-0
880.959	0.02
