Data from Rubpy_BV_1800_EDTA_Buffered_Absorbance_16-42-48-689.txt Node
Date: Wed Jul 01 16:42:48 BST 2026
User: fpm-admin
Spectrometer: OFX00224
Trigger mode: 0
Integration Time (sec): 7.000000E-2
Scans to average: 3
Nonlinearity correction enabled: false
Boxcar width: 0
Storing dark spectrum: false
XAxis mode: Wavelengths
Number of Pixels in Spectrum: 2136
>>>>>Begin Spectral Data<<<<<
154.91	0.64
155.289	-0
155.669	-0
156.048	-0
156.428	-0
156.807	0.05
157.186	-0
157.566	-0
157.945	-0
158.325	-0.27
158.704	-0.26
159.083	-0.07
159.462	-0.54
159.842	-0
160.221	-0.08
160.6	-0.54
160.979	-0
161.359	-0
161.738	-0
162.117	-0
162.496	-0.1
162.875	-0
163.254	-0.01
163.633	-0
164.012	0.51
164.391	0.03
164.77	0.29
165.149	-1.18
165.528	-0
165.907	-0.09
166.286	-0
166.665	-0
167.044	0.24
167.423	0.19
167.802	-0
168.181	-0
168.559	-0.3
168.938	-0
169.317	0.75
169.696	-0
170.074	-0.15
170.453	-0.19
170.832	-0.9
171.21	-0.11
171.589	-0
171.968	-0.07
172.346	-0.79
172.725	-0.75
173.103	0.88
173.482	0.11
173.861	0.15
174.239	-0
174.617	-0
174.996	-0.09
175.374	0.3
175.753	-0
176.131	0.8
176.51	-0
176.888	-0
177.266	-0
177.645	-0.03
178.023	0.78
178.401	-0.24
178.779	0.06
179.158	1.38
179.536	-0.14
179.914	-0
180.292	-0
180.67	-0
181.048	-0
181.427	0.6
181.805	-0.2
182.183	-0.66
182.561	0.4
182.939	-0.05
183.317	-0
183.695	0.73
184.073	-0
184.451	-0
184.829	-0
185.206	-0.47
185.584	-0.23
185.962	-0.29
186.34	0.34
186.718	0.27
187.096	-0
187.473	-0
187.851	-0.02
188.229	1
188.607	0.06
188.984	0.06
189.362	0.06
189.74	0.18
190.117	0.15
190.495	0.2
190.872	0.16
191.25	0.28
191.627	0.12
192.005	0.15
192.382	0.17
192.76	0.08
193.137	0.13
193.515	0.2
193.892	0.14
194.269	0.25
194.647	0.09
195.024	0.08
195.401	0.15
195.779	0.15
196.156	0.16
196.533	0.19
196.91	0.11
197.288	0.06
197.665	0.07
198.042	0.12
198.419	0.13
198.796	0.08
199.173	0.17
199.55	0.12
199.927	0.05
200.304	0.13
200.681	0.11
201.058	0.08
201.435	0.16
201.812	0.13
202.189	0.04
202.566	0.12
202.943	0.08
203.32	0.27
203.697	0.12
204.073	0.04
204.45	0.17
204.827	0.09
205.204	0.1
205.58	0.17
205.957	0.25
206.334	0.16
206.71	0.12
207.087	0.15
207.464	0.19
207.84	0.24
208.217	0.25
208.593	0.12
208.97	0.22
209.346	0.19
209.723	0.09
210.099	0.3
210.476	0.11
210.852	0.24
211.228	0.19
211.605	0.14
211.981	0.08
212.357	0.19
212.733	0.16
213.11	0.07
213.486	0.24
213.862	0.11
214.238	0.18
214.614	0.18
214.991	0.19
215.367	0.12
215.743	0.13
216.119	0.11
216.495	0.3
216.871	0.05
217.247	0.1
217.623	0.11
217.999	0.28
218.375	0.15
218.751	0.15
219.127	0.15
219.502	0.09
219.878	0.12
220.254	0.2
220.63	0.14
221.006	0.26
221.381	0.18
221.757	0.17
222.133	0.2
222.508	0.26
222.884	0.18
223.26	0.1
223.635	0.17
224.011	0.1
224.386	0.21
224.762	0.41
225.137	0.32
225.513	0.07
225.888	0.1
226.264	0.1
226.639	0.18
227.014	0.17
227.39	0.15
227.765	0.26
228.14	0.13
228.516	0.2
228.891	0.26
229.266	0.1
229.641	0.18
230.017	0.2
230.392	0.16
230.767	0.22
231.142	0.2
231.517	0.11
231.892	0.26
232.267	0.2
232.642	0.12
233.017	0.11
233.392	0.22
233.767	0.2
234.142	0.08
234.517	0.08
234.892	0.16
235.267	0.15
235.641	0.26
236.016	0.17
236.391	0.07
236.766	0.21
237.14	0.23
237.515	0.21
237.89	0.17
238.264	0.12
238.639	0.17
239.014	0.18
239.388	0.12
239.763	0.24
240.137	0.06
240.512	0.16
240.886	0.24
241.261	0.16
241.635	0.18
242.009	0.23
242.384	0.18
242.758	0.1
243.132	0.16
243.507	0.11
243.881	0.25
244.255	0.17
244.629	0.12
245.004	0.27
245.378	0.25
245.752	0.21
246.126	0.18
246.5	0.17
246.874	0.13
247.248	0.22
247.622	0.2
247.996	0.19
248.37	0.19
248.744	0.14
249.118	-0.08
249.492	0.07
249.866	0.22
250.24	0.17
250.613	0.16
250.987	0.14
251.361	0.2
251.735	0.26
252.108	0.22
252.482	0.13
252.856	0.1
253.229	0.2
253.603	0.15
253.977	0.23
254.35	0.2
254.724	0.18
255.097	0.14
255.471	0.12
255.844	0.12
256.218	0.16
256.591	0.1
256.964	0.24
257.338	0.17
257.711	0.23
258.084	0.17
258.458	0.24
258.831	0.24
259.204	0.19
259.577	0.2
259.95	0.15
260.323	0.16
260.697	0.1
261.07	0.2
261.443	0.19
261.816	0.15
262.189	0.12
262.562	0.15
262.935	0.13
263.308	0.05
263.68	0.13
264.053	0.2
264.426	0.2
264.799	0.17
265.172	0.22
265.545	0.12
265.917	0.13
266.29	0.1
266.663	0.19
267.035	0.13
267.408	0.17
267.781	0.22
268.153	0.15
268.526	0.27
268.898	0.18
269.271	0.24
269.643	0.13
270.016	0.15
270.388	0.09
270.76	0.1
271.133	0.19
271.505	0.21
271.877	0.04
272.25	0.11
272.622	0.22
272.994	0.2
273.366	0.16
273.739	0.11
274.111	0.19
274.483	0.15
274.855	0.17
275.227	0.2
275.599	0.27
275.971	0.25
276.343	0.19
276.715	0.18
277.087	0.26
277.459	0.14
277.831	0.13
278.203	0.2
278.574	0.15
278.946	0.07
279.318	0.15
279.69	0.17
280.061	0.18
280.433	0.13
280.805	0.21
281.176	0.16
281.548	0.19
281.92	0.2
282.291	0.19
282.663	0.12
283.034	0.17
283.406	0.25
283.777	0.2
284.148	0.21
284.52	0.19
284.891	0.18
285.262	0.12
285.634	0.18
286.005	0.18
286.376	0.22
286.747	0.2
287.119	0.14
287.49	0.22
287.861	0.17
288.232	0.22
288.603	0.21
288.974	0.1
289.345	0.12
289.716	0.14
290.087	0.14
290.458	0.14
290.829	0.23
291.2	0.17
291.571	0.19
291.941	0.23
292.312	0.16
292.683	0.16
293.054	0.22
293.424	0.08
293.795	0.21
294.166	0.12
294.536	0.18
294.907	0.15
295.277	0.2
295.648	0.24
296.018	0.17
296.389	0.05
296.759	0.18
297.13	0.18
297.5	0.12
297.871	0.14
298.241	0.28
298.611	0.12
298.981	0.19
299.352	0.19
299.722	0.18
300.092	0.22
300.462	0.27
300.832	0.16
301.202	0.2
301.573	0.18
301.943	0.18
302.313	0.13
302.683	0.21
303.053	0.21
303.422	0.16
303.792	0.19
304.162	0.16
304.532	0.13
304.902	0.13
305.272	0.15
305.641	0.22
306.011	0.17
306.381	0.18
306.75	0.21
307.12	0.16
307.49	0.16
307.859	0.14
308.229	0.16
308.598	0.16
308.968	0.17
309.337	0.14
309.707	0.14
310.076	0.11
310.445	0.13
310.815	0.16
311.184	0.16
311.553	0.13
311.923	0.11
312.292	0.12
312.661	0.12
313.03	0.15
313.399	0.13
313.768	0.12
314.137	0.11
314.506	0.12
314.875	0.14
315.244	0.11
315.613	0.13
315.982	0.15
316.351	0.16
316.72	0.13
317.089	0.13
317.458	0.15
317.826	0.15
318.195	0.13
318.564	0.13
318.933	0.16
319.301	0.14
319.67	0.14
320.038	0.14
320.407	0.15
320.775	0.15
321.144	0.15
321.512	0.16
321.881	0.16
322.249	0.16
322.618	0.16
322.986	0.16
323.354	0.16
323.723	0.16
324.091	0.16
324.459	0.17
324.827	0.17
325.195	0.17
325.564	0.18
325.932	0.17
326.3	0.18
326.668	0.19
327.036	0.18
327.404	0.18
327.772	0.18
328.14	0.19
328.508	0.18
328.875	0.18
329.243	0.2
329.611	0.19
329.979	0.2
330.346	0.2
330.714	0.21
331.082	0.22
331.449	0.21
331.817	0.21
332.185	0.22
332.552	0.22
332.92	0.23
333.287	0.23
333.655	0.23
334.022	0.24
334.389	0.24
334.757	0.25
335.124	0.25
335.491	0.25
335.859	0.26
336.226	0.26
336.593	0.26
336.96	0.27
337.327	0.27
337.695	0.28
338.062	0.29
338.429	0.29
338.796	0.3
339.163	0.3
339.53	0.31
339.897	0.32
340.263	0.32
340.63	0.33
340.997	0.33
341.364	0.34
341.731	0.34
342.097	0.34
342.464	0.35
342.831	0.36
343.197	0.37
343.564	0.37
343.931	0.38
344.297	0.38
344.664	0.38
345.03	0.4
345.396	0.39
345.763	0.41
346.129	0.41
346.496	0.42
346.862	0.42
347.228	0.43
347.594	0.44
347.961	0.44
348.327	0.44
348.693	0.45
349.059	0.46
349.425	0.46
349.791	0.47
350.157	0.47
350.523	0.48
350.889	0.48
351.255	0.5
351.621	0.49
351.987	0.5
352.353	0.51
352.719	0.52
353.084	0.53
353.45	0.53
353.816	0.53
354.181	0.54
354.547	0.55
354.913	0.55
355.278	0.56
355.644	0.57
356.009	0.58
356.375	0.59
356.74	0.59
357.106	0.6
357.471	0.6
357.836	0.61
358.202	0.63
358.567	0.62
358.932	0.64
359.297	0.65
359.663	0.66
360.028	0.67
360.393	0.67
360.758	0.68
361.123	0.69
361.488	0.71
361.853	0.72
362.218	0.72
362.583	0.74
362.948	0.74
363.312	0.75
363.677	0.75
364.042	0.76
364.407	0.78
364.772	0.78
365.136	0.79
365.501	0.79
365.865	0.81
366.23	0.81
366.595	0.82
366.959	0.83
367.324	0.84
367.688	0.84
368.052	0.85
368.417	0.86
368.781	0.87
369.145	0.87
369.51	0.88
369.874	0.89
370.238	0.89
370.602	0.89
370.967	0.91
371.331	0.9
371.695	0.91
372.059	0.91
372.423	0.91
372.787	0.92
373.151	0.91
373.515	0.91
373.878	0.91
374.242	0.9
374.606	0.9
374.97	0.89
375.334	0.9
375.697	0.87
376.061	0.87
376.425	0.87
376.788	0.85
377.152	0.85
377.515	0.84
377.879	0.83
378.242	0.81
378.606	0.81
378.969	0.8
379.333	0.79
379.696	0.79
380.059	0.79
380.422	0.77
380.786	0.76
381.149	0.76
381.512	0.75
381.875	0.75
382.238	0.74
382.601	0.73
382.964	0.72
383.327	0.71
383.69	0.71
384.053	0.7
384.416	0.7
384.779	0.7
385.142	0.69
385.504	0.69
385.867	0.7
386.23	0.69
386.593	0.69
386.955	0.7
387.318	0.69
387.68	0.69
388.043	0.69
388.405	0.69
388.768	0.7
389.13	0.7
389.493	0.7
389.855	0.68
390.217	0.68
390.58	0.68
390.942	0.67
391.304	0.67
391.666	0.66
392.028	0.65
392.391	0.65
392.753	0.64
393.115	0.62
393.477	0.63
393.839	0.63
394.201	0.62
394.563	0.61
394.924	0.62
395.286	0.62
395.648	0.62
396.01	0.62
396.371	0.63
396.733	0.65
397.095	0.65
397.456	0.67
397.818	0.68
398.18	0.7
398.541	0.72
398.903	0.74
399.264	0.75
399.625	0.77
399.987	0.79
400.348	0.8
400.709	0.82
401.071	0.82
401.432	0.83
401.793	0.83
402.154	0.81
402.515	0.8
402.876	0.8
403.238	0.77
403.599	0.76
403.96	0.73
404.32	0.7
404.681	0.68
405.042	0.65
405.403	0.62
405.764	0.6
406.125	0.58
406.485	0.54
406.846	0.51
407.207	0.47
407.567	0.45
407.928	0.43
408.288	0.4
408.649	0.38
409.009	0.36
409.37	0.33
409.73	0.32
410.091	0.3
410.451	0.29
410.811	0.27
411.171	0.25
411.532	0.24
411.892	0.23
412.252	0.22
412.612	0.21
412.972	0.19
413.332	0.19
413.692	0.19
414.052	0.18
414.412	0.16
414.772	0.16
415.132	0.16
415.492	0.15
415.851	0.15
416.211	0.15
416.571	0.14
416.931	0.14
417.29	0.13
417.65	0.13
418.009	0.12
418.369	0.12
418.728	0.12
419.088	0.12
419.447	0.12
419.807	0.12
420.166	0.11
420.525	0.1
420.884	0.1
421.244	0.1
421.603	0.1
421.962	0.09
422.321	0.09
422.68	0.09
423.039	0.09
423.398	0.09
423.757	0.08
424.116	0.09
424.475	0.08
424.834	0.08
425.193	0.08
425.551	0.09
425.91	0.08
426.269	0.08
426.628	0.07
426.986	0.08
427.345	0.07
427.703	0.08
428.062	0.08
428.42	0.08
428.779	0.08
429.137	0.08
429.496	0.07
429.854	0.07
430.212	0.08
430.57	0.07
430.929	0.07
431.287	0.08
431.645	0.06
432.003	0.07
432.361	0.07
432.719	0.07
433.077	0.07
433.435	0.07
433.793	0.08
434.151	0.07
434.509	0.07
434.866	0.06
435.224	0.07
435.582	0.07
435.94	0.07
436.297	0.07
436.655	0.07
437.012	0.07
437.37	0.06
437.727	0.07
438.085	0.07
438.442	0.06
438.8	0.07
439.157	0.06
439.514	0.06
439.872	0.06
440.229	0.06
440.586	0.06
440.943	0.07
441.3	0.06
441.657	0.07
442.014	0.07
442.371	0.06
442.728	0.06
443.085	0.07
443.442	0.06
443.799	0.07
444.156	0.06
444.513	0.07
444.869	0.05
445.226	0.06
445.583	0.07
445.939	0.07
446.296	0.05
446.652	0.06
447.009	0.06
447.365	0.06
447.722	0.06
448.078	0.05
448.434	0.06
448.791	0.06
449.147	0.06
449.503	0.06
449.859	0.05
450.215	0.05
450.571	0.06
450.928	0.06
451.284	0.06
451.64	0.06
451.995	0.06
452.351	0.05
452.707	0.05
453.063	0.05
453.419	0.04
453.775	0.04
454.13	0.04
454.486	0.05
454.842	0.04
455.197	0.04
455.553	0.03
455.908	0.03
456.264	0.04
456.619	0.03
456.975	0.03
457.33	0.03
457.685	0.03
458.04	0.02
458.396	0.02
458.751	0.01
459.106	0.01
459.461	0.01
459.816	0.01
460.171	0.01
460.526	0.01
460.881	-0
461.236	-0
461.591	-0.01
461.946	-0.01
462.301	-0
462.655	-0.01
463.01	-0.01
463.365	-0.02
463.719	-0.02
464.074	-0.03
464.428	-0.04
464.783	-0.05
465.137	-0.04
465.492	-0.04
465.846	-0.04
466.201	-0.04
466.555	-0.04
466.909	-0.04
467.263	-0.03
467.618	-0.03
467.972	-0.03
468.326	-0.03
468.68	-0.04
469.034	-0.04
469.388	-0.05
469.742	-0.04
470.096	-0.03
470.45	-0.04
470.804	-0.03
471.157	-0.04
471.511	-0.04
471.865	-0.04
472.218	-0.03
472.572	-0.02
472.926	-0.02
473.279	-0.01
473.633	-0.01
473.986	-0
474.34	-0.01
474.693	0.01
475.046	0.02
475.4	0.02
475.753	0.03
476.106	0.03
476.459	0.04
476.812	0.05
477.165	0.05
477.519	0.06
477.872	0.06
478.224	0.06
478.577	0.07
478.93	0.08
479.283	0.09
479.636	0.08
479.989	0.09
480.341	0.09
480.694	0.1
481.047	0.11
481.399	0.11
481.752	0.11
482.104	0.11
482.457	0.12
482.809	0.12
483.162	0.12
483.514	0.13
483.866	0.13
484.219	0.13
484.571	0.14
484.923	0.14
485.275	0.14
485.627	0.14
485.979	0.15
486.331	0.15
486.683	0.16
487.035	0.16
487.387	0.16
487.739	0.17
488.091	0.17
488.443	0.17
488.794	0.17
489.146	0.17
489.498	0.17
489.849	0.18
490.201	0.18
490.552	0.18
490.904	0.18
491.255	0.18
491.607	0.18
491.958	0.19
492.309	0.19
492.661	0.19
493.012	0.2
493.363	0.2
493.714	0.2
494.065	0.2
494.416	0.2
494.767	0.2
495.118	0.2
495.469	0.21
495.82	0.21
496.171	0.21
496.522	0.21
496.872	0.22
497.223	0.22
497.574	0.22
497.924	0.22
498.275	0.23
498.626	0.23
498.976	0.23
499.327	0.23
499.677	0.23
500.027	0.24
500.378	0.24
500.728	0.24
501.078	0.24
501.428	0.25
501.779	0.25
502.129	0.25
502.479	0.25
502.829	0.25
503.179	0.26
503.529	0.26
503.879	0.26
504.229	0.26
504.578	0.26
504.928	0.26
505.278	0.27
505.628	0.27
505.977	0.27
506.327	0.27
506.676	0.28
507.026	0.28
507.375	0.28
507.725	0.28
508.074	0.28
508.424	0.28
508.773	0.28
509.122	0.29
509.471	0.29
509.82	0.29
510.17	0.3
510.519	0.29
510.868	0.29
511.217	0.3
511.566	0.3
511.915	0.3
512.263	0.31
512.612	0.3
512.961	0.31
513.31	0.3
513.659	0.31
514.007	0.31
514.356	0.31
514.704	0.31
515.053	0.32
515.401	0.31
515.75	0.32
516.098	0.32
516.447	0.32
516.795	0.32
517.143	0.32
517.491	0.32
517.839	0.32
518.188	0.33
518.536	0.33
518.884	0.33
519.232	0.33
519.58	0.33
519.928	0.33
520.275	0.34
520.623	0.34
520.971	0.34
521.319	0.34
521.666	0.34
522.014	0.35
522.362	0.34
522.709	0.35
523.057	0.35
523.404	0.35
523.752	0.35
524.099	0.35
524.446	0.35
524.794	0.35
525.141	0.35
525.488	0.36
525.835	0.36
526.182	0.36
526.529	0.36
526.876	0.36
527.223	0.36
527.57	0.36
527.917	0.37
528.264	0.37
528.611	0.36
528.958	0.37
529.304	0.37
529.651	0.37
529.998	0.37
530.344	0.38
530.691	0.38
531.037	0.37
531.384	0.38
531.73	0.38
532.076	0.39
532.423	0.38
532.769	0.38
533.115	0.38
533.461	0.38
533.807	0.38
534.154	0.39
534.5	0.38
534.846	0.39
535.192	0.38
535.537	0.39
535.883	0.39
536.229	0.39
536.575	0.39
536.921	0.4
537.266	0.39
537.612	0.39
537.957	0.4
538.303	0.4
538.649	0.4
538.994	0.4
539.339	0.39
539.685	0.4
540.03	0.4
540.375	0.4
540.721	0.4
541.066	0.4
541.411	0.4
541.756	0.4
542.101	0.4
542.446	0.41
542.791	0.4
543.136	0.41
543.481	0.4
543.825	0.41
544.17	0.41
544.515	0.41
544.86	0.41
545.204	0.41
545.549	0.41
545.893	0.41
546.238	0.41
546.582	0.42
546.927	0.41
547.271	0.42
547.615	0.42
547.96	0.42
548.304	0.41
548.648	0.42
548.992	0.42
549.336	0.42
549.68	0.42
550.024	0.42
550.368	0.42
550.712	0.42
551.056	0.42
551.4	0.42
551.743	0.42
552.087	0.42
552.431	0.42
552.774	0.42
553.118	0.42
553.462	0.42
553.805	0.42
554.148	0.42
554.492	0.42
554.835	0.42
555.178	0.42
555.522	0.42
555.865	0.42
556.208	0.42
556.551	0.42
556.894	0.42
557.237	0.42
557.58	0.42
557.923	0.42
558.266	0.42
558.609	0.42
558.952	0.42
559.294	0.42
559.637	0.42
559.98	0.42
560.322	0.42
560.665	0.42
561.007	0.42
561.35	0.42
561.692	0.42
562.034	0.42
562.377	0.42
562.719	0.42
563.061	0.42
563.403	0.42
563.745	0.42
564.088	0.42
564.43	0.42
564.772	0.42
565.113	0.42
565.455	0.42
565.797	0.42
566.139	0.42
566.481	0.42
566.822	0.42
567.164	0.42
567.506	0.42
567.847	0.42
568.189	0.41
568.53	0.42
568.872	0.42
569.213	0.41
569.554	0.41
569.895	0.41
570.237	0.41
570.578	0.41
570.919	0.41
571.26	0.41
571.601	0.41
571.942	0.41
572.283	0.4
572.624	0.41
572.965	0.4
573.306	0.4
573.646	0.4
573.987	0.4
574.328	0.4
574.668	0.4
575.009	0.4
575.349	0.4
575.69	0.39
576.03	0.39
576.37	0.39
576.711	0.39
577.051	0.39
577.391	0.39
577.731	0.4
578.072	0.39
578.412	0.39
578.752	0.39
579.092	0.39
579.431	0.38
579.771	0.37
580.111	0.36
580.451	0.38
580.791	0.38
581.13	0.38
581.47	0.38
581.81	0.38
582.149	0.38
582.489	0.39
582.828	0.37
583.167	0.36
583.507	0.32
583.846	0.32
584.185	0.36
584.525	0.37
584.864	0.38
585.203	0.38
585.542	0.39
585.881	0.38
586.22	0.38
586.559	0.38
586.898	0.37
587.236	0.36
587.575	0.37
587.914	0.37
588.252	0.38
588.591	0.38
588.93	0.38
589.268	0.38
589.607	0.38
589.945	0.38
590.283	0.38
590.622	0.38
590.96	0.38
591.298	0.38
591.636	0.38
591.974	0.38
592.313	0.38
592.651	0.39
592.989	0.38
593.326	0.38
593.664	0.39
594.002	0.38
594.34	0.38
594.678	0.38
595.015	0.38
595.353	0.37
595.691	0.38
596.028	0.39
596.366	0.39
596.703	0.38
597.04	0.38
597.378	0.38
597.715	0.39
598.052	0.39
598.389	0.39
598.726	0.39
599.064	0.38
599.401	0.39
599.738	0.38
600.074	0.38
600.411	0.38
600.748	0.38
601.085	0.38
601.422	0.38
601.758	0.38
602.095	0.38
602.432	0.38
602.768	0.38
603.105	0.38
603.441	0.39
603.777	0.38
604.114	0.38
604.45	0.38
604.786	0.38
605.122	0.38
605.459	0.38
605.795	0.38
606.131	0.38
606.467	0.38
606.803	0.38
607.139	0.38
607.474	0.37
607.81	0.37
608.146	0.37
608.482	0.37
608.817	0.37
609.153	0.37
609.488	0.37
609.824	0.37
610.159	0.37
610.495	0.37
610.83	0.37
611.165	0.37
611.5	0.37
611.836	0.36
612.171	0.36
612.506	0.36
612.841	0.36
613.176	0.36
613.511	0.36
613.845	0.36
614.18	0.36
614.515	0.36
614.85	0.36
615.184	0.36
615.519	0.35
615.854	0.35
616.188	0.35
616.523	0.35
616.857	0.35
617.191	0.35
617.526	0.35
617.86	0.35
618.194	0.34
618.528	0.35
618.862	0.35
619.196	0.34
619.53	0.34
619.864	0.34
620.198	0.34
620.532	0.34
620.866	0.34
621.2	0.34
621.533	0.33
621.867	0.33
622.201	0.33
622.534	0.33
622.868	0.33
623.201	0.33
623.534	0.33
623.868	0.32
624.201	0.33
624.534	0.32
624.868	0.32
625.201	0.32
625.534	0.32
625.867	0.32
626.2	0.32
626.533	0.32
626.865	0.31
627.198	0.31
627.531	0.31
627.864	0.31
628.196	0.31
628.529	0.31
628.862	0.3
629.194	0.3
629.527	0.3
629.859	0.3
630.191	0.3
630.524	0.3
630.856	0.29
631.188	0.29
631.52	0.29
631.852	0.29
632.184	0.29
632.516	0.29
632.848	0.28
633.18	0.28
633.512	0.28
633.844	0.28
634.175	0.28
634.507	0.28
634.839	0.27
635.17	0.27
635.502	0.27
635.833	0.27
636.165	0.27
636.496	0.27
636.827	0.26
637.159	0.26
637.49	0.26
637.821	0.26
638.152	0.26
638.483	0.26
638.814	0.26
639.145	0.25
639.476	0.25
639.807	0.25
640.137	0.25
640.468	0.24
640.799	0.24
641.129	0.24
641.46	0.24
641.791	0.24
642.121	0.24
642.451	0.23
642.782	0.23
643.112	0.23
643.442	0.23
643.773	0.23
644.103	0.23
644.433	0.23
644.763	0.22
645.093	0.23
645.423	0.23
645.753	0.22
646.082	0.22
646.412	0.22
646.742	0.22
647.072	0.22
647.401	0.22
647.731	0.22
648.06	0.22
648.39	0.22
648.719	0.21
649.048	0.21
649.378	0.21
649.707	0.21
650.036	0.21
650.365	0.21
650.694	0.21
651.023	0.21
651.352	0.2
651.681	0.21
652.01	0.21
652.339	0.21
652.668	0.2
652.996	0.2
653.325	0.2
653.654	0.21
653.982	0.2
654.311	0.2
654.639	0.2
654.967	0.2
655.296	0.2
655.624	0.2
655.952	0.2
656.28	0.2
656.609	0.2
656.937	0.2
657.265	0.19
657.593	0.06
657.92	0
658.248	0
658.576	0.02
658.904	0.14
659.231	0.19
659.559	0.2
659.887	0.19
660.214	0.19
660.542	0.19
660.869	0.19
661.196	0.19
661.524	0.19
661.851	0.19
662.178	0.19
662.505	0.19
662.832	0.19
663.159	0.19
663.486	0.19
663.813	0.19
664.14	0.19
664.467	0.18
664.794	0.18
665.12	0.18
665.447	0.18
665.774	0.18
666.1	0.18
666.427	0.18
666.753	0.18
667.079	0.18
667.406	0.18
667.732	0.18
668.058	0.18
668.384	0.17
668.71	0.17
669.036	0.18
669.362	0.17
669.688	0.17
670.014	0.17
670.34	0.17
670.666	0.17
670.991	0.17
671.317	0.16
671.643	0.16
671.968	0.16
672.294	0.16
672.619	0.16
672.945	0.16
673.27	0.16
673.595	0.15
673.92	0.15
674.246	0.15
674.571	0.15
674.896	0.15
675.221	0.15
675.546	0.15
675.87	0.15
676.195	0.15
676.52	0.15
676.845	0.15
677.169	0.14
677.494	0.14
677.819	0.14
678.143	0.14
678.468	0.14
678.792	0.14
679.116	0.14
679.44	0.14
679.765	0.13
680.089	0.13
680.413	0.13
680.737	0.13
681.061	0.13
681.385	0.13
681.709	0.12
682.033	0.12
682.356	0.12
682.68	0.12
683.004	0.12
683.327	0.12
683.651	0.12
683.974	0.12
684.298	0.12
684.621	0.12
684.944	0.11
685.268	0.11
685.591	0.11
685.914	0.11
686.237	0.11
686.56	0.11
686.883	0.1
687.206	0.1
687.529	0.1
687.852	0.1
688.175	0.1
688.497	0.1
688.82	0.1
689.142	0.1
689.465	0.1
689.787	0.1
690.11	0.09
690.432	0.09
690.755	0.09
691.077	0.09
691.399	0.09
691.721	0.09
692.043	0.09
692.365	0.08
692.687	0.08
693.009	0.08
693.331	0.08
693.653	0.08
693.974	0.08
694.296	0.08
694.618	0.08
694.939	0.08
695.261	0.08
695.582	0.08
695.904	0.07
696.225	0.07
696.546	0.07
696.868	0.07
697.189	0.07
697.51	0.07
697.831	0.07
698.152	0.07
698.473	0.07
698.794	0.07
699.114	0.07
699.435	0.06
699.756	0.07
700.077	0.07
700.397	0.07
700.718	0.07
701.038	0.07
701.359	0.06
701.679	0.06
701.999	0.07
702.32	0.07
702.64	0.06
702.96	0.07
703.28	0.07
703.6	0.07
703.92	0.06
704.24	0.06
704.56	0.06
704.879	0.06
705.199	0.06
705.519	0.06
705.838	0.06
706.158	0.06
706.478	0.06
706.797	0.06
707.116	0.06
707.436	0.06
707.755	0.06
708.074	0.06
708.393	0.05
708.712	0.05
709.031	0.05
709.35	0.05
709.669	0.05
709.988	0.05
710.307	0.05
710.626	0.05
710.944	0.06
711.263	0.06
711.582	0.05
711.9	0.06
712.219	0.05
712.537	0.06
712.855	0.06
713.174	0.06
713.492	0.06
713.81	0.06
714.128	0.06
714.446	0.06
714.764	0.05
715.082	0.05
715.4	0.06
715.718	0.06
716.035	0.05
716.353	0.05
716.671	0.06
716.988	0.06
717.306	0.06
717.623	0.06
717.941	0.06
718.258	0.06
718.575	0.06
718.893	0.06
719.21	0.06
719.527	0.06
719.844	0.06
720.161	0.06
720.478	0.06
720.795	0.06
721.112	0.06
721.428	0.06
721.745	0.06
722.062	0.06
722.378	0.06
722.695	0.06
723.011	0.06
723.328	0.06
723.644	0.06
723.96	0.06
724.276	0.06
724.593	0.06
724.909	0.06
725.225	0.06
725.541	0.06
725.857	0.06
726.173	0.06
726.488	0.06
726.804	0.06
727.12	0.06
727.435	0.06
727.751	0.06
728.067	0.06
728.382	0.06
728.697	0.06
729.013	0.06
729.328	0.06
729.643	0.06
729.958	0.06
730.273	0.06
730.588	0.06
730.903	0.06
731.218	0.06
731.533	0.06
731.848	0.06
732.163	0.06
732.477	0.06
732.792	0.06
733.107	0.05
733.421	0.06
733.736	0.06
734.05	0.06
734.364	0.06
734.678	0.06
734.993	0.06
735.307	0.06
735.621	0.05
735.935	0.06
736.249	0.06
736.563	0.06
736.877	0.06
737.19	0.06
737.504	0.06
737.818	0.06
738.131	0.06
738.445	0.06
738.758	0.06
739.072	0.06
739.385	0.06
739.698	0.06
740.012	0.06
740.325	0.05
740.638	0.05
740.951	0.05
741.264	0.05
741.577	0.05
741.89	0.05
742.203	0.05
742.515	0.05
742.828	0.05
743.141	0.05
743.453	0.05
743.766	0.05
744.078	0.05
744.391	0.05
744.703	0.05
745.015	0.04
745.327	0.05
745.639	0.05
745.952	0.05
746.264	0.05
746.575	0.05
746.887	0.04
747.199	0.04
747.511	0.04
747.823	0.04
748.134	0.04
748.446	0.04
748.757	0.04
749.069	0.04
749.38	0.04
749.692	0.04
750.003	0.04
750.314	0.04
750.625	0.04
750.936	0.04
751.248	0.04
751.559	0.04
751.869	0.04
752.18	0.04
752.491	0.04
752.802	0.04
753.112	0.04
753.423	0.03
753.734	0.04
754.044	0.03
754.355	0.03
754.665	0.03
754.975	0.03
755.285	0.03
755.596	0.03
755.906	0.04
756.216	0.03
756.526	0.03
756.836	0.03
757.146	0.03
757.455	0.03
757.765	0.03
758.075	0.03
758.385	0.03
758.694	0.03
759.004	0.03
759.313	0.03
759.622	0.03
759.932	0.03
760.241	0.03
760.55	0.03
760.859	0.03
761.168	0.03
761.477	0.03
761.786	0.03
762.095	0.03
762.404	0.03
762.713	0.03
763.021	0.03
763.33	0.03
763.639	0.03
763.947	0.03
764.256	0.03
764.564	0.03
764.872	0.03
765.181	0.03
765.489	0.02
765.797	0.03
766.105	0.03
766.413	0.03
766.721	0.03
767.029	0.03
767.337	0.03
767.644	0.03
767.952	0.03
768.26	0.03
768.567	0.03
768.875	0.03
769.182	0.02
769.49	0.02
769.797	0.02
770.104	0.02
770.411	0.02
770.718	0.02
771.026	0.03
771.333	0.03
771.639	0.03
771.946	0.03
772.253	0.03
772.56	0.03
772.867	0.03
773.173	0.03
773.48	0.02
773.786	0.02
774.093	0.03
774.399	0.03
774.705	0.02
775.012	0.02
775.318	0.02
775.624	0.02
775.93	0.02
776.236	0.02
776.542	0.02
776.848	0.02
777.154	0.02
777.459	0.02
777.765	0.02
778.071	0.03
778.376	0.02
778.682	0.02
778.987	0.02
779.292	0.02
779.598	0.02
779.903	0.02
780.208	0.02
780.513	0.02
780.818	0.02
781.123	0.02
781.428	0.03
781.733	0.02
782.038	0.02
782.343	0.02
782.647	0.02
782.952	0.02
783.256	0.03
783.561	0.03
783.865	0.03
784.17	0.03
784.474	0.03
784.778	0.03
785.082	0.03
785.386	0.02
785.69	0.02
785.994	0.03
786.298	0.03
786.602	0.03
786.906	0.02
787.209	0.03
787.513	0.03
787.817	0.02
788.12	0.03
788.424	0.03
788.727	0.02
789.03	0.02
789.333	0.03
789.637	0.02
789.94	0.02
790.243	0.02
790.546	0.02
790.849	0.02
791.152	0.02
791.454	0.02
791.757	0.02
792.06	0.02
792.362	0.03
792.665	0.03
792.967	0.03
793.27	0.03
793.572	0.02
793.874	0.03
794.177	0.03
794.479	0.03
794.781	0.03
795.083	0.03
795.385	0.02
795.687	0.03
795.989	0.03
796.29	0.03
796.592	0.03
796.894	0.03
797.195	0.03
797.497	0.03
797.798	0.03
798.1	0.03
798.401	0.03
798.702	0.03
799.003	0.03
799.304	0.03
799.605	0.03
799.906	0.03
800.207	0.03
800.508	0.03
800.809	0.03
801.11	0.03
801.41	0.03
801.711	0.03
802.011	0.03
802.312	0.03
802.612	0.03
802.913	0.03
803.213	0.03
803.513	0.03
803.813	0.03
804.113	0.03
804.413	0.03
804.713	0.03
805.013	0.03
805.313	0.03
805.613	0.03
805.912	0.04
806.212	0.04
806.511	0.03
806.811	0.03
807.11	0.03
807.41	0.04
807.709	0.03
808.008	0.03
808.307	0.03
808.606	0.03
808.905	0.03
809.204	0.03
809.503	0.03
809.802	0.03
810.101	0.04
810.399	0.03
810.698	0.03
810.997	0.04
811.295	0.04
811.593	0.03
811.892	0.04
812.19	0.04
812.488	0.04
812.786	0.03
813.084	0.04
813.383	0.04
813.68	0.04
813.978	0.04
814.276	0.03
814.574	0.04
814.872	0.03
815.169	0.03
815.467	0.04
815.764	0.04
816.062	0.04
816.359	0.04
816.656	0.04
816.954	0.04
817.251	0.04
817.548	0.04
817.845	0.04
818.142	0.04
818.439	0.04
818.735	0.04
819.032	0.04
819.329	0.04
819.626	0.04
819.922	0.04
820.219	0.04
820.515	0.04
820.811	0.04
821.108	0.04
821.404	0.04
821.7	0.04
821.996	0.03
822.292	0.04
822.588	0.04
822.884	0.04
823.18	0.04
823.475	0.04
823.771	0.04
824.067	0.03
824.362	0.04
824.658	0.04
824.953	0.05
825.249	0.04
825.544	0.04
825.839	0.04
826.134	0.04
826.429	0.04
826.724	0.04
827.019	0.04
827.314	0.04
827.609	0.04
827.904	0.04
828.198	0.04
828.493	0.04
828.787	0.04
829.082	0.04
829.376	0.03
829.671	0.04
829.965	0.04
830.259	0.04
830.553	0.05
830.847	0.05
831.141	0.04
831.435	0.04
831.729	0.05
832.023	0.05
832.317	0.05
832.61	0.04
832.904	0.05
833.197	0.04
833.491	0.05
833.784	0.04
834.077	0.04
834.371	0.04
834.664	0.04
834.957	0.04
835.25	0.05
835.543	0.05
835.836	0.05
836.129	0.04
836.421	0.05
836.714	0.05
837.007	0.04
837.299	0.05
837.592	0.05
837.884	0.05
838.177	0.04
838.469	0.05
838.761	0.04
839.053	0.05
839.345	0.05
839.637	0.05
839.929	0.04
840.221	0.04
840.513	0.05
840.805	0.04
841.096	0.05
841.388	0.05
841.68	0.05
841.971	0.04
842.262	0.04
842.554	0.05
842.845	0.05
843.136	0.05
843.427	0.05
843.718	0.04
844.009	0.05
844.3	0.05
844.591	0.05
844.882	0.05
845.173	0.04
845.463	0.06
845.754	0.04
846.044	0.05
846.335	0.04
846.625	0.05
846.915	0.04
847.206	0.05
847.496	0.05
847.786	0.05
848.076	0.05
848.366	0.05
848.656	0.06
848.945	0.06
849.235	0.05
849.525	0.05
849.814	0.05
850.104	0.05
850.393	0.05
850.683	0.05
850.972	0.06
851.261	0.06
851.551	0.06
851.84	0.05
852.129	0.05
852.418	0.05
852.707	0.05
852.995	0.05
853.284	0.06
853.573	0.05
853.862	0.06
854.15	0.06
854.439	0.05
854.727	0.08
855.015	0.06
855.304	0.05
855.592	0.05
855.88	0.05
856.168	0.06
856.456	0.05
856.744	0.06
857.032	0.05
857.32	0.06
857.607	0.07
857.895	0.06
858.183	0.06
858.47	0.06
858.757	0.05
859.045	0.07
859.332	0.05
859.619	0.06
859.907	0.06
860.194	0.07
860.481	0.06
860.768	0.05
861.054	0.08
861.341	0.06
861.628	0.06
861.915	0.08
862.201	0.06
862.488	0.06
862.774	0.05
863.061	0.08
863.347	0.06
863.633	0.07
863.919	0.05
864.205	0.05
864.491	0.05
864.777	0.06
865.063	0.07
865.349	0.05
865.635	0.04
865.92	0.03
866.206	0.04
866.492	0.03
866.777	0.03
867.062	0.05
867.348	0.03
867.633	0.07
867.918	0.06
868.203	0.05
868.488	0.03
868.773	0.04
869.058	0.04
869.343	0.07
869.628	0.05
869.912	0.03
870.197	0.06
870.482	0.09
870.766	0.07
871.05	0.07
871.335	0.03
871.619	0.01
871.903	0.02
872.187	0.04
872.471	0.03
872.755	0.06
873.039	0.02
873.323	0.03
873.607	0.01
873.89	0.03
874.174	-0.01
874.458	0.02
874.741	0.05
875.024	0.07
875.308	0.07
875.591	-0.05
875.874	0.03
876.157	0.06
876.44	0.05
876.723	0.06
877.006	0
877.289	0.1
877.572	0.1
877.854	0
878.137	0.04
878.42	-0.03
878.702	0.03
878.984	-0.05
879.267	-0.02
879.549	0.08
879.831	0.08
880.113	-0.02
880.395	0.05
880.677	-0.01
880.959	-0.02
