Data from Rubpy_BV_1800_EDTA_Buffered_Absorbance_17-08-17-680.txt Node
Date: Wed Jul 01 17:08:17 BST 2026
User: fpm-admin
Spectrometer: OFX00224
Trigger mode: 0
Integration Time (sec): 7.000000E-2
Scans to average: 3
Nonlinearity correction enabled: false
Boxcar width: 0
Storing dark spectrum: false
XAxis mode: Wavelengths
Number of Pixels in Spectrum: 2136
>>>>>Begin Spectral Data<<<<<
154.91	-0
155.289	0.05
155.669	-0
156.048	-0
156.428	-0
156.807	-0.2
157.186	-0
157.566	0.3
157.945	-0.3
158.325	-0.27
158.704	-0.24
159.083	0.02
159.462	0.3
159.842	-0
160.221	1.18
160.6	0.3
160.979	1.23
161.359	-0
161.738	0.37
162.117	-0.3
162.496	0.21
162.875	-0
163.254	0.47
163.633	0.33
164.012	-0.17
164.391	0.2
164.77	0.23
165.149	-0.82
165.528	-0
165.907	-0
166.286	0.06
166.665	-0
167.044	-0.17
167.423	0.29
167.802	-0.75
168.181	-0
168.559	-0.34
168.938	-0
169.317	0.39
169.696	-1.46
170.074	-0.26
170.453	-0.35
170.832	-0
171.21	0.29
171.589	-0
171.968	0.39
172.346	0.4
172.725	-0
173.103	-0
173.482	0.85
173.861	-0
174.239	-0.63
174.617	0.06
174.996	-0.17
175.374	-0.26
175.753	-0.82
176.131	0.07
176.51	0.1
176.888	-0
177.266	-0
177.645	-0
178.023	0.78
178.401	-0.17
178.779	0.01
179.158	0.54
179.536	0.24
179.914	-0
180.292	-0
180.67	0.25
181.048	0.85
181.427	0.12
181.805	-0
182.183	-0
182.561	-0
182.939	-0.37
183.317	-0.48
183.695	-0.12
184.073	-0
184.451	-0.82
184.829	-0.43
185.206	-0.34
185.584	-0
185.962	0.18
186.34	-0
186.718	-0
187.096	-0
187.473	0.52
187.851	0.16
188.229	-0.28
188.607	0.14
188.984	0.21
189.362	0.23
189.74	0.34
190.117	0.37
190.495	0.32
190.872	0.19
191.25	0.77
191.627	0.23
192.005	0.33
192.382	0.36
192.76	0.25
193.137	0.2
193.515	0.44
193.892	0.36
194.269	0.24
194.647	0.33
195.024	0.24
195.401	0.26
195.779	0.32
196.156	0.5
196.533	0.47
196.91	0.34
197.288	0.34
197.665	0.24
198.042	0.18
198.419	0.24
198.796	0.29
199.173	0.27
199.55	0.35
199.927	0.26
200.304	0.33
200.681	0.39
201.058	0.2
201.435	0.5
201.812	0.23
202.189	0.21
202.566	0.35
202.943	0.29
203.32	0.27
203.697	0.42
204.073	0.31
204.45	0.3
204.827	0.3
205.204	0.24
205.58	0.14
205.957	0.33
206.334	0.32
206.71	0.23
207.087	0.39
207.464	0.25
207.84	0.32
208.217	0.38
208.593	0.21
208.97	0.26
209.346	0.34
209.723	0.23
210.099	0.41
210.476	0.22
210.852	0.68
211.228	0.33
211.605	0.34
211.981	0.21
212.357	0.51
212.733	0.54
213.11	0.35
213.486	0.41
213.862	0.29
214.238	0.47
214.614	0.32
214.991	0.48
215.367	0.45
215.743	0.21
216.119	0.36
216.495	0.31
216.871	0.32
217.247	0.49
217.623	0.38
217.999	0.47
218.375	0.31
218.751	0.22
219.127	0.35
219.502	0.26
219.878	0.18
220.254	0.35
220.63	0.41
221.006	0.37
221.381	0.22
221.757	0.29
222.133	0.29
222.508	0.31
222.884	0.36
223.26	0.29
223.635	0.42
224.011	0.36
224.386	0.25
224.762	0.33
225.137	0.49
225.513	0.3
225.888	0.25
226.264	0.27
226.639	0.29
227.014	0.42
227.39	0.27
227.765	0.3
228.14	0.28
228.516	0.45
228.891	0.42
229.266	0.28
229.641	0.27
230.017	0.4
230.392	0.41
230.767	0.4
231.142	0.34
231.517	0.38
231.892	0.47
232.267	0.35
232.642	0.34
233.017	0.26
233.392	0.31
233.767	0.26
234.142	0.27
234.517	0.24
234.892	0.32
235.267	0.38
235.641	0.28
236.016	0.31
236.391	0.3
236.766	0.2
237.14	0.24
237.515	0.44
237.89	0.28
238.264	0.51
238.639	0.35
239.014	0.6
239.388	0.31
239.763	0.39
240.137	0.27
240.512	0.44
240.886	0.41
241.261	0.24
241.635	0.33
242.009	0.48
242.384	0.26
242.758	0.37
243.132	0.36
243.507	0.33
243.881	0.32
244.255	0.36
244.629	0.43
245.004	0.42
245.378	0.39
245.752	0.55
246.126	0.27
246.5	0.36
246.874	0.24
247.248	0.39
247.622	0.35
247.996	0.29
248.37	0.33
248.744	0.46
249.118	0.25
249.492	0.26
249.866	0.41
250.24	0.42
250.613	0.56
250.987	0.48
251.361	0.35
251.735	0.35
252.108	0.37
252.482	0.29
252.856	0.18
253.229	0.32
253.603	0.28
253.977	0.4
254.35	0.36
254.724	0.37
255.097	0.36
255.471	0.26
255.844	0.29
256.218	0.29
256.591	0.3
256.964	0.49
257.338	0.26
257.711	0.36
258.084	0.36
258.458	0.38
258.831	0.4
259.204	0.38
259.577	0.45
259.95	0.33
260.323	0.45
260.697	0.42
261.07	0.26
261.443	0.5
261.816	0.35
262.189	0.37
262.562	0.31
262.935	0.26
263.308	0.2
263.68	0.38
264.053	0.45
264.426	0.37
264.799	0.37
265.172	0.31
265.545	0.3
265.917	0.45
266.29	0.32
266.663	0.36
267.035	0.35
267.408	0.33
267.781	0.39
268.153	0.25
268.526	0.27
268.898	0.33
269.271	0.36
269.643	0.31
270.016	0.42
270.388	0.25
270.76	0.46
271.133	0.26
271.505	0.48
271.877	0.29
272.25	0.3
272.622	0.33
272.994	0.42
273.366	0.43
273.739	0.34
274.111	0.45
274.483	0.34
274.855	0.3
275.227	0.34
275.599	0.37
275.971	0.31
276.343	0.36
276.715	0.33
277.087	0.34
277.459	0.35
277.831	0.27
278.203	0.39
278.574	0.37
278.946	0.26
279.318	0.27
279.69	0.29
280.061	0.34
280.433	0.42
280.805	0.42
281.176	0.38
281.548	0.34
281.92	0.36
282.291	0.27
282.663	0.36
283.034	0.4
283.406	0.31
283.777	0.41
284.148	0.48
284.52	0.57
284.891	0.42
285.262	0.25
285.634	0.37
286.005	0.4
286.376	0.43
286.747	0.27
287.119	0.31
287.49	0.34
287.861	0.33
288.232	0.42
288.603	0.47
288.974	0.38
289.345	0.31
289.716	0.42
290.087	0.3
290.458	0.26
290.829	0.34
291.2	0.35
291.571	0.32
291.941	0.3
292.312	0.2
292.683	0.39
293.054	0.37
293.424	0.3
293.795	0.32
294.166	0.33
294.536	0.33
294.907	0.23
295.277	0.43
295.648	0.5
296.018	0.44
296.389	0.28
296.759	0.4
297.13	0.47
297.5	0.42
297.871	0.33
298.241	0.42
298.611	0.33
298.981	0.37
299.352	0.33
299.722	0.34
300.092	0.4
300.462	0.41
300.832	0.54
301.202	0.42
301.573	0.33
301.943	0.32
302.313	0.33
302.683	0.37
303.053	0.32
303.422	0.4
303.792	0.39
304.162	0.41
304.532	0.51
304.902	0.32
305.272	0.34
305.641	0.42
306.011	0.32
306.381	0.28
306.75	0.33
307.12	0.36
307.49	0.32
307.859	0.31
308.229	0.32
308.598	0.3
308.968	0.34
309.337	0.26
309.707	0.27
310.076	0.27
310.445	0.27
310.815	0.28
311.184	0.3
311.553	0.27
311.923	0.27
312.292	0.24
312.661	0.28
313.03	0.28
313.399	0.28
313.768	0.28
314.137	0.28
314.506	0.26
314.875	0.29
315.244	0.25
315.613	0.28
315.982	0.29
316.351	0.3
316.72	0.28
317.089	0.29
317.458	0.3
317.826	0.31
318.195	0.3
318.564	0.32
318.933	0.34
319.301	0.3
319.67	0.33
320.038	0.32
320.407	0.34
320.775	0.34
321.144	0.35
321.512	0.36
321.881	0.34
322.249	0.35
322.618	0.38
322.986	0.36
323.354	0.38
323.723	0.37
324.091	0.39
324.459	0.38
324.827	0.4
325.195	0.4
325.564	0.41
325.932	0.4
326.3	0.42
326.668	0.42
327.036	0.42
327.404	0.44
327.772	0.44
328.14	0.44
328.508	0.45
328.875	0.46
329.243	0.47
329.611	0.48
329.979	0.48
330.346	0.49
330.714	0.5
331.082	0.5
331.449	0.51
331.817	0.51
332.185	0.53
332.552	0.53
332.92	0.55
333.287	0.55
333.655	0.57
334.022	0.58
334.389	0.59
334.757	0.6
335.124	0.61
335.491	0.63
335.859	0.64
336.226	0.64
336.593	0.67
336.96	0.68
337.327	0.68
337.695	0.69
338.062	0.71
338.429	0.72
338.796	0.73
339.163	0.75
339.53	0.76
339.897	0.78
340.263	0.79
340.63	0.8
340.997	0.82
341.364	0.82
341.731	0.84
342.097	0.86
342.464	0.88
342.831	0.88
343.197	0.89
343.564	0.91
343.931	0.93
344.297	0.93
344.664	0.96
345.03	0.97
345.396	0.98
345.763	1.01
346.129	1.01
346.496	1.02
346.862	1.05
347.228	1.05
347.594	1.06
347.961	1.07
348.327	1.1
348.693	1.1
349.059	1.13
349.425	1.14
349.791	1.17
350.157	1.16
350.523	1.17
350.889	1.18
351.255	1.19
351.621	1.21
351.987	1.23
352.353	1.23
352.719	1.26
353.084	1.26
353.45	1.27
353.816	1.3
354.181	1.29
354.547	1.31
354.913	1.35
355.278	1.37
355.644	1.37
356.009	1.37
356.375	1.39
356.74	1.41
357.106	1.43
357.471	1.43
357.836	1.46
358.202	1.5
358.567	1.5
358.932	1.52
359.297	1.52
359.663	1.55
360.028	1.55
360.393	1.59
360.758	1.62
361.123	1.63
361.488	1.65
361.853	1.64
362.218	1.67
362.583	1.67
362.948	1.69
363.312	1.72
363.677	1.7
364.042	1.74
364.407	1.75
364.772	1.79
365.136	1.77
365.501	1.75
365.865	1.83
366.23	1.77
366.595	1.8
366.959	1.85
367.324	1.81
367.688	1.84
368.052	1.88
368.417	1.86
368.781	1.9
369.145	1.89
369.51	1.93
369.874	1.89
370.238	1.91
370.602	1.84
370.967	1.9
371.331	1.88
371.695	1.91
372.059	1.93
372.423	1.88
372.787	1.88
373.151	1.87
373.515	1.92
373.878	1.92
374.242	1.88
374.606	1.89
374.97	1.9
375.334	1.91
375.697	1.88
376.061	1.86
376.425	1.91
376.788	1.84
377.152	1.86
377.515	1.83
377.879	1.84
378.242	1.78
378.606	1.78
378.969	1.74
379.333	1.77
379.696	1.76
380.059	1.74
380.422	1.68
380.786	1.69
381.149	1.68
381.512	1.64
381.875	1.63
382.238	1.62
382.601	1.58
382.964	1.56
383.327	1.55
383.69	1.55
384.053	1.52
384.416	1.5
384.779	1.5
385.142	1.49
385.504	1.47
385.867	1.46
386.23	1.45
386.593	1.43
386.955	1.44
387.318	1.42
387.68	1.43
388.043	1.42
388.405	1.4
388.768	1.4
389.13	1.41
389.493	1.39
389.855	1.37
390.217	1.37
390.58	1.35
390.942	1.33
391.304	1.31
391.666	1.3
392.028	1.26
392.391	1.27
392.753	1.25
393.115	1.24
393.477	1.21
393.839	1.2
394.201	1.19
394.563	1.19
394.924	1.18
395.286	1.18
395.648	1.19
396.01	1.19
396.371	1.19
396.733	1.21
397.095	1.21
397.456	1.24
397.818	1.26
398.18	1.29
398.541	1.32
398.903	1.33
399.264	1.37
399.625	1.37
399.987	1.42
400.348	1.43
400.709	1.46
401.071	1.46
401.432	1.45
401.793	1.45
402.154	1.45
402.515	1.41
402.876	1.42
403.238	1.36
403.599	1.34
403.96	1.3
404.32	1.26
404.681	1.22
405.042	1.17
405.403	1.13
405.764	1.08
406.125	1.02
406.485	0.98
406.846	0.92
407.207	0.88
407.567	0.83
407.928	0.8
408.288	0.75
408.649	0.71
409.009	0.67
409.37	0.63
409.73	0.6
410.091	0.57
410.451	0.54
410.811	0.52
411.171	0.5
411.532	0.46
411.892	0.45
412.252	0.43
412.612	0.41
412.972	0.39
413.332	0.38
413.692	0.36
414.052	0.35
414.412	0.33
414.772	0.32
415.132	0.31
415.492	0.3
415.851	0.29
416.211	0.28
416.571	0.28
416.931	0.27
417.29	0.26
417.65	0.25
418.009	0.25
418.369	0.23
418.728	0.23
419.088	0.24
419.447	0.22
419.807	0.23
420.166	0.22
420.525	0.21
420.884	0.21
421.244	0.2
421.603	0.2
421.962	0.19
422.321	0.19
422.68	0.19
423.039	0.19
423.398	0.18
423.757	0.18
424.116	0.18
424.475	0.18
424.834	0.18
425.193	0.17
425.551	0.18
425.91	0.18
426.269	0.17
426.628	0.17
426.986	0.17
427.345	0.15
427.703	0.16
428.062	0.16
428.42	0.16
428.779	0.16
429.137	0.17
429.496	0.16
429.854	0.16
430.212	0.16
430.57	0.16
430.929	0.15
431.287	0.16
431.645	0.15
432.003	0.15
432.361	0.14
432.719	0.15
433.077	0.15
433.435	0.15
433.793	0.15
434.151	0.15
434.509	0.16
434.866	0.15
435.224	0.15
435.582	0.15
435.94	0.15
436.297	0.15
436.655	0.15
437.012	0.14
437.37	0.15
437.727	0.15
438.085	0.15
438.442	0.14
438.8	0.16
439.157	0.15
439.514	0.15
439.872	0.14
440.229	0.15
440.586	0.14
440.943	0.15
441.3	0.16
441.657	0.15
442.014	0.15
442.371	0.15
442.728	0.15
443.085	0.15
443.442	0.14
443.799	0.14
444.156	0.15
444.513	0.16
444.869	0.14
445.226	0.15
445.583	0.15
445.939	0.15
446.296	0.14
446.652	0.15
447.009	0.16
447.365	0.16
447.722	0.15
448.078	0.15
448.434	0.16
448.791	0.16
449.147	0.16
449.503	0.15
449.859	0.15
450.215	0.15
450.571	0.16
450.928	0.16
451.284	0.17
451.64	0.17
451.995	0.16
452.351	0.16
452.707	0.15
453.063	0.15
453.419	0.15
453.775	0.14
454.13	0.15
454.486	0.14
454.842	0.15
455.197	0.15
455.553	0.14
455.908	0.14
456.264	0.14
456.619	0.14
456.975	0.15
457.33	0.14
457.685	0.14
458.04	0.13
458.396	0.13
458.751	0.13
459.106	0.12
459.461	0.12
459.816	0.13
460.171	0.11
460.526	0.12
460.881	0.11
461.236	0.11
461.591	0.1
461.946	0.1
462.301	0.09
462.655	0.1
463.01	0.09
463.365	0.09
463.719	0.09
464.074	0.07
464.428	0.07
464.783	0.06
465.137	0.06
465.492	0.06
465.846	0.06
466.201	0.07
466.555	0.07
466.909	0.08
467.263	0.09
467.618	0.08
467.972	0.1
468.326	0.09
468.68	0.08
469.034	0.08
469.388	0.08
469.742	0.08
470.096	0.09
470.45	0.09
470.804	0.09
471.157	0.09
471.511	0.09
471.865	0.09
472.218	0.1
472.572	0.11
472.926	0.11
473.279	0.13
473.633	0.13
473.986	0.14
474.34	0.15
474.693	0.16
475.046	0.17
475.4	0.18
475.753	0.19
476.106	0.2
476.459	0.21
476.812	0.22
477.165	0.23
477.519	0.23
477.872	0.24
478.224	0.25
478.577	0.26
478.93	0.27
479.283	0.27
479.636	0.29
479.989	0.28
480.341	0.3
480.694	0.31
481.047	0.32
481.399	0.32
481.752	0.33
482.104	0.33
482.457	0.35
482.809	0.36
483.162	0.35
483.514	0.37
483.866	0.36
484.219	0.38
484.571	0.38
484.923	0.38
485.275	0.39
485.627	0.39
485.979	0.4
486.331	0.41
486.683	0.41
487.035	0.42
487.387	0.43
487.739	0.44
488.091	0.44
488.443	0.44
488.794	0.45
489.146	0.45
489.498	0.46
489.849	0.47
490.201	0.47
490.552	0.47
490.904	0.48
491.255	0.48
491.607	0.48
491.958	0.5
492.309	0.49
492.661	0.5
493.012	0.5
493.363	0.51
493.714	0.51
494.065	0.52
494.416	0.52
494.767	0.53
495.118	0.53
495.469	0.54
495.82	0.54
496.171	0.55
496.522	0.56
496.872	0.56
497.223	0.56
497.574	0.56
497.924	0.57
498.275	0.59
498.626	0.59
498.976	0.59
499.327	0.59
499.677	0.6
500.027	0.6
500.378	0.6
500.728	0.61
501.078	0.62
501.428	0.62
501.779	0.62
502.129	0.62
502.479	0.63
502.829	0.64
503.179	0.65
503.529	0.65
503.879	0.65
504.229	0.66
504.578	0.66
504.928	0.66
505.278	0.67
505.628	0.67
505.977	0.68
506.327	0.68
506.676	0.69
507.026	0.69
507.375	0.7
507.725	0.69
508.074	0.7
508.424	0.7
508.773	0.71
509.122	0.71
509.471	0.72
509.82	0.72
510.17	0.73
510.519	0.73
510.868	0.72
511.217	0.74
511.566	0.74
511.915	0.74
512.263	0.74
512.612	0.75
512.961	0.75
513.31	0.76
513.659	0.76
514.007	0.77
514.356	0.77
514.704	0.78
515.053	0.78
515.401	0.78
515.75	0.79
516.098	0.8
516.447	0.8
516.795	0.8
517.143	0.79
517.491	0.8
517.839	0.8
518.188	0.81
518.536	0.82
518.884	0.82
519.232	0.82
519.58	0.82
519.928	0.82
520.275	0.83
520.623	0.84
520.971	0.83
521.319	0.84
521.666	0.84
522.014	0.84
522.362	0.85
522.709	0.85
523.057	0.86
523.404	0.86
523.752	0.86
524.099	0.86
524.446	0.86
524.794	0.87
525.141	0.87
525.488	0.88
525.835	0.88
526.182	0.88
526.529	0.89
526.876	0.87
527.223	0.88
527.57	0.89
527.917	0.89
528.264	0.89
528.611	0.89
528.958	0.9
529.304	0.89
529.651	0.9
529.998	0.9
530.344	0.91
530.691	0.91
531.037	0.9
531.384	0.92
531.73	0.91
532.076	0.92
532.423	0.92
532.769	0.93
533.115	0.92
533.461	0.93
533.807	0.92
534.154	0.93
534.5	0.92
534.846	0.93
535.192	0.93
535.537	0.92
535.883	0.94
536.229	0.94
536.575	0.94
536.921	0.95
537.266	0.95
537.612	0.95
537.957	0.94
538.303	0.95
538.649	0.95
538.994	0.95
539.339	0.95
539.685	0.95
540.03	0.96
540.375	0.95
540.721	0.97
541.066	0.95
541.411	0.96
541.756	0.96
542.101	0.95
542.446	0.97
542.791	0.96
543.136	0.97
543.481	0.97
543.825	0.97
544.17	0.97
544.515	0.97
544.86	0.97
545.204	0.97
545.549	0.98
545.893	0.97
546.238	0.97
546.582	0.97
546.927	0.97
547.271	0.98
547.615	0.98
547.96	0.98
548.304	0.97
548.648	0.98
548.992	0.98
549.336	0.97
549.68	0.98
550.024	0.98
550.368	0.98
550.712	0.98
551.056	0.98
551.4	0.97
551.743	0.98
552.087	0.98
552.431	0.98
552.774	0.98
553.118	0.98
553.462	0.97
553.805	0.98
554.148	0.98
554.492	0.97
554.835	0.98
555.178	0.98
555.522	0.98
555.865	0.98
556.208	0.97
556.551	0.97
556.894	0.97
557.237	0.97
557.58	0.97
557.923	0.98
558.266	0.97
558.609	0.97
558.952	0.96
559.294	0.97
559.637	0.97
559.98	0.97
560.322	0.97
560.665	0.97
561.007	0.96
561.35	0.96
561.692	0.96
562.034	0.96
562.377	0.96
562.719	0.95
563.061	0.96
563.403	0.96
563.745	0.96
564.088	0.95
564.43	0.95
564.772	0.95
565.113	0.95
565.455	0.96
565.797	0.95
566.139	0.95
566.481	0.95
566.822	0.94
567.164	0.95
567.506	0.94
567.847	0.94
568.189	0.93
568.53	0.94
568.872	0.94
569.213	0.94
569.554	0.94
569.895	0.93
570.237	0.93
570.578	0.93
570.919	0.93
571.26	0.92
571.601	0.93
571.942	0.92
572.283	0.92
572.624	0.92
572.965	0.91
573.306	0.91
573.646	0.91
573.987	0.91
574.328	0.9
574.668	0.9
575.009	0.9
575.349	0.9
575.69	0.89
576.03	0.89
576.37	0.89
576.711	0.88
577.051	0.89
577.391	0.89
577.731	0.89
578.072	0.89
578.412	0.88
578.752	0.88
579.092	0.87
579.431	0.87
579.771	0.85
580.111	0.86
580.451	0.86
580.791	0.87
581.13	0.86
581.47	0.87
581.81	0.86
582.149	0.86
582.489	0.86
582.828	0.85
583.167	0.83
583.507	0.79
583.846	0.79
584.185	0.83
584.525	0.85
584.864	0.86
585.203	0.86
585.542	0.86
585.881	0.85
586.22	0.85
586.559	0.84
586.898	0.84
587.236	0.83
587.575	0.83
587.914	0.84
588.252	0.85
588.591	0.84
588.93	0.84
589.268	0.83
589.607	0.84
589.945	0.84
590.283	0.84
590.622	0.84
590.96	0.84
591.298	0.84
591.636	0.83
591.974	0.84
592.313	0.84
592.651	0.84
592.989	0.84
593.326	0.84
593.664	0.83
594.002	0.83
594.34	0.83
594.678	0.83
595.015	0.83
595.353	0.82
595.691	0.83
596.028	0.83
596.366	0.84
596.703	0.83
597.04	0.83
597.378	0.83
597.715	0.83
598.052	0.83
598.389	0.83
598.726	0.83
599.064	0.82
599.401	0.82
599.738	0.82
600.074	0.82
600.411	0.82
600.748	0.82
601.085	0.81
601.422	0.81
601.758	0.81
602.095	0.81
602.432	0.81
602.768	0.81
603.105	0.81
603.441	0.81
603.777	0.82
604.114	0.82
604.45	0.81
604.786	0.81
605.122	0.8
605.459	0.8
605.795	0.8
606.131	0.8
606.467	0.8
606.803	0.8
607.139	0.79
607.474	0.79
607.81	0.79
608.146	0.79
608.482	0.79
608.817	0.78
609.153	0.78
609.488	0.78
609.824	0.78
610.159	0.78
610.495	0.78
610.83	0.77
611.165	0.77
611.5	0.76
611.836	0.76
612.171	0.76
612.506	0.76
612.841	0.76
613.176	0.75
613.511	0.75
613.845	0.75
614.18	0.75
614.515	0.75
614.85	0.75
615.184	0.74
615.519	0.74
615.854	0.73
616.188	0.73
616.523	0.73
616.857	0.73
617.191	0.72
617.526	0.72
617.86	0.72
618.194	0.72
618.528	0.72
618.862	0.72
619.196	0.72
619.53	0.71
619.864	0.7
620.198	0.7
620.532	0.7
620.866	0.7
621.2	0.69
621.533	0.69
621.867	0.69
622.201	0.68
622.534	0.69
622.868	0.68
623.201	0.68
623.534	0.68
623.868	0.67
624.201	0.67
624.534	0.67
624.868	0.67
625.201	0.66
625.534	0.66
625.867	0.66
626.2	0.65
626.533	0.66
626.865	0.65
627.198	0.65
627.531	0.65
627.864	0.64
628.196	0.64
628.529	0.63
628.862	0.63
629.194	0.62
629.527	0.62
629.859	0.62
630.191	0.62
630.524	0.61
630.856	0.61
631.188	0.61
631.52	0.6
631.852	0.6
632.184	0.59
632.516	0.59
632.848	0.59
633.18	0.58
633.512	0.59
633.844	0.58
634.175	0.57
634.507	0.57
634.839	0.57
635.17	0.57
635.502	0.56
635.833	0.55
636.165	0.55
636.496	0.55
636.827	0.54
637.159	0.54
637.49	0.54
637.821	0.54
638.152	0.53
638.483	0.53
638.814	0.53
639.145	0.52
639.476	0.52
639.807	0.52
640.137	0.51
640.468	0.51
640.799	0.51
641.129	0.5
641.46	0.5
641.791	0.49
642.121	0.49
642.451	0.49
642.782	0.48
643.112	0.48
643.442	0.48
643.773	0.48
644.103	0.48
644.433	0.47
644.763	0.47
645.093	0.47
645.423	0.47
645.753	0.46
646.082	0.46
646.412	0.46
646.742	0.46
647.072	0.45
647.401	0.45
647.731	0.45
648.06	0.45
648.39	0.44
648.719	0.44
649.048	0.44
649.378	0.44
649.707	0.44
650.036	0.43
650.365	0.43
650.694	0.43
651.023	0.43
651.352	0.43
651.681	0.43
652.01	0.43
652.339	0.43
652.668	0.42
652.996	0.42
653.325	0.42
653.654	0.42
653.982	0.42
654.311	0.41
654.639	0.41
654.967	0.41
655.296	0.41
655.624	0.41
655.952	0.41
656.28	0.41
656.609	0.4
656.937	0.4
657.265	0.39
657.593	0.25
657.92	0.15
658.248	0.13
658.576	0.21
658.904	0.33
659.231	0.39
659.559	0.4
659.887	0.39
660.214	0.39
660.542	0.39
660.869	0.39
661.196	0.38
661.524	0.39
661.851	0.38
662.178	0.38
662.505	0.38
662.832	0.38
663.159	0.38
663.486	0.37
663.813	0.38
664.14	0.37
664.467	0.37
664.794	0.37
665.12	0.37
665.447	0.37
665.774	0.36
666.1	0.36
666.427	0.36
666.753	0.36
667.079	0.36
667.406	0.35
667.732	0.35
668.058	0.35
668.384	0.35
668.71	0.35
669.036	0.34
669.362	0.34
669.688	0.34
670.014	0.34
670.34	0.34
670.666	0.33
670.991	0.33
671.317	0.33
671.643	0.33
671.968	0.33
672.294	0.32
672.619	0.32
672.945	0.32
673.27	0.32
673.595	0.31
673.92	0.31
674.246	0.31
674.571	0.31
674.896	0.31
675.221	0.3
675.546	0.3
675.87	0.3
676.195	0.3
676.52	0.29
676.845	0.29
677.169	0.29
677.494	0.29
677.819	0.29
678.143	0.28
678.468	0.28
678.792	0.28
679.116	0.28
679.44	0.27
679.765	0.27
680.089	0.26
680.413	0.26
680.737	0.26
681.061	0.25
681.385	0.25
681.709	0.25
682.033	0.25
682.356	0.25
682.68	0.25
683.004	0.25
683.327	0.24
683.651	0.23
683.974	0.23
684.298	0.23
684.621	0.23
684.944	0.23
685.268	0.23
685.591	0.22
685.914	0.22
686.237	0.21
686.56	0.21
686.883	0.21
687.206	0.21
687.529	0.21
687.852	0.21
688.175	0.2
688.497	0.2
688.82	0.2
689.142	0.2
689.465	0.2
689.787	0.2
690.11	0.19
690.432	0.19
690.755	0.19
691.077	0.18
691.399	0.18
691.721	0.18
692.043	0.18
692.365	0.18
692.687	0.17
693.009	0.17
693.331	0.17
693.653	0.16
693.974	0.17
694.296	0.16
694.618	0.16
694.939	0.16
695.261	0.16
695.582	0.16
695.904	0.16
696.225	0.16
696.546	0.15
696.868	0.15
697.189	0.15
697.51	0.15
697.831	0.15
698.152	0.15
698.473	0.15
698.794	0.14
699.114	0.14
699.435	0.14
699.756	0.14
700.077	0.14
700.397	0.14
700.718	0.14
701.038	0.14
701.359	0.14
701.679	0.14
701.999	0.14
702.32	0.13
702.64	0.13
702.96	0.13
703.28	0.13
703.6	0.13
703.92	0.13
704.24	0.13
704.56	0.13
704.879	0.13
705.199	0.13
705.519	0.13
705.838	0.13
706.158	0.13
706.478	0.13
706.797	0.13
707.116	0.13
707.436	0.13
707.755	0.13
708.074	0.12
708.393	0.12
708.712	0.12
709.031	0.11
709.35	0.11
709.669	0.11
709.988	0.11
710.307	0.11
710.626	0.11
710.944	0.12
711.263	0.12
711.582	0.12
711.9	0.12
712.219	0.12
712.537	0.12
712.855	0.12
713.174	0.12
713.492	0.12
713.81	0.12
714.128	0.12
714.446	0.12
714.764	0.11
715.082	0.11
715.4	0.12
715.718	0.11
716.035	0.11
716.353	0.12
716.671	0.12
716.988	0.11
717.306	0.11
717.623	0.12
717.941	0.12
718.258	0.12
718.575	0.12
718.893	0.12
719.21	0.12
719.527	0.12
719.844	0.12
720.161	0.12
720.478	0.12
720.795	0.12
721.112	0.12
721.428	0.12
721.745	0.12
722.062	0.12
722.378	0.12
722.695	0.12
723.011	0.12
723.328	0.12
723.644	0.12
723.96	0.12
724.276	0.12
724.593	0.12
724.909	0.12
725.225	0.12
725.541	0.12
725.857	0.12
726.173	0.12
726.488	0.13
726.804	0.12
727.12	0.12
727.435	0.12
727.751	0.12
728.067	0.12
728.382	0.12
728.697	0.12
729.013	0.12
729.328	0.12
729.643	0.12
729.958	0.12
730.273	0.12
730.588	0.12
730.903	0.12
731.218	0.12
731.533	0.12
731.848	0.12
732.163	0.12
732.477	0.12
732.792	0.12
733.107	0.11
733.421	0.12
733.736	0.11
734.05	0.12
734.364	0.11
734.678	0.12
734.993	0.11
735.307	0.12
735.621	0.11
735.935	0.11
736.249	0.11
736.563	0.12
736.877	0.11
737.19	0.12
737.504	0.12
737.818	0.11
738.131	0.11
738.445	0.11
738.758	0.11
739.072	0.11
739.385	0.11
739.698	0.11
740.012	0.11
740.325	0.11
740.638	0.11
740.951	0.11
741.264	0.1
741.577	0.11
741.89	0.1
742.203	0.1
742.515	0.11
742.828	0.1
743.141	0.1
743.453	0.1
743.766	0.1
744.078	0.1
744.391	0.1
744.703	0.1
745.015	0.1
745.327	0.1
745.639	0.1
745.952	0.1
746.264	0.1
746.575	0.1
746.887	0.09
747.199	0.09
747.511	0.09
747.823	0.09
748.134	0.09
748.446	0.09
748.757	0.09
749.069	0.09
749.38	0.09
749.692	0.09
750.003	0.09
750.314	0.08
750.625	0.09
750.936	0.08
751.248	0.08
751.559	0.08
751.869	0.08
752.18	0.08
752.491	0.08
752.802	0.08
753.112	0.08
753.423	0.08
753.734	0.08
754.044	0.08
754.355	0.08
754.665	0.07
754.975	0.07
755.285	0.07
755.596	0.07
755.906	0.07
756.216	0.07
756.526	0.07
756.836	0.07
757.146	0.07
757.455	0.07
757.765	0.07
758.075	0.07
758.385	0.07
758.694	0.07
759.004	0.06
759.313	0.06
759.622	0.07
759.932	0.06
760.241	0.06
760.55	0.07
760.859	0.06
761.168	0.07
761.477	0.06
761.786	0.06
762.095	0.06
762.404	0.06
762.713	0.06
763.021	0.06
763.33	0.06
763.639	0.06
763.947	0.06
764.256	0.06
764.564	0.06
764.872	0.06
765.181	0.06
765.489	0.06
765.797	0.06
766.105	0.06
766.413	0.06
766.721	0.06
767.029	0.06
767.337	0.06
767.644	0.06
767.952	0.06
768.26	0.06
768.567	0.06
768.875	0.06
769.182	0.06
769.49	0.06
769.797	0.06
770.104	0.06
770.411	0.06
770.718	0.06
771.026	0.06
771.333	0.06
771.639	0.06
771.946	0.06
772.253	0.06
772.56	0.06
772.867	0.06
773.173	0.06
773.48	0.06
773.786	0.06
774.093	0.06
774.399	0.06
774.705	0.06
775.012	0.06
775.318	0.06
775.624	0.06
775.93	0.06
776.236	0.06
776.542	0.06
776.848	0.06
777.154	0.06
777.459	0.06
777.765	0.06
778.071	0.07
778.376	0.06
778.682	0.06
778.987	0.06
779.292	0.06
779.598	0.06
779.903	0.06
780.208	0.06
780.513	0.06
780.818	0.06
781.123	0.06
781.428	0.07
781.733	0.06
782.038	0.07
782.343	0.06
782.647	0.06
782.952	0.07
783.256	0.07
783.561	0.07
783.865	0.07
784.17	0.07
784.474	0.07
784.778	0.07
785.082	0.07
785.386	0.07
785.69	0.06
785.994	0.07
786.298	0.07
786.602	0.07
786.906	0.07
787.209	0.07
787.513	0.07
787.817	0.06
788.12	0.07
788.424	0.07
788.727	0.07
789.03	0.06
789.333	0.07
789.637	0.07
789.94	0.07
790.243	0.07
790.546	0.07
790.849	0.07
791.152	0.07
791.454	0.07
791.757	0.07
792.06	0.07
792.362	0.07
792.665	0.07
792.967	0.07
793.27	0.07
793.572	0.07
793.874	0.07
794.177	0.07
794.479	0.07
794.781	0.07
795.083	0.07
795.385	0.07
795.687	0.08
795.989	0.07
796.29	0.08
796.592	0.07
796.894	0.08
797.195	0.08
797.497	0.08
797.798	0.08
798.1	0.08
798.401	0.08
798.702	0.08
799.003	0.08
799.304	0.08
799.605	0.08
799.906	0.08
800.207	0.08
800.508	0.08
800.809	0.08
801.11	0.08
801.41	0.08
801.711	0.08
802.011	0.08
802.312	0.08
802.612	0.08
802.913	0.08
803.213	0.08
803.513	0.09
803.813	0.08
804.113	0.08
804.413	0.08
804.713	0.09
805.013	0.08
805.313	0.09
805.613	0.09
805.912	0.09
806.212	0.09
806.511	0.09
806.811	0.08
807.11	0.09
807.41	0.09
807.709	0.09
808.008	0.08
808.307	0.09
808.606	0.09
808.905	0.09
809.204	0.09
809.503	0.09
809.802	0.09
810.101	0.09
810.399	0.09
810.698	0.09
810.997	0.09
811.295	0.09
811.593	0.09
811.892	0.1
812.19	0.09
812.488	0.1
812.786	0.1
813.084	0.09
813.383	0.1
813.68	0.1
813.978	0.1
814.276	0.1
814.574	0.1
814.872	0.09
815.169	0.1
815.467	0.1
815.764	0.1
816.062	0.1
816.359	0.09
816.656	0.1
816.954	0.1
817.251	0.1
817.548	0.1
817.845	0.1
818.142	0.1
818.439	0.1
818.735	0.11
819.032	0.11
819.329	0.1
819.626	0.11
819.922	0.1
820.219	0.11
820.515	0.11
820.811	0.11
821.108	0.1
821.404	0.1
821.7	0.11
821.996	0.1
822.292	0.11
822.588	0.11
822.884	0.11
823.18	0.11
823.475	0.11
823.771	0.11
824.067	0.11
824.362	0.11
824.658	0.11
824.953	0.11
825.249	0.11
825.544	0.12
825.839	0.11
826.134	0.11
826.429	0.12
826.724	0.11
827.019	0.11
827.314	0.11
827.609	0.11
827.904	0.12
828.198	0.12
828.493	0.12
828.787	0.12
829.082	0.12
829.376	0.12
829.671	0.12
829.965	0.12
830.259	0.12
830.553	0.12
830.847	0.12
831.141	0.12
831.435	0.13
831.729	0.12
832.023	0.13
832.317	0.13
832.61	0.13
832.904	0.13
833.197	0.13
833.491	0.13
833.784	0.13
834.077	0.12
834.371	0.13
834.664	0.12
834.957	0.12
835.25	0.13
835.543	0.13
835.836	0.14
836.129	0.13
836.421	0.13
836.714	0.13
837.007	0.13
837.299	0.14
837.592	0.14
837.884	0.14
838.177	0.13
838.469	0.14
838.761	0.13
839.053	0.13
839.345	0.14
839.637	0.13
839.929	0.14
840.221	0.14
840.513	0.14
840.805	0.13
841.096	0.14
841.388	0.14
841.68	0.14
841.971	0.13
842.262	0.14
842.554	0.14
842.845	0.14
843.136	0.15
843.427	0.15
843.718	0.14
844.009	0.14
844.3	0.14
844.591	0.15
844.882	0.15
845.173	0.14
845.463	0.15
845.754	0.14
846.044	0.14
846.335	0.14
846.625	0.14
846.915	0.14
847.206	0.14
847.496	0.14
847.786	0.15
848.076	0.16
848.366	0.15
848.656	0.15
848.945	0.16
849.235	0.15
849.525	0.15
849.814	0.15
850.104	0.14
850.393	0.15
850.683	0.16
850.972	0.16
851.261	0.15
851.551	0.16
851.84	0.15
852.129	0.15
852.418	0.15
852.707	0.15
852.995	0.16
853.284	0.16
853.573	0.15
853.862	0.16
854.15	0.17
854.439	0.16
854.727	0.16
855.015	0.16
855.304	0.15
855.592	0.15
855.88	0.15
856.168	0.17
856.456	0.16
856.744	0.16
857.032	0.16
857.32	0.16
857.607	0.18
857.895	0.16
858.183	0.17
858.47	0.18
858.757	0.17
859.045	0.17
859.332	0.17
859.619	0.16
859.907	0.18
860.194	0.17
860.481	0.17
860.768	0.15
861.054	0.18
861.341	0.16
861.628	0.16
861.915	0.17
862.201	0.18
862.488	0.16
862.774	0.16
863.061	0.19
863.347	0.17
863.633	0.18
863.919	0.17
864.205	0.17
864.491	0.15
864.777	0.19
865.063	0.17
865.349	0.18
865.635	0.17
865.92	0.16
866.206	0.15
866.492	0.15
866.777	0.2
867.062	0.15
867.348	0.14
867.633	0.17
867.918	0.19
868.203	0.2
868.488	0.19
868.773	0.18
869.058	0.14
869.343	0.2
869.628	0.17
869.912	0.19
870.197	0.19
870.482	0.21
870.766	0.14
871.05	0.22
871.335	0.17
871.619	0.15
871.903	0.21
872.187	0.21
872.471	0.21
872.755	0.26
873.039	0.16
873.323	0.16
873.607	0.16
873.89	0.24
874.174	0.19
874.458	0.08
874.741	0.22
875.024	0.17
875.308	0.14
875.591	0.26
875.874	0.17
876.157	0.17
876.44	0.11
876.723	0.25
877.006	0.31
877.289	0.18
877.572	0.36
877.854	0.18
878.137	0.18
878.42	0.16
878.702	0.15
878.984	0.04
879.267	0.2
879.549	0.32
879.831	0.19
880.113	0.19
880.395	0.33
880.677	0.11
880.959	0.21
