Data from Rubpy_BV_1800_EDTA_Buffered_Absorbance_17-02-31-600.txt Node
Date: Wed Jul 01 17:02:31 BST 2026
User: fpm-admin
Spectrometer: OFX00224
Trigger mode: 0
Integration Time (sec): 7.000000E-2
Scans to average: 3
Nonlinearity correction enabled: false
Boxcar width: 0
Storing dark spectrum: false
XAxis mode: Wavelengths
Number of Pixels in Spectrum: 2136
>>>>>Begin Spectral Data<<<<<
154.91	-0
155.289	0.48
155.669	0.16
156.048	-0
156.428	-0.03
156.807	-0.2
157.186	-0
157.566	0.15
157.945	-0
158.325	1.34
158.704	-0.05
159.083	0.08
159.462	-0.7
159.842	-0
160.221	0.1
160.6	-0
160.979	-0
161.359	-0
161.738	-0
162.117	-0
162.496	-0.14
162.875	-0.08
163.254	0.14
163.633	0.6
164.012	-0
164.391	0.08
164.77	0.09
165.149	-1.07
165.528	0.37
165.907	-0.08
166.286	-0.14
166.665	0.15
167.044	0.1
167.423	0.73
167.802	-0
168.181	-0.95
168.559	-0.51
168.938	0.1
169.317	1.23
169.696	-0.85
170.074	0.52
170.453	-0.56
170.832	-1.28
171.21	0.04
171.589	-0
171.968	0.3
172.346	-0
172.725	-0
173.103	0.18
173.482	0.54
173.861	-0
174.239	-0
174.617	-0
174.996	-0.09
175.374	-0.22
175.753	-0.4
176.131	0.22
176.51	-0
176.888	0.36
177.266	-0
177.645	0.13
178.023	0.41
178.401	-0.18
178.779	0.12
179.158	0.43
179.536	0.29
179.914	1.26
180.292	-0.15
180.67	0.43
181.048	-0.2
181.427	0.12
181.805	-0.04
182.183	-0.27
182.561	-0
182.939	-0
183.317	-0
183.695	-0
184.073	-0
184.451	-0
184.829	-0.47
185.206	0.05
185.584	-0
185.962	0.1
186.34	-0.1
186.718	0.03
187.096	-0
187.473	0.05
187.851	-0
188.229	-0.06
188.607	0.22
188.984	0.38
189.362	0.23
189.74	0.29
190.117	0.26
190.495	0.46
190.872	0.35
191.25	0.38
191.627	0.25
192.005	0.32
192.382	0.3
192.76	0.34
193.137	0.33
193.515	0.4
193.892	0.35
194.269	0.18
194.647	0.11
195.024	0.41
195.401	0.47
195.779	0.34
196.156	0.53
196.533	0.26
196.91	0.2
197.288	0.41
197.665	0.29
198.042	0.13
198.419	0.3
198.796	0.46
199.173	0.38
199.55	0.44
199.927	0.09
200.304	0.24
200.681	0.4
201.058	0.17
201.435	0.42
201.812	0.35
202.189	0.14
202.566	0.28
202.943	0.28
203.32	0.39
203.697	0.46
204.073	0.35
204.45	0.41
204.827	0.38
205.204	0.13
205.58	0.28
205.957	0.43
206.334	0.15
206.71	0.23
207.087	0.23
207.464	0.28
207.84	0.46
208.217	0.29
208.593	0.26
208.97	0.44
209.346	0.37
209.723	0.25
210.099	0.42
210.476	0.34
210.852	0.76
211.228	0.6
211.605	0.37
211.981	0.36
212.357	0.34
212.733	0.27
213.11	0.4
213.486	0.34
213.862	0.26
214.238	0.4
214.614	0.28
214.991	0.31
215.367	0.4
215.743	0.41
216.119	0.34
216.495	0.33
216.871	0.28
217.247	0.26
217.623	0.32
217.999	0.38
218.375	0.44
218.751	0.26
219.127	0.38
219.502	0.3
219.878	0.29
220.254	0.57
220.63	0.4
221.006	0.5
221.381	0.46
221.757	0.29
222.133	0.28
222.508	0.38
222.884	0.32
223.26	0.38
223.635	0.44
224.011	0.34
224.386	0.36
224.762	0.36
225.137	0.4
225.513	0.35
225.888	0.28
226.264	0.28
226.639	0.24
227.014	0.49
227.39	0.38
227.765	0.4
228.14	0.4
228.516	0.26
228.891	0.45
229.266	0.38
229.641	0.23
230.017	0.41
230.392	0.33
230.767	0.49
231.142	0.38
231.517	0.47
231.892	0.59
232.267	0.43
232.642	0.36
233.017	0.59
233.392	0.4
233.767	0.33
234.142	0.31
234.517	0.24
234.892	0.31
235.267	0.3
235.641	0.38
236.016	0.3
236.391	0.27
236.766	0.41
237.14	0.2
237.515	0.61
237.89	0.35
238.264	0.47
238.639	0.16
239.014	0.76
239.388	0.34
239.763	0.36
240.137	0.47
240.512	0.3
240.886	0.34
241.261	0.46
241.635	0.33
242.009	0.33
242.384	0.31
242.758	0.54
243.132	0.2
243.507	0.38
243.881	0.4
244.255	0.34
244.629	0.38
245.004	0.65
245.378	0.41
245.752	0.49
246.126	0.39
246.5	0.36
246.874	0.29
247.248	0.4
247.622	0.3
247.996	0.36
248.37	0.46
248.744	0.38
249.118	0.18
249.492	0.27
249.866	0.39
250.24	0.4
250.613	0.43
250.987	0.42
251.361	0.48
251.735	0.38
252.108	0.41
252.482	0.3
252.856	0.23
253.229	0.44
253.603	0.25
253.977	0.39
254.35	0.44
254.724	0.42
255.097	0.37
255.471	0.3
255.844	0.32
256.218	0.42
256.591	0.28
256.964	0.41
257.338	0.39
257.711	0.48
258.084	0.4
258.458	0.39
258.831	0.34
259.204	0.37
259.577	0.48
259.95	0.32
260.323	0.31
260.697	0.18
261.07	0.34
261.443	0.44
261.816	0.35
262.189	0.38
262.562	0.31
262.935	0.5
263.308	0.23
263.68	0.39
264.053	0.55
264.426	0.33
264.799	0.34
265.172	0.42
265.545	0.37
265.917	0.4
266.29	0.48
266.663	0.52
267.035	0.42
267.408	0.39
267.781	0.52
268.153	0.34
268.526	0.46
268.898	0.35
269.271	0.52
269.643	0.35
270.016	0.41
270.388	0.3
270.76	0.52
271.133	0.33
271.505	0.49
271.877	0.34
272.25	0.26
272.622	0.45
272.994	0.32
273.366	0.43
273.739	0.43
274.111	0.38
274.483	0.3
274.855	0.27
275.227	0.52
275.599	0.42
275.971	0.26
276.343	0.45
276.715	0.27
277.087	0.33
277.459	0.41
277.831	0.27
278.203	0.38
278.574	0.31
278.946	0.32
279.318	0.21
279.69	0.41
280.061	0.38
280.433	0.42
280.805	0.24
281.176	0.35
281.548	0.4
281.92	0.37
282.291	0.44
282.663	0.4
283.034	0.34
283.406	0.54
283.777	0.53
284.148	0.43
284.52	0.39
284.891	0.37
285.262	0.41
285.634	0.43
286.005	0.35
286.376	0.38
286.747	0.31
287.119	0.37
287.49	0.52
287.861	0.42
288.232	0.35
288.603	0.51
288.974	0.37
289.345	0.53
289.716	0.38
290.087	0.33
290.458	0.36
290.829	0.41
291.2	0.45
291.571	0.51
291.941	0.32
292.312	0.38
292.683	0.35
293.054	0.37
293.424	0.35
293.795	0.41
294.166	0.43
294.536	0.42
294.907	0.43
295.277	0.49
295.648	0.55
296.018	0.36
296.389	0.33
296.759	0.43
297.13	0.48
297.5	0.47
297.871	0.38
298.241	0.4
298.611	0.48
298.981	0.4
299.352	0.4
299.722	0.32
300.092	0.37
300.462	0.5
300.832	0.36
301.202	0.4
301.573	0.38
301.943	0.47
302.313	0.38
302.683	0.41
303.053	0.41
303.422	0.35
303.792	0.44
304.162	0.38
304.532	0.36
304.902	0.38
305.272	0.45
305.641	0.43
306.011	0.26
306.381	0.35
306.75	0.47
307.12	0.33
307.49	0.33
307.859	0.31
308.229	0.33
308.598	0.35
308.968	0.33
309.337	0.32
309.707	0.32
310.076	0.29
310.445	0.33
310.815	0.32
311.184	0.35
311.553	0.29
311.923	0.33
312.292	0.31
312.661	0.34
313.03	0.32
313.399	0.35
313.768	0.35
314.137	0.3
314.506	0.35
314.875	0.37
315.244	0.31
315.613	0.35
315.982	0.37
316.351	0.37
316.72	0.36
317.089	0.38
317.458	0.38
317.826	0.39
318.195	0.38
318.564	0.4
318.933	0.4
319.301	0.4
319.67	0.39
320.038	0.42
320.407	0.44
320.775	0.43
321.144	0.44
321.512	0.44
321.881	0.45
322.249	0.46
322.618	0.46
322.986	0.47
323.354	0.47
323.723	0.49
324.091	0.5
324.459	0.5
324.827	0.51
325.195	0.52
325.564	0.51
325.932	0.52
326.3	0.55
326.668	0.54
327.036	0.55
327.404	0.56
327.772	0.56
328.14	0.58
328.508	0.59
328.875	0.59
329.243	0.61
329.611	0.61
329.979	0.61
330.346	0.63
330.714	0.64
331.082	0.66
331.449	0.66
331.817	0.67
332.185	0.69
332.552	0.69
332.92	0.7
333.287	0.71
333.655	0.72
334.022	0.75
334.389	0.75
334.757	0.78
335.124	0.78
335.491	0.81
335.859	0.82
336.226	0.83
336.593	0.86
336.96	0.87
337.327	0.89
337.695	0.9
338.062	0.92
338.429	0.92
338.796	0.96
339.163	0.98
339.53	1
339.897	1.01
340.263	1.03
340.63	1.04
340.997	1.07
341.364	1.07
341.731	1.08
342.097	1.11
342.464	1.13
342.831	1.14
343.197	1.17
343.564	1.19
343.931	1.21
344.297	1.21
344.664	1.23
345.03	1.24
345.396	1.28
345.763	1.31
346.129	1.31
346.496	1.32
346.862	1.35
347.228	1.36
347.594	1.37
347.961	1.39
348.327	1.42
348.693	1.41
349.059	1.44
349.425	1.47
349.791	1.51
350.157	1.48
350.523	1.48
350.889	1.52
351.255	1.55
351.621	1.56
351.987	1.58
352.353	1.56
352.719	1.62
353.084	1.61
353.45	1.61
353.816	1.64
354.181	1.66
354.547	1.68
354.913	1.69
355.278	1.7
355.644	1.69
356.009	1.71
356.375	1.74
356.74	1.81
357.106	1.76
357.471	1.79
357.836	1.8
358.202	1.85
358.567	1.82
358.932	1.87
359.297	1.87
359.663	1.92
360.028	1.88
360.393	1.95
360.758	1.88
361.123	1.92
361.488	1.96
361.853	2.02
362.218	2.01
362.583	2.03
362.948	2.03
363.312	2.02
363.677	1.99
364.042	2.02
364.407	2.08
364.772	2.13
365.136	2.07
365.501	2.13
365.865	2.1
366.23	2.11
366.595	2.08
366.959	2.09
367.324	2.2
367.688	2.07
368.052	2.18
368.417	2.2
368.781	2.16
369.145	2.18
369.51	2.2
369.874	2.16
370.238	2.18
370.602	2.08
370.967	2.27
371.331	2.05
371.695	2.19
372.059	2.09
372.423	2.07
372.787	2.19
373.151	2.06
373.515	2.08
373.878	2.17
374.242	2.18
374.606	2.07
374.97	2.14
375.334	2.17
375.697	2.14
376.061	2.13
376.425	2.15
376.788	2.11
377.152	2.14
377.515	2.17
377.879	2.08
378.242	2.06
378.606	2.07
378.969	2.03
379.333	2.06
379.696	2.05
380.059	2.02
380.422	2.02
380.786	1.94
381.149	2.04
381.512	1.96
381.875	1.98
382.238	1.88
382.601	1.95
382.964	1.91
383.327	1.87
383.69	1.89
384.053	1.8
384.416	1.85
384.779	1.81
385.142	1.8
385.504	1.79
385.867	1.75
386.23	1.76
386.593	1.77
386.955	1.72
387.318	1.73
387.68	1.72
388.043	1.72
388.405	1.68
388.768	1.71
389.13	1.68
389.493	1.65
389.855	1.64
390.217	1.63
390.58	1.63
390.942	1.59
391.304	1.58
391.666	1.55
392.028	1.52
392.391	1.5
392.753	1.49
393.115	1.48
393.477	1.47
393.839	1.45
394.201	1.42
394.563	1.42
394.924	1.41
395.286	1.41
395.648	1.4
396.01	1.41
396.371	1.41
396.733	1.44
397.095	1.44
397.456	1.46
397.818	1.47
398.18	1.5
398.541	1.54
398.903	1.55
399.264	1.6
399.625	1.59
399.987	1.63
400.348	1.66
400.709	1.67
401.071	1.66
401.432	1.69
401.793	1.68
402.154	1.65
402.515	1.62
402.876	1.61
403.238	1.56
403.599	1.55
403.96	1.53
404.32	1.45
404.681	1.43
405.042	1.36
405.403	1.31
405.764	1.25
406.125	1.2
406.485	1.15
406.846	1.08
407.207	1.03
407.567	0.99
407.928	0.94
408.288	0.88
408.649	0.84
409.009	0.8
409.37	0.76
409.73	0.72
410.091	0.69
410.451	0.66
410.811	0.62
411.171	0.6
411.532	0.56
411.892	0.54
412.252	0.52
412.612	0.49
412.972	0.47
413.332	0.46
413.692	0.44
414.052	0.41
414.412	0.41
414.772	0.39
415.132	0.38
415.492	0.36
415.851	0.35
416.211	0.35
416.571	0.34
416.931	0.33
417.29	0.31
417.65	0.31
418.009	0.31
418.369	0.29
418.728	0.28
419.088	0.28
419.447	0.28
419.807	0.27
420.166	0.26
420.525	0.26
420.884	0.25
421.244	0.25
421.603	0.24
421.962	0.24
422.321	0.23
422.68	0.24
423.039	0.23
423.398	0.23
423.757	0.23
424.116	0.22
424.475	0.22
424.834	0.22
425.193	0.22
425.551	0.22
425.91	0.22
426.269	0.21
426.628	0.2
426.986	0.2
427.345	0.19
427.703	0.2
428.062	0.2
428.42	0.2
428.779	0.19
429.137	0.2
429.496	0.19
429.854	0.2
430.212	0.2
430.57	0.2
430.929	0.19
431.287	0.19
431.645	0.19
432.003	0.19
432.361	0.19
432.719	0.19
433.077	0.19
433.435	0.19
433.793	0.19
434.151	0.19
434.509	0.19
434.866	0.19
435.224	0.18
435.582	0.19
435.94	0.19
436.297	0.2
436.655	0.19
437.012	0.19
437.37	0.19
437.727	0.18
438.085	0.19
438.442	0.19
438.8	0.19
439.157	0.19
439.514	0.19
439.872	0.18
440.229	0.19
440.586	0.19
440.943	0.2
441.3	0.19
441.657	0.2
442.014	0.2
442.371	0.19
442.728	0.2
443.085	0.2
443.442	0.19
443.799	0.19
444.156	0.2
444.513	0.21
444.869	0.19
445.226	0.2
445.583	0.2
445.939	0.2
446.296	0.19
446.652	0.2
447.009	0.21
447.365	0.21
447.722	0.2
448.078	0.21
448.434	0.21
448.791	0.2
449.147	0.21
449.503	0.21
449.859	0.21
450.215	0.21
450.571	0.21
450.928	0.21
451.284	0.21
451.64	0.21
451.995	0.21
452.351	0.21
452.707	0.21
453.063	0.21
453.419	0.2
453.775	0.2
454.13	0.2
454.486	0.21
454.842	0.21
455.197	0.2
455.553	0.2
455.908	0.2
456.264	0.19
456.619	0.18
456.975	0.2
457.33	0.19
457.685	0.19
458.04	0.18
458.396	0.2
458.751	0.18
459.106	0.17
459.461	0.17
459.816	0.18
460.171	0.17
460.526	0.18
460.881	0.17
461.236	0.15
461.591	0.15
461.946	0.16
462.301	0.15
462.655	0.16
463.01	0.15
463.365	0.14
463.719	0.13
464.074	0.12
464.428	0.12
464.783	0.12
465.137	0.12
465.492	0.11
465.846	0.12
466.201	0.12
466.555	0.13
466.909	0.14
467.263	0.15
467.618	0.14
467.972	0.14
468.326	0.14
468.68	0.13
469.034	0.13
469.388	0.13
469.742	0.14
470.096	0.15
470.45	0.15
470.804	0.15
471.157	0.14
471.511	0.14
471.865	0.15
472.218	0.16
472.572	0.17
472.926	0.17
473.279	0.19
473.633	0.2
473.986	0.2
474.34	0.21
474.693	0.23
475.046	0.24
475.4	0.25
475.753	0.27
476.106	0.28
476.459	0.28
476.812	0.3
477.165	0.31
477.519	0.32
477.872	0.33
478.224	0.34
478.577	0.35
478.93	0.36
479.283	0.37
479.636	0.38
479.989	0.39
480.341	0.4
480.694	0.41
481.047	0.42
481.399	0.43
481.752	0.43
482.104	0.45
482.457	0.46
482.809	0.47
483.162	0.47
483.514	0.48
483.866	0.49
484.219	0.49
484.571	0.5
484.923	0.5
485.275	0.51
485.627	0.52
485.979	0.53
486.331	0.53
486.683	0.54
487.035	0.55
487.387	0.57
487.739	0.58
488.091	0.59
488.443	0.59
488.794	0.59
489.146	0.6
489.498	0.6
489.849	0.6
490.201	0.61
490.552	0.61
490.904	0.62
491.255	0.63
491.607	0.63
491.958	0.64
492.309	0.64
492.661	0.65
493.012	0.66
493.363	0.66
493.714	0.66
494.065	0.68
494.416	0.68
494.767	0.69
495.118	0.7
495.469	0.71
495.82	0.7
496.171	0.72
496.522	0.72
496.872	0.73
497.223	0.73
497.574	0.74
497.924	0.75
498.275	0.76
498.626	0.77
498.976	0.77
499.327	0.77
499.677	0.78
500.027	0.78
500.378	0.79
500.728	0.79
501.078	0.81
501.428	0.81
501.779	0.82
502.129	0.82
502.479	0.83
502.829	0.83
503.179	0.84
503.529	0.84
503.879	0.85
504.229	0.85
504.578	0.87
504.928	0.86
505.278	0.88
505.628	0.88
505.977	0.89
506.327	0.89
506.676	0.89
507.026	0.9
507.375	0.91
507.725	0.91
508.074	0.91
508.424	0.92
508.773	0.92
509.122	0.93
509.471	0.93
509.82	0.94
510.17	0.95
510.519	0.95
510.868	0.95
511.217	0.96
511.566	0.97
511.915	0.97
512.263	0.98
512.612	0.98
512.961	0.99
513.31	0.99
513.659	0.99
514.007	1.01
514.356	1.02
514.704	1.02
515.053	1.02
515.401	1.03
515.75	1.02
516.098	1.03
516.447	1.03
516.795	1.03
517.143	1.03
517.491	1.05
517.839	1.05
518.188	1.05
518.536	1.06
518.884	1.07
519.232	1.07
519.58	1.07
519.928	1.08
520.275	1.08
520.623	1.08
520.971	1.09
521.319	1.1
521.666	1.09
522.014	1.1
522.362	1.12
522.709	1.11
523.057	1.11
523.404	1.12
523.752	1.1
524.099	1.1
524.446	1.13
524.794	1.13
525.141	1.13
525.488	1.13
525.835	1.13
526.182	1.14
526.529	1.15
526.876	1.13
527.223	1.15
527.57	1.15
527.917	1.15
528.264	1.14
528.611	1.16
528.958	1.15
529.304	1.16
529.651	1.16
529.998	1.16
530.344	1.16
530.691	1.18
531.037	1.18
531.384	1.18
531.73	1.19
532.076	1.2
532.423	1.19
532.769	1.19
533.115	1.19
533.461	1.2
533.807	1.21
534.154	1.19
534.5	1.22
534.846	1.2
535.192	1.2
535.537	1.21
535.883	1.2
536.229	1.22
536.575	1.21
536.921	1.22
537.266	1.22
537.612	1.22
537.957	1.22
538.303	1.22
538.649	1.22
538.994	1.23
539.339	1.22
539.685	1.22
540.03	1.22
540.375	1.23
540.721	1.24
541.066	1.23
541.411	1.24
541.756	1.24
542.101	1.25
542.446	1.24
542.791	1.24
543.136	1.24
543.481	1.25
543.825	1.25
544.17	1.25
544.515	1.25
544.86	1.25
545.204	1.25
545.549	1.24
545.893	1.25
546.238	1.25
546.582	1.26
546.927	1.25
547.271	1.26
547.615	1.26
547.96	1.27
548.304	1.26
548.648	1.26
548.992	1.25
549.336	1.25
549.68	1.26
550.024	1.26
550.368	1.25
550.712	1.26
551.056	1.26
551.4	1.26
551.743	1.25
552.087	1.26
552.431	1.26
552.774	1.26
553.118	1.25
553.462	1.26
553.805	1.26
554.148	1.25
554.492	1.26
554.835	1.25
555.178	1.25
555.522	1.26
555.865	1.25
556.208	1.25
556.551	1.25
556.894	1.25
557.237	1.25
557.58	1.24
557.923	1.25
558.266	1.25
558.609	1.24
558.952	1.24
559.294	1.24
559.637	1.24
559.98	1.24
560.322	1.23
560.665	1.23
561.007	1.23
561.35	1.22
561.692	1.23
562.034	1.23
562.377	1.23
562.719	1.22
563.061	1.23
563.403	1.22
563.745	1.22
564.088	1.22
564.43	1.21
564.772	1.21
565.113	1.21
565.455	1.22
565.797	1.21
566.139	1.22
566.481	1.21
566.822	1.2
567.164	1.2
567.506	1.2
567.847	1.21
568.189	1.19
568.53	1.19
568.872	1.2
569.213	1.2
569.554	1.18
569.895	1.19
570.237	1.19
570.578	1.18
570.919	1.19
571.26	1.18
571.601	1.17
571.942	1.18
572.283	1.17
572.624	1.17
572.965	1.16
573.306	1.16
573.646	1.16
573.987	1.15
574.328	1.15
574.668	1.15
575.009	1.14
575.349	1.15
575.69	1.14
576.03	1.14
576.37	1.13
576.711	1.13
577.051	1.13
577.391	1.13
577.731	1.13
578.072	1.12
578.412	1.12
578.752	1.12
579.092	1.11
579.431	1.1
579.771	1.09
580.111	1.09
580.451	1.11
580.791	1.11
581.13	1.1
581.47	1.11
581.81	1.09
582.149	1.1
582.489	1.09
582.828	1.08
583.167	1.06
583.507	1.02
583.846	1.03
584.185	1.06
584.525	1.08
584.864	1.08
585.203	1.09
585.542	1.08
585.881	1.08
586.22	1.07
586.559	1.06
586.898	1.06
587.236	1.05
587.575	1.06
587.914	1.06
588.252	1.06
588.591	1.07
588.93	1.06
589.268	1.05
589.607	1.06
589.945	1.05
590.283	1.06
590.622	1.05
590.96	1.06
591.298	1.06
591.636	1.05
591.974	1.06
592.313	1.05
592.651	1.05
592.989	1.05
593.326	1.05
593.664	1.04
594.002	1.05
594.34	1.04
594.678	1.04
595.015	1.04
595.353	1.03
595.691	1.04
596.028	1.05
596.366	1.04
596.703	1.04
597.04	1.04
597.378	1.04
597.715	1.03
598.052	1.03
598.389	1.03
598.726	1.03
599.064	1.03
599.401	1.03
599.738	1.02
600.074	1.03
600.411	1.02
600.748	1.02
601.085	1.02
601.422	1.01
601.758	1.01
602.095	1.01
602.432	1.01
602.768	1.01
603.105	1.01
603.441	1.01
603.777	1.01
604.114	1.01
604.45	1.01
604.786	1
605.122	0.99
605.459	0.99
605.795	0.99
606.131	0.99
606.467	0.99
606.803	0.99
607.139	0.99
607.474	0.97
607.81	0.98
608.146	0.98
608.482	0.97
608.817	0.96
609.153	0.96
609.488	0.96
609.824	0.96
610.159	0.96
610.495	0.96
610.83	0.96
611.165	0.96
611.5	0.95
611.836	0.95
612.171	0.95
612.506	0.94
612.841	0.94
613.176	0.94
613.511	0.93
613.845	0.93
614.18	0.92
614.515	0.93
614.85	0.92
615.184	0.91
615.519	0.92
615.854	0.91
616.188	0.9
616.523	0.9
616.857	0.9
617.191	0.89
617.526	0.9
617.86	0.89
618.194	0.89
618.528	0.88
618.862	0.88
619.196	0.88
619.53	0.87
619.864	0.88
620.198	0.87
620.532	0.86
620.866	0.86
621.2	0.86
621.533	0.85
621.867	0.85
622.201	0.84
622.534	0.84
622.868	0.84
623.201	0.84
623.534	0.83
623.868	0.83
624.201	0.82
624.534	0.82
624.868	0.82
625.201	0.81
625.534	0.81
625.867	0.81
626.2	0.8
626.533	0.8
626.865	0.8
627.198	0.8
627.531	0.8
627.864	0.79
628.196	0.78
628.529	0.78
628.862	0.78
629.194	0.77
629.527	0.76
629.859	0.76
630.191	0.76
630.524	0.75
630.856	0.75
631.188	0.75
631.52	0.74
631.852	0.74
632.184	0.73
632.516	0.73
632.848	0.72
633.18	0.72
633.512	0.72
633.844	0.71
634.175	0.7
634.507	0.7
634.839	0.69
635.17	0.69
635.502	0.69
635.833	0.68
636.165	0.68
636.496	0.68
636.827	0.67
637.159	0.67
637.49	0.67
637.821	0.66
638.152	0.65
638.483	0.65
638.814	0.64
639.145	0.64
639.476	0.64
639.807	0.64
640.137	0.63
640.468	0.62
640.799	0.62
641.129	0.61
641.46	0.61
641.791	0.61
642.121	0.61
642.451	0.6
642.782	0.6
643.112	0.59
643.442	0.59
643.773	0.59
644.103	0.59
644.433	0.58
644.763	0.58
645.093	0.57
645.423	0.57
645.753	0.57
646.082	0.57
646.412	0.56
646.742	0.56
647.072	0.56
647.401	0.56
647.731	0.55
648.06	0.55
648.39	0.55
648.719	0.55
649.048	0.54
649.378	0.54
649.707	0.54
650.036	0.54
650.365	0.53
650.694	0.53
651.023	0.52
651.352	0.53
651.681	0.53
652.01	0.53
652.339	0.52
652.668	0.52
652.996	0.52
653.325	0.51
653.654	0.51
653.982	0.51
654.311	0.51
654.639	0.51
654.967	0.5
655.296	0.5
655.624	0.5
655.952	0.5
656.28	0.5
656.609	0.49
656.937	0.49
657.265	0.47
657.593	0.33
657.92	0.24
658.248	0.21
658.576	0.3
658.904	0.43
659.231	0.48
659.559	0.48
659.887	0.48
660.214	0.48
660.542	0.47
660.869	0.47
661.196	0.47
661.524	0.47
661.851	0.47
662.178	0.46
662.505	0.46
662.832	0.46
663.159	0.46
663.486	0.45
663.813	0.46
664.14	0.45
664.467	0.45
664.794	0.45
665.12	0.45
665.447	0.45
665.774	0.44
666.1	0.44
666.427	0.44
666.753	0.44
667.079	0.43
667.406	0.43
667.732	0.43
668.058	0.42
668.384	0.43
668.71	0.42
669.036	0.42
669.362	0.42
669.688	0.41
670.014	0.41
670.34	0.41
670.666	0.4
670.991	0.41
671.317	0.4
671.643	0.4
671.968	0.4
672.294	0.39
672.619	0.39
672.945	0.39
673.27	0.39
673.595	0.38
673.92	0.38
674.246	0.38
674.571	0.37
674.896	0.37
675.221	0.37
675.546	0.37
675.87	0.36
676.195	0.36
676.52	0.36
676.845	0.35
677.169	0.35
677.494	0.35
677.819	0.34
678.143	0.34
678.468	0.34
678.792	0.34
679.116	0.33
679.44	0.33
679.765	0.32
680.089	0.32
680.413	0.31
680.737	0.31
681.061	0.31
681.385	0.31
681.709	0.3
682.033	0.3
682.356	0.3
682.68	0.3
683.004	0.3
683.327	0.29
683.651	0.29
683.974	0.28
684.298	0.28
684.621	0.28
684.944	0.28
685.268	0.27
685.591	0.27
685.914	0.27
686.237	0.27
686.56	0.26
686.883	0.26
687.206	0.26
687.529	0.25
687.852	0.25
688.175	0.25
688.497	0.25
688.82	0.25
689.142	0.24
689.465	0.24
689.787	0.24
690.11	0.23
690.432	0.23
690.755	0.23
691.077	0.22
691.399	0.22
691.721	0.22
692.043	0.22
692.365	0.22
692.687	0.21
693.009	0.21
693.331	0.21
693.653	0.2
693.974	0.21
694.296	0.2
694.618	0.2
694.939	0.2
695.261	0.19
695.582	0.19
695.904	0.19
696.225	0.19
696.546	0.19
696.868	0.18
697.189	0.19
697.51	0.18
697.831	0.18
698.152	0.18
698.473	0.18
698.794	0.17
699.114	0.17
699.435	0.17
699.756	0.17
700.077	0.17
700.397	0.17
700.718	0.17
701.038	0.17
701.359	0.17
701.679	0.16
701.999	0.17
702.32	0.16
702.64	0.16
702.96	0.17
703.28	0.16
703.6	0.16
703.92	0.16
704.24	0.16
704.56	0.15
704.879	0.15
705.199	0.16
705.519	0.16
705.838	0.15
706.158	0.16
706.478	0.15
706.797	0.15
707.116	0.15
707.436	0.15
707.755	0.15
708.074	0.15
708.393	0.14
708.712	0.14
709.031	0.13
709.35	0.13
709.669	0.13
709.988	0.14
710.307	0.14
710.626	0.14
710.944	0.14
711.263	0.14
711.582	0.14
711.9	0.14
712.219	0.14
712.537	0.14
712.855	0.14
713.174	0.14
713.492	0.14
713.81	0.14
714.128	0.14
714.446	0.14
714.764	0.14
715.082	0.13
715.4	0.14
715.718	0.14
716.035	0.14
716.353	0.14
716.671	0.14
716.988	0.14
717.306	0.14
717.623	0.14
717.941	0.14
718.258	0.14
718.575	0.15
718.893	0.14
719.21	0.14
719.527	0.14
719.844	0.14
720.161	0.14
720.478	0.14
720.795	0.15
721.112	0.15
721.428	0.15
721.745	0.14
722.062	0.15
722.378	0.15
722.695	0.15
723.011	0.15
723.328	0.15
723.644	0.15
723.96	0.15
724.276	0.15
724.593	0.15
724.909	0.15
725.225	0.15
725.541	0.15
725.857	0.15
726.173	0.15
726.488	0.15
726.804	0.15
727.12	0.15
727.435	0.15
727.751	0.15
728.067	0.15
728.382	0.15
728.697	0.15
729.013	0.15
729.328	0.15
729.643	0.15
729.958	0.15
730.273	0.15
730.588	0.14
730.903	0.15
731.218	0.14
731.533	0.15
731.848	0.14
732.163	0.14
732.477	0.14
732.792	0.14
733.107	0.13
733.421	0.14
733.736	0.14
734.05	0.14
734.364	0.14
734.678	0.14
734.993	0.14
735.307	0.14
735.621	0.14
735.935	0.14
736.249	0.14
736.563	0.14
736.877	0.14
737.19	0.14
737.504	0.14
737.818	0.14
738.131	0.14
738.445	0.14
738.758	0.14
739.072	0.14
739.385	0.13
739.698	0.13
740.012	0.14
740.325	0.13
740.638	0.13
740.951	0.13
741.264	0.12
741.577	0.13
741.89	0.13
742.203	0.13
742.515	0.13
742.828	0.13
743.141	0.13
743.453	0.12
743.766	0.12
744.078	0.12
744.391	0.12
744.703	0.12
745.015	0.12
745.327	0.12
745.639	0.12
745.952	0.12
746.264	0.12
746.575	0.12
746.887	0.11
747.199	0.11
747.511	0.11
747.823	0.11
748.134	0.11
748.446	0.11
748.757	0.11
749.069	0.11
749.38	0.11
749.692	0.11
750.003	0.11
750.314	0.1
750.625	0.1
750.936	0.1
751.248	0.1
751.559	0.1
751.869	0.1
752.18	0.1
752.491	0.1
752.802	0.1
753.112	0.1
753.423	0.09
753.734	0.09
754.044	0.09
754.355	0.09
754.665	0.09
754.975	0.09
755.285	0.09
755.596	0.09
755.906	0.09
756.216	0.09
756.526	0.09
756.836	0.09
757.146	0.09
757.455	0.09
757.765	0.08
758.075	0.09
758.385	0.08
758.694	0.08
759.004	0.08
759.313	0.08
759.622	0.08
759.932	0.08
760.241	0.08
760.55	0.08
760.859	0.08
761.168	0.08
761.477	0.08
761.786	0.08
762.095	0.08
762.404	0.08
762.713	0.08
763.021	0.08
763.33	0.08
763.639	0.08
763.947	0.08
764.256	0.08
764.564	0.08
764.872	0.08
765.181	0.08
765.489	0.08
765.797	0.07
766.105	0.08
766.413	0.07
766.721	0.08
767.029	0.08
767.337	0.08
767.644	0.08
767.952	0.08
768.26	0.08
768.567	0.08
768.875	0.08
769.182	0.07
769.49	0.07
769.797	0.07
770.104	0.08
770.411	0.08
770.718	0.07
771.026	0.08
771.333	0.08
771.639	0.08
771.946	0.08
772.253	0.08
772.56	0.08
772.867	0.08
773.173	0.08
773.48	0.08
773.786	0.08
774.093	0.08
774.399	0.08
774.705	0.08
775.012	0.08
775.318	0.08
775.624	0.08
775.93	0.08
776.236	0.08
776.542	0.08
776.848	0.08
777.154	0.08
777.459	0.08
777.765	0.08
778.071	0.08
778.376	0.08
778.682	0.08
778.987	0.08
779.292	0.08
779.598	0.08
779.903	0.08
780.208	0.08
780.513	0.08
780.818	0.08
781.123	0.08
781.428	0.08
781.733	0.08
782.038	0.08
782.343	0.08
782.647	0.08
782.952	0.08
783.256	0.08
783.561	0.09
783.865	0.09
784.17	0.09
784.474	0.09
784.778	0.09
785.082	0.09
785.386	0.09
785.69	0.09
785.994	0.09
786.298	0.09
786.602	0.09
786.906	0.09
787.209	0.09
787.513	0.09
787.817	0.09
788.12	0.09
788.424	0.09
788.727	0.09
789.03	0.09
789.333	0.09
789.637	0.09
789.94	0.09
790.243	0.09
790.546	0.09
790.849	0.09
791.152	0.09
791.454	0.09
791.757	0.09
792.06	0.09
792.362	0.09
792.665	0.09
792.967	0.09
793.27	0.09
793.572	0.09
793.874	0.09
794.177	0.09
794.479	0.09
794.781	0.1
795.083	0.09
795.385	0.1
795.687	0.1
795.989	0.1
796.29	0.1
796.592	0.1
796.894	0.1
797.195	0.1
797.497	0.1
797.798	0.1
798.1	0.11
798.401	0.1
798.702	0.11
799.003	0.1
799.304	0.1
799.605	0.1
799.906	0.11
800.207	0.1
800.508	0.1
800.809	0.1
801.11	0.1
801.41	0.11
801.711	0.11
802.011	0.11
802.312	0.1
802.612	0.11
802.913	0.11
803.213	0.11
803.513	0.11
803.813	0.11
804.113	0.11
804.413	0.11
804.713	0.11
805.013	0.11
805.313	0.11
805.613	0.12
805.912	0.12
806.212	0.12
806.511	0.11
806.811	0.11
807.11	0.11
807.41	0.12
807.709	0.12
808.008	0.11
808.307	0.11
808.606	0.12
808.905	0.11
809.204	0.12
809.503	0.12
809.802	0.12
810.101	0.12
810.399	0.12
810.698	0.12
810.997	0.12
811.295	0.12
811.593	0.13
811.892	0.12
812.19	0.13
812.488	0.13
812.786	0.13
813.084	0.13
813.383	0.13
813.68	0.13
813.978	0.13
814.276	0.13
814.574	0.13
814.872	0.13
815.169	0.13
815.467	0.13
815.764	0.13
816.062	0.13
816.359	0.13
816.656	0.13
816.954	0.13
817.251	0.14
817.548	0.13
817.845	0.13
818.142	0.14
818.439	0.14
818.735	0.13
819.032	0.14
819.329	0.14
819.626	0.14
819.922	0.14
820.219	0.14
820.515	0.14
820.811	0.14
821.108	0.14
821.404	0.14
821.7	0.15
821.996	0.14
822.292	0.14
822.588	0.15
822.884	0.15
823.18	0.15
823.475	0.14
823.771	0.15
824.067	0.14
824.362	0.15
824.658	0.15
824.953	0.15
825.249	0.15
825.544	0.15
825.839	0.15
826.134	0.15
826.429	0.16
826.724	0.16
827.019	0.15
827.314	0.15
827.609	0.15
827.904	0.16
828.198	0.15
828.493	0.16
828.787	0.15
829.082	0.16
829.376	0.15
829.671	0.16
829.965	0.16
830.259	0.16
830.553	0.17
830.847	0.17
831.141	0.17
831.435	0.17
831.729	0.17
832.023	0.17
832.317	0.18
832.61	0.17
832.904	0.17
833.197	0.17
833.491	0.17
833.784	0.17
834.077	0.17
834.371	0.16
834.664	0.16
834.957	0.17
835.25	0.17
835.543	0.17
835.836	0.17
836.129	0.17
836.421	0.18
836.714	0.18
837.007	0.17
837.299	0.18
837.592	0.18
837.884	0.18
838.177	0.17
838.469	0.19
838.761	0.18
839.053	0.19
839.345	0.19
839.637	0.19
839.929	0.19
840.221	0.18
840.513	0.18
840.805	0.19
841.096	0.18
841.388	0.18
841.68	0.18
841.971	0.19
842.262	0.19
842.554	0.19
842.845	0.19
843.136	0.19
843.427	0.19
843.718	0.19
844.009	0.19
844.3	0.2
844.591	0.19
844.882	0.19
845.173	0.2
845.463	0.19
845.754	0.19
846.044	0.2
846.335	0.19
846.625	0.2
846.915	0.19
847.206	0.2
847.496	0.2
847.786	0.2
848.076	0.2
848.366	0.2
848.656	0.2
848.945	0.2
849.235	0.2
849.525	0.2
849.814	0.2
850.104	0.2
850.393	0.21
850.683	0.21
850.972	0.21
851.261	0.2
851.551	0.21
851.84	0.21
852.129	0.2
852.418	0.2
852.707	0.22
852.995	0.22
853.284	0.21
853.573	0.2
853.862	0.21
854.15	0.22
854.439	0.22
854.727	0.22
855.015	0.21
855.304	0.21
855.592	0.2
855.88	0.21
856.168	0.22
856.456	0.2
856.744	0.21
857.032	0.23
857.32	0.24
857.607	0.22
857.895	0.23
858.183	0.23
858.47	0.23
858.757	0.23
859.045	0.23
859.332	0.21
859.619	0.22
859.907	0.21
860.194	0.23
860.481	0.24
860.768	0.21
861.054	0.24
861.341	0.2
861.628	0.22
861.915	0.25
862.201	0.25
862.488	0.2
862.774	0.23
863.061	0.23
863.347	0.24
863.633	0.25
863.919	0.22
864.205	0.23
864.491	0.23
864.777	0.23
865.063	0.21
865.349	0.21
865.635	0.22
865.92	0.21
866.206	0.2
866.492	0.22
866.777	0.22
867.062	0.18
867.348	0.2
867.633	0.26
867.918	0.19
868.203	0.27
868.488	0.24
868.773	0.24
869.058	0.27
869.343	0.3
869.628	0.19
869.912	0.21
870.197	0.27
870.482	0.23
870.766	0.19
871.05	0.19
871.335	0.18
871.619	0.2
871.903	0.17
872.187	0.22
872.471	0.19
872.755	0.21
873.039	0.2
873.323	0.19
873.607	0.17
873.89	0.23
874.174	0.22
874.458	0.14
874.741	0.22
875.024	0.17
875.308	0.18
875.591	0.25
875.874	0.22
876.157	0.17
876.44	0.17
876.723	0.18
877.006	0.15
877.289	0.17
877.572	0.34
877.854	0.2
878.137	0.16
878.42	0.15
878.702	0.11
878.984	0.05
879.267	0.2
879.549	0.22
879.831	0.28
880.113	0.2
880.395	0.12
880.677	0.15
880.959	0.19
