Data from Rubpy_BV_1800_EDTA_Buffered_Absorbance_16-46-47-675.txt Node
Date: Wed Jul 01 16:46:47 BST 2026
User: fpm-admin
Spectrometer: OFX00224
Trigger mode: 0
Integration Time (sec): 7.000000E-2
Scans to average: 3
Nonlinearity correction enabled: false
Boxcar width: 0
Storing dark spectrum: false
XAxis mode: Wavelengths
Number of Pixels in Spectrum: 2136
>>>>>Begin Spectral Data<<<<<
154.91	-0
155.289	-0.02
155.669	0.42
156.048	-0
156.428	-0
156.807	0.19
157.186	-0
157.566	0.52
157.945	-0
158.325	0.11
158.704	-0.29
159.083	0.51
159.462	-0
159.842	-0
160.221	-0
160.6	-0
160.979	-0
161.359	-0.3
161.738	-0
162.117	0.3
162.496	-0.02
162.875	0.19
163.254	-0.09
163.633	-0
164.012	0.12
164.391	0.5
164.77	-0.02
165.149	-0
165.528	-0
165.907	-0.18
166.286	0.36
166.665	-0.17
167.044	-0
167.423	0.73
167.802	-0.39
168.181	-1.51
168.559	-0.08
168.938	-0
169.317	-0
169.696	-1.48
170.074	-0.56
170.453	-0.51
170.832	-0
171.21	1.01
171.589	-0
171.968	1.05
172.346	-0
172.725	-0
173.103	-0.15
173.482	0.54
173.861	-0
174.239	-0.08
174.617	-0.18
174.996	0.85
175.374	-0
175.753	-0.83
176.131	-0
176.51	-0.3
176.888	-0
177.266	-0
177.645	0.01
178.023	0.9
178.401	-0.22
178.779	0.01
179.158	-0
179.536	0.09
179.914	0.41
180.292	0.92
180.67	-0.39
181.048	0.94
181.427	-0.57
181.805	-0
182.183	-0.3
182.561	-0
182.939	0.1
183.317	-0.69
183.695	-0.05
184.073	-0
184.451	-0
184.829	-0.19
185.206	-0.32
185.584	-0
185.962	-0.52
186.34	-0.25
186.718	-0.1
187.096	-0
187.473	0.3
187.851	-0.41
188.229	-0.1
188.607	0.22
188.984	0.29
189.362	0.5
189.74	0.3
190.117	0.13
190.495	0.45
190.872	0.32
191.25	0.32
191.627	0.38
192.005	0.41
192.382	0.3
192.76	0.32
193.137	0.48
193.515	0.25
193.892	0.23
194.269	0.23
194.647	0.19
195.024	0.21
195.401	0.3
195.779	0.3
196.156	0.39
196.533	0.42
196.91	0.23
197.288	0.31
197.665	0.23
198.042	0.19
198.419	0.44
198.796	0.14
199.173	0.3
199.55	0.26
199.927	0.14
200.304	0.22
200.681	0.19
201.058	0.12
201.435	0.39
201.812	0.23
202.189	0.23
202.566	0.41
202.943	0.16
203.32	0.36
203.697	0.26
204.073	0.27
204.45	0.23
204.827	0.16
205.204	0.17
205.58	0.44
205.957	0.3
206.334	0.21
206.71	0.27
207.087	0.39
207.464	0.34
207.84	0.41
208.217	0.26
208.593	0.15
208.97	0.35
209.346	0.24
209.723	0.42
210.099	0.43
210.476	0.33
210.852	0.39
211.228	0.24
211.605	0.34
211.981	0.34
212.357	0.39
212.733	0.39
213.11	0.39
213.486	0.42
213.862	0.28
214.238	0.24
214.614	0.24
214.991	0.33
215.367	0.38
215.743	0.23
216.119	0.28
216.495	0.29
216.871	0.22
217.247	0.27
217.623	0.24
217.999	0.36
218.375	0.4
218.751	0.31
219.127	0.29
219.502	0.19
219.878	0.18
220.254	0.2
220.63	0.28
221.006	0.35
221.381	0.36
221.757	0.26
222.133	0.33
222.508	0.42
222.884	0.34
223.26	0.21
223.635	0.35
224.011	0.25
224.386	0.21
224.762	0.49
225.137	0.35
225.513	0.2
225.888	0.28
226.264	0.27
226.639	0.27
227.014	0.4
227.39	0.3
227.765	0.27
228.14	0.31
228.516	0.29
228.891	0.31
229.266	0.2
229.641	0.22
230.017	0.3
230.392	0.35
230.767	0.3
231.142	0.22
231.517	0.44
231.892	0.33
232.267	0.35
232.642	0.22
233.017	0.24
233.392	0.27
233.767	0.34
234.142	0.36
234.517	0.25
234.892	0.33
235.267	0.26
235.641	0.41
236.016	0.31
236.391	0.19
236.766	0.19
237.14	0.19
237.515	0.28
237.89	0.37
238.264	0.33
238.639	0.23
239.014	0.48
239.388	0.4
239.763	0.41
240.137	0.41
240.512	0.25
240.886	0.42
241.261	0.24
241.635	0.22
242.009	0.43
242.384	0.18
242.758	0.23
243.132	0.2
243.507	0.25
243.881	0.33
244.255	0.34
244.629	0.28
245.004	0.49
245.378	0.27
245.752	0.37
246.126	0.3
246.5	0.27
246.874	0.19
247.248	0.34
247.622	0.53
247.996	0.29
248.37	0.3
248.744	0.28
249.118	0.23
249.492	0.29
249.866	0.37
250.24	0.33
250.613	0.42
250.987	0.29
251.361	0.32
251.735	0.35
252.108	0.42
252.482	0.33
252.856	0.17
253.229	0.35
253.603	0.24
253.977	0.3
254.35	0.23
254.724	0.3
255.097	0.28
255.471	0.31
255.844	0.31
256.218	0.37
256.591	0.21
256.964	0.42
257.338	0.21
257.711	0.3
258.084	0.24
258.458	0.29
258.831	0.4
259.204	0.46
259.577	0.28
259.95	0.3
260.323	0.46
260.697	0.3
261.07	0.23
261.443	0.33
261.816	0.28
262.189	0.34
262.562	0.28
262.935	0.36
263.308	0.22
263.68	0.25
264.053	0.22
264.426	0.39
264.799	0.31
265.172	0.29
265.545	0.43
265.917	0.42
266.29	0.33
266.663	0.27
267.035	0.33
267.408	0.31
267.781	0.35
268.153	0.32
268.526	0.21
268.898	0.32
269.271	0.35
269.643	0.25
270.016	0.51
270.388	0.28
270.76	0.35
271.133	0.34
271.505	0.41
271.877	0.23
272.25	0.3
272.622	0.35
272.994	0.35
273.366	0.42
273.739	0.36
274.111	0.32
274.483	0.26
274.855	0.28
275.227	0.42
275.599	0.28
275.971	0.29
276.343	0.27
276.715	0.3
277.087	0.33
277.459	0.42
277.831	0.34
278.203	0.28
278.574	0.33
278.946	0.26
279.318	0.22
279.69	0.25
280.061	0.33
280.433	0.27
280.805	0.3
281.176	0.29
281.548	0.27
281.92	0.36
282.291	0.28
282.663	0.29
283.034	0.25
283.406	0.3
283.777	0.38
284.148	0.31
284.52	0.4
284.891	0.42
285.262	0.31
285.634	0.38
286.005	0.29
286.376	0.25
286.747	0.23
287.119	0.27
287.49	0.37
287.861	0.31
288.232	0.51
288.603	0.42
288.974	0.25
289.345	0.32
289.716	0.31
290.087	0.29
290.458	0.32
290.829	0.37
291.2	0.3
291.571	0.27
291.941	0.27
292.312	0.27
292.683	0.34
293.054	0.35
293.424	0.27
293.795	0.31
294.166	0.33
294.536	0.3
294.907	0.19
295.277	0.3
295.648	0.4
296.018	0.27
296.389	0.24
296.759	0.39
297.13	0.35
297.5	0.39
297.871	0.31
298.241	0.47
298.611	0.4
298.981	0.31
299.352	0.36
299.722	0.34
300.092	0.37
300.462	0.4
300.832	0.41
301.202	0.36
301.573	0.24
301.943	0.25
302.313	0.27
302.683	0.32
303.053	0.35
303.422	0.35
303.792	0.29
304.162	0.32
304.532	0.28
304.902	0.26
305.272	0.27
305.641	0.33
306.011	0.32
306.381	0.34
306.75	0.33
307.12	0.32
307.49	0.25
307.859	0.24
308.229	0.28
308.598	0.24
308.968	0.27
309.337	0.28
309.707	0.21
310.076	0.2
310.445	0.23
310.815	0.22
311.184	0.25
311.553	0.25
311.923	0.24
312.292	0.21
312.661	0.24
313.03	0.19
313.399	0.23
313.768	0.25
314.137	0.2
314.506	0.23
314.875	0.21
315.244	0.2
315.613	0.21
315.982	0.24
316.351	0.24
316.72	0.22
317.089	0.24
317.458	0.25
317.826	0.24
318.195	0.24
318.564	0.25
318.933	0.26
319.301	0.24
319.67	0.25
320.038	0.26
320.407	0.26
320.775	0.27
321.144	0.26
321.512	0.28
321.881	0.27
322.249	0.28
322.618	0.28
322.986	0.28
323.354	0.28
323.723	0.28
324.091	0.3
324.459	0.3
324.827	0.3
325.195	0.31
325.564	0.31
325.932	0.31
326.3	0.31
326.668	0.32
327.036	0.32
327.404	0.34
327.772	0.34
328.14	0.33
328.508	0.34
328.875	0.35
329.243	0.35
329.611	0.36
329.979	0.36
330.346	0.36
330.714	0.38
331.082	0.38
331.449	0.39
331.817	0.39
332.185	0.4
332.552	0.4
332.92	0.41
333.287	0.42
333.655	0.42
334.022	0.44
334.389	0.44
334.757	0.44
335.124	0.46
335.491	0.47
335.859	0.48
336.226	0.49
336.593	0.49
336.96	0.5
337.327	0.51
337.695	0.52
338.062	0.52
338.429	0.54
338.796	0.55
339.163	0.56
339.53	0.57
339.897	0.57
340.263	0.6
340.63	0.6
340.997	0.61
341.364	0.62
341.731	0.63
342.097	0.64
342.464	0.65
342.831	0.66
343.197	0.67
343.564	0.68
343.931	0.69
344.297	0.7
344.664	0.71
345.03	0.71
345.396	0.73
345.763	0.76
346.129	0.76
346.496	0.76
346.862	0.78
347.228	0.78
347.594	0.8
347.961	0.82
348.327	0.82
348.693	0.83
349.059	0.85
349.425	0.85
349.791	0.87
350.157	0.87
350.523	0.88
350.889	0.89
351.255	0.91
351.621	0.91
351.987	0.92
352.353	0.93
352.719	0.94
353.084	0.96
353.45	0.96
353.816	0.98
354.181	0.98
354.547	0.99
354.913	1.02
355.278	1.02
355.644	1.03
356.009	1.05
356.375	1.05
356.74	1.08
357.106	1.08
357.471	1.11
357.836	1.11
358.202	1.13
358.567	1.15
358.932	1.16
359.297	1.17
359.663	1.18
360.028	1.2
360.393	1.21
360.758	1.22
361.123	1.24
361.488	1.28
361.853	1.3
362.218	1.29
362.583	1.31
362.948	1.34
363.312	1.33
363.677	1.34
364.042	1.35
364.407	1.39
364.772	1.39
365.136	1.4
365.501	1.41
365.865	1.43
366.23	1.45
366.595	1.43
366.959	1.47
367.324	1.47
367.688	1.5
368.052	1.5
368.417	1.51
368.781	1.51
369.145	1.52
369.51	1.52
369.874	1.53
370.238	1.55
370.602	1.52
370.967	1.57
371.331	1.53
371.695	1.56
372.059	1.58
372.423	1.56
372.787	1.56
373.151	1.53
373.515	1.52
373.878	1.59
374.242	1.55
374.606	1.54
374.97	1.54
375.334	1.53
375.697	1.52
376.061	1.49
376.425	1.52
376.788	1.5
377.152	1.46
377.515	1.46
377.879	1.42
378.242	1.4
378.606	1.41
378.969	1.37
379.333	1.4
379.696	1.35
380.059	1.35
380.422	1.32
380.786	1.3
381.149	1.31
381.512	1.28
381.875	1.27
382.238	1.26
382.601	1.24
382.964	1.23
383.327	1.21
383.69	1.22
384.053	1.18
384.416	1.19
384.779	1.17
385.142	1.16
385.504	1.15
385.867	1.15
386.23	1.14
386.593	1.13
386.955	1.12
387.318	1.12
387.68	1.11
388.043	1.12
388.405	1.1
388.768	1.11
389.13	1.1
389.493	1.09
389.855	1.09
390.217	1.09
390.58	1.07
390.942	1.05
391.304	1.05
391.666	1.03
392.028	1.01
392.391	1.01
392.753	0.99
393.115	0.99
393.477	0.97
393.839	0.96
394.201	0.95
394.563	0.95
394.924	0.95
395.286	0.94
395.648	0.95
396.01	0.94
396.371	0.97
396.733	0.99
397.095	0.99
397.456	1.01
397.818	1.02
398.18	1.04
398.541	1.07
398.903	1.09
399.264	1.13
399.625	1.14
399.987	1.17
400.348	1.19
400.709	1.2
401.071	1.21
401.432	1.2
401.793	1.2
402.154	1.2
402.515	1.18
402.876	1.17
403.238	1.13
403.599	1.1
403.96	1.08
404.32	1.04
404.681	1.01
405.042	0.96
405.403	0.92
405.764	0.86
406.125	0.84
406.485	0.8
406.846	0.76
407.207	0.7
407.567	0.68
407.928	0.64
408.288	0.61
408.649	0.57
409.009	0.55
409.37	0.51
409.73	0.48
410.091	0.46
410.451	0.43
410.811	0.41
411.171	0.39
411.532	0.37
411.892	0.35
412.252	0.34
412.612	0.33
412.972	0.3
413.332	0.3
413.692	0.28
414.052	0.28
414.412	0.26
414.772	0.25
415.132	0.25
415.492	0.23
415.851	0.23
416.211	0.22
416.571	0.22
416.931	0.21
417.29	0.2
417.65	0.2
418.009	0.2
418.369	0.19
418.728	0.19
419.088	0.18
419.447	0.18
419.807	0.18
420.166	0.16
420.525	0.16
420.884	0.16
421.244	0.16
421.603	0.16
421.962	0.15
422.321	0.16
422.68	0.15
423.039	0.14
423.398	0.14
423.757	0.15
424.116	0.15
424.475	0.14
424.834	0.14
425.193	0.14
425.551	0.14
425.91	0.13
426.269	0.13
426.628	0.13
426.986	0.13
427.345	0.13
427.703	0.12
428.062	0.13
428.42	0.13
428.779	0.13
429.137	0.14
429.496	0.12
429.854	0.12
430.212	0.12
430.57	0.12
430.929	0.12
431.287	0.11
431.645	0.13
432.003	0.12
432.361	0.12
432.719	0.12
433.077	0.12
433.435	0.12
433.793	0.12
434.151	0.12
434.509	0.12
434.866	0.11
435.224	0.12
435.582	0.11
435.94	0.12
436.297	0.11
436.655	0.12
437.012	0.11
437.37	0.12
437.727	0.12
438.085	0.12
438.442	0.11
438.8	0.12
439.157	0.12
439.514	0.1
439.872	0.11
440.229	0.11
440.586	0.11
440.943	0.12
441.3	0.12
441.657	0.12
442.014	0.11
442.371	0.11
442.728	0.12
443.085	0.12
443.442	0.12
443.799	0.11
444.156	0.11
444.513	0.12
444.869	0.1
445.226	0.12
445.583	0.12
445.939	0.12
446.296	0.1
446.652	0.12
447.009	0.12
447.365	0.12
447.722	0.11
448.078	0.11
448.434	0.12
448.791	0.12
449.147	0.12
449.503	0.11
449.859	0.1
450.215	0.11
450.571	0.11
450.928	0.12
451.284	0.12
451.64	0.12
451.995	0.11
452.351	0.12
452.707	0.11
453.063	0.11
453.419	0.11
453.775	0.1
454.13	0.1
454.486	0.1
454.842	0.11
455.197	0.1
455.553	0.11
455.908	0.09
456.264	0.09
456.619	0.1
456.975	0.1
457.33	0.09
457.685	0.09
458.04	0.08
458.396	0.08
458.751	0.08
459.106	0.08
459.461	0.08
459.816	0.08
460.171	0.07
460.526	0.07
460.881	0.07
461.236	0.06
461.591	0.06
461.946	0.05
462.301	0.06
462.655	0.05
463.01	0.05
463.365	0.04
463.719	0.04
464.074	0.03
464.428	0.03
464.783	0.02
465.137	0.02
465.492	0.02
465.846	0.03
466.201	0.03
466.555	0.03
466.909	0.04
467.263	0.04
467.618	0.03
467.972	0.04
468.326	0.04
468.68	0.04
469.034	0.03
469.388	0.04
469.742	0.04
470.096	0.04
470.45	0.05
470.804	0.04
471.157	0.04
471.511	0.04
471.865	0.04
472.218	0.05
472.572	0.06
472.926	0.05
473.279	0.07
473.633	0.07
473.986	0.08
474.34	0.09
474.693	0.1
475.046	0.11
475.4	0.11
475.753	0.13
476.106	0.13
476.459	0.13
476.812	0.15
477.165	0.16
477.519	0.16
477.872	0.17
478.224	0.17
478.577	0.18
478.93	0.19
479.283	0.2
479.636	0.2
479.989	0.21
480.341	0.22
480.694	0.22
481.047	0.23
481.399	0.23
481.752	0.24
482.104	0.24
482.457	0.25
482.809	0.25
483.162	0.25
483.514	0.27
483.866	0.27
484.219	0.27
484.571	0.28
484.923	0.28
485.275	0.29
485.627	0.29
485.979	0.29
486.331	0.3
486.683	0.3
487.035	0.31
487.387	0.31
487.739	0.32
488.091	0.32
488.443	0.33
488.794	0.33
489.146	0.34
489.498	0.34
489.849	0.34
490.201	0.35
490.552	0.34
490.904	0.35
491.255	0.35
491.607	0.36
491.958	0.36
492.309	0.37
492.661	0.37
493.012	0.37
493.363	0.38
493.714	0.38
494.065	0.38
494.416	0.39
494.767	0.39
495.118	0.39
495.469	0.4
495.82	0.4
496.171	0.41
496.522	0.41
496.872	0.42
497.223	0.42
497.574	0.41
497.924	0.42
498.275	0.42
498.626	0.43
498.976	0.44
499.327	0.44
499.677	0.45
500.027	0.45
500.378	0.45
500.728	0.45
501.078	0.46
501.428	0.46
501.779	0.47
502.129	0.46
502.479	0.47
502.829	0.47
503.179	0.49
503.529	0.48
503.879	0.48
504.229	0.49
504.578	0.5
504.928	0.5
505.278	0.5
505.628	0.49
505.977	0.51
506.327	0.5
506.676	0.51
507.026	0.51
507.375	0.52
507.725	0.53
508.074	0.52
508.424	0.53
508.773	0.53
509.122	0.53
509.471	0.54
509.82	0.53
510.17	0.55
510.519	0.55
510.868	0.54
511.217	0.55
511.566	0.55
511.915	0.55
512.263	0.56
512.612	0.56
512.961	0.57
513.31	0.57
513.659	0.57
514.007	0.58
514.356	0.58
514.704	0.58
515.053	0.58
515.401	0.58
515.75	0.58
516.098	0.59
516.447	0.6
516.795	0.59
517.143	0.59
517.491	0.6
517.839	0.6
518.188	0.6
518.536	0.61
518.884	0.61
519.232	0.61
519.58	0.61
519.928	0.61
520.275	0.62
520.623	0.63
520.971	0.63
521.319	0.63
521.666	0.63
522.014	0.63
522.362	0.63
522.709	0.64
523.057	0.64
523.404	0.65
523.752	0.64
524.099	0.63
524.446	0.65
524.794	0.65
525.141	0.65
525.488	0.66
525.835	0.66
526.182	0.66
526.529	0.65
526.876	0.66
527.223	0.66
527.57	0.66
527.917	0.67
528.264	0.67
528.611	0.67
528.958	0.67
529.304	0.68
529.651	0.68
529.998	0.68
530.344	0.68
530.691	0.68
531.037	0.68
531.384	0.68
531.73	0.68
532.076	0.7
532.423	0.69
532.769	0.69
533.115	0.69
533.461	0.7
533.807	0.69
534.154	0.69
534.5	0.7
534.846	0.7
535.192	0.69
535.537	0.71
535.883	0.7
536.229	0.7
536.575	0.71
536.921	0.71
537.266	0.71
537.612	0.71
537.957	0.71
538.303	0.71
538.649	0.71
538.994	0.71
539.339	0.72
539.685	0.72
540.03	0.72
540.375	0.72
540.721	0.71
541.066	0.72
541.411	0.72
541.756	0.73
542.101	0.73
542.446	0.73
542.791	0.73
543.136	0.73
543.481	0.73
543.825	0.73
544.17	0.73
544.515	0.73
544.86	0.73
545.204	0.74
545.549	0.73
545.893	0.74
546.238	0.73
546.582	0.74
546.927	0.74
547.271	0.74
547.615	0.74
547.96	0.74
548.304	0.73
548.648	0.74
548.992	0.74
549.336	0.74
549.68	0.73
550.024	0.74
550.368	0.74
550.712	0.74
551.056	0.74
551.4	0.74
551.743	0.74
552.087	0.74
552.431	0.74
552.774	0.75
553.118	0.74
553.462	0.74
553.805	0.75
554.148	0.74
554.492	0.75
554.835	0.74
555.178	0.74
555.522	0.75
555.865	0.74
556.208	0.73
556.551	0.74
556.894	0.74
557.237	0.74
557.58	0.74
557.923	0.74
558.266	0.74
558.609	0.74
558.952	0.74
559.294	0.74
559.637	0.73
559.98	0.73
560.322	0.73
560.665	0.74
561.007	0.73
561.35	0.73
561.692	0.73
562.034	0.73
562.377	0.73
562.719	0.73
563.061	0.73
563.403	0.73
563.745	0.73
564.088	0.73
564.43	0.73
564.772	0.72
565.113	0.73
565.455	0.73
565.797	0.72
566.139	0.72
566.481	0.72
566.822	0.72
567.164	0.73
567.506	0.72
567.847	0.72
568.189	0.71
568.53	0.72
568.872	0.71
569.213	0.71
569.554	0.72
569.895	0.71
570.237	0.71
570.578	0.71
570.919	0.71
571.26	0.7
571.601	0.7
571.942	0.7
572.283	0.7
572.624	0.7
572.965	0.7
573.306	0.7
573.646	0.69
573.987	0.69
574.328	0.69
574.668	0.69
575.009	0.69
575.349	0.69
575.69	0.68
576.03	0.68
576.37	0.68
576.711	0.67
577.051	0.68
577.391	0.68
577.731	0.68
578.072	0.67
578.412	0.67
578.752	0.67
579.092	0.67
579.431	0.66
579.771	0.65
580.111	0.65
580.451	0.66
580.791	0.66
581.13	0.66
581.47	0.66
581.81	0.66
582.149	0.66
582.489	0.66
582.828	0.64
583.167	0.63
583.507	0.59
583.846	0.59
584.185	0.63
584.525	0.65
584.864	0.65
585.203	0.66
585.542	0.66
585.881	0.66
586.22	0.65
586.559	0.65
586.898	0.64
587.236	0.64
587.575	0.64
587.914	0.64
588.252	0.65
588.591	0.65
588.93	0.64
589.268	0.64
589.607	0.64
589.945	0.64
590.283	0.64
590.622	0.64
590.96	0.65
591.298	0.65
591.636	0.65
591.974	0.65
592.313	0.65
592.651	0.65
592.989	0.65
593.326	0.64
593.664	0.64
594.002	0.64
594.34	0.64
594.678	0.64
595.015	0.64
595.353	0.63
595.691	0.64
596.028	0.65
596.366	0.65
596.703	0.64
597.04	0.64
597.378	0.64
597.715	0.64
598.052	0.65
598.389	0.64
598.726	0.64
599.064	0.64
599.401	0.64
599.738	0.64
600.074	0.64
600.411	0.64
600.748	0.64
601.085	0.63
601.422	0.63
601.758	0.63
602.095	0.63
602.432	0.63
602.768	0.63
603.105	0.63
603.441	0.63
603.777	0.63
604.114	0.63
604.45	0.63
604.786	0.62
605.122	0.62
605.459	0.62
605.795	0.62
606.131	0.62
606.467	0.62
606.803	0.62
607.139	0.62
607.474	0.61
607.81	0.61
608.146	0.61
608.482	0.61
608.817	0.61
609.153	0.61
609.488	0.6
609.824	0.6
610.159	0.61
610.495	0.61
610.83	0.61
611.165	0.6
611.5	0.59
611.836	0.6
612.171	0.59
612.506	0.6
612.841	0.59
613.176	0.59
613.511	0.59
613.845	0.58
614.18	0.58
614.515	0.58
614.85	0.58
615.184	0.58
615.519	0.57
615.854	0.57
616.188	0.57
616.523	0.57
616.857	0.57
617.191	0.56
617.526	0.56
617.86	0.56
618.194	0.56
618.528	0.56
618.862	0.56
619.196	0.56
619.53	0.55
619.864	0.55
620.198	0.55
620.532	0.55
620.866	0.55
621.2	0.54
621.533	0.54
621.867	0.54
622.201	0.54
622.534	0.54
622.868	0.54
623.201	0.53
623.534	0.53
623.868	0.53
624.201	0.53
624.534	0.52
624.868	0.53
625.201	0.52
625.534	0.52
625.867	0.51
626.2	0.51
626.533	0.51
626.865	0.51
627.198	0.51
627.531	0.51
627.864	0.5
628.196	0.5
628.529	0.49
628.862	0.49
629.194	0.49
629.527	0.48
629.859	0.48
630.191	0.49
630.524	0.48
630.856	0.47
631.188	0.47
631.52	0.47
631.852	0.47
632.184	0.46
632.516	0.46
632.848	0.46
633.18	0.45
633.512	0.46
633.844	0.45
634.175	0.45
634.507	0.45
634.839	0.44
635.17	0.44
635.502	0.44
635.833	0.43
636.165	0.43
636.496	0.43
636.827	0.43
637.159	0.42
637.49	0.42
637.821	0.42
638.152	0.42
638.483	0.41
638.814	0.41
639.145	0.4
639.476	0.41
639.807	0.4
640.137	0.4
640.468	0.39
640.799	0.4
641.129	0.39
641.46	0.39
641.791	0.39
642.121	0.39
642.451	0.38
642.782	0.38
643.112	0.38
643.442	0.38
643.773	0.37
644.103	0.37
644.433	0.37
644.763	0.37
645.093	0.36
645.423	0.37
645.753	0.36
646.082	0.36
646.412	0.36
646.742	0.36
647.072	0.36
647.401	0.36
647.731	0.35
648.06	0.35
648.39	0.35
648.719	0.35
649.048	0.34
649.378	0.34
649.707	0.34
650.036	0.34
650.365	0.34
650.694	0.33
651.023	0.34
651.352	0.34
651.681	0.33
652.01	0.34
652.339	0.33
652.668	0.33
652.996	0.33
653.325	0.33
653.654	0.33
653.982	0.33
654.311	0.33
654.639	0.32
654.967	0.32
655.296	0.32
655.624	0.32
655.952	0.32
656.28	0.32
656.609	0.32
656.937	0.31
657.265	0.31
657.593	0.16
657.92	0.08
658.248	0.06
658.576	0.12
658.904	0.25
659.231	0.3
659.559	0.31
659.887	0.31
660.214	0.31
660.542	0.3
660.869	0.3
661.196	0.3
661.524	0.3
661.851	0.3
662.178	0.3
662.505	0.3
662.832	0.3
663.159	0.3
663.486	0.29
663.813	0.29
664.14	0.29
664.467	0.29
664.794	0.29
665.12	0.29
665.447	0.29
665.774	0.28
666.1	0.29
666.427	0.29
666.753	0.28
667.079	0.28
667.406	0.28
667.732	0.28
668.058	0.28
668.384	0.27
668.71	0.27
669.036	0.27
669.362	0.27
669.688	0.27
670.014	0.26
670.34	0.26
670.666	0.26
670.991	0.26
671.317	0.26
671.643	0.26
671.968	0.26
672.294	0.26
672.619	0.25
672.945	0.25
673.27	0.25
673.595	0.25
673.92	0.24
674.246	0.24
674.571	0.24
674.896	0.24
675.221	0.24
675.546	0.24
675.87	0.23
676.195	0.23
676.52	0.23
676.845	0.23
677.169	0.23
677.494	0.23
677.819	0.22
678.143	0.22
678.468	0.22
678.792	0.22
679.116	0.22
679.44	0.22
679.765	0.21
680.089	0.21
680.413	0.2
680.737	0.2
681.061	0.2
681.385	0.2
681.709	0.2
682.033	0.19
682.356	0.19
682.68	0.19
683.004	0.19
683.327	0.18
683.651	0.19
683.974	0.18
684.298	0.18
684.621	0.18
684.944	0.18
685.268	0.18
685.591	0.18
685.914	0.17
686.237	0.17
686.56	0.17
686.883	0.16
687.206	0.17
687.529	0.16
687.852	0.16
688.175	0.16
688.497	0.16
688.82	0.16
689.142	0.15
689.465	0.15
689.787	0.15
690.11	0.15
690.432	0.14
690.755	0.15
691.077	0.14
691.399	0.14
691.721	0.14
692.043	0.14
692.365	0.14
692.687	0.13
693.009	0.13
693.331	0.13
693.653	0.13
693.974	0.13
694.296	0.13
694.618	0.13
694.939	0.12
695.261	0.12
695.582	0.12
695.904	0.12
696.225	0.12
696.546	0.12
696.868	0.12
697.189	0.12
697.51	0.12
697.831	0.12
698.152	0.11
698.473	0.11
698.794	0.11
699.114	0.11
699.435	0.1
699.756	0.11
700.077	0.11
700.397	0.11
700.718	0.11
701.038	0.11
701.359	0.11
701.679	0.11
701.999	0.11
702.32	0.11
702.64	0.11
702.96	0.1
703.28	0.1
703.6	0.1
703.92	0.1
704.24	0.1
704.56	0.1
704.879	0.1
705.199	0.1
705.519	0.1
705.838	0.1
706.158	0.1
706.478	0.1
706.797	0.1
707.116	0.1
707.436	0.1
707.755	0.1
708.074	0.09
708.393	0.09
708.712	0.09
709.031	0.08
709.35	0.08
709.669	0.08
709.988	0.09
710.307	0.09
710.626	0.09
710.944	0.09
711.263	0.09
711.582	0.09
711.9	0.09
712.219	0.09
712.537	0.09
712.855	0.09
713.174	0.09
713.492	0.09
713.81	0.09
714.128	0.09
714.446	0.09
714.764	0.09
715.082	0.09
715.4	0.09
715.718	0.09
716.035	0.09
716.353	0.09
716.671	0.09
716.988	0.09
717.306	0.09
717.623	0.09
717.941	0.09
718.258	0.09
718.575	0.09
718.893	0.09
719.21	0.09
719.527	0.09
719.844	0.09
720.161	0.09
720.478	0.09
720.795	0.09
721.112	0.09
721.428	0.1
721.745	0.09
722.062	0.1
722.378	0.1
722.695	0.1
723.011	0.1
723.328	0.09
723.644	0.1
723.96	0.1
724.276	0.1
724.593	0.1
724.909	0.1
725.225	0.1
725.541	0.1
725.857	0.1
726.173	0.1
726.488	0.1
726.804	0.1
727.12	0.1
727.435	0.1
727.751	0.1
728.067	0.1
728.382	0.1
728.697	0.1
729.013	0.1
729.328	0.09
729.643	0.1
729.958	0.1
730.273	0.09
730.588	0.09
730.903	0.1
731.218	0.09
731.533	0.09
731.848	0.09
732.163	0.09
732.477	0.09
732.792	0.09
733.107	0.09
733.421	0.09
733.736	0.09
734.05	0.09
734.364	0.09
734.678	0.09
734.993	0.09
735.307	0.09
735.621	0.09
735.935	0.09
736.249	0.09
736.563	0.09
736.877	0.09
737.19	0.09
737.504	0.09
737.818	0.09
738.131	0.09
738.445	0.09
738.758	0.09
739.072	0.09
739.385	0.09
739.698	0.09
740.012	0.09
740.325	0.09
740.638	0.09
740.951	0.08
741.264	0.08
741.577	0.08
741.89	0.08
742.203	0.08
742.515	0.08
742.828	0.08
743.141	0.08
743.453	0.08
743.766	0.08
744.078	0.08
744.391	0.08
744.703	0.07
745.015	0.07
745.327	0.08
745.639	0.08
745.952	0.08
746.264	0.07
746.575	0.07
746.887	0.07
747.199	0.07
747.511	0.07
747.823	0.07
748.134	0.07
748.446	0.07
748.757	0.07
749.069	0.07
749.38	0.07
749.692	0.07
750.003	0.07
750.314	0.06
750.625	0.06
750.936	0.06
751.248	0.06
751.559	0.06
751.869	0.06
752.18	0.06
752.491	0.06
752.802	0.06
753.112	0.06
753.423	0.06
753.734	0.06
754.044	0.06
754.355	0.06
754.665	0.06
754.975	0.06
755.285	0.05
755.596	0.06
755.906	0.06
756.216	0.06
756.526	0.05
756.836	0.05
757.146	0.05
757.455	0.05
757.765	0.05
758.075	0.05
758.385	0.05
758.694	0.05
759.004	0.05
759.313	0.05
759.622	0.05
759.932	0.05
760.241	0.05
760.55	0.05
760.859	0.05
761.168	0.05
761.477	0.05
761.786	0.05
762.095	0.05
762.404	0.05
762.713	0.05
763.021	0.05
763.33	0.05
763.639	0.05
763.947	0.05
764.256	0.05
764.564	0.05
764.872	0.05
765.181	0.05
765.489	0.04
765.797	0.05
766.105	0.05
766.413	0.05
766.721	0.05
767.029	0.05
767.337	0.05
767.644	0.05
767.952	0.05
768.26	0.04
768.567	0.04
768.875	0.04
769.182	0.04
769.49	0.04
769.797	0.04
770.104	0.04
770.411	0.04
770.718	0.04
771.026	0.04
771.333	0.04
771.639	0.05
771.946	0.04
772.253	0.05
772.56	0.05
772.867	0.05
773.173	0.04
773.48	0.04
773.786	0.04
774.093	0.05
774.399	0.05
774.705	0.04
775.012	0.04
775.318	0.05
775.624	0.04
775.93	0.04
776.236	0.04
776.542	0.05
776.848	0.04
777.154	0.04
777.459	0.05
777.765	0.04
778.071	0.05
778.376	0.05
778.682	0.05
778.987	0.05
779.292	0.05
779.598	0.04
779.903	0.05
780.208	0.04
780.513	0.05
780.818	0.05
781.123	0.05
781.428	0.05
781.733	0.05
782.038	0.05
782.343	0.05
782.647	0.05
782.952	0.05
783.256	0.05
783.561	0.05
783.865	0.05
784.17	0.05
784.474	0.05
784.778	0.05
785.082	0.05
785.386	0.05
785.69	0.05
785.994	0.05
786.298	0.05
786.602	0.05
786.906	0.05
787.209	0.05
787.513	0.05
787.817	0.05
788.12	0.05
788.424	0.05
788.727	0.05
789.03	0.04
789.333	0.05
789.637	0.05
789.94	0.05
790.243	0.05
790.546	0.05
790.849	0.05
791.152	0.05
791.454	0.05
791.757	0.05
792.06	0.05
792.362	0.05
792.665	0.05
792.967	0.05
793.27	0.05
793.572	0.05
793.874	0.05
794.177	0.05
794.479	0.05
794.781	0.05
795.083	0.05
795.385	0.05
795.687	0.05
795.989	0.05
796.29	0.06
796.592	0.06
796.894	0.05
797.195	0.06
797.497	0.06
797.798	0.06
798.1	0.06
798.401	0.05
798.702	0.06
799.003	0.06
799.304	0.06
799.605	0.06
799.906	0.06
800.207	0.06
800.508	0.05
800.809	0.06
801.11	0.06
801.41	0.06
801.711	0.06
802.011	0.06
802.312	0.06
802.612	0.06
802.913	0.06
803.213	0.06
803.513	0.06
803.813	0.06
804.113	0.06
804.413	0.06
804.713	0.06
805.013	0.06
805.313	0.06
805.613	0.06
805.912	0.06
806.212	0.06
806.511	0.06
806.811	0.06
807.11	0.06
807.41	0.06
807.709	0.06
808.008	0.06
808.307	0.06
808.606	0.06
808.905	0.06
809.204	0.06
809.503	0.07
809.802	0.06
810.101	0.06
810.399	0.07
810.698	0.07
810.997	0.07
811.295	0.07
811.593	0.06
811.892	0.07
812.19	0.07
812.488	0.07
812.786	0.07
813.084	0.07
813.383	0.07
813.68	0.07
813.978	0.07
814.276	0.07
814.574	0.07
814.872	0.07
815.169	0.07
815.467	0.08
815.764	0.07
816.062	0.07
816.359	0.07
816.656	0.08
816.954	0.07
817.251	0.07
817.548	0.07
817.845	0.08
818.142	0.08
818.439	0.08
818.735	0.07
819.032	0.08
819.329	0.08
819.626	0.08
819.922	0.08
820.219	0.08
820.515	0.08
820.811	0.08
821.108	0.08
821.404	0.08
821.7	0.08
821.996	0.08
822.292	0.08
822.588	0.08
822.884	0.08
823.18	0.08
823.475	0.07
823.771	0.08
824.067	0.07
824.362	0.08
824.658	0.08
824.953	0.08
825.249	0.08
825.544	0.08
825.839	0.08
826.134	0.09
826.429	0.08
826.724	0.08
827.019	0.09
827.314	0.08
827.609	0.08
827.904	0.08
828.198	0.09
828.493	0.08
828.787	0.08
829.082	0.08
829.376	0.08
829.671	0.08
829.965	0.08
830.259	0.09
830.553	0.09
830.847	0.09
831.141	0.09
831.435	0.09
831.729	0.09
832.023	0.09
832.317	0.09
832.61	0.09
832.904	0.09
833.197	0.09
833.491	0.09
833.784	0.09
834.077	0.09
834.371	0.09
834.664	0.08
834.957	0.08
835.25	0.1
835.543	0.09
835.836	0.1
836.129	0.09
836.421	0.1
836.714	0.09
837.007	0.09
837.299	0.09
837.592	0.09
837.884	0.1
838.177	0.08
838.469	0.1
838.761	0.09
839.053	0.1
839.345	0.1
839.637	0.1
839.929	0.09
840.221	0.09
840.513	0.09
840.805	0.1
841.096	0.1
841.388	0.09
841.68	0.1
841.971	0.09
842.262	0.11
842.554	0.1
842.845	0.1
843.136	0.11
843.427	0.1
843.718	0.11
844.009	0.1
844.3	0.11
844.591	0.1
844.882	0.1
845.173	0.11
845.463	0.11
845.754	0.1
846.044	0.1
846.335	0.09
846.625	0.11
846.915	0.09
847.206	0.1
847.496	0.1
847.786	0.11
848.076	0.12
848.366	0.1
848.656	0.11
848.945	0.11
849.235	0.1
849.525	0.11
849.814	0.1
850.104	0.11
850.393	0.1
850.683	0.11
850.972	0.11
851.261	0.11
851.551	0.11
851.84	0.11
852.129	0.1
852.418	0.1
852.707	0.11
852.995	0.12
853.284	0.11
853.573	0.11
853.862	0.1
854.15	0.12
854.439	0.12
854.727	0.13
855.015	0.12
855.304	0.11
855.592	0.11
855.88	0.11
856.168	0.12
856.456	0.12
856.744	0.12
857.032	0.12
857.32	0.13
857.607	0.12
857.895	0.12
858.183	0.13
858.47	0.14
858.757	0.11
859.045	0.12
859.332	0.11
859.619	0.13
859.907	0.13
860.194	0.13
860.481	0.12
860.768	0.12
861.054	0.11
861.341	0.11
861.628	0.12
861.915	0.14
862.201	0.13
862.488	0.11
862.774	0.1
863.061	0.13
863.347	0.16
863.633	0.12
863.919	0.09
864.205	0.14
864.491	0.12
864.777	0.13
865.063	0.13
865.349	0.11
865.635	0.12
865.92	0.12
866.206	0.12
866.492	0.11
866.777	0.14
867.062	0.09
867.348	0.11
867.633	0.13
867.918	0.14
868.203	0.13
868.488	0.1
868.773	0.14
869.058	0.14
869.343	0.16
869.628	0.1
869.912	0.12
870.197	0.15
870.482	0.15
870.766	0.11
871.05	0.17
871.335	0.11
871.619	0.11
871.903	0.11
872.187	0.13
872.471	0.15
872.755	0.14
873.039	0.11
873.323	0.13
873.607	0.12
873.89	0.19
874.174	0.11
874.458	0.1
874.741	0.16
875.024	0.14
875.308	0.09
875.591	0.02
875.874	0.17
876.157	0.11
876.44	0.14
876.723	0.19
877.006	0.13
877.289	0.13
877.572	0.25
877.854	0.11
878.137	0.03
878.42	0.15
878.702	0.11
878.984	0.11
879.267	0.04
879.549	0.15
879.831	0.11
880.113	0.11
880.395	0.11
880.677	0.08
880.959	0.01
