Data from Rubpy_BV_1800_EDTA_Buffered_Absorbance_16-57-28-690.txt Node
Date: Wed Jul 01 16:57:28 BST 2026
User: fpm-admin
Spectrometer: OFX00224
Trigger mode: 0
Integration Time (sec): 7.000000E-2
Scans to average: 3
Nonlinearity correction enabled: false
Boxcar width: 0
Storing dark spectrum: false
XAxis mode: Wavelengths
Number of Pixels in Spectrum: 2136
>>>>>Begin Spectral Data<<<<<
154.91	0.16
155.289	-0.43
155.669	0.22
156.048	-0
156.428	-0
156.807	0.03
157.186	-0
157.566	-0
157.945	-0
158.325	-0.02
158.704	-0.04
159.083	0.3
159.462	-0
159.842	-0
160.221	-0
160.6	-0
160.979	-0
161.359	-0
161.738	-0
162.117	-0.3
162.496	-0.26
162.875	-0.39
163.254	0.27
163.633	-0.29
164.012	0.21
164.391	0.12
164.77	0.41
165.149	-0
165.528	0.85
165.907	0.21
166.286	0.06
166.665	-0.08
167.044	-0.1
167.423	0.1
167.802	-0
168.181	-0.9
168.559	-0.45
168.938	1.1
169.317	-0
169.696	-0
170.074	-0.04
170.453	-0.28
170.832	-0.9
171.21	-0.18
171.589	-0.22
171.968	0.69
172.346	-0.04
172.725	-0
173.103	-0.24
173.482	-0
173.861	-0
174.239	-0.26
174.617	-0
174.996	1.32
175.374	-0
175.753	-0
176.131	-0.23
176.51	-0
176.888	-0
177.266	-0
177.645	0.09
178.023	0.21
178.401	-0.23
178.779	-0.05
179.158	0.9
179.536	0.04
179.914	-0
180.292	-0.3
180.67	-0.21
181.048	0.85
181.427	-0.49
181.805	-0.23
182.183	-0.87
182.561	0.4
182.939	1.18
183.317	-0
183.695	-0.11
184.073	-0
184.451	-0.85
184.829	0.33
185.206	-0.14
185.584	0.73
185.962	-0.34
186.34	-0.06
186.718	-0
187.096	-0
187.473	-0.28
187.851	-0.04
188.229	-0.15
188.607	0.28
188.984	0.26
189.362	0.41
189.74	0.39
190.117	0.37
190.495	0.36
190.872	0.27
191.25	0.17
191.627	0.28
192.005	0.27
192.382	0.32
192.76	0.38
193.137	0.3
193.515	0.31
193.892	0.36
194.269	0.25
194.647	0.38
195.024	0.25
195.401	0.25
195.779	0.27
196.156	0.43
196.533	0.26
196.91	0.39
197.288	0.77
197.665	0.37
198.042	0.27
198.419	0.29
198.796	0.33
199.173	0.33
199.55	0.45
199.927	0.25
200.304	0.3
200.681	0.35
201.058	0.21
201.435	0.65
201.812	0.29
202.189	0.41
202.566	0.43
202.943	0.28
203.32	0.3
203.697	0.29
204.073	0.23
204.45	0.31
204.827	0.39
205.204	0.17
205.58	0.47
205.957	0.32
206.334	0.28
206.71	0.24
207.087	0.28
207.464	0.39
207.84	0.49
208.217	0.44
208.593	0.15
208.97	0.34
209.346	0.4
209.723	0.26
210.099	0.7
210.476	0.48
210.852	0.61
211.228	0.36
211.605	0.28
211.981	0.28
212.357	0.39
212.733	0.23
213.11	0.31
213.486	0.45
213.862	0.27
214.238	0.34
214.614	0.4
214.991	0.51
215.367	0.35
215.743	0.34
216.119	0.24
216.495	0.4
216.871	0.31
217.247	0.31
217.623	0.31
217.999	0.45
218.375	0.53
218.751	0.27
219.127	0.38
219.502	0.33
219.878	0.26
220.254	0.43
220.63	0.39
221.006	0.51
221.381	0.32
221.757	0.33
222.133	0.24
222.508	0.63
222.884	0.38
223.26	0.35
223.635	0.32
224.011	0.51
224.386	0.33
224.762	0.47
225.137	0.36
225.513	0.31
225.888	0.43
226.264	0.33
226.639	0.25
227.014	0.4
227.39	0.44
227.765	0.39
228.14	0.26
228.516	0.5
228.891	0.46
229.266	0.32
229.641	0.35
230.017	0.44
230.392	0.4
230.767	0.43
231.142	0.4
231.517	0.43
231.892	0.62
232.267	0.32
232.642	0.34
233.017	0.36
233.392	0.34
233.767	0.39
234.142	0.4
234.517	0.24
234.892	0.43
235.267	0.48
235.641	0.4
236.016	0.41
236.391	0.25
236.766	0.33
237.14	0.37
237.515	0.47
237.89	0.27
238.264	0.4
238.639	0.27
239.014	0.6
239.388	0.39
239.763	0.33
240.137	0.26
240.512	0.25
240.886	0.37
241.261	0.62
241.635	0.35
242.009	0.44
242.384	0.27
242.758	0.38
243.132	0.38
243.507	0.28
243.881	0.49
244.255	0.23
244.629	0.53
245.004	0.45
245.378	0.39
245.752	0.42
246.126	0.27
246.5	0.46
246.874	0.36
247.248	0.38
247.622	0.47
247.996	0.28
248.37	0.42
248.744	0.4
249.118	0.37
249.492	0.36
249.866	0.33
250.24	0.48
250.613	0.44
250.987	0.48
251.361	0.48
251.735	0.42
252.108	0.42
252.482	0.46
252.856	0.28
253.229	0.4
253.603	0.29
253.977	0.46
254.35	0.43
254.724	0.35
255.097	0.4
255.471	0.3
255.844	0.37
256.218	0.53
256.591	0.37
256.964	0.39
257.338	0.31
257.711	0.39
258.084	0.33
258.458	0.39
258.831	0.45
259.204	0.37
259.577	0.3
259.95	0.28
260.323	0.38
260.697	0.41
261.07	0.28
261.443	0.34
261.816	0.43
262.189	0.31
262.562	0.45
262.935	0.57
263.308	0.27
263.68	0.32
264.053	0.55
264.426	0.45
264.799	0.38
265.172	0.4
265.545	0.37
265.917	0.63
266.29	0.44
266.663	0.46
267.035	0.35
267.408	0.41
267.781	0.41
268.153	0.38
268.526	0.39
268.898	0.47
269.271	0.37
269.643	0.38
270.016	0.43
270.388	0.3
270.76	0.38
271.133	0.33
271.505	0.5
271.877	0.32
272.25	0.39
272.622	0.45
272.994	0.54
273.366	0.5
273.739	0.34
274.111	0.42
274.483	0.32
274.855	0.48
275.227	0.46
275.599	0.33
275.971	0.37
276.343	0.38
276.715	0.32
277.087	0.37
277.459	0.65
277.831	0.33
278.203	0.43
278.574	0.4
278.946	0.41
279.318	0.41
279.69	0.44
280.061	0.36
280.433	0.4
280.805	0.5
281.176	0.43
281.548	0.35
281.92	0.34
282.291	0.34
282.663	0.4
283.034	0.36
283.406	0.47
283.777	0.42
284.148	0.47
284.52	0.51
284.891	0.28
285.262	0.36
285.634	0.37
286.005	0.49
286.376	0.39
286.747	0.35
287.119	0.35
287.49	0.55
287.861	0.34
288.232	0.49
288.603	0.43
288.974	0.31
289.345	0.44
289.716	0.51
290.087	0.27
290.458	0.41
290.829	0.4
291.2	0.38
291.571	0.38
291.941	0.37
292.312	0.3
292.683	0.39
293.054	0.42
293.424	0.34
293.795	0.47
294.166	0.38
294.536	0.35
294.907	0.32
295.277	0.44
295.648	0.42
296.018	0.48
296.389	0.28
296.759	0.43
297.13	0.5
297.5	0.5
297.871	0.43
298.241	0.5
298.611	0.4
298.981	0.29
299.352	0.51
299.722	0.43
300.092	0.45
300.462	0.44
300.832	0.36
301.202	0.44
301.573	0.33
301.943	0.42
302.313	0.36
302.683	0.39
303.053	0.42
303.422	0.45
303.792	0.38
304.162	0.43
304.532	0.49
304.902	0.27
305.272	0.37
305.641	0.48
306.011	0.34
306.381	0.37
306.75	0.44
307.12	0.37
307.49	0.33
307.859	0.34
308.229	0.34
308.598	0.31
308.968	0.42
309.337	0.27
309.707	0.29
310.076	0.27
310.445	0.34
310.815	0.3
311.184	0.37
311.553	0.33
311.923	0.33
312.292	0.3
312.661	0.33
313.03	0.32
313.399	0.36
313.768	0.31
314.137	0.33
314.506	0.34
314.875	0.37
315.244	0.33
315.613	0.35
315.982	0.36
316.351	0.38
316.72	0.38
317.089	0.38
317.458	0.4
317.826	0.4
318.195	0.4
318.564	0.39
318.933	0.42
319.301	0.42
319.67	0.42
320.038	0.44
320.407	0.43
320.775	0.44
321.144	0.44
321.512	0.45
321.881	0.47
322.249	0.46
322.618	0.47
322.986	0.48
323.354	0.48
323.723	0.49
324.091	0.49
324.459	0.52
324.827	0.54
325.195	0.53
325.564	0.52
325.932	0.54
326.3	0.53
326.668	0.56
327.036	0.57
327.404	0.58
327.772	0.57
328.14	0.59
328.508	0.61
328.875	0.61
329.243	0.62
329.611	0.63
329.979	0.65
330.346	0.64
330.714	0.64
331.082	0.67
331.449	0.68
331.817	0.69
332.185	0.7
332.552	0.71
332.92	0.72
333.287	0.73
333.655	0.75
334.022	0.77
334.389	0.78
334.757	0.8
335.124	0.8
335.491	0.83
335.859	0.85
336.226	0.85
336.593	0.88
336.96	0.88
337.327	0.9
337.695	0.92
338.062	0.93
338.429	0.96
338.796	0.96
339.163	0.98
339.53	1
339.897	1.03
340.263	1.05
340.63	1.05
340.997	1.07
341.364	1.09
341.731	1.11
342.097	1.14
342.464	1.15
342.831	1.18
343.197	1.19
343.564	1.2
343.931	1.21
344.297	1.23
344.664	1.26
345.03	1.27
345.396	1.3
345.763	1.32
346.129	1.33
346.496	1.36
346.862	1.36
347.228	1.39
347.594	1.41
347.961	1.42
348.327	1.42
348.693	1.47
349.059	1.46
349.425	1.48
349.791	1.53
350.157	1.51
350.523	1.53
350.889	1.53
351.255	1.56
351.621	1.57
351.987	1.6
352.353	1.6
352.719	1.59
353.084	1.61
353.45	1.65
353.816	1.67
354.181	1.67
354.547	1.7
354.913	1.71
355.278	1.71
355.644	1.71
356.009	1.77
356.375	1.8
356.74	1.83
357.106	1.82
357.471	1.8
357.836	1.83
358.202	1.91
358.567	1.91
358.932	1.95
359.297	1.93
359.663	1.92
360.028	1.95
360.393	2
360.758	1.98
361.123	1.99
361.488	2
361.853	2.05
362.218	2.07
362.583	2.05
362.948	2.02
363.312	2.07
363.677	2.04
364.042	2.03
364.407	2.07
364.772	2.09
365.136	2.08
365.501	2.1
365.865	2.2
366.23	2.07
366.595	2.1
366.959	2.11
367.324	2.14
367.688	2.14
368.052	2.2
368.417	2.18
368.781	2.18
369.145	2.23
369.51	2.25
369.874	2.31
370.238	2.28
370.602	2.03
370.967	2.2
371.331	2.17
371.695	2.15
372.059	2.11
372.423	2.12
372.787	2.15
373.151	2.05
373.515	2.13
373.878	2.14
374.242	2.16
374.606	2.1
374.97	2.16
375.334	2.2
375.697	2.14
376.061	2.15
376.425	2.17
376.788	2.16
377.152	2.2
377.515	2.14
377.879	2.11
378.242	2.06
378.606	2.1
378.969	2.08
379.333	2.1
379.696	2.12
380.059	2.03
380.422	2.04
380.786	2.04
381.149	2.08
381.512	2.01
381.875	1.99
382.238	1.95
382.601	1.99
382.964	1.91
383.327	1.91
383.69	1.9
384.053	1.84
384.416	1.84
384.779	1.84
385.142	1.83
385.504	1.81
385.867	1.78
386.23	1.81
386.593	1.78
386.955	1.72
387.318	1.71
387.68	1.74
388.043	1.7
388.405	1.7
388.768	1.73
389.13	1.68
389.493	1.68
389.855	1.66
390.217	1.66
390.58	1.64
390.942	1.59
391.304	1.59
391.666	1.59
392.028	1.54
392.391	1.53
392.753	1.52
393.115	1.47
393.477	1.46
393.839	1.46
394.201	1.43
394.563	1.43
394.924	1.41
395.286	1.41
395.648	1.42
396.01	1.41
396.371	1.43
396.733	1.43
397.095	1.44
397.456	1.47
397.818	1.49
398.18	1.52
398.541	1.55
398.903	1.58
399.264	1.58
399.625	1.62
399.987	1.66
400.348	1.68
400.709	1.68
401.071	1.66
401.432	1.66
401.793	1.68
402.154	1.65
402.515	1.63
402.876	1.62
403.238	1.57
403.599	1.54
403.96	1.52
404.32	1.47
404.681	1.43
405.042	1.38
405.403	1.33
405.764	1.25
406.125	1.21
406.485	1.15
406.846	1.1
407.207	1.04
407.567	0.98
407.928	0.94
408.288	0.9
408.649	0.85
409.009	0.8
409.37	0.76
409.73	0.73
410.091	0.68
410.451	0.65
410.811	0.61
411.171	0.6
411.532	0.57
411.892	0.55
412.252	0.52
412.612	0.5
412.972	0.47
413.332	0.46
413.692	0.44
414.052	0.42
414.412	0.4
414.772	0.4
415.132	0.38
415.492	0.37
415.851	0.35
416.211	0.34
416.571	0.34
416.931	0.33
417.29	0.31
417.65	0.31
418.009	0.3
418.369	0.29
418.728	0.29
419.088	0.28
419.447	0.28
419.807	0.27
420.166	0.26
420.525	0.26
420.884	0.25
421.244	0.25
421.603	0.25
421.962	0.24
422.321	0.24
422.68	0.23
423.039	0.23
423.398	0.23
423.757	0.23
424.116	0.22
424.475	0.21
424.834	0.22
425.193	0.22
425.551	0.22
425.91	0.21
426.269	0.21
426.628	0.2
426.986	0.2
427.345	0.19
427.703	0.2
428.062	0.21
428.42	0.2
428.779	0.2
429.137	0.22
429.496	0.19
429.854	0.19
430.212	0.2
430.57	0.2
430.929	0.19
431.287	0.19
431.645	0.19
432.003	0.2
432.361	0.19
432.719	0.19
433.077	0.19
433.435	0.2
433.793	0.2
434.151	0.18
434.509	0.19
434.866	0.19
435.224	0.19
435.582	0.2
435.94	0.19
436.297	0.19
436.655	0.2
437.012	0.19
437.37	0.2
437.727	0.18
438.085	0.19
438.442	0.19
438.8	0.2
439.157	0.19
439.514	0.19
439.872	0.19
440.229	0.19
440.586	0.2
440.943	0.2
441.3	0.2
441.657	0.2
442.014	0.2
442.371	0.19
442.728	0.2
443.085	0.2
443.442	0.19
443.799	0.2
444.156	0.2
444.513	0.2
444.869	0.18
445.226	0.2
445.583	0.21
445.939	0.21
446.296	0.2
446.652	0.21
447.009	0.21
447.365	0.21
447.722	0.21
448.078	0.2
448.434	0.22
448.791	0.21
449.147	0.2
449.503	0.2
449.859	0.2
450.215	0.21
450.571	0.2
450.928	0.21
451.284	0.21
451.64	0.22
451.995	0.21
452.351	0.21
452.707	0.21
453.063	0.22
453.419	0.21
453.775	0.2
454.13	0.2
454.486	0.21
454.842	0.21
455.197	0.2
455.553	0.2
455.908	0.2
456.264	0.19
456.619	0.19
456.975	0.2
457.33	0.2
457.685	0.2
458.04	0.19
458.396	0.19
458.751	0.19
459.106	0.18
459.461	0.18
459.816	0.18
460.171	0.17
460.526	0.17
460.881	0.16
461.236	0.16
461.591	0.15
461.946	0.16
462.301	0.15
462.655	0.15
463.01	0.16
463.365	0.15
463.719	0.14
464.074	0.13
464.428	0.13
464.783	0.12
465.137	0.13
465.492	0.12
465.846	0.12
466.201	0.13
466.555	0.13
466.909	0.14
467.263	0.15
467.618	0.15
467.972	0.15
468.326	0.14
468.68	0.14
469.034	0.13
469.388	0.13
469.742	0.14
470.096	0.15
470.45	0.14
470.804	0.15
471.157	0.14
471.511	0.15
471.865	0.15
472.218	0.16
472.572	0.17
472.926	0.18
473.279	0.19
473.633	0.19
473.986	0.21
474.34	0.22
474.693	0.23
475.046	0.24
475.4	0.26
475.753	0.27
476.106	0.27
476.459	0.28
476.812	0.3
477.165	0.31
477.519	0.32
477.872	0.33
478.224	0.34
478.577	0.35
478.93	0.36
479.283	0.38
479.636	0.38
479.989	0.39
480.341	0.4
480.694	0.41
481.047	0.42
481.399	0.43
481.752	0.44
482.104	0.45
482.457	0.46
482.809	0.47
483.162	0.47
483.514	0.49
483.866	0.49
484.219	0.5
484.571	0.51
484.923	0.51
485.275	0.52
485.627	0.52
485.979	0.53
486.331	0.55
486.683	0.55
487.035	0.56
487.387	0.58
487.739	0.59
488.091	0.59
488.443	0.6
488.794	0.59
489.146	0.61
489.498	0.61
489.849	0.62
490.201	0.62
490.552	0.62
490.904	0.63
491.255	0.64
491.607	0.65
491.958	0.65
492.309	0.65
492.661	0.65
493.012	0.66
493.363	0.67
493.714	0.67
494.065	0.69
494.416	0.69
494.767	0.7
495.118	0.7
495.469	0.71
495.82	0.71
496.171	0.73
496.522	0.74
496.872	0.73
497.223	0.75
497.574	0.75
497.924	0.75
498.275	0.77
498.626	0.77
498.976	0.79
499.327	0.79
499.677	0.79
500.027	0.79
500.378	0.8
500.728	0.8
501.078	0.81
501.428	0.82
501.779	0.83
502.129	0.83
502.479	0.83
502.829	0.84
503.179	0.85
503.529	0.85
503.879	0.86
504.229	0.87
504.578	0.87
504.928	0.87
505.278	0.88
505.628	0.88
505.977	0.89
506.327	0.9
506.676	0.91
507.026	0.91
507.375	0.93
507.725	0.92
508.074	0.93
508.424	0.92
508.773	0.94
509.122	0.94
509.471	0.95
509.82	0.95
510.17	0.96
510.519	0.96
510.868	0.97
511.217	0.98
511.566	0.98
511.915	0.99
512.263	0.99
512.612	1
512.961	0.99
513.31	1
513.659	1
514.007	1.01
514.356	1.02
514.704	1.03
515.053	1.02
515.401	1.04
515.75	1.04
516.098	1.04
516.447	1.04
516.795	1.03
517.143	1.06
517.491	1.06
517.839	1.05
518.188	1.05
518.536	1.07
518.884	1.07
519.232	1.08
519.58	1.08
519.928	1.08
520.275	1.1
520.623	1.09
520.971	1.1
521.319	1.11
521.666	1.1
522.014	1.11
522.362	1.11
522.709	1.13
523.057	1.12
523.404	1.13
523.752	1.12
524.099	1.13
524.446	1.14
524.794	1.15
525.141	1.13
525.488	1.16
525.835	1.15
526.182	1.16
526.529	1.15
526.876	1.13
527.223	1.16
527.57	1.17
527.917	1.16
528.264	1.18
528.611	1.17
528.958	1.17
529.304	1.17
529.651	1.18
529.998	1.19
530.344	1.19
530.691	1.19
531.037	1.19
531.384	1.19
531.73	1.2
532.076	1.19
532.423	1.2
532.769	1.2
533.115	1.2
533.461	1.21
533.807	1.21
534.154	1.21
534.5	1.21
534.846	1.23
535.192	1.21
535.537	1.23
535.883	1.23
536.229	1.22
536.575	1.24
536.921	1.23
537.266	1.23
537.612	1.23
537.957	1.23
538.303	1.24
538.649	1.23
538.994	1.24
539.339	1.23
539.685	1.25
540.03	1.26
540.375	1.25
540.721	1.24
541.066	1.24
541.411	1.24
541.756	1.26
542.101	1.24
542.446	1.26
542.791	1.26
543.136	1.28
543.481	1.26
543.825	1.25
544.17	1.26
544.515	1.26
544.86	1.25
545.204	1.26
545.549	1.27
545.893	1.26
546.238	1.27
546.582	1.27
546.927	1.26
547.271	1.27
547.615	1.28
547.96	1.26
548.304	1.26
548.648	1.27
548.992	1.28
549.336	1.26
549.68	1.27
550.024	1.27
550.368	1.27
550.712	1.29
551.056	1.27
551.4	1.27
551.743	1.27
552.087	1.27
552.431	1.26
552.774	1.27
553.118	1.26
553.462	1.27
553.805	1.27
554.148	1.27
554.492	1.26
554.835	1.26
555.178	1.25
555.522	1.26
555.865	1.26
556.208	1.26
556.551	1.26
556.894	1.26
557.237	1.25
557.58	1.27
557.923	1.26
558.266	1.25
558.609	1.25
558.952	1.24
559.294	1.25
559.637	1.25
559.98	1.24
560.322	1.24
560.665	1.25
561.007	1.24
561.35	1.24
561.692	1.23
562.034	1.23
562.377	1.23
562.719	1.23
563.061	1.23
563.403	1.23
563.745	1.22
564.088	1.23
564.43	1.23
564.772	1.22
565.113	1.22
565.455	1.22
565.797	1.22
566.139	1.22
566.481	1.21
566.822	1.21
567.164	1.21
567.506	1.21
567.847	1.21
568.189	1.2
568.53	1.2
568.872	1.21
569.213	1.2
569.554	1.2
569.895	1.2
570.237	1.19
570.578	1.19
570.919	1.19
571.26	1.18
571.601	1.19
571.942	1.18
572.283	1.17
572.624	1.18
572.965	1.17
573.306	1.16
573.646	1.16
573.987	1.16
574.328	1.16
574.668	1.15
575.009	1.15
575.349	1.15
575.69	1.15
576.03	1.14
576.37	1.14
576.711	1.14
577.051	1.14
577.391	1.13
577.731	1.14
578.072	1.13
578.412	1.13
578.752	1.13
579.092	1.12
579.431	1.12
579.771	1.1
580.111	1.1
580.451	1.1
580.791	1.11
581.13	1.1
581.47	1.11
581.81	1.1
582.149	1.1
582.489	1.1
582.828	1.09
583.167	1.06
583.507	1.03
583.846	1.03
584.185	1.07
584.525	1.08
584.864	1.08
585.203	1.09
585.542	1.09
585.881	1.08
586.22	1.08
586.559	1.07
586.898	1.06
587.236	1.06
587.575	1.06
587.914	1.07
588.252	1.07
588.591	1.07
588.93	1.07
589.268	1.06
589.607	1.07
589.945	1.06
590.283	1.06
590.622	1.06
590.96	1.06
591.298	1.06
591.636	1.06
591.974	1.06
592.313	1.06
592.651	1.06
592.989	1.06
593.326	1.05
593.664	1.05
594.002	1.05
594.34	1.05
594.678	1.05
595.015	1.05
595.353	1.04
595.691	1.04
596.028	1.05
596.366	1.05
596.703	1.04
597.04	1.04
597.378	1.05
597.715	1.04
598.052	1.04
598.389	1.03
598.726	1.03
599.064	1.03
599.401	1.04
599.738	1.03
600.074	1.03
600.411	1.03
600.748	1.03
601.085	1.02
601.422	1.02
601.758	1.02
602.095	1.02
602.432	1.02
602.768	1.02
603.105	1.02
603.441	1.01
603.777	1.02
604.114	1.01
604.45	1.02
604.786	1
605.122	1
605.459	1
605.795	1
606.131	1
606.467	1
606.803	0.99
607.139	0.99
607.474	0.98
607.81	0.99
608.146	0.98
608.482	0.97
608.817	0.97
609.153	0.97
609.488	0.97
609.824	0.97
610.159	0.97
610.495	0.96
610.83	0.96
611.165	0.96
611.5	0.95
611.836	0.95
612.171	0.94
612.506	0.94
612.841	0.94
613.176	0.93
613.511	0.93
613.845	0.93
614.18	0.93
614.515	0.93
614.85	0.92
615.184	0.91
615.519	0.91
615.854	0.91
616.188	0.91
616.523	0.9
616.857	0.9
617.191	0.9
617.526	0.9
617.86	0.9
618.194	0.89
618.528	0.89
618.862	0.88
619.196	0.88
619.53	0.88
619.864	0.87
620.198	0.87
620.532	0.87
620.866	0.86
621.2	0.86
621.533	0.85
621.867	0.86
622.201	0.85
622.534	0.84
622.868	0.85
623.201	0.84
623.534	0.83
623.868	0.83
624.201	0.83
624.534	0.82
624.868	0.83
625.201	0.82
625.534	0.81
625.867	0.81
626.2	0.81
626.533	0.81
626.865	0.8
627.198	0.8
627.531	0.79
627.864	0.79
628.196	0.79
628.529	0.78
628.862	0.78
629.194	0.77
629.527	0.77
629.859	0.76
630.191	0.76
630.524	0.77
630.856	0.75
631.188	0.75
631.52	0.74
631.852	0.74
632.184	0.73
632.516	0.73
632.848	0.72
633.18	0.72
633.512	0.71
633.844	0.71
634.175	0.71
634.507	0.7
634.839	0.7
635.17	0.7
635.502	0.69
635.833	0.69
636.165	0.68
636.496	0.68
636.827	0.68
637.159	0.67
637.49	0.67
637.821	0.67
638.152	0.65
638.483	0.65
638.814	0.65
639.145	0.64
639.476	0.64
639.807	0.63
640.137	0.63
640.468	0.63
640.799	0.62
641.129	0.62
641.46	0.61
641.791	0.61
642.121	0.61
642.451	0.6
642.782	0.6
643.112	0.6
643.442	0.59
643.773	0.59
644.103	0.59
644.433	0.58
644.763	0.58
645.093	0.57
645.423	0.57
645.753	0.57
646.082	0.57
646.412	0.57
646.742	0.57
647.072	0.56
647.401	0.56
647.731	0.55
648.06	0.55
648.39	0.55
648.719	0.54
649.048	0.54
649.378	0.54
649.707	0.54
650.036	0.53
650.365	0.53
650.694	0.53
651.023	0.53
651.352	0.52
651.681	0.53
652.01	0.53
652.339	0.52
652.668	0.52
652.996	0.51
653.325	0.51
653.654	0.52
653.982	0.51
654.311	0.51
654.639	0.51
654.967	0.51
655.296	0.5
655.624	0.5
655.952	0.51
656.28	0.5
656.609	0.5
656.937	0.49
657.265	0.48
657.593	0.33
657.92	0.24
658.248	0.21
658.576	0.29
658.904	0.42
659.231	0.48
659.559	0.48
659.887	0.48
660.214	0.47
660.542	0.48
660.869	0.47
661.196	0.47
661.524	0.47
661.851	0.47
662.178	0.46
662.505	0.46
662.832	0.46
663.159	0.46
663.486	0.46
663.813	0.45
664.14	0.45
664.467	0.45
664.794	0.45
665.12	0.45
665.447	0.45
665.774	0.44
666.1	0.44
666.427	0.44
666.753	0.44
667.079	0.43
667.406	0.43
667.732	0.43
668.058	0.43
668.384	0.43
668.71	0.42
669.036	0.42
669.362	0.42
669.688	0.41
670.014	0.41
670.34	0.41
670.666	0.4
670.991	0.41
671.317	0.4
671.643	0.4
671.968	0.4
672.294	0.4
672.619	0.39
672.945	0.39
673.27	0.39
673.595	0.38
673.92	0.38
674.246	0.37
674.571	0.37
674.896	0.37
675.221	0.37
675.546	0.37
675.87	0.36
676.195	0.36
676.52	0.36
676.845	0.35
677.169	0.35
677.494	0.35
677.819	0.34
678.143	0.34
678.468	0.34
678.792	0.33
679.116	0.33
679.44	0.33
679.765	0.32
680.089	0.32
680.413	0.31
680.737	0.31
681.061	0.31
681.385	0.31
681.709	0.3
682.033	0.3
682.356	0.3
682.68	0.3
683.004	0.3
683.327	0.29
683.651	0.29
683.974	0.29
684.298	0.28
684.621	0.28
684.944	0.28
685.268	0.28
685.591	0.27
685.914	0.27
686.237	0.26
686.56	0.26
686.883	0.26
687.206	0.26
687.529	0.25
687.852	0.25
688.175	0.25
688.497	0.25
688.82	0.25
689.142	0.24
689.465	0.24
689.787	0.24
690.11	0.23
690.432	0.23
690.755	0.23
691.077	0.22
691.399	0.22
691.721	0.22
692.043	0.22
692.365	0.21
692.687	0.21
693.009	0.21
693.331	0.21
693.653	0.2
693.974	0.2
694.296	0.2
694.618	0.2
694.939	0.2
695.261	0.2
695.582	0.19
695.904	0.19
696.225	0.19
696.546	0.19
696.868	0.19
697.189	0.19
697.51	0.18
697.831	0.18
698.152	0.18
698.473	0.18
698.794	0.17
699.114	0.17
699.435	0.17
699.756	0.17
700.077	0.17
700.397	0.17
700.718	0.17
701.038	0.17
701.359	0.17
701.679	0.17
701.999	0.17
702.32	0.16
702.64	0.16
702.96	0.16
703.28	0.16
703.6	0.16
703.92	0.16
704.24	0.16
704.56	0.15
704.879	0.15
705.199	0.16
705.519	0.15
705.838	0.15
706.158	0.15
706.478	0.15
706.797	0.15
707.116	0.15
707.436	0.15
707.755	0.15
708.074	0.15
708.393	0.14
708.712	0.14
709.031	0.13
709.35	0.14
709.669	0.13
709.988	0.14
710.307	0.14
710.626	0.14
710.944	0.14
711.263	0.14
711.582	0.14
711.9	0.14
712.219	0.14
712.537	0.14
712.855	0.14
713.174	0.15
713.492	0.14
713.81	0.14
714.128	0.14
714.446	0.14
714.764	0.14
715.082	0.14
715.4	0.14
715.718	0.14
716.035	0.14
716.353	0.14
716.671	0.14
716.988	0.14
717.306	0.14
717.623	0.14
717.941	0.14
718.258	0.14
718.575	0.14
718.893	0.14
719.21	0.14
719.527	0.14
719.844	0.14
720.161	0.14
720.478	0.15
720.795	0.15
721.112	0.15
721.428	0.15
721.745	0.15
722.062	0.15
722.378	0.15
722.695	0.15
723.011	0.15
723.328	0.15
723.644	0.15
723.96	0.15
724.276	0.15
724.593	0.15
724.909	0.15
725.225	0.15
725.541	0.15
725.857	0.15
726.173	0.15
726.488	0.15
726.804	0.15
727.12	0.15
727.435	0.15
727.751	0.15
728.067	0.15
728.382	0.15
728.697	0.15
729.013	0.15
729.328	0.15
729.643	0.15
729.958	0.15
730.273	0.14
730.588	0.14
730.903	0.15
731.218	0.15
731.533	0.14
731.848	0.14
732.163	0.14
732.477	0.14
732.792	0.14
733.107	0.14
733.421	0.14
733.736	0.14
734.05	0.14
734.364	0.14
734.678	0.14
734.993	0.14
735.307	0.14
735.621	0.14
735.935	0.14
736.249	0.14
736.563	0.14
736.877	0.14
737.19	0.14
737.504	0.14
737.818	0.14
738.131	0.14
738.445	0.14
738.758	0.14
739.072	0.14
739.385	0.13
739.698	0.14
740.012	0.14
740.325	0.13
740.638	0.13
740.951	0.13
741.264	0.13
741.577	0.13
741.89	0.13
742.203	0.13
742.515	0.13
742.828	0.13
743.141	0.13
743.453	0.12
743.766	0.12
744.078	0.12
744.391	0.12
744.703	0.12
745.015	0.12
745.327	0.12
745.639	0.12
745.952	0.12
746.264	0.12
746.575	0.12
746.887	0.11
747.199	0.11
747.511	0.11
747.823	0.11
748.134	0.11
748.446	0.11
748.757	0.11
749.069	0.11
749.38	0.11
749.692	0.11
750.003	0.11
750.314	0.1
750.625	0.1
750.936	0.1
751.248	0.1
751.559	0.1
751.869	0.1
752.18	0.1
752.491	0.1
752.802	0.1
753.112	0.1
753.423	0.1
753.734	0.09
754.044	0.09
754.355	0.09
754.665	0.09
754.975	0.09
755.285	0.09
755.596	0.09
755.906	0.09
756.216	0.09
756.526	0.09
756.836	0.09
757.146	0.09
757.455	0.09
757.765	0.09
758.075	0.08
758.385	0.08
758.694	0.08
759.004	0.08
759.313	0.08
759.622	0.08
759.932	0.08
760.241	0.08
760.55	0.08
760.859	0.08
761.168	0.08
761.477	0.08
761.786	0.08
762.095	0.08
762.404	0.08
762.713	0.08
763.021	0.08
763.33	0.08
763.639	0.08
763.947	0.08
764.256	0.08
764.564	0.08
764.872	0.08
765.181	0.08
765.489	0.08
765.797	0.07
766.105	0.08
766.413	0.08
766.721	0.08
767.029	0.08
767.337	0.08
767.644	0.08
767.952	0.08
768.26	0.08
768.567	0.08
768.875	0.08
769.182	0.08
769.49	0.08
769.797	0.07
770.104	0.08
770.411	0.08
770.718	0.08
771.026	0.08
771.333	0.08
771.639	0.08
771.946	0.08
772.253	0.08
772.56	0.08
772.867	0.08
773.173	0.08
773.48	0.08
773.786	0.08
774.093	0.08
774.399	0.08
774.705	0.08
775.012	0.08
775.318	0.08
775.624	0.08
775.93	0.08
776.236	0.08
776.542	0.08
776.848	0.08
777.154	0.08
777.459	0.08
777.765	0.08
778.071	0.08
778.376	0.08
778.682	0.08
778.987	0.08
779.292	0.08
779.598	0.08
779.903	0.08
780.208	0.08
780.513	0.08
780.818	0.08
781.123	0.08
781.428	0.08
781.733	0.08
782.038	0.08
782.343	0.08
782.647	0.08
782.952	0.08
783.256	0.09
783.561	0.09
783.865	0.09
784.17	0.09
784.474	0.09
784.778	0.09
785.082	0.09
785.386	0.09
785.69	0.09
785.994	0.09
786.298	0.09
786.602	0.09
786.906	0.09
787.209	0.09
787.513	0.09
787.817	0.09
788.12	0.09
788.424	0.09
788.727	0.09
789.03	0.09
789.333	0.09
789.637	0.09
789.94	0.09
790.243	0.09
790.546	0.09
790.849	0.09
791.152	0.09
791.454	0.09
791.757	0.09
792.06	0.09
792.362	0.1
792.665	0.09
792.967	0.09
793.27	0.09
793.572	0.1
793.874	0.09
794.177	0.1
794.479	0.09
794.781	0.1
795.083	0.09
795.385	0.09
795.687	0.1
795.989	0.1
796.29	0.1
796.592	0.1
796.894	0.1
797.195	0.1
797.497	0.11
797.798	0.1
798.1	0.11
798.401	0.1
798.702	0.11
799.003	0.1
799.304	0.11
799.605	0.1
799.906	0.11
800.207	0.1
800.508	0.11
800.809	0.11
801.11	0.11
801.41	0.11
801.711	0.11
802.011	0.11
802.312	0.11
802.612	0.11
802.913	0.11
803.213	0.11
803.513	0.11
803.813	0.11
804.113	0.11
804.413	0.11
804.713	0.12
805.013	0.11
805.313	0.11
805.613	0.12
805.912	0.12
806.212	0.12
806.511	0.11
806.811	0.11
807.11	0.12
807.41	0.12
807.709	0.11
808.008	0.12
808.307	0.11
808.606	0.12
808.905	0.12
809.204	0.12
809.503	0.12
809.802	0.12
810.101	0.12
810.399	0.12
810.698	0.12
810.997	0.12
811.295	0.12
811.593	0.12
811.892	0.12
812.19	0.13
812.488	0.13
812.786	0.13
813.084	0.13
813.383	0.13
813.68	0.13
813.978	0.13
814.276	0.13
814.574	0.13
814.872	0.13
815.169	0.13
815.467	0.13
815.764	0.13
816.062	0.13
816.359	0.13
816.656	0.13
816.954	0.13
817.251	0.14
817.548	0.13
817.845	0.13
818.142	0.14
818.439	0.14
818.735	0.14
819.032	0.14
819.329	0.14
819.626	0.14
819.922	0.14
820.219	0.14
820.515	0.15
820.811	0.14
821.108	0.13
821.404	0.14
821.7	0.14
821.996	0.14
822.292	0.15
822.588	0.15
822.884	0.14
823.18	0.15
823.475	0.14
823.771	0.15
824.067	0.14
824.362	0.15
824.658	0.15
824.953	0.15
825.249	0.15
825.544	0.15
825.839	0.15
826.134	0.15
826.429	0.15
826.724	0.15
827.019	0.15
827.314	0.15
827.609	0.15
827.904	0.15
828.198	0.16
828.493	0.16
828.787	0.16
829.082	0.16
829.376	0.15
829.671	0.15
829.965	0.16
830.259	0.16
830.553	0.16
830.847	0.16
831.141	0.16
831.435	0.16
831.729	0.16
832.023	0.17
832.317	0.17
832.61	0.16
832.904	0.17
833.197	0.16
833.491	0.17
833.784	0.17
834.077	0.17
834.371	0.17
834.664	0.17
834.957	0.16
835.25	0.17
835.543	0.16
835.836	0.18
836.129	0.17
836.421	0.17
836.714	0.17
837.007	0.17
837.299	0.18
837.592	0.18
837.884	0.18
838.177	0.17
838.469	0.19
838.761	0.17
839.053	0.18
839.345	0.18
839.637	0.18
839.929	0.18
840.221	0.18
840.513	0.18
840.805	0.18
841.096	0.18
841.388	0.18
841.68	0.18
841.971	0.18
842.262	0.18
842.554	0.19
842.845	0.18
843.136	0.19
843.427	0.19
843.718	0.18
844.009	0.19
844.3	0.18
844.591	0.2
844.882	0.19
845.173	0.19
845.463	0.19
845.754	0.19
846.044	0.19
846.335	0.19
846.625	0.2
846.915	0.17
847.206	0.2
847.496	0.19
847.786	0.18
848.076	0.2
848.366	0.2
848.656	0.2
848.945	0.19
849.235	0.2
849.525	0.21
849.814	0.19
850.104	0.19
850.393	0.2
850.683	0.2
850.972	0.21
851.261	0.2
851.551	0.21
851.84	0.2
852.129	0.2
852.418	0.2
852.707	0.21
852.995	0.19
853.284	0.21
853.573	0.19
853.862	0.2
854.15	0.22
854.439	0.21
854.727	0.21
855.015	0.21
855.304	0.2
855.592	0.22
855.88	0.21
856.168	0.21
856.456	0.22
856.744	0.21
857.032	0.22
857.32	0.22
857.607	0.23
857.895	0.22
858.183	0.21
858.47	0.22
858.757	0.22
859.045	0.23
859.332	0.22
859.619	0.22
859.907	0.23
860.194	0.22
860.481	0.23
860.768	0.22
861.054	0.21
861.341	0.2
861.628	0.21
861.915	0.22
862.201	0.22
862.488	0.22
862.774	0.23
863.061	0.23
863.347	0.23
863.633	0.24
863.919	0.2
864.205	0.22
864.491	0.22
864.777	0.22
865.063	0.24
865.349	0.21
865.635	0.24
865.92	0.2
866.206	0.21
866.492	0.2
866.777	0.2
867.062	0.22
867.348	0.18
867.633	0.23
867.918	0.23
868.203	0.22
868.488	0.25
868.773	0.25
869.058	0.22
869.343	0.28
869.628	0.18
869.912	0.23
870.197	0.24
870.482	0.25
870.766	0.22
871.05	0.23
871.335	0.24
871.619	0.19
871.903	0.2
872.187	0.25
872.471	0.23
872.755	0.23
873.039	0.2
873.323	0.21
873.607	0.21
873.89	0.19
874.174	0.21
874.458	0.15
874.741	0.19
875.024	0.2
875.308	0.19
875.591	0.28
875.874	0.19
876.157	0.26
876.44	0.16
876.723	0.29
877.006	0.22
877.289	0.18
877.572	0.33
877.854	0.22
878.137	0.17
878.42	0.22
878.702	0.18
878.984	0.24
879.267	0.14
879.549	0.25
879.831	0.11
880.113	0.2
880.395	0.22
880.677	0.18
880.959	0.14
