Data from Rubpy_BV_1800_EDTA_Buffered_Absorbance_16-47-13-539.txt Node
Date: Wed Jul 01 16:47:13 BST 2026
User: fpm-admin
Spectrometer: OFX00224
Trigger mode: 0
Integration Time (sec): 7.000000E-2
Scans to average: 3
Nonlinearity correction enabled: false
Boxcar width: 0
Storing dark spectrum: false
XAxis mode: Wavelengths
Number of Pixels in Spectrum: 2136
>>>>>Begin Spectral Data<<<<<
154.91	-0
155.289	-0.57
155.669	0.32
156.048	-0.71
156.428	-0
156.807	0.59
157.186	-0.78
157.566	-0
157.945	-0
158.325	-0.19
158.704	-0.05
159.083	0.65
159.462	0.3
159.842	-0
160.221	-0
160.6	-0
160.979	-0
161.359	-0.23
161.738	-0.52
162.117	-0
162.496	-0.3
162.875	-0
163.254	0.41
163.633	-0
164.012	-0.29
164.391	0.21
164.77	0.5
165.149	-0
165.528	-0
165.907	0.24
166.286	-0
166.665	0.12
167.044	0.58
167.423	0.35
167.802	-0.32
168.181	-1.51
168.559	-0.7
168.938	0.62
169.317	-0
169.696	-1.15
170.074	-0
170.453	0.05
170.832	-1.08
171.21	0.89
171.589	-0
171.968	-0
172.346	-0.34
172.725	-0
173.103	0.18
173.482	-0
173.861	-0.23
174.239	0.3
174.617	0.03
174.996	-0
175.374	-0.87
175.753	-0.4
176.131	0.13
176.51	-0.28
176.888	1.64
177.266	-0
177.645	-0.03
178.023	1.56
178.401	-0.2
178.779	0.25
179.158	-0.1
179.536	0.1
179.914	-0
180.292	0.25
180.67	-0.19
181.048	0.46
181.427	-0.46
181.805	-0
182.183	-0.15
182.561	1
182.939	0.1
183.317	-0.56
183.695	-0.26
184.073	-0
184.451	-0.9
184.829	0.57
185.206	-0.52
185.584	0.6
185.962	-0.53
186.34	-0.27
186.718	-0.03
187.096	-0
187.473	-0.08
187.851	-0.24
188.229	-0.53
188.607	0.16
188.984	0.12
189.362	0.34
189.74	0.48
190.117	0.2
190.495	0.43
190.872	0.3
191.25	0.35
191.627	0.51
192.005	0.22
192.382	0.28
192.76	0.37
193.137	0.15
193.515	0.42
193.892	0.19
194.269	0.21
194.647	0.47
195.024	0.24
195.401	0.39
195.779	0.35
196.156	0.35
196.533	0.23
196.91	0.35
197.288	0.38
197.665	0.24
198.042	0.24
198.419	0.19
198.796	0.19
199.173	0.46
199.55	0.23
199.927	0.4
200.304	0.3
200.681	0.17
201.058	0.23
201.435	0.41
201.812	0.21
202.189	0.27
202.566	0.38
202.943	0.25
203.32	0.39
203.697	0.28
204.073	0.17
204.45	0.32
204.827	0.13
205.204	0.21
205.58	0.28
205.957	0.35
206.334	0.23
206.71	0.44
207.087	0.31
207.464	0.29
207.84	0.35
208.217	0.55
208.593	0.15
208.97	0.33
209.346	0.24
209.723	0.27
210.099	0.27
210.476	0.33
210.852	0.39
211.228	0.35
211.605	0.17
211.981	0.22
212.357	0.44
212.733	0.18
213.11	0.28
213.486	0.39
213.862	0.3
214.238	0.36
214.614	0.36
214.991	0.31
215.367	0.45
215.743	0.29
216.119	0.21
216.495	0.26
216.871	0.27
217.247	0.19
217.623	0.2
217.999	0.3
218.375	0.53
218.751	0.27
219.127	0.24
219.502	0.28
219.878	0.25
220.254	0.38
220.63	0.29
221.006	0.44
221.381	0.25
221.757	0.25
222.133	0.13
222.508	0.34
222.884	0.17
223.26	0.32
223.635	0.31
224.011	0.39
224.386	0.33
224.762	0.53
225.137	0.38
225.513	0.27
225.888	0.25
226.264	0.19
226.639	0.25
227.014	0.38
227.39	0.14
227.765	0.24
228.14	0.34
228.516	0.48
228.891	0.38
229.266	0.3
229.641	0.24
230.017	0.4
230.392	0.36
230.767	0.47
231.142	0.25
231.517	0.41
231.892	0.33
232.267	0.37
232.642	0.38
233.017	0.43
233.392	0.31
233.767	0.29
234.142	0.33
234.517	0.18
234.892	0.28
235.267	0.38
235.641	0.29
236.016	0.28
236.391	0.36
236.766	0.16
237.14	0.36
237.515	0.49
237.89	0.18
238.264	0.47
238.639	0.22
239.014	0.55
239.388	0.2
239.763	0.34
240.137	0.15
240.512	0.34
240.886	0.37
241.261	0.2
241.635	0.24
242.009	0.37
242.384	0.28
242.758	0.32
243.132	0.2
243.507	0.24
243.881	0.38
244.255	0.39
244.629	0.26
245.004	0.36
245.378	0.33
245.752	0.28
246.126	0.21
246.5	0.33
246.874	0.16
247.248	0.32
247.622	0.36
247.996	0.25
248.37	0.4
248.744	0.32
249.118	0.37
249.492	0.42
249.866	0.35
250.24	0.29
250.613	0.47
250.987	0.4
251.361	0.37
251.735	0.38
252.108	0.34
252.482	0.31
252.856	0.23
253.229	0.38
253.603	0.26
253.977	0.36
254.35	0.33
254.724	0.34
255.097	0.42
255.471	0.37
255.844	0.41
256.218	0.34
256.591	0.21
256.964	0.42
257.338	0.33
257.711	0.28
258.084	0.36
258.458	0.35
258.831	0.33
259.204	0.43
259.577	0.37
259.95	0.3
260.323	0.27
260.697	0.26
261.07	0.24
261.443	0.45
261.816	0.3
262.189	0.31
262.562	0.31
262.935	0.21
263.308	0.24
263.68	0.29
264.053	0.37
264.426	0.43
264.799	0.31
265.172	0.36
265.545	0.24
265.917	0.32
266.29	0.3
266.663	0.33
267.035	0.29
267.408	0.29
267.781	0.37
268.153	0.29
268.526	0.41
268.898	0.36
269.271	0.39
269.643	0.28
270.016	0.33
270.388	0.13
270.76	0.32
271.133	0.26
271.505	0.37
271.877	0.19
272.25	0.32
272.622	0.32
272.994	0.28
273.366	0.34
273.739	0.32
274.111	0.31
274.483	0.25
274.855	0.29
275.227	0.34
275.599	0.31
275.971	0.2
276.343	0.28
276.715	0.34
277.087	0.26
277.459	0.33
277.831	0.26
278.203	0.33
278.574	0.37
278.946	0.22
279.318	0.27
279.69	0.32
280.061	0.26
280.433	0.25
280.805	0.44
281.176	0.34
281.548	0.31
281.92	0.4
282.291	0.36
282.663	0.44
283.034	0.24
283.406	0.45
283.777	0.39
284.148	0.34
284.52	0.38
284.891	0.43
285.262	0.39
285.634	0.32
286.005	0.35
286.376	0.45
286.747	0.33
287.119	0.27
287.49	0.36
287.861	0.35
288.232	0.33
288.603	0.37
288.974	0.28
289.345	0.36
289.716	0.3
290.087	0.29
290.458	0.33
290.829	0.24
291.2	0.42
291.571	0.34
291.941	0.48
292.312	0.26
292.683	0.22
293.054	0.37
293.424	0.24
293.795	0.34
294.166	0.3
294.536	0.33
294.907	0.25
295.277	0.39
295.648	0.36
296.018	0.35
296.389	0.25
296.759	0.43
297.13	0.32
297.5	0.34
297.871	0.31
298.241	0.37
298.611	0.3
298.981	0.32
299.352	0.36
299.722	0.27
300.092	0.33
300.462	0.37
300.832	0.39
301.202	0.25
301.573	0.34
301.943	0.41
302.313	0.33
302.683	0.28
303.053	0.34
303.422	0.36
303.792	0.27
304.162	0.2
304.532	0.39
304.902	0.19
305.272	0.25
305.641	0.29
306.011	0.26
306.381	0.28
306.75	0.3
307.12	0.25
307.49	0.21
307.859	0.21
308.229	0.27
308.598	0.23
308.968	0.24
309.337	0.23
309.707	0.25
310.076	0.19
310.445	0.22
310.815	0.22
311.184	0.26
311.553	0.19
311.923	0.23
312.292	0.24
312.661	0.23
313.03	0.23
313.399	0.23
313.768	0.23
314.137	0.23
314.506	0.24
314.875	0.24
315.244	0.19
315.613	0.23
315.982	0.22
316.351	0.23
316.72	0.23
317.089	0.25
317.458	0.24
317.826	0.24
318.195	0.24
318.564	0.27
318.933	0.25
319.301	0.25
319.67	0.25
320.038	0.27
320.407	0.27
320.775	0.28
321.144	0.28
321.512	0.27
321.881	0.28
322.249	0.29
322.618	0.27
322.986	0.28
323.354	0.29
323.723	0.29
324.091	0.31
324.459	0.3
324.827	0.31
325.195	0.32
325.564	0.33
325.932	0.33
326.3	0.34
326.668	0.32
327.036	0.34
327.404	0.35
327.772	0.35
328.14	0.35
328.508	0.35
328.875	0.36
329.243	0.38
329.611	0.37
329.979	0.38
330.346	0.38
330.714	0.39
331.082	0.39
331.449	0.39
331.817	0.4
332.185	0.42
332.552	0.41
332.92	0.43
333.287	0.44
333.655	0.44
334.022	0.46
334.389	0.46
334.757	0.47
335.124	0.48
335.491	0.49
335.859	0.5
336.226	0.51
336.593	0.51
336.96	0.52
337.327	0.53
337.695	0.54
338.062	0.54
338.429	0.56
338.796	0.57
339.163	0.59
339.53	0.59
339.897	0.61
340.263	0.62
340.63	0.63
340.997	0.64
341.364	0.65
341.731	0.66
342.097	0.67
342.464	0.68
342.831	0.69
343.197	0.7
343.564	0.72
343.931	0.73
344.297	0.73
344.664	0.75
345.03	0.76
345.396	0.77
345.763	0.79
346.129	0.8
346.496	0.81
346.862	0.82
347.228	0.82
347.594	0.84
347.961	0.86
348.327	0.86
348.693	0.87
349.059	0.88
349.425	0.89
349.791	0.91
350.157	0.92
350.523	0.92
350.889	0.93
351.255	0.95
351.621	0.95
351.987	0.96
352.353	0.98
352.719	0.99
353.084	1
353.45	1.01
353.816	1.02
354.181	1.04
354.547	1.04
354.913	1.06
355.278	1.06
355.644	1.08
356.009	1.09
356.375	1.11
356.74	1.12
357.106	1.13
357.471	1.15
357.836	1.15
358.202	1.19
358.567	1.17
358.932	1.2
359.297	1.22
359.663	1.23
360.028	1.25
360.393	1.27
360.758	1.3
361.123	1.28
361.488	1.31
361.853	1.33
362.218	1.36
362.583	1.37
362.948	1.38
363.312	1.4
363.677	1.39
364.042	1.42
364.407	1.44
364.772	1.45
365.136	1.45
365.501	1.45
365.865	1.48
366.23	1.47
366.595	1.5
366.959	1.51
367.324	1.52
367.688	1.54
368.052	1.53
368.417	1.55
368.781	1.57
369.145	1.59
369.51	1.61
369.874	1.61
370.238	1.63
370.602	1.57
370.967	1.64
371.331	1.59
371.695	1.62
372.059	1.62
372.423	1.6
372.787	1.64
373.151	1.6
373.515	1.59
373.878	1.64
374.242	1.59
374.606	1.58
374.97	1.58
375.334	1.63
375.697	1.59
376.061	1.57
376.425	1.56
376.788	1.53
377.152	1.54
377.515	1.53
377.879	1.5
378.242	1.46
378.606	1.44
378.969	1.43
379.333	1.44
379.696	1.42
380.059	1.4
380.422	1.37
380.786	1.35
381.149	1.36
381.512	1.32
381.875	1.31
382.238	1.31
382.601	1.29
382.964	1.27
383.327	1.26
383.69	1.26
384.053	1.22
384.416	1.21
384.779	1.21
385.142	1.2
385.504	1.2
385.867	1.18
386.23	1.17
386.593	1.18
386.955	1.17
387.318	1.16
387.68	1.16
388.043	1.15
388.405	1.14
388.768	1.15
389.13	1.14
389.493	1.13
389.855	1.13
390.217	1.11
390.58	1.11
390.942	1.09
391.304	1.09
391.666	1.07
392.028	1.06
392.391	1.04
392.753	1.04
393.115	1.02
393.477	1.01
393.839	1
394.201	0.98
394.563	0.98
394.924	0.98
395.286	0.97
395.648	0.98
396.01	0.98
396.371	0.99
396.733	1
397.095	1.02
397.456	1.03
397.818	1.06
398.18	1.07
398.541	1.1
398.903	1.13
399.264	1.15
399.625	1.16
399.987	1.19
400.348	1.22
400.709	1.24
401.071	1.23
401.432	1.24
401.793	1.24
402.154	1.22
402.515	1.21
402.876	1.19
403.238	1.15
403.599	1.14
403.96	1.11
404.32	1.06
404.681	1.03
405.042	0.98
405.403	0.94
405.764	0.9
406.125	0.86
406.485	0.81
406.846	0.78
407.207	0.73
407.567	0.7
407.928	0.66
408.288	0.62
408.649	0.59
409.009	0.55
409.37	0.52
409.73	0.5
410.091	0.47
410.451	0.45
410.811	0.42
411.171	0.41
411.532	0.39
411.892	0.37
412.252	0.35
412.612	0.33
412.972	0.32
413.332	0.31
413.692	0.29
414.052	0.28
414.412	0.28
414.772	0.27
415.132	0.25
415.492	0.24
415.851	0.24
416.211	0.23
416.571	0.22
416.931	0.22
417.29	0.21
417.65	0.21
418.009	0.2
418.369	0.19
418.728	0.19
419.088	0.19
419.447	0.18
419.807	0.18
420.166	0.17
420.525	0.17
420.884	0.17
421.244	0.16
421.603	0.16
421.962	0.15
422.321	0.16
422.68	0.15
423.039	0.15
423.398	0.15
423.757	0.15
424.116	0.14
424.475	0.14
424.834	0.14
425.193	0.14
425.551	0.15
425.91	0.14
426.269	0.14
426.628	0.14
426.986	0.14
427.345	0.13
427.703	0.13
428.062	0.13
428.42	0.13
428.779	0.13
429.137	0.14
429.496	0.13
429.854	0.13
430.212	0.12
430.57	0.12
430.929	0.12
431.287	0.12
431.645	0.12
432.003	0.12
432.361	0.12
432.719	0.12
433.077	0.13
433.435	0.12
433.793	0.13
434.151	0.11
434.509	0.12
434.866	0.12
435.224	0.11
435.582	0.12
435.94	0.12
436.297	0.12
436.655	0.12
437.012	0.12
437.37	0.12
437.727	0.12
438.085	0.11
438.442	0.12
438.8	0.13
439.157	0.12
439.514	0.12
439.872	0.11
440.229	0.12
440.586	0.11
440.943	0.13
441.3	0.12
441.657	0.12
442.014	0.12
442.371	0.12
442.728	0.12
443.085	0.12
443.442	0.11
443.799	0.11
444.156	0.12
444.513	0.12
444.869	0.11
445.226	0.12
445.583	0.12
445.939	0.13
446.296	0.11
446.652	0.12
447.009	0.12
447.365	0.13
447.722	0.12
448.078	0.12
448.434	0.12
448.791	0.12
449.147	0.12
449.503	0.12
449.859	0.11
450.215	0.12
450.571	0.12
450.928	0.12
451.284	0.12
451.64	0.11
451.995	0.12
452.351	0.12
452.707	0.11
453.063	0.12
453.419	0.11
453.775	0.11
454.13	0.11
454.486	0.11
454.842	0.11
455.197	0.11
455.553	0.11
455.908	0.1
456.264	0.1
456.619	0.1
456.975	0.1
457.33	0.1
457.685	0.1
458.04	0.09
458.396	0.1
458.751	0.09
459.106	0.08
459.461	0.08
459.816	0.09
460.171	0.07
460.526	0.08
460.881	0.07
461.236	0.07
461.591	0.06
461.946	0.07
462.301	0.06
462.655	0.06
463.01	0.06
463.365	0.05
463.719	0.05
464.074	0.05
464.428	0.04
464.783	0.03
465.137	0.03
465.492	0.03
465.846	0.04
466.201	0.04
466.555	0.04
466.909	0.04
467.263	0.06
467.618	0.05
467.972	0.05
468.326	0.04
468.68	0.05
469.034	0.03
469.388	0.04
469.742	0.04
470.096	0.05
470.45	0.05
470.804	0.05
471.157	0.05
471.511	0.05
471.865	0.06
472.218	0.06
472.572	0.06
472.926	0.07
473.279	0.08
473.633	0.08
473.986	0.09
474.34	0.1
474.693	0.11
475.046	0.12
475.4	0.13
475.753	0.14
476.106	0.14
476.459	0.14
476.812	0.16
477.165	0.17
477.519	0.17
477.872	0.18
478.224	0.19
478.577	0.2
478.93	0.2
479.283	0.21
479.636	0.21
479.989	0.22
480.341	0.23
480.694	0.23
481.047	0.24
481.399	0.24
481.752	0.25
482.104	0.25
482.457	0.27
482.809	0.27
483.162	0.27
483.514	0.28
483.866	0.29
484.219	0.28
484.571	0.29
484.923	0.29
485.275	0.3
485.627	0.3
485.979	0.31
486.331	0.31
486.683	0.32
487.035	0.32
487.387	0.33
487.739	0.34
488.091	0.34
488.443	0.34
488.794	0.35
489.146	0.35
489.498	0.36
489.849	0.36
490.201	0.36
490.552	0.36
490.904	0.36
491.255	0.37
491.607	0.38
491.958	0.38
492.309	0.37
492.661	0.39
493.012	0.39
493.363	0.39
493.714	0.39
494.065	0.4
494.416	0.41
494.767	0.41
495.118	0.41
495.469	0.42
495.82	0.42
496.171	0.43
496.522	0.43
496.872	0.43
497.223	0.44
497.574	0.44
497.924	0.44
498.275	0.45
498.626	0.45
498.976	0.46
499.327	0.46
499.677	0.46
500.027	0.47
500.378	0.47
500.728	0.47
501.078	0.48
501.428	0.49
501.779	0.49
502.129	0.48
502.479	0.49
502.829	0.5
503.179	0.5
503.529	0.5
503.879	0.51
504.229	0.51
504.578	0.52
504.928	0.52
505.278	0.52
505.628	0.52
505.977	0.53
506.327	0.53
506.676	0.53
507.026	0.54
507.375	0.55
507.725	0.54
508.074	0.55
508.424	0.55
508.773	0.55
509.122	0.55
509.471	0.56
509.82	0.56
510.17	0.57
510.519	0.57
510.868	0.57
511.217	0.57
511.566	0.58
511.915	0.58
512.263	0.59
512.612	0.59
512.961	0.59
513.31	0.6
513.659	0.59
514.007	0.6
514.356	0.61
514.704	0.6
515.053	0.6
515.401	0.61
515.75	0.61
516.098	0.62
516.447	0.62
516.795	0.62
517.143	0.62
517.491	0.63
517.839	0.63
518.188	0.63
518.536	0.64
518.884	0.63
519.232	0.64
519.58	0.64
519.928	0.64
520.275	0.65
520.623	0.65
520.971	0.65
521.319	0.65
521.666	0.66
522.014	0.66
522.362	0.66
522.709	0.67
523.057	0.66
523.404	0.67
523.752	0.68
524.099	0.67
524.446	0.68
524.794	0.68
525.141	0.68
525.488	0.69
525.835	0.69
526.182	0.7
526.529	0.69
526.876	0.69
527.223	0.69
527.57	0.7
527.917	0.69
528.264	0.7
528.611	0.7
528.958	0.7
529.304	0.7
529.651	0.71
529.998	0.71
530.344	0.71
530.691	0.71
531.037	0.71
531.384	0.72
531.73	0.72
532.076	0.72
532.423	0.72
532.769	0.72
533.115	0.72
533.461	0.73
533.807	0.72
534.154	0.72
534.5	0.73
534.846	0.73
535.192	0.73
535.537	0.74
535.883	0.74
536.229	0.74
536.575	0.74
536.921	0.74
537.266	0.73
537.612	0.74
537.957	0.74
538.303	0.74
538.649	0.75
538.994	0.75
539.339	0.75
539.685	0.75
540.03	0.76
540.375	0.76
540.721	0.75
541.066	0.75
541.411	0.76
541.756	0.76
542.101	0.76
542.446	0.75
542.791	0.76
543.136	0.77
543.481	0.76
543.825	0.76
544.17	0.76
544.515	0.77
544.86	0.76
545.204	0.77
545.549	0.77
545.893	0.77
546.238	0.76
546.582	0.77
546.927	0.77
547.271	0.77
547.615	0.78
547.96	0.77
548.304	0.76
548.648	0.78
548.992	0.77
549.336	0.77
549.68	0.77
550.024	0.78
550.368	0.77
550.712	0.77
551.056	0.77
551.4	0.77
551.743	0.78
552.087	0.78
552.431	0.77
552.774	0.77
553.118	0.77
553.462	0.77
553.805	0.78
554.148	0.77
554.492	0.78
554.835	0.77
555.178	0.77
555.522	0.77
555.865	0.77
556.208	0.77
556.551	0.77
556.894	0.77
557.237	0.77
557.58	0.77
557.923	0.77
558.266	0.77
558.609	0.76
558.952	0.77
559.294	0.77
559.637	0.77
559.98	0.77
560.322	0.76
560.665	0.76
561.007	0.76
561.35	0.76
561.692	0.76
562.034	0.76
562.377	0.76
562.719	0.76
563.061	0.76
563.403	0.76
563.745	0.76
564.088	0.76
564.43	0.76
564.772	0.75
565.113	0.75
565.455	0.75
565.797	0.76
566.139	0.75
566.481	0.75
566.822	0.75
567.164	0.75
567.506	0.75
567.847	0.75
568.189	0.74
568.53	0.75
568.872	0.75
569.213	0.74
569.554	0.75
569.895	0.74
570.237	0.74
570.578	0.74
570.919	0.74
571.26	0.73
571.601	0.73
571.942	0.73
572.283	0.72
572.624	0.73
572.965	0.73
573.306	0.72
573.646	0.72
573.987	0.72
574.328	0.72
574.668	0.72
575.009	0.71
575.349	0.71
575.69	0.71
576.03	0.71
576.37	0.71
576.711	0.7
577.051	0.7
577.391	0.71
577.731	0.71
578.072	0.7
578.412	0.7
578.752	0.7
579.092	0.7
579.431	0.69
579.771	0.67
580.111	0.67
580.451	0.69
580.791	0.69
581.13	0.69
581.47	0.69
581.81	0.69
582.149	0.69
582.489	0.69
582.828	0.67
583.167	0.65
583.507	0.62
583.846	0.62
584.185	0.66
584.525	0.67
584.864	0.67
585.203	0.68
585.542	0.68
585.881	0.68
586.22	0.68
586.559	0.67
586.898	0.67
587.236	0.66
587.575	0.66
587.914	0.66
588.252	0.67
588.591	0.67
588.93	0.67
589.268	0.66
589.607	0.67
589.945	0.67
590.283	0.67
590.622	0.67
590.96	0.67
591.298	0.67
591.636	0.67
591.974	0.67
592.313	0.67
592.651	0.68
592.989	0.67
593.326	0.67
593.664	0.67
594.002	0.67
594.34	0.67
594.678	0.66
595.015	0.66
595.353	0.66
595.691	0.66
596.028	0.67
596.366	0.66
596.703	0.67
597.04	0.67
597.378	0.67
597.715	0.66
598.052	0.67
598.389	0.66
598.726	0.66
599.064	0.66
599.401	0.66
599.738	0.66
600.074	0.66
600.411	0.66
600.748	0.66
601.085	0.65
601.422	0.65
601.758	0.65
602.095	0.65
602.432	0.65
602.768	0.65
603.105	0.66
603.441	0.65
603.777	0.66
604.114	0.66
604.45	0.65
604.786	0.65
605.122	0.64
605.459	0.64
605.795	0.64
606.131	0.64
606.467	0.64
606.803	0.65
607.139	0.64
607.474	0.64
607.81	0.64
608.146	0.64
608.482	0.63
608.817	0.63
609.153	0.63
609.488	0.63
609.824	0.63
610.159	0.63
610.495	0.63
610.83	0.63
611.165	0.62
611.5	0.62
611.836	0.62
612.171	0.61
612.506	0.62
612.841	0.61
613.176	0.61
613.511	0.61
613.845	0.6
614.18	0.6
614.515	0.6
614.85	0.6
615.184	0.6
615.519	0.6
615.854	0.59
616.188	0.59
616.523	0.59
616.857	0.59
617.191	0.59
617.526	0.59
617.86	0.58
618.194	0.58
618.528	0.58
618.862	0.58
619.196	0.58
619.53	0.57
619.864	0.57
620.198	0.57
620.532	0.57
620.866	0.57
621.2	0.56
621.533	0.56
621.867	0.56
622.201	0.56
622.534	0.56
622.868	0.55
623.201	0.55
623.534	0.55
623.868	0.55
624.201	0.54
624.534	0.54
624.868	0.54
625.201	0.53
625.534	0.53
625.867	0.53
626.2	0.53
626.533	0.53
626.865	0.53
627.198	0.52
627.531	0.52
627.864	0.52
628.196	0.52
628.529	0.51
628.862	0.51
629.194	0.51
629.527	0.51
629.859	0.5
630.191	0.5
630.524	0.5
630.856	0.49
631.188	0.49
631.52	0.49
631.852	0.48
632.184	0.48
632.516	0.48
632.848	0.48
633.18	0.47
633.512	0.47
633.844	0.47
634.175	0.46
634.507	0.46
634.839	0.45
635.17	0.46
635.502	0.45
635.833	0.45
636.165	0.45
636.496	0.44
636.827	0.44
637.159	0.44
637.49	0.44
637.821	0.44
638.152	0.43
638.483	0.43
638.814	0.43
639.145	0.42
639.476	0.42
639.807	0.42
640.137	0.41
640.468	0.41
640.799	0.41
641.129	0.41
641.46	0.4
641.791	0.4
642.121	0.4
642.451	0.39
642.782	0.39
643.112	0.39
643.442	0.39
643.773	0.39
644.103	0.39
644.433	0.38
644.763	0.38
645.093	0.38
645.423	0.38
645.753	0.38
646.082	0.37
646.412	0.37
646.742	0.37
647.072	0.37
647.401	0.37
647.731	0.36
648.06	0.36
648.39	0.36
648.719	0.36
649.048	0.36
649.378	0.35
649.707	0.35
650.036	0.35
650.365	0.35
650.694	0.35
651.023	0.35
651.352	0.34
651.681	0.34
652.01	0.35
652.339	0.34
652.668	0.34
652.996	0.34
653.325	0.34
653.654	0.34
653.982	0.34
654.311	0.34
654.639	0.33
654.967	0.34
655.296	0.33
655.624	0.33
655.952	0.33
656.28	0.33
656.609	0.33
656.937	0.33
657.265	0.31
657.593	0.18
657.92	0.09
658.248	0.06
658.576	0.13
658.904	0.26
659.231	0.31
659.559	0.32
659.887	0.32
660.214	0.32
660.542	0.31
660.869	0.31
661.196	0.31
661.524	0.31
661.851	0.31
662.178	0.31
662.505	0.31
662.832	0.31
663.159	0.31
663.486	0.3
663.813	0.3
664.14	0.31
664.467	0.3
664.794	0.3
665.12	0.3
665.447	0.3
665.774	0.3
666.1	0.3
666.427	0.29
666.753	0.29
667.079	0.29
667.406	0.29
667.732	0.29
668.058	0.29
668.384	0.28
668.71	0.28
669.036	0.28
669.362	0.28
669.688	0.28
670.014	0.27
670.34	0.27
670.666	0.27
670.991	0.27
671.317	0.27
671.643	0.27
671.968	0.26
672.294	0.27
672.619	0.26
672.945	0.26
673.27	0.26
673.595	0.25
673.92	0.25
674.246	0.25
674.571	0.25
674.896	0.25
675.221	0.24
675.546	0.24
675.87	0.24
676.195	0.24
676.52	0.24
676.845	0.24
677.169	0.23
677.494	0.24
677.819	0.23
678.143	0.23
678.468	0.23
678.792	0.23
679.116	0.22
679.44	0.22
679.765	0.21
680.089	0.21
680.413	0.21
680.737	0.21
681.061	0.2
681.385	0.21
681.709	0.2
682.033	0.2
682.356	0.2
682.68	0.2
683.004	0.2
683.327	0.19
683.651	0.19
683.974	0.19
684.298	0.19
684.621	0.19
684.944	0.19
685.268	0.18
685.591	0.18
685.914	0.18
686.237	0.18
686.56	0.17
686.883	0.17
687.206	0.17
687.529	0.17
687.852	0.17
688.175	0.16
688.497	0.16
688.82	0.16
689.142	0.16
689.465	0.16
689.787	0.16
690.11	0.16
690.432	0.15
690.755	0.15
691.077	0.15
691.399	0.15
691.721	0.15
692.043	0.14
692.365	0.14
692.687	0.14
693.009	0.13
693.331	0.13
693.653	0.13
693.974	0.13
694.296	0.13
694.618	0.13
694.939	0.13
695.261	0.13
695.582	0.13
695.904	0.12
696.225	0.12
696.546	0.12
696.868	0.12
697.189	0.12
697.51	0.12
697.831	0.12
698.152	0.12
698.473	0.12
698.794	0.11
699.114	0.11
699.435	0.11
699.756	0.11
700.077	0.11
700.397	0.11
700.718	0.11
701.038	0.11
701.359	0.11
701.679	0.11
701.999	0.11
702.32	0.11
702.64	0.11
702.96	0.11
703.28	0.1
703.6	0.11
703.92	0.1
704.24	0.1
704.56	0.1
704.879	0.1
705.199	0.1
705.519	0.1
705.838	0.1
706.158	0.1
706.478	0.1
706.797	0.1
707.116	0.1
707.436	0.1
707.755	0.1
708.074	0.1
708.393	0.09
708.712	0.09
709.031	0.09
709.35	0.09
709.669	0.09
709.988	0.09
710.307	0.09
710.626	0.09
710.944	0.09
711.263	0.09
711.582	0.09
711.9	0.09
712.219	0.09
712.537	0.09
712.855	0.09
713.174	0.09
713.492	0.09
713.81	0.09
714.128	0.09
714.446	0.09
714.764	0.09
715.082	0.09
715.4	0.09
715.718	0.09
716.035	0.09
716.353	0.09
716.671	0.09
716.988	0.09
717.306	0.09
717.623	0.1
717.941	0.1
718.258	0.1
718.575	0.1
718.893	0.1
719.21	0.09
719.527	0.09
719.844	0.1
720.161	0.09
720.478	0.1
720.795	0.1
721.112	0.1
721.428	0.1
721.745	0.1
722.062	0.1
722.378	0.1
722.695	0.1
723.011	0.1
723.328	0.1
723.644	0.1
723.96	0.1
724.276	0.1
724.593	0.1
724.909	0.1
725.225	0.1
725.541	0.1
725.857	0.1
726.173	0.1
726.488	0.1
726.804	0.1
727.12	0.1
727.435	0.1
727.751	0.1
728.067	0.1
728.382	0.1
728.697	0.1
729.013	0.1
729.328	0.1
729.643	0.1
729.958	0.1
730.273	0.1
730.588	0.09
730.903	0.1
731.218	0.1
731.533	0.1
731.848	0.1
732.163	0.09
732.477	0.09
732.792	0.09
733.107	0.09
733.421	0.09
733.736	0.09
734.05	0.09
734.364	0.09
734.678	0.09
734.993	0.09
735.307	0.09
735.621	0.09
735.935	0.09
736.249	0.09
736.563	0.09
736.877	0.09
737.19	0.09
737.504	0.09
737.818	0.09
738.131	0.09
738.445	0.09
738.758	0.09
739.072	0.09
739.385	0.09
739.698	0.09
740.012	0.09
740.325	0.09
740.638	0.09
740.951	0.09
741.264	0.08
741.577	0.08
741.89	0.08
742.203	0.08
742.515	0.08
742.828	0.08
743.141	0.08
743.453	0.08
743.766	0.08
744.078	0.08
744.391	0.08
744.703	0.08
745.015	0.08
745.327	0.08
745.639	0.08
745.952	0.08
746.264	0.07
746.575	0.08
746.887	0.07
747.199	0.07
747.511	0.08
747.823	0.07
748.134	0.07
748.446	0.07
748.757	0.07
749.069	0.07
749.38	0.07
749.692	0.07
750.003	0.07
750.314	0.07
750.625	0.07
750.936	0.07
751.248	0.06
751.559	0.07
751.869	0.06
752.18	0.06
752.491	0.06
752.802	0.06
753.112	0.06
753.423	0.06
753.734	0.06
754.044	0.06
754.355	0.06
754.665	0.06
754.975	0.06
755.285	0.06
755.596	0.06
755.906	0.06
756.216	0.06
756.526	0.06
756.836	0.05
757.146	0.06
757.455	0.05
757.765	0.05
758.075	0.05
758.385	0.05
758.694	0.05
759.004	0.05
759.313	0.05
759.622	0.05
759.932	0.05
760.241	0.05
760.55	0.05
760.859	0.05
761.168	0.05
761.477	0.05
761.786	0.05
762.095	0.05
762.404	0.05
762.713	0.05
763.021	0.05
763.33	0.05
763.639	0.05
763.947	0.05
764.256	0.05
764.564	0.05
764.872	0.05
765.181	0.05
765.489	0.05
765.797	0.05
766.105	0.05
766.413	0.05
766.721	0.05
767.029	0.05
767.337	0.05
767.644	0.05
767.952	0.05
768.26	0.05
768.567	0.05
768.875	0.05
769.182	0.04
769.49	0.04
769.797	0.04
770.104	0.05
770.411	0.05
770.718	0.05
771.026	0.05
771.333	0.05
771.639	0.05
771.946	0.05
772.253	0.05
772.56	0.05
772.867	0.05
773.173	0.05
773.48	0.05
773.786	0.04
774.093	0.05
774.399	0.05
774.705	0.05
775.012	0.04
775.318	0.05
775.624	0.04
775.93	0.04
776.236	0.04
776.542	0.05
776.848	0.04
777.154	0.04
777.459	0.04
777.765	0.05
778.071	0.05
778.376	0.05
778.682	0.05
778.987	0.05
779.292	0.05
779.598	0.05
779.903	0.05
780.208	0.05
780.513	0.05
780.818	0.05
781.123	0.05
781.428	0.05
781.733	0.05
782.038	0.05
782.343	0.05
782.647	0.05
782.952	0.05
783.256	0.05
783.561	0.05
783.865	0.05
784.17	0.05
784.474	0.05
784.778	0.05
785.082	0.05
785.386	0.05
785.69	0.05
785.994	0.05
786.298	0.05
786.602	0.05
786.906	0.05
787.209	0.05
787.513	0.05
787.817	0.05
788.12	0.05
788.424	0.05
788.727	0.05
789.03	0.05
789.333	0.05
789.637	0.05
789.94	0.05
790.243	0.05
790.546	0.05
790.849	0.05
791.152	0.05
791.454	0.05
791.757	0.05
792.06	0.05
792.362	0.05
792.665	0.05
792.967	0.05
793.27	0.06
793.572	0.05
793.874	0.05
794.177	0.05
794.479	0.05
794.781	0.05
795.083	0.05
795.385	0.05
795.687	0.06
795.989	0.05
796.29	0.06
796.592	0.06
796.894	0.06
797.195	0.06
797.497	0.06
797.798	0.06
798.1	0.06
798.401	0.06
798.702	0.06
799.003	0.06
799.304	0.06
799.605	0.06
799.906	0.06
800.207	0.06
800.508	0.06
800.809	0.06
801.11	0.06
801.41	0.06
801.711	0.06
802.011	0.06
802.312	0.06
802.612	0.06
802.913	0.06
803.213	0.06
803.513	0.06
803.813	0.06
804.113	0.06
804.413	0.06
804.713	0.06
805.013	0.06
805.313	0.06
805.613	0.07
805.912	0.07
806.212	0.07
806.511	0.06
806.811	0.06
807.11	0.06
807.41	0.07
807.709	0.06
808.008	0.06
808.307	0.06
808.606	0.07
808.905	0.07
809.204	0.07
809.503	0.07
809.802	0.07
810.101	0.07
810.399	0.07
810.698	0.07
810.997	0.07
811.295	0.07
811.593	0.07
811.892	0.07
812.19	0.07
812.488	0.07
812.786	0.07
813.084	0.07
813.383	0.07
813.68	0.08
813.978	0.08
814.276	0.07
814.574	0.07
814.872	0.07
815.169	0.07
815.467	0.08
815.764	0.07
816.062	0.07
816.359	0.07
816.656	0.08
816.954	0.07
817.251	0.07
817.548	0.08
817.845	0.08
818.142	0.08
818.439	0.08
818.735	0.08
819.032	0.08
819.329	0.08
819.626	0.08
819.922	0.08
820.219	0.08
820.515	0.09
820.811	0.08
821.108	0.08
821.404	0.08
821.7	0.08
821.996	0.09
822.292	0.08
822.588	0.09
822.884	0.08
823.18	0.08
823.475	0.08
823.771	0.08
824.067	0.08
824.362	0.08
824.658	0.08
824.953	0.09
825.249	0.08
825.544	0.08
825.839	0.08
826.134	0.09
826.429	0.09
826.724	0.09
827.019	0.08
827.314	0.09
827.609	0.09
827.904	0.09
828.198	0.09
828.493	0.09
828.787	0.08
829.082	0.09
829.376	0.08
829.671	0.09
829.965	0.09
830.259	0.09
830.553	0.09
830.847	0.09
831.141	0.09
831.435	0.1
831.729	0.09
832.023	0.1
832.317	0.09
832.61	0.09
832.904	0.1
833.197	0.1
833.491	0.1
833.784	0.1
834.077	0.09
834.371	0.1
834.664	0.1
834.957	0.09
835.25	0.1
835.543	0.1
835.836	0.1
836.129	0.1
836.421	0.1
836.714	0.1
837.007	0.1
837.299	0.1
837.592	0.1
837.884	0.1
838.177	0.09
838.469	0.1
838.761	0.09
839.053	0.1
839.345	0.11
839.637	0.1
839.929	0.1
840.221	0.1
840.513	0.1
840.805	0.1
841.096	0.1
841.388	0.1
841.68	0.1
841.971	0.1
842.262	0.1
842.554	0.1
842.845	0.11
843.136	0.12
843.427	0.11
843.718	0.11
844.009	0.1
844.3	0.11
844.591	0.1
844.882	0.1
845.173	0.1
845.463	0.11
845.754	0.1
846.044	0.1
846.335	0.11
846.625	0.11
846.915	0.1
847.206	0.11
847.496	0.11
847.786	0.11
848.076	0.12
848.366	0.11
848.656	0.12
848.945	0.12
849.235	0.11
849.525	0.12
849.814	0.11
850.104	0.11
850.393	0.1
850.683	0.11
850.972	0.11
851.261	0.11
851.551	0.12
851.84	0.1
852.129	0.11
852.418	0.11
852.707	0.12
852.995	0.12
853.284	0.12
853.573	0.1
853.862	0.11
854.15	0.13
854.439	0.11
854.727	0.14
855.015	0.12
855.304	0.12
855.592	0.13
855.88	0.12
856.168	0.12
856.456	0.12
856.744	0.12
857.032	0.11
857.32	0.13
857.607	0.13
857.895	0.12
858.183	0.13
858.47	0.11
858.757	0.13
859.045	0.13
859.332	0.12
859.619	0.13
859.907	0.13
860.194	0.12
860.481	0.14
860.768	0.13
861.054	0.14
861.341	0.12
861.628	0.12
861.915	0.15
862.201	0.13
862.488	0.12
862.774	0.12
863.061	0.15
863.347	0.14
863.633	0.16
863.919	0.1
864.205	0.12
864.491	0.13
864.777	0.15
865.063	0.12
865.349	0.11
865.635	0.11
865.92	0.1
866.206	0.11
866.492	0.12
866.777	0.1
867.062	0.13
867.348	0.11
867.633	0.14
867.918	0.13
868.203	0.15
868.488	0.11
868.773	0.15
869.058	0.11
869.343	0.15
869.628	0.12
869.912	0.16
870.197	0.15
870.482	0.17
870.766	0.12
871.05	0.13
871.335	0.13
871.619	0.1
871.903	0.09
872.187	0.15
872.471	0.11
872.755	0.17
873.039	0.11
873.323	0.12
873.607	0.11
873.89	0.15
874.174	0.15
874.458	0.1
874.741	0.13
875.024	0.15
875.308	0.11
875.591	0.26
875.874	0.12
876.157	0.14
876.44	0.07
876.723	0.06
877.006	0.17
877.289	0.16
877.572	0.17
877.854	0.09
878.137	0.15
878.42	0.15
878.702	0.17
878.984	0.04
879.267	0.09
879.549	0.15
879.831	0.09
880.113	0.17
880.395	0.22
880.677	0.08
880.959	0.03
