Data from Rubpy_BV_1800_EDTA_Buffered_Absorbance_16-58-39-628.txt Node
Date: Wed Jul 01 16:58:39 BST 2026
User: fpm-admin
Spectrometer: OFX00224
Trigger mode: 0
Integration Time (sec): 7.000000E-2
Scans to average: 3
Nonlinearity correction enabled: false
Boxcar width: 0
Storing dark spectrum: false
XAxis mode: Wavelengths
Number of Pixels in Spectrum: 2136
>>>>>Begin Spectral Data<<<<<
154.91	-0
155.289	-0.37
155.669	-0
156.048	-0
156.428	-0
156.807	0.1
157.186	-0
157.566	0.35
157.945	-0
158.325	0.04
158.704	0.2
159.083	0.18
159.462	-0.54
159.842	-0
160.221	-0
160.6	-0
160.979	-0
161.359	-0
161.738	-0.39
162.117	-0
162.496	-0.03
162.875	-0
163.254	0.23
163.633	-0
164.012	0.14
164.391	-0
164.77	-0.05
165.149	-1.01
165.528	-0
165.907	-0
166.286	-0.23
166.665	0.72
167.044	-0.15
167.423	0.59
167.802	-0.41
168.181	-1.15
168.559	-0.9
168.938	0.55
169.317	0.45
169.696	-1.2
170.074	-0
170.453	0.65
170.832	-1.45
171.21	-0
171.589	0.18
171.968	1.53
172.346	-0
172.725	-0
173.103	-0
173.482	-0
173.861	-0
174.239	-0.36
174.617	0.25
174.996	0.21
175.374	-0
175.753	-0
176.131	0.32
176.51	-0
176.888	-0
177.266	-0
177.645	0.06
178.023	1.86
178.401	-0.21
178.779	0.44
179.158	1.38
179.536	0.04
179.914	0.14
180.292	0.25
180.67	0.9
181.048	0.43
181.427	-0
181.805	-0
182.183	-0
182.561	0.07
182.939	-0.17
183.317	-0.04
183.695	-0.16
184.073	-0
184.451	-0.53
184.829	0.18
185.206	-0.12
185.584	-0
185.962	-0.12
186.34	-0.37
186.718	-0.16
187.096	-0
187.473	-0.41
187.851	0.02
188.229	-0.39
188.607	0.24
188.984	0.31
189.362	0.25
189.74	0.53
190.117	0.5
190.495	0.47
190.872	0.17
191.25	0.47
191.627	0.28
192.005	0.34
192.382	0.23
192.76	0.57
193.137	0.4
193.515	0.35
193.892	0.41
194.269	0.46
194.647	0.37
195.024	0.23
195.401	0.34
195.779	0.31
196.156	0.45
196.533	0.43
196.91	0.34
197.288	0.3
197.665	0.3
198.042	0.29
198.419	0.32
198.796	0.19
199.173	0.38
199.55	0.42
199.927	0.47
200.304	0.23
200.681	0.39
201.058	0.13
201.435	0.64
201.812	0.28
202.189	0.45
202.566	0.56
202.943	0.24
203.32	0.5
203.697	0.48
204.073	0.22
204.45	0.49
204.827	0.23
205.204	0.28
205.58	0.37
205.957	0.47
206.334	0.41
206.71	0.52
207.087	0.63
207.464	0.49
207.84	0.38
208.217	0.32
208.593	0.24
208.97	0.52
209.346	0.4
209.723	0.3
210.099	0.61
210.476	0.38
210.852	0.47
211.228	0.33
211.605	0.32
211.981	0.36
212.357	0.67
212.733	0.34
213.11	0.35
213.486	0.45
213.862	0.45
214.238	0.37
214.614	0.36
214.991	0.33
215.367	0.44
215.743	0.43
216.119	0.29
216.495	0.53
216.871	0.49
217.247	0.42
217.623	0.31
217.999	0.44
218.375	0.32
218.751	0.35
219.127	0.51
219.502	0.21
219.878	0.22
220.254	0.56
220.63	0.37
221.006	0.4
221.381	0.39
221.757	0.49
222.133	0.31
222.508	0.48
222.884	0.33
223.26	0.48
223.635	0.23
224.011	0.36
224.386	0.58
224.762	0.59
225.137	0.42
225.513	0.5
225.888	0.23
226.264	0.36
226.639	0.31
227.014	0.44
227.39	0.57
227.765	0.39
228.14	0.35
228.516	0.5
228.891	0.47
229.266	0.41
229.641	0.42
230.017	0.42
230.392	0.31
230.767	0.57
231.142	0.48
231.517	0.33
231.892	0.6
232.267	0.26
232.642	0.44
233.017	0.34
233.392	0.24
233.767	0.44
234.142	0.41
234.517	0.27
234.892	0.35
235.267	0.26
235.641	0.52
236.016	0.38
236.391	0.32
236.766	0.42
237.14	0.39
237.515	0.45
237.89	0.33
238.264	0.41
238.639	0.33
239.014	0.59
239.388	0.56
239.763	0.48
240.137	0.36
240.512	0.47
240.886	0.36
241.261	0.45
241.635	0.47
242.009	0.36
242.384	0.37
242.758	0.64
243.132	0.41
243.507	0.38
243.881	0.38
244.255	0.32
244.629	0.35
245.004	0.39
245.378	0.41
245.752	0.45
246.126	0.37
246.5	0.36
246.874	0.3
247.248	0.43
247.622	0.57
247.996	0.25
248.37	0.48
248.744	0.4
249.118	0.49
249.492	0.32
249.866	0.35
250.24	0.55
250.613	0.56
250.987	0.41
251.361	0.62
251.735	0.36
252.108	0.48
252.482	0.4
252.856	0.23
253.229	0.59
253.603	0.36
253.977	0.43
254.35	0.36
254.724	0.37
255.097	0.4
255.471	0.34
255.844	0.32
256.218	0.47
256.591	0.45
256.964	0.52
257.338	0.42
257.711	0.51
258.084	0.37
258.458	0.39
258.831	0.43
259.204	0.35
259.577	0.33
259.95	0.47
260.323	0.49
260.697	0.55
261.07	0.32
261.443	0.43
261.816	0.38
262.189	0.39
262.562	0.36
262.935	0.5
263.308	0.22
263.68	0.42
264.053	0.5
264.426	0.39
264.799	0.33
265.172	0.43
265.545	0.37
265.917	0.41
266.29	0.44
266.663	0.51
267.035	0.48
267.408	0.48
267.781	0.55
268.153	0.43
268.526	0.53
268.898	0.4
269.271	0.51
269.643	0.42
270.016	0.43
270.388	0.24
270.76	0.46
271.133	0.34
271.505	0.56
271.877	0.27
272.25	0.43
272.622	0.46
272.994	0.59
273.366	0.59
273.739	0.4
274.111	0.44
274.483	0.35
274.855	0.4
275.227	0.58
275.599	0.49
275.971	0.35
276.343	0.46
276.715	0.36
277.087	0.45
277.459	0.45
277.831	0.29
278.203	0.59
278.574	0.4
278.946	0.46
279.318	0.44
279.69	0.31
280.061	0.39
280.433	0.34
280.805	0.49
281.176	0.46
281.548	0.45
281.92	0.55
282.291	0.38
282.663	0.47
283.034	0.43
283.406	0.51
283.777	0.49
284.148	0.49
284.52	0.36
284.891	0.34
285.262	0.48
285.634	0.44
286.005	0.49
286.376	0.47
286.747	0.41
287.119	0.39
287.49	0.47
287.861	0.44
288.232	0.51
288.603	0.46
288.974	0.37
289.345	0.46
289.716	0.48
290.087	0.41
290.458	0.44
290.829	0.46
291.2	0.43
291.571	0.48
291.941	0.36
292.312	0.39
292.683	0.36
293.054	0.44
293.424	0.41
293.795	0.37
294.166	0.41
294.536	0.37
294.907	0.45
295.277	0.54
295.648	0.52
296.018	0.46
296.389	0.32
296.759	0.5
297.13	0.42
297.5	0.48
297.871	0.48
298.241	0.5
298.611	0.41
298.981	0.4
299.352	0.41
299.722	0.39
300.092	0.48
300.462	0.48
300.832	0.45
301.202	0.5
301.573	0.48
301.943	0.49
302.313	0.33
302.683	0.37
303.053	0.44
303.422	0.48
303.792	0.42
304.162	0.42
304.532	0.51
304.902	0.38
305.272	0.42
305.641	0.52
306.011	0.35
306.381	0.4
306.75	0.45
307.12	0.33
307.49	0.37
307.859	0.31
308.229	0.31
308.598	0.32
308.968	0.38
309.337	0.33
309.707	0.32
310.076	0.32
310.445	0.37
310.815	0.32
311.184	0.34
311.553	0.34
311.923	0.35
312.292	0.33
312.661	0.36
313.03	0.35
313.399	0.34
313.768	0.38
314.137	0.35
314.506	0.35
314.875	0.4
315.244	0.35
315.613	0.36
315.982	0.38
316.351	0.4
316.72	0.37
317.089	0.39
317.458	0.42
317.826	0.4
318.195	0.39
318.564	0.41
318.933	0.44
319.301	0.44
319.67	0.44
320.038	0.45
320.407	0.46
320.775	0.46
321.144	0.47
321.512	0.46
321.881	0.48
322.249	0.49
322.618	0.5
322.986	0.51
323.354	0.5
323.723	0.49
324.091	0.51
324.459	0.53
324.827	0.54
325.195	0.55
325.564	0.55
325.932	0.56
326.3	0.56
326.668	0.58
327.036	0.57
327.404	0.59
327.772	0.6
328.14	0.61
328.508	0.62
328.875	0.63
329.243	0.64
329.611	0.64
329.979	0.66
330.346	0.67
330.714	0.67
331.082	0.69
331.449	0.69
331.817	0.7
332.185	0.72
332.552	0.74
332.92	0.74
333.287	0.75
333.655	0.78
334.022	0.8
334.389	0.81
334.757	0.84
335.124	0.83
335.491	0.86
335.859	0.88
336.226	0.89
336.593	0.91
336.96	0.93
337.327	0.92
337.695	0.95
338.062	0.98
338.429	0.99
338.796	1.01
339.163	1.02
339.53	1.05
339.897	1.07
340.263	1.08
340.63	1.1
340.997	1.11
341.364	1.14
341.731	1.15
342.097	1.17
342.464	1.2
342.831	1.22
343.197	1.23
343.564	1.26
343.931	1.27
344.297	1.28
344.664	1.31
345.03	1.33
345.396	1.34
345.763	1.37
346.129	1.38
346.496	1.39
346.862	1.43
347.228	1.45
347.594	1.46
347.961	1.47
348.327	1.49
348.693	1.5
349.059	1.49
349.425	1.55
349.791	1.58
350.157	1.56
350.523	1.61
350.889	1.6
351.255	1.62
351.621	1.64
351.987	1.63
352.353	1.64
352.719	1.66
353.084	1.72
353.45	1.69
353.816	1.72
354.181	1.74
354.547	1.81
354.913	1.75
355.278	1.8
355.644	1.81
356.009	1.76
356.375	1.83
356.74	1.83
357.106	1.89
357.471	1.86
357.836	1.89
358.202	1.96
358.567	1.98
358.932	1.96
359.297	1.96
359.663	1.97
360.028	1.98
360.393	2.01
360.758	2.03
361.123	2.02
361.488	2.08
361.853	2.05
362.218	2.12
362.583	2.06
362.948	2.12
363.312	2.08
363.677	2.11
364.042	2.11
364.407	2.18
364.772	2.12
365.136	2.14
365.501	2.1
365.865	2.18
366.23	2.02
366.595	2.1
366.959	2.18
367.324	2.12
367.688	2.18
368.052	2.18
368.417	2.18
368.781	2.19
369.145	2.3
369.51	2.27
369.874	2.21
370.238	2.29
370.602	2.07
370.967	2.21
371.331	2.21
371.695	2.17
372.059	2.25
372.423	2.21
372.787	2.21
373.151	2.17
373.515	2.15
373.878	2.23
374.242	2.16
374.606	2.11
374.97	2.18
375.334	2.18
375.697	2.12
376.061	2.16
376.425	2.22
376.788	2.19
377.152	2.14
377.515	2.23
377.879	2.22
378.242	2.11
378.606	2.15
378.969	2.09
379.333	2.16
379.696	2.17
380.059	2.09
380.422	2.06
380.786	2.05
381.149	2.14
381.512	2.05
381.875	2.11
382.238	2.05
382.601	1.97
382.964	1.97
383.327	1.95
383.69	1.94
384.053	1.89
384.416	1.91
384.779	1.88
385.142	1.85
385.504	1.85
385.867	1.85
386.23	1.86
386.593	1.8
386.955	1.8
387.318	1.8
387.68	1.77
388.043	1.75
388.405	1.74
388.768	1.79
389.13	1.77
389.493	1.71
389.855	1.7
390.217	1.66
390.58	1.69
390.942	1.63
391.304	1.62
391.666	1.61
392.028	1.58
392.391	1.57
392.753	1.55
393.115	1.55
393.477	1.5
393.839	1.47
394.201	1.48
394.563	1.46
394.924	1.44
395.286	1.46
395.648	1.46
396.01	1.44
396.371	1.46
396.733	1.48
397.095	1.46
397.456	1.48
397.818	1.52
398.18	1.54
398.541	1.59
398.903	1.61
399.264	1.64
399.625	1.65
399.987	1.68
400.348	1.69
400.709	1.74
401.071	1.71
401.432	1.72
401.793	1.72
402.154	1.72
402.515	1.7
402.876	1.66
403.238	1.62
403.599	1.58
403.96	1.55
404.32	1.48
404.681	1.45
405.042	1.41
405.403	1.34
405.764	1.3
406.125	1.24
406.485	1.19
406.846	1.12
407.207	1.08
407.567	1.01
407.928	0.97
408.288	0.92
408.649	0.87
409.009	0.82
409.37	0.79
409.73	0.74
410.091	0.71
410.451	0.68
410.811	0.63
411.171	0.62
411.532	0.58
411.892	0.56
412.252	0.53
412.612	0.51
412.972	0.49
413.332	0.47
413.692	0.45
414.052	0.43
414.412	0.42
414.772	0.4
415.132	0.4
415.492	0.38
415.851	0.36
416.211	0.36
416.571	0.35
416.931	0.35
417.29	0.32
417.65	0.32
418.009	0.31
418.369	0.3
418.728	0.3
419.088	0.29
419.447	0.28
419.807	0.29
420.166	0.27
420.525	0.27
420.884	0.27
421.244	0.26
421.603	0.25
421.962	0.25
422.321	0.25
422.68	0.25
423.039	0.24
423.398	0.24
423.757	0.24
424.116	0.23
424.475	0.23
424.834	0.23
425.193	0.22
425.551	0.22
425.91	0.22
426.269	0.22
426.628	0.21
426.986	0.21
427.345	0.21
427.703	0.21
428.062	0.21
428.42	0.22
428.779	0.22
429.137	0.21
429.496	0.2
429.854	0.21
430.212	0.21
430.57	0.2
430.929	0.2
431.287	0.2
431.645	0.2
432.003	0.2
432.361	0.2
432.719	0.19
433.077	0.2
433.435	0.19
433.793	0.21
434.151	0.19
434.509	0.2
434.866	0.19
435.224	0.19
435.582	0.19
435.94	0.2
436.297	0.2
436.655	0.2
437.012	0.2
437.37	0.2
437.727	0.19
438.085	0.19
438.442	0.19
438.8	0.2
439.157	0.2
439.514	0.2
439.872	0.2
440.229	0.2
440.586	0.19
440.943	0.21
441.3	0.21
441.657	0.21
442.014	0.21
442.371	0.21
442.728	0.2
443.085	0.21
443.442	0.21
443.799	0.2
444.156	0.2
444.513	0.21
444.869	0.2
445.226	0.2
445.583	0.21
445.939	0.21
446.296	0.2
446.652	0.2
447.009	0.21
447.365	0.21
447.722	0.21
448.078	0.21
448.434	0.22
448.791	0.23
449.147	0.21
449.503	0.21
449.859	0.2
450.215	0.22
450.571	0.21
450.928	0.22
451.284	0.22
451.64	0.22
451.995	0.22
452.351	0.22
452.707	0.22
453.063	0.21
453.419	0.22
453.775	0.21
454.13	0.21
454.486	0.21
454.842	0.22
455.197	0.22
455.553	0.21
455.908	0.2
456.264	0.2
456.619	0.21
456.975	0.21
457.33	0.2
457.685	0.2
458.04	0.19
458.396	0.2
458.751	0.19
459.106	0.19
459.461	0.19
459.816	0.2
460.171	0.18
460.526	0.18
460.881	0.17
461.236	0.17
461.591	0.17
461.946	0.17
462.301	0.16
462.655	0.17
463.01	0.17
463.365	0.15
463.719	0.15
464.074	0.14
464.428	0.13
464.783	0.12
465.137	0.13
465.492	0.14
465.846	0.14
466.201	0.13
466.555	0.14
466.909	0.15
467.263	0.16
467.618	0.16
467.972	0.16
468.326	0.15
468.68	0.15
469.034	0.14
469.388	0.14
469.742	0.15
470.096	0.16
470.45	0.16
470.804	0.16
471.157	0.16
471.511	0.16
471.865	0.16
472.218	0.17
472.572	0.18
472.926	0.18
473.279	0.2
473.633	0.21
473.986	0.23
474.34	0.23
474.693	0.24
475.046	0.26
475.4	0.27
475.753	0.28
476.106	0.29
476.459	0.3
476.812	0.32
477.165	0.33
477.519	0.34
477.872	0.35
478.224	0.36
478.577	0.37
478.93	0.38
479.283	0.39
479.636	0.4
479.989	0.4
480.341	0.42
480.694	0.43
481.047	0.44
481.399	0.45
481.752	0.46
482.104	0.47
482.457	0.48
482.809	0.48
483.162	0.49
483.514	0.5
483.866	0.51
484.219	0.52
484.571	0.53
484.923	0.53
485.275	0.54
485.627	0.55
485.979	0.56
486.331	0.56
486.683	0.58
487.035	0.58
487.387	0.59
487.739	0.61
488.091	0.61
488.443	0.61
488.794	0.62
489.146	0.63
489.498	0.63
489.849	0.64
490.201	0.63
490.552	0.65
490.904	0.65
491.255	0.66
491.607	0.67
491.958	0.68
492.309	0.67
492.661	0.68
493.012	0.69
493.363	0.68
493.714	0.7
494.065	0.71
494.416	0.71
494.767	0.72
495.118	0.74
495.469	0.74
495.82	0.74
496.171	0.75
496.522	0.76
496.872	0.77
497.223	0.77
497.574	0.77
497.924	0.78
498.275	0.8
498.626	0.8
498.976	0.81
499.327	0.81
499.677	0.82
500.027	0.82
500.378	0.83
500.728	0.84
501.078	0.84
501.428	0.85
501.779	0.86
502.129	0.86
502.479	0.86
502.829	0.87
503.179	0.88
503.529	0.88
503.879	0.89
504.229	0.91
504.578	0.91
504.928	0.9
505.278	0.93
505.628	0.92
505.977	0.93
506.327	0.93
506.676	0.95
507.026	0.94
507.375	0.96
507.725	0.96
508.074	0.97
508.424	0.96
508.773	0.98
509.122	0.98
509.471	0.99
509.82	0.99
510.17	1
510.519	1
510.868	0.99
511.217	1.01
511.566	1.02
511.915	1.02
512.263	1.03
512.612	1.03
512.961	1.03
513.31	1.04
513.659	1.04
514.007	1.05
514.356	1.05
514.704	1.06
515.053	1.07
515.401	1.07
515.75	1.08
516.098	1.08
516.447	1.08
516.795	1.09
517.143	1.08
517.491	1.09
517.839	1.1
518.188	1.11
518.536	1.11
518.884	1.12
519.232	1.12
519.58	1.1
519.928	1.11
520.275	1.14
520.623	1.14
520.971	1.15
521.319	1.15
521.666	1.16
522.014	1.16
522.362	1.15
522.709	1.16
523.057	1.16
523.404	1.17
523.752	1.17
524.099	1.16
524.446	1.19
524.794	1.18
525.141	1.18
525.488	1.18
525.835	1.18
526.182	1.19
526.529	1.2
526.876	1.2
527.223	1.21
527.57	1.21
527.917	1.21
528.264	1.22
528.611	1.22
528.958	1.23
529.304	1.22
529.651	1.21
529.998	1.23
530.344	1.23
530.691	1.24
531.037	1.24
531.384	1.23
531.73	1.25
532.076	1.25
532.423	1.25
532.769	1.25
533.115	1.26
533.461	1.25
533.807	1.25
534.154	1.25
534.5	1.26
534.846	1.26
535.192	1.26
535.537	1.27
535.883	1.26
536.229	1.28
536.575	1.29
536.921	1.28
537.266	1.28
537.612	1.28
537.957	1.28
538.303	1.29
538.649	1.28
538.994	1.27
539.339	1.29
539.685	1.3
540.03	1.31
540.375	1.3
540.721	1.3
541.066	1.3
541.411	1.3
541.756	1.3
542.101	1.3
542.446	1.3
542.791	1.32
543.136	1.3
543.481	1.31
543.825	1.31
544.17	1.31
544.515	1.31
544.86	1.31
545.204	1.32
545.549	1.32
545.893	1.32
546.238	1.29
546.582	1.31
546.927	1.31
547.271	1.31
547.615	1.32
547.96	1.32
548.304	1.32
548.648	1.33
548.992	1.32
549.336	1.31
549.68	1.31
550.024	1.32
550.368	1.32
550.712	1.32
551.056	1.32
551.4	1.31
551.743	1.33
552.087	1.32
552.431	1.31
552.774	1.31
553.118	1.31
553.462	1.32
553.805	1.32
554.148	1.31
554.492	1.32
554.835	1.29
555.178	1.3
555.522	1.31
555.865	1.31
556.208	1.3
556.551	1.3
556.894	1.3
557.237	1.3
557.58	1.3
557.923	1.3
558.266	1.31
558.609	1.3
558.952	1.29
559.294	1.29
559.637	1.29
559.98	1.3
560.322	1.29
560.665	1.29
561.007	1.29
561.35	1.28
561.692	1.28
562.034	1.28
562.377	1.28
562.719	1.27
563.061	1.27
563.403	1.27
563.745	1.27
564.088	1.26
564.43	1.28
564.772	1.27
565.113	1.27
565.455	1.26
565.797	1.27
566.139	1.26
566.481	1.26
566.822	1.26
567.164	1.26
567.506	1.25
567.847	1.26
568.189	1.25
568.53	1.25
568.872	1.25
569.213	1.24
569.554	1.24
569.895	1.25
570.237	1.24
570.578	1.23
570.919	1.23
571.26	1.23
571.601	1.23
571.942	1.23
572.283	1.22
572.624	1.22
572.965	1.21
573.306	1.22
573.646	1.2
573.987	1.2
574.328	1.21
574.668	1.19
575.009	1.19
575.349	1.19
575.69	1.19
576.03	1.18
576.37	1.19
576.711	1.18
577.051	1.18
577.391	1.19
577.731	1.18
578.072	1.17
578.412	1.17
578.752	1.16
579.092	1.16
579.431	1.15
579.771	1.14
580.111	1.14
580.451	1.14
580.791	1.15
581.13	1.14
581.47	1.14
581.81	1.14
582.149	1.14
582.489	1.14
582.828	1.12
583.167	1.1
583.507	1.07
583.846	1.07
584.185	1.11
584.525	1.12
584.864	1.12
585.203	1.12
585.542	1.12
585.881	1.12
586.22	1.12
586.559	1.11
586.898	1.1
587.236	1.1
587.575	1.1
587.914	1.11
588.252	1.11
588.591	1.11
588.93	1.1
589.268	1.1
589.607	1.1
589.945	1.1
590.283	1.1
590.622	1.1
590.96	1.09
591.298	1.1
591.636	1.09
591.974	1.1
592.313	1.09
592.651	1.1
592.989	1.09
593.326	1.09
593.664	1.09
594.002	1.08
594.34	1.08
594.678	1.08
595.015	1.08
595.353	1.07
595.691	1.07
596.028	1.08
596.366	1.08
596.703	1.07
597.04	1.08
597.378	1.08
597.715	1.08
598.052	1.08
598.389	1.07
598.726	1.07
599.064	1.07
599.401	1.06
599.738	1.07
600.074	1.06
600.411	1.07
600.748	1.06
601.085	1.05
601.422	1.05
601.758	1.05
602.095	1.05
602.432	1.05
602.768	1.05
603.105	1.05
603.441	1.05
603.777	1.05
604.114	1.05
604.45	1.04
604.786	1.04
605.122	1.03
605.459	1.03
605.795	1.02
606.131	1.03
606.467	1.03
606.803	1.03
607.139	1.02
607.474	1.01
607.81	1.02
608.146	1.01
608.482	1.01
608.817	1
609.153	1
609.488	1
609.824	0.99
610.159	1
610.495	1
610.83	0.99
611.165	0.99
611.5	0.99
611.836	0.98
612.171	0.97
612.506	0.97
612.841	0.97
613.176	0.97
613.511	0.96
613.845	0.96
614.18	0.96
614.515	0.95
614.85	0.95
615.184	0.95
615.519	0.94
615.854	0.94
616.188	0.94
616.523	0.93
616.857	0.93
617.191	0.92
617.526	0.93
617.86	0.92
618.194	0.92
618.528	0.92
618.862	0.91
619.196	0.91
619.53	0.9
619.864	0.9
620.198	0.9
620.532	0.89
620.866	0.89
621.2	0.89
621.533	0.88
621.867	0.88
622.201	0.88
622.534	0.87
622.868	0.87
623.201	0.87
623.534	0.86
623.868	0.85
624.201	0.85
624.534	0.85
624.868	0.85
625.201	0.84
625.534	0.84
625.867	0.83
626.2	0.83
626.533	0.83
626.865	0.83
627.198	0.82
627.531	0.82
627.864	0.81
628.196	0.81
628.529	0.81
628.862	0.8
629.194	0.79
629.527	0.79
629.859	0.79
630.191	0.78
630.524	0.78
630.856	0.77
631.188	0.77
631.52	0.77
631.852	0.76
632.184	0.76
632.516	0.76
632.848	0.75
633.18	0.74
633.512	0.74
633.844	0.74
634.175	0.73
634.507	0.73
634.839	0.72
635.17	0.72
635.502	0.71
635.833	0.71
636.165	0.7
636.496	0.7
636.827	0.7
637.159	0.69
637.49	0.69
637.821	0.68
638.152	0.68
638.483	0.67
638.814	0.66
639.145	0.66
639.476	0.66
639.807	0.65
640.137	0.65
640.468	0.65
640.799	0.64
641.129	0.64
641.46	0.63
641.791	0.63
642.121	0.63
642.451	0.62
642.782	0.62
643.112	0.61
643.442	0.61
643.773	0.61
644.103	0.6
644.433	0.6
644.763	0.6
645.093	0.59
645.423	0.59
645.753	0.59
646.082	0.58
646.412	0.58
646.742	0.58
647.072	0.58
647.401	0.57
647.731	0.57
648.06	0.57
648.39	0.56
648.719	0.56
649.048	0.56
649.378	0.56
649.707	0.56
650.036	0.55
650.365	0.55
650.694	0.55
651.023	0.54
651.352	0.54
651.681	0.54
652.01	0.54
652.339	0.54
652.668	0.54
652.996	0.53
653.325	0.53
653.654	0.53
653.982	0.53
654.311	0.52
654.639	0.52
654.967	0.52
655.296	0.52
655.624	0.52
655.952	0.52
656.28	0.51
656.609	0.51
656.937	0.51
657.265	0.49
657.593	0.35
657.92	0.26
658.248	0.23
658.576	0.31
658.904	0.44
659.231	0.49
659.559	0.5
659.887	0.49
660.214	0.49
660.542	0.49
660.869	0.49
661.196	0.48
661.524	0.48
661.851	0.48
662.178	0.48
662.505	0.48
662.832	0.47
663.159	0.48
663.486	0.47
663.813	0.47
664.14	0.47
664.467	0.46
664.794	0.46
665.12	0.46
665.447	0.46
665.774	0.46
666.1	0.45
666.427	0.45
666.753	0.45
667.079	0.44
667.406	0.44
667.732	0.44
668.058	0.44
668.384	0.44
668.71	0.43
669.036	0.44
669.362	0.43
669.688	0.42
670.014	0.42
670.34	0.42
670.666	0.41
670.991	0.42
671.317	0.41
671.643	0.41
671.968	0.41
672.294	0.4
672.619	0.4
672.945	0.4
673.27	0.4
673.595	0.39
673.92	0.39
674.246	0.39
674.571	0.38
674.896	0.38
675.221	0.38
675.546	0.38
675.87	0.37
676.195	0.37
676.52	0.37
676.845	0.36
677.169	0.36
677.494	0.36
677.819	0.36
678.143	0.35
678.468	0.35
678.792	0.35
679.116	0.34
679.44	0.34
679.765	0.34
680.089	0.33
680.413	0.32
680.737	0.32
681.061	0.32
681.385	0.32
681.709	0.31
682.033	0.31
682.356	0.31
682.68	0.31
683.004	0.31
683.327	0.3
683.651	0.3
683.974	0.3
684.298	0.29
684.621	0.29
684.944	0.29
685.268	0.28
685.591	0.28
685.914	0.27
686.237	0.27
686.56	0.27
686.883	0.27
687.206	0.26
687.529	0.26
687.852	0.26
688.175	0.26
688.497	0.25
688.82	0.25
689.142	0.25
689.465	0.25
689.787	0.25
690.11	0.24
690.432	0.23
690.755	0.23
691.077	0.23
691.399	0.23
691.721	0.22
692.043	0.22
692.365	0.22
692.687	0.22
693.009	0.21
693.331	0.21
693.653	0.21
693.974	0.21
694.296	0.21
694.618	0.2
694.939	0.2
695.261	0.2
695.582	0.2
695.904	0.2
696.225	0.19
696.546	0.19
696.868	0.19
697.189	0.19
697.51	0.19
697.831	0.19
698.152	0.19
698.473	0.18
698.794	0.18
699.114	0.18
699.435	0.17
699.756	0.18
700.077	0.18
700.397	0.18
700.718	0.17
701.038	0.17
701.359	0.17
701.679	0.17
701.999	0.17
702.32	0.17
702.64	0.17
702.96	0.17
703.28	0.17
703.6	0.17
703.92	0.16
704.24	0.16
704.56	0.16
704.879	0.16
705.199	0.16
705.519	0.16
705.838	0.16
706.158	0.16
706.478	0.16
706.797	0.16
707.116	0.16
707.436	0.16
707.755	0.16
708.074	0.15
708.393	0.15
708.712	0.15
709.031	0.14
709.35	0.14
709.669	0.14
709.988	0.14
710.307	0.14
710.626	0.14
710.944	0.15
711.263	0.15
711.582	0.15
711.9	0.15
712.219	0.15
712.537	0.15
712.855	0.14
713.174	0.15
713.492	0.15
713.81	0.15
714.128	0.15
714.446	0.15
714.764	0.14
715.082	0.14
715.4	0.15
715.718	0.14
716.035	0.14
716.353	0.14
716.671	0.15
716.988	0.15
717.306	0.15
717.623	0.15
717.941	0.15
718.258	0.15
718.575	0.15
718.893	0.15
719.21	0.15
719.527	0.15
719.844	0.15
720.161	0.15
720.478	0.15
720.795	0.15
721.112	0.15
721.428	0.15
721.745	0.15
722.062	0.15
722.378	0.16
722.695	0.15
723.011	0.15
723.328	0.15
723.644	0.15
723.96	0.15
724.276	0.15
724.593	0.16
724.909	0.16
725.225	0.15
725.541	0.16
725.857	0.15
726.173	0.16
726.488	0.16
726.804	0.15
727.12	0.15
727.435	0.15
727.751	0.15
728.067	0.15
728.382	0.15
728.697	0.15
729.013	0.16
729.328	0.15
729.643	0.15
729.958	0.15
730.273	0.15
730.588	0.15
730.903	0.15
731.218	0.15
731.533	0.15
731.848	0.15
732.163	0.15
732.477	0.15
732.792	0.14
733.107	0.14
733.421	0.15
733.736	0.14
734.05	0.15
734.364	0.15
734.678	0.14
734.993	0.14
735.307	0.15
735.621	0.14
735.935	0.14
736.249	0.14
736.563	0.14
736.877	0.14
737.19	0.14
737.504	0.14
737.818	0.14
738.131	0.14
738.445	0.14
738.758	0.14
739.072	0.14
739.385	0.14
739.698	0.14
740.012	0.14
740.325	0.14
740.638	0.13
740.951	0.13
741.264	0.13
741.577	0.13
741.89	0.13
742.203	0.13
742.515	0.13
742.828	0.13
743.141	0.13
743.453	0.13
743.766	0.13
744.078	0.13
744.391	0.12
744.703	0.12
745.015	0.12
745.327	0.12
745.639	0.12
745.952	0.12
746.264	0.12
746.575	0.12
746.887	0.12
747.199	0.12
747.511	0.12
747.823	0.12
748.134	0.11
748.446	0.11
748.757	0.11
749.069	0.11
749.38	0.11
749.692	0.11
750.003	0.11
750.314	0.11
750.625	0.11
750.936	0.1
751.248	0.1
751.559	0.1
751.869	0.1
752.18	0.1
752.491	0.1
752.802	0.1
753.112	0.1
753.423	0.1
753.734	0.1
754.044	0.1
754.355	0.1
754.665	0.1
754.975	0.09
755.285	0.09
755.596	0.09
755.906	0.1
756.216	0.09
756.526	0.09
756.836	0.09
757.146	0.09
757.455	0.09
757.765	0.09
758.075	0.09
758.385	0.08
758.694	0.08
759.004	0.08
759.313	0.08
759.622	0.09
759.932	0.09
760.241	0.09
760.55	0.09
760.859	0.08
761.168	0.09
761.477	0.08
761.786	0.08
762.095	0.08
762.404	0.08
762.713	0.08
763.021	0.08
763.33	0.08
763.639	0.08
763.947	0.08
764.256	0.08
764.564	0.08
764.872	0.08
765.181	0.08
765.489	0.08
765.797	0.08
766.105	0.08
766.413	0.08
766.721	0.08
767.029	0.08
767.337	0.08
767.644	0.08
767.952	0.08
768.26	0.08
768.567	0.08
768.875	0.08
769.182	0.08
769.49	0.08
769.797	0.08
770.104	0.08
770.411	0.08
770.718	0.08
771.026	0.08
771.333	0.08
771.639	0.08
771.946	0.08
772.253	0.08
772.56	0.08
772.867	0.08
773.173	0.08
773.48	0.08
773.786	0.08
774.093	0.08
774.399	0.08
774.705	0.08
775.012	0.08
775.318	0.08
775.624	0.08
775.93	0.08
776.236	0.08
776.542	0.08
776.848	0.08
777.154	0.08
777.459	0.08
777.765	0.08
778.071	0.09
778.376	0.08
778.682	0.08
778.987	0.09
779.292	0.08
779.598	0.08
779.903	0.08
780.208	0.08
780.513	0.08
780.818	0.08
781.123	0.09
781.428	0.09
781.733	0.09
782.038	0.09
782.343	0.09
782.647	0.09
782.952	0.09
783.256	0.09
783.561	0.09
783.865	0.09
784.17	0.09
784.474	0.09
784.778	0.09
785.082	0.09
785.386	0.09
785.69	0.09
785.994	0.09
786.298	0.09
786.602	0.09
786.906	0.09
787.209	0.09
787.513	0.09
787.817	0.09
788.12	0.09
788.424	0.09
788.727	0.09
789.03	0.09
789.333	0.09
789.637	0.09
789.94	0.09
790.243	0.09
790.546	0.09
790.849	0.09
791.152	0.1
791.454	0.09
791.757	0.09
792.06	0.1
792.362	0.1
792.665	0.1
792.967	0.1
793.27	0.1
793.572	0.1
793.874	0.1
794.177	0.1
794.479	0.1
794.781	0.1
795.083	0.1
795.385	0.1
795.687	0.1
795.989	0.1
796.29	0.1
796.592	0.11
796.894	0.11
797.195	0.11
797.497	0.11
797.798	0.11
798.1	0.11
798.401	0.11
798.702	0.11
799.003	0.11
799.304	0.11
799.605	0.11
799.906	0.11
800.207	0.11
800.508	0.11
800.809	0.11
801.11	0.11
801.41	0.11
801.711	0.12
802.011	0.12
802.312	0.11
802.612	0.11
802.913	0.11
803.213	0.12
803.513	0.12
803.813	0.11
804.113	0.11
804.413	0.11
804.713	0.12
805.013	0.12
805.313	0.12
805.613	0.12
805.912	0.12
806.212	0.12
806.511	0.12
806.811	0.12
807.11	0.12
807.41	0.12
807.709	0.12
808.008	0.12
808.307	0.12
808.606	0.12
808.905	0.12
809.204	0.12
809.503	0.12
809.802	0.13
810.101	0.13
810.399	0.13
810.698	0.13
810.997	0.12
811.295	0.13
811.593	0.13
811.892	0.13
812.19	0.13
812.488	0.13
812.786	0.13
813.084	0.13
813.383	0.13
813.68	0.14
813.978	0.13
814.276	0.13
814.574	0.14
814.872	0.14
815.169	0.14
815.467	0.14
815.764	0.14
816.062	0.14
816.359	0.14
816.656	0.14
816.954	0.14
817.251	0.14
817.548	0.14
817.845	0.14
818.142	0.14
818.439	0.14
818.735	0.14
819.032	0.15
819.329	0.14
819.626	0.15
819.922	0.15
820.219	0.15
820.515	0.15
820.811	0.14
821.108	0.15
821.404	0.15
821.7	0.15
821.996	0.15
822.292	0.15
822.588	0.15
822.884	0.15
823.18	0.15
823.475	0.15
823.771	0.15
824.067	0.15
824.362	0.15
824.658	0.15
824.953	0.16
825.249	0.15
825.544	0.16
825.839	0.16
826.134	0.16
826.429	0.16
826.724	0.16
827.019	0.16
827.314	0.16
827.609	0.16
827.904	0.16
828.198	0.17
828.493	0.16
828.787	0.16
829.082	0.16
829.376	0.16
829.671	0.16
829.965	0.17
830.259	0.17
830.553	0.17
830.847	0.17
831.141	0.16
831.435	0.17
831.729	0.17
832.023	0.17
832.317	0.18
832.61	0.18
832.904	0.17
833.197	0.18
833.491	0.18
833.784	0.17
834.077	0.17
834.371	0.18
834.664	0.17
834.957	0.17
835.25	0.18
835.543	0.18
835.836	0.18
836.129	0.18
836.421	0.19
836.714	0.17
837.007	0.18
837.299	0.18
837.592	0.18
837.884	0.18
838.177	0.18
838.469	0.19
838.761	0.17
839.053	0.18
839.345	0.19
839.637	0.18
839.929	0.19
840.221	0.19
840.513	0.19
840.805	0.2
841.096	0.19
841.388	0.19
841.68	0.18
841.971	0.18
842.262	0.19
842.554	0.19
842.845	0.19
843.136	0.2
843.427	0.2
843.718	0.19
844.009	0.19
844.3	0.19
844.591	0.2
844.882	0.2
845.173	0.2
845.463	0.2
845.754	0.2
846.044	0.2
846.335	0.19
846.625	0.19
846.915	0.2
847.206	0.2
847.496	0.2
847.786	0.21
848.076	0.22
848.366	0.2
848.656	0.21
848.945	0.22
849.235	0.21
849.525	0.21
849.814	0.21
850.104	0.21
850.393	0.2
850.683	0.21
850.972	0.21
851.261	0.21
851.551	0.21
851.84	0.22
852.129	0.21
852.418	0.21
852.707	0.21
852.995	0.21
853.284	0.21
853.573	0.21
853.862	0.22
854.15	0.23
854.439	0.22
854.727	0.22
855.015	0.22
855.304	0.22
855.592	0.23
855.88	0.22
856.168	0.22
856.456	0.22
856.744	0.22
857.032	0.23
857.32	0.23
857.607	0.23
857.895	0.24
858.183	0.24
858.47	0.24
858.757	0.22
859.045	0.23
859.332	0.24
859.619	0.23
859.907	0.23
860.194	0.22
860.481	0.24
860.768	0.23
861.054	0.24
861.341	0.22
861.628	0.22
861.915	0.23
862.201	0.23
862.488	0.22
862.774	0.23
863.061	0.26
863.347	0.24
863.633	0.25
863.919	0.21
864.205	0.23
864.491	0.25
864.777	0.21
865.063	0.24
865.349	0.24
865.635	0.22
865.92	0.21
866.206	0.24
866.492	0.22
866.777	0.23
867.062	0.24
867.348	0.22
867.633	0.25
867.918	0.26
868.203	0.28
868.488	0.26
868.773	0.23
869.058	0.2
869.343	0.27
869.628	0.24
869.912	0.25
870.197	0.26
870.482	0.26
870.766	0.21
871.05	0.25
871.335	0.22
871.619	0.2
871.903	0.22
872.187	0.21
872.471	0.28
872.755	0.26
873.039	0.19
873.323	0.31
873.607	0.23
873.89	0.21
874.174	0.27
874.458	0.12
874.741	0.24
875.024	0.23
875.308	0.27
875.591	0.21
875.874	0.26
876.157	0.23
876.44	0.25
876.723	0.24
877.006	0.13
877.289	0.24
877.572	0.32
877.854	0.16
878.137	0.14
878.42	0.19
878.702	0.14
878.984	0.21
879.267	0.18
879.549	0.23
879.831	0.21
880.113	0.08
880.395	0.19
880.677	0.26
880.959	0.09
