Data from Rubpy_BV_1800_EDTA_Buffered_Absorbance_17-05-46-633.txt Node
Date: Wed Jul 01 17:05:46 BST 2026
User: fpm-admin
Spectrometer: OFX00224
Trigger mode: 0
Integration Time (sec): 7.000000E-2
Scans to average: 3
Nonlinearity correction enabled: false
Boxcar width: 0
Storing dark spectrum: false
XAxis mode: Wavelengths
Number of Pixels in Spectrum: 2136
>>>>>Begin Spectral Data<<<<<
154.91	-0
155.289	-0.32
155.669	-0
156.048	-0
156.428	-0
156.807	0.33
157.186	-0.48
157.566	-0.19
157.945	-0.7
158.325	-0
158.704	-0.16
159.083	0.21
159.462	-0
159.842	-0
160.221	-0
160.6	-1.2
160.979	-0
161.359	-0
161.738	-0.33
162.117	-0
162.496	0.03
162.875	0.45
163.254	-0.04
163.633	0.12
164.012	0.99
164.391	0.45
164.77	0.11
165.149	0.18
165.528	-0
165.907	-0
166.286	-0
166.665	0.37
167.044	0.43
167.423	0.46
167.802	-0.49
168.181	-0.6
168.559	-0.64
168.938	-0
169.317	-0
169.696	-0
170.074	-0
170.453	-0.51
170.832	-0
171.21	-0.15
171.589	-0
171.968	-0.01
172.346	0.52
172.725	-0
173.103	-0
173.482	-0
173.861	-0
174.239	-0.49
174.617	0.2
174.996	-0.2
175.374	-0.67
175.753	-0.68
176.131	0.04
176.51	0.3
176.888	-0
177.266	-0
177.645	0.05
178.023	0.95
178.401	-0.19
178.779	-0.1
179.158	0.06
179.536	0.14
179.914	0.02
180.292	0.55
180.67	-0.3
181.048	0.54
181.427	-0.21
181.805	-0
182.183	-0.8
182.561	0.46
182.939	-0.08
183.317	-0.36
183.695	-0.06
184.073	-0
184.451	-0.08
184.829	0.1
185.206	-0.29
185.584	-0
185.962	-0.19
186.34	-0.26
186.718	0.18
187.096	-0
187.473	-0.3
187.851	-0.06
188.229	0.26
188.607	0.07
188.984	0.27
189.362	0.35
189.74	0.92
190.117	0.4
190.495	0.4
190.872	0.34
191.25	0.72
191.627	0.43
192.005	0.3
192.382	0.41
192.76	0.52
193.137	0.28
193.515	0.4
193.892	0.41
194.269	0.3
194.647	0.4
195.024	0.2
195.401	0.34
195.779	0.47
196.156	0.52
196.533	0.26
196.91	0.3
197.288	0.43
197.665	0.25
198.042	0.36
198.419	0.32
198.796	0.31
199.173	0.42
199.55	0.34
199.927	0.36
200.304	0.4
200.681	0.38
201.058	0.26
201.435	0.36
201.812	0.41
202.189	0.55
202.566	0.35
202.943	0.15
203.32	0.41
203.697	0.52
204.073	0.23
204.45	0.55
204.827	0.29
205.204	0.16
205.58	0.43
205.957	0.37
206.334	0.5
206.71	0.31
207.087	0.55
207.464	0.35
207.84	0.43
208.217	0.4
208.593	0.35
208.97	0.43
209.346	0.38
209.723	0.31
210.099	0.39
210.476	0.33
210.852	0.58
211.228	0.33
211.605	0.3
211.981	0.36
212.357	0.45
212.733	0.34
213.11	0.41
213.486	0.3
213.862	0.45
214.238	0.5
214.614	0.32
214.991	0.37
215.367	0.44
215.743	0.32
216.119	0.26
216.495	0.46
216.871	0.34
217.247	0.48
217.623	0.33
217.999	0.65
218.375	0.46
218.751	0.28
219.127	0.64
219.502	0.38
219.878	0.34
220.254	0.54
220.63	0.33
221.006	0.72
221.381	0.45
221.757	0.26
222.133	0.57
222.508	0.65
222.884	0.38
223.26	0.4
223.635	0.23
224.011	0.31
224.386	0.29
224.762	0.55
225.137	0.42
225.513	0.43
225.888	0.46
226.264	0.32
226.639	0.31
227.014	0.54
227.39	0.49
227.765	0.54
228.14	0.33
228.516	0.49
228.891	0.5
229.266	0.25
229.641	0.36
230.017	0.45
230.392	0.43
230.767	0.47
231.142	0.52
231.517	0.38
231.892	0.41
232.267	0.39
232.642	0.37
233.017	0.23
233.392	0.56
233.767	0.36
234.142	0.34
234.517	0.33
234.892	0.48
235.267	0.35
235.641	0.36
236.016	0.35
236.391	0.45
236.766	0.31
237.14	0.28
237.515	0.35
237.89	0.3
238.264	0.29
238.639	0.23
239.014	0.54
239.388	0.64
239.763	0.35
240.137	0.3
240.512	0.29
240.886	0.42
241.261	0.39
241.635	0.28
242.009	0.51
242.384	0.36
242.758	0.32
243.132	0.31
243.507	0.36
243.881	0.53
244.255	0.33
244.629	0.45
245.004	0.43
245.378	0.39
245.752	0.46
246.126	0.39
246.5	0.45
246.874	0.35
247.248	0.46
247.622	0.37
247.996	0.38
248.37	0.64
248.744	0.27
249.118	0.25
249.492	0.31
249.866	0.41
250.24	0.5
250.613	0.49
250.987	0.4
251.361	0.59
251.735	0.46
252.108	0.46
252.482	0.44
252.856	0.26
253.229	0.35
253.603	0.4
253.977	0.38
254.35	0.36
254.724	0.36
255.097	0.37
255.471	0.31
255.844	0.38
256.218	0.41
256.591	0.31
256.964	0.33
257.338	0.44
257.711	0.62
258.084	0.57
258.458	0.44
258.831	0.44
259.204	0.39
259.577	0.44
259.95	0.42
260.323	0.38
260.697	0.25
261.07	0.36
261.443	0.46
261.816	0.42
262.189	0.43
262.562	0.34
262.935	0.39
263.308	0.26
263.68	0.4
264.053	0.46
264.426	0.41
264.799	0.37
265.172	0.57
265.545	0.25
265.917	0.41
266.29	0.44
266.663	0.38
267.035	0.37
267.408	0.4
267.781	0.52
268.153	0.43
268.526	0.44
268.898	0.44
269.271	0.39
269.643	0.37
270.016	0.47
270.388	0.27
270.76	0.56
271.133	0.29
271.505	0.46
271.877	0.28
272.25	0.41
272.622	0.39
272.994	0.45
273.366	0.43
273.739	0.32
274.111	0.46
274.483	0.29
274.855	0.33
275.227	0.45
275.599	0.35
275.971	0.32
276.343	0.45
276.715	0.42
277.087	0.32
277.459	0.55
277.831	0.35
278.203	0.41
278.574	0.4
278.946	0.38
279.318	0.36
279.69	0.45
280.061	0.44
280.433	0.36
280.805	0.38
281.176	0.42
281.548	0.36
281.92	0.43
282.291	0.39
282.663	0.47
283.034	0.44
283.406	0.45
283.777	0.45
284.148	0.37
284.52	0.44
284.891	0.48
285.262	0.43
285.634	0.46
286.005	0.38
286.376	0.51
286.747	0.4
287.119	0.32
287.49	0.37
287.861	0.43
288.232	0.46
288.603	0.44
288.974	0.35
289.345	0.36
289.716	0.48
290.087	0.3
290.458	0.39
290.829	0.43
291.2	0.41
291.571	0.46
291.941	0.4
292.312	0.37
292.683	0.46
293.054	0.56
293.424	0.34
293.795	0.47
294.166	0.39
294.536	0.32
294.907	0.47
295.277	0.39
295.648	0.41
296.018	0.5
296.389	0.38
296.759	0.35
297.13	0.51
297.5	0.38
297.871	0.5
298.241	0.44
298.611	0.49
298.981	0.39
299.352	0.41
299.722	0.37
300.092	0.43
300.462	0.48
300.832	0.49
301.202	0.39
301.573	0.37
301.943	0.43
302.313	0.42
302.683	0.4
303.053	0.33
303.422	0.43
303.792	0.4
304.162	0.4
304.532	0.47
304.902	0.32
305.272	0.38
305.641	0.44
306.011	0.3
306.381	0.41
306.75	0.4
307.12	0.33
307.49	0.34
307.859	0.29
308.229	0.35
308.598	0.32
308.968	0.28
309.337	0.28
309.707	0.25
310.076	0.28
310.445	0.29
310.815	0.28
311.184	0.29
311.553	0.27
311.923	0.3
312.292	0.27
312.661	0.29
313.03	0.3
313.399	0.32
313.768	0.31
314.137	0.28
314.506	0.31
314.875	0.29
315.244	0.28
315.613	0.3
315.982	0.31
316.351	0.31
316.72	0.32
317.089	0.32
317.458	0.32
317.826	0.32
318.195	0.32
318.564	0.32
318.933	0.36
319.301	0.33
319.67	0.35
320.038	0.37
320.407	0.36
320.775	0.36
321.144	0.38
321.512	0.37
321.881	0.38
322.249	0.39
322.618	0.39
322.986	0.4
323.354	0.4
323.723	0.4
324.091	0.4
324.459	0.42
324.827	0.42
325.195	0.43
325.564	0.45
325.932	0.44
326.3	0.45
326.668	0.45
327.036	0.45
327.404	0.48
327.772	0.47
328.14	0.48
328.508	0.49
328.875	0.48
329.243	0.5
329.611	0.51
329.979	0.53
330.346	0.53
330.714	0.54
331.082	0.55
331.449	0.53
331.817	0.54
332.185	0.57
332.552	0.57
332.92	0.59
333.287	0.59
333.655	0.61
334.022	0.62
334.389	0.61
334.757	0.64
335.124	0.65
335.491	0.68
335.859	0.68
336.226	0.69
336.593	0.7
336.96	0.71
337.327	0.72
337.695	0.75
338.062	0.76
338.429	0.77
338.796	0.79
339.163	0.8
339.53	0.82
339.897	0.83
340.263	0.85
340.63	0.86
340.997	0.87
341.364	0.9
341.731	0.91
342.097	0.93
342.464	0.94
342.831	0.95
343.197	0.96
343.564	0.98
343.931	0.98
344.297	1.01
344.664	1.03
345.03	1.04
345.396	1.06
345.763	1.08
346.129	1.09
346.496	1.1
346.862	1.11
347.228	1.13
347.594	1.15
347.961	1.15
348.327	1.18
348.693	1.21
349.059	1.2
349.425	1.21
349.791	1.23
350.157	1.24
350.523	1.26
350.889	1.25
351.255	1.28
351.621	1.3
351.987	1.33
352.353	1.31
352.719	1.35
353.084	1.35
353.45	1.37
353.816	1.39
354.181	1.4
354.547	1.43
354.913	1.43
355.278	1.45
355.644	1.43
356.009	1.46
356.375	1.48
356.74	1.52
357.106	1.52
357.471	1.53
357.836	1.54
358.202	1.61
358.567	1.58
358.932	1.61
359.297	1.61
359.663	1.65
360.028	1.64
360.393	1.7
360.758	1.71
361.123	1.73
361.488	1.72
361.853	1.77
362.218	1.78
362.583	1.81
362.948	1.83
363.312	1.79
363.677	1.88
364.042	1.84
364.407	1.88
364.772	1.89
365.136	1.89
365.501	1.86
365.865	1.94
366.23	1.86
366.595	1.92
366.959	1.98
367.324	1.99
367.688	1.93
368.052	1.94
368.417	1.94
368.781	1.95
369.145	2.05
369.51	2.02
369.874	2.01
370.238	1.99
370.602	1.9
370.967	2.01
371.331	1.99
371.695	1.99
372.059	2
372.423	1.98
372.787	1.99
373.151	1.96
373.515	2
373.878	2.04
374.242	1.96
374.606	1.94
374.97	2.01
375.334	1.95
375.697	1.95
376.061	1.98
376.425	1.95
376.788	1.94
377.152	1.93
377.515	1.9
377.879	1.93
378.242	1.87
378.606	1.83
378.969	1.86
379.333	1.83
379.696	1.84
380.059	1.81
380.422	1.8
380.786	1.76
381.149	1.79
381.512	1.71
381.875	1.75
382.238	1.69
382.601	1.7
382.964	1.66
383.327	1.66
383.69	1.64
384.053	1.6
384.416	1.58
384.779	1.56
385.142	1.55
385.504	1.56
385.867	1.54
386.23	1.54
386.593	1.52
386.955	1.52
387.318	1.5
387.68	1.49
388.043	1.49
388.405	1.47
388.768	1.47
389.13	1.46
389.493	1.46
389.855	1.42
390.217	1.42
390.58	1.43
390.942	1.39
391.304	1.38
391.666	1.36
392.028	1.35
392.391	1.33
392.753	1.32
393.115	1.3
393.477	1.29
393.839	1.26
394.201	1.26
394.563	1.24
394.924	1.24
395.286	1.24
395.648	1.23
396.01	1.24
396.371	1.25
396.733	1.26
397.095	1.27
397.456	1.29
397.818	1.31
398.18	1.34
398.541	1.37
398.903	1.4
399.264	1.41
399.625	1.46
399.987	1.48
400.348	1.49
400.709	1.51
401.071	1.51
401.432	1.52
401.793	1.51
402.154	1.49
402.515	1.47
402.876	1.47
403.238	1.43
403.599	1.4
403.96	1.38
404.32	1.31
404.681	1.26
405.042	1.22
405.403	1.18
405.764	1.12
406.125	1.07
406.485	1.02
406.846	0.96
407.207	0.91
407.567	0.88
407.928	0.83
408.288	0.79
408.649	0.74
409.009	0.71
409.37	0.67
409.73	0.63
410.091	0.6
410.451	0.57
410.811	0.54
411.171	0.53
411.532	0.49
411.892	0.47
412.252	0.45
412.612	0.43
412.972	0.41
413.332	0.39
413.692	0.38
414.052	0.36
414.412	0.35
414.772	0.34
415.132	0.33
415.492	0.31
415.851	0.31
416.211	0.3
416.571	0.29
416.931	0.28
417.29	0.27
417.65	0.27
418.009	0.26
418.369	0.25
418.728	0.25
419.088	0.25
419.447	0.24
419.807	0.24
420.166	0.23
420.525	0.22
420.884	0.22
421.244	0.22
421.603	0.21
421.962	0.2
422.321	0.21
422.68	0.2
423.039	0.2
423.398	0.19
423.757	0.19
424.116	0.19
424.475	0.19
424.834	0.19
425.193	0.18
425.551	0.19
425.91	0.18
426.269	0.18
426.628	0.18
426.986	0.18
427.345	0.17
427.703	0.17
428.062	0.17
428.42	0.17
428.779	0.17
429.137	0.18
429.496	0.17
429.854	0.17
430.212	0.17
430.57	0.16
430.929	0.16
431.287	0.16
431.645	0.16
432.003	0.16
432.361	0.16
432.719	0.16
433.077	0.16
433.435	0.15
433.793	0.17
434.151	0.16
434.509	0.17
434.866	0.15
435.224	0.15
435.582	0.16
435.94	0.16
436.297	0.16
436.655	0.16
437.012	0.16
437.37	0.15
437.727	0.15
438.085	0.16
438.442	0.16
438.8	0.17
439.157	0.16
439.514	0.16
439.872	0.16
440.229	0.16
440.586	0.15
440.943	0.16
441.3	0.16
441.657	0.16
442.014	0.17
442.371	0.16
442.728	0.16
443.085	0.18
443.442	0.16
443.799	0.15
444.156	0.16
444.513	0.16
444.869	0.15
445.226	0.16
445.583	0.17
445.939	0.17
446.296	0.16
446.652	0.17
447.009	0.17
447.365	0.17
447.722	0.17
448.078	0.16
448.434	0.17
448.791	0.17
449.147	0.17
449.503	0.16
449.859	0.16
450.215	0.17
450.571	0.16
450.928	0.17
451.284	0.17
451.64	0.17
451.995	0.16
452.351	0.17
452.707	0.17
453.063	0.17
453.419	0.16
453.775	0.16
454.13	0.16
454.486	0.17
454.842	0.16
455.197	0.16
455.553	0.16
455.908	0.16
456.264	0.15
456.619	0.15
456.975	0.15
457.33	0.16
457.685	0.15
458.04	0.15
458.396	0.15
458.751	0.14
459.106	0.12
459.461	0.13
459.816	0.14
460.171	0.13
460.526	0.13
460.881	0.12
461.236	0.12
461.591	0.12
461.946	0.11
462.301	0.12
462.655	0.11
463.01	0.11
463.365	0.1
463.719	0.09
464.074	0.09
464.428	0.08
464.783	0.09
465.137	0.09
465.492	0.08
465.846	0.08
466.201	0.08
466.555	0.09
466.909	0.09
467.263	0.1
467.618	0.1
467.972	0.1
468.326	0.1
468.68	0.09
469.034	0.09
469.388	0.09
469.742	0.1
470.096	0.1
470.45	0.1
470.804	0.11
471.157	0.1
471.511	0.1
471.865	0.11
472.218	0.12
472.572	0.13
472.926	0.12
473.279	0.14
473.633	0.15
473.986	0.16
474.34	0.17
474.693	0.18
475.046	0.19
475.4	0.2
475.753	0.21
476.106	0.21
476.459	0.23
476.812	0.24
477.165	0.25
477.519	0.26
477.872	0.27
478.224	0.27
478.577	0.28
478.93	0.29
479.283	0.3
479.636	0.31
479.989	0.32
480.341	0.33
480.694	0.33
481.047	0.35
481.399	0.35
481.752	0.36
482.104	0.36
482.457	0.38
482.809	0.38
483.162	0.38
483.514	0.4
483.866	0.4
484.219	0.4
484.571	0.41
484.923	0.41
485.275	0.42
485.627	0.42
485.979	0.43
486.331	0.44
486.683	0.45
487.035	0.45
487.387	0.46
487.739	0.47
488.091	0.48
488.443	0.49
488.794	0.48
489.146	0.49
489.498	0.49
489.849	0.49
490.201	0.5
490.552	0.5
490.904	0.51
491.255	0.51
491.607	0.52
491.958	0.53
492.309	0.53
492.661	0.54
493.012	0.54
493.363	0.55
493.714	0.55
494.065	0.56
494.416	0.56
494.767	0.57
495.118	0.58
495.469	0.58
495.82	0.58
496.171	0.59
496.522	0.59
496.872	0.6
497.223	0.6
497.574	0.61
497.924	0.61
498.275	0.62
498.626	0.63
498.976	0.63
499.327	0.64
499.677	0.64
500.027	0.64
500.378	0.65
500.728	0.65
501.078	0.66
501.428	0.67
501.779	0.68
502.129	0.68
502.479	0.68
502.829	0.68
503.179	0.69
503.529	0.69
503.879	0.7
504.229	0.71
504.578	0.71
504.928	0.72
505.278	0.72
505.628	0.73
505.977	0.73
506.327	0.73
506.676	0.74
507.026	0.74
507.375	0.75
507.725	0.75
508.074	0.75
508.424	0.75
508.773	0.77
509.122	0.76
509.471	0.77
509.82	0.77
510.17	0.78
510.519	0.78
510.868	0.79
511.217	0.79
511.566	0.8
511.915	0.8
512.263	0.8
512.612	0.81
512.961	0.81
513.31	0.82
513.659	0.82
514.007	0.83
514.356	0.83
514.704	0.83
515.053	0.84
515.401	0.84
515.75	0.84
516.098	0.84
516.447	0.85
516.795	0.85
517.143	0.85
517.491	0.87
517.839	0.87
518.188	0.87
518.536	0.87
518.884	0.87
519.232	0.88
519.58	0.88
519.928	0.88
520.275	0.9
520.623	0.9
520.971	0.9
521.319	0.9
521.666	0.9
522.014	0.9
522.362	0.91
522.709	0.91
523.057	0.92
523.404	0.92
523.752	0.92
524.099	0.93
524.446	0.92
524.794	0.93
525.141	0.93
525.488	0.94
525.835	0.93
526.182	0.94
526.529	0.94
526.876	0.94
527.223	0.95
527.57	0.96
527.917	0.95
528.264	0.95
528.611	0.96
528.958	0.96
529.304	0.96
529.651	0.97
529.998	0.98
530.344	0.97
530.691	0.97
531.037	0.97
531.384	0.98
531.73	0.98
532.076	0.99
532.423	0.99
532.769	0.99
533.115	0.99
533.461	0.99
533.807	1
534.154	0.99
534.5	0.99
534.846	1.01
535.192	0.99
535.537	1
535.883	1
536.229	1.01
536.575	1.02
536.921	1
537.266	1.01
537.612	1.01
537.957	1.01
538.303	1.01
538.649	1.01
538.994	1.02
539.339	1.02
539.685	1.02
540.03	1.02
540.375	1.02
540.721	1.03
541.066	1.02
541.411	1.03
541.756	1.04
542.101	1.03
542.446	1.04
542.791	1.03
543.136	1.04
543.481	1.03
543.825	1.04
544.17	1.04
544.515	1.04
544.86	1.04
545.204	1.04
545.549	1.04
545.893	1.05
546.238	1.04
546.582	1.05
546.927	1.04
547.271	1.05
547.615	1.05
547.96	1.04
548.304	1.04
548.648	1.05
548.992	1.05
549.336	1.06
549.68	1.05
550.024	1.06
550.368	1.05
550.712	1.05
551.056	1.05
551.4	1.04
551.743	1.04
552.087	1.05
552.431	1.04
552.774	1.05
553.118	1.04
553.462	1.04
553.805	1.05
554.148	1.05
554.492	1.05
554.835	1.05
555.178	1.04
555.522	1.05
555.865	1.05
556.208	1.05
556.551	1.04
556.894	1.05
557.237	1.03
557.58	1.04
557.923	1.04
558.266	1.04
558.609	1.04
558.952	1.03
559.294	1.04
559.637	1.04
559.98	1.04
560.322	1.03
560.665	1.03
561.007	1.03
561.35	1.03
561.692	1.02
562.034	1.02
562.377	1.02
562.719	1.02
563.061	1.02
563.403	1.02
563.745	1.02
564.088	1.02
564.43	1.02
564.772	1.01
565.113	1.01
565.455	1.01
565.797	1.01
566.139	1.01
566.481	1.01
566.822	1.01
567.164	1
567.506	1
567.847	1.01
568.189	1
568.53	1
568.872	1.01
569.213	1
569.554	1
569.895	0.99
570.237	1
570.578	0.99
570.919	0.99
571.26	0.99
571.601	0.98
571.942	0.98
572.283	0.98
572.624	0.97
572.965	0.98
573.306	0.97
573.646	0.97
573.987	0.97
574.328	0.97
574.668	0.96
575.009	0.96
575.349	0.96
575.69	0.95
576.03	0.96
576.37	0.95
576.711	0.95
577.051	0.95
577.391	0.95
577.731	0.95
578.072	0.94
578.412	0.94
578.752	0.94
579.092	0.93
579.431	0.92
579.771	0.91
580.111	0.91
580.451	0.92
580.791	0.93
581.13	0.92
581.47	0.92
581.81	0.91
582.149	0.92
582.489	0.92
582.828	0.9
583.167	0.88
583.507	0.85
583.846	0.85
584.185	0.89
584.525	0.9
584.864	0.91
585.203	0.91
585.542	0.91
585.881	0.91
586.22	0.9
586.559	0.9
586.898	0.89
587.236	0.88
587.575	0.89
587.914	0.89
588.252	0.9
588.591	0.9
588.93	0.89
589.268	0.89
589.607	0.89
589.945	0.89
590.283	0.89
590.622	0.89
590.96	0.9
591.298	0.89
591.636	0.89
591.974	0.89
592.313	0.89
592.651	0.9
592.989	0.89
593.326	0.89
593.664	0.88
594.002	0.88
594.34	0.88
594.678	0.88
595.015	0.88
595.353	0.87
595.691	0.88
596.028	0.88
596.366	0.89
596.703	0.88
597.04	0.88
597.378	0.88
597.715	0.88
598.052	0.88
598.389	0.88
598.726	0.88
599.064	0.87
599.401	0.87
599.738	0.87
600.074	0.87
600.411	0.87
600.748	0.86
601.085	0.86
601.422	0.86
601.758	0.86
602.095	0.86
602.432	0.86
602.768	0.86
603.105	0.86
603.441	0.86
603.777	0.86
604.114	0.86
604.45	0.86
604.786	0.85
605.122	0.85
605.459	0.84
605.795	0.84
606.131	0.85
606.467	0.84
606.803	0.84
607.139	0.84
607.474	0.83
607.81	0.83
608.146	0.83
608.482	0.84
608.817	0.82
609.153	0.82
609.488	0.82
609.824	0.82
610.159	0.82
610.495	0.82
610.83	0.82
611.165	0.82
611.5	0.81
611.836	0.8
612.171	0.8
612.506	0.81
612.841	0.8
613.176	0.8
613.511	0.8
613.845	0.79
614.18	0.78
614.515	0.79
614.85	0.79
615.184	0.78
615.519	0.78
615.854	0.78
616.188	0.77
616.523	0.77
616.857	0.77
617.191	0.76
617.526	0.76
617.86	0.76
618.194	0.76
618.528	0.75
618.862	0.76
619.196	0.75
619.53	0.75
619.864	0.74
620.198	0.74
620.532	0.74
620.866	0.74
621.2	0.74
621.533	0.73
621.867	0.73
622.201	0.72
622.534	0.72
622.868	0.72
623.201	0.72
623.534	0.72
623.868	0.71
624.201	0.71
624.534	0.7
624.868	0.7
625.201	0.7
625.534	0.7
625.867	0.69
626.2	0.69
626.533	0.69
626.865	0.68
627.198	0.68
627.531	0.68
627.864	0.67
628.196	0.67
628.529	0.66
628.862	0.67
629.194	0.66
629.527	0.65
629.859	0.65
630.191	0.65
630.524	0.65
630.856	0.65
631.188	0.64
631.52	0.63
631.852	0.63
632.184	0.63
632.516	0.62
632.848	0.62
633.18	0.62
633.512	0.61
633.844	0.61
634.175	0.6
634.507	0.6
634.839	0.59
635.17	0.59
635.502	0.59
635.833	0.59
636.165	0.59
636.496	0.58
636.827	0.58
637.159	0.57
637.49	0.57
637.821	0.56
638.152	0.56
638.483	0.56
638.814	0.55
639.145	0.55
639.476	0.55
639.807	0.55
640.137	0.54
640.468	0.54
640.799	0.53
641.129	0.53
641.46	0.52
641.791	0.52
642.121	0.52
642.451	0.51
642.782	0.51
643.112	0.51
643.442	0.51
643.773	0.5
644.103	0.5
644.433	0.5
644.763	0.5
645.093	0.49
645.423	0.49
645.753	0.49
646.082	0.49
646.412	0.49
646.742	0.48
647.072	0.48
647.401	0.48
647.731	0.47
648.06	0.47
648.39	0.47
648.719	0.46
649.048	0.46
649.378	0.46
649.707	0.46
650.036	0.46
650.365	0.46
650.694	0.45
651.023	0.45
651.352	0.45
651.681	0.45
652.01	0.45
652.339	0.45
652.668	0.44
652.996	0.44
653.325	0.44
653.654	0.44
653.982	0.44
654.311	0.44
654.639	0.43
654.967	0.43
655.296	0.43
655.624	0.43
655.952	0.43
656.28	0.43
656.609	0.43
656.937	0.42
657.265	0.41
657.593	0.26
657.92	0.17
658.248	0.15
658.576	0.23
658.904	0.35
659.231	0.41
659.559	0.42
659.887	0.41
660.214	0.41
660.542	0.41
660.869	0.4
661.196	0.41
661.524	0.41
661.851	0.4
662.178	0.4
662.505	0.4
662.832	0.4
663.159	0.4
663.486	0.39
663.813	0.39
664.14	0.39
664.467	0.39
664.794	0.39
665.12	0.39
665.447	0.39
665.774	0.38
666.1	0.38
666.427	0.38
666.753	0.38
667.079	0.38
667.406	0.37
667.732	0.37
668.058	0.37
668.384	0.36
668.71	0.36
669.036	0.36
669.362	0.36
669.688	0.36
670.014	0.35
670.34	0.35
670.666	0.35
670.991	0.35
671.317	0.34
671.643	0.34
671.968	0.34
672.294	0.34
672.619	0.34
672.945	0.34
673.27	0.33
673.595	0.33
673.92	0.32
674.246	0.33
674.571	0.32
674.896	0.32
675.221	0.32
675.546	0.31
675.87	0.31
676.195	0.31
676.52	0.31
676.845	0.3
677.169	0.3
677.494	0.3
677.819	0.3
678.143	0.29
678.468	0.29
678.792	0.29
679.116	0.29
679.44	0.29
679.765	0.28
680.089	0.28
680.413	0.27
680.737	0.27
681.061	0.26
681.385	0.27
681.709	0.26
682.033	0.26
682.356	0.26
682.68	0.26
683.004	0.26
683.327	0.25
683.651	0.25
683.974	0.25
684.298	0.24
684.621	0.24
684.944	0.24
685.268	0.24
685.591	0.23
685.914	0.23
686.237	0.23
686.56	0.22
686.883	0.22
687.206	0.22
687.529	0.22
687.852	0.21
688.175	0.21
688.497	0.21
688.82	0.21
689.142	0.21
689.465	0.2
689.787	0.21
690.11	0.2
690.432	0.2
690.755	0.19
691.077	0.19
691.399	0.19
691.721	0.19
692.043	0.19
692.365	0.19
692.687	0.18
693.009	0.18
693.331	0.18
693.653	0.17
693.974	0.17
694.296	0.17
694.618	0.17
694.939	0.17
695.261	0.17
695.582	0.17
695.904	0.16
696.225	0.16
696.546	0.16
696.868	0.16
697.189	0.16
697.51	0.16
697.831	0.16
698.152	0.16
698.473	0.15
698.794	0.15
699.114	0.15
699.435	0.14
699.756	0.15
700.077	0.15
700.397	0.15
700.718	0.14
701.038	0.14
701.359	0.14
701.679	0.14
701.999	0.14
702.32	0.14
702.64	0.14
702.96	0.14
703.28	0.14
703.6	0.14
703.92	0.14
704.24	0.13
704.56	0.13
704.879	0.13
705.199	0.13
705.519	0.13
705.838	0.13
706.158	0.13
706.478	0.13
706.797	0.13
707.116	0.13
707.436	0.13
707.755	0.13
708.074	0.13
708.393	0.12
708.712	0.12
709.031	0.11
709.35	0.12
709.669	0.11
709.988	0.12
710.307	0.12
710.626	0.12
710.944	0.12
711.263	0.12
711.582	0.12
711.9	0.12
712.219	0.12
712.537	0.12
712.855	0.12
713.174	0.12
713.492	0.12
713.81	0.12
714.128	0.12
714.446	0.12
714.764	0.12
715.082	0.12
715.4	0.12
715.718	0.12
716.035	0.12
716.353	0.12
716.671	0.12
716.988	0.12
717.306	0.12
717.623	0.12
717.941	0.13
718.258	0.12
718.575	0.12
718.893	0.12
719.21	0.12
719.527	0.12
719.844	0.12
720.161	0.12
720.478	0.12
720.795	0.13
721.112	0.13
721.428	0.13
721.745	0.12
722.062	0.12
722.378	0.13
722.695	0.13
723.011	0.13
723.328	0.12
723.644	0.13
723.96	0.13
724.276	0.13
724.593	0.13
724.909	0.13
725.225	0.13
725.541	0.13
725.857	0.13
726.173	0.13
726.488	0.13
726.804	0.13
727.12	0.13
727.435	0.13
727.751	0.13
728.067	0.13
728.382	0.13
728.697	0.13
729.013	0.13
729.328	0.13
729.643	0.13
729.958	0.13
730.273	0.13
730.588	0.12
730.903	0.13
731.218	0.12
731.533	0.12
731.848	0.12
732.163	0.12
732.477	0.12
732.792	0.12
733.107	0.12
733.421	0.12
733.736	0.12
734.05	0.12
734.364	0.12
734.678	0.12
734.993	0.12
735.307	0.12
735.621	0.12
735.935	0.12
736.249	0.12
736.563	0.12
736.877	0.12
737.19	0.12
737.504	0.12
737.818	0.12
738.131	0.12
738.445	0.12
738.758	0.12
739.072	0.12
739.385	0.11
739.698	0.12
740.012	0.12
740.325	0.11
740.638	0.11
740.951	0.11
741.264	0.11
741.577	0.11
741.89	0.11
742.203	0.11
742.515	0.11
742.828	0.11
743.141	0.11
743.453	0.11
743.766	0.1
744.078	0.1
744.391	0.1
744.703	0.1
745.015	0.1
745.327	0.1
745.639	0.1
745.952	0.1
746.264	0.1
746.575	0.1
746.887	0.1
747.199	0.1
747.511	0.09
747.823	0.1
748.134	0.09
748.446	0.09
748.757	0.09
749.069	0.09
749.38	0.09
749.692	0.09
750.003	0.09
750.314	0.09
750.625	0.09
750.936	0.09
751.248	0.09
751.559	0.08
751.869	0.08
752.18	0.09
752.491	0.08
752.802	0.08
753.112	0.08
753.423	0.08
753.734	0.08
754.044	0.08
754.355	0.08
754.665	0.08
754.975	0.08
755.285	0.07
755.596	0.08
755.906	0.08
756.216	0.08
756.526	0.07
756.836	0.07
757.146	0.08
757.455	0.07
757.765	0.07
758.075	0.07
758.385	0.07
758.694	0.07
759.004	0.07
759.313	0.07
759.622	0.07
759.932	0.07
760.241	0.07
760.55	0.07
760.859	0.07
761.168	0.07
761.477	0.07
761.786	0.07
762.095	0.07
762.404	0.06
762.713	0.07
763.021	0.07
763.33	0.06
763.639	0.06
763.947	0.06
764.256	0.07
764.564	0.07
764.872	0.06
765.181	0.07
765.489	0.06
765.797	0.06
766.105	0.06
766.413	0.06
766.721	0.06
767.029	0.06
767.337	0.06
767.644	0.06
767.952	0.06
768.26	0.06
768.567	0.06
768.875	0.06
769.182	0.06
769.49	0.06
769.797	0.06
770.104	0.06
770.411	0.06
770.718	0.06
771.026	0.06
771.333	0.06
771.639	0.06
771.946	0.06
772.253	0.06
772.56	0.07
772.867	0.06
773.173	0.06
773.48	0.06
773.786	0.06
774.093	0.07
774.399	0.06
774.705	0.06
775.012	0.06
775.318	0.06
775.624	0.06
775.93	0.06
776.236	0.06
776.542	0.06
776.848	0.06
777.154	0.06
777.459	0.06
777.765	0.06
778.071	0.07
778.376	0.06
778.682	0.07
778.987	0.07
779.292	0.07
779.598	0.06
779.903	0.07
780.208	0.07
780.513	0.07
780.818	0.07
781.123	0.07
781.428	0.07
781.733	0.07
782.038	0.07
782.343	0.07
782.647	0.07
782.952	0.07
783.256	0.07
783.561	0.07
783.865	0.07
784.17	0.07
784.474	0.07
784.778	0.07
785.082	0.07
785.386	0.07
785.69	0.07
785.994	0.08
786.298	0.07
786.602	0.07
786.906	0.07
787.209	0.07
787.513	0.07
787.817	0.07
788.12	0.07
788.424	0.07
788.727	0.07
789.03	0.07
789.333	0.07
789.637	0.07
789.94	0.07
790.243	0.07
790.546	0.07
790.849	0.07
791.152	0.07
791.454	0.07
791.757	0.07
792.06	0.08
792.362	0.08
792.665	0.08
792.967	0.08
793.27	0.08
793.572	0.08
793.874	0.07
794.177	0.08
794.479	0.07
794.781	0.08
795.083	0.08
795.385	0.08
795.687	0.08
795.989	0.08
796.29	0.08
796.592	0.08
796.894	0.08
797.195	0.08
797.497	0.09
797.798	0.09
798.1	0.09
798.401	0.08
798.702	0.08
799.003	0.08
799.304	0.08
799.605	0.08
799.906	0.08
800.207	0.08
800.508	0.08
800.809	0.09
801.11	0.08
801.41	0.08
801.711	0.09
802.011	0.09
802.312	0.09
802.612	0.09
802.913	0.09
803.213	0.09
803.513	0.09
803.813	0.09
804.113	0.09
804.413	0.09
804.713	0.09
805.013	0.09
805.313	0.09
805.613	0.09
805.912	0.1
806.212	0.1
806.511	0.09
806.811	0.09
807.11	0.09
807.41	0.09
807.709	0.09
808.008	0.09
808.307	0.09
808.606	0.09
808.905	0.09
809.204	0.09
809.503	0.1
809.802	0.1
810.101	0.1
810.399	0.1
810.698	0.1
810.997	0.1
811.295	0.1
811.593	0.1
811.892	0.1
812.19	0.1
812.488	0.1
812.786	0.1
813.084	0.1
813.383	0.11
813.68	0.11
813.978	0.11
814.276	0.11
814.574	0.11
814.872	0.1
815.169	0.1
815.467	0.11
815.764	0.1
816.062	0.11
816.359	0.1
816.656	0.11
816.954	0.11
817.251	0.11
817.548	0.11
817.845	0.11
818.142	0.11
818.439	0.11
818.735	0.11
819.032	0.11
819.329	0.11
819.626	0.11
819.922	0.11
820.219	0.12
820.515	0.11
820.811	0.11
821.108	0.11
821.404	0.11
821.7	0.11
821.996	0.11
822.292	0.12
822.588	0.11
822.884	0.11
823.18	0.12
823.475	0.12
823.771	0.12
824.067	0.11
824.362	0.12
824.658	0.12
824.953	0.13
825.249	0.12
825.544	0.12
825.839	0.12
826.134	0.13
826.429	0.12
826.724	0.12
827.019	0.12
827.314	0.12
827.609	0.12
827.904	0.12
828.198	0.13
828.493	0.13
828.787	0.13
829.082	0.13
829.376	0.12
829.671	0.12
829.965	0.12
830.259	0.13
830.553	0.13
830.847	0.14
831.141	0.13
831.435	0.14
831.729	0.14
832.023	0.14
832.317	0.14
832.61	0.14
832.904	0.14
833.197	0.13
833.491	0.14
833.784	0.13
834.077	0.13
834.371	0.13
834.664	0.13
834.957	0.14
835.25	0.14
835.543	0.13
835.836	0.14
836.129	0.14
836.421	0.14
836.714	0.14
837.007	0.14
837.299	0.14
837.592	0.15
837.884	0.15
838.177	0.14
838.469	0.15
838.761	0.15
839.053	0.15
839.345	0.16
839.637	0.15
839.929	0.14
840.221	0.15
840.513	0.15
840.805	0.15
841.096	0.15
841.388	0.14
841.68	0.16
841.971	0.15
842.262	0.15
842.554	0.15
842.845	0.15
843.136	0.17
843.427	0.16
843.718	0.15
844.009	0.15
844.3	0.15
844.591	0.16
844.882	0.16
845.173	0.15
845.463	0.17
845.754	0.15
846.044	0.15
846.335	0.15
846.625	0.16
846.915	0.16
847.206	0.16
847.496	0.16
847.786	0.16
848.076	0.17
848.366	0.15
848.656	0.18
848.945	0.16
849.235	0.16
849.525	0.16
849.814	0.16
850.104	0.16
850.393	0.17
850.683	0.17
850.972	0.17
851.261	0.17
851.551	0.17
851.84	0.17
852.129	0.17
852.418	0.16
852.707	0.16
852.995	0.17
853.284	0.17
853.573	0.16
853.862	0.17
854.15	0.18
854.439	0.18
854.727	0.19
855.015	0.18
855.304	0.17
855.592	0.17
855.88	0.16
856.168	0.17
856.456	0.17
856.744	0.19
857.032	0.18
857.32	0.17
857.607	0.19
857.895	0.19
858.183	0.19
858.47	0.2
858.757	0.18
859.045	0.18
859.332	0.18
859.619	0.18
859.907	0.21
860.194	0.19
860.481	0.2
860.768	0.19
861.054	0.19
861.341	0.18
861.628	0.18
861.915	0.2
862.201	0.19
862.488	0.18
862.774	0.18
863.061	0.18
863.347	0.2
863.633	0.2
863.919	0.17
864.205	0.18
864.491	0.19
864.777	0.18
865.063	0.19
865.349	0.18
865.635	0.18
865.92	0.16
866.206	0.16
866.492	0.18
866.777	0.17
867.062	0.19
867.348	0.18
867.633	0.2
867.918	0.19
868.203	0.2
868.488	0.19
868.773	0.2
869.058	0.2
869.343	0.23
869.628	0.18
869.912	0.18
870.197	0.24
870.482	0.23
870.766	0.22
871.05	0.19
871.335	0.19
871.619	0.19
871.903	0.13
872.187	0.2
872.471	0.16
872.755	0.25
873.039	0.16
873.323	0.17
873.607	0.2
873.89	0.18
874.174	0.2
874.458	0.15
874.741	0.19
875.024	0.14
875.308	0.12
875.591	0.17
875.874	0.2
876.157	0.18
876.44	0.24
876.723	0.17
877.006	0.21
877.289	0.24
877.572	0.27
877.854	0.13
878.137	0.22
878.42	0.09
878.702	0.13
878.984	0.09
879.267	0.12
879.549	0.29
879.831	0.2
880.113	0.09
880.395	0.28
880.677	0.22
880.959	0.21
