Data from Rubpy_BV_1800_EDTA_Buffered_Absorbance_16-53-03-584.txt Node
Date: Wed Jul 01 16:53:03 BST 2026
User: fpm-admin
Spectrometer: OFX00224
Trigger mode: 0
Integration Time (sec): 7.000000E-2
Scans to average: 3
Nonlinearity correction enabled: false
Boxcar width: 0
Storing dark spectrum: false
XAxis mode: Wavelengths
Number of Pixels in Spectrum: 2136
>>>>>Begin Spectral Data<<<<<
154.91	-0
155.289	-0.02
155.669	0.65
156.048	-0
156.428	-0
156.807	0.59
157.186	-0.9
157.566	-0.13
157.945	-0
158.325	-0
158.704	-0
159.083	-0
159.462	-0.3
159.842	-0
160.221	-0
160.6	-0
160.979	-0
161.359	-0.18
161.738	-0.76
162.117	-0
162.496	-0.15
162.875	-0.08
163.254	0.2
163.633	0.75
164.012	0.23
164.391	0.12
164.77	0.05
165.149	-0
165.528	-0
165.907	-0
166.286	-0.07
166.665	-0.08
167.044	-0
167.423	0.86
167.802	-0.3
168.181	-1.11
168.559	-0.93
168.938	-0.05
169.317	0.45
169.696	-0
170.074	-0.46
170.453	-0.61
170.832	-0
171.21	-0
171.589	-0
171.968	-0
172.346	0.15
172.725	0.18
173.103	-0.24
173.482	0.64
173.861	-0
174.239	-0.41
174.617	0.09
174.996	0.48
175.374	0.08
175.753	-0.98
176.131	1.58
176.51	-0.28
176.888	0.94
177.266	-0
177.645	-0.01
178.023	0.43
178.401	-0.19
178.779	-0.03
179.158	0.48
179.536	-0.13
179.914	-0.36
180.292	0.06
180.67	-0.1
181.048	-0
181.427	-0.63
181.805	-0
182.183	-0.43
182.561	-0
182.939	-0.38
183.317	-0.26
183.695	-0.43
184.073	-0
184.451	-0.66
184.829	-0.33
185.206	-0.61
185.584	-0
185.962	-0.58
186.34	-0.38
186.718	-0.13
187.096	-0
187.473	-0
187.851	0.1
188.229	-0.27
188.607	0.24
188.984	0.14
189.362	0.28
189.74	0.59
190.117	0.18
190.495	0.17
190.872	0.21
191.25	0.48
191.627	0.41
192.005	0.47
192.382	0.4
192.76	0.45
193.137	0.4
193.515	0.43
193.892	0.57
194.269	0.3
194.647	0.58
195.024	0.3
195.401	0.35
195.779	0.32
196.156	0.32
196.533	0.43
196.91	0.29
197.288	0.31
197.665	0.3
198.042	0.23
198.419	0.25
198.796	0.29
199.173	0.3
199.55	0.35
199.927	0.25
200.304	0.32
200.681	0.38
201.058	0.25
201.435	0.55
201.812	0.4
202.189	0.24
202.566	0.35
202.943	0.29
203.32	0.33
203.697	0.39
204.073	0.3
204.45	0.52
204.827	0.31
205.204	0.23
205.58	0.31
205.957	0.28
206.334	0.27
206.71	0.33
207.087	0.45
207.464	0.37
207.84	0.39
208.217	0.45
208.593	0.32
208.97	0.5
209.346	0.45
209.723	0.37
210.099	0.56
210.476	0.39
210.852	0.6
211.228	0.38
211.605	0.3
211.981	0.38
212.357	0.36
212.733	0.31
213.11	0.33
213.486	0.39
213.862	0.44
214.238	0.28
214.614	0.47
214.991	0.34
215.367	0.29
215.743	0.34
216.119	0.32
216.495	0.43
216.871	0.47
217.247	0.48
217.623	0.29
217.999	0.34
218.375	0.34
218.751	0.29
219.127	0.36
219.502	0.28
219.878	0.38
220.254	0.39
220.63	0.58
221.006	0.81
221.381	0.39
221.757	0.4
222.133	0.35
222.508	0.52
222.884	0.19
223.26	0.35
223.635	0.4
224.011	0.5
224.386	0.31
224.762	0.56
225.137	0.27
225.513	0.33
225.888	0.29
226.264	0.37
226.639	0.34
227.014	0.59
227.39	0.35
227.765	0.37
228.14	0.38
228.516	0.55
228.891	0.4
229.266	0.25
229.641	0.2
230.017	0.43
230.392	0.3
230.767	0.58
231.142	0.39
231.517	0.34
231.892	0.48
232.267	0.5
232.642	0.51
233.017	0.43
233.392	0.52
233.767	0.33
234.142	0.37
234.517	0.46
234.892	0.61
235.267	0.44
235.641	0.44
236.016	0.35
236.391	0.29
236.766	0.42
237.14	0.51
237.515	0.45
237.89	0.32
238.264	0.54
238.639	0.21
239.014	0.69
239.388	0.47
239.763	0.42
240.137	0.24
240.512	0.43
240.886	0.43
241.261	0.41
241.635	0.38
242.009	0.46
242.384	0.34
242.758	0.53
243.132	0.26
243.507	0.39
243.881	0.33
244.255	0.34
244.629	0.33
245.004	0.39
245.378	0.46
245.752	0.53
246.126	0.42
246.5	0.34
246.874	0.34
247.248	0.47
247.622	0.58
247.996	0.37
248.37	0.46
248.744	0.31
249.118	0.48
249.492	0.53
249.866	0.42
250.24	0.41
250.613	0.53
250.987	0.45
251.361	0.47
251.735	0.52
252.108	0.42
252.482	0.28
252.856	0.29
253.229	0.39
253.603	0.26
253.977	0.48
254.35	0.35
254.724	0.43
255.097	0.25
255.471	0.29
255.844	0.36
256.218	0.48
256.591	0.26
256.964	0.44
257.338	0.4
257.711	0.5
258.084	0.49
258.458	0.35
258.831	0.34
259.204	0.35
259.577	0.3
259.95	0.42
260.323	0.38
260.697	0.33
261.07	0.37
261.443	0.49
261.816	0.35
262.189	0.39
262.562	0.35
262.935	0.32
263.308	0.2
263.68	0.41
264.053	0.41
264.426	0.48
264.799	0.38
265.172	0.5
265.545	0.38
265.917	0.66
266.29	0.38
266.663	0.37
267.035	0.45
267.408	0.48
267.781	0.48
268.153	0.51
268.526	0.41
268.898	0.49
269.271	0.45
269.643	0.52
270.016	0.36
270.388	0.23
270.76	0.32
271.133	0.43
271.505	0.43
271.877	0.29
272.25	0.41
272.622	0.37
272.994	0.39
273.366	0.45
273.739	0.34
274.111	0.37
274.483	0.27
274.855	0.28
275.227	0.45
275.599	0.4
275.971	0.42
276.343	0.42
276.715	0.43
277.087	0.37
277.459	0.47
277.831	0.35
278.203	0.37
278.574	0.34
278.946	0.16
279.318	0.36
279.69	0.53
280.061	0.33
280.433	0.32
280.805	0.45
281.176	0.44
281.548	0.34
281.92	0.35
282.291	0.4
282.663	0.4
283.034	0.38
283.406	0.41
283.777	0.34
284.148	0.43
284.52	0.43
284.891	0.38
285.262	0.38
285.634	0.42
286.005	0.43
286.376	0.51
286.747	0.35
287.119	0.31
287.49	0.51
287.861	0.42
288.232	0.53
288.603	0.42
288.974	0.29
289.345	0.31
289.716	0.49
290.087	0.4
290.458	0.38
290.829	0.35
291.2	0.64
291.571	0.34
291.941	0.4
292.312	0.39
292.683	0.41
293.054	0.47
293.424	0.32
293.795	0.4
294.166	0.37
294.536	0.39
294.907	0.36
295.277	0.36
295.648	0.44
296.018	0.39
296.389	0.32
296.759	0.37
297.13	0.45
297.5	0.39
297.871	0.47
298.241	0.5
298.611	0.37
298.981	0.38
299.352	0.52
299.722	0.37
300.092	0.43
300.462	0.54
300.832	0.45
301.202	0.42
301.573	0.46
301.943	0.41
302.313	0.36
302.683	0.34
303.053	0.42
303.422	0.35
303.792	0.38
304.162	0.41
304.532	0.43
304.902	0.33
305.272	0.36
305.641	0.38
306.011	0.34
306.381	0.37
306.75	0.35
307.12	0.3
307.49	0.32
307.859	0.29
308.229	0.31
308.598	0.33
308.968	0.35
309.337	0.29
309.707	0.3
310.076	0.27
310.445	0.29
310.815	0.28
311.184	0.32
311.553	0.3
311.923	0.32
312.292	0.3
312.661	0.32
313.03	0.32
313.399	0.33
313.768	0.29
314.137	0.29
314.506	0.33
314.875	0.31
315.244	0.29
315.613	0.33
315.982	0.32
316.351	0.34
316.72	0.33
317.089	0.34
317.458	0.35
317.826	0.34
318.195	0.34
318.564	0.35
318.933	0.37
319.301	0.38
319.67	0.36
320.038	0.37
320.407	0.37
320.775	0.37
321.144	0.39
321.512	0.39
321.881	0.39
322.249	0.4
322.618	0.41
322.986	0.41
323.354	0.42
323.723	0.41
324.091	0.43
324.459	0.45
324.827	0.45
325.195	0.45
325.564	0.47
325.932	0.46
326.3	0.47
326.668	0.49
327.036	0.49
327.404	0.49
327.772	0.5
328.14	0.5
328.508	0.5
328.875	0.53
329.243	0.53
329.611	0.54
329.979	0.53
330.346	0.56
330.714	0.56
331.082	0.58
331.449	0.57
331.817	0.59
332.185	0.61
332.552	0.6
332.92	0.63
333.287	0.63
333.655	0.64
334.022	0.66
334.389	0.67
334.757	0.67
335.124	0.69
335.491	0.71
335.859	0.72
336.226	0.73
336.593	0.74
336.96	0.75
337.327	0.77
337.695	0.78
338.062	0.81
338.429	0.8
338.796	0.83
339.163	0.85
339.53	0.87
339.897	0.88
340.263	0.89
340.63	0.91
340.997	0.93
341.364	0.94
341.731	0.96
342.097	0.95
342.464	0.98
342.831	1.02
343.197	1.02
343.564	1.03
343.931	1.04
344.297	1.06
344.664	1.07
345.03	1.1
345.396	1.11
345.763	1.13
346.129	1.14
346.496	1.16
346.862	1.18
347.228	1.21
347.594	1.22
347.961	1.2
348.327	1.23
348.693	1.24
349.059	1.27
349.425	1.27
349.791	1.31
350.157	1.32
350.523	1.33
350.889	1.32
351.255	1.34
351.621	1.36
351.987	1.37
352.353	1.38
352.719	1.4
353.084	1.46
353.45	1.43
353.816	1.45
354.181	1.47
354.547	1.46
354.913	1.49
355.278	1.53
355.644	1.51
356.009	1.54
356.375	1.55
356.74	1.58
357.106	1.58
357.471	1.62
357.836	1.65
358.202	1.66
358.567	1.65
358.932	1.68
359.297	1.72
359.663	1.7
360.028	1.71
360.393	1.76
360.758	1.74
361.123	1.75
361.488	1.81
361.853	1.84
362.218	1.83
362.583	1.87
362.948	1.87
363.312	1.85
363.677	1.87
364.042	1.95
364.407	1.91
364.772	1.92
365.136	1.87
365.501	1.93
365.865	2
366.23	1.98
366.595	1.93
366.959	1.95
367.324	1.98
367.688	2.02
368.052	2.03
368.417	2.03
368.781	2
369.145	2.04
369.51	2.04
369.874	2.03
370.238	2.04
370.602	1.97
370.967	2.07
371.331	1.96
371.695	2.02
372.059	2.01
372.423	2.11
372.787	2.04
373.151	2
373.515	2.03
373.878	2.1
374.242	2
374.606	2.02
374.97	2.01
375.334	2.06
375.697	1.97
376.061	2
376.425	2
376.788	2
377.152	1.97
377.515	1.94
377.879	1.93
378.242	1.9
378.606	1.94
378.969	1.95
379.333	1.92
379.696	1.87
380.059	1.87
380.422	1.8
380.786	1.81
381.149	1.84
381.512	1.79
381.875	1.78
382.238	1.72
382.601	1.78
382.964	1.72
383.327	1.73
383.69	1.68
384.053	1.66
384.416	1.63
384.779	1.63
385.142	1.62
385.504	1.62
385.867	1.59
386.23	1.59
386.593	1.57
386.955	1.56
387.318	1.54
387.68	1.55
388.043	1.54
388.405	1.52
388.768	1.54
389.13	1.51
389.493	1.5
389.855	1.49
390.217	1.47
390.58	1.46
390.942	1.43
391.304	1.41
391.666	1.4
392.028	1.37
392.391	1.35
392.753	1.35
393.115	1.32
393.477	1.31
393.839	1.3
394.201	1.29
394.563	1.27
394.924	1.27
395.286	1.28
395.648	1.26
396.01	1.26
396.371	1.28
396.733	1.28
397.095	1.31
397.456	1.32
397.818	1.33
398.18	1.37
398.541	1.39
398.903	1.43
399.264	1.45
399.625	1.46
399.987	1.49
400.348	1.51
400.709	1.53
401.071	1.54
401.432	1.53
401.793	1.56
402.154	1.52
402.515	1.49
402.876	1.51
403.238	1.44
403.599	1.4
403.96	1.39
404.32	1.33
404.681	1.29
405.042	1.26
405.403	1.19
405.764	1.13
406.125	1.08
406.485	1.03
406.846	0.99
407.207	0.94
407.567	0.89
407.928	0.85
408.288	0.8
408.649	0.76
409.009	0.71
409.37	0.68
409.73	0.65
410.091	0.61
410.451	0.58
410.811	0.55
411.171	0.53
411.532	0.5
411.892	0.48
412.252	0.46
412.612	0.44
412.972	0.42
413.332	0.4
413.692	0.39
414.052	0.37
414.412	0.36
414.772	0.35
415.132	0.34
415.492	0.32
415.851	0.31
416.211	0.3
416.571	0.3
416.931	0.29
417.29	0.28
417.65	0.28
418.009	0.27
418.369	0.26
418.728	0.26
419.088	0.25
419.447	0.25
419.807	0.24
420.166	0.23
420.525	0.23
420.884	0.22
421.244	0.23
421.603	0.21
421.962	0.21
422.321	0.21
422.68	0.21
423.039	0.2
423.398	0.2
423.757	0.2
424.116	0.2
424.475	0.19
424.834	0.19
425.193	0.19
425.551	0.18
425.91	0.19
426.269	0.18
426.628	0.18
426.986	0.18
427.345	0.17
427.703	0.18
428.062	0.18
428.42	0.18
428.779	0.18
429.137	0.17
429.496	0.18
429.854	0.17
430.212	0.18
430.57	0.17
430.929	0.17
431.287	0.17
431.645	0.16
432.003	0.17
432.361	0.17
432.719	0.17
433.077	0.17
433.435	0.17
433.793	0.17
434.151	0.17
434.509	0.17
434.866	0.16
435.224	0.16
435.582	0.17
435.94	0.16
436.297	0.18
436.655	0.17
437.012	0.16
437.37	0.16
437.727	0.17
438.085	0.16
438.442	0.16
438.8	0.17
439.157	0.16
439.514	0.17
439.872	0.16
440.229	0.17
440.586	0.16
440.943	0.17
441.3	0.17
441.657	0.18
442.014	0.17
442.371	0.17
442.728	0.17
443.085	0.18
443.442	0.16
443.799	0.17
444.156	0.17
444.513	0.18
444.869	0.17
445.226	0.18
445.583	0.18
445.939	0.17
446.296	0.17
446.652	0.17
447.009	0.18
447.365	0.18
447.722	0.17
448.078	0.18
448.434	0.19
448.791	0.18
449.147	0.17
449.503	0.18
449.859	0.16
450.215	0.17
450.571	0.18
450.928	0.18
451.284	0.18
451.64	0.18
451.995	0.17
452.351	0.18
452.707	0.18
453.063	0.18
453.419	0.18
453.775	0.17
454.13	0.18
454.486	0.17
454.842	0.17
455.197	0.17
455.553	0.17
455.908	0.17
456.264	0.16
456.619	0.17
456.975	0.17
457.33	0.16
457.685	0.17
458.04	0.15
458.396	0.15
458.751	0.15
459.106	0.15
459.461	0.15
459.816	0.15
460.171	0.14
460.526	0.14
460.881	0.13
461.236	0.13
461.591	0.13
461.946	0.12
462.301	0.12
462.655	0.12
463.01	0.12
463.365	0.11
463.719	0.11
464.074	0.1
464.428	0.09
464.783	0.09
465.137	0.1
465.492	0.09
465.846	0.1
466.201	0.09
466.555	0.1
466.909	0.1
467.263	0.12
467.618	0.11
467.972	0.12
468.326	0.11
468.68	0.11
469.034	0.1
469.388	0.1
469.742	0.11
470.096	0.12
470.45	0.12
470.804	0.11
471.157	0.12
471.511	0.12
471.865	0.12
472.218	0.13
472.572	0.14
472.926	0.14
473.279	0.15
473.633	0.16
473.986	0.17
474.34	0.18
474.693	0.19
475.046	0.2
475.4	0.21
475.753	0.22
476.106	0.23
476.459	0.24
476.812	0.25
477.165	0.27
477.519	0.27
477.872	0.28
478.224	0.29
478.577	0.3
478.93	0.3
479.283	0.32
479.636	0.32
479.989	0.33
480.341	0.34
480.694	0.35
481.047	0.36
481.399	0.36
481.752	0.37
482.104	0.38
482.457	0.39
482.809	0.4
483.162	0.4
483.514	0.41
483.866	0.41
484.219	0.42
484.571	0.43
484.923	0.43
485.275	0.45
485.627	0.45
485.979	0.46
486.331	0.47
486.683	0.47
487.035	0.48
487.387	0.49
487.739	0.5
488.091	0.5
488.443	0.51
488.794	0.51
489.146	0.51
489.498	0.52
489.849	0.52
490.201	0.53
490.552	0.53
490.904	0.53
491.255	0.55
491.607	0.54
491.958	0.55
492.309	0.55
492.661	0.56
493.012	0.57
493.363	0.57
493.714	0.58
494.065	0.59
494.416	0.59
494.767	0.59
495.118	0.6
495.469	0.6
495.82	0.61
496.171	0.62
496.522	0.63
496.872	0.63
497.223	0.63
497.574	0.64
497.924	0.64
498.275	0.66
498.626	0.66
498.976	0.66
499.327	0.67
499.677	0.68
500.027	0.68
500.378	0.68
500.728	0.68
501.078	0.69
501.428	0.7
501.779	0.71
502.129	0.7
502.479	0.71
502.829	0.72
503.179	0.73
503.529	0.73
503.879	0.74
504.229	0.74
504.578	0.75
504.928	0.74
505.278	0.76
505.628	0.76
505.977	0.77
506.327	0.77
506.676	0.77
507.026	0.79
507.375	0.79
507.725	0.8
508.074	0.79
508.424	0.8
508.773	0.81
509.122	0.81
509.471	0.81
509.82	0.82
510.17	0.83
510.519	0.83
510.868	0.82
511.217	0.82
511.566	0.84
511.915	0.83
512.263	0.85
512.612	0.85
512.961	0.85
513.31	0.86
513.659	0.86
514.007	0.87
514.356	0.87
514.704	0.87
515.053	0.88
515.401	0.89
515.75	0.88
516.098	0.89
516.447	0.89
516.795	0.89
517.143	0.89
517.491	0.91
517.839	0.9
518.188	0.91
518.536	0.91
518.884	0.93
519.232	0.92
519.58	0.92
519.928	0.93
520.275	0.94
520.623	0.95
520.971	0.94
521.319	0.95
521.666	0.96
522.014	0.95
522.362	0.96
522.709	0.96
523.057	0.95
523.404	0.97
523.752	0.97
524.099	0.96
524.446	0.98
524.794	0.98
525.141	0.98
525.488	0.99
525.835	0.99
526.182	0.99
526.529	0.98
526.876	0.99
527.223	0.99
527.57	1
527.917	1
528.264	0.99
528.611	1.01
528.958	1
529.304	1.01
529.651	1.01
529.998	1.02
530.344	1.02
530.691	1.03
531.037	1.03
531.384	1.03
531.73	1.03
532.076	1.03
532.423	1.03
532.769	1.03
533.115	1.04
533.461	1.03
533.807	1.03
534.154	1.04
534.5	1.04
534.846	1.05
535.192	1.04
535.537	1.05
535.883	1.06
536.229	1.06
536.575	1.06
536.921	1.05
537.266	1.06
537.612	1.06
537.957	1.06
538.303	1.05
538.649	1.07
538.994	1.07
539.339	1.07
539.685	1.07
540.03	1.07
540.375	1.08
540.721	1.08
541.066	1.08
541.411	1.07
541.756	1.07
542.101	1.08
542.446	1.08
542.791	1.08
543.136	1.09
543.481	1.09
543.825	1.08
544.17	1.08
544.515	1.09
544.86	1.08
545.204	1.08
545.549	1.09
545.893	1.09
546.238	1.09
546.582	1.09
546.927	1.09
547.271	1.09
547.615	1.09
547.96	1.1
548.304	1.1
548.648	1.1
548.992	1.1
549.336	1.09
549.68	1.09
550.024	1.1
550.368	1.11
550.712	1.1
551.056	1.1
551.4	1.1
551.743	1.1
552.087	1.1
552.431	1.09
552.774	1.09
553.118	1.1
553.462	1.09
553.805	1.1
554.148	1.1
554.492	1.09
554.835	1.09
555.178	1.09
555.522	1.08
555.865	1.09
556.208	1.09
556.551	1.08
556.894	1.08
557.237	1.08
557.58	1.08
557.923	1.08
558.266	1.08
558.609	1.09
558.952	1.08
559.294	1.08
559.637	1.07
559.98	1.08
560.322	1.07
560.665	1.07
561.007	1.07
561.35	1.06
561.692	1.07
562.034	1.08
562.377	1.07
562.719	1.07
563.061	1.06
563.403	1.07
563.745	1.06
564.088	1.06
564.43	1.06
564.772	1.06
565.113	1.06
565.455	1.06
565.797	1.06
566.139	1.06
566.481	1.05
566.822	1.05
567.164	1.05
567.506	1.04
567.847	1.05
568.189	1.04
568.53	1.04
568.872	1.04
569.213	1.04
569.554	1.04
569.895	1.03
570.237	1.04
570.578	1.03
570.919	1.04
571.26	1.02
571.601	1.02
571.942	1.02
572.283	1.02
572.624	1.02
572.965	1.01
573.306	1.01
573.646	1.01
573.987	1
574.328	1.01
574.668	1
575.009	1
575.349	1
575.69	0.99
576.03	0.99
576.37	0.99
576.711	0.98
577.051	0.98
577.391	0.99
577.731	0.98
578.072	0.98
578.412	0.98
578.752	0.97
579.092	0.97
579.431	0.96
579.771	0.94
580.111	0.95
580.451	0.96
580.791	0.97
581.13	0.96
581.47	0.96
581.81	0.96
582.149	0.96
582.489	0.95
582.828	0.94
583.167	0.92
583.507	0.89
583.846	0.89
584.185	0.93
584.525	0.94
584.864	0.94
585.203	0.95
585.542	0.95
585.881	0.94
586.22	0.94
586.559	0.93
586.898	0.92
587.236	0.92
587.575	0.92
587.914	0.92
588.252	0.94
588.591	0.93
588.93	0.93
589.268	0.92
589.607	0.92
589.945	0.92
590.283	0.92
590.622	0.92
590.96	0.93
591.298	0.93
591.636	0.92
591.974	0.93
592.313	0.92
592.651	0.92
592.989	0.92
593.326	0.92
593.664	0.92
594.002	0.92
594.34	0.91
594.678	0.91
595.015	0.91
595.353	0.9
595.691	0.91
596.028	0.91
596.366	0.91
596.703	0.91
597.04	0.91
597.378	0.9
597.715	0.91
598.052	0.91
598.389	0.91
598.726	0.9
599.064	0.9
599.401	0.9
599.738	0.91
600.074	0.9
600.411	0.9
600.748	0.89
601.085	0.89
601.422	0.89
601.758	0.89
602.095	0.89
602.432	0.89
602.768	0.89
603.105	0.89
603.441	0.89
603.777	0.89
604.114	0.89
604.45	0.89
604.786	0.88
605.122	0.88
605.459	0.88
605.795	0.87
606.131	0.88
606.467	0.87
606.803	0.87
607.139	0.87
607.474	0.86
607.81	0.86
608.146	0.86
608.482	0.85
608.817	0.85
609.153	0.85
609.488	0.85
609.824	0.85
610.159	0.84
610.495	0.84
610.83	0.84
611.165	0.84
611.5	0.84
611.836	0.84
612.171	0.83
612.506	0.83
612.841	0.83
613.176	0.82
613.511	0.82
613.845	0.82
614.18	0.81
614.515	0.82
614.85	0.81
615.184	0.81
615.519	0.8
615.854	0.8
616.188	0.8
616.523	0.79
616.857	0.79
617.191	0.79
617.526	0.79
617.86	0.79
618.194	0.78
618.528	0.78
618.862	0.78
619.196	0.77
619.53	0.77
619.864	0.77
620.198	0.77
620.532	0.77
620.866	0.76
621.2	0.76
621.533	0.75
621.867	0.76
622.201	0.75
622.534	0.75
622.868	0.74
623.201	0.74
623.534	0.74
623.868	0.73
624.201	0.73
624.534	0.72
624.868	0.73
625.201	0.72
625.534	0.72
625.867	0.71
626.2	0.7
626.533	0.71
626.865	0.7
627.198	0.7
627.531	0.7
627.864	0.7
628.196	0.69
628.529	0.69
628.862	0.69
629.194	0.68
629.527	0.68
629.859	0.67
630.191	0.67
630.524	0.67
630.856	0.66
631.188	0.66
631.52	0.66
631.852	0.65
632.184	0.65
632.516	0.64
632.848	0.64
633.18	0.64
633.512	0.63
633.844	0.63
634.175	0.62
634.507	0.62
634.839	0.61
635.17	0.61
635.502	0.61
635.833	0.6
636.165	0.6
636.496	0.6
636.827	0.59
637.159	0.59
637.49	0.59
637.821	0.58
638.152	0.57
638.483	0.58
638.814	0.57
639.145	0.57
639.476	0.56
639.807	0.56
640.137	0.55
640.468	0.55
640.799	0.55
641.129	0.55
641.46	0.54
641.791	0.53
642.121	0.53
642.451	0.53
642.782	0.53
643.112	0.53
643.442	0.52
643.773	0.52
644.103	0.52
644.433	0.51
644.763	0.51
645.093	0.51
645.423	0.5
645.753	0.5
646.082	0.5
646.412	0.5
646.742	0.5
647.072	0.49
647.401	0.49
647.731	0.49
648.06	0.48
648.39	0.48
648.719	0.48
649.048	0.48
649.378	0.47
649.707	0.48
650.036	0.47
650.365	0.47
650.694	0.46
651.023	0.47
651.352	0.46
651.681	0.46
652.01	0.47
652.339	0.46
652.668	0.46
652.996	0.45
653.325	0.45
653.654	0.45
653.982	0.45
654.311	0.45
654.639	0.45
654.967	0.45
655.296	0.45
655.624	0.44
655.952	0.44
656.28	0.44
656.609	0.44
656.937	0.43
657.265	0.42
657.593	0.28
657.92	0.19
658.248	0.16
658.576	0.24
658.904	0.37
659.231	0.42
659.559	0.43
659.887	0.43
660.214	0.42
660.542	0.42
660.869	0.42
661.196	0.42
661.524	0.41
661.851	0.41
662.178	0.41
662.505	0.41
662.832	0.41
663.159	0.4
663.486	0.4
663.813	0.4
664.14	0.4
664.467	0.4
664.794	0.4
665.12	0.39
665.447	0.4
665.774	0.39
666.1	0.39
666.427	0.39
666.753	0.39
667.079	0.38
667.406	0.38
667.732	0.38
668.058	0.38
668.384	0.37
668.71	0.38
669.036	0.37
669.362	0.37
669.688	0.37
670.014	0.36
670.34	0.36
670.666	0.36
670.991	0.36
671.317	0.35
671.643	0.35
671.968	0.35
672.294	0.35
672.619	0.35
672.945	0.34
673.27	0.34
673.595	0.34
673.92	0.33
674.246	0.33
674.571	0.33
674.896	0.33
675.221	0.32
675.546	0.32
675.87	0.32
676.195	0.32
676.52	0.31
676.845	0.31
677.169	0.31
677.494	0.31
677.819	0.3
678.143	0.3
678.468	0.3
678.792	0.3
679.116	0.29
679.44	0.29
679.765	0.29
680.089	0.28
680.413	0.28
680.737	0.28
681.061	0.27
681.385	0.27
681.709	0.27
682.033	0.27
682.356	0.27
682.68	0.27
683.004	0.26
683.327	0.26
683.651	0.25
683.974	0.25
684.298	0.25
684.621	0.25
684.944	0.25
685.268	0.24
685.591	0.24
685.914	0.23
686.237	0.23
686.56	0.23
686.883	0.23
687.206	0.23
687.529	0.22
687.852	0.22
688.175	0.22
688.497	0.22
688.82	0.21
689.142	0.21
689.465	0.21
689.787	0.21
690.11	0.21
690.432	0.2
690.755	0.2
691.077	0.2
691.399	0.19
691.721	0.19
692.043	0.19
692.365	0.19
692.687	0.19
693.009	0.18
693.331	0.18
693.653	0.18
693.974	0.18
694.296	0.18
694.618	0.17
694.939	0.17
695.261	0.17
695.582	0.17
695.904	0.17
696.225	0.17
696.546	0.17
696.868	0.16
697.189	0.17
697.51	0.16
697.831	0.16
698.152	0.16
698.473	0.15
698.794	0.15
699.114	0.15
699.435	0.15
699.756	0.15
700.077	0.15
700.397	0.15
700.718	0.15
701.038	0.15
701.359	0.15
701.679	0.15
701.999	0.15
702.32	0.14
702.64	0.15
702.96	0.14
703.28	0.14
703.6	0.14
703.92	0.14
704.24	0.14
704.56	0.14
704.879	0.13
705.199	0.13
705.519	0.14
705.838	0.14
706.158	0.14
706.478	0.13
706.797	0.13
707.116	0.13
707.436	0.14
707.755	0.13
708.074	0.13
708.393	0.13
708.712	0.12
709.031	0.12
709.35	0.12
709.669	0.12
709.988	0.12
710.307	0.12
710.626	0.12
710.944	0.12
711.263	0.12
711.582	0.12
711.9	0.13
712.219	0.12
712.537	0.12
712.855	0.12
713.174	0.13
713.492	0.13
713.81	0.13
714.128	0.13
714.446	0.12
714.764	0.12
715.082	0.12
715.4	0.12
715.718	0.12
716.035	0.12
716.353	0.12
716.671	0.12
716.988	0.13
717.306	0.12
717.623	0.13
717.941	0.13
718.258	0.13
718.575	0.13
718.893	0.13
719.21	0.13
719.527	0.12
719.844	0.13
720.161	0.12
720.478	0.13
720.795	0.13
721.112	0.13
721.428	0.13
721.745	0.13
722.062	0.13
722.378	0.13
722.695	0.13
723.011	0.13
723.328	0.13
723.644	0.13
723.96	0.13
724.276	0.13
724.593	0.13
724.909	0.13
725.225	0.13
725.541	0.13
725.857	0.13
726.173	0.13
726.488	0.14
726.804	0.13
727.12	0.13
727.435	0.13
727.751	0.13
728.067	0.13
728.382	0.13
728.697	0.13
729.013	0.13
729.328	0.13
729.643	0.13
729.958	0.13
730.273	0.13
730.588	0.12
730.903	0.13
731.218	0.13
731.533	0.13
731.848	0.13
732.163	0.13
732.477	0.12
732.792	0.13
733.107	0.12
733.421	0.13
733.736	0.12
734.05	0.12
734.364	0.12
734.678	0.12
734.993	0.12
735.307	0.12
735.621	0.12
735.935	0.12
736.249	0.12
736.563	0.12
736.877	0.12
737.19	0.12
737.504	0.12
737.818	0.12
738.131	0.12
738.445	0.12
738.758	0.12
739.072	0.12
739.385	0.12
739.698	0.12
740.012	0.12
740.325	0.12
740.638	0.12
740.951	0.11
741.264	0.11
741.577	0.11
741.89	0.11
742.203	0.11
742.515	0.11
742.828	0.11
743.141	0.11
743.453	0.11
743.766	0.11
744.078	0.11
744.391	0.11
744.703	0.1
745.015	0.1
745.327	0.1
745.639	0.1
745.952	0.1
746.264	0.1
746.575	0.1
746.887	0.1
747.199	0.1
747.511	0.1
747.823	0.1
748.134	0.1
748.446	0.1
748.757	0.1
749.069	0.09
749.38	0.1
749.692	0.09
750.003	0.09
750.314	0.09
750.625	0.09
750.936	0.09
751.248	0.09
751.559	0.09
751.869	0.08
752.18	0.09
752.491	0.08
752.802	0.08
753.112	0.08
753.423	0.08
753.734	0.08
754.044	0.08
754.355	0.08
754.665	0.08
754.975	0.08
755.285	0.08
755.596	0.08
755.906	0.08
756.216	0.08
756.526	0.08
756.836	0.08
757.146	0.08
757.455	0.07
757.765	0.07
758.075	0.07
758.385	0.07
758.694	0.07
759.004	0.07
759.313	0.07
759.622	0.07
759.932	0.07
760.241	0.07
760.55	0.07
760.859	0.07
761.168	0.07
761.477	0.07
761.786	0.07
762.095	0.07
762.404	0.07
762.713	0.07
763.021	0.07
763.33	0.07
763.639	0.07
763.947	0.07
764.256	0.07
764.564	0.07
764.872	0.07
765.181	0.07
765.489	0.07
765.797	0.06
766.105	0.06
766.413	0.07
766.721	0.07
767.029	0.07
767.337	0.07
767.644	0.07
767.952	0.07
768.26	0.07
768.567	0.07
768.875	0.06
769.182	0.06
769.49	0.06
769.797	0.07
770.104	0.06
770.411	0.06
770.718	0.06
771.026	0.07
771.333	0.06
771.639	0.07
771.946	0.07
772.253	0.07
772.56	0.07
772.867	0.07
773.173	0.07
773.48	0.07
773.786	0.07
774.093	0.07
774.399	0.07
774.705	0.07
775.012	0.06
775.318	0.07
775.624	0.06
775.93	0.07
776.236	0.07
776.542	0.07
776.848	0.07
777.154	0.07
777.459	0.07
777.765	0.06
778.071	0.07
778.376	0.07
778.682	0.07
778.987	0.07
779.292	0.07
779.598	0.07
779.903	0.07
780.208	0.07
780.513	0.07
780.818	0.07
781.123	0.07
781.428	0.07
781.733	0.07
782.038	0.07
782.343	0.07
782.647	0.07
782.952	0.07
783.256	0.07
783.561	0.08
783.865	0.07
784.17	0.07
784.474	0.07
784.778	0.08
785.082	0.08
785.386	0.07
785.69	0.07
785.994	0.08
786.298	0.08
786.602	0.07
786.906	0.08
787.209	0.08
787.513	0.07
787.817	0.07
788.12	0.08
788.424	0.07
788.727	0.08
789.03	0.07
789.333	0.07
789.637	0.07
789.94	0.07
790.243	0.07
790.546	0.08
790.849	0.07
791.152	0.08
791.454	0.08
791.757	0.07
792.06	0.08
792.362	0.08
792.665	0.08
792.967	0.08
793.27	0.08
793.572	0.08
793.874	0.08
794.177	0.08
794.479	0.08
794.781	0.08
795.083	0.08
795.385	0.08
795.687	0.08
795.989	0.08
796.29	0.08
796.592	0.09
796.894	0.09
797.195	0.09
797.497	0.09
797.798	0.09
798.1	0.09
798.401	0.09
798.702	0.09
799.003	0.09
799.304	0.09
799.605	0.09
799.906	0.09
800.207	0.09
800.508	0.09
800.809	0.09
801.11	0.09
801.41	0.09
801.711	0.09
802.011	0.09
802.312	0.09
802.612	0.09
802.913	0.09
803.213	0.09
803.513	0.09
803.813	0.09
804.113	0.09
804.413	0.09
804.713	0.09
805.013	0.09
805.313	0.1
805.613	0.1
805.912	0.1
806.212	0.1
806.511	0.1
806.811	0.1
807.11	0.09
807.41	0.1
807.709	0.1
808.008	0.1
808.307	0.09
808.606	0.1
808.905	0.1
809.204	0.1
809.503	0.1
809.802	0.1
810.101	0.1
810.399	0.1
810.698	0.1
810.997	0.11
811.295	0.1
811.593	0.1
811.892	0.11
812.19	0.11
812.488	0.11
812.786	0.11
813.084	0.11
813.383	0.11
813.68	0.11
813.978	0.11
814.276	0.11
814.574	0.11
814.872	0.11
815.169	0.11
815.467	0.11
815.764	0.11
816.062	0.11
816.359	0.11
816.656	0.11
816.954	0.11
817.251	0.12
817.548	0.11
817.845	0.11
818.142	0.12
818.439	0.11
818.735	0.12
819.032	0.11
819.329	0.12
819.626	0.12
819.922	0.12
820.219	0.12
820.515	0.12
820.811	0.12
821.108	0.12
821.404	0.12
821.7	0.12
821.996	0.12
822.292	0.12
822.588	0.12
822.884	0.12
823.18	0.12
823.475	0.12
823.771	0.12
824.067	0.12
824.362	0.13
824.658	0.13
824.953	0.13
825.249	0.12
825.544	0.12
825.839	0.12
826.134	0.12
826.429	0.13
826.724	0.13
827.019	0.12
827.314	0.13
827.609	0.13
827.904	0.13
828.198	0.13
828.493	0.13
828.787	0.13
829.082	0.13
829.376	0.13
829.671	0.13
829.965	0.13
830.259	0.14
830.553	0.14
830.847	0.14
831.141	0.14
831.435	0.14
831.729	0.14
832.023	0.14
832.317	0.14
832.61	0.14
832.904	0.14
833.197	0.14
833.491	0.15
833.784	0.14
834.077	0.14
834.371	0.14
834.664	0.14
834.957	0.14
835.25	0.14
835.543	0.14
835.836	0.15
836.129	0.14
836.421	0.15
836.714	0.15
837.007	0.14
837.299	0.14
837.592	0.15
837.884	0.15
838.177	0.15
838.469	0.15
838.761	0.15
839.053	0.15
839.345	0.16
839.637	0.16
839.929	0.14
840.221	0.15
840.513	0.16
840.805	0.15
841.096	0.15
841.388	0.15
841.68	0.15
841.971	0.15
842.262	0.16
842.554	0.16
842.845	0.15
843.136	0.16
843.427	0.16
843.718	0.16
844.009	0.16
844.3	0.16
844.591	0.17
844.882	0.16
845.173	0.16
845.463	0.16
845.754	0.15
846.044	0.16
846.335	0.15
846.625	0.16
846.915	0.16
847.206	0.16
847.496	0.16
847.786	0.16
848.076	0.17
848.366	0.16
848.656	0.17
848.945	0.17
849.235	0.16
849.525	0.16
849.814	0.17
850.104	0.16
850.393	0.17
850.683	0.18
850.972	0.17
851.261	0.18
851.551	0.17
851.84	0.17
852.129	0.16
852.418	0.17
852.707	0.17
852.995	0.17
853.284	0.17
853.573	0.18
853.862	0.17
854.15	0.18
854.439	0.18
854.727	0.2
855.015	0.19
855.304	0.18
855.592	0.18
855.88	0.17
856.168	0.18
856.456	0.19
856.744	0.19
857.032	0.17
857.32	0.19
857.607	0.19
857.895	0.19
858.183	0.19
858.47	0.2
858.757	0.17
859.045	0.19
859.332	0.17
859.619	0.19
859.907	0.2
860.194	0.19
860.481	0.18
860.768	0.18
861.054	0.19
861.341	0.18
861.628	0.19
861.915	0.19
862.201	0.19
862.488	0.21
862.774	0.18
863.061	0.2
863.347	0.21
863.633	0.22
863.919	0.18
864.205	0.19
864.491	0.17
864.777	0.19
865.063	0.19
865.349	0.17
865.635	0.17
865.92	0.19
866.206	0.18
866.492	0.19
866.777	0.21
867.062	0.17
867.348	0.17
867.633	0.21
867.918	0.18
868.203	0.24
868.488	0.18
868.773	0.2
869.058	0.21
869.343	0.24
869.628	0.18
869.912	0.16
870.197	0.22
870.482	0.21
870.766	0.19
871.05	0.19
871.335	0.19
871.619	0.23
871.903	0.18
872.187	0.19
872.471	0.2
872.755	0.23
873.039	0.16
873.323	0.15
873.607	0.27
873.89	0.19
874.174	0.12
874.458	0.15
874.741	0.28
875.024	0.15
875.308	0.19
875.591	0.14
875.874	0.16
876.157	0.14
876.44	0.19
876.723	0.21
877.006	0.19
877.289	0.15
877.572	0.27
877.854	0.11
878.137	0.25
878.42	0.08
878.702	0.12
878.984	0.04
879.267	0.18
879.549	0.25
879.831	0.12
880.113	0.08
880.395	0.15
880.677	0.19
880.959	0.21
