Data from Rubpy_BV_1800_EDTA_Buffered_Absorbance_16-42-41-685.txt Node
Date: Wed Jul 01 16:42:41 BST 2026
User: fpm-admin
Spectrometer: OFX00224
Trigger mode: 0
Integration Time (sec): 7.000000E-2
Scans to average: 3
Nonlinearity correction enabled: false
Boxcar width: 0
Storing dark spectrum: false
XAxis mode: Wavelengths
Number of Pixels in Spectrum: 2136
>>>>>Begin Spectral Data<<<<<
154.91	-0
155.289	0.14
155.669	0.09
156.048	-0
156.428	-0
156.807	0.11
157.186	-0
157.566	0.52
157.945	-0
158.325	-0.1
158.704	-0.22
159.083	0.08
159.462	-0
159.842	0.3
160.221	-0
160.6	-0
160.979	-0
161.359	0.03
161.738	-0.63
162.117	0.6
162.496	-0.13
162.875	0.03
163.254	0.31
163.633	-0
164.012	-0
164.391	1.03
164.77	-0
165.149	-0.85
165.528	-0
165.907	0.07
166.286	-0
166.665	0.04
167.044	0.1
167.423	-0
167.802	0.65
168.181	-1.81
168.559	-0.64
168.938	-0.13
169.317	0.15
169.696	-0
170.074	-0.43
170.453	-0.32
170.832	-1.45
171.21	-0.17
171.589	-0
171.968	0.45
172.346	-0
172.725	-0
173.103	0.06
173.482	-0
173.861	-0
174.239	0.05
174.617	1.2
174.996	1.02
175.374	-0.6
175.753	-0.52
176.131	-0
176.51	-0.57
176.888	0.56
177.266	-0
177.645	-0.09
178.023	-0
178.401	-0.34
178.779	0.14
179.158	0.3
179.536	0.63
179.914	0.56
180.292	0.49
180.67	0.36
181.048	-0
181.427	0.43
181.805	-0
182.183	-0.39
182.561	-0
182.939	-0
183.317	-0.11
183.695	-0.26
184.073	-0
184.451	-0.7
184.829	-0
185.206	-0.34
185.584	0.12
185.962	-0.36
186.34	0.09
186.718	0.02
187.096	-0
187.473	-0.23
187.851	-0.24
188.229	0.05
188.607	0.14
188.984	0.15
189.362	0.16
189.74	0.23
190.117	0.08
190.495	0.13
190.872	0.21
191.25	0.14
191.627	0.11
192.005	0.25
192.382	0.18
192.76	0.11
193.137	0.19
193.515	0.22
193.892	0.19
194.269	0.11
194.647	0.19
195.024	0.2
195.401	0.25
195.779	0.12
196.156	0.28
196.533	0.27
196.91	0.08
197.288	0.13
197.665	0.1
198.042	0.01
198.419	0.13
198.796	0.28
199.173	0.14
199.55	0.22
199.927	0.05
200.304	0.12
200.681	0.1
201.058	0.03
201.435	0.31
201.812	0.13
202.189	0.19
202.566	0.24
202.943	0.1
203.32	0.13
203.697	0.18
204.073	0.08
204.45	0.18
204.827	0.11
205.204	0.14
205.58	0.1
205.957	0.11
206.334	0.1
206.71	0.21
207.087	0.07
207.464	0.23
207.84	0.3
208.217	0.17
208.593	0.11
208.97	0.23
209.346	0.15
209.723	0.09
210.099	0.36
210.476	0.18
210.852	0.27
211.228	0.24
211.605	0.26
211.981	0.19
212.357	0.37
212.733	0.21
213.11	0.21
213.486	0.21
213.862	0.18
214.238	0.27
214.614	0.18
214.991	0.29
215.367	0.26
215.743	0.24
216.119	0.11
216.495	0.19
216.871	0.04
217.247	0.17
217.623	0.1
217.999	0.15
218.375	0.26
218.751	0.16
219.127	0.18
219.502	0.12
219.878	0.1
220.254	0.18
220.63	0.19
221.006	0.19
221.381	0.16
221.757	0.13
222.133	0.12
222.508	0.23
222.884	0.16
223.26	0.19
223.635	0.19
224.011	0.12
224.386	0.16
224.762	0.38
225.137	0.24
225.513	0.08
225.888	0.22
226.264	0.06
226.639	0.14
227.014	0.25
227.39	0.12
227.765	0.23
228.14	0.24
228.516	0.17
228.891	0.23
229.266	0.15
229.641	0.19
230.017	0.27
230.392	0.18
230.767	0.17
231.142	0.15
231.517	0.2
231.892	0.23
232.267	0.24
232.642	0.11
233.017	0.19
233.392	0.23
233.767	0.14
234.142	0.21
234.517	0.08
234.892	0.26
235.267	0.14
235.641	0.21
236.016	0.17
236.391	0.19
236.766	0.21
237.14	0.16
237.515	0.33
237.89	0.1
238.264	0.34
238.639	0.2
239.014	0.16
239.388	0.11
239.763	0.21
240.137	0.05
240.512	0.16
240.886	0.07
241.261	0.1
241.635	0.15
242.009	0.26
242.384	0.19
242.758	0.17
243.132	0.09
243.507	0.2
243.881	0.28
244.255	0.25
244.629	0.07
245.004	0.34
245.378	0.13
245.752	0.15
246.126	0.18
246.5	0.23
246.874	0.23
247.248	0.3
247.622	0.22
247.996	0.17
248.37	0.21
248.744	0.14
249.118	-0.02
249.492	0.28
249.866	0.16
250.24	0.15
250.613	0.26
250.987	0.21
251.361	0.25
251.735	0.3
252.108	0.23
252.482	0.17
252.856	0.14
253.229	0.13
253.603	0.12
253.977	0.17
254.35	0.12
254.724	0.19
255.097	0.03
255.471	0.15
255.844	0.21
256.218	0.17
256.591	0.2
256.964	0.21
257.338	0.15
257.711	0.18
258.084	0.14
258.458	0.26
258.831	0.31
259.204	0.25
259.577	0.09
259.95	0.13
260.323	0.22
260.697	0.11
261.07	0.13
261.443	0.25
261.816	0.19
262.189	0.2
262.562	0.16
262.935	0.28
263.308	0.13
263.68	0.16
264.053	0.19
264.426	0.21
264.799	0.14
265.172	0.21
265.545	0.16
265.917	0.22
266.29	0.17
266.663	0.21
267.035	0.24
267.408	0.13
267.781	0.2
268.153	0.09
268.526	0.22
268.898	0.26
269.271	0.14
269.643	0.18
270.016	0.27
270.388	0.1
270.76	0.22
271.133	0.11
271.505	0.17
271.877	0.05
272.25	0.16
272.622	0.29
272.994	0.17
273.366	0.18
273.739	0.23
274.111	0.2
274.483	0.09
274.855	0.15
275.227	0.26
275.599	0.2
275.971	0.11
276.343	0.18
276.715	0.19
277.087	0.24
277.459	0.2
277.831	0.23
278.203	0.13
278.574	0.27
278.946	0.21
279.318	0.14
279.69	0.17
280.061	0.18
280.433	0.16
280.805	0.18
281.176	0.23
281.548	0.16
281.92	0.21
282.291	0.14
282.663	0.2
283.034	0.11
283.406	0.33
283.777	0.22
284.148	0.19
284.52	0.18
284.891	0.23
285.262	0.18
285.634	0.22
286.005	0.18
286.376	0.26
286.747	0.19
287.119	0.2
287.49	0.25
287.861	0.13
288.232	0.16
288.603	0.3
288.974	0.18
289.345	0.15
289.716	0.17
290.087	0.17
290.458	0.12
290.829	0.28
291.2	0.19
291.571	0.22
291.941	0.17
292.312	0.21
292.683	0.15
293.054	0.18
293.424	0.14
293.795	0.2
294.166	0.22
294.536	0.17
294.907	0.16
295.277	0.2
295.648	0.24
296.018	0.18
296.389	0.1
296.759	0.2
297.13	0.21
297.5	0.22
297.871	0.17
298.241	0.26
298.611	0.15
298.981	0.19
299.352	0.2
299.722	0.14
300.092	0.16
300.462	0.27
300.832	0.21
301.202	0.19
301.573	0.19
301.943	0.15
302.313	0.18
302.683	0.19
303.053	0.2
303.422	0.17
303.792	0.16
304.162	0.19
304.532	0.16
304.902	0.21
305.272	0.17
305.641	0.19
306.011	0.2
306.381	0.19
306.75	0.25
307.12	0.18
307.49	0.17
307.859	0.11
308.229	0.13
308.598	0.12
308.968	0.18
309.337	0.16
309.707	0.12
310.076	0.11
310.445	0.15
310.815	0.16
311.184	0.13
311.553	0.14
311.923	0.14
312.292	0.13
312.661	0.13
313.03	0.13
313.399	0.13
313.768	0.13
314.137	0.12
314.506	0.13
314.875	0.15
315.244	0.12
315.613	0.12
315.982	0.15
316.351	0.14
316.72	0.14
317.089	0.13
317.458	0.14
317.826	0.14
318.195	0.14
318.564	0.15
318.933	0.15
319.301	0.14
319.67	0.13
320.038	0.14
320.407	0.15
320.775	0.14
321.144	0.15
321.512	0.16
321.881	0.16
322.249	0.15
322.618	0.16
322.986	0.16
323.354	0.16
323.723	0.16
324.091	0.17
324.459	0.17
324.827	0.17
325.195	0.17
325.564	0.17
325.932	0.17
326.3	0.18
326.668	0.17
327.036	0.17
327.404	0.19
327.772	0.18
328.14	0.18
328.508	0.18
328.875	0.19
329.243	0.19
329.611	0.19
329.979	0.19
330.346	0.2
330.714	0.2
331.082	0.2
331.449	0.2
331.817	0.2
332.185	0.21
332.552	0.21
332.92	0.22
333.287	0.22
333.655	0.22
334.022	0.23
334.389	0.23
334.757	0.24
335.124	0.24
335.491	0.25
335.859	0.25
336.226	0.25
336.593	0.25
336.96	0.27
337.327	0.26
337.695	0.27
338.062	0.28
338.429	0.28
338.796	0.29
339.163	0.3
339.53	0.3
339.897	0.3
340.263	0.31
340.63	0.31
340.997	0.32
341.364	0.33
341.731	0.32
342.097	0.33
342.464	0.34
342.831	0.35
343.197	0.35
343.564	0.36
343.931	0.37
344.297	0.37
344.664	0.38
345.03	0.38
345.396	0.38
345.763	0.39
346.129	0.4
346.496	0.4
346.862	0.41
347.228	0.41
347.594	0.42
347.961	0.43
348.327	0.43
348.693	0.44
349.059	0.44
349.425	0.45
349.791	0.46
350.157	0.46
350.523	0.47
350.889	0.47
351.255	0.48
351.621	0.48
351.987	0.49
352.353	0.49
352.719	0.5
353.084	0.51
353.45	0.51
353.816	0.52
354.181	0.52
354.547	0.53
354.913	0.53
355.278	0.54
355.644	0.55
356.009	0.56
356.375	0.56
356.74	0.57
357.106	0.57
357.471	0.58
357.836	0.59
358.202	0.6
358.567	0.6
358.932	0.62
359.297	0.63
359.663	0.64
360.028	0.64
360.393	0.66
360.758	0.66
361.123	0.66
361.488	0.68
361.853	0.69
362.218	0.7
362.583	0.71
362.948	0.71
363.312	0.73
363.677	0.73
364.042	0.74
364.407	0.76
364.772	0.76
365.136	0.77
365.501	0.78
365.865	0.79
366.23	0.79
366.595	0.79
366.959	0.8
367.324	0.81
367.688	0.82
368.052	0.82
368.417	0.83
368.781	0.84
369.145	0.85
369.51	0.86
369.874	0.86
370.238	0.87
370.602	0.87
370.967	0.89
371.331	0.87
371.695	0.88
372.059	0.89
372.423	0.88
372.787	0.89
373.151	0.88
373.515	0.89
373.878	0.88
374.242	0.88
374.606	0.87
374.97	0.87
375.334	0.86
375.697	0.85
376.061	0.85
376.425	0.85
376.788	0.83
377.152	0.83
377.515	0.82
377.879	0.81
378.242	0.8
378.606	0.79
378.969	0.78
379.333	0.77
379.696	0.77
380.059	0.76
380.422	0.75
380.786	0.74
381.149	0.73
381.512	0.73
381.875	0.72
382.238	0.71
382.601	0.71
382.964	0.71
383.327	0.7
383.69	0.69
384.053	0.69
384.416	0.68
384.779	0.68
385.142	0.67
385.504	0.67
385.867	0.68
386.23	0.67
386.593	0.67
386.955	0.67
387.318	0.67
387.68	0.68
388.043	0.67
388.405	0.68
388.768	0.67
389.13	0.68
389.493	0.67
389.855	0.67
390.217	0.67
390.58	0.66
390.942	0.66
391.304	0.65
391.666	0.64
392.028	0.64
392.391	0.63
392.753	0.63
393.115	0.61
393.477	0.61
393.839	0.61
394.201	0.61
394.563	0.6
394.924	0.6
395.286	0.61
395.648	0.61
396.01	0.61
396.371	0.62
396.733	0.63
397.095	0.64
397.456	0.65
397.818	0.67
398.18	0.69
398.541	0.71
398.903	0.72
399.264	0.74
399.625	0.77
399.987	0.77
400.348	0.78
400.709	0.81
401.071	0.8
401.432	0.81
401.793	0.81
402.154	0.8
402.515	0.79
402.876	0.78
403.238	0.76
403.599	0.74
403.96	0.72
404.32	0.69
404.681	0.67
405.042	0.65
405.403	0.61
405.764	0.58
406.125	0.56
406.485	0.52
406.846	0.49
407.207	0.47
407.567	0.44
407.928	0.42
408.288	0.4
408.649	0.36
409.009	0.35
409.37	0.33
409.73	0.31
410.091	0.29
410.451	0.28
410.811	0.26
411.171	0.25
411.532	0.24
411.892	0.22
412.252	0.22
412.612	0.21
412.972	0.19
413.332	0.19
413.692	0.18
414.052	0.17
414.412	0.16
414.772	0.16
415.132	0.15
415.492	0.15
415.851	0.14
416.211	0.14
416.571	0.14
416.931	0.13
417.29	0.13
417.65	0.12
418.009	0.12
418.369	0.11
418.728	0.12
419.088	0.11
419.447	0.11
419.807	0.11
420.166	0.1
420.525	0.1
420.884	0.1
421.244	0.1
421.603	0.09
421.962	0.09
422.321	0.1
422.68	0.09
423.039	0.09
423.398	0.09
423.757	0.09
424.116	0.09
424.475	0.08
424.834	0.08
425.193	0.08
425.551	0.08
425.91	0.08
426.269	0.08
426.628	0.08
426.986	0.08
427.345	0.07
427.703	0.07
428.062	0.07
428.42	0.07
428.779	0.07
429.137	0.08
429.496	0.07
429.854	0.07
430.212	0.08
430.57	0.07
430.929	0.06
431.287	0.07
431.645	0.07
432.003	0.07
432.361	0.07
432.719	0.06
433.077	0.08
433.435	0.07
433.793	0.07
434.151	0.06
434.509	0.07
434.866	0.06
435.224	0.06
435.582	0.07
435.94	0.06
436.297	0.07
436.655	0.07
437.012	0.07
437.37	0.07
437.727	0.06
438.085	0.06
438.442	0.06
438.8	0.07
439.157	0.06
439.514	0.06
439.872	0.06
440.229	0.06
440.586	0.05
440.943	0.06
441.3	0.06
441.657	0.07
442.014	0.07
442.371	0.06
442.728	0.06
443.085	0.07
443.442	0.06
443.799	0.06
444.156	0.06
444.513	0.07
444.869	0.05
445.226	0.07
445.583	0.07
445.939	0.06
446.296	0.05
446.652	0.06
447.009	0.06
447.365	0.06
447.722	0.06
448.078	0.06
448.434	0.06
448.791	0.05
449.147	0.05
449.503	0.06
449.859	0.05
450.215	0.06
450.571	0.05
450.928	0.05
451.284	0.06
451.64	0.06
451.995	0.06
452.351	0.05
452.707	0.05
453.063	0.04
453.419	0.04
453.775	0.04
454.13	0.04
454.486	0.05
454.842	0.04
455.197	0.04
455.553	0.03
455.908	0.03
456.264	0.03
456.619	0.03
456.975	0.03
457.33	0.03
457.685	0.02
458.04	0.02
458.396	0.02
458.751	0.01
459.106	0.01
459.461	0
459.816	0.01
460.171	0.01
460.526	0
460.881	-0.01
461.236	-0.01
461.591	-0.01
461.946	-0.01
462.301	-0.01
462.655	-0.02
463.01	-0.02
463.365	-0.03
463.719	-0.03
464.074	-0.03
464.428	-0.04
464.783	-0.04
465.137	-0.04
465.492	-0.04
465.846	-0.04
466.201	-0.04
466.555	-0.04
466.909	-0.03
467.263	-0.03
467.618	-0.04
467.972	-0.03
468.326	-0.03
468.68	-0.04
469.034	-0.04
469.388	-0.05
469.742	-0.03
470.096	-0.04
470.45	-0.04
470.804	-0.04
471.157	-0.04
471.511	-0.04
471.865	-0.04
472.218	-0.03
472.572	-0.03
472.926	-0.03
473.279	-0.02
473.633	-0.01
473.986	-0
474.34	-0
474.693	0.01
475.046	0.01
475.4	0.02
475.753	0.03
476.106	0.03
476.459	0.03
476.812	0.04
477.165	0.05
477.519	0.05
477.872	0.06
478.224	0.06
478.577	0.07
478.93	0.07
479.283	0.08
479.636	0.08
479.989	0.09
480.341	0.09
480.694	0.09
481.047	0.1
481.399	0.1
481.752	0.1
482.104	0.11
482.457	0.11
482.809	0.12
483.162	0.11
483.514	0.12
483.866	0.12
484.219	0.13
484.571	0.13
484.923	0.13
485.275	0.14
485.627	0.13
485.979	0.15
486.331	0.15
486.683	0.15
487.035	0.15
487.387	0.15
487.739	0.16
488.091	0.16
488.443	0.16
488.794	0.16
489.146	0.16
489.498	0.17
489.849	0.17
490.201	0.17
490.552	0.17
490.904	0.17
491.255	0.18
491.607	0.18
491.958	0.18
492.309	0.18
492.661	0.19
493.012	0.19
493.363	0.19
493.714	0.19
494.065	0.2
494.416	0.19
494.767	0.2
495.118	0.2
495.469	0.2
495.82	0.21
496.171	0.21
496.522	0.21
496.872	0.21
497.223	0.21
497.574	0.22
497.924	0.22
498.275	0.22
498.626	0.22
498.976	0.22
499.327	0.23
499.677	0.22
500.027	0.23
500.378	0.23
500.728	0.23
501.078	0.23
501.428	0.24
501.779	0.24
502.129	0.24
502.479	0.24
502.829	0.25
503.179	0.25
503.529	0.25
503.879	0.25
504.229	0.25
504.578	0.25
504.928	0.25
505.278	0.26
505.628	0.26
505.977	0.26
506.327	0.26
506.676	0.27
507.026	0.27
507.375	0.27
507.725	0.28
508.074	0.27
508.424	0.27
508.773	0.28
509.122	0.28
509.471	0.28
509.82	0.28
510.17	0.28
510.519	0.28
510.868	0.28
511.217	0.29
511.566	0.29
511.915	0.29
512.263	0.29
512.612	0.3
512.961	0.3
513.31	0.3
513.659	0.29
514.007	0.3
514.356	0.3
514.704	0.3
515.053	0.31
515.401	0.31
515.75	0.31
516.098	0.31
516.447	0.31
516.795	0.31
517.143	0.32
517.491	0.32
517.839	0.32
518.188	0.32
518.536	0.32
518.884	0.32
519.232	0.32
519.58	0.32
519.928	0.32
520.275	0.33
520.623	0.33
520.971	0.33
521.319	0.33
521.666	0.33
522.014	0.33
522.362	0.33
522.709	0.34
523.057	0.34
523.404	0.34
523.752	0.34
524.099	0.34
524.446	0.34
524.794	0.34
525.141	0.35
525.488	0.35
525.835	0.35
526.182	0.35
526.529	0.35
526.876	0.35
527.223	0.35
527.57	0.35
527.917	0.35
528.264	0.36
528.611	0.36
528.958	0.35
529.304	0.36
529.651	0.36
529.998	0.36
530.344	0.36
530.691	0.36
531.037	0.36
531.384	0.37
531.73	0.37
532.076	0.37
532.423	0.37
532.769	0.37
533.115	0.37
533.461	0.37
533.807	0.37
534.154	0.37
534.5	0.37
534.846	0.38
535.192	0.37
535.537	0.38
535.883	0.38
536.229	0.38
536.575	0.38
536.921	0.38
537.266	0.38
537.612	0.39
537.957	0.38
538.303	0.39
538.649	0.39
538.994	0.39
539.339	0.39
539.685	0.38
540.03	0.39
540.375	0.39
540.721	0.39
541.066	0.39
541.411	0.39
541.756	0.39
542.101	0.39
542.446	0.4
542.791	0.4
543.136	0.4
543.481	0.4
543.825	0.39
544.17	0.4
544.515	0.4
544.86	0.4
545.204	0.4
545.549	0.4
545.893	0.4
546.238	0.4
546.582	0.4
546.927	0.4
547.271	0.4
547.615	0.41
547.96	0.41
548.304	0.4
548.648	0.4
548.992	0.41
549.336	0.4
549.68	0.41
550.024	0.41
550.368	0.41
550.712	0.41
551.056	0.41
551.4	0.41
551.743	0.41
552.087	0.41
552.431	0.41
552.774	0.41
553.118	0.41
553.462	0.41
553.805	0.41
554.148	0.41
554.492	0.41
554.835	0.41
555.178	0.41
555.522	0.41
555.865	0.41
556.208	0.41
556.551	0.41
556.894	0.41
557.237	0.41
557.58	0.41
557.923	0.41
558.266	0.41
558.609	0.41
558.952	0.41
559.294	0.41
559.637	0.41
559.98	0.41
560.322	0.41
560.665	0.41
561.007	0.41
561.35	0.41
561.692	0.41
562.034	0.41
562.377	0.41
562.719	0.41
563.061	0.41
563.403	0.41
563.745	0.41
564.088	0.41
564.43	0.41
564.772	0.41
565.113	0.4
565.455	0.41
565.797	0.41
566.139	0.41
566.481	0.41
566.822	0.41
567.164	0.41
567.506	0.4
567.847	0.41
568.189	0.4
568.53	0.41
568.872	0.4
569.213	0.4
569.554	0.4
569.895	0.4
570.237	0.4
570.578	0.4
570.919	0.4
571.26	0.39
571.601	0.4
571.942	0.4
572.283	0.39
572.624	0.39
572.965	0.39
573.306	0.39
573.646	0.39
573.987	0.39
574.328	0.39
574.668	0.39
575.009	0.39
575.349	0.39
575.69	0.38
576.03	0.39
576.37	0.38
576.711	0.38
577.051	0.38
577.391	0.38
577.731	0.38
578.072	0.38
578.412	0.38
578.752	0.38
579.092	0.38
579.431	0.37
579.771	0.36
580.111	0.36
580.451	0.37
580.791	0.38
581.13	0.37
581.47	0.37
581.81	0.37
582.149	0.37
582.489	0.37
582.828	0.36
583.167	0.34
583.507	0.31
583.846	0.31
584.185	0.35
584.525	0.36
584.864	0.37
585.203	0.37
585.542	0.38
585.881	0.37
586.22	0.37
586.559	0.37
586.898	0.36
587.236	0.35
587.575	0.36
587.914	0.36
588.252	0.37
588.591	0.37
588.93	0.37
589.268	0.36
589.607	0.37
589.945	0.37
590.283	0.37
590.622	0.37
590.96	0.37
591.298	0.37
591.636	0.37
591.974	0.38
592.313	0.37
592.651	0.37
592.989	0.37
593.326	0.38
593.664	0.38
594.002	0.37
594.34	0.37
594.678	0.37
595.015	0.37
595.353	0.36
595.691	0.37
596.028	0.38
596.366	0.37
596.703	0.37
597.04	0.37
597.378	0.38
597.715	0.38
598.052	0.38
598.389	0.38
598.726	0.37
599.064	0.37
599.401	0.38
599.738	0.38
600.074	0.37
600.411	0.38
600.748	0.37
601.085	0.37
601.422	0.36
601.758	0.37
602.095	0.37
602.432	0.37
602.768	0.37
603.105	0.37
603.441	0.37
603.777	0.38
604.114	0.38
604.45	0.37
604.786	0.38
605.122	0.37
605.459	0.37
605.795	0.37
606.131	0.37
606.467	0.37
606.803	0.37
607.139	0.37
607.474	0.36
607.81	0.36
608.146	0.36
608.482	0.36
608.817	0.36
609.153	0.36
609.488	0.36
609.824	0.36
610.159	0.36
610.495	0.36
610.83	0.36
611.165	0.36
611.5	0.35
611.836	0.36
612.171	0.36
612.506	0.36
612.841	0.36
613.176	0.35
613.511	0.35
613.845	0.35
614.18	0.35
614.515	0.35
614.85	0.35
615.184	0.35
615.519	0.35
615.854	0.34
616.188	0.34
616.523	0.34
616.857	0.34
617.191	0.34
617.526	0.34
617.86	0.34
618.194	0.34
618.528	0.34
618.862	0.34
619.196	0.34
619.53	0.33
619.864	0.33
620.198	0.33
620.532	0.33
620.866	0.33
621.2	0.33
621.533	0.33
621.867	0.33
622.201	0.32
622.534	0.32
622.868	0.32
623.201	0.32
623.534	0.32
623.868	0.32
624.201	0.32
624.534	0.31
624.868	0.32
625.201	0.31
625.534	0.31
625.867	0.31
626.2	0.31
626.533	0.31
626.865	0.31
627.198	0.31
627.531	0.31
627.864	0.3
628.196	0.3
628.529	0.3
628.862	0.3
629.194	0.3
629.527	0.29
629.859	0.29
630.191	0.29
630.524	0.29
630.856	0.29
631.188	0.28
631.52	0.28
631.852	0.28
632.184	0.28
632.516	0.28
632.848	0.28
633.18	0.28
633.512	0.28
633.844	0.27
634.175	0.27
634.507	0.27
634.839	0.27
635.17	0.27
635.502	0.26
635.833	0.26
636.165	0.26
636.496	0.26
636.827	0.26
637.159	0.26
637.49	0.25
637.821	0.26
638.152	0.25
638.483	0.25
638.814	0.25
639.145	0.24
639.476	0.24
639.807	0.25
640.137	0.24
640.468	0.24
640.799	0.24
641.129	0.24
641.46	0.23
641.791	0.23
642.121	0.23
642.451	0.23
642.782	0.23
643.112	0.23
643.442	0.23
643.773	0.22
644.103	0.23
644.433	0.22
644.763	0.22
645.093	0.22
645.423	0.22
645.753	0.22
646.082	0.22
646.412	0.21
646.742	0.22
647.072	0.22
647.401	0.21
647.731	0.21
648.06	0.21
648.39	0.21
648.719	0.21
649.048	0.21
649.378	0.21
649.707	0.21
650.036	0.2
650.365	0.21
650.694	0.2
651.023	0.2
651.352	0.2
651.681	0.2
652.01	0.2
652.339	0.2
652.668	0.2
652.996	0.2
653.325	0.2
653.654	0.2
653.982	0.2
654.311	0.2
654.639	0.2
654.967	0.2
655.296	0.2
655.624	0.2
655.952	0.2
656.28	0.19
656.609	0.19
656.937	0.19
657.265	0.19
657.593	0.05
657.92	0
658.248	0
658.576	0.02
658.904	0.13
659.231	0.19
659.559	0.19
659.887	0.19
660.214	0.19
660.542	0.19
660.869	0.19
661.196	0.19
661.524	0.19
661.851	0.18
662.178	0.18
662.505	0.18
662.832	0.18
663.159	0.18
663.486	0.18
663.813	0.18
664.14	0.18
664.467	0.18
664.794	0.18
665.12	0.18
665.447	0.18
665.774	0.18
666.1	0.18
666.427	0.18
666.753	0.17
667.079	0.17
667.406	0.17
667.732	0.17
668.058	0.17
668.384	0.17
668.71	0.17
669.036	0.17
669.362	0.17
669.688	0.17
670.014	0.17
670.34	0.16
670.666	0.16
670.991	0.16
671.317	0.16
671.643	0.16
671.968	0.16
672.294	0.16
672.619	0.16
672.945	0.15
673.27	0.15
673.595	0.15
673.92	0.15
674.246	0.15
674.571	0.15
674.896	0.15
675.221	0.15
675.546	0.15
675.87	0.15
676.195	0.15
676.52	0.14
676.845	0.14
677.169	0.14
677.494	0.14
677.819	0.14
678.143	0.13
678.468	0.13
678.792	0.13
679.116	0.13
679.44	0.13
679.765	0.13
680.089	0.13
680.413	0.12
680.737	0.12
681.061	0.12
681.385	0.12
681.709	0.12
682.033	0.12
682.356	0.12
682.68	0.12
683.004	0.12
683.327	0.12
683.651	0.11
683.974	0.11
684.298	0.11
684.621	0.11
684.944	0.11
685.268	0.11
685.591	0.11
685.914	0.1
686.237	0.1
686.56	0.1
686.883	0.1
687.206	0.1
687.529	0.1
687.852	0.1
688.175	0.1
688.497	0.1
688.82	0.1
689.142	0.1
689.465	0.09
689.787	0.1
690.11	0.09
690.432	0.09
690.755	0.09
691.077	0.09
691.399	0.09
691.721	0.09
692.043	0.09
692.365	0.08
692.687	0.08
693.009	0.08
693.331	0.08
693.653	0.08
693.974	0.08
694.296	0.08
694.618	0.08
694.939	0.08
695.261	0.08
695.582	0.08
695.904	0.07
696.225	0.07
696.546	0.07
696.868	0.07
697.189	0.07
697.51	0.07
697.831	0.07
698.152	0.07
698.473	0.07
698.794	0.06
699.114	0.07
699.435	0.06
699.756	0.07
700.077	0.07
700.397	0.07
700.718	0.07
701.038	0.06
701.359	0.07
701.679	0.06
701.999	0.06
702.32	0.06
702.64	0.06
702.96	0.07
703.28	0.06
703.6	0.06
703.92	0.06
704.24	0.06
704.56	0.06
704.879	0.06
705.199	0.06
705.519	0.06
705.838	0.06
706.158	0.06
706.478	0.06
706.797	0.06
707.116	0.06
707.436	0.06
707.755	0.06
708.074	0.06
708.393	0.05
708.712	0.05
709.031	0.05
709.35	0.05
709.669	0.05
709.988	0.05
710.307	0.05
710.626	0.05
710.944	0.05
711.263	0.06
711.582	0.05
711.9	0.06
712.219	0.05
712.537	0.05
712.855	0.06
713.174	0.05
713.492	0.06
713.81	0.06
714.128	0.06
714.446	0.05
714.764	0.05
715.082	0.05
715.4	0.06
715.718	0.05
716.035	0.05
716.353	0.05
716.671	0.06
716.988	0.06
717.306	0.05
717.623	0.06
717.941	0.06
718.258	0.06
718.575	0.06
718.893	0.06
719.21	0.06
719.527	0.06
719.844	0.06
720.161	0.06
720.478	0.06
720.795	0.06
721.112	0.06
721.428	0.06
721.745	0.06
722.062	0.06
722.378	0.06
722.695	0.06
723.011	0.06
723.328	0.06
723.644	0.06
723.96	0.06
724.276	0.06
724.593	0.06
724.909	0.06
725.225	0.06
725.541	0.06
725.857	0.06
726.173	0.06
726.488	0.06
726.804	0.06
727.12	0.06
727.435	0.06
727.751	0.06
728.067	0.06
728.382	0.06
728.697	0.06
729.013	0.06
729.328	0.06
729.643	0.06
729.958	0.06
730.273	0.06
730.588	0.06
730.903	0.06
731.218	0.06
731.533	0.06
731.848	0.06
732.163	0.06
732.477	0.06
732.792	0.06
733.107	0.05
733.421	0.06
733.736	0.06
734.05	0.06
734.364	0.05
734.678	0.06
734.993	0.05
735.307	0.06
735.621	0.05
735.935	0.05
736.249	0.05
736.563	0.06
736.877	0.06
737.19	0.06
737.504	0.06
737.818	0.06
738.131	0.05
738.445	0.06
738.758	0.06
739.072	0.06
739.385	0.05
739.698	0.06
740.012	0.06
740.325	0.05
740.638	0.05
740.951	0.05
741.264	0.05
741.577	0.05
741.89	0.05
742.203	0.05
742.515	0.05
742.828	0.05
743.141	0.05
743.453	0.05
743.766	0.05
744.078	0.05
744.391	0.05
744.703	0.04
745.015	0.04
745.327	0.05
745.639	0.05
745.952	0.05
746.264	0.04
746.575	0.05
746.887	0.04
747.199	0.04
747.511	0.04
747.823	0.04
748.134	0.04
748.446	0.04
748.757	0.04
749.069	0.04
749.38	0.04
749.692	0.04
750.003	0.04
750.314	0.04
750.625	0.04
750.936	0.04
751.248	0.04
751.559	0.04
751.869	0.04
752.18	0.04
752.491	0.03
752.802	0.04
753.112	0.03
753.423	0.04
753.734	0.03
754.044	0.03
754.355	0.03
754.665	0.03
754.975	0.03
755.285	0.03
755.596	0.03
755.906	0.03
756.216	0.03
756.526	0.03
756.836	0.03
757.146	0.03
757.455	0.03
757.765	0.03
758.075	0.03
758.385	0.03
758.694	0.03
759.004	0.03
759.313	0.03
759.622	0.03
759.932	0.03
760.241	0.03
760.55	0.03
760.859	0.03
761.168	0.03
761.477	0.03
761.786	0.03
762.095	0.03
762.404	0.02
762.713	0.03
763.021	0.03
763.33	0.03
763.639	0.03
763.947	0.03
764.256	0.03
764.564	0.03
764.872	0.02
765.181	0.03
765.489	0.02
765.797	0.02
766.105	0.02
766.413	0.02
766.721	0.03
767.029	0.03
767.337	0.03
767.644	0.02
767.952	0.03
768.26	0.03
768.567	0.03
768.875	0.02
769.182	0.02
769.49	0.02
769.797	0.02
770.104	0.02
770.411	0.02
770.718	0.03
771.026	0.03
771.333	0.03
771.639	0.03
771.946	0.02
772.253	0.03
772.56	0.03
772.867	0.03
773.173	0.02
773.48	0.03
773.786	0.02
774.093	0.02
774.399	0.02
774.705	0.02
775.012	0.02
775.318	0.02
775.624	0.02
775.93	0.02
776.236	0.02
776.542	0.02
776.848	0.02
777.154	0.02
777.459	0.02
777.765	0.02
778.071	0.02
778.376	0.02
778.682	0.02
778.987	0.02
779.292	0.02
779.598	0.02
779.903	0.02
780.208	0.02
780.513	0.02
780.818	0.02
781.123	0.02
781.428	0.02
781.733	0.02
782.038	0.02
782.343	0.02
782.647	0.02
782.952	0.03
783.256	0.03
783.561	0.03
783.865	0.03
784.17	0.02
784.474	0.02
784.778	0.02
785.082	0.03
785.386	0.02
785.69	0.02
785.994	0.03
786.298	0.03
786.602	0.02
786.906	0.03
787.209	0.03
787.513	0.03
787.817	0.03
788.12	0.02
788.424	0.02
788.727	0.02
789.03	0.02
789.333	0.02
789.637	0.02
789.94	0.02
790.243	0.02
790.546	0.02
790.849	0.02
791.152	0.02
791.454	0.02
791.757	0.02
792.06	0.02
792.362	0.03
792.665	0.03
792.967	0.02
793.27	0.03
793.572	0.03
793.874	0.03
794.177	0.02
794.479	0.02
794.781	0.03
795.083	0.02
795.385	0.02
795.687	0.03
795.989	0.03
796.29	0.03
796.592	0.03
796.894	0.03
797.195	0.03
797.497	0.03
797.798	0.03
798.1	0.03
798.401	0.03
798.702	0.03
799.003	0.03
799.304	0.03
799.605	0.03
799.906	0.03
800.207	0.03
800.508	0.03
800.809	0.03
801.11	0.03
801.41	0.03
801.711	0.03
802.011	0.03
802.312	0.03
802.612	0.03
802.913	0.03
803.213	0.03
803.513	0.03
803.813	0.03
804.113	0.03
804.413	0.03
804.713	0.03
805.013	0.03
805.313	0.03
805.613	0.03
805.912	0.04
806.212	0.03
806.511	0.03
806.811	0.03
807.11	0.03
807.41	0.03
807.709	0.03
808.008	0.03
808.307	0.03
808.606	0.03
808.905	0.03
809.204	0.03
809.503	0.03
809.802	0.03
810.101	0.03
810.399	0.03
810.698	0.03
810.997	0.03
811.295	0.03
811.593	0.03
811.892	0.04
812.19	0.04
812.488	0.03
812.786	0.03
813.084	0.04
813.383	0.04
813.68	0.04
813.978	0.04
814.276	0.03
814.574	0.04
814.872	0.03
815.169	0.04
815.467	0.03
815.764	0.03
816.062	0.04
816.359	0.04
816.656	0.04
816.954	0.03
817.251	0.03
817.548	0.04
817.845	0.04
818.142	0.03
818.439	0.04
818.735	0.04
819.032	0.04
819.329	0.04
819.626	0.04
819.922	0.04
820.219	0.04
820.515	0.04
820.811	0.04
821.108	0.04
821.404	0.04
821.7	0.04
821.996	0.04
822.292	0.04
822.588	0.04
822.884	0.04
823.18	0.04
823.475	0.03
823.771	0.04
824.067	0.04
824.362	0.04
824.658	0.04
824.953	0.05
825.249	0.04
825.544	0.04
825.839	0.04
826.134	0.04
826.429	0.04
826.724	0.04
827.019	0.04
827.314	0.04
827.609	0.04
827.904	0.04
828.198	0.04
828.493	0.04
828.787	0.04
829.082	0.03
829.376	0.03
829.671	0.04
829.965	0.04
830.259	0.05
830.553	0.05
830.847	0.05
831.141	0.04
831.435	0.05
831.729	0.04
832.023	0.04
832.317	0.05
832.61	0.04
832.904	0.05
833.197	0.04
833.491	0.04
833.784	0.05
834.077	0.04
834.371	0.04
834.664	0.05
834.957	0.04
835.25	0.05
835.543	0.04
835.836	0.05
836.129	0.05
836.421	0.05
836.714	0.05
837.007	0.04
837.299	0.04
837.592	0.05
837.884	0.05
838.177	0.04
838.469	0.05
838.761	0.04
839.053	0.04
839.345	0.05
839.637	0.05
839.929	0.04
840.221	0.04
840.513	0.04
840.805	0.05
841.096	0.04
841.388	0.05
841.68	0.04
841.971	0.04
842.262	0.04
842.554	0.04
842.845	0.04
843.136	0.05
843.427	0.05
843.718	0.04
844.009	0.04
844.3	0.04
844.591	0.05
844.882	0.05
845.173	0.05
845.463	0.06
845.754	0.05
846.044	0.05
846.335	0.04
846.625	0.05
846.915	0.04
847.206	0.05
847.496	0.05
847.786	0.05
848.076	0.06
848.366	0.05
848.656	0.06
848.945	0.05
849.235	0.05
849.525	0.05
849.814	0.04
850.104	0.04
850.393	0.05
850.683	0.05
850.972	0.05
851.261	0.05
851.551	0.06
851.84	0.05
852.129	0.04
852.418	0.05
852.707	0.05
852.995	0.04
853.284	0.06
853.573	0.05
853.862	0.05
854.15	0.06
854.439	0.06
854.727	0.06
855.015	0.06
855.304	0.05
855.592	0.05
855.88	0.05
856.168	0.06
856.456	0.05
856.744	0.06
857.032	0.05
857.32	0.06
857.607	0.05
857.895	0.06
858.183	0.05
858.47	0.06
858.757	0.04
859.045	0.05
859.332	0.05
859.619	0.05
859.907	0.06
860.194	0.06
860.481	0.05
860.768	0.04
861.054	0.07
861.341	0.04
861.628	0.05
861.915	0.06
862.201	0.04
862.488	0.06
862.774	0.06
863.061	0.06
863.347	0.06
863.633	0.05
863.919	0.04
864.205	0.04
864.491	0.05
864.777	0.05
865.063	0.07
865.349	0.05
865.635	0.05
865.92	0.05
866.206	0.03
866.492	0.03
866.777	0.05
867.062	0.06
867.348	0.05
867.633	0.06
867.918	0.08
868.203	0.08
868.488	0.05
868.773	0.06
869.058	0.04
869.343	0.1
869.628	0.02
869.912	0.06
870.197	0.07
870.482	0.06
870.766	0.05
871.05	0.08
871.335	0.01
871.619	0.03
871.903	0.03
872.187	0.09
872.471	0.09
872.755	0.13
873.039	0.02
873.323	0.06
873.607	0.06
873.89	0.04
874.174	-0.01
874.458	0.05
874.741	0.13
875.024	0.01
875.308	0.04
875.591	-0.07
875.874	0.08
876.157	-0
876.44	0.1
876.723	0.03
877.006	0.03
877.289	0.09
877.572	0.13
877.854	0.03
878.137	0.08
878.42	0.03
878.702	0.01
878.984	-0.06
879.267	0.05
879.549	0.1
879.831	0.03
880.113	-0.02
880.395	0.08
880.677	0.06
880.959	-0.04
