Data from Rubpy_BV_1800_EDTA_Buffered_Absorbance_17-02-49-621.txt Node
Date: Wed Jul 01 17:02:49 BST 2026
User: fpm-admin
Spectrometer: OFX00224
Trigger mode: 0
Integration Time (sec): 7.000000E-2
Scans to average: 3
Nonlinearity correction enabled: false
Boxcar width: 0
Storing dark spectrum: false
XAxis mode: Wavelengths
Number of Pixels in Spectrum: 2136
>>>>>Begin Spectral Data<<<<<
154.91	-0
155.289	-0.14
155.669	-0
156.048	-0
156.428	-0
156.807	0.05
157.186	-0
157.566	0.19
157.945	-0
158.325	0.87
158.704	-0.19
159.083	0.21
159.462	-0.6
159.842	-0
160.221	-0
160.6	-0
160.979	-0
161.359	-0
161.738	-0
162.117	-0.83
162.496	-0.33
162.875	-0.46
163.254	0.08
163.633	0.67
164.012	0.56
164.391	0.02
164.77	-0.08
165.149	-0.97
165.528	-0
165.907	0.72
166.286	-0
166.665	0.48
167.044	0.68
167.423	0.86
167.802	-0.19
168.181	-0
168.559	-0.3
168.938	0.55
169.317	1.23
169.696	-0
170.074	-0
170.453	-0.09
170.832	-1.23
171.21	0.21
171.589	-0
171.968	-0
172.346	-0.11
172.725	-0
173.103	-0
173.482	0.77
173.861	-0
174.239	-0.45
174.617	-0.41
174.996	0.28
175.374	-0
175.753	0.08
176.131	0.2
176.51	-0
176.888	-0
177.266	-0
177.645	0.13
178.023	0.51
178.401	-0.12
178.779	0.22
179.158	0.54
179.536	-0.01
179.914	0.26
180.292	0.22
180.67	-0
181.048	-0
181.427	-0
181.805	-0
182.183	-0
182.561	-0
182.939	0.22
183.317	-0.04
183.695	-0.16
184.073	-0
184.451	-0
184.829	0.18
185.206	-0.26
185.584	-0
185.962	-0.37
186.34	-0
186.718	-0.02
187.096	-0
187.473	-0.38
187.851	0.1
188.229	-0.22
188.607	0.18
188.984	0.26
189.362	0.27
189.74	0.49
190.117	0.28
190.495	0.41
190.872	0.24
191.25	0.47
191.627	0.29
192.005	0.38
192.382	0.35
192.76	0.31
193.137	0.34
193.515	0.28
193.892	0.23
194.269	0.26
194.647	0.75
195.024	0.35
195.401	0.46
195.779	0.33
196.156	0.43
196.533	0.34
196.91	0.26
197.288	0.44
197.665	0.32
198.042	0.24
198.419	0.49
198.796	0.25
199.173	0.42
199.55	0.52
199.927	0.34
200.304	0.41
200.681	0.59
201.058	0.28
201.435	0.91
201.812	0.31
202.189	0.22
202.566	0.48
202.943	0.25
203.32	0.39
203.697	0.25
204.073	0.2
204.45	0.4
204.827	0.26
205.204	0.21
205.58	0.48
205.957	0.37
206.334	0.35
206.71	0.45
207.087	0.38
207.464	0.43
207.84	0.4
208.217	0.37
208.593	0.24
208.97	0.39
209.346	0.36
209.723	0.27
210.099	0.35
210.476	0.36
210.852	0.52
211.228	0.32
211.605	0.22
211.981	0.26
212.357	0.48
212.733	0.31
213.11	0.36
213.486	0.31
213.862	0.35
214.238	0.41
214.614	0.4
214.991	0.3
215.367	0.4
215.743	0.33
216.119	0.35
216.495	0.32
216.871	0.23
217.247	0.39
217.623	0.39
217.999	0.33
218.375	0.5
218.751	0.27
219.127	0.51
219.502	0.29
219.878	0.33
220.254	0.38
220.63	0.34
221.006	0.44
221.381	0.48
221.757	0.34
222.133	0.39
222.508	0.54
222.884	0.23
223.26	0.38
223.635	0.37
224.011	0.34
224.386	0.4
224.762	0.62
225.137	0.5
225.513	0.38
225.888	0.38
226.264	0.35
226.639	0.27
227.014	0.52
227.39	0.43
227.765	0.32
228.14	0.34
228.516	0.66
228.891	0.42
229.266	0.31
229.641	0.25
230.017	0.34
230.392	0.47
230.767	0.49
231.142	0.31
231.517	0.51
231.892	0.45
232.267	0.53
232.642	0.42
233.017	0.33
233.392	0.43
233.767	0.43
234.142	0.48
234.517	0.22
234.892	0.34
235.267	0.37
235.641	0.34
236.016	0.31
236.391	0.31
236.766	0.36
237.14	0.45
237.515	0.44
237.89	0.33
238.264	0.41
238.639	0.36
239.014	0.66
239.388	0.38
239.763	0.38
240.137	0.54
240.512	0.34
240.886	0.34
241.261	0.44
241.635	0.26
242.009	0.47
242.384	0.44
242.758	0.49
243.132	0.3
243.507	0.37
243.881	0.37
244.255	0.3
244.629	0.51
245.004	0.57
245.378	0.39
245.752	0.35
246.126	0.37
246.5	0.51
246.874	0.37
247.248	0.3
247.622	0.33
247.996	0.45
248.37	0.5
248.744	0.46
249.118	0.38
249.492	0.27
249.866	0.45
250.24	0.48
250.613	0.53
250.987	0.38
251.361	0.64
251.735	0.56
252.108	0.37
252.482	0.55
252.856	0.35
253.229	0.48
253.603	0.35
253.977	0.49
254.35	0.44
254.724	0.37
255.097	0.35
255.471	0.42
255.844	0.29
256.218	0.61
256.591	0.32
256.964	0.57
257.338	0.38
257.711	0.55
258.084	0.38
258.458	0.42
258.831	0.49
259.204	0.32
259.577	0.37
259.95	0.43
260.323	0.41
260.697	0.3
261.07	0.37
261.443	0.5
261.816	0.5
262.189	0.48
262.562	0.36
262.935	0.32
263.308	0.32
263.68	0.42
264.053	0.46
264.426	0.48
264.799	0.35
265.172	0.52
265.545	0.38
265.917	0.58
266.29	0.34
266.663	0.37
267.035	0.62
267.408	0.42
267.781	0.45
268.153	0.28
268.526	0.49
268.898	0.57
269.271	0.39
269.643	0.46
270.016	0.39
270.388	0.26
270.76	0.48
271.133	0.37
271.505	0.69
271.877	0.39
272.25	0.35
272.622	0.53
272.994	0.51
273.366	0.5
273.739	0.4
274.111	0.48
274.483	0.38
274.855	0.47
275.227	0.59
275.599	0.42
275.971	0.44
276.343	0.47
276.715	0.36
277.087	0.41
277.459	0.49
277.831	0.35
278.203	0.37
278.574	0.43
278.946	0.37
279.318	0.49
279.69	0.46
280.061	0.44
280.433	0.39
280.805	0.42
281.176	0.49
281.548	0.43
281.92	0.44
282.291	0.45
282.663	0.38
283.034	0.31
283.406	0.37
283.777	0.41
284.148	0.52
284.52	0.5
284.891	0.44
285.262	0.51
285.634	0.57
286.005	0.45
286.376	0.49
286.747	0.37
287.119	0.38
287.49	0.47
287.861	0.44
288.232	0.47
288.603	0.56
288.974	0.37
289.345	0.53
289.716	0.48
290.087	0.4
290.458	0.47
290.829	0.42
291.2	0.47
291.571	0.49
291.941	0.44
292.312	0.35
292.683	0.36
293.054	0.46
293.424	0.34
293.795	0.39
294.166	0.44
294.536	0.39
294.907	0.41
295.277	0.39
295.648	0.38
296.018	0.51
296.389	0.25
296.759	0.39
297.13	0.38
297.5	0.48
297.871	0.4
298.241	0.43
298.611	0.4
298.981	0.43
299.352	0.47
299.722	0.37
300.092	0.4
300.462	0.37
300.832	0.45
301.202	0.46
301.573	0.41
301.943	0.53
302.313	0.43
302.683	0.4
303.053	0.44
303.422	0.37
303.792	0.36
304.162	0.36
304.532	0.42
304.902	0.44
305.272	0.46
305.641	0.47
306.011	0.29
306.381	0.36
306.75	0.34
307.12	0.34
307.49	0.38
307.859	0.37
308.229	0.35
308.598	0.31
308.968	0.39
309.337	0.33
309.707	0.3
310.076	0.32
310.445	0.32
310.815	0.33
311.184	0.35
311.553	0.32
311.923	0.33
312.292	0.31
312.661	0.35
313.03	0.32
313.399	0.32
313.768	0.35
314.137	0.34
314.506	0.32
314.875	0.32
315.244	0.34
315.613	0.36
315.982	0.37
316.351	0.36
316.72	0.38
317.089	0.36
317.458	0.38
317.826	0.37
318.195	0.37
318.564	0.39
318.933	0.4
319.301	0.41
319.67	0.41
320.038	0.42
320.407	0.43
320.775	0.42
321.144	0.42
321.512	0.43
321.881	0.44
322.249	0.46
322.618	0.46
322.986	0.46
323.354	0.46
323.723	0.46
324.091	0.48
324.459	0.5
324.827	0.5
325.195	0.51
325.564	0.5
325.932	0.52
326.3	0.52
326.668	0.53
327.036	0.54
327.404	0.54
327.772	0.56
328.14	0.56
328.508	0.57
328.875	0.58
329.243	0.58
329.611	0.59
329.979	0.6
330.346	0.62
330.714	0.63
331.082	0.66
331.449	0.64
331.817	0.65
332.185	0.68
332.552	0.68
332.92	0.69
333.287	0.7
333.655	0.72
334.022	0.73
334.389	0.75
334.757	0.77
335.124	0.78
335.491	0.8
335.859	0.82
336.226	0.81
336.593	0.84
336.96	0.85
337.327	0.87
337.695	0.88
338.062	0.9
338.429	0.92
338.796	0.93
339.163	0.95
339.53	0.96
339.897	0.99
340.263	1.01
340.63	1.01
340.997	1.03
341.364	1.05
341.731	1.07
342.097	1.09
342.464	1.12
342.831	1.11
343.197	1.13
343.564	1.17
343.931	1.17
344.297	1.19
344.664	1.22
345.03	1.23
345.396	1.26
345.763	1.28
346.129	1.29
346.496	1.31
346.862	1.32
347.228	1.32
347.594	1.36
347.961	1.36
348.327	1.38
348.693	1.4
349.059	1.41
349.425	1.43
349.791	1.46
350.157	1.46
350.523	1.48
350.889	1.47
351.255	1.51
351.621	1.53
351.987	1.57
352.353	1.54
352.719	1.57
353.084	1.6
353.45	1.6
353.816	1.61
354.181	1.61
354.547	1.65
354.913	1.66
355.278	1.67
355.644	1.69
356.009	1.71
356.375	1.7
356.74	1.76
357.106	1.76
357.471	1.78
357.836	1.79
358.202	1.84
358.567	1.82
358.932	1.85
359.297	1.83
359.663	1.85
360.028	1.91
360.393	1.94
360.758	1.92
361.123	1.94
361.488	1.98
361.853	2.04
362.218	1.97
362.583	2.05
362.948	2.02
363.312	1.98
363.677	2
364.042	2.07
364.407	2.04
364.772	2.13
365.136	2.08
365.501	2.05
365.865	2.11
366.23	2.05
366.595	2.06
366.959	2.13
367.324	2.09
367.688	2.14
368.052	2.15
368.417	2.13
368.781	2.17
369.145	2.14
369.51	2.2
369.874	2.21
370.238	2.21
370.602	2.06
370.967	2.25
371.331	2.1
371.695	2.14
372.059	2.14
372.423	2.13
372.787	2.14
373.151	2.06
373.515	2.14
373.878	2.17
374.242	2.13
374.606	2.07
374.97	2.1
375.334	2.22
375.697	2.09
376.061	2.07
376.425	2.19
376.788	2.17
377.152	2.13
377.515	2.1
377.879	2.14
378.242	2.05
378.606	2.01
378.969	2.12
379.333	2
379.696	2.03
380.059	2.03
380.422	1.99
380.786	1.97
381.149	2.05
381.512	1.96
381.875	1.94
382.238	1.92
382.601	1.9
382.964	1.87
383.327	1.85
383.69	1.9
384.053	1.79
384.416	1.78
384.779	1.8
385.142	1.75
385.504	1.78
385.867	1.76
386.23	1.75
386.593	1.74
386.955	1.7
387.318	1.71
387.68	1.7
388.043	1.66
388.405	1.64
388.768	1.65
389.13	1.64
389.493	1.66
389.855	1.62
390.217	1.61
390.58	1.61
390.942	1.57
391.304	1.56
391.666	1.53
392.028	1.51
392.391	1.48
392.753	1.48
393.115	1.45
393.477	1.43
393.839	1.43
394.201	1.42
394.563	1.42
394.924	1.39
395.286	1.4
395.648	1.38
396.01	1.39
396.371	1.41
396.733	1.4
397.095	1.41
397.456	1.44
397.818	1.46
398.18	1.49
398.541	1.51
398.903	1.55
399.264	1.57
399.625	1.6
399.987	1.62
400.348	1.61
400.709	1.66
401.071	1.65
401.432	1.65
401.793	1.65
402.154	1.63
402.515	1.62
402.876	1.61
403.238	1.55
403.599	1.52
403.96	1.51
404.32	1.44
404.681	1.41
405.042	1.34
405.403	1.3
405.764	1.25
406.125	1.19
406.485	1.13
406.846	1.09
407.207	1.02
407.567	0.98
407.928	0.92
408.288	0.88
408.649	0.83
409.009	0.79
409.37	0.74
409.73	0.71
410.091	0.68
410.451	0.64
410.811	0.61
411.171	0.58
411.532	0.55
411.892	0.54
412.252	0.51
412.612	0.49
412.972	0.46
413.332	0.45
413.692	0.43
414.052	0.41
414.412	0.39
414.772	0.39
415.132	0.38
415.492	0.36
415.851	0.34
416.211	0.34
416.571	0.34
416.931	0.33
417.29	0.31
417.65	0.3
418.009	0.3
418.369	0.28
418.728	0.29
419.088	0.27
419.447	0.27
419.807	0.26
420.166	0.27
420.525	0.25
420.884	0.25
421.244	0.24
421.603	0.24
421.962	0.23
422.321	0.23
422.68	0.23
423.039	0.22
423.398	0.22
423.757	0.23
424.116	0.22
424.475	0.22
424.834	0.21
425.193	0.21
425.551	0.22
425.91	0.2
426.269	0.21
426.628	0.21
426.986	0.2
427.345	0.19
427.703	0.2
428.062	0.2
428.42	0.2
428.779	0.2
429.137	0.2
429.496	0.2
429.854	0.19
430.212	0.2
430.57	0.2
430.929	0.19
431.287	0.19
431.645	0.18
432.003	0.18
432.361	0.19
432.719	0.19
433.077	0.19
433.435	0.18
433.793	0.19
434.151	0.18
434.509	0.19
434.866	0.19
435.224	0.19
435.582	0.19
435.94	0.19
436.297	0.18
436.655	0.19
437.012	0.18
437.37	0.18
437.727	0.18
438.085	0.19
438.442	0.19
438.8	0.19
439.157	0.19
439.514	0.19
439.872	0.18
440.229	0.18
440.586	0.19
440.943	0.19
441.3	0.18
441.657	0.2
442.014	0.19
442.371	0.18
442.728	0.19
443.085	0.2
443.442	0.19
443.799	0.19
444.156	0.19
444.513	0.2
444.869	0.18
445.226	0.2
445.583	0.2
445.939	0.2
446.296	0.19
446.652	0.19
447.009	0.2
447.365	0.19
447.722	0.2
448.078	0.19
448.434	0.21
448.791	0.2
449.147	0.2
449.503	0.2
449.859	0.2
450.215	0.2
450.571	0.2
450.928	0.2
451.284	0.21
451.64	0.2
451.995	0.2
452.351	0.2
452.707	0.2
453.063	0.2
453.419	0.2
453.775	0.19
454.13	0.19
454.486	0.2
454.842	0.21
455.197	0.19
455.553	0.19
455.908	0.2
456.264	0.19
456.619	0.19
456.975	0.19
457.33	0.19
457.685	0.19
458.04	0.18
458.396	0.18
458.751	0.18
459.106	0.17
459.461	0.18
459.816	0.18
460.171	0.16
460.526	0.17
460.881	0.16
461.236	0.16
461.591	0.15
461.946	0.16
462.301	0.15
462.655	0.15
463.01	0.15
463.365	0.13
463.719	0.13
464.074	0.13
464.428	0.12
464.783	0.11
465.137	0.11
465.492	0.11
465.846	0.12
466.201	0.12
466.555	0.12
466.909	0.13
467.263	0.14
467.618	0.14
467.972	0.15
468.326	0.14
468.68	0.14
469.034	0.12
469.388	0.13
469.742	0.13
470.096	0.14
470.45	0.14
470.804	0.14
471.157	0.14
471.511	0.14
471.865	0.14
472.218	0.16
472.572	0.17
472.926	0.18
473.279	0.18
473.633	0.19
473.986	0.2
474.34	0.21
474.693	0.22
475.046	0.24
475.4	0.25
475.753	0.26
476.106	0.27
476.459	0.27
476.812	0.3
477.165	0.31
477.519	0.32
477.872	0.33
478.224	0.33
478.577	0.34
478.93	0.35
479.283	0.36
479.636	0.37
479.989	0.38
480.341	0.39
480.694	0.4
481.047	0.42
481.399	0.42
481.752	0.43
482.104	0.43
482.457	0.45
482.809	0.46
483.162	0.46
483.514	0.47
483.866	0.48
484.219	0.48
484.571	0.49
484.923	0.49
485.275	0.5
485.627	0.51
485.979	0.52
486.331	0.53
486.683	0.54
487.035	0.54
487.387	0.56
487.739	0.57
488.091	0.58
488.443	0.57
488.794	0.57
489.146	0.58
489.498	0.59
489.849	0.6
490.201	0.6
490.552	0.61
490.904	0.61
491.255	0.61
491.607	0.62
491.958	0.63
492.309	0.63
492.661	0.64
493.012	0.65
493.363	0.65
493.714	0.66
494.065	0.67
494.416	0.67
494.767	0.68
495.118	0.69
495.469	0.69
495.82	0.7
496.171	0.7
496.522	0.71
496.872	0.71
497.223	0.72
497.574	0.73
497.924	0.73
498.275	0.74
498.626	0.75
498.976	0.75
499.327	0.76
499.677	0.77
500.027	0.77
500.378	0.77
500.728	0.77
501.078	0.79
501.428	0.8
501.779	0.81
502.129	0.8
502.479	0.81
502.829	0.82
503.179	0.83
503.529	0.83
503.879	0.84
504.229	0.85
504.578	0.85
504.928	0.85
505.278	0.86
505.628	0.86
505.977	0.87
506.327	0.87
506.676	0.88
507.026	0.88
507.375	0.89
507.725	0.89
508.074	0.9
508.424	0.9
508.773	0.91
509.122	0.9
509.471	0.92
509.82	0.92
510.17	0.93
510.519	0.93
510.868	0.94
511.217	0.93
511.566	0.95
511.915	0.95
512.263	0.96
512.612	0.97
512.961	0.96
513.31	0.96
513.659	0.99
514.007	0.98
514.356	0.99
514.704	0.99
515.053	1.01
515.401	1
515.75	1
516.098	1.01
516.447	1.01
516.795	1.02
517.143	1.01
517.491	1.03
517.839	1.03
518.188	1.03
518.536	1.04
518.884	1.04
519.232	1.05
519.58	1.04
519.928	1.05
520.275	1.06
520.623	1.06
520.971	1.06
521.319	1.07
521.666	1.08
522.014	1.07
522.362	1.07
522.709	1.08
523.057	1.08
523.404	1.09
523.752	1.09
524.099	1.09
524.446	1.12
524.794	1.12
525.141	1.11
525.488	1.11
525.835	1.11
526.182	1.12
526.529	1.12
526.876	1.13
527.223	1.13
527.57	1.15
527.917	1.13
528.264	1.13
528.611	1.15
528.958	1.14
529.304	1.14
529.651	1.16
529.998	1.15
530.344	1.16
530.691	1.16
531.037	1.16
531.384	1.17
531.73	1.16
532.076	1.18
532.423	1.17
532.769	1.17
533.115	1.16
533.461	1.17
533.807	1.18
534.154	1.16
534.5	1.19
534.846	1.19
535.192	1.17
535.537	1.19
535.883	1.21
536.229	1.2
536.575	1.2
536.921	1.21
537.266	1.21
537.612	1.2
537.957	1.19
538.303	1.2
538.649	1.22
538.994	1.2
539.339	1.2
539.685	1.21
540.03	1.22
540.375	1.22
540.721	1.22
541.066	1.21
541.411	1.22
541.756	1.22
542.101	1.21
542.446	1.23
542.791	1.22
543.136	1.21
543.481	1.23
543.825	1.22
544.17	1.21
544.515	1.23
544.86	1.23
545.204	1.23
545.549	1.22
545.893	1.23
546.238	1.22
546.582	1.24
546.927	1.23
547.271	1.23
547.615	1.24
547.96	1.24
548.304	1.23
548.648	1.24
548.992	1.22
549.336	1.23
549.68	1.23
550.024	1.23
550.368	1.24
550.712	1.24
551.056	1.25
551.4	1.24
551.743	1.24
552.087	1.25
552.431	1.23
552.774	1.23
553.118	1.24
553.462	1.23
553.805	1.24
554.148	1.24
554.492	1.24
554.835	1.24
555.178	1.23
555.522	1.23
555.865	1.23
556.208	1.22
556.551	1.22
556.894	1.22
557.237	1.22
557.58	1.22
557.923	1.21
558.266	1.22
558.609	1.23
558.952	1.22
559.294	1.22
559.637	1.21
559.98	1.21
560.322	1.2
560.665	1.21
561.007	1.21
561.35	1.2
561.692	1.2
562.034	1.21
562.377	1.2
562.719	1.2
563.061	1.2
563.403	1.21
563.745	1.2
564.088	1.19
564.43	1.2
564.772	1.19
565.113	1.19
565.455	1.19
565.797	1.19
566.139	1.19
566.481	1.18
566.822	1.18
567.164	1.18
567.506	1.18
567.847	1.19
568.189	1.17
568.53	1.18
568.872	1.18
569.213	1.17
569.554	1.17
569.895	1.16
570.237	1.16
570.578	1.16
570.919	1.15
571.26	1.15
571.601	1.16
571.942	1.15
572.283	1.14
572.624	1.15
572.965	1.14
573.306	1.13
573.646	1.13
573.987	1.13
574.328	1.13
574.668	1.12
575.009	1.12
575.349	1.12
575.69	1.12
576.03	1.11
576.37	1.11
576.711	1.11
577.051	1.11
577.391	1.11
577.731	1.11
578.072	1.1
578.412	1.1
578.752	1.1
579.092	1.1
579.431	1.08
579.771	1.07
580.111	1.07
580.451	1.08
580.791	1.08
581.13	1.08
581.47	1.08
581.81	1.07
582.149	1.07
582.489	1.08
582.828	1.06
583.167	1.04
583.507	1
583.846	1.01
584.185	1.04
584.525	1.05
584.864	1.06
585.203	1.06
585.542	1.06
585.881	1.06
586.22	1.06
586.559	1.05
586.898	1.04
587.236	1.04
587.575	1.04
587.914	1.04
588.252	1.05
588.591	1.04
588.93	1.04
589.268	1.03
589.607	1.04
589.945	1.04
590.283	1.04
590.622	1.04
590.96	1.03
591.298	1.04
591.636	1.04
591.974	1.04
592.313	1.04
592.651	1.03
592.989	1.03
593.326	1.02
593.664	1.02
594.002	1.03
594.34	1.03
594.678	1.02
595.015	1.02
595.353	1.02
595.691	1.02
596.028	1.03
596.366	1.03
596.703	1.02
597.04	1.02
597.378	1.02
597.715	1.02
598.052	1.02
598.389	1.02
598.726	1.02
599.064	1.01
599.401	1.02
599.738	1.01
600.074	1.01
600.411	1
600.748	1
601.085	1
601.422	1
601.758	1
602.095	1
602.432	1
602.768	0.99
603.105	1
603.441	1
603.777	1
604.114	0.99
604.45	0.99
604.786	0.98
605.122	0.98
605.459	0.98
605.795	0.98
606.131	0.97
606.467	0.97
606.803	0.97
607.139	0.97
607.474	0.96
607.81	0.96
608.146	0.96
608.482	0.96
608.817	0.95
609.153	0.95
609.488	0.95
609.824	0.95
610.159	0.95
610.495	0.94
610.83	0.95
611.165	0.94
611.5	0.94
611.836	0.93
612.171	0.93
612.506	0.93
612.841	0.92
613.176	0.92
613.511	0.92
613.845	0.91
614.18	0.91
614.515	0.91
614.85	0.9
615.184	0.9
615.519	0.9
615.854	0.9
616.188	0.89
616.523	0.88
616.857	0.88
617.191	0.88
617.526	0.88
617.86	0.88
618.194	0.87
618.528	0.87
618.862	0.87
619.196	0.86
619.53	0.86
619.864	0.86
620.198	0.86
620.532	0.85
620.866	0.84
621.2	0.84
621.533	0.83
621.867	0.83
622.201	0.83
622.534	0.83
622.868	0.83
623.201	0.82
623.534	0.82
623.868	0.81
624.201	0.81
624.534	0.81
624.868	0.81
625.201	0.8
625.534	0.8
625.867	0.8
626.2	0.79
626.533	0.79
626.865	0.78
627.198	0.78
627.531	0.78
627.864	0.78
628.196	0.77
628.529	0.76
628.862	0.76
629.194	0.76
629.527	0.75
629.859	0.75
630.191	0.75
630.524	0.75
630.856	0.74
631.188	0.73
631.52	0.72
631.852	0.72
632.184	0.72
632.516	0.72
632.848	0.71
633.18	0.71
633.512	0.71
633.844	0.7
634.175	0.7
634.507	0.69
634.839	0.68
635.17	0.69
635.502	0.68
635.833	0.67
636.165	0.67
636.496	0.67
636.827	0.66
637.159	0.66
637.49	0.66
637.821	0.65
638.152	0.64
638.483	0.64
638.814	0.63
639.145	0.63
639.476	0.63
639.807	0.62
640.137	0.62
640.468	0.61
640.799	0.61
641.129	0.61
641.46	0.6
641.791	0.6
642.121	0.6
642.451	0.59
642.782	0.59
643.112	0.58
643.442	0.58
643.773	0.58
644.103	0.58
644.433	0.57
644.763	0.57
645.093	0.57
645.423	0.56
645.753	0.56
646.082	0.56
646.412	0.55
646.742	0.55
647.072	0.55
647.401	0.55
647.731	0.54
648.06	0.54
648.39	0.54
648.719	0.54
649.048	0.53
649.378	0.53
649.707	0.53
650.036	0.52
650.365	0.52
650.694	0.52
651.023	0.52
651.352	0.52
651.681	0.52
652.01	0.52
652.339	0.51
652.668	0.51
652.996	0.51
653.325	0.51
653.654	0.51
653.982	0.5
654.311	0.5
654.639	0.5
654.967	0.5
655.296	0.49
655.624	0.49
655.952	0.5
656.28	0.49
656.609	0.49
656.937	0.48
657.265	0.47
657.593	0.32
657.92	0.23
658.248	0.21
658.576	0.29
658.904	0.42
659.231	0.47
659.559	0.47
659.887	0.47
660.214	0.47
660.542	0.47
660.869	0.46
661.196	0.46
661.524	0.47
661.851	0.46
662.178	0.46
662.505	0.46
662.832	0.45
663.159	0.45
663.486	0.45
663.813	0.45
664.14	0.45
664.467	0.44
664.794	0.44
665.12	0.44
665.447	0.44
665.774	0.43
666.1	0.43
666.427	0.43
666.753	0.43
667.079	0.43
667.406	0.43
667.732	0.42
668.058	0.42
668.384	0.42
668.71	0.42
669.036	0.42
669.362	0.41
669.688	0.4
670.014	0.4
670.34	0.4
670.666	0.4
670.991	0.4
671.317	0.4
671.643	0.39
671.968	0.39
672.294	0.39
672.619	0.38
672.945	0.38
673.27	0.38
673.595	0.37
673.92	0.37
674.246	0.37
674.571	0.37
674.896	0.37
675.221	0.36
675.546	0.36
675.87	0.36
676.195	0.35
676.52	0.35
676.845	0.35
677.169	0.34
677.494	0.34
677.819	0.34
678.143	0.33
678.468	0.33
678.792	0.33
679.116	0.33
679.44	0.33
679.765	0.32
680.089	0.32
680.413	0.31
680.737	0.31
681.061	0.3
681.385	0.31
681.709	0.3
682.033	0.3
682.356	0.3
682.68	0.3
683.004	0.29
683.327	0.29
683.651	0.28
683.974	0.28
684.298	0.28
684.621	0.28
684.944	0.27
685.268	0.27
685.591	0.27
685.914	0.26
686.237	0.26
686.56	0.26
686.883	0.25
687.206	0.25
687.529	0.25
687.852	0.25
688.175	0.24
688.497	0.24
688.82	0.24
689.142	0.24
689.465	0.23
689.787	0.23
690.11	0.23
690.432	0.23
690.755	0.22
691.077	0.22
691.399	0.22
691.721	0.22
692.043	0.21
692.365	0.21
692.687	0.21
693.009	0.2
693.331	0.2
693.653	0.2
693.974	0.2
694.296	0.2
694.618	0.19
694.939	0.19
695.261	0.19
695.582	0.19
695.904	0.19
696.225	0.19
696.546	0.18
696.868	0.18
697.189	0.18
697.51	0.18
697.831	0.18
698.152	0.18
698.473	0.17
698.794	0.17
699.114	0.17
699.435	0.16
699.756	0.17
700.077	0.17
700.397	0.17
700.718	0.17
701.038	0.16
701.359	0.16
701.679	0.16
701.999	0.16
702.32	0.16
702.64	0.16
702.96	0.16
703.28	0.16
703.6	0.16
703.92	0.16
704.24	0.16
704.56	0.15
704.879	0.15
705.199	0.15
705.519	0.15
705.838	0.15
706.158	0.15
706.478	0.15
706.797	0.15
707.116	0.15
707.436	0.15
707.755	0.15
708.074	0.15
708.393	0.14
708.712	0.14
709.031	0.13
709.35	0.14
709.669	0.13
709.988	0.13
710.307	0.14
710.626	0.14
710.944	0.14
711.263	0.14
711.582	0.14
711.9	0.14
712.219	0.14
712.537	0.14
712.855	0.14
713.174	0.14
713.492	0.14
713.81	0.14
714.128	0.14
714.446	0.14
714.764	0.14
715.082	0.13
715.4	0.14
715.718	0.14
716.035	0.14
716.353	0.14
716.671	0.14
716.988	0.14
717.306	0.14
717.623	0.14
717.941	0.14
718.258	0.14
718.575	0.14
718.893	0.14
719.21	0.14
719.527	0.14
719.844	0.14
720.161	0.14
720.478	0.14
720.795	0.14
721.112	0.15
721.428	0.14
721.745	0.14
722.062	0.14
722.378	0.15
722.695	0.15
723.011	0.15
723.328	0.14
723.644	0.15
723.96	0.15
724.276	0.15
724.593	0.15
724.909	0.15
725.225	0.15
725.541	0.15
725.857	0.15
726.173	0.15
726.488	0.15
726.804	0.15
727.12	0.15
727.435	0.15
727.751	0.15
728.067	0.15
728.382	0.15
728.697	0.15
729.013	0.15
729.328	0.14
729.643	0.15
729.958	0.15
730.273	0.14
730.588	0.14
730.903	0.14
731.218	0.14
731.533	0.14
731.848	0.14
732.163	0.14
732.477	0.14
732.792	0.14
733.107	0.13
733.421	0.14
733.736	0.14
734.05	0.14
734.364	0.14
734.678	0.14
734.993	0.14
735.307	0.14
735.621	0.14
735.935	0.14
736.249	0.14
736.563	0.14
736.877	0.14
737.19	0.14
737.504	0.14
737.818	0.14
738.131	0.14
738.445	0.14
738.758	0.13
739.072	0.14
739.385	0.13
739.698	0.13
740.012	0.13
740.325	0.13
740.638	0.13
740.951	0.13
741.264	0.12
741.577	0.13
741.89	0.13
742.203	0.12
742.515	0.13
742.828	0.13
743.141	0.12
743.453	0.12
743.766	0.12
744.078	0.12
744.391	0.12
744.703	0.12
745.015	0.11
745.327	0.12
745.639	0.11
745.952	0.12
746.264	0.11
746.575	0.11
746.887	0.11
747.199	0.11
747.511	0.11
747.823	0.11
748.134	0.11
748.446	0.11
748.757	0.11
749.069	0.11
749.38	0.11
749.692	0.1
750.003	0.1
750.314	0.1
750.625	0.1
750.936	0.1
751.248	0.1
751.559	0.1
751.869	0.1
752.18	0.1
752.491	0.1
752.802	0.09
753.112	0.1
753.423	0.09
753.734	0.09
754.044	0.09
754.355	0.09
754.665	0.09
754.975	0.09
755.285	0.09
755.596	0.09
755.906	0.09
756.216	0.09
756.526	0.09
756.836	0.09
757.146	0.09
757.455	0.09
757.765	0.08
758.075	0.08
758.385	0.08
758.694	0.08
759.004	0.08
759.313	0.08
759.622	0.08
759.932	0.08
760.241	0.08
760.55	0.08
760.859	0.08
761.168	0.08
761.477	0.08
761.786	0.08
762.095	0.08
762.404	0.07
762.713	0.08
763.021	0.08
763.33	0.08
763.639	0.08
763.947	0.08
764.256	0.08
764.564	0.08
764.872	0.08
765.181	0.08
765.489	0.07
765.797	0.07
766.105	0.07
766.413	0.07
766.721	0.08
767.029	0.08
767.337	0.08
767.644	0.07
767.952	0.08
768.26	0.08
768.567	0.08
768.875	0.07
769.182	0.07
769.49	0.07
769.797	0.07
770.104	0.07
770.411	0.07
770.718	0.07
771.026	0.07
771.333	0.07
771.639	0.08
771.946	0.08
772.253	0.08
772.56	0.08
772.867	0.08
773.173	0.08
773.48	0.08
773.786	0.07
774.093	0.08
774.399	0.08
774.705	0.08
775.012	0.08
775.318	0.08
775.624	0.07
775.93	0.08
776.236	0.07
776.542	0.08
776.848	0.08
777.154	0.08
777.459	0.08
777.765	0.07
778.071	0.08
778.376	0.08
778.682	0.08
778.987	0.08
779.292	0.08
779.598	0.08
779.903	0.08
780.208	0.08
780.513	0.08
780.818	0.08
781.123	0.08
781.428	0.08
781.733	0.08
782.038	0.08
782.343	0.08
782.647	0.08
782.952	0.08
783.256	0.08
783.561	0.09
783.865	0.09
784.17	0.08
784.474	0.08
784.778	0.09
785.082	0.09
785.386	0.08
785.69	0.08
785.994	0.09
786.298	0.09
786.602	0.09
786.906	0.09
787.209	0.08
787.513	0.09
787.817	0.09
788.12	0.09
788.424	0.09
788.727	0.09
789.03	0.09
789.333	0.09
789.637	0.09
789.94	0.09
790.243	0.09
790.546	0.09
790.849	0.09
791.152	0.09
791.454	0.09
791.757	0.09
792.06	0.09
792.362	0.09
792.665	0.09
792.967	0.09
793.27	0.09
793.572	0.09
793.874	0.09
794.177	0.09
794.479	0.09
794.781	0.1
795.083	0.09
795.385	0.09
795.687	0.1
795.989	0.09
796.29	0.1
796.592	0.1
796.894	0.1
797.195	0.1
797.497	0.1
797.798	0.11
798.1	0.1
798.401	0.1
798.702	0.1
799.003	0.1
799.304	0.1
799.605	0.1
799.906	0.1
800.207	0.1
800.508	0.1
800.809	0.11
801.11	0.1
801.41	0.11
801.711	0.11
802.011	0.11
802.312	0.1
802.612	0.1
802.913	0.1
803.213	0.11
803.513	0.11
803.813	0.11
804.113	0.1
804.413	0.11
804.713	0.11
805.013	0.11
805.313	0.11
805.613	0.11
805.912	0.11
806.212	0.11
806.511	0.11
806.811	0.11
807.11	0.11
807.41	0.11
807.709	0.11
808.008	0.11
808.307	0.11
808.606	0.12
808.905	0.11
809.204	0.12
809.503	0.12
809.802	0.12
810.101	0.12
810.399	0.12
810.698	0.12
810.997	0.12
811.295	0.12
811.593	0.12
811.892	0.12
812.19	0.13
812.488	0.13
812.786	0.12
813.084	0.12
813.383	0.13
813.68	0.13
813.978	0.13
814.276	0.12
814.574	0.13
814.872	0.13
815.169	0.13
815.467	0.13
815.764	0.13
816.062	0.13
816.359	0.13
816.656	0.13
816.954	0.13
817.251	0.13
817.548	0.13
817.845	0.13
818.142	0.13
818.439	0.14
818.735	0.13
819.032	0.14
819.329	0.14
819.626	0.14
819.922	0.14
820.219	0.14
820.515	0.14
820.811	0.14
821.108	0.14
821.404	0.14
821.7	0.14
821.996	0.14
822.292	0.15
822.588	0.15
822.884	0.14
823.18	0.15
823.475	0.14
823.771	0.14
824.067	0.14
824.362	0.14
824.658	0.14
824.953	0.15
825.249	0.15
825.544	0.14
825.839	0.15
826.134	0.15
826.429	0.16
826.724	0.15
827.019	0.15
827.314	0.15
827.609	0.15
827.904	0.15
828.198	0.15
828.493	0.15
828.787	0.15
829.082	0.15
829.376	0.15
829.671	0.15
829.965	0.15
830.259	0.16
830.553	0.16
830.847	0.16
831.141	0.16
831.435	0.16
831.729	0.16
832.023	0.17
832.317	0.17
832.61	0.16
832.904	0.17
833.197	0.16
833.491	0.16
833.784	0.16
834.077	0.16
834.371	0.16
834.664	0.16
834.957	0.17
835.25	0.17
835.543	0.17
835.836	0.18
836.129	0.17
836.421	0.18
836.714	0.17
837.007	0.17
837.299	0.18
837.592	0.17
837.884	0.18
838.177	0.17
838.469	0.19
838.761	0.18
839.053	0.17
839.345	0.19
839.637	0.19
839.929	0.18
840.221	0.18
840.513	0.19
840.805	0.17
841.096	0.18
841.388	0.19
841.68	0.18
841.971	0.18
842.262	0.19
842.554	0.19
842.845	0.19
843.136	0.19
843.427	0.19
843.718	0.19
844.009	0.19
844.3	0.19
844.591	0.19
844.882	0.19
845.173	0.18
845.463	0.2
845.754	0.19
846.044	0.18
846.335	0.18
846.625	0.2
846.915	0.19
847.206	0.2
847.496	0.19
847.786	0.19
848.076	0.2
848.366	0.19
848.656	0.21
848.945	0.2
849.235	0.2
849.525	0.21
849.814	0.19
850.104	0.19
850.393	0.2
850.683	0.2
850.972	0.2
851.261	0.2
851.551	0.2
851.84	0.2
852.129	0.2
852.418	0.2
852.707	0.21
852.995	0.2
853.284	0.21
853.573	0.2
853.862	0.2
854.15	0.22
854.439	0.21
854.727	0.21
855.015	0.22
855.304	0.21
855.592	0.22
855.88	0.2
856.168	0.22
856.456	0.21
856.744	0.22
857.032	0.23
857.32	0.22
857.607	0.23
857.895	0.23
858.183	0.23
858.47	0.24
858.757	0.21
859.045	0.23
859.332	0.19
859.619	0.21
859.907	0.22
860.194	0.23
860.481	0.22
860.768	0.2
861.054	0.23
861.341	0.23
861.628	0.22
861.915	0.25
862.201	0.22
862.488	0.19
862.774	0.21
863.061	0.22
863.347	0.25
863.633	0.22
863.919	0.23
864.205	0.2
864.491	0.24
864.777	0.23
865.063	0.24
865.349	0.24
865.635	0.23
865.92	0.22
866.206	0.21
866.492	0.22
866.777	0.23
867.062	0.21
867.348	0.22
867.633	0.24
867.918	0.2
868.203	0.23
868.488	0.24
868.773	0.23
869.058	0.22
869.343	0.29
869.628	0.21
869.912	0.21
870.197	0.25
870.482	0.27
870.766	0.19
871.05	0.2
871.335	0.23
871.619	0.21
871.903	0.25
872.187	0.22
872.471	0.24
872.755	0.27
873.039	0.19
873.323	0.25
873.607	0.24
873.89	0.23
874.174	0.17
874.458	0.16
874.741	0.25
875.024	0.27
875.308	0.24
875.591	0.17
875.874	0.21
876.157	0.12
876.44	0.16
876.723	0.24
877.006	0.26
877.289	0.14
877.572	0.26
877.854	0.11
878.137	0.28
878.42	0.2
878.702	0.14
878.984	0.14
879.267	0.24
879.549	0.31
879.831	0.14
880.113	0.17
880.395	0.28
880.677	0.26
880.959	0.05
