Data from Rubpy_EV_EDTA_Blank_Green_StopFlow_Absorbance__12__12-21-50-748.txt Node

Date: Mon Jul 20 12:21:50 BST 2026
User: fpm-admin
Spectrometer: SR600986
Trigger mode: 0
Integration Time (sec): 2.000000E-2
Scans to average: 3
Nonlinearity correction enabled: true
Boxcar width: 0
Storing dark spectrum: false
XAxis mode: Wavelengths
Number of Pixels in Spectrum: 2048
>>>>>Begin Spectral Data<<<<<
188.613	0.06
189.078	0.06
189.542	0.06
190.007	0.06
190.472	0.06
190.936	0.08
191.401	0.05
191.865	0.06
192.33	0.06
192.794	0.07
193.258	0.07
193.723	0.07
194.187	0.06
194.651	0.07
195.115	0.05
195.579	0.09
196.043	0.07
196.507	0.07
196.971	0.05
197.435	0.08
197.899	0.05
198.363	0.06
198.827	0.04
199.29	0.08
199.754	0.05
200.218	0.07
200.681	0.07
201.145	0.07
201.608	0.07
202.072	0.05
202.535	0.07
202.998	0.06
203.462	0.07
203.925	0.05
204.388	0.06
204.851	0.09
205.314	0.07
205.777	0.05
206.24	0.06
206.703	0.06
207.166	0.08
207.629	0.06
208.092	0.08
208.555	0.05
209.018	0.08
209.48	0.04
209.943	0.06
210.406	0.08
210.868	0.05
211.331	0.06
211.793	0.07
212.256	0.07
212.718	0.05
213.18	0.05
213.643	0.08
214.105	0.06
214.567	0.07
215.029	0.08
215.491	0.05
215.953	0.07
216.415	0.06
216.877	0.07
217.339	0.05
217.801	0.08
218.263	0.04
218.725	0.06
219.186	0.05
219.648	0.06
220.11	0.06
220.571	0.07
221.033	0.04
221.494	0.07
221.956	0.05
222.417	0.05
222.878	0.07
223.34	0.06
223.801	0.05
224.262	0.07
224.723	0.06
225.185	0.07
225.646	0.05
226.107	0.04
226.568	0.05
227.029	0.06
227.489	0.06
227.95	0.06
228.411	0.05
228.872	0.07
229.332	0.05
229.793	0.07
230.254	0.08
230.714	0.08
231.175	0.06
231.635	0.06
232.096	0.06
232.556	0.05
233.016	0.06
233.477	0.08
233.937	0.08
234.397	0.06
234.857	0.06
235.317	0.06
235.777	0.07
236.237	0.06
236.697	0.05
237.157	0.08
237.617	0.09
238.077	0.04
238.537	0.04
238.996	0.05
239.456	0.04
239.916	0.05
240.375	0.04
240.835	0.06
241.294	0.04
241.754	0.08
242.213	0.06
242.672	0.06
243.132	0.08
243.591	0.07
244.05	0.04
244.509	0.05
244.968	0.08
245.427	0.07
245.886	0.06
246.345	0.05
246.804	0.06
247.263	0.06
247.722	0.05
248.181	0.07
248.639	0.06
249.098	0.05
249.557	0.04
250.015	0.09
250.474	0.07
250.932	0.08
251.391	0.07
251.849	0.06
252.308	0.06
252.766	0.05
253.224	0.07
253.682	0.06
254.14	0.05
254.599	0.05
255.057	0.05
255.515	0.06
255.973	0.07
256.431	0.08
256.888	0.05
257.346	0.04
257.804	0.06
258.262	0.06
258.719	0.05
259.177	0.08
259.635	0.08
260.092	0.04
260.55	0.05
261.007	0.06
261.465	0.03
261.922	0.07
262.379	0.09
262.836	0.07
263.294	0.07
263.751	0.03
264.208	0.06
264.665	0.06
265.122	0.04
265.579	0.06
266.036	0.04
266.493	0.08
266.95	0.06
267.406	0.06
267.863	0.08
268.32	0.07
268.777	0.06
269.233	0.05
269.69	0.07
270.146	0.07
270.603	0.06
271.059	0.05
271.515	0.07
271.972	0.07
272.428	0.06
272.884	0.08
273.34	0.05
273.796	0.07
274.253	0.07
274.709	0.06
275.165	0.05
275.62	0.05
276.076	0.06
276.532	0.06
276.988	0.06
277.444	0.07
277.899	0.04
278.355	0.06
278.811	0.04
279.266	0.07
279.722	0.04
280.177	0.06
280.633	0.06
281.088	0.07
281.543	0.06
281.998	0.07
282.454	0.07
282.909	0.05
283.364	0.07
283.819	0.04
284.274	0.05
284.729	0.04
285.184	0.06
285.639	0.05
286.094	0.07
286.548	0.04
287.003	0.08
287.458	0.07
287.913	0.07
288.367	0.06
288.822	0.05
289.276	0.08
289.731	0.06
290.185	0.05
290.639	0.06
291.094	0.07
291.548	0.06
292.002	0.06
292.456	0.08
292.91	0.08
293.365	0.09
293.819	0.07
294.273	0.08
294.726	0.06
295.18	0.05
295.634	0.06
296.088	0.06
296.542	0.08
296.995	0.06
297.449	0.05
297.903	0.05
298.356	0.07
298.81	0.08
299.263	0.07
299.716	0.06
300.17	0.08
300.623	0.06
301.076	0.05
301.53	0.07
301.983	0.05
302.436	0.08
302.889	0.06
303.342	0.06
303.795	0.05
304.248	0.08
304.701	0.07
305.153	0.08
305.606	0.06
306.059	0.08
306.512	0.07
306.964	0.07
307.417	0.08
307.869	0.08
308.322	0.09
308.774	0.08
309.227	0.09
309.679	0.07
310.131	0.09
310.584	0.09
311.036	0.08
311.488	0.09
311.94	0.09
312.392	0.1
312.844	0.07
313.296	0.09
313.748	0.09
314.2	0.09
314.652	0.09
315.103	0.08
315.555	0.09
316.007	0.09
316.458	0.09
316.91	0.08
317.361	0.08
317.813	0.09
318.264	0.1
318.716	0.08
319.167	0.09
319.618	0.09
320.07	0.1
320.521	0.1
320.972	0.09
321.423	0.09
321.874	0.09
322.325	0.09
322.776	0.09
323.227	0.09
323.678	0.09
324.128	0.09
324.579	0.09
325.03	0.1
325.48	0.09
325.931	0.09
326.382	0.1
326.832	0.1
327.283	0.1
327.733	0.1
328.183	0.1
328.634	0.11
329.084	0.11
329.534	0.11
329.984	0.11
330.434	0.11
330.884	0.11
331.334	0.11
331.784	0.11
332.234	0.12
332.684	0.12
333.134	0.12
333.584	0.12
334.034	0.12
334.483	0.13
334.933	0.13
335.382	0.13
335.832	0.13
336.281	0.13
336.731	0.14
337.18	0.14
337.63	0.14
338.079	0.14
338.528	0.14
338.977	0.15
339.426	0.14
339.876	0.15
340.325	0.16
340.774	0.15
341.223	0.16
341.671	0.16
342.12	0.17
342.569	0.17
343.018	0.17
343.467	0.18
343.915	0.17
344.364	0.18
344.812	0.18
345.261	0.18
345.709	0.18
346.158	0.19
346.606	0.19
347.054	0.2
347.503	0.2
347.951	0.21
348.399	0.21
348.847	0.21
349.295	0.22
349.743	0.22
350.191	0.22
350.639	0.23
351.087	0.23
351.535	0.24
351.983	0.24
352.43	0.25
352.878	0.25
353.326	0.26
353.773	0.27
354.221	0.26
354.668	0.27
355.116	0.28
355.563	0.29
356.01	0.29
356.458	0.29
356.905	0.3
357.352	0.3
357.799	0.31
358.246	0.31
358.693	0.32
359.14	0.33
359.587	0.33
360.034	0.33
360.481	0.33
360.928	0.33
361.375	0.34
361.821	0.34
362.268	0.34
362.714	0.35
363.161	0.35
363.608	0.36
364.054	0.36
364.5	0.37
364.947	0.37
365.393	0.38
365.839	0.38
366.285	0.38
366.732	0.38
367.178	0.39
367.624	0.38
368.07	0.38
368.516	0.38
368.962	0.38
369.408	0.37
369.853	0.37
370.299	0.37
370.745	0.36
371.19	0.36
371.636	0.36
372.082	0.35
372.527	0.35
372.973	0.36
373.418	0.35
373.863	0.35
374.309	0.35
374.754	0.36
375.199	0.35
375.644	0.35
376.09	0.35
376.535	0.35
376.98	0.36
377.425	0.35
377.87	0.36
378.314	0.36
378.759	0.37
379.204	0.37
379.649	0.38
380.093	0.38
380.538	0.39
380.983	0.4
381.427	0.41
381.872	0.42
382.316	0.42
382.76	0.43
383.205	0.43
383.649	0.44
384.093	0.44
384.537	0.44
384.982	0.45
385.426	0.45
385.87	0.44
386.314	0.44
386.758	0.44
387.201	0.43
387.645	0.43
388.089	0.43
388.533	0.43
388.976	0.44
389.42	0.44
389.864	0.45
390.307	0.46
390.751	0.47
391.194	0.49
391.638	0.51
392.081	0.53
392.524	0.54
392.967	0.57
393.411	0.58
393.854	0.6
394.297	0.62
394.74	0.63
395.183	0.64
395.626	0.63
396.069	0.62
396.512	0.62
396.954	0.6
397.397	0.58
397.84	0.56
398.282	0.53
398.725	0.5
399.168	0.47
399.61	0.44
400.052	0.41
400.495	0.38
400.937	0.35
401.38	0.32
401.822	0.3
402.264	0.28
402.706	0.25
403.148	0.23
403.59	0.22
404.032	0.2
404.474	0.19
404.916	0.17
405.358	0.16
405.8	0.15
406.241	0.15
406.683	0.13
407.125	0.12
407.566	0.12
408.008	0.11
408.449	0.11
408.891	0.1
409.332	0.09
409.774	0.09
410.215	0.08
410.656	0.09
411.097	0.08
411.539	0.08
411.98	0.08
412.421	0.07
412.862	0.06
413.303	0.06
413.744	0.06
414.184	0.07
414.625	0.06
415.066	0.06
415.507	0.06
415.947	0.05
416.388	0.05
416.828	0.06
417.269	0.05
417.709	0.05
418.15	0.06
418.59	0.05
419.03	0.05
419.471	0.05
419.911	0.05
420.351	0.05
420.791	0.05
421.231	0.05
421.671	0.05
422.111	0.05
422.551	0.06
422.991	0.05
423.431	0.04
423.87	0.04
424.31	0.04
424.75	0.05
425.189	0.04
425.629	0.05
426.068	0.04
426.508	0.05
426.947	0.04
427.386	0.04
427.826	0.06
428.265	0.05
428.704	0.05
429.143	0.04
429.582	0.04
430.021	0.04
430.46	0.04
430.899	0.04
431.338	0.04
431.777	0.04
432.216	0.04
432.655	0.04
433.093	0.04
433.532	0.05
433.971	0.05
434.409	0.04
434.848	0.03
435.286	0.04
435.724	0.04
436.163	0.04
436.601	0.05
437.039	0.04
437.477	0.05
437.916	0.05
438.354	0.05
438.792	0.04
439.23	0.04
439.668	0.05
440.105	0.05
440.543	0.05
440.981	0.04
441.419	0.04
441.856	0.03
442.294	0.05
442.732	0.04
443.169	0.05
443.607	0.04
444.044	0.05
444.481	0.06
444.919	0.05
445.356	0.06
445.793	0.04
446.23	0.05
446.668	0.04
447.105	0.05
447.542	0.06
447.979	0.04
448.416	0.03
448.852	0.04
449.289	0.05
449.726	0.04
450.163	0.06
450.599	0.04
451.036	0.05
451.473	0.03
451.909	0.04
452.346	0.05
452.782	0.05
453.218	0.04
453.655	0.05
454.091	0.04
454.527	0.06
454.963	0.05
455.399	0.05
455.835	0.05
456.271	0.05
456.707	0.05
457.143	0.04
457.579	0.05
458.015	0.04
458.451	0.04
458.886	0.04
459.322	0.05
459.758	0.05
460.193	0.06
460.629	0.05
461.064	0.04
461.5	0.05
461.935	0.05
462.37	0.05
462.805	0.06
463.241	0.06
463.676	0.06
464.111	0.05
464.546	0.07
464.981	0.04
465.416	0.05
465.851	0.07
466.286	0.06
466.72	0.04
467.155	0.06
467.59	0.05
468.024	0.05
468.459	0.05
468.893	0.05
469.328	0.05
469.762	0.05
470.197	0.05
470.631	0.05
471.065	0.06
471.5	0.06
471.934	0.05
472.368	0.06
472.802	0.06
473.236	0.06
473.67	0.05
474.104	0.05
474.538	0.07
474.972	0.06
475.405	0.07
475.839	0.06
476.273	0.06
476.706	0.06
477.14	0.07
477.573	0.06
478.007	0.06
478.44	0.06
478.874	0.07
479.307	0.07
479.74	0.07
480.173	0.06
480.606	0.06
481.04	0.06
481.473	0.07
481.906	0.07
482.339	0.07
482.771	0.07
483.204	0.07
483.637	0.07
484.07	0.07
484.502	0.07
484.935	0.07
485.368	0.07
485.8	0.07
486.233	0.07
486.665	0.08
487.098	0.08
487.53	0.07
487.962	0.08
488.394	0.08
488.827	0.08
489.259	0.08
489.691	0.08
490.123	0.08
490.555	0.08
490.987	0.08
491.418	0.08
491.85	0.08
492.282	0.08
492.714	0.08
493.145	0.08
493.577	0.09
494.009	0.09
494.44	0.08
494.872	0.09
495.303	0.08
495.734	0.09
496.166	0.09
496.597	0.09
497.028	0.09
497.459	0.09
497.89	0.09
498.321	0.09
498.752	0.09
499.183	0.09
499.614	0.09
500.045	0.09
500.476	0.1
500.906	0.1
501.337	0.1
501.768	0.1
502.198	0.1
502.629	0.1
503.059	0.1
503.49	0.1
503.92	0.1
504.35	0.1
504.781	0.11
505.211	0.11
505.641	0.11
506.071	0.1
506.501	0.11
506.931	0.11
507.361	0.11
507.791	0.11
508.221	0.11
508.651	0.11
509.081	0.11
509.51	0.11
509.94	0.11
510.37	0.12
510.799	0.12
511.229	0.12
511.658	0.12
512.087	0.12
512.517	0.12
512.946	0.12
513.375	0.12
513.804	0.12
514.234	0.12
514.663	0.13
515.092	0.13
515.521	0.13
515.95	0.13
516.378	0.12
516.807	0.13
517.236	0.13
517.665	0.13
518.093	0.13
518.522	0.13
518.951	0.13
519.379	0.13
519.807	0.13
520.236	0.14
520.664	0.13
521.093	0.14
521.521	0.13
521.949	0.14
522.377	0.14
522.805	0.14
523.233	0.14
523.661	0.14
524.089	0.14
524.517	0.14
524.945	0.14
525.373	0.14
525.8	0.14
526.228	0.15
526.656	0.14
527.083	0.14
527.511	0.15
527.938	0.15
528.366	0.14
528.793	0.15
529.22	0.15
529.648	0.15
530.075	0.15
530.502	0.15
530.929	0.15
531.356	0.15
531.783	0.16
532.21	0.15
532.637	0.15
533.064	0.16
533.49	0.16
533.917	0.16
534.344	0.16
534.771	0.16
535.197	0.16
535.624	0.16
536.05	0.16
536.477	0.16
536.903	0.17
537.329	0.17
537.755	0.17
538.182	0.17
538.608	0.17
539.034	0.17
539.46	0.17
539.886	0.17
540.312	0.17
540.738	0.17
541.164	0.17
541.589	0.17
542.015	0.18
542.441	0.18
542.867	0.18
543.292	0.18
543.718	0.18
544.143	0.18
544.569	0.18
544.994	0.19
545.419	0.18
545.845	0.19
546.27	0.18
546.695	0.19
547.12	0.19
547.545	0.19
547.97	0.19
548.395	0.19
548.82	0.19
549.245	0.19
549.67	0.19
550.094	0.19
550.519	0.19
550.944	0.19
551.368	0.19
551.793	0.19
552.217	0.19
552.642	0.19
553.066	0.19
553.49	0.2
553.915	0.19
554.339	0.2
554.763	0.2
555.187	0.2
555.611	0.2
556.035	0.2
556.459	0.2
556.883	0.2
557.307	0.2
557.731	0.2
558.154	0.2
558.578	0.2
559.002	0.2
559.425	0.2
559.849	0.2
560.272	0.2
560.696	0.2
561.119	0.2
561.543	0.2
561.966	0.2
562.389	0.2
562.812	0.2
563.235	0.2
563.658	0.2
564.081	0.2
564.504	0.2
564.927	0.21
565.35	0.2
565.773	0.2
566.196	0.2
566.618	0.2
567.041	0.2
567.463	0.2
567.886	0.2
568.309	0.2
568.731	0.2
569.153	0.21
569.576	0.2
569.998	0.2
570.42	0.21
570.842	0.2
571.264	0.21
571.686	0.2
572.108	0.21
572.53	0.21
572.952	0.2
573.374	0.21
573.796	0.2
574.218	0.2
574.639	0.2
575.061	0.21
575.483	0.21
575.904	0.21
576.326	0.21
576.747	0.21
577.168	0.21
577.59	0.21
578.011	0.21
578.432	0.2
578.853	0.2
579.274	0.2
579.695	0.21
580.116	0.21
580.537	0.21
580.958	0.21
581.379	0.21
581.8	0.21
582.221	0.21
582.641	0.21
583.062	0.21
583.482	0.21
583.903	0.21
584.323	0.21
584.744	0.21
585.164	0.21
585.584	0.21
586.005	0.21
586.425	0.21
586.845	0.21
587.265	0.21
587.685	0.21
588.105	0.21
588.525	0.21
588.945	0.21
589.365	0.22
589.785	0.22
590.204	0.22
590.624	0.22
591.044	0.22
591.463	0.22
591.883	0.22
592.302	0.22
592.721	0.22
593.141	0.22
593.56	0.22
593.979	0.23
594.399	0.22
594.818	0.22
595.237	0.22
595.656	0.23
596.075	0.23
596.494	0.23
596.913	0.23
597.331	0.23
597.75	0.23
598.169	0.23
598.587	0.23
599.006	0.23
599.425	0.23
599.843	0.23
600.262	0.23
600.68	0.23
601.098	0.23
601.517	0.23
601.935	0.23
602.353	0.23
602.771	0.23
603.189	0.23
603.607	0.23
604.025	0.23
604.443	0.23
604.861	0.23
605.279	0.23
605.696	0.23
606.114	0.23
606.532	0.22
606.949	0.22
607.367	0.22
607.784	0.22
608.202	0.22
608.619	0.22
609.036	0.22
609.454	0.22
609.871	0.22
610.288	0.22
610.705	0.22
611.122	0.22
611.539	0.22
611.956	0.22
612.373	0.21
612.79	0.21
613.207	0.22
613.623	0.21
614.04	0.21
614.457	0.21
614.873	0.21
615.29	0.21
615.706	0.21
616.122	0.21
616.539	0.21
616.955	0.21
617.371	0.21
617.788	0.2
618.204	0.2
618.62	0.2
619.036	0.2
619.452	0.2
619.868	0.2
620.284	0.2
620.699	0.2
621.115	0.2
621.531	0.2
621.946	0.2
622.362	0.19
622.778	0.19
623.193	0.19
623.608	0.19
624.024	0.19
624.439	0.19
624.854	0.19
625.27	0.19
625.685	0.19
626.1	0.18
626.515	0.18
626.93	0.18
627.345	0.18
627.76	0.18
628.175	0.18
628.589	0.18
629.004	0.18
629.419	0.17
629.833	0.17
630.248	0.17
630.663	0.17
631.077	0.17
631.491	0.16
631.906	0.17
632.32	0.16
632.734	0.16
633.148	0.16
633.563	0.16
633.977	0.16
634.391	0.16
634.805	0.16
635.219	0.15
635.632	0.15
636.046	0.15
636.46	0.15
636.874	0.15
637.287	0.15
637.701	0.14
638.115	0.15
638.528	0.14
638.941	0.14
639.355	0.14
639.768	0.14
640.181	0.14
640.595	0.14
641.008	0.14
641.421	0.14
641.834	0.13
642.247	0.13
642.66	0.13
643.073	0.13
643.486	0.13
643.898	0.13
644.311	0.13
644.724	0.13
645.136	0.13
645.549	0.12
645.961	0.13
646.374	0.12
646.786	0.12
647.199	0.12
647.611	0.12
648.023	0.12
648.435	0.12
648.847	0.12
649.26	0.12
649.672	0.12
650.084	0.12
650.495	0.12
650.907	0.12
651.319	0.12
651.731	0.12
652.143	0.12
652.554	0.12
652.966	0.12
653.377	0.12
653.789	0.12
654.2	0.13
654.612	0.1
655.023	0.06
655.434	0.04
655.845	0.06
656.256	0.09
656.668	0.13
657.079	0.12
657.49	0.12
657.901	0.11
658.311	0.12
658.722	0.11
659.133	0.11
659.544	0.11
659.954	0.11
660.365	0.11
660.775	0.11
661.186	0.11
661.596	0.11
662.007	0.11
662.417	0.11
662.827	0.11
663.238	0.11
663.648	0.11
664.058	0.11
664.468	0.11
664.878	0.11
665.288	0.11
665.698	0.11
666.108	0.11
666.517	0.11
666.927	0.11
667.337	0.11
667.746	0.11
668.156	0.11
668.565	0.11
668.975	0.1
669.384	0.11
669.794	0.11
670.203	0.1
670.612	0.1
671.021	0.1
671.43	0.1
671.84	0.1
672.249	0.1
672.658	0.1
673.066	0.1
673.475	0.1
673.884	0.1
674.293	0.09
674.702	0.09
675.11	0.09
675.519	0.09
675.927	0.09
676.336	0.09
676.744	0.09
677.152	0.09
677.561	0.09
677.969	0.09
678.377	0.09
678.785	0.09
679.193	0.08
679.601	0.08
680.009	0.08
680.417	0.08
680.825	0.08
681.233	0.08
681.641	0.08
682.048	0.08
682.456	0.08
682.864	0.08
683.271	0.08
683.679	0.07
684.086	0.07
684.493	0.07
684.901	0.07
685.308	0.07
685.715	0.07
686.122	0.07
686.529	0.07
686.936	0.07
687.343	0.07
687.75	0.07
688.157	0.07
688.564	0.06
688.971	0.06
689.378	0.06
689.784	0.06
690.191	0.06
690.597	0.06
691.004	0.06
691.41	0.06
691.817	0.06
692.223	0.06
692.629	0.06
693.035	0.06
693.442	0.05
693.848	0.05
694.254	0.05
694.66	0.05
695.066	0.05
695.471	0.05
695.877	0.05
696.283	0.05
696.689	0.05
697.094	0.05
697.5	0.05
697.906	0.05
698.311	0.05
698.716	0.05
699.122	0.05
699.527	0.05
699.932	0.05
700.338	0.05
700.743	0.05
701.148	0.05
701.553	0.05
701.958	0.04
702.363	0.04
702.768	0.04
703.173	0.04
703.577	0.04
703.982	0.04
704.387	0.04
704.791	0.04
705.196	0.04
705.6	0.04
706.005	0.04
706.409	0.04
706.814	0.04
707.218	0.04
707.622	0.04
708.026	0.04
708.43	0.04
708.834	0.04
709.238	0.04
709.642	0.04
710.046	0.04
710.45	0.04
710.854	0.04
711.257	0.04
711.661	0.04
712.065	0.04
712.468	0.04
712.872	0.04
713.275	0.04
713.679	0.04
714.082	0.04
714.485	0.04
714.888	0.04
715.291	0.04
715.695	0.04
716.098	0.04
716.501	0.04
716.904	0.04
717.306	0.04
717.709	0.04
718.112	0.04
718.515	0.04
718.917	0.04
719.32	0.04
719.723	0.04
720.125	0.04
720.527	0.04
720.93	0.04
721.332	0.04
721.734	0.04
722.137	0.04
722.539	0.04
722.941	0.05
723.343	0.05
723.745	0.05
724.147	0.05
724.549	0.05
724.95	0.04
725.352	0.05
725.754	0.05
726.156	0.05
726.557	0.05
726.959	0.05
727.36	0.05
727.762	0.05
728.163	0.05
728.564	0.05
728.966	0.05
729.367	0.05
729.768	0.05
730.169	0.05
730.57	0.05
730.971	0.05
731.372	0.05
731.773	0.05
732.174	0.05
732.574	0.05
732.975	0.05
733.376	0.05
733.776	0.05
734.177	0.05
734.577	0.05
734.978	0.04
735.378	0.05
735.778	0.05
736.179	0.04
736.579	0.04
736.979	0.04
737.379	0.05
737.779	0.04
738.179	0.05
738.579	0.04
738.979	0.04
739.379	0.04
739.778	0.04
740.178	0.04
740.578	0.04
740.977	0.04
741.377	0.04
741.776	0.04
742.176	0.04
742.575	0.04
742.974	0.04
743.374	0.04
743.773	0.04
744.172	0.04
744.571	0.04
744.97	0.04
745.369	0.04
745.768	0.04
746.167	0.04
746.565	0.04
746.964	0.04
747.363	0.04
747.761	0.04
748.16	0.03
748.559	0.03
748.957	0.04
749.355	0.03
749.754	0.03
750.152	0.03
750.55	0.03
750.948	0.03
751.347	0.03
751.745	0.03
752.143	0.03
752.541	0.03
752.938	0.03
753.336	0.03
753.734	0.03
754.132	0.03
754.529	0.03
754.927	0.03
755.325	0.03
755.722	0.03
756.119	0.03
756.517	0.03
756.914	0.03
757.311	0.03
757.709	0.03
758.106	0.03
758.503	0.03
758.9	0.03
759.297	0.03
759.694	0.03
760.091	0.02
760.488	0.02
760.884	0.03
761.281	0.02
761.678	0.02
762.074	0.03
762.471	0.03
762.867	0.02
763.264	0.02
763.66	0.02
764.056	0.02
764.453	0.02
764.849	0.02
765.245	0.02
765.641	0.02
766.037	0.02
766.433	0.02
766.829	0.02
767.225	0.02
767.621	0.02
768.016	0.02
768.412	0.02
768.808	0.02
769.203	0.02
769.599	0.02
769.994	0.02
770.389	0.02
770.785	0.02
771.18	0.02
771.575	0.02
771.971	0.02
772.366	0.02
772.761	0.02
773.156	0.02
773.551	0.02
773.945	0.02
774.34	0.02
774.735	0.02
775.13	0.02
775.524	0.02
775.919	0.02
776.314	0.02
776.708	0.02
777.103	0.02
777.497	0.02
777.891	0.02
778.285	0.02
778.68	0.02
779.074	0.02
779.468	0.02
779.862	0.02
780.256	0.02
780.65	0.02
781.044	0.02
781.438	0.02
781.831	0.02
782.225	0.02
782.619	0.02
783.012	0.02
783.406	0.02
783.799	0.02
784.193	0.02
784.586	0.02
784.979	0.02
785.372	0.02
785.766	0.02
786.159	0.02
786.552	0.02
786.945	0.02
787.338	0.02
787.731	0.02
788.123	0.02
788.516	0.02
788.909	0.02
789.302	0.02
789.694	0.02
790.087	0.02
790.479	0.02
790.872	0.02
791.264	0.02
791.656	0.02
792.049	0.02
792.441	0.02
792.833	0.02
793.225	0.02
793.617	0.02
794.009	0.02
794.401	0.02
794.793	0.02
795.185	0.02
795.576	0.02
795.968	0.02
796.36	0.02
796.751	0.02
797.143	0.02
797.534	0.02
797.926	0.02
798.317	0.02
798.708	0.02
799.1	0.02
799.491	0.02
799.882	0.02
800.273	0.02
800.664	0.02
801.055	0.02
801.446	0.02
801.837	0.02
802.227	0.03
802.618	0.02
803.009	0.02
803.399	0.02
803.79	0.02
804.18	0.03
804.571	0.03
804.961	0.02
805.351	0.02
805.742	0.03
806.132	0.02
806.522	0.02
806.912	0.02
807.302	0.03
807.692	0.03
808.082	0.03
808.472	0.03
808.862	0.02
809.251	0.03
809.641	0.03
810.031	0.03
810.42	0.03
810.81	0.03
811.199	0.03
811.589	0.02
811.978	0.02
812.367	0.02
812.756	0.02
813.146	0.02
813.535	0.03
813.924	0.02
814.313	0.03
814.702	0.03
815.091	0.02
815.479	0.02
815.868	0.03
816.257	0.03
816.645	0.03
817.034	0.03
817.423	0.03
817.811	0.02
818.199	0.03
818.588	0.03
818.976	0.03
819.364	0.03
819.753	0.03
820.141	0.03
820.529	0.02
820.917	0.03
821.305	0.03
821.693	0.03
822.08	0.03
822.468	0.03
822.856	0.03
823.244	0.03
823.631	0.02
824.019	0.03
824.406	0.02
824.794	0.03
825.181	0.03
825.568	0.03
825.956	0.03
826.343	0.03
826.73	0.03
827.117	0.03
827.504	0.03
827.891	0.03
828.278	0.03
828.665	0.03
829.052	0.03
829.438	0.03
829.825	0.03
830.212	0.03
830.598	0.03
830.985	0.03
831.371	0.03
831.757	0.03
832.144	0.03
832.53	0.03
832.916	0.03
833.302	0.03
833.688	0.03
834.075	0.03
834.461	0.03
834.846	0.03
835.232	0.03
835.618	0.03
836.004	0.03
836.39	0.03
836.775	0.03
837.161	0.03
837.546	0.03
837.932	0.03
838.317	0.03
838.702	0.03
839.088	0.03
839.473	0.03
839.858	0.03
840.243	0.03
840.628	0.03
841.013	0.03
841.398	0.03
841.783	0.03
842.168	0.03
842.553	0.03
842.937	0.03
843.322	0.03
843.707	0.03
844.091	0.03
844.476	0.03
844.86	0.03
845.244	0.03
845.629	0.03
846.013	0.03
846.397	0.03
846.781	0.03
847.165	0.03
847.549	0.03
847.933	0.03
848.317	0.03
848.701	0.03
849.085	0.03
849.468	0.03
849.852	0.03
850.236	0.03
850.619	0.03
851.003	0.03
851.386	0.03
851.769	0.03
852.153	0.03
852.536	0.03
852.919	0.03
853.302	0.03
853.685	0.03
854.068	0.03
854.451	0.03
854.834	0.03
855.217	0.03
855.6	0.03
855.982	0.03
856.365	0.03
856.748	0.03
857.13	0.03
857.513	0.03
857.895	0.03
858.277	0.03
858.66	0.03
859.042	0.03
859.424	0.03
859.806	0.03
860.188	0.03
860.57	0.03
860.952	0.03
861.334	0.03
861.716	0.03
862.098	0.03
862.48	0.03
862.861	0.03
863.243	0.03
863.624	0.03
864.006	0.03
864.387	0.03
864.769	0.03
865.15	0.03
865.531	0.03
865.912	0.03
866.294	0.03
866.675	0.03
867.056	0.03
867.437	0.03
867.818	0.03
868.198	0.03
868.579	0.03
868.96	0.03
869.341	0.03
869.721	0.03
870.102	0.03
870.482	0.03
870.863	0.03
871.243	0.03
871.623	0.03
872.003	0.03
872.384	0.03
872.764	0.03
873.144	0.03
873.524	0.03
873.904	0.03
874.284	0.03
874.664	0.03
875.043	0.03
875.423	0.03
875.803	0.03
876.182	0.03
876.562	0.03
876.941	0.03
877.321	0.03
877.7	0.03
878.079	0.03
878.459	0.03
878.838	0.03
879.217	0.03
879.596	0.03
879.975	0.03
880.354	0.03
880.733	0.03
881.112	0.03
881.491	0.03
881.869	0.03
882.248	0.03
882.627	0.03
883.005	0.03
883.384	0.03
883.762	0.03
884.14	0.03
884.519	0.03
884.897	0.03
885.275	0.03
885.653	0.03
886.031	0.03
886.409	0.03
886.787	0.03
887.165	0.03
887.543	0.03
887.921	0.03
888.298	0.03
888.676	0.03
889.054	0.03
889.431	0.03
889.809	0.03
890.186	0.03
890.563	0.03
890.941	0.03
891.318	0.03
891.695	0.03
892.072	0.03
892.449	0.03
892.826	0.03
893.203	0.03
893.58	0.03
893.957	0.03
894.334	0.03
894.71	0.03
895.087	0.03
895.464	0.03
895.84	0.03
896.217	0.03
896.593	0.03
896.969	0.03
897.346	0.03
897.722	0.03
898.098	0.03
898.474	0.03
898.85	0.03
899.226	0.03
899.602	0.03
899.978	0.03
900.354	0.03
900.73	0.03
901.105	0.03
901.481	0.03
901.857	0.03
902.232	0.03
902.608	0.03
902.983	0.02
903.358	0.02
903.734	0.03
904.109	0.03
904.484	0.03
904.859	0.03
905.234	0.03
905.609	0.03
905.984	0.03
906.359	0.03
906.734	0.03
907.108	0.03
907.483	0.03
907.858	0.03
908.232	0.03
908.607	0.03
908.981	0.03
909.356	0.03
909.73	0.03
910.104	0.03
910.478	0.03
910.853	0.03
911.227	0.03
911.601	0.03
911.975	0.03
912.349	0.03
912.722	0.03
913.096	0.03
913.47	0.03
913.844	0.03
914.217	0.03
914.591	0.03
914.964	0.03
915.338	0.03
915.711	0.03
916.084	0.03
916.458	0.03
916.831	0.03
917.204	0.03
917.577	0.03
917.95	0.03
918.323	0.03
918.696	0.03
919.069	0.03
919.441	0.03
919.814	0.03
920.187	0.03
920.559	0.03
920.932	0.03
921.304	0.03
921.677	0.03
922.049	0.03
922.421	0.03
922.794	0.03
923.166	0.03
923.538	0.03
923.91	0.03
924.282	0.03
924.654	0.03
925.026	0.03
925.398	0.02
925.769	0.03
926.141	0.03
926.513	0.03
926.884	0.03
927.256	0.03
927.627	0.03
927.999	0.03
928.37	0.03
928.741	0.03
929.113	0.03
929.484	0.03
929.855	0.03
930.226	0.03
930.597	0.03
930.968	0.03
931.339	0.03
931.709	0.03
932.08	0.03
932.451	0.02
932.821	0.02
933.192	0.03
933.562	0.03
933.933	0.02
934.303	0.02
934.673	0.02
935.044	0.02
935.414	0.02
935.784	0.02
936.154	0.03
936.524	0.02
936.894	0.02
937.264	0.02
937.634	0.02
938.004	0.03
938.373	0.02
938.743	0.03
939.113	0.03
939.482	0.03
939.852	0.03
940.221	0.02
940.59	0.02
940.96	0.02
941.329	0.02
941.698	0.02
942.067	0.02
942.436	0.03
942.805	0.02
943.174	0.02
943.543	0.03
943.912	0.02
944.28	0.02
944.649	0.02
945.018	0.02
945.386	0.02
945.755	0.02
946.123	0.02
946.492	0.02
946.86	0.03
947.228	0.02
947.596	0.02
947.965	0.02
948.333	0.02
948.701	0.02
949.069	0.02
949.437	0.02
949.804	0.02
950.172	0.02
950.54	0.02
950.908	0.02
951.275	0.02
951.643	0.02
952.01	0.02
952.378	0.02
952.745	0.02
953.112	0.02
953.479	0.02
953.847	0.02
954.214	0.02
954.581	0.02
954.948	0.02
955.315	0.02
955.682	0.02
956.048	0.02
956.415	0.02
956.782	0.02
957.148	0.02
957.515	0.02
957.881	0.02
958.248	0.02
958.614	0.02
958.981	0.02
959.347	0.02
959.713	0.02
960.079	0.02
960.445	0.02
960.811	0.02
961.177	0.01
961.543	0.02
961.909	0.02
962.275	0.02
962.641	0.02
963.006	0.02
963.372	0.02
963.737	0.02
964.103	0.02
964.468	0.02
964.834	0.02
965.199	0.02
965.564	0.02
965.929	0.02
966.294	0.02
966.659	0.02
967.024	0.02
967.389	0.02
967.754	0.02
968.119	0.02
968.484	0.02
968.848	0.02
969.213	0.02
969.578	0.02
969.942	0.02
970.307	0.02
970.671	0.02
971.035	0.02
971.399	0.02
971.764	0.02
972.128	0.02
972.492	0.02
972.856	0.02
973.22	0.02
973.584	0.02
973.948	0.02
974.311	0.02
974.675	0.02
975.039	0.02
975.402	0.02
975.766	0.02
976.129	0.02
976.493	0.02
976.856	0.02
977.219	0.02
977.582	0.02
977.946	0.02
978.309	0.02
978.672	0.02
979.035	0.02
979.398	0.02
979.761	0.02
980.123	0.01
980.486	0.02
980.849	0.02
981.211	0.02
981.574	0.02
981.936	0.02
982.299	0.02
982.661	0.02
983.023	0.02
983.386	0.02
983.748	0.02
984.11	0.02
984.472	0.02
984.834	0.02
985.196	0.02
985.558	0.02
985.92	0.02
986.281	0.02
986.643	0.02
987.005	0.02
987.366	0.02
987.728	0.02
988.089	0.02
988.451	0.02
988.812	0.02
989.173	0.02
989.534	0.02
989.895	0.02
990.257	0.02
990.618	0.02
990.979	0.02
991.339	0.02
991.7	0.02
992.061	0.02
992.422	0.02
992.782	0.02
993.143	0.02
993.503	0.02
993.864	0.02
994.224	0.02
994.585	0.02
994.945	0.01
995.305	0.02
995.665	0.02
996.025	0.02
996.385	0.02
996.745	0.01
997.105	0.02
997.465	0.02
997.825	0.02
998.185	0.02
998.544	0.02
998.904	0.02
999.263	0.02
999.623	0.02
999.982	0.02
1000.342	0.02
1000.701	0.02
1001.06	0.02
1001.419	0.02
1001.778	0.02
1002.138	0.02
1002.497	0.01
1002.855	0.02
1003.214	0.02
1003.573	0.02
1003.932	0.02
1004.29	0.02
1004.649	0.02
1005.008	0.02
1005.366	0.02
1005.725	0.01
1006.083	0.02
1006.441	0.01
1006.799	0.01
1007.158	0.02
1007.516	0.01
1007.874	0.01
1008.232	0.02
1008.59	0.02
1008.948	0.02
1009.305	0.02
1009.663	0.02
1010.021	0.01
1010.379	0.02
1010.736	0.02
1011.094	0.02
1011.451	0.02
1011.808	0.01
1012.166	0.01
1012.523	0.02
1012.88	0.02
1013.237	0.02
1013.594	0.01
1013.951	0.01
1014.308	0.02
1014.665	0.01
1015.022	0.02
1015.379	0.02
1015.735	0.02
1016.092	0.01
1016.449	0.01
1016.805	0.01
1017.162	0.01
1017.518	0.01
1017.874	0.01
1018.231	0.02
1018.587	0.02
1018.943	0.02
1019.299	0.02
1019.655	0.02
1020.011	0.02
1020.367	0.02
1020.723	0.02
1021.078	0.02
1021.434	0.02
1021.79	0.02
1022.145	0.01
1022.501	0.01
1022.856	0.01
1023.212	0.01
1023.567	0.02
1023.922	0.02
1024.278	0.02
1024.633	0.02
1024.988	0.01
1025.343	0.02
1025.698	0.02
1026.053	0.02
1026.408	0.02
1026.762	0.01
1027.117	0.02
1027.472	0.02
1027.826	0.01
1028.181	0.02
1028.535	0.01
1028.89	0.02
1029.244	0.02
1029.598	0.02
1029.952	0.01
1030.307	0.01
1030.661	0.01
1031.015	0.01
1031.369	0.02
1031.723	0.02
1032.076	0.01
