Data from Rubpy_EV_900_EDTA_Absorbance_12-24-08-017.txt Node
Date: Mon Jun 29 12:24:08 BST 2026
User: fpm-admin
Spectrometer: OFX00224
Trigger mode: 0
Integration Time (sec): 7.000000E-2
Scans to average: 3
Nonlinearity correction enabled: false
Boxcar width: 0
Storing dark spectrum: false
XAxis mode: Wavelengths
Number of Pixels in Spectrum: 2136
>>>>>Begin Spectral Data<<<<<
154.91	-0
155.289	-0
155.669	-0.21
156.048	-0.04
156.428	-0
156.807	-0.23
157.186	0.74
157.566	-0.15
157.945	-0
158.325	-0
158.704	-0.88
159.083	-0.46
159.462	-0
159.842	-0.14
160.221	0.08
160.6	-0
160.979	-0.22
161.359	-0.15
161.738	-0
162.117	-0
162.496	0.06
162.875	-0
163.254	1.04
163.633	-0
164.012	-0
164.391	0.5
164.77	0.22
165.149	-0.54
165.528	-0
165.907	-0.73
166.286	0.44
166.665	-0
167.044	0.23
167.423	0.33
167.802	-0.3
168.181	-0.56
168.559	-0
168.938	-0.08
169.317	0.95
169.696	-0
170.074	-0.27
170.453	-0.34
170.832	-1.71
171.21	0.65
171.589	-0.02
171.968	0.26
172.346	-0
172.725	-0.3
173.103	0.27
173.482	-0.05
173.861	-0.56
174.239	0.3
174.617	-0.18
174.996	-0
175.374	0.59
175.753	-0.74
176.131	-0
176.51	0.42
176.888	0.15
177.266	-0.01
177.645	-0.03
178.023	0.32
178.401	-0.17
178.779	0.06
179.158	-0.18
179.536	-1.13
179.914	-0
180.292	0.95
180.67	0.81
181.048	-0
181.427	-0.6
181.805	-0.17
182.183	-0
182.561	-0.18
182.939	-0
183.317	0.14
183.695	-0.09
184.073	-0
184.451	-0.05
184.829	-0.73
185.206	-0.6
185.584	-0.03
185.962	-0
186.34	-0
186.718	-1.08
187.096	-0
187.473	-0
187.851	0.27
188.229	-0
188.607	0.03
188.984	0.03
189.362	0.06
189.74	-0.08
190.117	0.09
190.495	0.02
190.872	0.1
191.25	0.05
191.627	-0
192.005	-0.09
192.382	0.11
192.76	0.17
193.137	-0.05
193.515	0
193.892	0.08
194.269	0.01
194.647	0.08
195.024	-0.04
195.401	0.02
195.779	-0.02
196.156	-0.14
196.533	0.11
196.91	-0.02
197.288	-0.02
197.665	-0.04
198.042	-0.02
198.419	0.05
198.796	-0.01
199.173	-0.01
199.55	0.02
199.927	0.04
200.304	0.04
200.681	-0.02
201.058	0.07
201.435	0.02
201.812	0.09
202.189	-0.08
202.566	-0.08
202.943	-0.03
203.32	0.11
203.697	0.03
204.073	0.06
204.45	-0.07
204.827	0.07
205.204	-0.06
205.58	0
205.957	0.09
206.334	-0.03
206.71	0.08
207.087	0.01
207.464	0.06
207.84	-0.02
208.217	0.01
208.593	-0.02
208.97	0.13
209.346	0.07
209.723	0.08
210.099	0.13
210.476	0.04
210.852	0.06
211.228	-0.05
211.605	-0.04
211.981	-0.02
212.357	-0.03
212.733	0.1
213.11	0.03
213.486	0.14
213.862	0.02
214.238	0.03
214.614	0.01
214.991	0.07
215.367	0.1
215.743	-0
216.119	-0.09
216.495	0.12
216.871	-0.1
217.247	-0.02
217.623	-0.01
217.999	0
218.375	-0.01
218.751	-0.05
219.127	-0.02
219.502	0.06
219.878	-0.06
220.254	-0.05
220.63	0.18
221.006	0.15
221.381	0
221.757	-0
222.133	-0
222.508	-0.02
222.884	-0.04
223.26	-0.01
223.635	0.05
224.011	-0.03
224.386	-0.01
224.762	0.03
225.137	0.04
225.513	0.04
225.888	0.06
226.264	0.08
226.639	-0.01
227.014	0
227.39	0.09
227.765	-0.04
228.14	-0.01
228.516	0.04
228.891	-0.03
229.266	-0.07
229.641	0.11
230.017	0.04
230.392	0.03
230.767	-0.02
231.142	-0.02
231.517	0.05
231.892	-0.02
232.267	0.05
232.642	-0.01
233.017	0.03
233.392	-0.03
233.767	0.02
234.142	-0
234.517	0
234.892	0.04
235.267	-0
235.641	0.04
236.016	0.02
236.391	0.09
236.766	-0.01
237.14	-0.02
237.515	-0.04
237.89	0.04
238.264	0.03
238.639	-0.02
239.014	0
239.388	-0.04
239.763	-0.03
240.137	-0.02
240.512	-0.03
240.886	0.08
241.261	-0.04
241.635	0.09
242.009	-0.02
242.384	0.04
242.758	0.06
243.132	0.08
243.507	0.02
243.881	-0
244.255	0.07
244.629	-0.03
245.004	0.02
245.378	0.11
245.752	-0.09
246.126	0.02
246.5	-0
246.874	-0.01
247.248	-0.02
247.622	0.12
247.996	-0.03
248.37	-0.05
248.744	-0.03
249.118	0.01
249.492	-0.09
249.866	-0.02
250.24	0.09
250.613	0.03
250.987	0.01
251.361	-0.01
251.735	0.03
252.108	-0.03
252.482	0.02
252.856	0.09
253.229	0.08
253.603	0.09
253.977	0.06
254.35	0.07
254.724	0.02
255.097	0.03
255.471	0.06
255.844	0.06
256.218	0.09
256.591	0.06
256.964	0.05
257.338	0.06
257.711	0.09
258.084	0.05
258.458	-0.01
258.831	0.02
259.204	-0.06
259.577	-0.01
259.95	0.03
260.323	0.04
260.697	0.03
261.07	0.07
261.443	0.02
261.816	-0
262.189	0.05
262.562	0.02
262.935	0.02
263.308	0.07
263.68	0.15
264.053	0.05
264.426	0.08
264.799	-0.01
265.172	0.03
265.545	0.11
265.917	-0.07
266.29	0.08
266.663	0.05
267.035	0.01
267.408	0.14
267.781	0.02
268.153	0.06
268.526	0.05
268.898	-0
269.271	0.06
269.643	-0.01
270.016	0.04
270.388	0.04
270.76	0.01
271.133	0.03
271.505	0.01
271.877	-0.03
272.25	-0.02
272.622	0.01
272.994	0.06
273.366	0.04
273.739	0.04
274.111	0.03
274.483	0.03
274.855	-0.05
275.227	0.02
275.599	0.07
275.971	0.01
276.343	0.07
276.715	-0.01
277.087	0.09
277.459	0.06
277.831	0.06
278.203	0.03
278.574	0.04
278.946	-0.05
279.318	-0.01
279.69	0.05
280.061	0.05
280.433	0.06
280.805	0.03
281.176	0.02
281.548	0.05
281.92	0.08
282.291	0.05
282.663	0.03
283.034	0.05
283.406	0.03
283.777	0.01
284.148	0.04
284.52	0.03
284.891	0.05
285.262	0.04
285.634	0.02
286.005	-0.01
286.376	0.02
286.747	-0.03
287.119	0.06
287.49	0.08
287.861	0.03
288.232	0.04
288.603	0.02
288.974	0.08
289.345	0.01
289.716	0.05
290.087	-0.06
290.458	-0.01
290.829	0.05
291.2	0.02
291.571	-0.04
291.941	0.06
292.312	-0.03
292.683	0.03
293.054	-0
293.424	-0.07
293.795	0.02
294.166	0.06
294.536	0
294.907	0.05
295.277	-0
295.648	-0.02
296.018	0.01
296.389	0.02
296.759	-0.02
297.13	0.07
297.5	-0.03
297.871	0.01
298.241	0.03
298.611	0.01
298.981	0.02
299.352	-0
299.722	0.01
300.092	0
300.462	0.01
300.832	-0.01
301.202	-0.01
301.573	0
301.943	-0
302.313	-0.02
302.683	-0.04
303.053	-0.02
303.422	-0.02
303.792	-0
304.162	-0.01
304.532	-0
304.902	-0.01
305.272	-0.01
305.641	-0.01
306.011	-0.02
306.381	-0.01
306.75	-0.01
307.12	-0.01
307.49	-0
307.859	-0.01
308.229	-0
308.598	-0.01
308.968	-0.01
309.337	-0
309.707	-0
310.076	-0
310.445	0
310.815	-0
311.184	-0
311.553	0
311.923	-0
312.292	-0
312.661	0
313.03	-0
313.399	-0
313.768	-0
314.137	0
314.506	-0
314.875	0
315.244	-0
315.613	0.01
315.982	-0
316.351	0
316.72	0
317.089	-0.01
317.458	0
317.826	-0
318.195	-0
318.564	0
318.933	0
319.301	-0
319.67	-0.01
320.038	0
320.407	-0
320.775	0
321.144	0.01
321.512	0
321.881	0
322.249	0
322.618	0
322.986	0.01
323.354	0.01
323.723	0
324.091	0.01
324.459	0
324.827	0
325.195	0.01
325.564	0.01
325.932	0.01
326.3	0.01
326.668	0.01
327.036	-0
327.404	0
327.772	0
328.14	0
328.508	-0
328.875	-0
329.243	0
329.611	-0
329.979	0.01
330.346	0.01
330.714	0.01
331.082	0.01
331.449	0
331.817	0
332.185	0
332.552	0
332.92	0
333.287	-0
333.655	0
334.022	-0
334.389	-0
334.757	0
335.124	0.01
335.491	0.01
335.859	0.01
336.226	0.01
336.593	0.01
336.96	0.01
337.327	0.01
337.695	0.01
338.062	0.01
338.429	0.01
338.796	0.01
339.163	0.01
339.53	0.01
339.897	0.01
340.263	0.01
340.63	0.01
340.997	0.01
341.364	0.01
341.731	0.01
342.097	0.01
342.464	0.01
342.831	0.02
343.197	0.02
343.564	0.02
343.931	0.02
344.297	0.02
344.664	0.02
345.03	0.02
345.396	0.02
345.763	0.02
346.129	0.02
346.496	0.02
346.862	0.02
347.228	0.02
347.594	0.02
347.961	0.02
348.327	0.02
348.693	0.02
349.059	0.02
349.425	0.02
349.791	0.02
350.157	0.02
350.523	0.02
350.889	0.02
351.255	0.02
351.621	0.02
351.987	0.03
352.353	0.03
352.719	0.03
353.084	0.03
353.45	0.03
353.816	0.03
354.181	0.03
354.547	0.03
354.913	0.03
355.278	0.03
355.644	0.03
356.009	0.03
356.375	0.03
356.74	0.04
357.106	0.04
357.471	0.03
357.836	0.04
358.202	0.04
358.567	0.04
358.932	0.04
359.297	0.04
359.663	0.04
360.028	0.04
360.393	0.04
360.758	0.04
361.123	0.04
361.488	0.04
361.853	0.04
362.218	0.05
362.583	0.05
362.948	0.05
363.312	0.05
363.677	0.05
364.042	0.05
364.407	0.05
364.772	0.05
365.136	0.05
365.501	0.06
365.865	0.05
366.23	0.05
366.595	0.06
366.959	0.06
367.324	0.06
367.688	0.06
368.052	0.07
368.417	0.07
368.781	0.06
369.145	0.06
369.51	0.06
369.874	0.07
370.238	0.07
370.602	0.07
370.967	0.07
371.331	0.07
371.695	0.07
372.059	0.07
372.423	0.07
372.787	0.07
373.151	0.07
373.515	0.07
373.878	0.07
374.242	0.07
374.606	0.07
374.97	0.07
375.334	0.07
375.697	0.07
376.061	0.07
376.425	0.07
376.788	0.07
377.152	0.07
377.515	0.08
377.879	0.07
378.242	0.08
378.606	0.07
378.969	0.08
379.333	0.08
379.696	0.08
380.059	0.08
380.422	0.08
380.786	0.08
381.149	0.08
381.512	0.08
381.875	0.09
382.238	0.09
382.601	0.09
382.964	0.09
383.327	0.1
383.69	0.09
384.053	0.1
384.416	0.1
384.779	0.1
385.142	0.11
385.504	0.11
385.867	0.11
386.23	0.11
386.593	0.11
386.955	0.11
387.318	0.12
387.68	0.11
388.043	0.11
388.405	0.12
388.768	0.11
389.13	0.11
389.493	0.11
389.855	0.11
390.217	0.11
390.58	0.11
390.942	0.11
391.304	0.12
391.666	0.11
392.028	0.11
392.391	0.12
392.753	0.12
393.115	0.13
393.477	0.13
393.839	0.13
394.201	0.14
394.563	0.14
394.924	0.15
395.286	0.16
395.648	0.16
396.01	0.16
396.371	0.18
396.733	0.18
397.095	0.18
397.456	0.18
397.818	0.18
398.18	0.18
398.541	0.18
398.903	0.18
399.264	0.17
399.625	0.16
399.987	0.15
400.348	0.15
400.709	0.14
401.071	0.14
401.432	0.13
401.793	0.12
402.154	0.12
402.515	0.11
402.876	0.1
403.238	0.1
403.599	0.09
403.96	0.09
404.32	0.08
404.681	0.08
405.042	0.07
405.403	0.07
405.764	0.06
406.125	0.06
406.485	0.06
406.846	0.06
407.207	0.05
407.567	0.05
407.928	0.05
408.288	0.05
408.649	0.04
409.009	0.05
409.37	0.04
409.73	0.04
410.091	0.04
410.451	0.04
410.811	0.03
411.171	0.04
411.532	0.04
411.892	0.03
412.252	0.03
412.612	0.03
412.972	0.04
413.332	0.03
413.692	0.03
414.052	0.03
414.412	0.03
414.772	0.03
415.132	0.03
415.492	0.03
415.851	0.04
416.211	0.03
416.571	0.03
416.931	0.03
417.29	0.03
417.65	0.03
418.009	0.03
418.369	0.02
418.728	0.03
419.088	0.03
419.447	0.03
419.807	0.03
420.166	0.02
420.525	0.02
420.884	0.02
421.244	0.03
421.603	0.02
421.962	0.03
422.321	0.03
422.68	0.02
423.039	0.02
423.398	0.02
423.757	0.03
424.116	0.02
424.475	0.02
424.834	0.02
425.193	0.03
425.551	0.03
425.91	0.03
426.269	0.03
426.628	0.02
426.986	0.02
427.345	0.02
427.703	0.02
428.062	0.03
428.42	0.03
428.779	0.02
429.137	0.03
429.496	0.02
429.854	0.02
430.212	0.03
430.57	0.02
430.929	0.03
431.287	0.02
431.645	0.03
432.003	0.02
432.361	0.02
432.719	0.03
433.077	0.02
433.435	0.02
433.793	0.02
434.151	0.03
434.509	0.02
434.866	0.02
435.224	0.03
435.582	0.02
435.94	0.03
436.297	0.03
436.655	0.03
437.012	0.02
437.37	0.03
437.727	0.02
438.085	0.02
438.442	0.02
438.8	0.02
439.157	0.03
439.514	0.03
439.872	0.02
440.229	0.02
440.586	0.02
440.943	0.02
441.3	0.02
441.657	0.02
442.014	0.02
442.371	0.02
442.728	0.02
443.085	0.03
443.442	0.02
443.799	0.02
444.156	0.02
444.513	0.02
444.869	0.01
445.226	0.02
445.583	0.01
445.939	0.02
446.296	0.02
446.652	0.01
447.009	0.02
447.365	0.01
447.722	0.03
448.078	0.02
448.434	0.01
448.791	0.01
449.147	0.02
449.503	0.01
449.859	0.01
450.215	0.02
450.571	0.01
450.928	0.02
451.284	0.02
451.64	0.01
451.995	0.02
452.351	0.01
452.707	0.01
453.063	0.01
453.419	0.01
453.775	0.02
454.13	0.01
454.486	0
454.842	0.01
455.197	0
455.553	0.01
455.908	-0
456.264	-0
456.619	0
456.975	-0
457.33	-0.01
457.685	-0.01
458.04	-0.01
458.396	-0.01
458.751	-0.01
459.106	-0.01
459.461	-0.02
459.816	-0.02
460.171	-0.02
460.526	-0.02
460.881	-0.03
461.236	-0.03
461.591	-0.02
461.946	-0.04
462.301	-0.03
462.655	-0.03
463.01	-0.04
463.365	-0.03
463.719	-0.04
464.074	-0.05
464.428	-0.06
464.783	-0.05
465.137	-0.06
465.492	-0.05
465.846	-0.06
466.201	-0.06
466.555	-0.06
466.909	-0.06
467.263	-0.05
467.618	-0.06
467.972	-0.05
468.326	-0.05
468.68	-0.06
469.034	-0.06
469.388	-0.06
469.742	-0.07
470.096	-0.07
470.45	-0.06
470.804	-0.06
471.157	-0.06
471.511	-0.06
471.865	-0.07
472.218	-0.06
472.572	-0.06
472.926	-0.06
473.279	-0.06
473.633	-0.05
473.986	-0.05
474.34	-0.05
474.693	-0.05
475.046	-0.05
475.4	-0.04
475.753	-0.04
476.106	-0.04
476.459	-0.03
476.812	-0.03
477.165	-0.03
477.519	-0.02
477.872	-0.03
478.224	-0.02
478.577	-0.02
478.93	-0.02
479.283	-0.01
479.636	-0.01
479.989	-0.01
480.341	-0.01
480.694	-0.01
481.047	-0.01
481.399	-0.01
481.752	-0
482.104	-0
482.457	-0
482.809	-0
483.162	0
483.514	0
483.866	0
484.219	0
484.571	0
484.923	0.01
485.275	0
485.627	0.01
485.979	0.01
486.331	0.01
486.683	0.01
487.035	0.01
487.387	0.01
487.739	0.01
488.091	0.01
488.443	0.02
488.794	0.02
489.146	0.02
489.498	0.02
489.849	0.02
490.201	0.02
490.552	0.02
490.904	0.02
491.255	0.01
491.607	0.02
491.958	0.02
492.309	0.02
492.661	0.02
493.012	0.02
493.363	0.02
493.714	0.02
494.065	0.02
494.416	0.02
494.767	0.02
495.118	0.02
495.469	0.02
495.82	0.02
496.171	0.02
496.522	0.02
496.872	0.03
497.223	0.02
497.574	0.02
497.924	0.03
498.275	0.03
498.626	0.03
498.976	0.03
499.327	0.03
499.677	0.03
500.027	0.03
500.378	0.03
500.728	0.03
501.078	0.03
501.428	0.03
501.779	0.03
502.129	0.03
502.479	0.02
502.829	0.03
503.179	0.03
503.529	0.03
503.879	0.03
504.229	0.03
504.578	0.03
504.928	0.03
505.278	0.03
505.628	0.03
505.977	0.03
506.327	0.03
506.676	0.03
507.026	0.03
507.375	0.03
507.725	0.03
508.074	0.04
508.424	0.03
508.773	0.04
509.122	0.03
509.471	0.03
509.82	0.04
510.17	0.03
510.519	0.03
510.868	0.04
511.217	0.04
511.566	0.04
511.915	0.03
512.263	0.03
512.612	0.04
512.961	0.04
513.31	0.03
513.659	0.04
514.007	0.04
514.356	0.03
514.704	0.03
515.053	0.04
515.401	0.04
515.75	0.04
516.098	0.04
516.447	0.04
516.795	0.04
517.143	0.04
517.491	0.03
517.839	0.04
518.188	0.03
518.536	0.04
518.884	0.04
519.232	0.04
519.58	0.04
519.928	0.04
520.275	0.04
520.623	0.04
520.971	0.04
521.319	0.04
521.666	0.04
522.014	0.04
522.362	0.04
522.709	0.04
523.057	0.04
523.404	0.04
523.752	0.04
524.099	0.04
524.446	0.04
524.794	0.04
525.141	0.04
525.488	0.04
525.835	0.04
526.182	0.04
526.529	0.04
526.876	0.04
527.223	0.04
527.57	0.04
527.917	0.04
528.264	0.05
528.611	0.04
528.958	0.04
529.304	0.04
529.651	0.04
529.998	0.04
530.344	0.04
530.691	0.04
531.037	0.04
531.384	0.05
531.73	0.05
532.076	0.05
532.423	0.04
532.769	0.05
533.115	0.05
533.461	0.05
533.807	0.05
534.154	0.05
534.5	0.05
534.846	0.05
535.192	0.05
535.537	0.04
535.883	0.05
536.229	0.05
536.575	0.04
536.921	0.05
537.266	0.05
537.612	0.05
537.957	0.05
538.303	0.05
538.649	0.05
538.994	0.05
539.339	0.05
539.685	0.05
540.03	0.05
540.375	0.05
540.721	0.05
541.066	0.05
541.411	0.05
541.756	0.05
542.101	0.06
542.446	0.05
542.791	0.05
543.136	0.05
543.481	0.05
543.825	0.06
544.17	0.05
544.515	0.05
544.86	0.05
545.204	0.05
545.549	0.05
545.893	0.06
546.238	0.05
546.582	0.06
546.927	0.05
547.271	0.06
547.615	0.06
547.96	0.05
548.304	0.05
548.648	0.06
548.992	0.05
549.336	0.05
549.68	0.05
550.024	0.06
550.368	0.06
550.712	0.06
551.056	0.06
551.4	0.06
551.743	0.06
552.087	0.06
552.431	0.06
552.774	0.06
553.118	0.06
553.462	0.06
553.805	0.06
554.148	0.06
554.492	0.06
554.835	0.06
555.178	0.06
555.522	0.06
555.865	0.06
556.208	0.06
556.551	0.06
556.894	0.06
557.237	0.06
557.58	0.06
557.923	0.06
558.266	0.06
558.609	0.06
558.952	0.06
559.294	0.06
559.637	0.06
559.98	0.06
560.322	0.06
560.665	0.06
561.007	0.06
561.35	0.06
561.692	0.06
562.034	0.05
562.377	0.06
562.719	0.06
563.061	0.06
563.403	0.06
563.745	0.06
564.088	0.06
564.43	0.07
564.772	0.06
565.113	0.06
565.455	0.06
565.797	0.06
566.139	0.07
566.481	0.07
566.822	0.06
567.164	0.06
567.506	0.06
567.847	0.07
568.189	0.07
568.53	0.06
568.872	0.06
569.213	0.06
569.554	0.06
569.895	0.06
570.237	0.06
570.578	0.06
570.919	0.06
571.26	0.06
571.601	0.06
571.942	0.07
572.283	0.06
572.624	0.06
572.965	0.06
573.306	0.06
573.646	0.06
573.987	0.06
574.328	0.06
574.668	0.06
575.009	0.06
575.349	0.06
575.69	0.06
576.03	0.06
576.37	0.06
576.711	0.06
577.051	0.06
577.391	0.06
577.731	0.06
578.072	0.06
578.412	0.06
578.752	0.06
579.092	0.06
579.431	0.06
579.771	0.05
580.111	0.05
580.451	0.06
580.791	0.06
581.13	0.06
581.47	0.06
581.81	0.06
582.149	0.06
582.489	0.06
582.828	0.06
583.167	0.06
583.507	0.05
583.846	0.03
584.185	0.04
584.525	0.05
584.864	0.06
585.203	0.06
585.542	0.06
585.881	0.06
586.22	0.06
586.559	0.06
586.898	0.06
587.236	0.06
587.575	0.06
587.914	0.06
588.252	0.06
588.591	0.07
588.93	0.06
589.268	0.06
589.607	0.06
589.945	0.06
590.283	0.07
590.622	0.07
590.96	0.07
591.298	0.07
591.636	0.07
591.974	0.07
592.313	0.07
592.651	0.07
592.989	0.07
593.326	0.07
593.664	0.07
594.002	0.07
594.34	0.07
594.678	0.06
595.015	0.06
595.353	0.06
595.691	0.07
596.028	0.07
596.366	0.07
596.703	0.07
597.04	0.07
597.378	0.07
597.715	0.07
598.052	0.07
598.389	0.07
598.726	0.07
599.064	0.07
599.401	0.07
599.738	0.07
600.074	0.07
600.411	0.07
600.748	0.07
601.085	0.07
601.422	0.07
601.758	0.07
602.095	0.07
602.432	0.07
602.768	0.07
603.105	0.07
603.441	0.07
603.777	0.08
604.114	0.07
604.45	0.07
604.786	0.07
605.122	0.07
605.459	0.07
605.795	0.07
606.131	0.07
606.467	0.07
606.803	0.07
607.139	0.07
607.474	0.07
607.81	0.07
608.146	0.07
608.482	0.07
608.817	0.07
609.153	0.07
609.488	0.07
609.824	0.07
610.159	0.07
610.495	0.07
610.83	0.07
611.165	0.07
611.5	0.07
611.836	0.07
612.171	0.07
612.506	0.07
612.841	0.07
613.176	0.07
613.511	0.07
613.845	0.07
614.18	0.07
614.515	0.07
614.85	0.07
615.184	0.07
615.519	0.07
615.854	0.07
616.188	0.07
616.523	0.07
616.857	0.06
617.191	0.06
617.526	0.07
617.86	0.07
618.194	0.07
618.528	0.07
618.862	0.07
619.196	0.07
619.53	0.07
619.864	0.06
620.198	0.06
620.532	0.07
620.866	0.06
621.2	0.07
621.533	0.06
621.867	0.07
622.201	0.07
622.534	0.07
622.868	0.07
623.201	0.07
623.534	0.07
623.868	0.07
624.201	0.07
624.534	0.07
624.868	0.07
625.201	0.07
625.534	0.07
625.867	0.07
626.2	0.07
626.533	0.07
626.865	0.07
627.198	0.07
627.531	0.07
627.864	0.06
628.196	0.06
628.529	0.06
628.862	0.06
629.194	0.06
629.527	0.06
629.859	0.06
630.191	0.06
630.524	0.06
630.856	0.06
631.188	0.06
631.52	0.06
631.852	0.06
632.184	0.06
632.516	0.06
632.848	0.05
633.18	0.06
633.512	0.06
633.844	0.06
634.175	0.06
634.507	0.05
634.839	0.06
635.17	0.06
635.502	0.06
635.833	0.06
636.165	0.06
636.496	0.06
636.827	0.06
637.159	0.06
637.49	0.06
637.821	0.05
638.152	0.05
638.483	0.05
638.814	0.05
639.145	0.05
639.476	0.06
639.807	0.06
640.137	0.05
640.468	0.06
640.799	0.05
641.129	0.05
641.46	0.05
641.791	0.05
642.121	0.05
642.451	0.05
642.782	0.05
643.112	0.05
643.442	0.05
643.773	0.05
644.103	0.05
644.433	0.05
644.763	0.05
645.093	0.05
645.423	0.05
645.753	0.05
646.082	0.05
646.412	0.05
646.742	0.05
647.072	0.05
647.401	0.05
647.731	0.05
648.06	0.05
648.39	0.05
648.719	0.04
649.048	0.05
649.378	0.05
649.707	0.05
650.036	0.05
650.365	0.05
650.694	0.05
651.023	0.05
651.352	0.05
651.681	0.06
652.01	0.06
652.339	0.06
652.668	0.05
652.996	0.06
653.325	0.05
653.654	0.05
653.982	0.05
654.311	0.05
654.639	0.05
654.967	0.05
655.296	0.05
655.624	0.05
655.952	0.05
656.28	0.05
656.609	0.05
656.937	0.05
657.265	0.04
657.593	0.04
657.92	0
658.248	0
658.576	0
658.904	0
659.231	0.02
659.559	0.05
659.887	0.05
660.214	0.05
660.542	0.05
660.869	0.05
661.196	0.05
661.524	0.05
661.851	0.05
662.178	0.05
662.505	0.05
662.832	0.05
663.159	0.05
663.486	0.05
663.813	0.05
664.14	0.05
664.467	0.05
664.794	0.05
665.12	0.05
665.447	0.05
665.774	0.05
666.1	0.05
666.427	0.05
666.753	0.05
667.079	0.05
667.406	0.05
667.732	0.05
668.058	0.05
668.384	0.05
668.71	0.05
669.036	0.05
669.362	0.05
669.688	0.05
670.014	0.05
670.34	0.06
670.666	0.05
670.991	0.05
671.317	0.05
671.643	0.05
671.968	0.05
672.294	0.05
672.619	0.05
672.945	0.05
673.27	0.05
673.595	0.05
673.92	0.04
674.246	0.04
674.571	0.05
674.896	0.04
675.221	0.05
675.546	0.04
675.87	0.04
676.195	0.04
676.52	0.04
676.845	0.04
677.169	0.04
677.494	0.05
677.819	0.05
678.143	0.05
678.468	0.05
678.792	0.04
679.116	0.05
679.44	0.05
679.765	0.04
680.089	0.04
680.413	0.04
680.737	0.05
681.061	0.05
681.385	0.05
681.709	0.04
682.033	0.04
682.356	0.04
682.68	0.04
683.004	0.04
683.327	0.04
683.651	0.04
683.974	0.04
684.298	0.04
684.621	0.04
684.944	0.04
685.268	0.04
685.591	0.04
685.914	0.03
686.237	0.04
686.56	0.04
686.883	0.04
687.206	0.04
687.529	0.04
687.852	0.04
688.175	0.04
688.497	0.04
688.82	0.04
689.142	0.04
689.465	0.04
689.787	0.04
690.11	0.04
690.432	0.03
690.755	0.04
691.077	0.03
691.399	0.03
691.721	0.03
692.043	0.03
692.365	0.03
692.687	0.03
693.009	0.03
693.331	0.03
693.653	0.03
693.974	0.03
694.296	0.03
694.618	0.03
694.939	0.03
695.261	0.03
695.582	0.03
695.904	0.03
696.225	0.03
696.546	0.03
696.868	0.03
697.189	0.03
697.51	0.04
697.831	0.04
698.152	0.03
698.473	0.03
698.794	0.03
699.114	0.03
699.435	0.03
699.756	0.03
700.077	0.03
700.397	0.04
700.718	0.04
701.038	0.04
701.359	0.03
701.679	0.03
701.999	0.03
702.32	0.03
702.64	0.03
702.96	0.03
703.28	0.03
703.6	0.03
703.92	0.03
704.24	0.04
704.56	0.04
704.879	0.04
705.199	0.04
705.519	0.03
705.838	0.03
706.158	0.03
706.478	0.03
706.797	0.03
707.116	0.03
707.436	0.04
707.755	0.03
708.074	0.03
708.393	0.03
708.712	0.03
709.031	0.03
709.35	0.03
709.669	0.03
709.988	0.03
710.307	0.03
710.626	0.03
710.944	0.03
711.263	0.03
711.582	0.03
711.9	0.03
712.219	0.03
712.537	0.03
712.855	0.03
713.174	0.03
713.492	0.03
713.81	0.03
714.128	0.03
714.446	0.03
714.764	0.03
715.082	0.03
715.4	0.03
715.718	0.03
716.035	0.03
716.353	0.03
716.671	0.03
716.988	0.03
717.306	0.02
717.623	0.03
717.941	0.03
718.258	0.03
718.575	0.03
718.893	0.03
719.21	0.02
719.527	0.02
719.844	0.03
720.161	0.03
720.478	0.03
720.795	0.03
721.112	0.03
721.428	0.03
721.745	0.03
722.062	0.03
722.378	0.03
722.695	0.03
723.011	0.03
723.328	0.03
723.644	0.03
723.96	0.03
724.276	0.03
724.593	0.03
724.909	0.03
725.225	0.03
725.541	0.03
725.857	0.03
726.173	0.03
726.488	0.03
726.804	0.03
727.12	0.03
727.435	0.03
727.751	0.03
728.067	0.03
728.382	0.03
728.697	0.03
729.013	0.03
729.328	0.03
729.643	0.03
729.958	0.03
730.273	0.03
730.588	0.03
730.903	0.03
731.218	0.03
731.533	0.03
731.848	0.03
732.163	0.03
732.477	0.03
732.792	0.03
733.107	0.03
733.421	0.03
733.736	0.03
734.05	0.03
734.364	0.03
734.678	0.03
734.993	0.03
735.307	0.03
735.621	0.03
735.935	0.03
736.249	0.03
736.563	0.03
736.877	0.03
737.19	0.03
737.504	0.03
737.818	0.03
738.131	0.04
738.445	0.04
738.758	0.04
739.072	0.04
739.385	0.04
739.698	0.04
740.012	0.04
740.325	0.04
740.638	0.04
740.951	0.04
741.264	0.04
741.577	0.04
741.89	0.04
742.203	0.03
742.515	0.04
742.828	0.04
743.141	0.04
743.453	0.05
743.766	0.04
744.078	0.04
744.391	0.04
744.703	0.03
745.015	0.03
745.327	0.03
745.639	0.03
745.952	0.03
746.264	0.03
746.575	0.03
746.887	0.02
747.199	0.02
747.511	0.02
747.823	0.02
748.134	0.03
748.446	0.03
748.757	0.03
749.069	0.02
749.38	0.02
749.692	0.02
750.003	0.02
750.314	0.03
750.625	0.03
750.936	0.03
751.248	0.03
751.559	0.03
751.869	0.03
752.18	0.03
752.491	0.03
752.802	0.03
753.112	0.03
753.423	0.03
753.734	0.02
754.044	0.03
754.355	0.03
754.665	0.03
754.975	0.03
755.285	0.03
755.596	0.03
755.906	0.03
756.216	0.03
756.526	0.03
756.836	0.03
757.146	0.03
757.455	0.03
757.765	0.03
758.075	0.03
758.385	0.03
758.694	0.03
759.004	0.03
759.313	0.03
759.622	0.03
759.932	0.03
760.241	0.03
760.55	0.03
760.859	0.02
761.168	0.02
761.477	0.02
761.786	0.03
762.095	0.02
762.404	0.02
762.713	0.02
763.021	0.02
763.33	0.02
763.639	0.02
763.947	0.02
764.256	0.02
764.564	0.02
764.872	0.02
765.181	0.02
765.489	0.02
765.797	0.02
766.105	0.02
766.413	0.03
766.721	0.03
767.029	0.03
767.337	0.03
767.644	0.03
767.952	0.02
768.26	0.02
768.567	0.02
768.875	0.02
769.182	0.03
769.49	0.02
769.797	0.02
770.104	0.02
770.411	0.03
770.718	0.03
771.026	0.03
771.333	0.02
771.639	0.03
771.946	0.02
772.253	0.02
772.56	0.02
772.867	0.02
773.173	0.02
773.48	0.02
773.786	0.02
774.093	0.02
774.399	0.02
774.705	0.03
775.012	0.03
775.318	0.02
775.624	0.03
775.93	0.02
776.236	0.03
776.542	0.02
776.848	0.03
777.154	0.02
777.459	0.02
777.765	0.02
778.071	0.02
778.376	0.02
778.682	0.02
778.987	0.03
779.292	0.02
779.598	0.02
779.903	0.02
780.208	0.03
780.513	0.02
780.818	0.02
781.123	0.03
781.428	0.03
781.733	0.03
782.038	0.03
782.343	0.03
782.647	0.03
782.952	0.03
783.256	0.03
783.561	0.03
783.865	0.03
784.17	0.03
784.474	0.03
784.778	0.03
785.082	0.03
785.386	0.03
785.69	0.03
785.994	0.03
786.298	0.03
786.602	0.03
786.906	0.03
787.209	0.03
787.513	0.03
787.817	0.03
788.12	0.03
788.424	0.03
788.727	0.03
789.03	0.02
789.333	0.02
789.637	0.02
789.94	0.02
790.243	0.02
790.546	0.03
790.849	0.02
791.152	0.03
791.454	0.03
791.757	0.03
792.06	0.03
792.362	0.02
792.665	0.03
792.967	0.03
793.27	0.03
793.572	0.03
793.874	0.03
794.177	0.04
794.479	0.03
794.781	0.03
795.083	0.03
795.385	0.02
795.687	0.02
795.989	0.02
796.29	0.03
796.592	0.03
796.894	0.02
797.195	0.02
797.497	0.02
797.798	0.02
798.1	0.01
798.401	0.01
798.702	0.01
799.003	0.01
799.304	0.01
799.605	0.02
799.906	0.02
800.207	0.02
800.508	0.02
800.809	0.02
801.11	0.03
801.41	0.03
801.711	0.03
802.011	0.03
802.312	0.03
802.612	0.02
802.913	0.02
803.213	0.02
803.513	0.02
803.813	0.02
804.113	0.03
804.413	0.03
804.713	0.03
805.013	0.03
805.313	0.04
805.613	0.03
805.912	0.03
806.212	0.03
806.511	0.03
806.811	0.03
807.11	0.03
807.41	0.02
807.709	0.03
808.008	0.03
808.307	0.02
808.606	0.03
808.905	0.02
809.204	0.03
809.503	0.03
809.802	0.02
810.101	0.03
810.399	0.03
810.698	0.02
810.997	0.03
811.295	0.02
811.593	0.02
811.892	0.02
812.19	0.02
812.488	0.02
812.786	0.02
813.084	0.03
813.383	0.03
813.68	0.03
813.978	0.03
814.276	0.03
814.574	0.04
814.872	0.04
815.169	0.04
815.467	0.03
815.764	0.04
816.062	0.04
816.359	0.04
816.656	0.04
816.954	0.03
817.251	0.02
817.548	0.03
817.845	0.03
818.142	0.03
818.439	0.03
818.735	0.03
819.032	0.02
819.329	0.03
819.626	0.03
819.922	0.04
820.219	0.04
820.515	0.04
820.811	0.04
821.108	0.03
821.404	0.03
821.7	0.04
821.996	0.04
822.292	0.04
822.588	0.04
822.884	0.03
823.18	0.03
823.475	0.04
823.771	0.04
824.067	0.03
824.362	0.02
824.658	0.03
824.953	0.03
825.249	0.03
825.544	0.03
825.839	0.03
826.134	0.03
826.429	0.04
826.724	0.03
827.019	0.03
827.314	0.03
827.609	0.03
827.904	0.03
828.198	0.04
828.493	0.03
828.787	0.03
829.082	0.03
829.376	0.04
829.671	0.04
829.965	0.03
830.259	0.04
830.553	0.04
830.847	0.03
831.141	0.03
831.435	0.03
831.729	0.03
832.023	0.03
832.317	0.02
832.61	0.02
832.904	0.02
833.197	0.03
833.491	0.03
833.784	0.03
834.077	0.03
834.371	0.04
834.664	0.03
834.957	0.04
835.25	0.03
835.543	0.04
835.836	0.03
836.129	0.03
836.421	0.03
836.714	0.03
837.007	0.04
837.299	0.04
837.592	0.04
837.884	0.03
838.177	0.04
838.469	0.04
838.761	0.03
839.053	0.04
839.345	0.04
839.637	0.04
839.929	0.04
840.221	0.04
840.513	0.04
840.805	0.03
841.096	0.04
841.388	0.05
841.68	0.05
841.971	0.04
842.262	0.03
842.554	0.04
842.845	0.03
843.136	0.04
843.427	0.03
843.718	0.03
844.009	0.04
844.3	0.04
844.591	0.04
844.882	0.04
845.173	0.04
845.463	0.05
845.754	0.06
846.044	0.04
846.335	0.04
846.625	0.04
846.915	0.04
847.206	0.03
847.496	0.03
847.786	0.03
848.076	0.02
848.366	0.03
848.656	0.04
848.945	0.04
849.235	0.03
849.525	0.04
849.814	0.03
850.104	0.03
850.393	0.03
850.683	0.03
850.972	0.02
851.261	0.02
851.551	0.02
851.84	0.03
852.129	0.03
852.418	0.03
852.707	0.03
852.995	0.03
853.284	0.02
853.573	0.03
853.862	0.03
854.15	0.05
854.439	0.04
854.727	0.04
855.015	0.03
855.304	0.03
855.592	0.04
855.88	0.03
856.168	0.01
856.456	0.03
856.744	0.04
857.032	0.04
857.32	0.04
857.607	0.04
857.895	0.04
858.183	0.04
858.47	0.03
858.757	0.04
859.045	0.04
859.332	0.04
859.619	0.03
859.907	0.03
860.194	0.03
860.481	0.03
860.768	0.04
861.054	0.04
861.341	0.05
861.628	0.05
861.915	0.05
862.201	0.05
862.488	0.01
862.774	0.03
863.061	0.02
863.347	0.04
863.633	-0
863.919	0
864.205	0.01
864.491	0.02
864.777	0.01
865.063	0.02
865.349	0
865.635	0.02
865.92	0.02
866.206	0.02
866.492	0.01
866.777	0.05
867.062	0.02
867.348	0.04
867.633	0.05
867.918	0.03
868.203	0
868.488	0.05
868.773	0.01
869.058	0.01
869.343	0.04
869.628	0.03
869.912	0.03
870.197	0.01
870.482	0.01
870.766	0.03
871.05	0.02
871.335	0.01
871.619	0.04
871.903	0
872.187	0.02
872.471	-0.01
872.755	0.01
873.039	0.02
873.323	-0.02
873.607	0.03
873.89	-0.03
874.174	0.01
874.458	-0.01
874.741	-0.01
875.024	-0.02
875.308	0.02
875.591	-0.02
875.874	0.03
876.157	0
876.44	-0.03
876.723	0.02
877.006	0.04
877.289	0.05
877.572	0.02
877.854	0.02
878.137	0.04
878.42	-0.01
878.702	-0
878.984	-0
879.267	-0
879.549	0.02
879.831	-0.01
880.113	-0.01
880.395	0.03
880.677	0.01
880.959	0.11
