Data from Rubpy_EV_900_EDTA_Absorbance_12-22-08-096.txt Node
Date: Mon Jun 29 12:22:08 BST 2026
User: fpm-admin
Spectrometer: OFX00224
Trigger mode: 0
Integration Time (sec): 7.000000E-2
Scans to average: 3
Nonlinearity correction enabled: false
Boxcar width: 0
Storing dark spectrum: false
XAxis mode: Wavelengths
Number of Pixels in Spectrum: 2136
>>>>>Begin Spectral Data<<<<<
154.91	-0.14
155.289	-0
155.669	0.27
156.048	0.38
156.428	0.08
156.807	-0
157.186	0.19
157.566	-0
157.945	-0.2
158.325	0.52
158.704	-0.78
159.083	-0.11
159.462	-0
159.842	0.19
160.221	0.04
160.6	0.42
160.979	-0
161.359	-0
161.738	-0.26
162.117	-0.3
162.496	0.11
162.875	-0.17
163.254	-0.58
163.633	-0
164.012	-0.37
164.391	-0.04
164.77	-0
165.149	-0.15
165.528	-0.91
165.907	-0.93
166.286	0.2
166.665	-0
167.044	-0.11
167.423	-0
167.802	-0
168.181	-0
168.559	-0
168.938	0.09
169.317	-0
169.696	-0.07
170.074	-0.1
170.453	-0.67
170.832	-1.36
171.21	-0.18
171.589	-0
171.968	0.64
172.346	1.02
172.725	-0
173.103	1.48
173.482	0.13
173.861	-0.12
174.239	-0
174.617	0.21
174.996	0.6
175.374	-0
175.753	-0
176.131	-0.3
176.51	-0.27
176.888	0.24
177.266	0.09
177.645	-0.04
178.023	0.19
178.401	-0.19
178.779	-0.06
179.158	-0.05
179.536	-0
179.914	-0
180.292	-0
180.67	-0.05
181.048	0.41
181.427	-0.98
181.805	0.17
182.183	-0
182.561	-0
182.939	-0
183.317	-0
183.695	1.48
184.073	-0
184.451	-0.02
184.829	-0.5
185.206	-0
185.584	0.13
185.962	-0
186.34	-0
186.718	-0.82
187.096	0.38
187.473	-0
187.851	-0
188.229	-0.12
188.607	0
188.984	-0.05
189.362	-0.02
189.74	-0.07
190.117	-0
190.495	-0.03
190.872	0.07
191.25	-0.01
191.627	-0.04
192.005	-0.09
192.382	0.02
192.76	0.02
193.137	-0.04
193.515	-0.05
193.892	-0.06
194.269	-0.01
194.647	-0.04
195.024	0
195.401	0.04
195.779	0.02
196.156	-0.12
196.533	0.05
196.91	-0.05
197.288	0.03
197.665	-0.16
198.042	0.06
198.419	-0.03
198.796	-0.07
199.173	-0.05
199.55	-0.02
199.927	0.01
200.304	0.01
200.681	-0.08
201.058	0.05
201.435	0.05
201.812	0.06
202.189	-0.05
202.566	-0.05
202.943	-0.09
203.32	-0.02
203.697	-0.02
204.073	0.09
204.45	-0.03
204.827	-0.07
205.204	-0.11
205.58	-0.03
205.957	0.07
206.334	-0.08
206.71	0.01
207.087	-0.07
207.464	0.07
207.84	-0.01
208.217	0.02
208.593	0.01
208.97	0.04
209.346	0.02
209.723	0.12
210.099	-0
210.476	0.12
210.852	0
211.228	0.06
211.605	-0.06
211.981	-0.01
212.357	-0.07
212.733	0.04
213.11	0.02
213.486	0.04
213.862	-0.02
214.238	-0.01
214.614	-0
214.991	0.05
215.367	0.02
215.743	0.08
216.119	-0.08
216.495	0.04
216.871	-0.02
217.247	-0.04
217.623	-0.08
217.999	-0.02
218.375	-0.07
218.751	-0.09
219.127	-0.06
219.502	0.03
219.878	-0.06
220.254	-0.01
220.63	0.12
221.006	0.03
221.381	-0.02
221.757	0.07
222.133	-0.01
222.508	-0.05
222.884	-0.02
223.26	-0.08
223.635	-0.04
224.011	-0.05
224.386	-0.05
224.762	-0.02
225.137	-0.02
225.513	0.06
225.888	0.06
226.264	0.06
226.639	-0.03
227.014	0.03
227.39	0
227.765	0.05
228.14	-0
228.516	0.08
228.891	-0.08
229.266	-0.02
229.641	0.03
230.017	0.09
230.392	0.04
230.767	-0.05
231.142	0.03
231.517	0.05
231.892	-0.05
232.267	-0.06
232.642	0.02
233.017	-0.01
233.392	-0.03
233.767	-0.01
234.142	-0
234.517	-0.04
234.892	0.02
235.267	-0.07
235.641	0.11
236.016	0.05
236.391	0.07
236.766	0.06
237.14	-0.05
237.515	0.04
237.89	-0.04
238.264	0.03
238.639	-0.1
239.014	-0.1
239.388	-0.07
239.763	-0.03
240.137	-0.08
240.512	-0
240.886	0.01
241.261	-0.04
241.635	0.03
242.009	-0.03
242.384	-0
242.758	0.15
243.132	0.03
243.507	-0.02
243.881	0.07
244.255	0.07
244.629	-0.01
245.004	0
245.378	0.04
245.752	0.01
246.126	-0
246.5	-0.02
246.874	0.03
247.248	-0
247.622	-0.08
247.996	-0.12
248.37	-0.08
248.744	-0.07
249.118	-0.03
249.492	-0.1
249.866	-0.07
250.24	0.08
250.613	-0.03
250.987	-0.03
251.361	-0.04
251.735	-0.08
252.108	-0.04
252.482	0.01
252.856	0
253.229	0.05
253.603	0.08
253.977	0.06
254.35	0.05
254.724	0.02
255.097	0.06
255.471	0.01
255.844	0.01
256.218	0.09
256.591	0.07
256.964	0.05
257.338	-0.03
257.711	0.02
258.084	0.01
258.458	-0.04
258.831	0.05
259.204	-0.03
259.577	-0.03
259.95	0.02
260.323	0.1
260.697	0.03
261.07	0.04
261.443	0.02
261.816	0.02
262.189	0.01
262.562	0.02
262.935	0.02
263.308	0.06
263.68	0.02
264.053	0.05
264.426	-0.01
264.799	-0
265.172	-0.05
265.545	0.05
265.917	-0.04
266.29	0.05
266.663	-0.02
267.035	-0.06
267.408	-0.09
267.781	-0.03
268.153	0.06
268.526	-0.02
268.898	-0.01
269.271	0.05
269.643	-0.02
270.016	0.05
270.388	0.02
270.76	0
271.133	0.03
271.505	0.02
271.877	-0.03
272.25	0
272.622	-0.05
272.994	-0.01
273.366	0.03
273.739	0.05
274.111	0.01
274.483	-0.01
274.855	-0.09
275.227	-0.01
275.599	0.03
275.971	0.01
276.343	0.03
276.715	0.02
277.087	0.04
277.459	0.03
277.831	0.06
278.203	0.02
278.574	0.06
278.946	-0.08
279.318	-0.07
279.69	0.05
280.061	0.03
280.433	0.02
280.805	0.04
281.176	-0.02
281.548	0.03
281.92	0.04
282.291	-0.01
282.663	0.02
283.034	0.01
283.406	0.07
283.777	-0.03
284.148	-0.04
284.52	-0.03
284.891	0.05
285.262	0
285.634	0.02
286.005	-0
286.376	-0
286.747	0
287.119	0.05
287.49	0.04
287.861	0.01
288.232	0.01
288.603	-0.03
288.974	0.08
289.345	0.01
289.716	0
290.087	-0.09
290.458	-0.05
290.829	0.02
291.2	0.01
291.571	-0.01
291.941	0.08
292.312	0.02
292.683	0.04
293.054	-0.04
293.424	-0.07
293.795	0.02
294.166	0.01
294.536	0
294.907	-0.02
295.277	-0
295.648	-0.02
296.018	0.01
296.389	0.03
296.759	-0.03
297.13	0.01
297.5	-0.03
297.871	-0.03
298.241	0
298.611	0
298.981	-0.02
299.352	-0.02
299.722	0.01
300.092	-0.02
300.462	-0.02
300.832	-0.01
301.202	-0.01
301.573	-0.02
301.943	-0
302.313	-0.02
302.683	-0.05
303.053	-0.03
303.422	-0.03
303.792	-0.01
304.162	-0.01
304.532	-0.01
304.902	-0.02
305.272	-0.02
305.641	-0.02
306.011	-0.03
306.381	-0.02
306.75	-0.01
307.12	-0.01
307.49	-0.01
307.859	-0.02
308.229	-0.02
308.598	-0.01
308.968	-0.02
309.337	-0.01
309.707	-0.01
310.076	-0.01
310.445	-0.01
310.815	-0.01
311.184	-0.01
311.553	-0.01
311.923	-0.01
312.292	-0.01
312.661	-0.01
313.03	-0.01
313.399	-0.01
313.768	-0.01
314.137	-0.01
314.506	-0.01
314.875	-0.02
315.244	-0.01
315.613	-0.01
315.982	-0.01
316.351	-0.01
316.72	-0.01
317.089	-0.01
317.458	-0.01
317.826	-0.01
318.195	-0.01
318.564	-0.01
318.933	-0.01
319.301	-0.01
319.67	-0.01
320.038	-0.01
320.407	-0.01
320.775	-0.01
321.144	-0.01
321.512	-0.01
321.881	-0.01
322.249	-0.01
322.618	-0.01
322.986	-0
323.354	-0.01
323.723	-0
324.091	-0
324.459	-0
324.827	-0.01
325.195	-0
325.564	-0.01
325.932	-0
326.3	-0.01
326.668	0
327.036	-0
327.404	-0
327.772	-0
328.14	-0.01
328.508	-0
328.875	-0.01
329.243	-0.01
329.611	0
329.979	0
330.346	0
330.714	0
331.082	-0
331.449	-0
331.817	-0
332.185	-0
332.552	-0
332.92	-0.01
333.287	-0.01
333.655	-0.01
334.022	-0.01
334.389	-0.01
334.757	-0.01
335.124	-0
335.491	0
335.859	0
336.226	0
336.593	-0
336.96	0
337.327	0
337.695	-0
338.062	-0
338.429	0
338.796	0
339.163	0
339.53	0
339.897	0
340.263	0
340.63	0
340.997	0
341.364	0
341.731	0
342.097	0
342.464	0
342.831	0
343.197	0
343.564	0.01
343.931	0
344.297	0
344.664	0
345.03	0
345.396	0
345.763	0
346.129	0
346.496	0
346.862	0
347.228	0.01
347.594	0
347.961	0.01
348.327	0
348.693	0
349.059	0
349.425	0
349.791	0
350.157	0
350.523	0.01
350.889	0.01
351.255	0
351.621	0.01
351.987	0.01
352.353	0.01
352.719	0.01
353.084	0.01
353.45	0.01
353.816	0.01
354.181	0.01
354.547	0
354.913	0.01
355.278	0.01
355.644	0.01
356.009	0
356.375	0.01
356.74	0.01
357.106	0.01
357.471	0.01
357.836	0.01
358.202	0.01
358.567	0.01
358.932	0.01
359.297	0.01
359.663	0.01
360.028	0.01
360.393	0.01
360.758	0.01
361.123	0.01
361.488	0.01
361.853	0.01
362.218	0.01
362.583	0.01
362.948	0.01
363.312	0.01
363.677	0.01
364.042	0.01
364.407	0.02
364.772	0.01
365.136	0.01
365.501	0.01
365.865	0.01
366.23	0.01
366.595	0.01
366.959	0.01
367.324	0.01
367.688	0.02
368.052	0.02
368.417	0.02
368.781	0.02
369.145	0.01
369.51	0.01
369.874	0.01
370.238	0.02
370.602	0.02
370.967	0.01
371.331	0.01
371.695	0.02
372.059	0.01
372.423	0.02
372.787	0.02
373.151	0.02
373.515	0.02
373.878	0.02
374.242	0.02
374.606	0.02
374.97	0.02
375.334	0.02
375.697	0.02
376.061	0.02
376.425	0.02
376.788	0.02
377.152	0.02
377.515	0.02
377.879	0.02
378.242	0.02
378.606	0.02
378.969	0.02
379.333	0.02
379.696	0.02
380.059	0.02
380.422	0.02
380.786	0.02
381.149	0.02
381.512	0.02
381.875	0.02
382.238	0.02
382.601	0.02
382.964	0.02
383.327	0.02
383.69	0.02
384.053	0.03
384.416	0.02
384.779	0.02
385.142	0.03
385.504	0.03
385.867	0.02
386.23	0.02
386.593	0.02
386.955	0.02
387.318	0.02
387.68	0.03
388.043	0.03
388.405	0.03
388.768	0.03
389.13	0.03
389.493	0.02
389.855	0.02
390.217	0.03
390.58	0.02
390.942	0.03
391.304	0.03
391.666	0.03
392.028	0.03
392.391	0.03
392.753	0.03
393.115	0.03
393.477	0.03
393.839	0.03
394.201	0.03
394.563	0.03
394.924	0.03
395.286	0.03
395.648	0.03
396.01	0.04
396.371	0.04
396.733	0.03
397.095	0.03
397.456	0.04
397.818	0.04
398.18	0.04
398.541	0.04
398.903	0.04
399.264	0.04
399.625	0.03
399.987	0.03
400.348	0.03
400.709	0.03
401.071	0.03
401.432	0.03
401.793	0.03
402.154	0.03
402.515	0.03
402.876	0.03
403.238	0.03
403.599	0.03
403.96	0.03
404.32	0.03
404.681	0.03
405.042	0.03
405.403	0.02
405.764	0.02
406.125	0.02
406.485	0.02
406.846	0.02
407.207	0.03
407.567	0.02
407.928	0.02
408.288	0.02
408.649	0.02
409.009	0.02
409.37	0.02
409.73	0.02
410.091	0.02
410.451	0.02
410.811	0.02
411.171	0.02
411.532	0.02
411.892	0.02
412.252	0.02
412.612	0.02
412.972	0.02
413.332	0.02
413.692	0.02
414.052	0.02
414.412	0.02
414.772	0.02
415.132	0.02
415.492	0.01
415.851	0.02
416.211	0.01
416.571	0.02
416.931	0.02
417.29	0.02
417.65	0.02
418.009	0.02
418.369	0.02
418.728	0.02
419.088	0.02
419.447	0.02
419.807	0.02
420.166	0.02
420.525	0.02
420.884	0.02
421.244	0.02
421.603	0.02
421.962	0.02
422.321	0.02
422.68	0.02
423.039	0.02
423.398	0.01
423.757	0.02
424.116	0.01
424.475	0.02
424.834	0.02
425.193	0.02
425.551	0.02
425.91	0.02
426.269	0.02
426.628	0.01
426.986	0.02
427.345	0.02
427.703	0.02
428.062	0.02
428.42	0.02
428.779	0.01
429.137	0.02
429.496	0.01
429.854	0.02
430.212	0.02
430.57	0.02
430.929	0.01
431.287	0.02
431.645	0.02
432.003	0.02
432.361	0.02
432.719	0.02
433.077	0.02
433.435	0.02
433.793	0.02
434.151	0.02
434.509	0.02
434.866	0.02
435.224	0.03
435.582	0.02
435.94	0.02
436.297	0.02
436.655	0.02
437.012	0.02
437.37	0.02
437.727	0.02
438.085	0.02
438.442	0.02
438.8	0.02
439.157	0.02
439.514	0.02
439.872	0.03
440.229	0.02
440.586	0.01
440.943	0.02
441.3	0.02
441.657	0.02
442.014	0.01
442.371	0.02
442.728	0.02
443.085	0.01
443.442	0.02
443.799	0.01
444.156	0.02
444.513	0.02
444.869	0.01
445.226	0.02
445.583	0.01
445.939	0.02
446.296	0.02
446.652	0.01
447.009	0.01
447.365	0.02
447.722	0.02
448.078	0.01
448.434	0.02
448.791	0.02
449.147	0.01
449.503	0.01
449.859	0.02
450.215	0.01
450.571	0.01
450.928	0.01
451.284	0.01
451.64	0
451.995	0.01
452.351	0.01
452.707	0.01
453.063	0.01
453.419	0
453.775	0.01
454.13	0
454.486	0.01
454.842	0
455.197	0
455.553	0.01
455.908	-0
456.264	-0.01
456.619	-0
456.975	-0.01
457.33	-0.01
457.685	-0.01
458.04	-0.01
458.396	-0.01
458.751	-0.02
459.106	-0.02
459.461	-0.02
459.816	-0.02
460.171	-0.03
460.526	-0.02
460.881	-0.03
461.236	-0.03
461.591	-0.03
461.946	-0.04
462.301	-0.04
462.655	-0.03
463.01	-0.04
463.365	-0.04
463.719	-0.04
464.074	-0.05
464.428	-0.06
464.783	-0.06
465.137	-0.06
465.492	-0.06
465.846	-0.07
466.201	-0.07
466.555	-0.06
466.909	-0.06
467.263	-0.06
467.618	-0.06
467.972	-0.06
468.326	-0.05
468.68	-0.07
469.034	-0.06
469.388	-0.06
469.742	-0.07
470.096	-0.07
470.45	-0.06
470.804	-0.06
471.157	-0.07
471.511	-0.07
471.865	-0.07
472.218	-0.07
472.572	-0.06
472.926	-0.06
473.279	-0.06
473.633	-0.06
473.986	-0.06
474.34	-0.05
474.693	-0.05
475.046	-0.05
475.4	-0.04
475.753	-0.04
476.106	-0.04
476.459	-0.04
476.812	-0.04
477.165	-0.03
477.519	-0.03
477.872	-0.02
478.224	-0.02
478.577	-0.02
478.93	-0.02
479.283	-0.02
479.636	-0.02
479.989	-0.01
480.341	-0.01
480.694	-0.01
481.047	-0.01
481.399	-0.01
481.752	-0.01
482.104	-0
482.457	-0.01
482.809	-0.01
483.162	0
483.514	-0
483.866	-0
484.219	-0
484.571	0
484.923	0
485.275	0
485.627	-0
485.979	0
486.331	0.01
486.683	0.01
487.035	0.01
487.387	0
487.739	0.01
488.091	0.01
488.443	0.01
488.794	0.02
489.146	0.01
489.498	0.01
489.849	0.01
490.201	0.01
490.552	0.01
490.904	0.01
491.255	0.01
491.607	0.01
491.958	0.01
492.309	0.01
492.661	0.02
493.012	0.01
493.363	0.01
493.714	0.01
494.065	0.01
494.416	0.01
494.767	0.02
495.118	0.02
495.469	0.02
495.82	0.02
496.171	0.01
496.522	0.02
496.872	0.02
497.223	0.02
497.574	0.02
497.924	0.02
498.275	0.02
498.626	0.02
498.976	0.02
499.327	0.02
499.677	0.02
500.027	0.02
500.378	0.02
500.728	0.02
501.078	0.02
501.428	0.02
501.779	0.02
502.129	0.02
502.479	0.02
502.829	0.02
503.179	0.02
503.529	0.02
503.879	0.02
504.229	0.02
504.578	0.02
504.928	0.02
505.278	0.02
505.628	0.02
505.977	0.02
506.327	0.02
506.676	0.02
507.026	0.02
507.375	0.02
507.725	0.02
508.074	0.02
508.424	0.02
508.773	0.03
509.122	0.02
509.471	0.02
509.82	0.03
510.17	0.03
510.519	0.02
510.868	0.03
511.217	0.03
511.566	0.02
511.915	0.02
512.263	0.02
512.612	0.03
512.961	0.03
513.31	0.02
513.659	0.03
514.007	0.02
514.356	0.03
514.704	0.03
515.053	0.02
515.401	0.03
515.75	0.02
516.098	0.02
516.447	0.02
516.795	0.03
517.143	0.02
517.491	0.02
517.839	0.03
518.188	0.02
518.536	0.03
518.884	0.03
519.232	0.03
519.58	0.02
519.928	0.03
520.275	0.02
520.623	0.03
520.971	0.02
521.319	0.03
521.666	0.03
522.014	0.03
522.362	0.02
522.709	0.03
523.057	0.03
523.404	0.02
523.752	0.02
524.099	0.02
524.446	0.03
524.794	0.03
525.141	0.03
525.488	0.03
525.835	0.03
526.182	0.02
526.529	0.02
526.876	0.03
527.223	0.03
527.57	0.03
527.917	0.03
528.264	0.03
528.611	0.03
528.958	0.03
529.304	0.03
529.651	0.03
529.998	0.03
530.344	0.03
530.691	0.03
531.037	0.02
531.384	0.03
531.73	0.03
532.076	0.03
532.423	0.03
532.769	0.03
533.115	0.03
533.461	0.03
533.807	0.03
534.154	0.03
534.5	0.03
534.846	0.03
535.192	0.03
535.537	0.03
535.883	0.03
536.229	0.03
536.575	0.03
536.921	0.03
537.266	0.03
537.612	0.03
537.957	0.02
538.303	0.03
538.649	0.03
538.994	0.03
539.339	0.03
539.685	0.03
540.03	0.03
540.375	0.03
540.721	0.03
541.066	0.03
541.411	0.03
541.756	0.03
542.101	0.03
542.446	0.03
542.791	0.03
543.136	0.03
543.481	0.03
543.825	0.03
544.17	0.03
544.515	0.03
544.86	0.03
545.204	0.03
545.549	0.03
545.893	0.03
546.238	0.03
546.582	0.03
546.927	0.03
547.271	0.03
547.615	0.03
547.96	0.03
548.304	0.03
548.648	0.03
548.992	0.03
549.336	0.03
549.68	0.03
550.024	0.03
550.368	0.03
550.712	0.03
551.056	0.03
551.4	0.03
551.743	0.03
552.087	0.03
552.431	0.03
552.774	0.03
553.118	0.03
553.462	0.03
553.805	0.03
554.148	0.03
554.492	0.03
554.835	0.03
555.178	0.03
555.522	0.03
555.865	0.03
556.208	0.03
556.551	0.03
556.894	0.03
557.237	0.03
557.58	0.03
557.923	0.03
558.266	0.03
558.609	0.03
558.952	0.03
559.294	0.03
559.637	0.03
559.98	0.03
560.322	0.03
560.665	0.03
561.007	0.03
561.35	0.03
561.692	0.03
562.034	0.02
562.377	0.03
562.719	0.03
563.061	0.03
563.403	0.03
563.745	0.03
564.088	0.03
564.43	0.03
564.772	0.03
565.113	0.03
565.455	0.03
565.797	0.03
566.139	0.03
566.481	0.04
566.822	0.03
567.164	0.03
567.506	0.03
567.847	0.03
568.189	0.03
568.53	0.03
568.872	0.03
569.213	0.03
569.554	0.03
569.895	0.03
570.237	0.03
570.578	0.03
570.919	0.03
571.26	0.03
571.601	0.03
571.942	0.03
572.283	0.03
572.624	0.03
572.965	0.03
573.306	0.03
573.646	0.03
573.987	0.03
574.328	0.03
574.668	0.03
575.009	0.03
575.349	0.03
575.69	0.03
576.03	0.03
576.37	0.03
576.711	0.03
577.051	0.03
577.391	0.03
577.731	0.03
578.072	0.03
578.412	0.03
578.752	0.03
579.092	0.03
579.431	0.03
579.771	0.02
580.111	0.02
580.451	0.03
580.791	0.03
581.13	0.03
581.47	0.03
581.81	0.03
582.149	0.03
582.489	0.03
582.828	0.03
583.167	0.02
583.507	0.02
583.846	0.01
584.185	0.01
584.525	0.02
584.864	0.03
585.203	0.03
585.542	0.03
585.881	0.03
586.22	0.02
586.559	0.02
586.898	0.02
587.236	0.03
587.575	0.03
587.914	0.03
588.252	0.03
588.591	0.03
588.93	0.03
589.268	0.03
589.607	0.03
589.945	0.03
590.283	0.03
590.622	0.03
590.96	0.03
591.298	0.03
591.636	0.03
591.974	0.03
592.313	0.03
592.651	0.03
592.989	0.03
593.326	0.03
593.664	0.03
594.002	0.03
594.34	0.03
594.678	0.02
595.015	0.02
595.353	0.03
595.691	0.03
596.028	0.03
596.366	0.03
596.703	0.03
597.04	0.03
597.378	0.03
597.715	0.03
598.052	0.03
598.389	0.03
598.726	0.03
599.064	0.03
599.401	0.03
599.738	0.03
600.074	0.03
600.411	0.03
600.748	0.03
601.085	0.03
601.422	0.03
601.758	0.03
602.095	0.03
602.432	0.03
602.768	0.03
603.105	0.03
603.441	0.03
603.777	0.03
604.114	0.03
604.45	0.03
604.786	0.03
605.122	0.03
605.459	0.03
605.795	0.02
606.131	0.03
606.467	0.03
606.803	0.03
607.139	0.03
607.474	0.03
607.81	0.03
608.146	0.03
608.482	0.03
608.817	0.02
609.153	0.03
609.488	0.02
609.824	0.03
610.159	0.03
610.495	0.03
610.83	0.03
611.165	0.03
611.5	0.03
611.836	0.03
612.171	0.03
612.506	0.03
612.841	0.03
613.176	0.03
613.511	0.03
613.845	0.03
614.18	0.03
614.515	0.03
614.85	0.03
615.184	0.03
615.519	0.03
615.854	0.03
616.188	0.03
616.523	0.03
616.857	0.02
617.191	0.02
617.526	0.03
617.86	0.03
618.194	0.03
618.528	0.03
618.862	0.03
619.196	0.03
619.53	0.03
619.864	0.03
620.198	0.03
620.532	0.03
620.866	0.03
621.2	0.03
621.533	0.02
621.867	0.03
622.201	0.03
622.534	0.03
622.868	0.03
623.201	0.03
623.534	0.03
623.868	0.03
624.201	0.03
624.534	0.03
624.868	0.03
625.201	0.03
625.534	0.03
625.867	0.03
626.2	0.03
626.533	0.03
626.865	0.03
627.198	0.03
627.531	0.03
627.864	0.03
628.196	0.03
628.529	0.03
628.862	0.03
629.194	0.03
629.527	0.03
629.859	0.03
630.191	0.03
630.524	0.03
630.856	0.03
631.188	0.03
631.52	0.03
631.852	0.03
632.184	0.03
632.516	0.03
632.848	0.02
633.18	0.02
633.512	0.03
633.844	0.03
634.175	0.02
634.507	0.02
634.839	0.03
635.17	0.03
635.502	0.03
635.833	0.03
636.165	0.03
636.496	0.03
636.827	0.03
637.159	0.03
637.49	0.03
637.821	0.03
638.152	0.03
638.483	0.02
638.814	0.02
639.145	0.02
639.476	0.02
639.807	0.02
640.137	0.03
640.468	0.03
640.799	0.03
641.129	0.02
641.46	0.03
641.791	0.02
642.121	0.03
642.451	0.02
642.782	0.02
643.112	0.03
643.442	0.03
643.773	0.03
644.103	0.03
644.433	0.03
644.763	0.03
645.093	0.02
645.423	0.02
645.753	0.03
646.082	0.03
646.412	0.02
646.742	0.02
647.072	0.02
647.401	0.02
647.731	0.02
648.06	0.03
648.39	0.02
648.719	0.02
649.048	0.03
649.378	0.03
649.707	0.03
650.036	0.02
650.365	0.03
650.694	0.03
651.023	0.03
651.352	0.03
651.681	0.03
652.01	0.03
652.339	0.04
652.668	0.03
652.996	0.03
653.325	0.03
653.654	0.03
653.982	0.03
654.311	0.03
654.639	0.03
654.967	0.03
655.296	0.03
655.624	0.03
655.952	0.03
656.28	0.03
656.609	0.03
656.937	0.03
657.265	0.02
657.593	0.02
657.92	0
658.248	0
658.576	0
658.904	0
659.231	0
659.559	0.03
659.887	0.03
660.214	0.03
660.542	0.02
660.869	0.03
661.196	0.03
661.524	0.02
661.851	0.03
662.178	0.03
662.505	0.03
662.832	0.03
663.159	0.03
663.486	0.02
663.813	0.03
664.14	0.03
664.467	0.03
664.794	0.03
665.12	0.03
665.447	0.03
665.774	0.03
666.1	0.03
666.427	0.03
666.753	0.03
667.079	0.03
667.406	0.03
667.732	0.03
668.058	0.03
668.384	0.03
668.71	0.03
669.036	0.03
669.362	0.03
669.688	0.03
670.014	0.03
670.34	0.03
670.666	0.03
670.991	0.03
671.317	0.03
671.643	0.03
671.968	0.03
672.294	0.03
672.619	0.03
672.945	0.03
673.27	0.03
673.595	0.03
673.92	0.03
674.246	0.03
674.571	0.03
674.896	0.03
675.221	0.03
675.546	0.03
675.87	0.03
676.195	0.02
676.52	0.02
676.845	0.02
677.169	0.02
677.494	0.03
677.819	0.03
678.143	0.03
678.468	0.03
678.792	0.03
679.116	0.03
679.44	0.03
679.765	0.02
680.089	0.03
680.413	0.03
680.737	0.03
681.061	0.03
681.385	0.03
681.709	0.03
682.033	0.03
682.356	0.03
682.68	0.03
683.004	0.03
683.327	0.02
683.651	0.02
683.974	0.02
684.298	0.02
684.621	0.02
684.944	0.02
685.268	0.02
685.591	0.02
685.914	0.02
686.237	0.02
686.56	0.03
686.883	0.03
687.206	0.03
687.529	0.03
687.852	0.03
688.175	0.03
688.497	0.02
688.82	0.02
689.142	0.03
689.465	0.03
689.787	0.03
690.11	0.03
690.432	0.02
690.755	0.02
691.077	0.02
691.399	0.02
691.721	0.02
692.043	0.02
692.365	0.02
692.687	0.02
693.009	0.02
693.331	0.02
693.653	0.02
693.974	0.02
694.296	0.02
694.618	0.02
694.939	0.02
695.261	0.02
695.582	0.02
695.904	0.02
696.225	0.02
696.546	0.03
696.868	0.03
697.189	0.03
697.51	0.03
697.831	0.02
698.152	0.03
698.473	0.02
698.794	0.02
699.114	0.02
699.435	0.02
699.756	0.02
700.077	0.02
700.397	0.03
700.718	0.03
701.038	0.03
701.359	0.03
701.679	0.02
701.999	0.02
702.32	0.02
702.64	0.02
702.96	0.02
703.28	0.02
703.6	0.03
703.92	0.03
704.24	0.03
704.56	0.03
704.879	0.03
705.199	0.03
705.519	0.03
705.838	0.03
706.158	0.02
706.478	0.02
706.797	0.02
707.116	0.02
707.436	0.03
707.755	0.02
708.074	0.02
708.393	0.02
708.712	0.02
709.031	0.02
709.35	0.02
709.669	0.02
709.988	0.02
710.307	0.02
710.626	0.02
710.944	0.02
711.263	0.02
711.582	0.02
711.9	0.02
712.219	0.02
712.537	0.02
712.855	0.02
713.174	0.02
713.492	0.03
713.81	0.02
714.128	0.03
714.446	0.02
714.764	0.02
715.082	0.02
715.4	0.02
715.718	0.02
716.035	0.02
716.353	0.02
716.671	0.02
716.988	0.02
717.306	0.02
717.623	0.02
717.941	0.02
718.258	0.02
718.575	0.02
718.893	0.02
719.21	0.02
719.527	0.02
719.844	0.02
720.161	0.02
720.478	0.03
720.795	0.02
721.112	0.02
721.428	0.02
721.745	0.02
722.062	0.02
722.378	0.02
722.695	0.02
723.011	0.02
723.328	0.02
723.644	0.02
723.96	0.02
724.276	0.02
724.593	0.02
724.909	0.03
725.225	0.03
725.541	0.03
725.857	0.02
726.173	0.03
726.488	0.02
726.804	0.02
727.12	0.02
727.435	0.02
727.751	0.02
728.067	0.02
728.382	0.02
728.697	0.02
729.013	0.02
729.328	0.02
729.643	0.02
729.958	0.02
730.273	0.02
730.588	0.02
730.903	0.02
731.218	0.02
731.533	0.02
731.848	0.02
732.163	0.02
732.477	0.02
732.792	0.02
733.107	0.02
733.421	0.02
733.736	0.02
734.05	0.02
734.364	0.02
734.678	0.02
734.993	0.02
735.307	0.03
735.621	0.02
735.935	0.02
736.249	0.02
736.563	0.02
736.877	0.03
737.19	0.02
737.504	0.02
737.818	0.02
738.131	0.02
738.445	0.03
738.758	0.03
739.072	0.03
739.385	0.03
739.698	0.03
740.012	0.03
740.325	0.03
740.638	0.03
740.951	0.03
741.264	0.03
741.577	0.03
741.89	0.03
742.203	0.03
742.515	0.03
742.828	0.03
743.141	0.03
743.453	0.04
743.766	0.03
744.078	0.03
744.391	0.03
744.703	0.03
745.015	0.03
745.327	0.03
745.639	0.02
745.952	0.03
746.264	0.02
746.575	0.02
746.887	0.02
747.199	0.02
747.511	0.02
747.823	0.02
748.134	0.02
748.446	0.02
748.757	0.02
749.069	0.02
749.38	0.02
749.692	0.02
750.003	0.02
750.314	0.02
750.625	0.02
750.936	0.02
751.248	0.02
751.559	0.02
751.869	0.02
752.18	0.02
752.491	0.03
752.802	0.03
753.112	0.03
753.423	0.02
753.734	0.02
754.044	0.03
754.355	0.02
754.665	0.03
754.975	0.03
755.285	0.03
755.596	0.03
755.906	0.02
756.216	0.02
756.526	0.02
756.836	0.02
757.146	0.03
757.455	0.02
757.765	0.03
758.075	0.03
758.385	0.03
758.694	0.03
759.004	0.02
759.313	0.03
759.622	0.03
759.932	0.03
760.241	0.03
760.55	0.03
760.859	0.02
761.168	0.02
761.477	0.02
761.786	0.02
762.095	0.02
762.404	0.02
762.713	0.02
763.021	0.02
763.33	0.02
763.639	0.02
763.947	0.02
764.256	0.01
764.564	0.02
764.872	0.02
765.181	0.02
765.489	0.02
765.797	0.02
766.105	0.02
766.413	0.02
766.721	0.02
767.029	0.02
767.337	0.02
767.644	0.03
767.952	0.02
768.26	0.02
768.567	0.02
768.875	0.02
769.182	0.02
769.49	0.02
769.797	0.02
770.104	0.02
770.411	0.02
770.718	0.03
771.026	0.02
771.333	0.02
771.639	0.02
771.946	0.02
772.253	0.02
772.56	0.02
772.867	0.02
773.173	0.02
773.48	0.02
773.786	0.02
774.093	0.02
774.399	0.02
774.705	0.02
775.012	0.03
775.318	0.02
775.624	0.02
775.93	0.02
776.236	0.02
776.542	0.03
776.848	0.03
777.154	0.02
777.459	0.02
777.765	0.02
778.071	0.02
778.376	0.02
778.682	0.02
778.987	0.02
779.292	0.02
779.598	0.03
779.903	0.02
780.208	0.03
780.513	0.02
780.818	0.03
781.123	0.03
781.428	0.03
781.733	0.03
782.038	0.03
782.343	0.03
782.647	0.03
782.952	0.03
783.256	0.03
783.561	0.03
783.865	0.03
784.17	0.03
784.474	0.03
784.778	0.03
785.082	0.03
785.386	0.03
785.69	0.03
785.994	0.03
786.298	0.03
786.602	0.03
786.906	0.03
787.209	0.03
787.513	0.03
787.817	0.03
788.12	0.03
788.424	0.03
788.727	0.03
789.03	0.02
789.333	0.02
789.637	0.02
789.94	0.02
790.243	0.02
790.546	0.03
790.849	0.02
791.152	0.02
791.454	0.03
791.757	0.03
792.06	0.02
792.362	0.02
792.665	0.03
792.967	0.03
793.27	0.03
793.572	0.03
793.874	0.03
794.177	0.03
794.479	0.03
794.781	0.03
795.083	0.03
795.385	0.02
795.687	0.02
795.989	0.02
796.29	0.03
796.592	0.03
796.894	0.02
797.195	0.02
797.497	0.02
797.798	0.02
798.1	0.01
798.401	0.01
798.702	0.01
799.003	0.02
799.304	0.02
799.605	0.02
799.906	0.03
800.207	0.03
800.508	0.03
800.809	0.03
801.11	0.03
801.41	0.03
801.711	0.03
802.011	0.03
802.312	0.03
802.612	0.03
802.913	0.02
803.213	0.02
803.513	0.02
803.813	0.02
804.113	0.03
804.413	0.03
804.713	0.03
805.013	0.04
805.313	0.03
805.613	0.03
805.912	0.03
806.212	0.03
806.511	0.04
806.811	0.03
807.11	0.03
807.41	0.02
807.709	0.03
808.008	0.03
808.307	0.03
808.606	0.03
808.905	0.02
809.204	0.03
809.503	0.03
809.802	0.03
810.101	0.03
810.399	0.03
810.698	0.02
810.997	0.02
811.295	0.02
811.593	0.02
811.892	0.02
812.19	0.03
812.488	0.03
812.786	0.03
813.084	0.03
813.383	0.03
813.68	0.03
813.978	0.03
814.276	0.03
814.574	0.04
814.872	0.05
815.169	0.03
815.467	0.03
815.764	0.04
816.062	0.04
816.359	0.04
816.656	0.04
816.954	0.04
817.251	0.03
817.548	0.03
817.845	0.03
818.142	0.03
818.439	0.03
818.735	0.03
819.032	0.03
819.329	0.03
819.626	0.03
819.922	0.03
820.219	0.04
820.515	0.03
820.811	0.04
821.108	0.04
821.404	0.04
821.7	0.04
821.996	0.04
822.292	0.04
822.588	0.04
822.884	0.04
823.18	0.03
823.475	0.03
823.771	0.03
824.067	0.03
824.362	0.03
824.658	0.03
824.953	0.03
825.249	0.03
825.544	0.04
825.839	0.04
826.134	0.03
826.429	0.03
826.724	0.03
827.019	0.03
827.314	0.03
827.609	0.03
827.904	0.03
828.198	0.04
828.493	0.03
828.787	0.03
829.082	0.04
829.376	0.04
829.671	0.04
829.965	0.04
830.259	0.04
830.553	0.04
830.847	0.03
831.141	0.03
831.435	0.03
831.729	0.03
832.023	0.03
832.317	0.03
832.61	0.03
832.904	0.03
833.197	0.03
833.491	0.03
833.784	0.03
834.077	0.04
834.371	0.04
834.664	0.04
834.957	0.04
835.25	0.03
835.543	0.03
835.836	0.03
836.129	0.04
836.421	0.04
836.714	0.03
837.007	0.03
837.299	0.04
837.592	0.04
837.884	0.04
838.177	0.03
838.469	0.04
838.761	0.04
839.053	0.04
839.345	0.05
839.637	0.05
839.929	0.04
840.221	0.04
840.513	0.04
840.805	0.04
841.096	0.04
841.388	0.05
841.68	0.04
841.971	0.04
842.262	0.03
842.554	0.04
842.845	0.02
843.136	0.04
843.427	0.03
843.718	0.03
844.009	0.03
844.3	0.04
844.591	0.04
844.882	0.05
845.173	0.05
845.463	0.04
845.754	0.06
846.044	0.04
846.335	0.03
846.625	0.05
846.915	0.05
847.206	0.03
847.496	0.03
847.786	0.03
848.076	0.03
848.366	0.03
848.656	0.04
848.945	0.04
849.235	0.03
849.525	0.04
849.814	0.04
850.104	0.03
850.393	0.03
850.683	0.03
850.972	0.03
851.261	0.02
851.551	0.02
851.84	0.03
852.129	0.03
852.418	0.03
852.707	0.02
852.995	0.02
853.284	0.02
853.573	0.03
853.862	0.03
854.15	0.05
854.439	0.03
854.727	0.05
855.015	0.03
855.304	0.03
855.592	0.04
855.88	0.03
856.168	0.02
856.456	0.03
856.744	0.03
857.032	0.03
857.32	0.03
857.607	0.05
857.895	0.04
858.183	0.03
858.47	0.02
858.757	0.03
859.045	0.04
859.332	0.04
859.619	0.04
859.907	0.04
860.194	0.03
860.481	0.03
860.768	0.03
861.054	0.04
861.341	0.04
861.628	0.04
861.915	0.04
862.201	0.03
862.488	0.01
862.774	0.02
863.061	0.03
863.347	0.03
863.633	0.02
863.919	0.02
864.205	0.02
864.491	0.03
864.777	-0.01
865.063	0.02
865.349	-0
865.635	0.03
865.92	0.02
866.206	0.05
866.492	0.02
866.777	0.03
867.062	0.03
867.348	0.03
867.633	0.04
867.918	0.04
868.203	0.02
868.488	0.05
868.773	0.01
869.058	0.03
869.343	0.02
869.628	0.03
869.912	-0.01
870.197	0.01
870.482	0.02
870.766	0.04
871.05	0.04
871.335	0.05
871.619	0.03
871.903	0.02
872.187	0.01
872.471	-0.01
872.755	0.01
873.039	0.03
873.323	0.02
873.607	0.04
873.89	0.02
874.174	0.01
874.458	-0
874.741	0.02
875.024	-0.01
875.308	-0.03
875.591	-0.08
875.874	0.02
876.157	0
876.44	-0.02
876.723	-0.01
877.006	0.04
877.289	0.05
877.572	0.03
877.854	0.02
878.137	0.05
878.42	0.01
878.702	0.01
878.984	0.01
879.267	-0
879.549	-0.03
879.831	0.05
880.113	0.08
880.395	0.04
880.677	0.03
880.959	0.05
