Data from Rubpy_EV_EDTA_Flow_Absorbance_14-03-14-480.txt Node
Date: Fri Jul 03 14:03:14 BST 2026
User: fpm-admin
Spectrometer: OFX00224
Trigger mode: 0
Integration Time (sec): 1.200000E-2
Scans to average: 3
Nonlinearity correction enabled: false
Boxcar width: 0
Storing dark spectrum: false
XAxis mode: Wavelengths
Number of Pixels in Spectrum: 2136
>>>>>Begin Spectral Data<<<<<
154.91	-0
155.289	-0
155.669	0.07
156.048	0.96
156.428	-0
156.807	0.65
157.186	0.6
157.566	-0
157.945	-0
158.325	-0
158.704	-0
159.083	0.54
159.462	-0.6
159.842	-0.63
160.221	-0
160.6	-0
160.979	-0
161.359	-0
161.738	-0.35
162.117	0.15
162.496	-0
162.875	-1.23
163.254	1.45
163.633	0.32
164.012	-0
164.391	-1.04
164.77	0.46
165.149	0.88
165.528	-0
165.907	-0
166.286	-0
166.665	-0
167.044	-0
167.423	1.48
167.802	0.12
168.181	-0
168.559	-0
168.938	-0
169.317	-0
169.696	-0.31
170.074	0.22
170.453	0.51
170.832	-0
171.21	-0.06
171.589	-0.56
171.968	0.4
172.346	-0
172.725	-0
173.103	-0.75
173.482	0.1
173.861	-0
174.239	-0
174.617	0.87
174.996	-0
175.374	-0
175.753	-0
176.131	0.37
176.51	0.06
176.888	-0
177.266	-0.35
177.645	0.03
178.023	-0
178.401	-0.16
178.779	-0
179.158	-0.13
179.536	0.14
179.914	-0.41
180.292	-0
180.67	0.04
181.048	-0
181.427	-0
181.805	-0
182.183	0.3
182.561	0.41
182.939	0.9
183.317	-0.37
183.695	0.05
184.073	-0
184.451	0.37
184.829	-0.4
185.206	-0.6
185.584	-0.1
185.962	0.19
186.34	-0.19
186.718	0.4
187.096	-0.1
187.473	-0
187.851	0.4
188.229	0.16
188.607	0.03
188.984	-0.08
189.362	-0.06
189.74	-0.1
190.117	-0.03
190.495	0.04
190.872	0.1
191.25	0.05
191.627	0.08
192.005	-0.07
192.382	-0.04
192.76	-0.02
193.137	-0.01
193.515	0.02
193.892	0.07
194.269	-0.04
194.647	-0.17
195.024	-0.09
195.401	-0.04
195.779	0.02
196.156	0.09
196.533	-0.06
196.91	-0.07
197.288	0.01
197.665	-0.02
198.042	-0.05
198.419	-0.04
198.796	-0.01
199.173	-0.04
199.55	-0.1
199.927	-0.02
200.304	-0.14
200.681	-0.12
201.058	-0.08
201.435	-0.09
201.812	-0.14
202.189	0.04
202.566	-0.06
202.943	-0.06
203.32	-0.01
203.697	-0.1
204.073	0.06
204.45	-0.06
204.827	-0.09
205.204	-0.09
205.58	-0.01
205.957	-0.02
206.334	-0.2
206.71	-0.13
207.087	-0.07
207.464	-0.04
207.84	-0.07
208.217	-0.08
208.593	-0.08
208.97	-0.06
209.346	-0.07
209.723	-0.05
210.099	-0.06
210.476	-0.03
210.852	-0.16
211.228	-0.04
211.605	-0.19
211.981	-0.06
212.357	-0.07
212.733	-0.02
213.11	-0.03
213.486	-0.05
213.862	-0.03
214.238	-0.03
214.614	0.03
214.991	-0.16
215.367	0.02
215.743	0.05
216.119	-0.08
216.495	-0.13
216.871	-0.09
217.247	0.02
217.623	-0.04
217.999	0.06
218.375	-0.08
218.751	-0.01
219.127	-0.09
219.502	0.03
219.878	-0.07
220.254	-0.07
220.63	-0.08
221.006	-0.06
221.381	-0.05
221.757	-0.12
222.133	0.01
222.508	0.02
222.884	-0.01
223.26	-0.09
223.635	-0.02
224.011	-0
224.386	-0
224.762	-0.03
225.137	0.01
225.513	-0.06
225.888	-0.06
226.264	-0.06
226.639	-0.03
227.014	0.03
227.39	-0.03
227.765	-0.08
228.14	-0.02
228.516	-0.12
228.891	-0
229.266	-0.13
229.641	-0.06
230.017	-0.09
230.392	-0.08
230.767	-0.05
231.142	-0.1
231.517	-0.04
231.892	-0.01
232.267	0.1
232.642	-0.02
233.017	-0.03
233.392	-0.01
233.767	-0.05
234.142	-0.07
234.517	-0.06
234.892	-0.09
235.267	-0.08
235.641	-0.11
236.016	-0.07
236.391	-0.06
236.766	-0.05
237.14	-0.05
237.515	0.01
237.89	0.04
238.264	0.06
238.639	0.06
239.014	-0.08
239.388	-0.05
239.763	-0.12
240.137	-0.08
240.512	-0.06
240.886	-0.1
241.261	-0.02
241.635	-0.06
242.009	-0.02
242.384	-0.02
242.758	-0
243.132	-0.1
243.507	-0.03
243.881	0.03
244.255	-0.04
244.629	-0.12
245.004	-0.01
245.378	-0.19
245.752	-0.1
246.126	-0.13
246.5	-0.06
246.874	-0.13
247.248	-0.07
247.622	0.02
247.996	-0.01
248.37	0.03
248.744	-0
249.118	-0.09
249.492	0
249.866	-0.1
250.24	-0.05
250.613	-0.04
250.987	0
251.361	-0.05
251.735	-0.1
252.108	-0.02
252.482	-0.06
252.856	-0.1
253.229	-0.11
253.603	-0.04
253.977	-0.14
254.35	0.03
254.724	-0.03
255.097	-0.05
255.471	-0.01
255.844	-0.02
256.218	0.04
256.591	-0.04
256.964	-0.1
257.338	-0.06
257.711	-0.05
258.084	0.01
258.458	-0.01
258.831	-0.13
259.204	-0.06
259.577	-0.05
259.95	-0.05
260.323	-0.09
260.697	-0.05
261.07	-0.09
261.443	0.01
261.816	-0.1
262.189	-0.01
262.562	0.02
262.935	-0.07
263.308	-0.09
263.68	0.01
264.053	-0.1
264.426	-0.01
264.799	-0.09
265.172	-0.07
265.545	-0.06
265.917	-0.08
266.29	-0.02
266.663	-0.05
267.035	-0.04
267.408	-0.11
267.781	-0.07
268.153	-0.01
268.526	-0.06
268.898	-0.05
269.271	-0.01
269.643	-0.08
270.016	-0.03
270.388	-0.03
270.76	0.01
271.133	-0.02
271.505	-0.06
271.877	0.03
272.25	-0.04
272.622	-0.11
272.994	0.03
273.366	-0.05
273.739	-0
274.111	0
274.483	-0.01
274.855	-0.07
275.227	0
275.599	-0.03
275.971	0.06
276.343	-0.03
276.715	0.06
277.087	-0.03
277.459	-0.04
277.831	0.01
278.203	0.01
278.574	-0.03
278.946	-0.05
279.318	-0.01
279.69	-0.08
280.061	-0.01
280.433	0.01
280.805	-0.02
281.176	-0.03
281.548	0.05
281.92	0.01
282.291	-0.01
282.663	-0.02
283.034	-0.07
283.406	-0.07
283.777	-0.01
284.148	-0.01
284.52	0.07
284.891	-0.06
285.262	-0.07
285.634	-0.02
286.005	0.03
286.376	-0.04
286.747	-0.02
287.119	-0.06
287.49	-0.03
287.861	0
288.232	-0.01
288.603	-0.01
288.974	0.02
289.345	0.01
289.716	-0.03
290.087	-0.01
290.458	0.01
290.829	-0
291.2	-0.04
291.571	0.03
291.941	0.05
292.312	-0.03
292.683	0.03
293.054	0.01
293.424	-0.07
293.795	-0.01
294.166	-0.06
294.536	-0.02
294.907	-0.04
295.277	0.01
295.648	-0.07
296.018	0.02
296.389	-0.04
296.759	0.04
297.13	-0.04
297.5	0.05
297.871	0.06
298.241	-0.04
298.611	-0.01
298.981	0.04
299.352	-0.06
299.722	-0.04
300.092	-0.07
300.462	-0
300.832	0.01
301.202	-0.02
301.573	-0.11
301.943	-0.06
302.313	0
302.683	-0.05
303.053	-0.02
303.422	-0.01
303.792	-0.02
304.162	-0.07
304.532	0.02
304.902	-0.12
305.272	-0.04
305.641	0.01
306.011	0
306.381	-0.05
306.75	-0.03
307.12	-0.05
307.49	-0.07
307.859	-0.06
308.229	-0.03
308.598	0.02
308.968	-0.01
309.337	-0.03
309.707	0.02
310.076	0.03
310.445	-0.03
310.815	-0.02
311.184	0.01
311.553	-0.01
311.923	0.01
312.292	-0
312.661	0.02
313.03	-0.02
313.399	0.02
313.768	-0.02
314.137	0.05
314.506	0
314.875	0.03
315.244	0.01
315.613	0.02
315.982	0.02
316.351	0.01
316.72	0.03
317.089	0.03
317.458	0.01
317.826	0.03
318.195	0.01
318.564	0.02
318.933	0.03
319.301	0.01
319.67	0.01
320.038	0.03
320.407	0.02
320.775	0.02
321.144	0.02
321.512	0.03
321.881	0.02
322.249	0.02
322.618	0.02
322.986	0.02
323.354	0.01
323.723	0.01
324.091	0.03
324.459	0.02
324.827	0.04
325.195	0.05
325.564	0.03
325.932	0.01
326.3	0.02
326.668	0.02
327.036	0.02
327.404	0.03
327.772	0.02
328.14	0
328.508	0.03
328.875	0.02
329.243	0.03
329.611	0.02
329.979	0.01
330.346	0.02
330.714	0.02
331.082	0.01
331.449	0.01
331.817	0.03
332.185	0.01
332.552	0.03
332.92	0.02
333.287	0.01
333.655	0.02
334.022	0.02
334.389	0.01
334.757	0.01
335.124	0.02
335.491	0.02
335.859	0.02
336.226	0.01
336.593	0.01
336.96	0.02
337.327	0.02
337.695	0.01
338.062	0.01
338.429	0.02
338.796	0.02
339.163	0.01
339.53	0.02
339.897	0.01
340.263	0.03
340.63	0.01
340.997	0.02
341.364	0.01
341.731	0.02
342.097	0.02
342.464	0.02
342.831	0.02
343.197	0.02
343.564	0.01
343.931	0.02
344.297	0.02
344.664	0.02
345.03	0.02
345.396	0.02
345.763	0.02
346.129	0.02
346.496	0.02
346.862	0.02
347.228	0.02
347.594	0.02
347.961	0.01
348.327	0.02
348.693	0.01
349.059	0.01
349.425	0.01
349.791	0.02
350.157	0.02
350.523	0.01
350.889	0.02
351.255	0.01
351.621	0.02
351.987	0.02
352.353	0.02
352.719	0.02
353.084	0.02
353.45	0.02
353.816	0.02
354.181	0.02
354.547	0.01
354.913	0.02
355.278	0.02
355.644	0.02
356.009	0.02
356.375	0.02
356.74	0.02
357.106	0.01
357.471	0.02
357.836	0.02
358.202	0.02
358.567	0.02
358.932	0.02
359.297	0.02
359.663	0.02
360.028	0.02
360.393	0.01
360.758	0.01
361.123	0.02
361.488	0.02
361.853	0.01
362.218	0.02
362.583	0.01
362.948	0.01
363.312	0.01
363.677	0.02
364.042	0.01
364.407	0.01
364.772	0.02
365.136	0.01
365.501	0.01
365.865	0.01
366.23	0.02
366.595	0.01
366.959	0.01
367.324	0.01
367.688	0.01
368.052	0.01
368.417	0.01
368.781	0.01
369.145	0.01
369.51	0.02
369.874	0.01
370.238	0.01
370.602	0.02
370.967	0.01
371.331	0.01
371.695	0.01
372.059	0.01
372.423	0.01
372.787	0.01
373.151	0.01
373.515	0.01
373.878	0.01
374.242	0.02
374.606	0.02
374.97	0.01
375.334	0.01
375.697	0.01
376.061	0.01
376.425	0.01
376.788	0.01
377.152	0.01
377.515	0.01
377.879	0.01
378.242	0.01
378.606	0.01
378.969	0.01
379.333	0.01
379.696	0.01
380.059	0.01
380.422	0.01
380.786	0.01
381.149	0.01
381.512	0.02
381.875	0.02
382.238	0.01
382.601	0.01
382.964	0.01
383.327	0.01
383.69	0.01
384.053	0.01
384.416	0.01
384.779	0.01
385.142	0.01
385.504	0.01
385.867	0.02
386.23	0.01
386.593	0.01
386.955	0.01
387.318	0.02
387.68	0.01
388.043	0.02
388.405	0.01
388.768	0.02
389.13	0.01
389.493	0.02
389.855	0.02
390.217	0.02
390.58	0.01
390.942	0.02
391.304	0.02
391.666	0.02
392.028	0.02
392.391	0.02
392.753	0.02
393.115	0.01
393.477	0.01
393.839	0.02
394.201	0.02
394.563	0.01
394.924	0.02
395.286	0.02
395.648	0.02
396.01	0.01
396.371	0.02
396.733	0.02
397.095	0.02
397.456	0.02
397.818	0.02
398.18	0.02
398.541	0.02
398.903	0.02
399.264	0.02
399.625	0.02
399.987	0.02
400.348	0.02
400.709	0.02
401.071	0.02
401.432	0.02
401.793	0.02
402.154	0.01
402.515	0.02
402.876	0.02
403.238	0.02
403.599	0.02
403.96	0.03
404.32	0.02
404.681	0.02
405.042	0.02
405.403	0.02
405.764	0.03
406.125	0.02
406.485	0.02
406.846	0.02
407.207	0.02
407.567	0.03
407.928	0.02
408.288	0.03
408.649	0.02
409.009	0.02
409.37	0.03
409.73	0.02
410.091	0.02
410.451	0.02
410.811	0.02
411.171	0.02
411.532	0.03
411.892	0.02
412.252	0.02
412.612	0.02
412.972	0.03
413.332	0.03
413.692	0.03
414.052	0.03
414.412	0.02
414.772	0.02
415.132	0.02
415.492	0.03
415.851	0.03
416.211	0.03
416.571	0.03
416.931	0.03
417.29	0.02
417.65	0.02
418.009	0.02
418.369	0.02
418.728	0.04
419.088	0.03
419.447	0.03
419.807	0.03
420.166	0.03
420.525	0.04
420.884	0.04
421.244	0.03
421.603	0.04
421.962	0.02
422.321	0.03
422.68	0.02
423.039	0.03
423.398	0.02
423.757	0.02
424.116	0.04
424.475	0.03
424.834	0.03
425.193	0.03
425.551	0.03
425.91	0.04
426.269	0.03
426.628	0.04
426.986	0.05
427.345	0.02
427.703	0.02
428.062	0.02
428.42	0.04
428.779	0.02
429.137	0.03
429.496	0.01
429.854	0.03
430.212	0.02
430.57	0.03
430.929	0.01
431.287	0.02
431.645	0.05
432.003	0.03
432.361	0.04
432.719	0.03
433.077	0.03
433.435	0.03
433.793	0.04
434.151	0.05
434.509	0.03
434.866	0.03
435.224	0.03
435.582	0.04
435.94	0.03
436.297	0.02
436.655	0.03
437.012	0.03
437.37	0.03
437.727	0.03
438.085	0.04
438.442	0.02
438.8	0.03
439.157	0.04
439.514	0.03
439.872	0.01
440.229	0.02
440.586	0.05
440.943	0.03
441.3	0.03
441.657	0.03
442.014	0.02
442.371	0.03
442.728	0.03
443.085	0.02
443.442	0.05
443.799	0.04
444.156	0.03
444.513	0.01
444.869	0.03
445.226	0.02
445.583	0.05
445.939	0.03
446.296	0.01
446.652	0.02
447.009	0.04
447.365	0.03
447.722	0.03
448.078	0.04
448.434	0.04
448.791	0.04
449.147	0.02
449.503	0.02
449.859	0.04
450.215	0.03
450.571	0
450.928	0.05
451.284	0.02
451.64	0.03
451.995	0.03
452.351	0
452.707	0.04
453.063	0.02
453.419	0.02
453.775	0.04
454.13	0.02
454.486	0.01
454.842	0.02
455.197	0.03
455.553	0.05
455.908	0.03
456.264	0.04
456.619	0.05
456.975	0.03
457.33	0.02
457.685	0.03
458.04	0.04
458.396	0.05
458.751	0.04
459.106	0.03
459.461	0.01
459.816	0.02
460.171	0.05
460.526	0.03
460.881	0.03
461.236	0.02
461.591	0.03
461.946	0.03
462.301	0.04
462.655	0.02
463.01	0.04
463.365	0.02
463.719	0.02
464.074	0.03
464.428	0.03
464.783	0.03
465.137	0.03
465.492	0.01
465.846	0.04
466.201	0.02
466.555	0.03
466.909	0.03
467.263	0.01
467.618	0.02
467.972	0.03
468.326	0.03
468.68	0.03
469.034	0.03
469.388	0.03
469.742	0.03
470.096	0.02
470.45	0.02
470.804	0.03
471.157	0.02
471.511	0.03
471.865	0.03
472.218	0.03
472.572	0.02
472.926	0.03
473.279	0.03
473.633	0.02
473.986	0.02
474.34	0.01
474.693	0.02
475.046	0.03
475.4	0.02
475.753	0.02
476.106	0.02
476.459	0.03
476.812	0.01
477.165	0.01
477.519	0.02
477.872	0.02
478.224	0.02
478.577	0.01
478.93	0.02
479.283	0.01
479.636	0.01
479.989	0.02
480.341	0.01
480.694	0.01
481.047	0.02
481.399	0.01
481.752	0.01
482.104	0.01
482.457	0
482.809	0.02
483.162	0.02
483.514	0.01
483.866	0.01
484.219	0.01
484.571	0.01
484.923	0.01
485.275	0.01
485.627	0.01
485.979	0.01
486.331	0.01
486.683	0.01
487.035	0.01
487.387	0.01
487.739	0.01
488.091	0.01
488.443	0.01
488.794	0.02
489.146	0.01
489.498	0.01
489.849	0.01
490.201	0.01
490.552	0.01
490.904	0.01
491.255	0.01
491.607	0.01
491.958	0.01
492.309	0.01
492.661	0.01
493.012	0.01
493.363	0.01
493.714	0.01
494.065	0.01
494.416	0.01
494.767	0.01
495.118	0.01
495.469	0.01
495.82	0.01
496.171	0
496.522	0.01
496.872	0.01
497.223	0.01
497.574	0.01
497.924	0.01
498.275	0
498.626	0
498.976	0.01
499.327	0.01
499.677	0.01
500.027	0.01
500.378	0.01
500.728	0
501.078	0.01
501.428	0.01
501.779	0.01
502.129	0.01
502.479	0.01
502.829	0
503.179	0
503.529	0.01
503.879	0
504.229	0.01
504.578	0.01
504.928	0
505.278	0
505.628	0.01
505.977	0.01
506.327	0
506.676	0
507.026	0
507.375	0.01
507.725	0
508.074	0.01
508.424	0.01
508.773	0.01
509.122	0.01
509.471	0.01
509.82	0.01
510.17	0
510.519	0.01
510.868	0.01
511.217	0
511.566	0.01
511.915	0
512.263	0
512.612	0.01
512.961	0
513.31	0
513.659	0.01
514.007	0.01
514.356	0.01
514.704	0
515.053	0.01
515.401	0.01
515.75	0.01
516.098	0
516.447	0
516.795	0.01
517.143	0.01
517.491	0
517.839	0
518.188	0.01
518.536	0
518.884	0.01
519.232	0
519.58	0.01
519.928	0
520.275	0
520.623	0
520.971	0
521.319	0
521.666	0
522.014	0.01
522.362	0
522.709	0.01
523.057	0
523.404	0.01
523.752	0.01
524.099	0
524.446	0
524.794	0
525.141	0
525.488	-0
525.835	0
526.182	0
526.529	0
526.876	0.01
527.223	-0
527.57	-0
527.917	0
528.264	0
528.611	0
528.958	0
529.304	0.01
529.651	0
529.998	0
530.344	0
530.691	0
531.037	0
531.384	0
531.73	-0
532.076	0.01
532.423	0.01
532.769	0
533.115	0
533.461	0
533.807	0
534.154	0
534.5	0
534.846	0
535.192	-0
535.537	0
535.883	0
536.229	0
536.575	0
536.921	0
537.266	0
537.612	-0
537.957	0
538.303	0
538.649	-0
538.994	0
539.339	-0
539.685	-0
540.03	0
540.375	0
540.721	0
541.066	0
541.411	-0
541.756	0.01
542.101	0.01
542.446	0
542.791	-0
543.136	0
543.481	0
543.825	0
544.17	-0
544.515	0
544.86	0
545.204	0
545.549	0
545.893	0
546.238	0
546.582	0
546.927	0
547.271	0
547.615	0
547.96	0
548.304	0
548.648	-0
548.992	0
549.336	0
549.68	-0
550.024	0
550.368	-0
550.712	0
551.056	0
551.4	0
551.743	0
552.087	0
552.431	-0
552.774	0
553.118	0
553.462	-0
553.805	-0
554.148	-0
554.492	-0
554.835	0
555.178	-0
555.522	-0
555.865	0
556.208	0
556.551	0
556.894	-0
557.237	-0
557.58	0
557.923	0
558.266	0
558.609	0
558.952	0
559.294	0
559.637	0
559.98	0
560.322	0
560.665	0
561.007	0
561.35	-0
561.692	-0
562.034	-0
562.377	-0
562.719	0
563.061	0
563.403	-0
563.745	0
564.088	0
564.43	0
564.772	-0
565.113	-0
565.455	-0
565.797	0
566.139	0
566.481	-0
566.822	0
567.164	-0
567.506	-0
567.847	0
568.189	-0
568.53	-0
568.872	0
569.213	-0
569.554	-0
569.895	-0
570.237	-0
570.578	-0
570.919	0
571.26	-0
571.601	-0
571.942	-0
572.283	0
572.624	-0
572.965	-0
573.306	-0
573.646	-0
573.987	0
574.328	0
574.668	0
575.009	0
575.349	-0
575.69	-0
576.03	-0
576.37	-0
576.711	-0
577.051	0
577.391	0
577.731	0
578.072	0
578.412	-0
578.752	0
579.092	-0
579.431	-0.01
579.771	-0
580.111	-0
580.451	0
580.791	0
581.13	0
581.47	0
581.81	0
582.149	0
582.489	0
582.828	-0.01
583.167	-0.01
583.507	-0
583.846	0
584.185	0
584.525	0
584.864	0.01
585.203	0.01
585.542	0
585.881	0
586.22	0
586.559	-0
586.898	-0
587.236	-0
587.575	0
587.914	0
588.252	0
588.591	0
588.93	0
589.268	0
589.607	-0
589.945	0
590.283	0
590.622	0
590.96	0
591.298	0
591.636	0
591.974	-0
592.313	-0
592.651	0
592.989	-0
593.326	-0
593.664	-0
594.002	-0
594.34	-0
594.678	-0.01
595.015	-0
595.353	-0
595.691	0
596.028	0
596.366	0.01
596.703	0
597.04	-0
597.378	0
597.715	0
598.052	0
598.389	0
598.726	0
599.064	-0
599.401	-0
599.738	0
600.074	-0
600.411	-0
600.748	-0
601.085	-0
601.422	-0
601.758	-0
602.095	-0
602.432	0
602.768	0
603.105	0
603.441	0
603.777	0
604.114	0
604.45	0
604.786	0
605.122	0
605.459	-0
605.795	-0
606.131	0
606.467	0
606.803	0
607.139	-0
607.474	-0
607.81	0
608.146	0
608.482	0
608.817	0
609.153	-0
609.488	-0
609.824	0
610.159	0
610.495	0
610.83	0
611.165	0.01
611.5	0
611.836	0
612.171	-0
612.506	0
612.841	0
613.176	-0
613.511	0
613.845	0
614.18	0
614.515	0
614.85	-0
615.184	0
615.519	0
615.854	-0
616.188	-0
616.523	-0
616.857	0
617.191	-0
617.526	0
617.86	0
618.194	0
618.528	0.01
618.862	0
619.196	0
619.53	0
619.864	-0
620.198	-0
620.532	-0
620.866	0
621.2	0
621.533	-0
621.867	0
622.201	0
622.534	0
622.868	0
623.201	0
623.534	0
623.868	-0
624.201	0
624.534	0
624.868	0
625.201	0
625.534	0
625.867	0
626.2	0
626.533	0
626.865	0
627.198	0
627.531	0
627.864	0
628.196	-0
628.529	0
628.862	0
629.194	-0
629.527	-0
629.859	0
630.191	0.01
630.524	0
630.856	0
631.188	-0
631.52	0
631.852	0
632.184	0
632.516	0
632.848	-0
633.18	0
633.512	0
633.844	0
634.175	0
634.507	-0
634.839	-0
635.17	-0
635.502	0
635.833	-0
636.165	0
636.496	0
636.827	-0
637.159	0
637.49	0
637.821	-0
638.152	-0
638.483	0
638.814	0
639.145	0
639.476	0
639.807	0
640.137	0
640.468	0
640.799	-0
641.129	-0
641.46	-0
641.791	-0
642.121	-0
642.451	0
642.782	-0
643.112	0
643.442	-0
643.773	-0
644.103	-0
644.433	0
644.763	-0
645.093	0
645.423	-0
645.753	-0
646.082	-0
646.412	0
646.742	-0
647.072	0
647.401	-0
647.731	-0
648.06	-0
648.39	-0
648.719	-0
649.048	-0
649.378	-0
649.707	-0
650.036	-0
650.365	-0
650.694	-0
651.023	-0
651.352	0
651.681	0
652.01	0
652.339	0
652.668	-0
652.996	-0
653.325	-0
653.654	-0
653.982	-0
654.311	-0
654.639	-0
654.967	-0
655.296	-0
655.624	0
655.952	0
656.28	0
656.609	-0
656.937	-0
657.265	-0.01
657.593	-0.04
657.92	0
658.248	-0
658.576	0
658.904	-0
659.231	0
659.559	0.01
659.887	0.01
660.214	0.01
660.542	0.01
660.869	0
661.196	-0
661.524	-0
661.851	0
662.178	-0
662.505	0
662.832	-0
663.159	0
663.486	-0
663.813	0
664.14	0
664.467	-0
664.794	0
665.12	0
665.447	0
665.774	0
666.1	-0
666.427	-0
666.753	-0
667.079	0
667.406	0
667.732	-0
668.058	0
668.384	0
668.71	-0
669.036	0
669.362	-0
669.688	0
670.014	0
670.34	-0
670.666	-0
670.991	-0
671.317	-0
671.643	-0
671.968	-0
672.294	-0
672.619	-0
672.945	-0
673.27	-0
673.595	-0.01
673.92	-0
674.246	0
674.571	-0
674.896	0
675.221	0
675.546	0
675.87	0
676.195	0
676.52	0
676.845	0
677.169	0
677.494	-0
677.819	0
678.143	0
678.468	0
678.792	-0
679.116	-0
679.44	0
679.765	-0
680.089	-0
680.413	-0
680.737	-0
681.061	-0
681.385	-0
681.709	0
682.033	-0
682.356	0
682.68	0
683.004	-0
683.327	0
683.651	-0
683.974	-0
684.298	0
684.621	-0
684.944	-0
685.268	-0
685.591	0
685.914	-0
686.237	-0
686.56	-0
686.883	-0
687.206	-0
687.529	-0
687.852	0
688.175	0
688.497	0
688.82	0
689.142	-0
689.465	-0
689.787	-0
690.11	0
690.432	-0
690.755	-0
691.077	-0
691.399	-0
691.721	-0
692.043	-0
692.365	-0
692.687	0
693.009	-0
693.331	-0
693.653	-0
693.974	-0
694.296	-0
694.618	-0
694.939	-0
695.261	-0
695.582	-0
695.904	-0
696.225	-0
696.546	0
696.868	-0
697.189	-0
697.51	-0
697.831	0
698.152	0
698.473	-0
698.794	-0
699.114	-0
699.435	-0
699.756	0
700.077	0
700.397	0
700.718	0
701.038	0
701.359	0
701.679	-0
701.999	-0
702.32	-0
702.64	-0
702.96	-0
703.28	-0
703.6	-0
703.92	-0
704.24	-0.01
704.56	-0
704.879	-0
705.199	-0
705.519	-0
705.838	-0
706.158	0
706.478	-0
706.797	-0
707.116	-0
707.436	-0
707.755	-0.01
708.074	-0.01
708.393	-0
708.712	-0
709.031	-0
709.35	-0
709.669	-0
709.988	-0
710.307	-0
710.626	0
710.944	0
711.263	0
711.582	0
711.9	-0
712.219	-0
712.537	-0
712.855	-0
713.174	-0
713.492	-0
713.81	-0
714.128	-0
714.446	-0
714.764	-0
715.082	-0.01
715.4	-0
715.718	-0
716.035	0
716.353	-0
716.671	-0
716.988	-0
717.306	-0
717.623	0
717.941	0
718.258	0
718.575	0
718.893	0
719.21	0
719.527	-0
719.844	-0
720.161	-0
720.478	-0
720.795	-0
721.112	-0
721.428	-0
721.745	0
722.062	0
722.378	0
722.695	-0
723.011	-0
723.328	0
723.644	-0
723.96	-0
724.276	-0
724.593	-0
724.909	-0
725.225	-0
725.541	0
725.857	0
726.173	-0
726.488	0
726.804	-0
727.12	-0
727.435	-0
727.751	-0
728.067	-0
728.382	0
728.697	0
729.013	0
729.328	0
729.643	-0
729.958	-0
730.273	0
730.588	-0
730.903	0
731.218	-0
731.533	-0
731.848	-0
732.163	-0.01
732.477	-0
732.792	-0
733.107	-0
733.421	-0
733.736	-0
734.05	-0
734.364	-0
734.678	-0
734.993	-0
735.307	-0
735.621	0
735.935	-0
736.249	-0
736.563	0
736.877	-0
737.19	-0
737.504	-0
737.818	-0
738.131	0
738.445	-0
738.758	-0
739.072	-0
739.385	0
739.698	0
740.012	-0
740.325	-0
740.638	-0
740.951	-0.01
741.264	-0
741.577	-0
741.89	0
742.203	0
742.515	-0
742.828	-0
743.141	-0
743.453	-0
743.766	-0
744.078	-0
744.391	0
744.703	-0
745.015	-0
745.327	-0
745.639	0
745.952	0
746.264	-0
746.575	-0
746.887	-0
747.199	-0
747.511	-0
747.823	-0
748.134	-0
748.446	-0.01
748.757	-0
749.069	-0
749.38	-0
749.692	-0
750.003	0
750.314	-0
750.625	-0
750.936	-0
751.248	-0
751.559	-0.01
751.869	-0
752.18	0
752.491	0
752.802	0
753.112	-0
753.423	0
753.734	-0
754.044	0
754.355	0
754.665	0
754.975	0
755.285	0
755.596	0
755.906	0
756.216	-0
756.526	0
756.836	0
757.146	-0
757.455	0
757.765	-0
758.075	-0
758.385	-0
758.694	-0
759.004	-0
759.313	0
759.622	0
759.932	0
760.241	0
760.55	-0
760.859	0
761.168	0
761.477	0
761.786	0
762.095	-0
762.404	-0
762.713	0
763.021	0
763.33	0
763.639	0
763.947	0
764.256	0.01
764.564	0
764.872	0
765.181	0
765.489	0
765.797	0
766.105	-0
766.413	-0
766.721	0
767.029	-0
767.337	0
767.644	0
767.952	0
768.26	0.01
768.567	0.01
768.875	0
769.182	0
769.49	0
769.797	-0
770.104	-0
770.411	-0
770.718	0
771.026	0
771.333	0
771.639	0
771.946	0
772.253	-0
772.56	-0
772.867	0
773.173	0
773.48	-0
773.786	-0
774.093	-0
774.399	-0
774.705	-0
775.012	-0
775.318	0
775.624	0
775.93	-0
776.236	-0
776.542	-0
776.848	-0
777.154	-0
777.459	0
777.765	-0.01
778.071	-0
778.376	-0
778.682	-0
778.987	-0
779.292	-0
779.598	-0
779.903	-0
780.208	-0
780.513	-0
780.818	-0
781.123	-0
781.428	-0
781.733	-0
782.038	-0
782.343	-0
782.647	-0.01
782.952	-0
783.256	-0
783.561	-0
783.865	-0
784.17	-0
784.474	-0
784.778	-0
785.082	-0
785.386	-0
785.69	-0
785.994	0
786.298	-0
786.602	-0
786.906	-0
787.209	-0
787.513	-0
787.817	-0.01
788.12	0
788.424	0
788.727	-0
789.03	-0
789.333	0
789.637	-0
789.94	-0
790.243	-0
790.546	-0
790.849	-0
791.152	-0
791.454	0
791.757	-0
792.06	-0
792.362	0
792.665	0
792.967	-0
793.27	-0
793.572	-0
793.874	-0
794.177	-0
794.479	-0.01
794.781	-0
795.083	-0
795.385	-0.01
795.687	-0
795.989	-0.01
796.29	-0
796.592	-0
796.894	-0
797.195	-0
797.497	0
797.798	-0
798.1	0
798.401	0
798.702	0
799.003	0
799.304	-0
799.605	-0
799.906	0
800.207	-0
800.508	-0
800.809	-0
801.11	0
801.41	0.01
801.711	0
802.011	-0
802.312	-0
802.612	-0
802.913	-0
803.213	0
803.513	-0
803.813	-0.01
804.113	-0
804.413	-0
804.713	-0.01
805.013	-0
805.313	-0
805.613	-0.01
805.912	-0.01
806.212	-0
806.511	-0
806.811	-0.01
807.11	-0.01
807.41	-0
807.709	-0.01
808.008	-0.01
808.307	-0
808.606	0
808.905	0
809.204	-0
809.503	-0
809.802	0
810.101	-0
810.399	-0.01
810.698	-0
810.997	-0
811.295	-0
811.593	-0.01
811.892	0
812.19	0.01
812.488	0
812.786	0
813.084	0
813.383	-0
813.68	-0
813.978	-0
814.276	0
814.574	0
814.872	0
815.169	-0
815.467	-0
815.764	-0.01
816.062	0
816.359	0
816.656	0.01
816.954	-0
817.251	-0
817.548	-0.01
817.845	0
818.142	-0.01
818.439	-0
818.735	0
819.032	-0
819.329	-0.01
819.626	-0
819.922	-0
820.219	0
820.515	0
820.811	0
821.108	-0
821.404	-0.01
821.7	-0.01
821.996	-0.01
822.292	-0.01
822.588	-0.01
822.884	-0.01
823.18	-0.01
823.475	0
823.771	-0
824.067	-0
824.362	0
824.658	-0.01
824.953	-0.01
825.249	-0
825.544	-0
825.839	-0
826.134	0
826.429	-0.01
826.724	-0
827.019	-0.01
827.314	0
827.609	-0
827.904	-0
828.198	-0
828.493	0
828.787	-0
829.082	-0
829.376	-0
829.671	-0.01
829.965	0
830.259	-0.01
830.553	0
830.847	-0.01
831.141	-0.01
831.435	-0.01
831.729	-0
832.023	-0.01
832.317	-0
832.61	-0.01
832.904	-0
833.197	0
833.491	-0.01
833.784	-0
834.077	-0
834.371	-0.01
834.664	-0.01
834.957	-0.01
835.25	0
835.543	-0.01
835.836	-0
836.129	-0
836.421	-0
836.714	0.01
837.007	-0.01
837.299	0
837.592	-0.01
837.884	-0.01
838.177	-0
838.469	-0.02
838.761	-0
839.053	-0.01
839.345	0
839.637	0
839.929	-0
840.221	0
840.513	-0
840.805	-0
841.096	0.01
841.388	-0
841.68	-0
841.971	-0
842.262	-0
842.554	-0.02
842.845	-0
843.136	-0
843.427	0.01
843.718	0.01
844.009	-0
844.3	0.01
844.591	-0.01
844.882	0.01
845.173	-0.01
845.463	-0
845.754	-0
846.044	-0.01
846.335	-0.02
846.625	0.01
846.915	-0
847.206	-0
847.496	-0
847.786	-0
848.076	-0.01
848.366	-0.02
848.656	-0.01
848.945	-0.02
849.235	-0.02
849.525	-0.01
849.814	-0.01
850.104	0
850.393	-0.02
850.683	-0.01
850.972	-0.01
851.261	-0.01
851.551	-0.01
851.84	-0.01
852.129	-0.03
852.418	0
852.707	-0
852.995	-0.01
853.284	-0.02
853.573	-0
853.862	-0.02
854.15	-0.03
854.439	-0
854.727	0
855.015	-0.01
855.304	-0.01
855.592	-0.01
855.88	-0.01
856.168	0.01
856.456	-0.01
856.744	-0.02
857.032	-0.01
857.32	-0.01
857.607	-0
857.895	-0.01
858.183	-0.02
858.47	0
858.757	-0.01
859.045	-0.01
859.332	-0.02
859.619	-0
859.907	-0
860.194	0.01
860.481	-0.01
860.768	-0.02
861.054	-0.02
861.341	-0.04
861.628	0
861.915	0.01
862.201	0
862.488	-0.01
862.774	-0
863.061	0.01
863.347	0.02
863.633	0
863.919	0
864.205	0.01
864.491	0.02
864.777	-0.02
865.063	-0.01
865.349	0.02
865.635	-0.03
865.92	-0.02
866.206	0
866.492	-0.03
866.777	-0.01
867.062	-0.06
867.348	-0.02
867.633	-0
867.918	0.01
868.203	-0.04
868.488	-0.02
868.773	-0.03
869.058	-0.04
869.343	0.01
869.628	-0.04
869.912	-0.04
870.197	-0.04
870.482	-0.05
870.766	-0
871.05	-0.07
871.335	-0.03
871.619	-0.03
871.903	-0.1
872.187	-0.04
872.471	0.01
872.755	-0.01
873.039	-0.08
873.323	-0.04
873.607	-0.01
873.89	-0.05
874.174	-0.05
874.458	-0.01
874.741	-0.13
875.024	-0.02
875.308	-0.04
875.591	-0.05
875.874	-0.08
876.157	-0.01
876.44	-0.07
876.723	-0.04
877.006	-0.07
877.289	-0.11
877.572	-0.08
877.854	-0.14
878.137	-0.18
878.42	-0.1
878.702	-0.11
878.984	-0.03
879.267	-0.11
879.549	-0.07
879.831	0.01
880.113	-0.07
880.395	-0.09
880.677	-0.14
880.959	-0.02
