Data from Rubpy_EV_EDTA_Flow_Absorbance_14-07-12-462.txt Node
Date: Fri Jul 03 14:07:12 BST 2026
User: fpm-admin
Spectrometer: OFX00224
Trigger mode: 0
Integration Time (sec): 1.200000E-2
Scans to average: 3
Nonlinearity correction enabled: false
Boxcar width: 0
Storing dark spectrum: false
XAxis mode: Wavelengths
Number of Pixels in Spectrum: 2136
>>>>>Begin Spectral Data<<<<<
154.91	-0
155.289	-0
155.669	0.59
156.048	0.76
156.428	0.13
156.807	-0
157.186	0.35
157.566	-0
157.945	-0
158.325	0.85
158.704	-0
159.083	-0
159.462	-1.04
159.842	-0.64
160.221	-0
160.6	-0
160.979	-0
161.359	-0
161.738	-0
162.117	-0
162.496	-0
162.875	-0.6
163.254	-0
163.633	-0.09
164.012	-0
164.391	-1.26
164.77	-0
165.149	0.66
165.528	-0
165.907	-0
166.286	-0
166.665	-0
167.044	-0
167.423	-0
167.802	0.18
168.181	-0
168.559	-0
168.938	-0
169.317	-0
169.696	0.48
170.074	-0
170.453	0.45
170.832	-0.11
171.21	0.85
171.589	0.1
171.968	0.65
172.346	0.02
172.725	0.48
173.103	-0.88
173.482	-0
173.861	-0
174.239	0.58
174.617	0.44
174.996	-0.39
175.374	0.21
175.753	-0
176.131	0.5
176.51	0.47
176.888	-0
177.266	-0.57
177.645	0.13
178.023	-0
178.401	-0.01
178.779	0.03
179.158	-0
179.536	0.36
179.914	-0
180.292	-0
180.67	-0.36
181.048	0.3
181.427	-0
181.805	-0.7
182.183	0.9
182.561	-0
182.939	-0
183.317	-0
183.695	0.81
184.073	0.2
184.451	1.04
184.829	-0.24
185.206	-0
185.584	-0.08
185.962	-0.35
186.34	-0.28
186.718	-0
187.096	-0
187.473	-0
187.851	0.06
188.229	-0
188.607	0.07
188.984	-0.07
189.362	-0.01
189.74	0.01
190.117	-0.05
190.495	0.01
190.872	0.02
191.25	-0.03
191.627	0.13
192.005	-0.05
192.382	-0.01
192.76	-0.06
193.137	0.01
193.515	0.04
193.892	0.12
194.269	-0.02
194.647	-0.12
195.024	-0.06
195.401	-0.01
195.779	0.04
196.156	0
196.533	0.04
196.91	-0.01
197.288	0.07
197.665	0.01
198.042	-0.03
198.419	0.04
198.796	-0.02
199.173	-0.04
199.55	-0
199.927	0.01
200.304	-0.14
200.681	-0.13
201.058	-0.1
201.435	0
201.812	-0.03
202.189	-0.06
202.566	0.01
202.943	-0.1
203.32	-0.04
203.697	-0.18
204.073	0.04
204.45	0.05
204.827	-0.01
205.204	-0.1
205.58	0.04
205.957	-0
206.334	-0.11
206.71	-0.06
207.087	-0.08
207.464	-0.04
207.84	-0.02
208.217	0.03
208.593	-0.07
208.97	0.03
209.346	-0.05
209.723	-0
210.099	0
210.476	0
210.852	-0.1
211.228	0
211.605	-0.1
211.981	-0.03
212.357	0.04
212.733	0.06
213.11	0.06
213.486	0.01
213.862	-0.05
214.238	-0.04
214.614	0.02
214.991	-0.06
215.367	0.04
215.743	0.04
216.119	0.01
216.495	-0.07
216.871	-0.07
217.247	0.07
217.623	0.09
217.999	0.09
218.375	-0.03
218.751	-0.03
219.127	-0.01
219.502	0.05
219.878	-0
220.254	0.05
220.63	0.01
221.006	-0.04
221.381	-0.05
221.757	-0.14
222.133	0.04
222.508	0.02
222.884	-0.02
223.26	-0.02
223.635	0.02
224.011	0.06
224.386	0.03
224.762	-0.04
225.137	0.01
225.513	-0.02
225.888	-0.05
226.264	-0.04
226.639	0.03
227.014	0.02
227.39	-0
227.765	0.02
228.14	0.01
228.516	-0.12
228.891	0.02
229.266	-0.04
229.641	-0.01
230.017	-0
230.392	0.02
230.767	-0.13
231.142	-0.08
231.517	0.01
231.892	0
232.267	0.04
232.642	-0.03
233.017	-0
233.392	-0
233.767	-0.06
234.142	-0.04
234.517	-0.03
234.892	-0.05
235.267	-0.1
235.641	-0.07
236.016	-0.04
236.391	-0.02
236.766	-0.04
237.14	0.01
237.515	0
237.89	-0.06
238.264	0.03
238.639	0.11
239.014	0.04
239.388	0.05
239.763	-0.05
240.137	0.02
240.512	-0.09
240.886	-0.03
241.261	-0
241.635	-0.02
242.009	0.02
242.384	0.01
242.758	0.01
243.132	0.07
243.507	0.04
243.881	0.03
244.255	-0.03
244.629	-0.08
245.004	0.01
245.378	-0.06
245.752	-0.12
246.126	-0.09
246.5	0
246.874	-0.06
247.248	-0.04
247.622	0
247.996	0.07
248.37	0.03
248.744	0
249.118	0
249.492	0
249.866	-0.04
250.24	-0
250.613	-0
250.987	0.04
251.361	0.05
251.735	-0.03
252.108	-0.04
252.482	-0.04
252.856	-0.07
253.229	0.01
253.603	-0.04
253.977	-0.05
254.35	0.01
254.724	-0.08
255.097	0
255.471	0
255.844	-0.07
256.218	0.05
256.591	0.02
256.964	-0.05
257.338	-0.01
257.711	-0.04
258.084	-0.01
258.458	-0
258.831	-0.12
259.204	-0.03
259.577	-0.08
259.95	0
260.323	-0.03
260.697	-0.1
261.07	-0.03
261.443	0.03
261.816	-0.03
262.189	-0.01
262.562	0.04
262.935	-0.02
263.308	0.08
263.68	-0.01
264.053	-0.03
264.426	0.02
264.799	-0.01
265.172	-0.06
265.545	0.02
265.917	-0.07
266.29	0.07
266.663	0.02
267.035	-0
267.408	-0.1
267.781	-0.04
268.153	0.09
268.526	0.01
268.898	-0.01
269.271	0.02
269.643	0.01
270.016	0.01
270.388	0.01
270.76	-0.03
271.133	0.01
271.505	-0.02
271.877	0.09
272.25	-0.03
272.622	-0.05
272.994	0.08
273.366	0.03
273.739	0.04
274.111	0
274.483	0.04
274.855	-0.06
275.227	-0
275.599	-0.02
275.971	0.07
276.343	0.1
276.715	0.12
277.087	0.02
277.459	0.11
277.831	-0.04
278.203	0.08
278.574	-0
278.946	-0.07
279.318	0.01
279.69	-0
280.061	-0.01
280.433	-0.01
280.805	0.02
281.176	-0.01
281.548	0.07
281.92	-0.03
282.291	0.02
282.663	0.06
283.034	0.07
283.406	-0.01
283.777	0
284.148	0.08
284.52	0.15
284.891	0.04
285.262	0
285.634	-0.04
286.005	-0.06
286.376	0.01
286.747	0
287.119	-0
287.49	-0.03
287.861	0.01
288.232	0.07
288.603	0.1
288.974	0.02
289.345	-0.01
289.716	-0.03
290.087	0.07
290.458	0.05
290.829	0
291.2	-0.01
291.571	0.06
291.941	0.05
292.312	0.03
292.683	0.09
293.054	0.02
293.424	-0.14
293.795	0.07
294.166	-0.09
294.536	0.01
294.907	0.04
295.277	0.09
295.648	0.03
296.018	0.07
296.389	-0.03
296.759	-0.01
297.13	0.07
297.5	0.03
297.871	0.06
298.241	0.03
298.611	-0.02
298.981	0.09
299.352	0.02
299.722	-0.02
300.092	0.08
300.462	0.12
300.832	-0.01
301.202	0.01
301.573	-0.03
301.943	0.01
302.313	0.01
302.683	-0
303.053	-0.06
303.422	0.06
303.792	0.06
304.162	-0.06
304.532	-0.02
304.902	-0.01
305.272	0.02
305.641	0.04
306.011	0.06
306.381	-0
306.75	0.01
307.12	0.05
307.49	-0
307.859	-0.02
308.229	0.08
308.598	0.05
308.968	0.03
309.337	0.01
309.707	0.06
310.076	0.03
310.445	-0
310.815	0.05
311.184	0.05
311.553	0
311.923	0.06
312.292	-0.01
312.661	0.04
313.03	0.03
313.399	0.06
313.768	0.02
314.137	0.03
314.506	0.01
314.875	0.05
315.244	0.04
315.613	0.03
315.982	0.04
316.351	0.03
316.72	0.04
317.089	0.05
317.458	0.06
317.826	0.06
318.195	0.04
318.564	0.05
318.933	0.04
319.301	0.05
319.67	0.03
320.038	0.03
320.407	0.05
320.775	0.02
321.144	0.05
321.512	0.05
321.881	0.03
322.249	0.03
322.618	0.06
322.986	0.03
323.354	0.04
323.723	0.04
324.091	0.05
324.459	0.05
324.827	0.05
325.195	0.07
325.564	0.04
325.932	0.03
326.3	0.04
326.668	0.05
327.036	0.04
327.404	0.04
327.772	0.03
328.14	0.02
328.508	0.04
328.875	0.04
329.243	0.03
329.611	0.03
329.979	0.03
330.346	0.04
330.714	0.04
331.082	0.04
331.449	0.03
331.817	0.04
332.185	0.03
332.552	0.04
332.92	0.04
333.287	0.04
333.655	0.04
334.022	0.03
334.389	0.04
334.757	0.03
335.124	0.04
335.491	0.03
335.859	0.04
336.226	0.04
336.593	0.04
336.96	0.03
337.327	0.03
337.695	0.04
338.062	0.04
338.429	0.04
338.796	0.03
339.163	0.03
339.53	0.03
339.897	0.04
340.263	0.05
340.63	0.03
340.997	0.03
341.364	0.04
341.731	0.03
342.097	0.04
342.464	0.03
342.831	0.04
343.197	0.04
343.564	0.04
343.931	0.04
344.297	0.04
344.664	0.04
345.03	0.04
345.396	0.04
345.763	0.04
346.129	0.04
346.496	0.04
346.862	0.04
347.228	0.04
347.594	0.05
347.961	0.04
348.327	0.04
348.693	0.04
349.059	0.04
349.425	0.04
349.791	0.04
350.157	0.04
350.523	0.04
350.889	0.05
351.255	0.05
351.621	0.05
351.987	0.05
352.353	0.05
352.719	0.05
353.084	0.05
353.45	0.05
353.816	0.05
354.181	0.05
354.547	0.05
354.913	0.06
355.278	0.05
355.644	0.05
356.009	0.05
356.375	0.05
356.74	0.06
357.106	0.05
357.471	0.05
357.836	0.06
358.202	0.06
358.567	0.06
358.932	0.06
359.297	0.06
359.663	0.06
360.028	0.06
360.393	0.06
360.758	0.07
361.123	0.07
361.488	0.06
361.853	0.05
362.218	0.07
362.583	0.06
362.948	0.05
363.312	0.06
363.677	0.06
364.042	0.06
364.407	0.07
364.772	0.07
365.136	0.06
365.501	0.06
365.865	0.07
366.23	0.07
366.595	0.06
366.959	0.07
367.324	0.06
367.688	0.07
368.052	0.07
368.417	0.07
368.781	0.07
369.145	0.07
369.51	0.07
369.874	0.07
370.238	0.07
370.602	0.07
370.967	0.07
371.331	0.07
371.695	0.07
372.059	0.07
372.423	0.08
372.787	0.07
373.151	0.07
373.515	0.07
373.878	0.07
374.242	0.08
374.606	0.07
374.97	0.07
375.334	0.07
375.697	0.06
376.061	0.07
376.425	0.07
376.788	0.07
377.152	0.07
377.515	0.07
377.879	0.07
378.242	0.07
378.606	0.07
378.969	0.07
379.333	0.07
379.696	0.07
380.059	0.07
380.422	0.07
380.786	0.07
381.149	0.08
381.512	0.08
381.875	0.08
382.238	0.08
382.601	0.08
382.964	0.09
383.327	0.09
383.69	0.09
384.053	0.09
384.416	0.1
384.779	0.09
385.142	0.1
385.504	0.1
385.867	0.11
386.23	0.1
386.593	0.1
386.955	0.1
387.318	0.11
387.68	0.11
388.043	0.11
388.405	0.11
388.768	0.1
389.13	0.1
389.493	0.1
389.855	0.1
390.217	0.1
390.58	0.1
390.942	0.1
391.304	0.1
391.666	0.1
392.028	0.1
392.391	0.11
392.753	0.11
393.115	0.11
393.477	0.11
393.839	0.12
394.201	0.12
394.563	0.12
394.924	0.13
395.286	0.13
395.648	0.14
396.01	0.14
396.371	0.15
396.733	0.15
397.095	0.16
397.456	0.16
397.818	0.16
398.18	0.16
398.541	0.15
398.903	0.15
399.264	0.14
399.625	0.14
399.987	0.13
400.348	0.13
400.709	0.12
401.071	0.13
401.432	0.12
401.793	0.12
402.154	0.1
402.515	0.11
402.876	0.09
403.238	0.09
403.599	0.09
403.96	0.08
404.32	0.08
404.681	0.07
405.042	0.08
405.403	0.07
405.764	0.07
406.125	0.06
406.485	0.07
406.846	0.05
407.207	0.06
407.567	0.06
407.928	0.06
408.288	0.06
408.649	0.05
409.009	0.05
409.37	0.06
409.73	0.05
410.091	0.05
410.451	0.04
410.811	0.05
411.171	0.04
411.532	0.05
411.892	0.04
412.252	0.05
412.612	0.04
412.972	0.05
413.332	0.05
413.692	0.04
414.052	0.05
414.412	0.05
414.772	0.05
415.132	0.05
415.492	0.05
415.851	0.04
416.211	0.04
416.571	0.05
416.931	0.05
417.29	0.04
417.65	0.04
418.009	0.04
418.369	0.04
418.728	0.06
419.088	0.05
419.447	0.05
419.807	0.05
420.166	0.04
420.525	0.05
420.884	0.06
421.244	0.05
421.603	0.06
421.962	0.04
422.321	0.05
422.68	0.04
423.039	0.04
423.398	0.05
423.757	0.04
424.116	0.04
424.475	0.04
424.834	0.05
425.193	0.05
425.551	0.05
425.91	0.05
426.269	0.05
426.628	0.05
426.986	0.05
427.345	0.05
427.703	0.03
428.062	0.05
428.42	0.05
428.779	0.03
429.137	0.05
429.496	0.03
429.854	0.05
430.212	0.04
430.57	0.04
430.929	0.04
431.287	0.04
431.645	0.05
432.003	0.04
432.361	0.05
432.719	0.06
433.077	0.05
433.435	0.05
433.793	0.05
434.151	0.05
434.509	0.06
434.866	0.05
435.224	0.05
435.582	0.04
435.94	0.04
436.297	0.04
436.655	0.03
437.012	0.05
437.37	0.04
437.727	0.03
438.085	0.04
438.442	0.04
438.8	0.05
439.157	0.05
439.514	0.07
439.872	0.04
440.229	0.04
440.586	0.05
440.943	0.03
441.3	0.03
441.657	0.03
442.014	0.03
442.371	0.05
442.728	0.03
443.085	0.05
443.442	0.04
443.799	0.05
444.156	0.03
444.513	0.05
444.869	0.05
445.226	0.03
445.583	0.05
445.939	0.04
446.296	0.03
446.652	0.04
447.009	0.04
447.365	0.04
447.722	0.04
448.078	0.05
448.434	0.05
448.791	0.06
449.147	0.05
449.503	0.05
449.859	0.04
450.215	0.03
450.571	0.03
450.928	0.05
451.284	0.04
451.64	0.05
451.995	0.04
452.351	0.03
452.707	0.07
453.063	0.06
453.419	0.05
453.775	0.05
454.13	0.04
454.486	0.04
454.842	0.03
455.197	0.05
455.553	0.05
455.908	0.03
456.264	0.06
456.619	0.07
456.975	0.05
457.33	0.07
457.685	0.05
458.04	0.06
458.396	0.04
458.751	0.05
459.106	0.05
459.461	0.02
459.816	0.04
460.171	0.05
460.526	0.04
460.881	0.04
461.236	0.03
461.591	0.03
461.946	0.06
462.301	0.03
462.655	0.04
463.01	0.05
463.365	0.04
463.719	0.03
464.074	0.05
464.428	0.03
464.783	0.04
465.137	0.03
465.492	0.04
465.846	0.04
466.201	0.04
466.555	0.04
466.909	0.04
467.263	0.02
467.618	0.04
467.972	0.04
468.326	0.05
468.68	0.03
469.034	0.03
469.388	0.05
469.742	0.04
470.096	0.03
470.45	0.04
470.804	0.04
471.157	0.02
471.511	0.03
471.865	0.04
472.218	0.04
472.572	0.03
472.926	0.04
473.279	0.05
473.633	0.04
473.986	0.04
474.34	0.04
474.693	0.04
475.046	0.04
475.4	0.03
475.753	0.03
476.106	0.03
476.459	0.03
476.812	0.02
477.165	0.02
477.519	0.03
477.872	0.03
478.224	0.02
478.577	0.02
478.93	0.02
479.283	0.03
479.636	0.02
479.989	0.03
480.341	0.02
480.694	0.03
481.047	0.02
481.399	0.02
481.752	0.02
482.104	0.03
482.457	0.01
482.809	0.02
483.162	0.02
483.514	0.01
483.866	0.02
484.219	0.02
484.571	0.02
484.923	0.02
485.275	0.02
485.627	0.02
485.979	0.01
486.331	0.02
486.683	0.02
487.035	0.02
487.387	0.01
487.739	0.01
488.091	0.02
488.443	0.02
488.794	0.02
489.146	0.02
489.498	0.02
489.849	0.02
490.201	0.02
490.552	0.02
490.904	0.01
491.255	0.02
491.607	0.02
491.958	0.02
492.309	0.02
492.661	0.02
493.012	0.02
493.363	0.03
493.714	0.02
494.065	0.02
494.416	0.02
494.767	0.02
495.118	0.02
495.469	0.02
495.82	0.02
496.171	0.02
496.522	0.02
496.872	0.02
497.223	0.02
497.574	0.01
497.924	0.02
498.275	0.01
498.626	0.01
498.976	0.02
499.327	0.02
499.677	0.02
500.027	0.02
500.378	0.02
500.728	0.02
501.078	0.02
501.428	0.02
501.779	0.02
502.129	0.02
502.479	0.02
502.829	0.01
503.179	0.01
503.529	0.02
503.879	0.02
504.229	0.02
504.578	0.02
504.928	0.02
505.278	0.02
505.628	0.02
505.977	0.02
506.327	0.02
506.676	0.02
507.026	0.02
507.375	0.02
507.725	0.02
508.074	0.02
508.424	0.02
508.773	0.02
509.122	0.02
509.471	0.02
509.82	0.02
510.17	0.02
510.519	0.02
510.868	0.02
511.217	0.02
511.566	0.02
511.915	0.02
512.263	0.02
512.612	0.02
512.961	0.02
513.31	0.02
513.659	0.02
514.007	0.02
514.356	0.02
514.704	0.02
515.053	0.02
515.401	0.02
515.75	0.02
516.098	0.01
516.447	0.02
516.795	0.02
517.143	0.02
517.491	0.02
517.839	0.02
518.188	0.02
518.536	0.02
518.884	0.03
519.232	0.02
519.58	0.02
519.928	0.02
520.275	0.02
520.623	0.02
520.971	0.02
521.319	0.02
521.666	0.02
522.014	0.02
522.362	0.02
522.709	0.02
523.057	0.02
523.404	0.02
523.752	0.02
524.099	0.02
524.446	0.02
524.794	0.02
525.141	0.02
525.488	0.02
525.835	0.02
526.182	0.02
526.529	0.03
526.876	0.02
527.223	0.02
527.57	0.02
527.917	0.02
528.264	0.03
528.611	0.03
528.958	0.03
529.304	0.03
529.651	0.02
529.998	0.02
530.344	0.02
530.691	0.03
531.037	0.02
531.384	0.02
531.73	0.02
532.076	0.02
532.423	0.03
532.769	0.03
533.115	0.03
533.461	0.03
533.807	0.03
534.154	0.03
534.5	0.03
534.846	0.02
535.192	0.02
535.537	0.03
535.883	0.02
536.229	0.02
536.575	0.03
536.921	0.02
537.266	0.02
537.612	0.02
537.957	0.03
538.303	0.02
538.649	0.03
538.994	0.03
539.339	0.03
539.685	0.02
540.03	0.03
540.375	0.03
540.721	0.03
541.066	0.03
541.411	0.02
541.756	0.03
542.101	0.03
542.446	0.03
542.791	0.02
543.136	0.03
543.481	0.03
543.825	0.03
544.17	0.03
544.515	0.03
544.86	0.03
545.204	0.03
545.549	0.03
545.893	0.03
546.238	0.03
546.582	0.03
546.927	0.03
547.271	0.03
547.615	0.03
547.96	0.03
548.304	0.03
548.648	0.03
548.992	0.03
549.336	0.03
549.68	0.03
550.024	0.03
550.368	0.03
550.712	0.04
551.056	0.03
551.4	0.04
551.743	0.03
552.087	0.04
552.431	0.03
552.774	0.03
553.118	0.03
553.462	0.03
553.805	0.03
554.148	0.03
554.492	0.03
554.835	0.03
555.178	0.03
555.522	0.03
555.865	0.04
556.208	0.04
556.551	0.04
556.894	0.03
557.237	0.03
557.58	0.03
557.923	0.03
558.266	0.04
558.609	0.04
558.952	0.03
559.294	0.03
559.637	0.03
559.98	0.04
560.322	0.04
560.665	0.03
561.007	0.03
561.35	0.03
561.692	0.03
562.034	0.03
562.377	0.03
562.719	0.03
563.061	0.04
563.403	0.03
563.745	0.03
564.088	0.04
564.43	0.04
564.772	0.03
565.113	0.03
565.455	0.03
565.797	0.04
566.139	0.04
566.481	0.04
566.822	0.04
567.164	0.04
567.506	0.04
567.847	0.04
568.189	0.03
568.53	0.03
568.872	0.04
569.213	0.03
569.554	0.03
569.895	0.03
570.237	0.03
570.578	0.03
570.919	0.03
571.26	0.03
571.601	0.03
571.942	0.03
572.283	0.03
572.624	0.03
572.965	0.03
573.306	0.03
573.646	0.03
573.987	0.03
574.328	0.04
574.668	0.04
575.009	0.03
575.349	0.03
575.69	0.03
576.03	0.03
576.37	0.03
576.711	0.03
577.051	0.03
577.391	0.04
577.731	0.03
578.072	0.03
578.412	0.03
578.752	0.03
579.092	0.03
579.431	0.03
579.771	0.03
580.111	0.02
580.451	0.03
580.791	0.04
581.13	0.04
581.47	0.03
581.81	0.03
582.149	0.03
582.489	0.03
582.828	0.02
583.167	0.02
583.507	0.01
583.846	0.01
584.185	0.01
584.525	0.02
584.864	0.03
585.203	0.04
585.542	0.04
585.881	0.04
586.22	0.03
586.559	0.03
586.898	0.03
587.236	0.03
587.575	0.03
587.914	0.03
588.252	0.04
588.591	0.04
588.93	0.03
589.268	0.03
589.607	0.03
589.945	0.03
590.283	0.04
590.622	0.04
590.96	0.04
591.298	0.04
591.636	0.04
591.974	0.04
592.313	0.04
592.651	0.04
592.989	0.04
593.326	0.04
593.664	0.04
594.002	0.03
594.34	0.03
594.678	0.03
595.015	0.03
595.353	0.04
595.691	0.04
596.028	0.04
596.366	0.05
596.703	0.04
597.04	0.04
597.378	0.04
597.715	0.04
598.052	0.04
598.389	0.05
598.726	0.04
599.064	0.04
599.401	0.04
599.738	0.04
600.074	0.04
600.411	0.04
600.748	0.04
601.085	0.04
601.422	0.04
601.758	0.04
602.095	0.04
602.432	0.04
602.768	0.04
603.105	0.05
603.441	0.05
603.777	0.05
604.114	0.05
604.45	0.05
604.786	0.04
605.122	0.04
605.459	0.04
605.795	0.04
606.131	0.04
606.467	0.05
606.803	0.04
607.139	0.04
607.474	0.04
607.81	0.04
608.146	0.04
608.482	0.04
608.817	0.04
609.153	0.04
609.488	0.04
609.824	0.04
610.159	0.04
610.495	0.04
610.83	0.04
611.165	0.05
611.5	0.05
611.836	0.04
612.171	0.04
612.506	0.04
612.841	0.04
613.176	0.04
613.511	0.04
613.845	0.04
614.18	0.04
614.515	0.04
614.85	0.04
615.184	0.04
615.519	0.04
615.854	0.04
616.188	0.04
616.523	0.04
616.857	0.04
617.191	0.04
617.526	0.04
617.86	0.04
618.194	0.04
618.528	0.04
618.862	0.04
619.196	0.05
619.53	0.04
619.864	0.04
620.198	0.04
620.532	0.04
620.866	0.04
621.2	0.04
621.533	0.04
621.867	0.04
622.201	0.04
622.534	0.04
622.868	0.04
623.201	0.04
623.534	0.04
623.868	0.03
624.201	0.04
624.534	0.04
624.868	0.04
625.201	0.04
625.534	0.04
625.867	0.04
626.2	0.04
626.533	0.04
626.865	0.04
627.198	0.04
627.531	0.04
627.864	0.04
628.196	0.04
628.529	0.04
628.862	0.04
629.194	0.04
629.527	0.04
629.859	0.04
630.191	0.04
630.524	0.04
630.856	0.04
631.188	0.03
631.52	0.03
631.852	0.04
632.184	0.04
632.516	0.04
632.848	0.03
633.18	0.03
633.512	0.04
633.844	0.03
634.175	0.04
634.507	0.03
634.839	0.03
635.17	0.04
635.502	0.03
635.833	0.03
636.165	0.03
636.496	0.03
636.827	0.03
637.159	0.03
637.49	0.03
637.821	0.03
638.152	0.03
638.483	0.03
638.814	0.03
639.145	0.03
639.476	0.03
639.807	0.03
640.137	0.03
640.468	0.03
640.799	0.03
641.129	0.03
641.46	0.03
641.791	0.03
642.121	0.03
642.451	0.03
642.782	0.02
643.112	0.03
643.442	0.03
643.773	0.03
644.103	0.03
644.433	0.03
644.763	0.03
645.093	0.03
645.423	0.02
645.753	0.02
646.082	0.02
646.412	0.02
646.742	0.02
647.072	0.02
647.401	0.02
647.731	0.02
648.06	0.02
648.39	0.03
648.719	0.02
649.048	0.03
649.378	0.02
649.707	0.02
650.036	0.02
650.365	0.02
650.694	0.02
651.023	0.02
651.352	0.02
651.681	0.03
652.01	0.03
652.339	0.02
652.668	0.02
652.996	0.02
653.325	0.02
653.654	0.02
653.982	0.03
654.311	0.02
654.639	0.02
654.967	0.02
655.296	0.02
655.624	0.02
655.952	0.03
656.28	0.03
656.609	0.02
656.937	0.02
657.265	0.01
657.593	-0.03
657.92	0
658.248	0
658.576	0
658.904	0
659.231	0
659.559	0.03
659.887	0.04
660.214	0.04
660.542	0.03
660.869	0.03
661.196	0.02
661.524	0.02
661.851	0.02
662.178	0.02
662.505	0.03
662.832	0.02
663.159	0.02
663.486	0.02
663.813	0.02
664.14	0.02
664.467	0.02
664.794	0.02
665.12	0.02
665.447	0.02
665.774	0.02
666.1	0.02
666.427	0.02
666.753	0.02
667.079	0.02
667.406	0.02
667.732	0.02
668.058	0.02
668.384	0.02
668.71	0.02
669.036	0.02
669.362	0.02
669.688	0.02
670.014	0.02
670.34	0.02
670.666	0.02
670.991	0.02
671.317	0.02
671.643	0.02
671.968	0.02
672.294	0.02
672.619	0.02
672.945	0.02
673.27	0.01
673.595	0.01
673.92	0.02
674.246	0.02
674.571	0.02
674.896	0.02
675.221	0.02
675.546	0.02
675.87	0.02
676.195	0.02
676.52	0.02
676.845	0.02
677.169	0.02
677.494	0.02
677.819	0.02
678.143	0.02
678.468	0.02
678.792	0.02
679.116	0.02
679.44	0.02
679.765	0.01
680.089	0.01
680.413	0.02
680.737	0.02
681.061	0.02
681.385	0.02
681.709	0.02
682.033	0.02
682.356	0.02
682.68	0.02
683.004	0.02
683.327	0.02
683.651	0.01
683.974	0.01
684.298	0.01
684.621	0.01
684.944	0.02
685.268	0.02
685.591	0.01
685.914	0.01
686.237	0.01
686.56	0.01
686.883	0.01
687.206	0.01
687.529	0.01
687.852	0.02
688.175	0.01
688.497	0.02
688.82	0.02
689.142	0.01
689.465	0.01
689.787	0.01
690.11	0.01
690.432	0.01
690.755	0.01
691.077	0.01
691.399	0.01
691.721	0.01
692.043	0.01
692.365	0.01
692.687	0.01
693.009	0.01
693.331	0.01
693.653	0.01
693.974	0.01
694.296	0.01
694.618	0.01
694.939	0.01
695.261	0.01
695.582	0.01
695.904	0.01
696.225	0.01
696.546	0.01
696.868	0.01
697.189	0.01
697.51	0.01
697.831	0.01
698.152	0.01
698.473	0.01
698.794	0
699.114	0.01
699.435	0.01
699.756	0.01
700.077	0.01
700.397	0.01
700.718	0.01
701.038	0.01
701.359	0.01
701.679	0.01
701.999	0.01
702.32	0.01
702.64	0.01
702.96	0.01
703.28	0.01
703.6	0.01
703.92	0.01
704.24	0.01
704.56	0
704.879	0.01
705.199	0.01
705.519	0.01
705.838	0.01
706.158	0.01
706.478	0.01
706.797	0.01
707.116	0
707.436	0.01
707.755	0
708.074	0
708.393	0
708.712	0.01
709.031	0
709.35	0
709.669	0.01
709.988	0.01
710.307	0.01
710.626	0.01
710.944	0.01
711.263	0.01
711.582	0.01
711.9	0.01
712.219	0.01
712.537	0.01
712.855	0.01
713.174	0
713.492	0
713.81	0.01
714.128	0.01
714.446	0
714.764	0
715.082	0
715.4	0.01
715.718	0.01
716.035	0.01
716.353	0.01
716.671	0.01
716.988	0.01
717.306	0.01
717.623	0.01
717.941	0.01
718.258	0.01
718.575	0.01
718.893	0.01
719.21	0.01
719.527	0.01
719.844	0.01
720.161	0.01
720.478	0.01
720.795	0.01
721.112	0.01
721.428	0.01
721.745	0.01
722.062	0.01
722.378	0.01
722.695	0.01
723.011	0.01
723.328	0.01
723.644	0.01
723.96	0.01
724.276	0.01
724.593	0.01
724.909	0.01
725.225	0.01
725.541	0.01
725.857	0.01
726.173	0.01
726.488	0.01
726.804	0
727.12	0
727.435	0.01
727.751	0.01
728.067	0.01
728.382	0.01
728.697	0.01
729.013	0.01
729.328	0.01
729.643	0
729.958	0.01
730.273	0.01
730.588	0.01
730.903	0.01
731.218	0.01
731.533	0.01
731.848	0.01
732.163	0.01
732.477	0
732.792	0.01
733.107	0
733.421	0.01
733.736	0.01
734.05	0.01
734.364	0.01
734.678	0.01
734.993	0.01
735.307	0.01
735.621	0.01
735.935	0.01
736.249	0.01
736.563	0.01
736.877	0.01
737.19	0.01
737.504	0
737.818	0.01
738.131	0.01
738.445	0.01
738.758	0.01
739.072	0.01
739.385	0.01
739.698	0.01
740.012	0.01
740.325	0
740.638	0
740.951	0
741.264	0
741.577	0.01
741.89	0.01
742.203	0.01
742.515	0.01
742.828	0.01
743.141	0.01
743.453	0.01
743.766	0.01
744.078	0.01
744.391	0.01
744.703	0.01
745.015	0.01
745.327	0.01
745.639	0.01
745.952	0.01
746.264	0.01
746.575	0.01
746.887	0
747.199	0
747.511	0
747.823	0
748.134	0
748.446	0
748.757	0
749.069	0
749.38	0.01
749.692	0.01
750.003	0.01
750.314	0
750.625	0
750.936	0
751.248	0
751.559	0
751.869	0.01
752.18	0
752.491	0.01
752.802	0.01
753.112	0.01
753.423	0.01
753.734	0
754.044	0.01
754.355	0.01
754.665	0.01
754.975	0.01
755.285	0
755.596	0
755.906	0.01
756.216	0.01
756.526	0.01
756.836	0
757.146	0.01
757.455	0.01
757.765	0
758.075	0
758.385	0
758.694	0
759.004	0
759.313	0.01
759.622	0
759.932	0.01
760.241	0.01
760.55	0.01
760.859	0.01
761.168	0
761.477	0
761.786	0
762.095	0
762.404	0
762.713	0
763.021	0
763.33	0.01
763.639	0.01
763.947	0
764.256	0.01
764.564	0.01
764.872	0
765.181	0.01
765.489	0
765.797	0
766.105	0
766.413	0
766.721	0
767.029	0
767.337	0.01
767.644	0.01
767.952	0.01
768.26	0.01
768.567	0.01
768.875	0.01
769.182	0
769.49	0.01
769.797	0
770.104	0
770.411	0
770.718	0.01
771.026	0
771.333	0
771.639	0
771.946	0
772.253	0
772.56	0
772.867	0
773.173	0.01
773.48	0
773.786	0
774.093	0
774.399	0
774.705	0
775.012	0
775.318	0
775.624	0
775.93	-0
776.236	0
776.542	0
776.848	-0
777.154	0
777.459	0
777.765	-0
778.071	0.01
778.376	0
778.682	-0
778.987	0
779.292	0
779.598	0
779.903	0
780.208	-0
780.513	-0
780.818	-0
781.123	0
781.428	0
781.733	0
782.038	-0
782.343	0
782.647	-0
782.952	0
783.256	-0
783.561	0
783.865	-0
784.17	-0
784.474	0
784.778	0
785.082	0
785.386	0
785.69	-0
785.994	0.01
786.298	0
786.602	0
786.906	-0
787.209	0
787.513	0
787.817	-0
788.12	0
788.424	0.01
788.727	0
789.03	-0
789.333	0
789.637	0
789.94	-0
790.243	-0
790.546	0
790.849	-0
791.152	-0
791.454	0.01
791.757	0
792.06	0
792.362	0
792.665	0
792.967	0
793.27	-0
793.572	-0
793.874	-0
794.177	0
794.479	-0
794.781	-0
795.083	-0
795.385	-0
795.687	0
795.989	-0
796.29	0
796.592	0
796.894	0
797.195	0
797.497	0.01
797.798	0
798.1	0.01
798.401	0
798.702	0
799.003	0
799.304	0
799.605	0
799.906	0
800.207	0
800.508	0
800.809	0.01
801.11	0.01
801.41	0.01
801.711	0
802.011	0.01
802.312	0
802.612	0
802.913	-0
803.213	0
803.513	-0
803.813	-0
804.113	-0
804.413	-0
804.713	-0
805.013	-0
805.313	-0.01
805.613	-0.01
805.912	-0
806.212	0
806.511	0
806.811	-0.01
807.11	-0
807.41	-0
807.709	-0
808.008	-0
808.307	-0
808.606	0
808.905	0.01
809.204	-0.01
809.503	-0
809.802	0
810.101	0.01
810.399	0
810.698	0.01
810.997	0.01
811.295	-0
811.593	0
811.892	-0
812.19	0.01
812.488	0
812.786	0
813.084	0
813.383	-0
813.68	0
813.978	-0
814.276	0
814.574	0.01
814.872	0
815.169	-0
815.467	-0.01
815.764	-0
816.062	0
816.359	0.01
816.656	0.01
816.954	0.01
817.251	-0
817.548	-0
817.845	0.01
818.142	-0
818.439	-0
818.735	-0
819.032	-0
819.329	-0
819.626	-0
819.922	-0
820.219	0
820.515	0.01
820.811	0
821.108	-0.01
821.404	-0.01
821.7	-0.01
821.996	-0.01
822.292	0
822.588	-0.01
822.884	-0
823.18	-0
823.475	0
823.771	-0.01
824.067	-0
824.362	-0
824.658	-0
824.953	-0
825.249	0
825.544	-0
825.839	-0
826.134	0
826.429	-0
826.724	0
827.019	-0.01
827.314	0
827.609	0
827.904	0
828.198	-0.01
828.493	-0.01
828.787	0
829.082	0
829.376	-0
829.671	0
829.965	0.01
830.259	0.01
830.553	0.01
830.847	0
831.141	-0.01
831.435	-0
831.729	-0
832.023	-0.01
832.317	0
832.61	-0
832.904	0.01
833.197	-0.01
833.491	0
833.784	-0
834.077	0
834.371	0
834.664	-0
834.957	-0.01
835.25	-0
835.543	-0.01
835.836	0
836.129	-0.01
836.421	-0.01
836.714	0
837.007	-0
837.299	0
837.592	0
837.884	0.01
838.177	-0
838.469	-0.01
838.761	-0.01
839.053	-0
839.345	-0
839.637	-0
839.929	-0.01
840.221	0.01
840.513	0
840.805	-0.01
841.096	-0
841.388	-0
841.68	-0
841.971	-0
842.262	-0.01
842.554	-0.02
842.845	0.01
843.136	-0.01
843.427	0.01
843.718	0
844.009	0
844.3	0.01
844.591	-0
844.882	-0
845.173	-0.01
845.463	-0.01
845.754	-0.01
846.044	0
846.335	-0.01
846.625	0.01
846.915	-0.01
847.206	0.01
847.496	-0.01
847.786	-0
848.076	-0.01
848.366	-0.02
848.656	-0
848.945	0.01
849.235	-0.01
849.525	-0.01
849.814	-0.01
850.104	-0
850.393	-0.03
850.683	0.01
850.972	-0.01
851.261	0
851.551	0
851.84	-0.01
852.129	-0.02
852.418	-0.01
852.707	0
852.995	0.01
853.284	-0.01
853.573	-0.01
853.862	-0
854.15	-0.02
854.439	0.02
854.727	-0
855.015	-0
855.304	0.01
855.592	-0.01
855.88	-0.02
856.168	0.01
856.456	-0.01
856.744	0.01
857.032	0
857.32	-0
857.607	0.01
857.895	-0.02
858.183	0.01
858.47	0.01
858.757	-0
859.045	-0.02
859.332	-0.03
859.619	-0.01
859.907	-0.01
860.194	0.02
860.481	0.01
860.768	0.01
861.054	-0
861.341	-0.02
861.628	0.01
861.915	0.02
862.201	0
862.488	-0.02
862.774	-0.02
863.061	0.01
863.347	-0.02
863.633	-0.02
863.919	0.02
864.205	0.03
864.491	-0
864.777	-0.01
865.063	-0.01
865.349	0.01
865.635	0
865.92	-0.02
866.206	0.01
866.492	-0.01
866.777	0
867.062	0.01
867.348	0
867.633	0.03
867.918	0.05
868.203	0
868.488	-0.03
868.773	0.02
869.058	0.01
869.343	0.05
869.628	-0.02
869.912	-0.02
870.197	-0
870.482	-0.01
870.766	0.01
871.05	-0.03
871.335	-0.03
871.619	0.02
871.903	-0.06
872.187	-0.02
872.471	0.01
872.755	-0.01
873.039	-0.02
873.323	-0.01
873.607	0.04
873.89	-0.05
874.174	-0.09
874.458	0.04
874.741	-0.11
875.024	-0.05
875.308	-0.04
875.591	-0.04
875.874	-0.05
876.157	0.04
876.44	-0.12
876.723	-0.08
877.006	-0.09
877.289	-0.06
877.572	-0.06
877.854	-0.1
878.137	-0.17
878.42	-0.08
878.702	-0.04
878.984	-0.08
879.267	0.07
879.549	0.01
879.831	-0
880.113	0.04
880.395	-0.02
880.677	-0.08
880.959	-0.05
