Data from Rubpy_EV_EDTA_Flow_Absorbance_14-52-49-506.txt Node
Date: Fri Jul 03 14:52:49 BST 2026
User: fpm-admin
Spectrometer: OFX00224
Trigger mode: 0
Integration Time (sec): 1.200000E-2
Scans to average: 3
Nonlinearity correction enabled: false
Boxcar width: 0
Storing dark spectrum: false
XAxis mode: Wavelengths
Number of Pixels in Spectrum: 2136
>>>>>Begin Spectral Data<<<<<
154.91	-0.54
155.289	-0.3
155.669	0.38
156.048	0.32
156.428	0.68
156.807	-0
157.186	0.39
157.566	-0
157.945	0.04
158.325	-0
158.704	-0
159.083	0.85
159.462	-0
159.842	-0.35
160.221	-0
160.6	-0
160.979	-0
161.359	-0
161.738	-0
162.117	-0
162.496	-0
162.875	-1.36
163.254	-0
163.633	-0
164.012	-0
164.391	-0.78
164.77	-0
165.149	0.13
165.528	-0.16
165.907	-0.15
166.286	0.77
166.665	-0
167.044	-0
167.423	-0
167.802	0.15
168.181	-0
168.559	-0
168.938	-0.64
169.317	-0
169.696	-0
170.074	0.97
170.453	-0
170.832	-0
171.21	-0
171.589	-0.69
171.968	0.65
172.346	-0
172.725	0.96
173.103	-0.95
173.482	0.25
173.861	-0
174.239	0.18
174.617	0.06
174.996	-0
175.374	1.15
175.753	-0
176.131	1.07
176.51	0.03
176.888	-0
177.266	-0.6
177.645	0.08
178.023	-0
178.401	-0.14
178.779	0.19
179.158	-0
179.536	0.05
179.914	-0
180.292	-0
180.67	-0
181.048	-1.22
181.427	-0
181.805	-0
182.183	-0
182.561	0.47
182.939	-0
183.317	-0
183.695	-0.34
184.073	-0
184.451	0.09
184.829	0.6
185.206	-0
185.584	0.32
185.962	0.02
186.34	-0
186.718	-0
187.096	-0
187.473	-0
187.851	-0.15
188.229	0.64
188.607	0.04
188.984	-0.07
189.362	-0.03
189.74	0.05
190.117	-0.03
190.495	0.01
190.872	0.08
191.25	0.09
191.627	0.12
192.005	0.03
192.382	0.05
192.76	0.01
193.137	0.05
193.515	0.08
193.892	0.16
194.269	0.12
194.647	-0.08
195.024	-0.06
195.401	-0.06
195.779	0.04
196.156	-0.01
196.533	-0.01
196.91	0.02
197.288	0.07
197.665	0.09
198.042	0
198.419	0.03
198.796	0.07
199.173	0.11
199.55	0.04
199.927	0
200.304	0.1
200.681	0.02
201.058	-0.09
201.435	0.03
201.812	-0.01
202.189	-0.01
202.566	-0.05
202.943	0.03
203.32	0.03
203.697	-0.05
204.073	0.08
204.45	0.04
204.827	-0.04
205.204	-0.06
205.58	0.09
205.957	0.09
206.334	-0.04
206.71	-0
207.087	-0.06
207.464	0.01
207.84	0.04
208.217	0.09
208.593	-0.04
208.97	0.05
209.346	-0.02
209.723	-0
210.099	0.05
210.476	0.06
210.852	-0.04
211.228	-0.01
211.605	-0.07
211.981	-0.02
212.357	0.02
212.733	0.08
213.11	0.04
213.486	0.05
213.862	0.06
214.238	0.06
214.614	0.09
214.991	0.02
215.367	0.04
215.743	-0.01
216.119	-0.02
216.495	0.06
216.871	0.04
217.247	0.15
217.623	0.04
217.999	0.12
218.375	0.02
218.751	0.09
219.127	0.02
219.502	0.04
219.878	0.03
220.254	0.02
220.63	-0.03
221.006	0.04
221.381	-0.01
221.757	-0.06
222.133	0.05
222.508	0.09
222.884	-0.01
223.26	0.03
223.635	-0.02
224.011	0.11
224.386	0.05
224.762	0.05
225.137	-0.06
225.513	0
225.888	-0.02
226.264	-0
226.639	0.03
227.014	0.07
227.39	0.02
227.765	0.04
228.14	0.02
228.516	0.01
228.891	0.08
229.266	0.03
229.641	0.11
230.017	0.02
230.392	0.07
230.767	-0.11
231.142	-0.01
231.517	0.02
231.892	-0
232.267	0.09
232.642	0.02
233.017	0.01
233.392	0.01
233.767	0.09
234.142	0.02
234.517	-0.04
234.892	-0.03
235.267	-0.1
235.641	-0.04
236.016	-0.01
236.391	-0.03
236.766	0.03
237.14	0.23
237.515	0.07
237.89	-0.02
238.264	0.07
238.639	0.18
239.014	-0.03
239.388	0.05
239.763	-0.02
240.137	0.02
240.512	0
240.886	-0.02
241.261	-0.06
241.635	-0.04
242.009	0.02
242.384	-0.02
242.758	-0
243.132	-0.01
243.507	0.02
243.881	0.08
244.255	0.01
244.629	-0.05
245.004	0.05
245.378	0.02
245.752	-0.05
246.126	0.01
246.5	-0.01
246.874	-0.08
247.248	0
247.622	0.09
247.996	0.06
248.37	0.03
248.744	0.1
249.118	0.13
249.492	0.13
249.866	-0
250.24	-0.04
250.613	-0
250.987	0.04
251.361	0.1
251.735	-0.03
252.108	-0.04
252.482	0.03
252.856	-0.01
253.229	0.01
253.603	-0.02
253.977	-0.01
254.35	0.14
254.724	-0.01
255.097	0.01
255.471	0.05
255.844	-0.02
256.218	0.11
256.591	0.04
256.964	0
257.338	-0.05
257.711	0.03
258.084	0.04
258.458	0.05
258.831	-0.05
259.204	0.03
259.577	0.02
259.95	0.09
260.323	0
260.697	-0.01
261.07	0.04
261.443	-0
261.816	-0.02
262.189	0.07
262.562	0.04
262.935	0.03
263.308	0.13
263.68	0.05
264.053	0.05
264.426	0.1
264.799	0
265.172	0.08
265.545	0.03
265.917	-0.04
266.29	0.07
266.663	0
267.035	0.05
267.408	-0.03
267.781	0.05
268.153	0.08
268.526	0.1
268.898	0.04
269.271	0.06
269.643	0.05
270.016	0.06
270.388	0.12
270.76	0.01
271.133	0.03
271.505	0.1
271.877	0.07
272.25	0.1
272.622	-0.02
272.994	0.07
273.366	0.05
273.739	0.03
274.111	0.07
274.483	0.07
274.855	-0.02
275.227	0.1
275.599	0.01
275.971	0.15
276.343	0.06
276.715	0.16
277.087	0.06
277.459	0.08
277.831	-0.03
278.203	0.11
278.574	0
278.946	-0.08
279.318	0
279.69	-0.03
280.061	0.04
280.433	0.04
280.805	0.09
281.176	0.04
281.548	0.07
281.92	0.04
282.291	0.05
282.663	0.07
283.034	0
283.406	-0.01
283.777	0.05
284.148	0.09
284.52	0.12
284.891	0.07
285.262	-0
285.634	0.02
286.005	0.1
286.376	0.01
286.747	-0
287.119	0
287.49	0.09
287.861	0.06
288.232	0.03
288.603	0.05
288.974	0.1
289.345	0.04
289.716	-0.01
290.087	0.11
290.458	0.03
290.829	0.02
291.2	0.01
291.571	0.1
291.941	0.14
292.312	0
292.683	0.12
293.054	0.03
293.424	0.02
293.795	0.1
294.166	-0.01
294.536	0.03
294.907	0.04
295.277	0.08
295.648	0.09
296.018	0.08
296.389	-0.02
296.759	0.04
297.13	0.09
297.5	-0
297.871	0.06
298.241	0.09
298.611	-0.02
298.981	0.05
299.352	-0.01
299.722	0.03
300.092	0.02
300.462	0.07
300.832	0.03
301.202	0.05
301.573	-0.01
301.943	0.01
302.313	0.06
302.683	0.03
303.053	-0
303.422	0.02
303.792	-0.02
304.162	0.05
304.532	0.07
304.902	-0.02
305.272	0.02
305.641	0.06
306.011	-0.02
306.381	0.06
306.75	0.03
307.12	0.06
307.49	0.02
307.859	0.03
308.229	0.05
308.598	0.03
308.968	0.03
309.337	0.02
309.707	0.09
310.076	0.08
310.445	0.02
310.815	0.05
311.184	0.07
311.553	0.06
311.923	0.06
312.292	0.06
312.661	0.05
313.03	0.02
313.399	0.06
313.768	0.04
314.137	0.07
314.506	0.03
314.875	0.06
315.244	0.05
315.613	0.03
315.982	0.07
316.351	0.05
316.72	0.05
317.089	0.07
317.458	0.07
317.826	0.07
318.195	0.05
318.564	0.06
318.933	0.03
319.301	0.05
319.67	0.07
320.038	0.07
320.407	0.06
320.775	0.05
321.144	0.06
321.512	0.05
321.881	0.06
322.249	0.07
322.618	0.07
322.986	0.04
323.354	0.06
323.723	0.06
324.091	0.07
324.459	0.07
324.827	0.06
325.195	0.08
325.564	0.06
325.932	0.05
326.3	0.07
326.668	0.07
327.036	0.05
327.404	0.05
327.772	0.06
328.14	0.05
328.508	0.04
328.875	0.06
329.243	0.06
329.611	0.06
329.979	0.05
330.346	0.05
330.714	0.05
331.082	0.06
331.449	0.04
331.817	0.05
332.185	0.04
332.552	0.05
332.92	0.05
333.287	0.04
333.655	0.07
334.022	0.06
334.389	0.05
334.757	0.05
335.124	0.05
335.491	0.06
335.859	0.05
336.226	0.05
336.593	0.06
336.96	0.05
337.327	0.06
337.695	0.06
338.062	0.06
338.429	0.07
338.796	0.06
339.163	0.05
339.53	0.07
339.897	0.07
340.263	0.07
340.63	0.07
340.997	0.07
341.364	0.07
341.731	0.07
342.097	0.07
342.464	0.07
342.831	0.08
343.197	0.08
343.564	0.08
343.931	0.08
344.297	0.08
344.664	0.08
345.03	0.09
345.396	0.08
345.763	0.08
346.129	0.08
346.496	0.08
346.862	0.08
347.228	0.08
347.594	0.09
347.961	0.08
348.327	0.08
348.693	0.09
349.059	0.09
349.425	0.09
349.791	0.09
350.157	0.09
350.523	0.1
350.889	0.09
351.255	0.1
351.621	0.1
351.987	0.1
352.353	0.11
352.719	0.1
353.084	0.1
353.45	0.11
353.816	0.11
354.181	0.11
354.547	0.11
354.913	0.12
355.278	0.12
355.644	0.12
356.009	0.12
356.375	0.12
356.74	0.12
357.106	0.12
357.471	0.13
357.836	0.13
358.202	0.13
358.567	0.14
358.932	0.13
359.297	0.14
359.663	0.14
360.028	0.13
360.393	0.13
360.758	0.14
361.123	0.15
361.488	0.14
361.853	0.14
362.218	0.15
362.583	0.15
362.948	0.14
363.312	0.15
363.677	0.15
364.042	0.15
364.407	0.15
364.772	0.16
365.136	0.15
365.501	0.15
365.865	0.16
366.23	0.16
366.595	0.17
366.959	0.17
367.324	0.17
367.688	0.17
368.052	0.17
368.417	0.17
368.781	0.17
369.145	0.18
369.51	0.17
369.874	0.17
370.238	0.18
370.602	0.18
370.967	0.18
371.331	0.17
371.695	0.18
372.059	0.18
372.423	0.18
372.787	0.17
373.151	0.17
373.515	0.17
373.878	0.17
374.242	0.17
374.606	0.17
374.97	0.17
375.334	0.17
375.697	0.17
376.061	0.17
376.425	0.16
376.788	0.17
377.152	0.17
377.515	0.17
377.879	0.17
378.242	0.17
378.606	0.18
378.969	0.17
379.333	0.17
379.696	0.18
380.059	0.18
380.422	0.17
380.786	0.18
381.149	0.19
381.512	0.19
381.875	0.19
382.238	0.19
382.601	0.2
382.964	0.2
383.327	0.21
383.69	0.21
384.053	0.21
384.416	0.22
384.779	0.23
385.142	0.23
385.504	0.24
385.867	0.24
386.23	0.24
386.593	0.24
386.955	0.24
387.318	0.25
387.68	0.24
388.043	0.24
388.405	0.24
388.768	0.24
389.13	0.23
389.493	0.23
389.855	0.23
390.217	0.23
390.58	0.23
390.942	0.24
391.304	0.24
391.666	0.24
392.028	0.24
392.391	0.25
392.753	0.25
393.115	0.26
393.477	0.26
393.839	0.27
394.201	0.28
394.563	0.29
394.924	0.3
395.286	0.32
395.648	0.33
396.01	0.34
396.371	0.35
396.733	0.36
397.095	0.37
397.456	0.37
397.818	0.37
398.18	0.36
398.541	0.36
398.903	0.36
399.264	0.33
399.625	0.33
399.987	0.31
400.348	0.3
400.709	0.29
401.071	0.29
401.432	0.27
401.793	0.26
402.154	0.24
402.515	0.23
402.876	0.21
403.238	0.2
403.599	0.19
403.96	0.18
404.32	0.17
404.681	0.15
405.042	0.15
405.403	0.14
405.764	0.14
406.125	0.12
406.485	0.12
406.846	0.11
407.207	0.11
407.567	0.1
407.928	0.1
408.288	0.11
408.649	0.1
409.009	0.09
409.37	0.1
409.73	0.09
410.091	0.08
410.451	0.08
410.811	0.08
411.171	0.07
411.532	0.08
411.892	0.08
412.252	0.07
412.612	0.07
412.972	0.07
413.332	0.07
413.692	0.07
414.052	0.07
414.412	0.07
414.772	0.06
415.132	0.07
415.492	0.08
415.851	0.07
416.211	0.07
416.571	0.07
416.931	0.08
417.29	0.06
417.65	0.07
418.009	0.07
418.369	0.06
418.728	0.07
419.088	0.07
419.447	0.07
419.807	0.07
420.166	0.07
420.525	0.07
420.884	0.07
421.244	0.07
421.603	0.07
421.962	0.06
422.321	0.06
422.68	0.05
423.039	0.06
423.398	0.06
423.757	0.05
424.116	0.07
424.475	0.06
424.834	0.06
425.193	0.07
425.551	0.06
425.91	0.07
426.269	0.06
426.628	0.06
426.986	0.06
427.345	0.05
427.703	0.05
428.062	0.06
428.42	0.06
428.779	0.04
429.137	0.06
429.496	0.05
429.854	0.08
430.212	0.05
430.57	0.04
430.929	0.04
431.287	0.05
431.645	0.05
432.003	0.05
432.361	0.05
432.719	0.05
433.077	0.06
433.435	0.06
433.793	0.07
434.151	0.07
434.509	0.06
434.866	0.05
435.224	0.06
435.582	0.05
435.94	0.05
436.297	0.05
436.655	0.06
437.012	0.05
437.37	0.05
437.727	0.04
438.085	0.05
438.442	0.04
438.8	0.04
439.157	0.08
439.514	0.08
439.872	0.04
440.229	0.05
440.586	0.05
440.943	0.05
441.3	0.04
441.657	0.06
442.014	0.04
442.371	0.06
442.728	0.05
443.085	0.04
443.442	0.06
443.799	0.06
444.156	0.05
444.513	0.05
444.869	0.05
445.226	0.04
445.583	0.04
445.939	0.05
446.296	0.04
446.652	0.05
447.009	0.06
447.365	0.05
447.722	0.06
448.078	0.06
448.434	0.06
448.791	0.06
449.147	0.05
449.503	0.05
449.859	0.06
450.215	0.05
450.571	0.05
450.928	0.05
451.284	0.05
451.64	0.05
451.995	0.05
452.351	0.04
452.707	0.05
453.063	0.08
453.419	0.04
453.775	0.07
454.13	0.04
454.486	0.05
454.842	0.05
455.197	0.08
455.553	0.06
455.908	0.07
456.264	0.07
456.619	0.07
456.975	0.05
457.33	0.05
457.685	0.05
458.04	0.05
458.396	0.06
458.751	0.04
459.106	0.05
459.461	0.05
459.816	0.03
460.171	0.06
460.526	0.06
460.881	0.04
461.236	0.04
461.591	0.04
461.946	0.04
462.301	0.06
462.655	0.04
463.01	0.05
463.365	0.05
463.719	0.04
464.074	0.05
464.428	0.05
464.783	0.06
465.137	0.05
465.492	0.04
465.846	0.06
466.201	0.03
466.555	0.04
466.909	0.05
467.263	0.02
467.618	0.05
467.972	0.05
468.326	0.06
468.68	0.06
469.034	0.05
469.388	0.05
469.742	0.05
470.096	0.03
470.45	0.06
470.804	0.04
471.157	0.03
471.511	0.05
471.865	0.04
472.218	0.05
472.572	0.03
472.926	0.06
473.279	0.04
473.633	0.04
473.986	0.03
474.34	0.04
474.693	0.03
475.046	0.04
475.4	0.03
475.753	0.03
476.106	0.03
476.459	0.03
476.812	0.03
477.165	0.03
477.519	0.03
477.872	0.04
478.224	0.04
478.577	0.03
478.93	0.04
479.283	0.03
479.636	0.03
479.989	0.04
480.341	0.03
480.694	0.03
481.047	0.03
481.399	0.03
481.752	0.03
482.104	0.03
482.457	0.03
482.809	0.03
483.162	0.03
483.514	0.02
483.866	0.03
484.219	0.04
484.571	0.04
484.923	0.04
485.275	0.03
485.627	0.03
485.979	0.03
486.331	0.03
486.683	0.03
487.035	0.02
487.387	0.01
487.739	0.02
488.091	0.03
488.443	0.05
488.794	0.04
489.146	0.04
489.498	0.04
489.849	0.05
490.201	0.04
490.552	0.04
490.904	0.03
491.255	0.04
491.607	0.03
491.958	0.04
492.309	0.04
492.661	0.04
493.012	0.04
493.363	0.05
493.714	0.04
494.065	0.04
494.416	0.04
494.767	0.04
495.118	0.03
495.469	0.03
495.82	0.04
496.171	0.03
496.522	0.04
496.872	0.04
497.223	0.04
497.574	0.03
497.924	0.04
498.275	0.03
498.626	0.04
498.976	0.05
499.327	0.05
499.677	0.05
500.027	0.05
500.378	0.04
500.728	0.04
501.078	0.04
501.428	0.05
501.779	0.05
502.129	0.05
502.479	0.04
502.829	0.04
503.179	0.04
503.529	0.04
503.879	0.04
504.229	0.04
504.578	0.05
504.928	0.04
505.278	0.04
505.628	0.05
505.977	0.05
506.327	0.04
506.676	0.04
507.026	0.04
507.375	0.05
507.725	0.05
508.074	0.05
508.424	0.04
508.773	0.06
509.122	0.05
509.471	0.05
509.82	0.05
510.17	0.05
510.519	0.05
510.868	0.05
511.217	0.05
511.566	0.05
511.915	0.05
512.263	0.05
512.612	0.05
512.961	0.05
513.31	0.05
513.659	0.05
514.007	0.05
514.356	0.06
514.704	0.05
515.053	0.05
515.401	0.05
515.75	0.06
516.098	0.05
516.447	0.06
516.795	0.06
517.143	0.06
517.491	0.06
517.839	0.05
518.188	0.05
518.536	0.05
518.884	0.06
519.232	0.06
519.58	0.06
519.928	0.06
520.275	0.05
520.623	0.05
520.971	0.05
521.319	0.06
521.666	0.06
522.014	0.06
522.362	0.06
522.709	0.06
523.057	0.06
523.404	0.06
523.752	0.06
524.099	0.06
524.446	0.06
524.794	0.06
525.141	0.06
525.488	0.06
525.835	0.06
526.182	0.06
526.529	0.06
526.876	0.06
527.223	0.06
527.57	0.06
527.917	0.06
528.264	0.07
528.611	0.06
528.958	0.06
529.304	0.07
529.651	0.06
529.998	0.06
530.344	0.06
530.691	0.06
531.037	0.06
531.384	0.06
531.73	0.06
532.076	0.07
532.423	0.07
532.769	0.07
533.115	0.07
533.461	0.07
533.807	0.07
534.154	0.07
534.5	0.07
534.846	0.07
535.192	0.06
535.537	0.07
535.883	0.07
536.229	0.06
536.575	0.07
536.921	0.06
537.266	0.07
537.612	0.07
537.957	0.07
538.303	0.08
538.649	0.07
538.994	0.07
539.339	0.07
539.685	0.07
540.03	0.07
540.375	0.08
540.721	0.07
541.066	0.07
541.411	0.07
541.756	0.08
542.101	0.08
542.446	0.08
542.791	0.08
543.136	0.08
543.481	0.08
543.825	0.08
544.17	0.08
544.515	0.08
544.86	0.08
545.204	0.08
545.549	0.08
545.893	0.08
546.238	0.08
546.582	0.08
546.927	0.08
547.271	0.08
547.615	0.09
547.96	0.08
548.304	0.08
548.648	0.08
548.992	0.08
549.336	0.08
549.68	0.08
550.024	0.08
550.368	0.09
550.712	0.09
551.056	0.09
551.4	0.09
551.743	0.09
552.087	0.09
552.431	0.09
552.774	0.09
553.118	0.09
553.462	0.08
553.805	0.08
554.148	0.08
554.492	0.09
554.835	0.09
555.178	0.09
555.522	0.09
555.865	0.09
556.208	0.09
556.551	0.09
556.894	0.08
557.237	0.09
557.58	0.09
557.923	0.09
558.266	0.1
558.609	0.1
558.952	0.09
559.294	0.1
559.637	0.1
559.98	0.1
560.322	0.1
560.665	0.1
561.007	0.09
561.35	0.09
561.692	0.09
562.034	0.08
562.377	0.08
562.719	0.09
563.061	0.09
563.403	0.09
563.745	0.09
564.088	0.1
564.43	0.1
564.772	0.09
565.113	0.09
565.455	0.09
565.797	0.1
566.139	0.1
566.481	0.09
566.822	0.1
567.164	0.1
567.506	0.09
567.847	0.09
568.189	0.09
568.53	0.09
568.872	0.09
569.213	0.09
569.554	0.09
569.895	0.09
570.237	0.09
570.578	0.09
570.919	0.09
571.26	0.09
571.601	0.09
571.942	0.09
572.283	0.09
572.624	0.09
572.965	0.08
573.306	0.08
573.646	0.09
573.987	0.09
574.328	0.1
574.668	0.09
575.009	0.09
575.349	0.08
575.69	0.09
576.03	0.09
576.37	0.09
576.711	0.08
577.051	0.09
577.391	0.1
577.731	0.1
578.072	0.09
578.412	0.09
578.752	0.09
579.092	0.08
579.431	0.07
579.771	0.07
580.111	0.08
580.451	0.09
580.791	0.1
581.13	0.1
581.47	0.1
581.81	0.09
582.149	0.1
582.489	0.09
582.828	0.06
583.167	0.06
583.507	0.05
583.846	0.05
584.185	0.07
584.525	0.08
584.864	0.1
585.203	0.11
585.542	0.11
585.881	0.1
586.22	0.09
586.559	0.08
586.898	0.08
587.236	0.08
587.575	0.09
587.914	0.1
588.252	0.1
588.591	0.1
588.93	0.09
589.268	0.09
589.607	0.09
589.945	0.1
590.283	0.1
590.622	0.11
590.96	0.11
591.298	0.11
591.636	0.1
591.974	0.1
592.313	0.11
592.651	0.11
592.989	0.11
593.326	0.1
593.664	0.1
594.002	0.1
594.34	0.09
594.678	0.08
595.015	0.09
595.353	0.1
595.691	0.11
596.028	0.12
596.366	0.12
596.703	0.11
597.04	0.1
597.378	0.11
597.715	0.12
598.052	0.12
598.389	0.12
598.726	0.11
599.064	0.1
599.401	0.1
599.738	0.11
600.074	0.1
600.411	0.1
600.748	0.1
601.085	0.1
601.422	0.1
601.758	0.11
602.095	0.1
602.432	0.11
602.768	0.12
603.105	0.12
603.441	0.12
603.777	0.12
604.114	0.12
604.45	0.12
604.786	0.11
605.122	0.11
605.459	0.1
605.795	0.11
606.131	0.11
606.467	0.12
606.803	0.11
607.139	0.11
607.474	0.1
607.81	0.11
608.146	0.11
608.482	0.11
608.817	0.11
609.153	0.11
609.488	0.11
609.824	0.11
610.159	0.12
610.495	0.12
610.83	0.12
611.165	0.12
611.5	0.11
611.836	0.11
612.171	0.11
612.506	0.11
612.841	0.11
613.176	0.11
613.511	0.11
613.845	0.11
614.18	0.11
614.515	0.11
614.85	0.1
615.184	0.11
615.519	0.11
615.854	0.11
616.188	0.1
616.523	0.1
616.857	0.1
617.191	0.1
617.526	0.11
617.86	0.11
618.194	0.11
618.528	0.11
618.862	0.11
619.196	0.12
619.53	0.11
619.864	0.1
620.198	0.1
620.532	0.1
620.866	0.11
621.2	0.1
621.533	0.1
621.867	0.1
622.201	0.1
622.534	0.11
622.868	0.11
623.201	0.1
623.534	0.09
623.868	0.09
624.201	0.1
624.534	0.1
624.868	0.1
625.201	0.1
625.534	0.1
625.867	0.1
626.2	0.09
626.533	0.1
626.865	0.1
627.198	0.1
627.531	0.1
627.864	0.1
628.196	0.1
628.529	0.09
628.862	0.09
629.194	0.09
629.527	0.09
629.859	0.1
630.191	0.1
630.524	0.1
630.856	0.09
631.188	0.09
631.52	0.09
631.852	0.09
632.184	0.09
632.516	0.09
632.848	0.09
633.18	0.09
633.512	0.09
633.844	0.09
634.175	0.09
634.507	0.09
634.839	0.09
635.17	0.08
635.502	0.08
635.833	0.08
636.165	0.08
636.496	0.08
636.827	0.08
637.159	0.08
637.49	0.08
637.821	0.08
638.152	0.07
638.483	0.07
638.814	0.08
639.145	0.08
639.476	0.08
639.807	0.08
640.137	0.08
640.468	0.08
640.799	0.07
641.129	0.07
641.46	0.07
641.791	0.07
642.121	0.07
642.451	0.07
642.782	0.07
643.112	0.07
643.442	0.07
643.773	0.07
644.103	0.07
644.433	0.07
644.763	0.07
645.093	0.06
645.423	0.07
645.753	0.06
646.082	0.06
646.412	0.06
646.742	0.06
647.072	0.06
647.401	0.06
647.731	0.06
648.06	0.06
648.39	0.07
648.719	0.06
649.048	0.06
649.378	0.06
649.707	0.06
650.036	0.05
650.365	0.06
650.694	0.06
651.023	0.06
651.352	0.06
651.681	0.06
652.01	0.07
652.339	0.07
652.668	0.06
652.996	0.06
653.325	0.06
653.654	0.06
653.982	0.06
654.311	0.06
654.639	0.06
654.967	0.06
655.296	0.06
655.624	0.07
655.952	0.06
656.28	0.06
656.609	0.06
656.937	0.05
657.265	-0.02
657.593	-0.07
657.92	0
658.248	0
658.576	0
658.904	0
659.231	0.04
659.559	0.1
659.887	0.11
660.214	0.09
660.542	0.08
660.869	0.07
661.196	0.06
661.524	0.06
661.851	0.06
662.178	0.06
662.505	0.06
662.832	0.06
663.159	0.06
663.486	0.05
663.813	0.06
664.14	0.06
664.467	0.06
664.794	0.06
665.12	0.06
665.447	0.06
665.774	0.05
666.1	0.06
666.427	0.06
666.753	0.06
667.079	0.06
667.406	0.06
667.732	0.06
668.058	0.06
668.384	0.06
668.71	0.06
669.036	0.06
669.362	0.06
669.688	0.06
670.014	0.06
670.34	0.06
670.666	0.05
670.991	0.05
671.317	0.05
671.643	0.05
671.968	0.05
672.294	0.05
672.619	0.05
672.945	0.05
673.27	0.04
673.595	0.04
673.92	0.04
674.246	0.05
674.571	0.05
674.896	0.05
675.221	0.05
675.546	0.05
675.87	0.05
676.195	0.05
676.52	0.05
676.845	0.05
677.169	0.05
677.494	0.05
677.819	0.05
678.143	0.05
678.468	0.05
678.792	0.05
679.116	0.04
679.44	0.04
679.765	0.04
680.089	0.04
680.413	0.05
680.737	0.04
681.061	0.04
681.385	0.04
681.709	0.04
682.033	0.04
682.356	0.05
682.68	0.05
683.004	0.04
683.327	0.04
683.651	0.04
683.974	0.04
684.298	0.04
684.621	0.04
684.944	0.04
685.268	0.04
685.591	0.04
685.914	0.03
686.237	0.03
686.56	0.03
686.883	0.03
687.206	0.03
687.529	0.03
687.852	0.04
688.175	0.04
688.497	0.04
688.82	0.04
689.142	0.04
689.465	0.04
689.787	0.04
690.11	0.04
690.432	0.03
690.755	0.04
691.077	0.03
691.399	0.03
691.721	0.03
692.043	0.03
692.365	0.03
692.687	0.03
693.009	0.03
693.331	0.03
693.653	0.03
693.974	0.03
694.296	0.03
694.618	0.03
694.939	0.03
695.261	0.03
695.582	0.03
695.904	0.03
696.225	0.03
696.546	0.03
696.868	0.03
697.189	0.03
697.51	0.03
697.831	0.03
698.152	0.03
698.473	0.01
698.794	0.01
699.114	0.02
699.435	0.02
699.756	0.03
700.077	0.03
700.397	0.03
700.718	0.03
701.038	0.03
701.359	0.03
701.679	0.02
701.999	0.02
702.32	0.02
702.64	0.02
702.96	0.02
703.28	0.02
703.6	0.02
703.92	0.02
704.24	0.02
704.56	0.02
704.879	0.02
705.199	0.02
705.519	0.03
705.838	0.02
706.158	0.02
706.478	0.02
706.797	0.02
707.116	0.02
707.436	0.02
707.755	0.02
708.074	0.01
708.393	0.01
708.712	0.01
709.031	0.01
709.35	0.01
709.669	0.02
709.988	0.02
710.307	0.02
710.626	0.02
710.944	0.02
711.263	0.02
711.582	0.02
711.9	0.02
712.219	0.02
712.537	0.02
712.855	0.02
713.174	0.02
713.492	0.02
713.81	0.02
714.128	0.02
714.446	0.02
714.764	0.02
715.082	0.01
715.4	0.02
715.718	0.02
716.035	0.02
716.353	0.02
716.671	0.02
716.988	0.02
717.306	0.02
717.623	0.02
717.941	0.03
718.258	0.03
718.575	0.03
718.893	0.02
719.21	0.02
719.527	0.02
719.844	0.02
720.161	0.02
720.478	0.02
720.795	0.02
721.112	0.02
721.428	0.02
721.745	0.03
722.062	0.03
722.378	0.02
722.695	0.02
723.011	0.02
723.328	0.02
723.644	0.02
723.96	0.02
724.276	0.02
724.593	0.02
724.909	0.02
725.225	0.02
725.541	0.02
725.857	0.03
726.173	0.02
726.488	0.02
726.804	0.02
727.12	0.02
727.435	0.02
727.751	0.02
728.067	0.02
728.382	0.02
728.697	0.02
729.013	0.02
729.328	0.02
729.643	0.02
729.958	0.02
730.273	0.02
730.588	0.02
730.903	0.02
731.218	0.02
731.533	0.02
731.848	0.02
732.163	0.01
732.477	0.01
732.792	0.02
733.107	0.02
733.421	0.03
733.736	0.03
734.05	0.02
734.364	0.02
734.678	0.02
734.993	0.02
735.307	0.02
735.621	0.02
735.935	0.02
736.249	0.03
736.563	0.03
736.877	0.03
737.19	0.02
737.504	0.02
737.818	0.03
738.131	0.03
738.445	0.02
738.758	0.02
739.072	0.02
739.385	0.02
739.698	0.02
740.012	0.02
740.325	0.02
740.638	0.01
740.951	0.01
741.264	0.03
741.577	0.03
741.89	0.03
742.203	0.03
742.515	0.02
742.828	0.02
743.141	0.02
743.453	0.02
743.766	0.02
744.078	0.02
744.391	0.02
744.703	0.02
745.015	0.02
745.327	0.02
745.639	0.02
745.952	0.02
746.264	0.02
746.575	0.02
746.887	0.02
747.199	0.02
747.511	0.01
747.823	0.01
748.134	0.01
748.446	0.02
748.757	0.02
749.069	0.02
749.38	0.02
749.692	0.02
750.003	0.02
750.314	0.02
750.625	0.01
750.936	0.01
751.248	0.01
751.559	0.01
751.869	0.02
752.18	0.02
752.491	0.02
752.802	0.02
753.112	0.01
753.423	0.01
753.734	0.01
754.044	0.02
754.355	0.02
754.665	0.02
754.975	0.01
755.285	0.01
755.596	0.02
755.906	0.02
756.216	0.02
756.526	0.02
756.836	0.01
757.146	0.01
757.455	0.01
757.765	0.01
758.075	0.01
758.385	0.01
758.694	0.01
759.004	0.01
759.313	0.02
759.622	0.02
759.932	0.02
760.241	0.02
760.55	0.02
760.859	0.02
761.168	0.02
761.477	0.01
761.786	0.02
762.095	0.01
762.404	0.01
762.713	0.01
763.021	0.02
763.33	0.02
763.639	0.02
763.947	0.02
764.256	0.02
764.564	0.01
764.872	0.01
765.181	0.02
765.489	0.01
765.797	0.01
766.105	0.01
766.413	0.01
766.721	0.02
767.029	0.01
767.337	0.02
767.644	0.02
767.952	0.02
768.26	0.02
768.567	0.02
768.875	0.01
769.182	0.01
769.49	0.01
769.797	0.01
770.104	0
770.411	0.01
770.718	0.01
771.026	0.02
771.333	0.01
771.639	0.01
771.946	0.01
772.253	0.01
772.56	0.01
772.867	0.01
773.173	0.01
773.48	0.01
773.786	0.01
774.093	0.01
774.399	0.01
774.705	0.01
775.012	0.01
775.318	0.01
775.624	0.01
775.93	0.01
776.236	0.01
776.542	0.01
776.848	0.01
777.154	0.01
777.459	0.01
777.765	0.01
778.071	0.01
778.376	0.01
778.682	0.01
778.987	0.01
779.292	0.01
779.598	0.01
779.903	0.01
780.208	0.01
780.513	0
780.818	0.01
781.123	0.01
781.428	0.01
781.733	0.01
782.038	0
782.343	0
782.647	0
782.952	0
783.256	0.01
783.561	0.01
783.865	0.01
784.17	0.01
784.474	0.01
784.778	0.01
785.082	0.01
785.386	0.01
785.69	0.01
785.994	0.01
786.298	0.01
786.602	0.01
786.906	0.01
787.209	0.01
787.513	0.01
787.817	0.01
788.12	0.02
788.424	0.02
788.727	0.01
789.03	0
789.333	0.01
789.637	0.01
789.94	0
790.243	0.01
790.546	0.01
790.849	0.01
791.152	0.01
791.454	0.02
791.757	0.01
792.06	0.01
792.362	0.01
792.665	0.01
792.967	0.01
793.27	0.01
793.572	0.01
793.874	0.01
794.177	0.01
794.479	0.01
794.781	0.01
795.083	0
795.385	0
795.687	0.01
795.989	0.01
796.29	0.01
796.592	0.01
796.894	0.02
797.195	0.01
797.497	0.02
797.798	0.01
798.1	0.02
798.401	0.02
798.702	0.01
799.003	0.01
799.304	0.01
799.605	0.01
799.906	0.01
800.207	0.01
800.508	0.01
800.809	0.01
801.11	0.02
801.41	0.01
801.711	0.01
802.011	0.01
802.312	0.01
802.612	0.01
802.913	0.01
803.213	0.02
803.513	0.01
803.813	0.01
804.113	0.01
804.413	0.01
804.713	0.01
805.013	0.01
805.313	0.01
805.613	0
805.912	0.01
806.212	0.01
806.511	0.01
806.811	0
807.11	0
807.41	0
807.709	-0
808.008	0.01
808.307	0.01
808.606	0.01
808.905	0.01
809.204	0
809.503	0
809.802	0.02
810.101	0.01
810.399	0.01
810.698	0.02
810.997	0.01
811.295	0.01
811.593	0.01
811.892	0.01
812.19	0.01
812.488	0.01
812.786	0.01
813.084	0.01
813.383	0.01
813.68	0.01
813.978	0.01
814.276	0.01
814.574	0.01
814.872	0.01
815.169	0
815.467	-0.01
815.764	0
816.062	0.01
816.359	0.01
816.656	0.01
816.954	0.01
817.251	0.01
817.548	0.01
817.845	0.01
818.142	0
818.439	0
818.735	0
819.032	0
819.329	0
819.626	0.01
819.922	0.01
820.219	0.01
820.515	0.01
820.811	0.02
821.108	0.01
821.404	0
821.7	-0
821.996	0
822.292	-0
822.588	-0
822.884	0
823.18	0.01
823.475	0.01
823.771	-0.01
824.067	0.01
824.362	0.01
824.658	0
824.953	-0
825.249	-0
825.544	0
825.839	0.01
826.134	0.01
826.429	0
826.724	0.01
827.019	0
827.314	0
827.609	0
827.904	0
828.198	0
828.493	0
828.787	-0
829.082	0.01
829.376	0
829.671	-0
829.965	0.01
830.259	0.01
830.553	0.01
830.847	0.01
831.141	0.01
831.435	0
831.729	0
832.023	0
832.317	0
832.61	-0
832.904	0.01
833.197	0
833.491	0
833.784	0
834.077	0.01
834.371	-0
834.664	-0.01
834.957	-0
835.25	0
835.543	0
835.836	-0
836.129	0.01
836.421	0
836.714	0.01
837.007	0
837.299	0.01
837.592	0.01
837.884	0.01
838.177	0
838.469	-0
838.761	0
839.053	0.01
839.345	0
839.637	-0
839.929	-0
840.221	0
840.513	-0.01
840.805	-0.01
841.096	0
841.388	0.01
841.68	0
841.971	-0
842.262	-0
842.554	-0
842.845	0
843.136	0.01
843.427	0
843.718	0.01
844.009	0
844.3	0.01
844.591	-0.01
844.882	0.01
845.173	-0.01
845.463	-0
845.754	0
846.044	0.01
846.335	-0.01
846.625	0.01
846.915	-0
847.206	-0
847.496	0
847.786	-0.01
848.076	-0.01
848.366	-0.02
848.656	-0.02
848.945	-0.01
849.235	0
849.525	0.01
849.814	0
850.104	-0
850.393	-0.03
850.683	-0
850.972	-0.01
851.261	-0.02
851.551	0.01
851.84	-0.01
852.129	-0.02
852.418	-0.01
852.707	-0.01
852.995	0
853.284	-0.02
853.573	-0.01
853.862	-0.01
854.15	-0.02
854.439	0
854.727	-0.01
855.015	0.01
855.304	0
855.592	0.01
855.88	-0.02
856.168	-0
856.456	-0.02
856.744	-0.01
857.032	-0.01
857.32	-0
857.607	-0
857.895	-0.03
858.183	0.01
858.47	-0
858.757	-0
859.045	-0.02
859.332	-0.02
859.619	0
859.907	-0.01
860.194	0.03
860.481	0.02
860.768	0.01
861.054	-0.01
861.341	-0.04
861.628	0
861.915	0
862.201	-0.01
862.488	-0.02
862.774	-0
863.061	-0.03
863.347	0
863.633	-0.02
863.919	0
864.205	-0.01
864.491	0.01
864.777	0
865.063	0
865.349	0.01
865.635	0.02
865.92	-0.02
866.206	0.01
866.492	0
866.777	-0
867.062	-0.03
867.348	0.01
867.633	-0
867.918	0.05
868.203	-0.01
868.488	-0.02
868.773	0.01
869.058	-0.01
869.343	-0.02
869.628	-0.06
869.912	-0.01
870.197	-0.04
870.482	-0.01
870.766	-0.01
871.05	0.01
871.335	-0.04
871.619	-0
871.903	-0.05
872.187	-0.02
872.471	-0.06
872.755	-0.03
873.039	-0.07
873.323	-0.05
873.607	-0.03
873.89	-0.05
874.174	-0.04
874.458	-0.05
874.741	-0.11
875.024	-0.05
875.308	-0.08
875.591	-0.08
875.874	-0.14
876.157	-0.03
876.44	-0.08
876.723	-0.01
877.006	-0.04
877.289	-0.08
877.572	-0.04
877.854	-0.1
878.137	-0.05
878.42	-0.17
878.702	-0.03
878.984	-0.14
879.267	-0.05
879.549	-0.09
879.831	-0.08
880.113	-0.04
880.395	-0.02
880.677	-0.1
880.959	-0.07
