Data from Rubpy_EV_EDTA_Flow_Absorbance_15-25-36-467.txt Node
Date: Fri Jul 03 15:25:36 BST 2026
User: fpm-admin
Spectrometer: OFX00224
Trigger mode: 0
Integration Time (sec): 1.200000E-2
Scans to average: 3
Nonlinearity correction enabled: false
Boxcar width: 0
Storing dark spectrum: false
XAxis mode: Wavelengths
Number of Pixels in Spectrum: 2136
>>>>>Begin Spectral Data<<<<<
154.91	-1.01
155.289	-0.18
155.669	-0.23
156.048	-0
156.428	-0
156.807	-0
157.186	-0
157.566	-0
157.945	-0
158.325	0.37
158.704	-0
159.083	1.39
159.462	-1.24
159.842	-0.52
160.221	-0
160.6	-0
160.979	-0
161.359	-0
161.738	-0
162.117	0.27
162.496	-0
162.875	-1.13
163.254	0.3
163.633	-0
164.012	-0
164.391	-1.11
164.77	0.36
165.149	-0
165.528	-0
165.907	-0
166.286	-0
166.665	-0
167.044	-0
167.423	-0
167.802	1.32
168.181	-0
168.559	-0
168.938	-0
169.317	-0
169.696	-0
170.074	-0
170.453	-0
170.832	-0
171.21	-0
171.589	-0.54
171.968	0.37
172.346	-0
172.725	-0
173.103	-0.87
173.482	-0
173.861	-0
174.239	-0
174.617	-0
174.996	-0
175.374	0.42
175.753	-0
176.131	-0
176.51	-0
176.888	-0
177.266	-1.04
177.645	0.14
178.023	-0
178.401	-0.22
178.779	0.04
179.158	-0
179.536	0.99
179.914	-0
180.292	1.03
180.67	-0
181.048	-0.74
181.427	-0
181.805	-0
182.183	-0
182.561	-0
182.939	0.51
183.317	-0
183.695	1.41
184.073	-0
184.451	-0
184.829	-0
185.206	-0
185.584	-0
185.962	0.05
186.34	0.56
186.718	-0
187.096	-0
187.473	-0
187.851	-0.19
188.229	-0
188.607	-0.01
188.984	-0.02
189.362	0.02
189.74	0.01
190.117	0.08
190.495	0.04
190.872	0.07
191.25	0.04
191.627	0.22
192.005	-0.02
192.382	0.02
192.76	0.08
193.137	0.08
193.515	0.08
193.892	0.13
194.269	0.03
194.647	-0.12
195.024	-0.05
195.401	-0.02
195.779	0.03
196.156	0.06
196.533	-0.04
196.91	-0.06
197.288	0.09
197.665	-0.01
198.042	0.03
198.419	0.03
198.796	0.05
199.173	0.02
199.55	0.17
199.927	0.02
200.304	-0.03
200.681	0
201.058	-0.02
201.435	0.05
201.812	0.03
202.189	-0
202.566	0.01
202.943	0.01
203.32	0.06
203.697	-0.06
204.073	0.1
204.45	0.09
204.827	0.01
205.204	-0.06
205.58	0.02
205.957	0.12
206.334	-0.02
206.71	-0.09
207.087	-0.09
207.464	0.06
207.84	0.03
208.217	0
208.593	0.03
208.97	0.08
209.346	0.04
209.723	0.02
210.099	0.09
210.476	0.05
210.852	-0.12
211.228	-0
211.605	-0.03
211.981	0.03
212.357	0.09
212.733	0.01
213.11	0.03
213.486	0.07
213.862	0.04
214.238	0.13
214.614	0.01
214.991	-0.02
215.367	0.07
215.743	0.16
216.119	0.06
216.495	0.01
216.871	0.01
217.247	0.08
217.623	0.01
217.999	0.15
218.375	0.07
218.751	0.07
219.127	-0.04
219.502	0.04
219.878	0.04
220.254	0.02
220.63	0.08
221.006	-0.02
221.381	0.05
221.757	-0.07
222.133	0.09
222.508	0.05
222.884	0.03
223.26	0.06
223.635	-0.02
224.011	0.12
224.386	-0
224.762	0.07
225.137	-0.03
225.513	0.05
225.888	0.02
226.264	-0.03
226.639	0.06
227.014	0.07
227.39	0.05
227.765	0.03
228.14	0.06
228.516	-0.05
228.891	0.22
229.266	0.06
229.641	0.13
230.017	-0.05
230.392	0.09
230.767	-0.07
231.142	-0.07
231.517	0.02
231.892	0.01
232.267	0.07
232.642	0.1
233.017	0.1
233.392	0
233.767	0.07
234.142	0.01
234.517	0.09
234.892	0.06
235.267	-0.07
235.641	0.04
236.016	0.02
236.391	0.04
236.766	0.04
237.14	0.08
237.515	0.03
237.89	0.03
238.264	0.14
238.639	0.07
239.014	0.02
239.388	0.07
239.763	0.04
240.137	0.1
240.512	0.07
240.886	0.02
241.261	0
241.635	0.03
242.009	-0.02
242.384	-0.02
242.758	0.13
243.132	0.02
243.507	0.11
243.881	0.13
244.255	0.11
244.629	0.03
245.004	0.11
245.378	0.04
245.752	-0.07
246.126	-0.01
246.5	0.06
246.874	0.01
247.248	0.07
247.622	0.05
247.996	0.02
248.37	0.07
248.744	0.11
249.118	0.14
249.492	0.07
249.866	0
250.24	0.1
250.613	0.03
250.987	0.07
251.361	0.04
251.735	0.03
252.108	0.04
252.482	0.04
252.856	-0.02
253.229	0.03
253.603	-0.06
253.977	-0
254.35	0.1
254.724	0.09
255.097	0.07
255.471	0.12
255.844	0.05
256.218	0.06
256.591	-0
256.964	-0.01
257.338	0.06
257.711	0.04
258.084	0.03
258.458	0.01
258.831	-0.03
259.204	0
259.577	0.02
259.95	0.06
260.323	-0
260.697	0.1
261.07	0.02
261.443	0.12
261.816	-0.01
262.189	0.05
262.562	0.04
262.935	0
263.308	0.06
263.68	0.01
264.053	0.15
264.426	0.01
264.799	0.02
265.172	0.01
265.545	0.05
265.917	-0.02
266.29	0.05
266.663	0.07
267.035	0.03
267.408	-0.03
267.781	0.07
268.153	0.13
268.526	0.09
268.898	0.09
269.271	0.05
269.643	0.04
270.016	0.11
270.388	0.09
270.76	0.12
271.133	0.07
271.505	0.1
271.877	0.09
272.25	0.03
272.622	-0.02
272.994	0.12
273.366	0.09
273.739	0.09
274.111	0.06
274.483	0.05
274.855	-0.04
275.227	0.07
275.599	0.07
275.971	0.12
276.343	0.06
276.715	0.23
277.087	0.04
277.459	0.13
277.831	0.01
278.203	0.11
278.574	0
278.946	0.03
279.318	0.08
279.69	0.02
280.061	0.04
280.433	0.12
280.805	0.1
281.176	0.08
281.548	0.08
281.92	0.04
282.291	0.07
282.663	0.1
283.034	0.1
283.406	0.07
283.777	0.05
284.148	0.04
284.52	0.18
284.891	0.04
285.262	0.01
285.634	0.09
286.005	0.04
286.376	0.01
286.747	0.04
287.119	0.07
287.49	0.06
287.861	0.12
288.232	0.08
288.603	0.07
288.974	0.05
289.345	0.11
289.716	-0
290.087	0.11
290.458	0.1
290.829	0.01
291.2	-0
291.571	0.05
291.941	0.07
292.312	0
292.683	0.16
293.054	0.15
293.424	0.02
293.795	0.09
294.166	0.02
294.536	0.01
294.907	0.06
295.277	0.11
295.648	0.08
296.018	0.15
296.389	0.03
296.759	0.06
297.13	0.09
297.5	0.1
297.871	0.14
298.241	0.08
298.611	0.06
298.981	0.11
299.352	0.01
299.722	0.04
300.092	0.03
300.462	0.11
300.832	0.07
301.202	0.02
301.573	0.05
301.943	-0.01
302.313	0.1
302.683	0.07
303.053	0.06
303.422	0.09
303.792	0.11
304.162	0.04
304.532	0.13
304.902	0.08
305.272	0.05
305.641	0.12
306.011	0.07
306.381	0.04
306.75	0.06
307.12	0.08
307.49	0
307.859	0.04
308.229	0.09
308.598	0.13
308.968	0.04
309.337	0.02
309.707	0.12
310.076	0.09
310.445	0.04
310.815	0.08
311.184	0.05
311.553	0.07
311.923	0.08
312.292	0.05
312.661	0.09
313.03	0.06
313.399	0.11
313.768	0.06
314.137	0.1
314.506	0.06
314.875	0.1
315.244	0.11
315.613	0.08
315.982	0.08
316.351	0.07
316.72	0.08
317.089	0.08
317.458	0.07
317.826	0.11
318.195	0.09
318.564	0.08
318.933	0.09
319.301	0.07
319.67	0.09
320.038	0.08
320.407	0.1
320.775	0.09
321.144	0.09
321.512	0.1
321.881	0.09
322.249	0.1
322.618	0.09
322.986	0.1
323.354	0.08
323.723	0.09
324.091	0.11
324.459	0.09
324.827	0.1
325.195	0.09
325.564	0.1
325.932	0.09
326.3	0.09
326.668	0.09
327.036	0.08
327.404	0.07
327.772	0.07
328.14	0.08
328.508	0.1
328.875	0.08
329.243	0.08
329.611	0.08
329.979	0.09
330.346	0.09
330.714	0.09
331.082	0.09
331.449	0.08
331.817	0.09
332.185	0.09
332.552	0.09
332.92	0.09
333.287	0.08
333.655	0.1
334.022	0.1
334.389	0.09
334.757	0.09
335.124	0.09
335.491	0.09
335.859	0.1
336.226	0.1
336.593	0.1
336.96	0.1
337.327	0.1
337.695	0.1
338.062	0.1
338.429	0.11
338.796	0.1
339.163	0.1
339.53	0.11
339.897	0.12
340.263	0.12
340.63	0.11
340.997	0.12
341.364	0.12
341.731	0.12
342.097	0.12
342.464	0.12
342.831	0.12
343.197	0.13
343.564	0.13
343.931	0.13
344.297	0.13
344.664	0.13
345.03	0.13
345.396	0.13
345.763	0.14
346.129	0.14
346.496	0.15
346.862	0.14
347.228	0.15
347.594	0.15
347.961	0.15
348.327	0.15
348.693	0.16
349.059	0.15
349.425	0.16
349.791	0.16
350.157	0.17
350.523	0.16
350.889	0.16
351.255	0.17
351.621	0.18
351.987	0.17
352.353	0.18
352.719	0.18
353.084	0.18
353.45	0.18
353.816	0.19
354.181	0.18
354.547	0.19
354.913	0.19
355.278	0.2
355.644	0.21
356.009	0.2
356.375	0.21
356.74	0.21
357.106	0.2
357.471	0.22
357.836	0.22
358.202	0.23
358.567	0.23
358.932	0.23
359.297	0.23
359.663	0.23
360.028	0.23
360.393	0.23
360.758	0.24
361.123	0.24
361.488	0.25
361.853	0.24
362.218	0.25
362.583	0.25
362.948	0.25
363.312	0.25
363.677	0.26
364.042	0.26
364.407	0.26
364.772	0.27
365.136	0.26
365.501	0.27
365.865	0.27
366.23	0.27
366.595	0.28
366.959	0.28
367.324	0.29
367.688	0.28
368.052	0.29
368.417	0.29
368.781	0.28
369.145	0.29
369.51	0.3
369.874	0.29
370.238	0.29
370.602	0.3
370.967	0.29
371.331	0.29
371.695	0.29
372.059	0.28
372.423	0.29
372.787	0.28
373.151	0.28
373.515	0.28
373.878	0.27
374.242	0.27
374.606	0.28
374.97	0.27
375.334	0.27
375.697	0.27
376.061	0.27
376.425	0.27
376.788	0.27
377.152	0.27
377.515	0.27
377.879	0.27
378.242	0.27
378.606	0.27
378.969	0.27
379.333	0.27
379.696	0.28
380.059	0.27
380.422	0.28
380.786	0.28
381.149	0.29
381.512	0.29
381.875	0.31
382.238	0.3
382.601	0.31
382.964	0.31
383.327	0.32
383.69	0.33
384.053	0.33
384.416	0.34
384.779	0.35
385.142	0.35
385.504	0.36
385.867	0.36
386.23	0.35
386.593	0.36
386.955	0.37
387.318	0.37
387.68	0.36
388.043	0.36
388.405	0.36
388.768	0.35
389.13	0.35
389.493	0.35
389.855	0.34
390.217	0.34
390.58	0.34
390.942	0.35
391.304	0.35
391.666	0.36
392.028	0.36
392.391	0.37
392.753	0.37
393.115	0.38
393.477	0.39
393.839	0.4
394.201	0.41
394.563	0.42
394.924	0.45
395.286	0.47
395.648	0.5
396.01	0.5
396.371	0.52
396.733	0.53
397.095	0.54
397.456	0.54
397.818	0.54
398.18	0.54
398.541	0.53
398.903	0.51
399.264	0.5
399.625	0.48
399.987	0.46
400.348	0.44
400.709	0.43
401.071	0.42
401.432	0.39
401.793	0.37
402.154	0.35
402.515	0.33
402.876	0.31
403.238	0.29
403.599	0.28
403.96	0.26
404.32	0.25
404.681	0.22
405.042	0.21
405.403	0.21
405.764	0.2
406.125	0.18
406.485	0.17
406.846	0.16
407.207	0.15
407.567	0.15
407.928	0.15
408.288	0.15
408.649	0.14
409.009	0.13
409.37	0.14
409.73	0.12
410.091	0.11
410.451	0.11
410.811	0.11
411.171	0.1
411.532	0.11
411.892	0.1
412.252	0.11
412.612	0.09
412.972	0.1
413.332	0.1
413.692	0.1
414.052	0.1
414.412	0.09
414.772	0.08
415.132	0.09
415.492	0.1
415.851	0.08
416.211	0.09
416.571	0.09
416.931	0.1
417.29	0.09
417.65	0.08
418.009	0.08
418.369	0.07
418.728	0.09
419.088	0.09
419.447	0.07
419.807	0.09
420.166	0.08
420.525	0.08
420.884	0.09
421.244	0.08
421.603	0.09
421.962	0.07
422.321	0.07
422.68	0.06
423.039	0.06
423.398	0.06
423.757	0.06
424.116	0.08
424.475	0.07
424.834	0.07
425.193	0.09
425.551	0.07
425.91	0.07
426.269	0.07
426.628	0.08
426.986	0.07
427.345	0.07
427.703	0.07
428.062	0.06
428.42	0.08
428.779	0.06
429.137	0.07
429.496	0.05
429.854	0.09
430.212	0.07
430.57	0.06
430.929	0.05
431.287	0.05
431.645	0.06
432.003	0.06
432.361	0.07
432.719	0.07
433.077	0.08
433.435	0.09
433.793	0.08
434.151	0.1
434.509	0.07
434.866	0.08
435.224	0.07
435.582	0.08
435.94	0.07
436.297	0.07
436.655	0.06
437.012	0.07
437.37	0.07
437.727	0.05
438.085	0.06
438.442	0.06
438.8	0.06
439.157	0.09
439.514	0.09
439.872	0.07
440.229	0.06
440.586	0.08
440.943	0.07
441.3	0.06
441.657	0.07
442.014	0.06
442.371	0.08
442.728	0.07
443.085	0.06
443.442	0.06
443.799	0.07
444.156	0.08
444.513	0.07
444.869	0.07
445.226	0.06
445.583	0.08
445.939	0.05
446.296	0.06
446.652	0.07
447.009	0.07
447.365	0.08
447.722	0.06
448.078	0.08
448.434	0.08
448.791	0.09
449.147	0.05
449.503	0.09
449.859	0.08
450.215	0.07
450.571	0.05
450.928	0.07
451.284	0.07
451.64	0.07
451.995	0.07
452.351	0.05
452.707	0.07
453.063	0.07
453.419	0.09
453.775	0.07
454.13	0.05
454.486	0.06
454.842	0.07
455.197	0.07
455.553	0.07
455.908	0.07
456.264	0.07
456.619	0.08
456.975	0.07
457.33	0.07
457.685	0.06
458.04	0.06
458.396	0.09
458.751	0.09
459.106	0.05
459.461	0.06
459.816	0.06
460.171	0.05
460.526	0.07
460.881	0.06
461.236	0.06
461.591	0.07
461.946	0.07
462.301	0.08
462.655	0.06
463.01	0.06
463.365	0.07
463.719	0.05
464.074	0.06
464.428	0.06
464.783	0.06
465.137	0.07
465.492	0.05
465.846	0.07
466.201	0.05
466.555	0.06
466.909	0.07
467.263	0.04
467.618	0.06
467.972	0.06
468.326	0.08
468.68	0.07
469.034	0.07
469.388	0.06
469.742	0.07
470.096	0.04
470.45	0.08
470.804	0.06
471.157	0.04
471.511	0.07
471.865	0.05
472.218	0.07
472.572	0.06
472.926	0.07
473.279	0.06
473.633	0.05
473.986	0.05
474.34	0.06
474.693	0.06
475.046	0.05
475.4	0.05
475.753	0.05
476.106	0.05
476.459	0.05
476.812	0.05
477.165	0.05
477.519	0.05
477.872	0.05
478.224	0.06
478.577	0.06
478.93	0.06
479.283	0.06
479.636	0.05
479.989	0.06
480.341	0.05
480.694	0.06
481.047	0.06
481.399	0.05
481.752	0.05
482.104	0.06
482.457	0.05
482.809	0.06
483.162	0.06
483.514	0.05
483.866	0.05
484.219	0.06
484.571	0.07
484.923	0.06
485.275	0.05
485.627	0.06
485.979	0.05
486.331	0.05
486.683	0.06
487.035	0.05
487.387	0.03
487.739	0.05
488.091	0.06
488.443	0.08
488.794	0.07
489.146	0.07
489.498	0.08
489.849	0.08
490.201	0.08
490.552	0.07
490.904	0.06
491.255	0.07
491.607	0.06
491.958	0.07
492.309	0.07
492.661	0.07
493.012	0.07
493.363	0.07
493.714	0.07
494.065	0.07
494.416	0.07
494.767	0.07
495.118	0.06
495.469	0.06
495.82	0.07
496.171	0.07
496.522	0.07
496.872	0.07
497.223	0.07
497.574	0.06
497.924	0.06
498.275	0.07
498.626	0.08
498.976	0.08
499.327	0.09
499.677	0.08
500.027	0.08
500.378	0.07
500.728	0.07
501.078	0.08
501.428	0.08
501.779	0.08
502.129	0.09
502.479	0.08
502.829	0.07
503.179	0.07
503.529	0.07
503.879	0.08
504.229	0.08
504.578	0.08
504.928	0.08
505.278	0.08
505.628	0.09
505.977	0.08
506.327	0.08
506.676	0.08
507.026	0.08
507.375	0.09
507.725	0.09
508.074	0.09
508.424	0.08
508.773	0.09
509.122	0.09
509.471	0.09
509.82	0.09
510.17	0.09
510.519	0.09
510.868	0.09
511.217	0.09
511.566	0.09
511.915	0.09
512.263	0.09
512.612	0.09
512.961	0.09
513.31	0.09
513.659	0.1
514.007	0.1
514.356	0.1
514.704	0.09
515.053	0.1
515.401	0.1
515.75	0.1
516.098	0.1
516.447	0.1
516.795	0.1
517.143	0.1
517.491	0.1
517.839	0.1
518.188	0.09
518.536	0.09
518.884	0.1
519.232	0.1
519.58	0.11
519.928	0.1
520.275	0.1
520.623	0.1
520.971	0.1
521.319	0.1
521.666	0.11
522.014	0.11
522.362	0.1
522.709	0.1
523.057	0.11
523.404	0.11
523.752	0.11
524.099	0.11
524.446	0.11
524.794	0.11
525.141	0.11
525.488	0.11
525.835	0.11
526.182	0.11
526.529	0.11
526.876	0.11
527.223	0.11
527.57	0.11
527.917	0.11
528.264	0.11
528.611	0.11
528.958	0.12
529.304	0.12
529.651	0.12
529.998	0.11
530.344	0.11
530.691	0.11
531.037	0.11
531.384	0.12
531.73	0.11
532.076	0.12
532.423	0.12
532.769	0.12
533.115	0.12
533.461	0.12
533.807	0.12
534.154	0.12
534.5	0.12
534.846	0.11
535.192	0.11
535.537	0.12
535.883	0.12
536.229	0.12
536.575	0.12
536.921	0.12
537.266	0.13
537.612	0.13
537.957	0.13
538.303	0.13
538.649	0.13
538.994	0.13
539.339	0.12
539.685	0.13
540.03	0.13
540.375	0.13
540.721	0.13
541.066	0.13
541.411	0.13
541.756	0.14
542.101	0.14
542.446	0.14
542.791	0.13
543.136	0.13
543.481	0.14
543.825	0.14
544.17	0.13
544.515	0.14
544.86	0.14
545.204	0.14
545.549	0.14
545.893	0.13
546.238	0.14
546.582	0.14
546.927	0.14
547.271	0.15
547.615	0.15
547.96	0.15
548.304	0.15
548.648	0.14
548.992	0.14
549.336	0.14
549.68	0.14
550.024	0.14
550.368	0.14
550.712	0.15
551.056	0.16
551.4	0.16
551.743	0.16
552.087	0.16
552.431	0.15
552.774	0.15
553.118	0.15
553.462	0.14
553.805	0.14
554.148	0.15
554.492	0.15
554.835	0.15
555.178	0.15
555.522	0.15
555.865	0.16
556.208	0.16
556.551	0.15
556.894	0.15
557.237	0.15
557.58	0.16
557.923	0.16
558.266	0.16
558.609	0.16
558.952	0.16
559.294	0.16
559.637	0.16
559.98	0.16
560.322	0.16
560.665	0.16
561.007	0.16
561.35	0.15
561.692	0.15
562.034	0.15
562.377	0.14
562.719	0.15
563.061	0.15
563.403	0.16
563.745	0.16
564.088	0.16
564.43	0.16
564.772	0.16
565.113	0.16
565.455	0.16
565.797	0.16
566.139	0.16
566.481	0.16
566.822	0.16
567.164	0.16
567.506	0.16
567.847	0.16
568.189	0.16
568.53	0.16
568.872	0.15
569.213	0.15
569.554	0.15
569.895	0.16
570.237	0.15
570.578	0.15
570.919	0.15
571.26	0.15
571.601	0.15
571.942	0.15
572.283	0.15
572.624	0.15
572.965	0.14
573.306	0.14
573.646	0.15
573.987	0.16
574.328	0.16
574.668	0.16
575.009	0.15
575.349	0.14
575.69	0.15
576.03	0.15
576.37	0.14
576.711	0.14
577.051	0.15
577.391	0.16
577.731	0.16
578.072	0.15
578.412	0.15
578.752	0.15
579.092	0.14
579.431	0.13
579.771	0.13
580.111	0.14
580.451	0.15
580.791	0.16
581.13	0.16
581.47	0.16
581.81	0.15
582.149	0.16
582.489	0.15
582.828	0.12
583.167	0.12
583.507	0.1
583.846	0.1
584.185	0.13
584.525	0.14
584.864	0.16
585.203	0.17
585.542	0.17
585.881	0.17
586.22	0.15
586.559	0.13
586.898	0.14
587.236	0.14
587.575	0.15
587.914	0.16
588.252	0.16
588.591	0.16
588.93	0.16
589.268	0.15
589.607	0.16
589.945	0.16
590.283	0.16
590.622	0.17
590.96	0.18
591.298	0.17
591.636	0.17
591.974	0.17
592.313	0.17
592.651	0.18
592.989	0.17
593.326	0.17
593.664	0.17
594.002	0.16
594.34	0.15
594.678	0.15
595.015	0.15
595.353	0.16
595.691	0.17
596.028	0.19
596.366	0.18
596.703	0.18
597.04	0.17
597.378	0.18
597.715	0.19
598.052	0.19
598.389	0.18
598.726	0.18
599.064	0.17
599.401	0.17
599.738	0.18
600.074	0.17
600.411	0.16
600.748	0.16
601.085	0.16
601.422	0.17
601.758	0.17
602.095	0.17
602.432	0.18
602.768	0.18
603.105	0.19
603.441	0.19
603.777	0.19
604.114	0.19
604.45	0.19
604.786	0.18
605.122	0.18
605.459	0.17
605.795	0.17
606.131	0.18
606.467	0.18
606.803	0.18
607.139	0.18
607.474	0.16
607.81	0.17
608.146	0.17
608.482	0.18
608.817	0.17
609.153	0.17
609.488	0.17
609.824	0.18
610.159	0.18
610.495	0.18
610.83	0.18
611.165	0.19
611.5	0.18
611.836	0.17
612.171	0.18
612.506	0.18
612.841	0.18
613.176	0.17
613.511	0.17
613.845	0.18
614.18	0.17
614.515	0.18
614.85	0.17
615.184	0.17
615.519	0.17
615.854	0.17
616.188	0.16
616.523	0.16
616.857	0.16
617.191	0.16
617.526	0.17
617.86	0.18
618.194	0.18
618.528	0.18
618.862	0.18
619.196	0.18
619.53	0.17
619.864	0.16
620.198	0.17
620.532	0.16
620.866	0.17
621.2	0.17
621.533	0.16
621.867	0.16
622.201	0.16
622.534	0.17
622.868	0.17
623.201	0.17
623.534	0.15
623.868	0.15
624.201	0.15
624.534	0.16
624.868	0.16
625.201	0.16
625.534	0.16
625.867	0.16
626.2	0.15
626.533	0.16
626.865	0.16
627.198	0.16
627.531	0.16
627.864	0.16
628.196	0.16
628.529	0.15
628.862	0.15
629.194	0.15
629.527	0.15
629.859	0.16
630.191	0.16
630.524	0.15
630.856	0.14
631.188	0.14
631.52	0.14
631.852	0.15
632.184	0.15
632.516	0.15
632.848	0.14
633.18	0.15
633.512	0.15
633.844	0.14
634.175	0.14
634.507	0.14
634.839	0.14
635.17	0.14
635.502	0.14
635.833	0.13
636.165	0.13
636.496	0.13
636.827	0.13
637.159	0.13
637.49	0.13
637.821	0.13
638.152	0.12
638.483	0.12
638.814	0.13
639.145	0.13
639.476	0.13
639.807	0.13
640.137	0.12
640.468	0.12
640.799	0.12
641.129	0.13
641.46	0.12
641.791	0.12
642.121	0.12
642.451	0.12
642.782	0.11
643.112	0.12
643.442	0.11
643.773	0.11
644.103	0.11
644.433	0.12
644.763	0.11
645.093	0.11
645.423	0.11
645.753	0.11
646.082	0.11
646.412	0.11
646.742	0.11
647.072	0.11
647.401	0.11
647.731	0.11
648.06	0.11
648.39	0.11
648.719	0.11
649.048	0.11
649.378	0.11
649.707	0.1
650.036	0.1
650.365	0.1
650.694	0.1
651.023	0.1
651.352	0.1
651.681	0.11
652.01	0.11
652.339	0.11
652.668	0.11
652.996	0.11
653.325	0.1
653.654	0.1
653.982	0.1
654.311	0.1
654.639	0.1
654.967	0.1
655.296	0.1
655.624	0.1
655.952	0.11
656.28	0.11
656.609	0.1
656.937	0.09
657.265	-0
657.593	-0.05
657.92	0
658.248	0
658.576	0
658.904	0.02
659.231	0.08
659.559	0.14
659.887	0.16
660.214	0.14
660.542	0.12
660.869	0.11
661.196	0.1
661.524	0.1
661.851	0.1
662.178	0.1
662.505	0.1
662.832	0.1
663.159	0.1
663.486	0.1
663.813	0.1
664.14	0.1
664.467	0.1
664.794	0.1
665.12	0.1
665.447	0.09
665.774	0.09
666.1	0.09
666.427	0.09
666.753	0.1
667.079	0.1
667.406	0.1
667.732	0.1
668.058	0.1
668.384	0.1
668.71	0.1
669.036	0.1
669.362	0.09
669.688	0.1
670.014	0.1
670.34	0.09
670.666	0.09
670.991	0.09
671.317	0.09
671.643	0.09
671.968	0.09
672.294	0.09
672.619	0.09
672.945	0.08
673.27	0.08
673.595	0.08
673.92	0.08
674.246	0.09
674.571	0.09
674.896	0.09
675.221	0.09
675.546	0.09
675.87	0.09
676.195	0.09
676.52	0.08
676.845	0.09
677.169	0.09
677.494	0.09
677.819	0.08
678.143	0.08
678.468	0.08
678.792	0.08
679.116	0.08
679.44	0.08
679.765	0.07
680.089	0.07
680.413	0.08
680.737	0.08
681.061	0.07
681.385	0.07
681.709	0.07
682.033	0.07
682.356	0.08
682.68	0.08
683.004	0.07
683.327	0.07
683.651	0.07
683.974	0.07
684.298	0.07
684.621	0.07
684.944	0.07
685.268	0.07
685.591	0.07
685.914	0.06
686.237	0.06
686.56	0.06
686.883	0.06
687.206	0.06
687.529	0.06
687.852	0.07
688.175	0.07
688.497	0.07
688.82	0.07
689.142	0.06
689.465	0.06
689.787	0.06
690.11	0.07
690.432	0.07
690.755	0.06
691.077	0.06
691.399	0.05
691.721	0.06
692.043	0.06
692.365	0.06
692.687	0.05
693.009	0.05
693.331	0.05
693.653	0.05
693.974	0.06
694.296	0.06
694.618	0.05
694.939	0.05
695.261	0.05
695.582	0.05
695.904	0.06
696.225	0.06
696.546	0.05
696.868	0.05
697.189	0.05
697.51	0.05
697.831	0.05
698.152	0.05
698.473	0.04
698.794	0.03
699.114	0.04
699.435	0.04
699.756	0.05
700.077	0.05
700.397	0.06
700.718	0.05
701.038	0.05
701.359	0.05
701.679	0.05
701.999	0.05
702.32	0.05
702.64	0.04
702.96	0.04
703.28	0.04
703.6	0.04
703.92	0.04
704.24	0.04
704.56	0.04
704.879	0.05
705.199	0.05
705.519	0.05
705.838	0.04
706.158	0.04
706.478	0.04
706.797	0.04
707.116	0.04
707.436	0.04
707.755	0.04
708.074	0.03
708.393	0.03
708.712	0.03
709.031	0.03
709.35	0.03
709.669	0.04
709.988	0.04
710.307	0.04
710.626	0.04
710.944	0.05
711.263	0.05
711.582	0.05
711.9	0.04
712.219	0.04
712.537	0.04
712.855	0.04
713.174	0.04
713.492	0.04
713.81	0.04
714.128	0.04
714.446	0.04
714.764	0.04
715.082	0.04
715.4	0.04
715.718	0.04
716.035	0.04
716.353	0.04
716.671	0.04
716.988	0.04
717.306	0.04
717.623	0.05
717.941	0.05
718.258	0.05
718.575	0.04
718.893	0.04
719.21	0.04
719.527	0.03
719.844	0.04
720.161	0.04
720.478	0.04
720.795	0.04
721.112	0.04
721.428	0.04
721.745	0.05
722.062	0.05
722.378	0.04
722.695	0.04
723.011	0.04
723.328	0.04
723.644	0.04
723.96	0.04
724.276	0.04
724.593	0.04
724.909	0.04
725.225	0.04
725.541	0.04
725.857	0.04
726.173	0.04
726.488	0.04
726.804	0.04
727.12	0.04
727.435	0.04
727.751	0.04
728.067	0.04
728.382	0.05
728.697	0.05
729.013	0.05
729.328	0.04
729.643	0.04
729.958	0.04
730.273	0.04
730.588	0.05
730.903	0.04
731.218	0.04
731.533	0.04
731.848	0.04
732.163	0.03
732.477	0.03
732.792	0.04
733.107	0.04
733.421	0.05
733.736	0.05
734.05	0.04
734.364	0.04
734.678	0.04
734.993	0.04
735.307	0.04
735.621	0.04
735.935	0.04
736.249	0.05
736.563	0.05
736.877	0.05
737.19	0.04
737.504	0.04
737.818	0.04
738.131	0.05
738.445	0.05
738.758	0.04
739.072	0.04
739.385	0.05
739.698	0.05
740.012	0.04
740.325	0.04
740.638	0.03
740.951	0.03
741.264	0.04
741.577	0.05
741.89	0.05
742.203	0.05
742.515	0.04
742.828	0.04
743.141	0.05
743.453	0.04
743.766	0.04
744.078	0.04
744.391	0.04
744.703	0.04
745.015	0.04
745.327	0.04
745.639	0.04
745.952	0.04
746.264	0.04
746.575	0.04
746.887	0.04
747.199	0.04
747.511	0.04
747.823	0.04
748.134	0.04
748.446	0.04
748.757	0.04
749.069	0.04
749.38	0.04
749.692	0.04
750.003	0.04
750.314	0.03
750.625	0.03
750.936	0.03
751.248	0.03
751.559	0.03
751.869	0.04
752.18	0.03
752.491	0.04
752.802	0.04
753.112	0.03
753.423	0.03
753.734	0.03
754.044	0.04
754.355	0.03
754.665	0.04
754.975	0.03
755.285	0.04
755.596	0.04
755.906	0.04
756.216	0.03
756.526	0.03
756.836	0.03
757.146	0.03
757.455	0.03
757.765	0.02
758.075	0.02
758.385	0.02
758.694	0.02
759.004	0.02
759.313	0.03
759.622	0.03
759.932	0.04
760.241	0.04
760.55	0.03
760.859	0.03
761.168	0.03
761.477	0.03
761.786	0.03
762.095	0.03
762.404	0.03
762.713	0.03
763.021	0.03
763.33	0.03
763.639	0.03
763.947	0.02
764.256	0.03
764.564	0.03
764.872	0.03
765.181	0.03
765.489	0.02
765.797	0.02
766.105	0.02
766.413	0.02
766.721	0.03
767.029	0.03
767.337	0.04
767.644	0.04
767.952	0.03
768.26	0.04
768.567	0.03
768.875	0.03
769.182	0.02
769.49	0.02
769.797	0.02
770.104	0.02
770.411	0.03
770.718	0.03
771.026	0.03
771.333	0.03
771.639	0.03
771.946	0.03
772.253	0.02
772.56	0.02
772.867	0.03
773.173	0.03
773.48	0.03
773.786	0.03
774.093	0.02
774.399	0.02
774.705	0.03
775.012	0.02
775.318	0.03
775.624	0.03
775.93	0.03
776.236	0.02
776.542	0.02
776.848	0.02
777.154	0.03
777.459	0.03
777.765	0.02
778.071	0.03
778.376	0.03
778.682	0.03
778.987	0.03
779.292	0.02
779.598	0.03
779.903	0.02
780.208	0.02
780.513	0.02
780.818	0.03
781.123	0.03
781.428	0.02
781.733	0.03
782.038	0.02
782.343	0.02
782.647	0.01
782.952	0.02
783.256	0.02
783.561	0.02
783.865	0.02
784.17	0.02
784.474	0.02
784.778	0.03
785.082	0.02
785.386	0.03
785.69	0.03
785.994	0.03
786.298	0.02
786.602	0.02
786.906	0.02
787.209	0.02
787.513	0.02
787.817	0.02
788.12	0.03
788.424	0.03
788.727	0.02
789.03	0.02
789.333	0.02
789.637	0.02
789.94	0.02
790.243	0.02
790.546	0.02
790.849	0.03
791.152	0.03
791.454	0.03
791.757	0.03
792.06	0.03
792.362	0.03
792.665	0.02
792.967	0.02
793.27	0.02
793.572	0.02
793.874	0.02
794.177	0.02
794.479	0.02
794.781	0.02
795.083	0.02
795.385	0.01
795.687	0.02
795.989	0.02
796.29	0.03
796.592	0.03
796.894	0.03
797.195	0.03
797.497	0.03
797.798	0.04
798.1	0.03
798.401	0.03
798.702	0.03
799.003	0.03
799.304	0.03
799.605	0.02
799.906	0.03
800.207	0.02
800.508	0.03
800.809	0.03
801.11	0.03
801.41	0.03
801.711	0.03
802.011	0.03
802.312	0.02
802.612	0.03
802.913	0.03
803.213	0.03
803.513	0.03
803.813	0.03
804.113	0.02
804.413	0.03
804.713	0.02
805.013	0.02
805.313	0.02
805.613	0.02
805.912	0.02
806.212	0.02
806.511	0.02
806.811	0.02
807.11	0.02
807.41	0.02
807.709	0.01
808.008	0.02
808.307	0.02
808.606	0.02
808.905	0.03
809.204	0.02
809.503	0.02
809.802	0.03
810.101	0.03
810.399	0.03
810.698	0.03
810.997	0.02
811.295	0.02
811.593	0.02
811.892	0.02
812.19	0.03
812.488	0.02
812.786	0.02
813.084	0.03
813.383	0.02
813.68	0.02
813.978	0.02
814.276	0.03
814.574	0.02
814.872	0.03
815.169	0.03
815.467	0.01
815.764	0.03
816.062	0.02
816.359	0.03
816.656	0.03
816.954	0.02
817.251	0.02
817.548	0.02
817.845	0.02
818.142	0.02
818.439	0.02
818.735	0.02
819.032	0.02
819.329	0.02
819.626	0.03
819.922	0.02
820.219	0.03
820.515	0.03
820.811	0.02
821.108	0.02
821.404	0.02
821.7	0.01
821.996	0.01
822.292	0.02
822.588	0.02
822.884	0.02
823.18	0.02
823.475	0.02
823.771	0.02
824.067	0.03
824.362	0.02
824.658	0.03
824.953	0.02
825.249	0.02
825.544	0.03
825.839	0.02
826.134	0.02
826.429	0.02
826.724	0.02
827.019	0.01
827.314	0.02
827.609	0.03
827.904	0.01
828.198	0.02
828.493	0.02
828.787	0.01
829.082	0.02
829.376	0.01
829.671	0.02
829.965	0.03
830.259	0.03
830.553	0.03
830.847	0.03
831.141	0.03
831.435	0.01
831.729	0.02
832.023	0.02
832.317	0.02
832.61	0.02
832.904	0.02
833.197	0.02
833.491	0.02
833.784	0.01
834.077	0.02
834.371	0.02
834.664	0.02
834.957	0.01
835.25	0.02
835.543	0.01
835.836	0.02
836.129	0.02
836.421	0.02
836.714	0.02
837.007	0.03
837.299	0.03
837.592	0.02
837.884	0.02
838.177	0.01
838.469	0.02
838.761	0.02
839.053	0.01
839.345	0.02
839.637	0.02
839.929	0.02
840.221	0.03
840.513	0.01
840.805	0.02
841.096	0.02
841.388	0.02
841.68	0.02
841.971	0.03
842.262	0.02
842.554	0.01
842.845	0.02
843.136	0.03
843.427	0.04
843.718	0.03
844.009	0.03
844.3	0.02
844.591	0.02
844.882	0.03
845.173	0.02
845.463	0.01
845.754	0.03
846.044	0.02
846.335	0.01
846.625	0.03
846.915	0.01
847.206	0.01
847.496	0.02
847.786	0.03
848.076	0.01
848.366	0
848.656	-0.01
848.945	0.01
849.235	0.01
849.525	0.01
849.814	-0
850.104	0.01
850.393	-0.01
850.683	0.02
850.972	0.01
851.261	0.01
851.551	0.02
851.84	0.02
852.129	-0
852.418	0.01
852.707	0.01
852.995	0.01
853.284	0
853.573	0.02
853.862	-0
854.15	0
854.439	0.01
854.727	0.01
855.015	0.01
855.304	0.02
855.592	0.02
855.88	-0.01
856.168	0.01
856.456	0
856.744	0.02
857.032	0.01
857.32	0.01
857.607	0
857.895	-0.01
858.183	-0
858.47	0.01
858.757	0.01
859.045	0.02
859.332	-0.01
859.619	0
859.907	0.02
860.194	0.02
860.481	0.01
860.768	0.01
861.054	0.01
861.341	0.01
861.628	0.02
861.915	0.02
862.201	0.04
862.488	0.02
862.774	0.02
863.061	0.01
863.347	0.03
863.633	0.01
863.919	0.01
864.205	0.04
864.491	0.01
864.777	0.03
865.063	0.01
865.349	0.01
865.635	0
865.92	-0.01
866.206	-0.01
866.492	-0
866.777	0.02
867.062	-0.04
867.348	0.01
867.633	0
867.918	-0.01
868.203	-0.02
868.488	-0.03
868.773	0.01
869.058	0.01
869.343	-0
869.628	-0.04
869.912	-0.03
870.197	-0.03
870.482	-0.04
870.766	-0.02
871.05	-0.05
871.335	-0.03
871.619	0.01
871.903	-0.07
872.187	-0.02
872.471	0
872.755	-0
873.039	-0.03
873.323	-0
873.607	-0.08
873.89	-0
874.174	0.01
874.458	0.02
874.741	-0.08
875.024	-0.02
875.308	-0
875.591	-0.1
875.874	-0.09
876.157	-0.06
876.44	-0.09
876.723	-0.09
877.006	-0.05
877.289	-0.03
877.572	-0.06
877.854	-0.12
878.137	-0.13
878.42	-0.17
878.702	-0.09
878.984	-0.1
879.267	-0.02
879.549	-0.02
879.831	-0.02
880.113	-0.01
880.395	-0.04
880.677	-0.04
880.959	0.08
