Data from Rubpy_EV_EDTA_Flow_Absorbance_14-07-50-483.txt Node
Date: Fri Jul 03 14:07:50 BST 2026
User: fpm-admin
Spectrometer: OFX00224
Trigger mode: 0
Integration Time (sec): 1.200000E-2
Scans to average: 3
Nonlinearity correction enabled: false
Boxcar width: 0
Storing dark spectrum: false
XAxis mode: Wavelengths
Number of Pixels in Spectrum: 2136
>>>>>Begin Spectral Data<<<<<
154.91	-0
155.289	-0.21
155.669	1.29
156.048	0.38
156.428	-0
156.807	0.09
157.186	0.47
157.566	-0
157.945	0.56
158.325	0.07
158.704	-0
159.083	0.31
159.462	-0
159.842	-0.39
160.221	-0
160.6	-0
160.979	-0
161.359	0.05
161.738	-0
162.117	-0.12
162.496	-0
162.875	-1.56
163.254	0.67
163.633	-0
164.012	-0.04
164.391	-1.23
164.77	0.41
165.149	0.22
165.528	0.95
165.907	-0.33
166.286	-0
166.665	0.03
167.044	-0
167.423	-0
167.802	0.08
168.181	0.7
168.559	-0
168.938	-0
169.317	-0
169.696	-0
170.074	0.49
170.453	1.05
170.832	-0
171.21	-0.15
171.589	-0.56
171.968	0.09
172.346	-0
172.725	0.36
173.103	-0.78
173.482	0.36
173.861	-0
174.239	0.98
174.617	-0.02
174.996	-0.51
175.374	0.78
175.753	-0.52
176.131	-0.1
176.51	0.05
176.888	-0
177.266	-0.6
177.645	0.09
178.023	-0
178.401	0.03
178.779	0.07
179.158	0.44
179.536	-0.06
179.914	-0.53
180.292	-0
180.67	-0.53
181.048	-0
181.427	0.03
181.805	-0.22
182.183	-0.44
182.561	-0
182.939	0.03
183.317	-0.22
183.695	0.51
184.073	-0
184.451	0.24
184.829	-0.83
185.206	-0
185.584	-0.08
185.962	-0.13
186.34	-0.31
186.718	0.7
187.096	0.38
187.473	-0
187.851	0.22
188.229	0.07
188.607	0.09
188.984	-0.05
189.362	0.04
189.74	0.04
190.117	-0.04
190.495	0.01
190.872	-0.01
191.25	0.17
191.627	0.05
192.005	-0.06
192.382	0.05
192.76	-0.05
193.137	0.02
193.515	0.02
193.892	0.12
194.269	0.03
194.647	-0.09
195.024	-0.11
195.401	-0.03
195.779	0.09
196.156	0.05
196.533	-0.04
196.91	0.01
197.288	0.11
197.665	0.02
198.042	0.05
198.419	-0.02
198.796	-0.07
199.173	0.04
199.55	-0.01
199.927	0.1
200.304	-0.06
200.681	-0
201.058	-0.03
201.435	0.01
201.812	-0.04
202.189	0.03
202.566	-0.03
202.943	-0.01
203.32	0.05
203.697	-0.03
204.073	0.04
204.45	0.01
204.827	-0.02
205.204	-0.06
205.58	-0
205.957	-0.01
206.334	-0.06
206.71	-0.1
207.087	-0.06
207.464	0.01
207.84	-0.02
208.217	-0
208.593	-0.04
208.97	0.03
209.346	-0.09
209.723	0.03
210.099	-0.04
210.476	0
210.852	-0.06
211.228	-0.09
211.605	0.01
211.981	-0.03
212.357	-0.03
212.733	0.01
213.11	0.07
213.486	-0
213.862	0.06
214.238	0.08
214.614	0.06
214.991	-0.01
215.367	0.06
215.743	0.06
216.119	0.05
216.495	0.01
216.871	0.02
217.247	0.13
217.623	0.07
217.999	0.11
218.375	-0.03
218.751	0.05
219.127	-0.04
219.502	0.01
219.878	0.05
220.254	-0.04
220.63	-0.03
221.006	-0.04
221.381	-0
221.757	-0.08
222.133	0
222.508	-0.02
222.884	-0.01
223.26	0.05
223.635	-0.02
224.011	0.11
224.386	0.09
224.762	0.01
225.137	-0.04
225.513	0.09
225.888	0.05
226.264	-0.04
226.639	0.03
227.014	0.02
227.39	0.01
227.765	-0.02
228.14	-0.02
228.516	-0.05
228.891	0.1
229.266	0.03
229.641	0.07
230.017	-0.01
230.392	0.02
230.767	-0.11
231.142	-0.04
231.517	-0.06
231.892	-0.01
232.267	0.07
232.642	-0.07
233.017	-0.01
233.392	0.07
233.767	0
234.142	-0
234.517	-0.01
234.892	0.01
235.267	0.01
235.641	-0.03
236.016	-0.05
236.391	-0.04
236.766	0.08
237.14	0.07
237.515	0.07
237.89	0.08
238.264	0.04
238.639	0.08
239.014	0.03
239.388	-0.03
239.763	-0.01
240.137	0.01
240.512	-0.04
240.886	-0.07
241.261	0.04
241.635	-0.05
242.009	0.05
242.384	0.04
242.758	0.05
243.132	-0.02
243.507	-0
243.881	0.02
244.255	0.01
244.629	-0.05
245.004	0.05
245.378	-0.09
245.752	-0.09
246.126	-0.06
246.5	0.01
246.874	-0.01
247.248	0.06
247.622	-0.08
247.996	0.05
248.37	0.01
248.744	-0.02
249.118	0.12
249.492	0.02
249.866	-0.03
250.24	0
250.613	0.05
250.987	0.05
251.361	0.01
251.735	-0.07
252.108	0.04
252.482	0.03
252.856	0.01
253.229	-0
253.603	0.02
253.977	-0.1
254.35	0.03
254.724	-0.02
255.097	-0.06
255.471	-0.02
255.844	0.02
256.218	0.08
256.591	-0.02
256.964	-0.02
257.338	-0.02
257.711	-0.03
258.084	0.05
258.458	0
258.831	-0.1
259.204	-0.06
259.577	-0.05
259.95	0.05
260.323	-0
260.697	-0.02
261.07	-0.06
261.443	-0.03
261.816	-0.01
262.189	0.01
262.562	0.02
262.935	-0.03
263.308	0.05
263.68	0.07
264.053	0.01
264.426	0.01
264.799	-0.03
265.172	-0.02
265.545	0.03
265.917	-0.02
266.29	-0.02
266.663	-0
267.035	-0.01
267.408	0.01
267.781	0.06
268.153	0.07
268.526	0.06
268.898	0.04
269.271	0.11
269.643	-0.01
270.016	0.02
270.388	0.03
270.76	0.06
271.133	0.06
271.505	0.03
271.877	0.13
272.25	0
272.622	-0.04
272.994	0.08
273.366	-0.01
273.739	0.03
274.111	0.03
274.483	0.04
274.855	0.09
275.227	0.08
275.599	0.06
275.971	0.04
276.343	0.06
276.715	0.06
277.087	-0.01
277.459	0.03
277.831	-0.01
278.203	0.09
278.574	-0.01
278.946	-0.05
279.318	0.08
279.69	0.06
280.061	0.03
280.433	0.05
280.805	0.03
281.176	0.07
281.548	0.08
281.92	0
282.291	0.01
282.663	0.03
283.034	0.05
283.406	-0
283.777	0.03
284.148	0.1
284.52	0.2
284.891	0.01
285.262	0.03
285.634	0.06
286.005	0.02
286.376	0.02
286.747	-0.05
287.119	-0
287.49	-0.03
287.861	0.07
288.232	0.06
288.603	0.11
288.974	0.06
289.345	0.02
289.716	-0.02
290.087	0.03
290.458	0.04
290.829	-0.01
291.2	-0.03
291.571	0.01
291.941	0.1
292.312	-0.02
292.683	0.1
293.054	0.03
293.424	-0.07
293.795	0.06
294.166	0.01
294.536	0
294.907	0.01
295.277	0.02
295.648	-0.04
296.018	0.06
296.389	-0.01
296.759	0.05
297.13	0.04
297.5	-0.03
297.871	0.07
298.241	0.02
298.611	-0.01
298.981	0.03
299.352	0.03
299.722	0.05
300.092	-0.02
300.462	0.05
300.832	0.01
301.202	0
301.573	-0.03
301.943	-0.03
302.313	0.08
302.683	0.01
303.053	-0.01
303.422	0.04
303.792	0.02
304.162	0.01
304.532	0.04
304.902	-0.03
305.272	0.03
305.641	0.02
306.011	-0.02
306.381	0.04
306.75	-0.07
307.12	0.06
307.49	-0.04
307.859	-0.01
308.229	0.02
308.598	0.04
308.968	-0.01
309.337	0.04
309.707	0.07
310.076	0.06
310.445	-0.01
310.815	0.06
311.184	0.05
311.553	0.07
311.923	0.08
312.292	0.02
312.661	0.08
313.03	0.01
313.399	0.06
313.768	0.01
314.137	0.02
314.506	0.04
314.875	0.05
315.244	0.03
315.613	0.03
315.982	0.05
316.351	0.03
316.72	0.04
317.089	0.06
317.458	0.04
317.826	0.06
318.195	0.04
318.564	0.04
318.933	0.05
319.301	0.03
319.67	0.04
320.038	0.06
320.407	0.07
320.775	0.05
321.144	0.06
321.512	0.05
321.881	0.05
322.249	0.05
322.618	0.06
322.986	0.05
323.354	0.03
323.723	0.04
324.091	0.07
324.459	0.05
324.827	0.07
325.195	0.06
325.564	0.05
325.932	0.06
326.3	0.04
326.668	0.06
327.036	0.05
327.404	0.04
327.772	0.04
328.14	0.03
328.508	0.04
328.875	0.04
329.243	0.05
329.611	0.05
329.979	0.04
330.346	0.05
330.714	0.05
331.082	0.05
331.449	0.04
331.817	0.04
332.185	0.04
332.552	0.05
332.92	0.05
333.287	0.05
333.655	0.06
334.022	0.05
334.389	0.04
334.757	0.04
335.124	0.05
335.491	0.04
335.859	0.05
336.226	0.05
336.593	0.05
336.96	0.05
337.327	0.05
337.695	0.05
338.062	0.04
338.429	0.05
338.796	0.05
339.163	0.05
339.53	0.05
339.897	0.05
340.263	0.06
340.63	0.04
340.997	0.05
341.364	0.05
341.731	0.05
342.097	0.05
342.464	0.06
342.831	0.06
343.197	0.05
343.564	0.06
343.931	0.06
344.297	0.06
344.664	0.06
345.03	0.06
345.396	0.05
345.763	0.06
346.129	0.06
346.496	0.06
346.862	0.06
347.228	0.06
347.594	0.06
347.961	0.06
348.327	0.06
348.693	0.07
349.059	0.06
349.425	0.06
349.791	0.07
350.157	0.06
350.523	0.07
350.889	0.07
351.255	0.07
351.621	0.07
351.987	0.07
352.353	0.07
352.719	0.06
353.084	0.07
353.45	0.07
353.816	0.08
354.181	0.07
354.547	0.07
354.913	0.08
355.278	0.08
355.644	0.08
356.009	0.08
356.375	0.09
356.74	0.08
357.106	0.08
357.471	0.08
357.836	0.09
358.202	0.09
358.567	0.09
358.932	0.1
359.297	0.09
359.663	0.09
360.028	0.09
360.393	0.09
360.758	0.1
361.123	0.1
361.488	0.09
361.853	0.09
362.218	0.1
362.583	0.1
362.948	0.09
363.312	0.1
363.677	0.1
364.042	0.1
364.407	0.1
364.772	0.11
365.136	0.1
365.501	0.11
365.865	0.1
366.23	0.1
366.595	0.1
366.959	0.11
367.324	0.11
367.688	0.11
368.052	0.11
368.417	0.11
368.781	0.12
369.145	0.12
369.51	0.11
369.874	0.12
370.238	0.12
370.602	0.12
370.967	0.12
371.331	0.11
371.695	0.12
372.059	0.11
372.423	0.12
372.787	0.11
373.151	0.11
373.515	0.12
373.878	0.11
374.242	0.12
374.606	0.11
374.97	0.11
375.334	0.11
375.697	0.11
376.061	0.11
376.425	0.11
376.788	0.11
377.152	0.11
377.515	0.11
377.879	0.11
378.242	0.12
378.606	0.12
378.969	0.12
379.333	0.12
379.696	0.12
380.059	0.12
380.422	0.12
380.786	0.12
381.149	0.12
381.512	0.13
381.875	0.13
382.238	0.13
382.601	0.13
382.964	0.14
383.327	0.14
383.69	0.14
384.053	0.14
384.416	0.15
384.779	0.15
385.142	0.15
385.504	0.16
385.867	0.16
386.23	0.16
386.593	0.16
386.955	0.16
387.318	0.17
387.68	0.16
388.043	0.17
388.405	0.16
388.768	0.16
389.13	0.16
389.493	0.16
389.855	0.15
390.217	0.16
390.58	0.15
390.942	0.16
391.304	0.16
391.666	0.16
392.028	0.16
392.391	0.16
392.753	0.17
393.115	0.18
393.477	0.18
393.839	0.19
394.201	0.19
394.563	0.19
394.924	0.21
395.286	0.21
395.648	0.22
396.01	0.22
396.371	0.23
396.733	0.24
397.095	0.24
397.456	0.25
397.818	0.25
398.18	0.25
398.541	0.23
398.903	0.25
399.264	0.22
399.625	0.22
399.987	0.22
400.348	0.2
400.709	0.21
401.071	0.2
401.432	0.19
401.793	0.18
402.154	0.17
402.515	0.16
402.876	0.15
403.238	0.14
403.599	0.13
403.96	0.12
404.32	0.12
404.681	0.11
405.042	0.11
405.403	0.1
405.764	0.1
406.125	0.1
406.485	0.08
406.846	0.08
407.207	0.08
407.567	0.08
407.928	0.08
408.288	0.08
408.649	0.07
409.009	0.07
409.37	0.07
409.73	0.07
410.091	0.06
410.451	0.07
410.811	0.06
411.171	0.05
411.532	0.06
411.892	0.05
412.252	0.05
412.612	0.05
412.972	0.06
413.332	0.06
413.692	0.06
414.052	0.05
414.412	0.05
414.772	0.05
415.132	0.05
415.492	0.06
415.851	0.04
416.211	0.05
416.571	0.06
416.931	0.05
417.29	0.06
417.65	0.05
418.009	0.05
418.369	0.05
418.728	0.06
419.088	0.05
419.447	0.05
419.807	0.05
420.166	0.05
420.525	0.06
420.884	0.05
421.244	0.06
421.603	0.05
421.962	0.04
422.321	0.06
422.68	0.05
423.039	0.05
423.398	0.05
423.757	0.04
424.116	0.05
424.475	0.05
424.834	0.04
425.193	0.06
425.551	0.05
425.91	0.05
426.269	0.05
426.628	0.06
426.986	0.06
427.345	0.04
427.703	0.03
428.062	0.04
428.42	0.06
428.779	0.03
429.137	0.06
429.496	0.04
429.854	0.06
430.212	0.05
430.57	0.04
430.929	0.04
431.287	0.04
431.645	0.05
432.003	0.05
432.361	0.04
432.719	0.05
433.077	0.06
433.435	0.06
433.793	0.05
434.151	0.06
434.509	0.05
434.866	0.05
435.224	0.06
435.582	0.05
435.94	0.05
436.297	0.05
436.655	0.04
437.012	0.05
437.37	0.04
437.727	0.04
438.085	0.04
438.442	0.05
438.8	0.04
439.157	0.08
439.514	0.05
439.872	0.04
440.229	0.05
440.586	0.05
440.943	0.04
441.3	0.05
441.657	0.03
442.014	0.04
442.371	0.05
442.728	0.05
443.085	0.04
443.442	0.04
443.799	0.05
444.156	0.05
444.513	0.04
444.869	0.07
445.226	0.04
445.583	0.05
445.939	0.03
446.296	0.05
446.652	0.06
447.009	0.07
447.365	0.04
447.722	0.05
448.078	0.06
448.434	0.06
448.791	0.06
449.147	0.03
449.503	0.04
449.859	0.06
450.215	0.05
450.571	0.03
450.928	0.04
451.284	0.04
451.64	0.06
451.995	0.04
452.351	0.03
452.707	0.05
453.063	0.07
453.419	0.04
453.775	0.05
454.13	0.04
454.486	0.03
454.842	0.04
455.197	0.06
455.553	0.05
455.908	0.06
456.264	0.06
456.619	0.07
456.975	0.06
457.33	0.05
457.685	0.04
458.04	0.06
458.396	0.07
458.751	0.06
459.106	0.05
459.461	0.05
459.816	0.04
460.171	0.04
460.526	0.05
460.881	0.05
461.236	0.02
461.591	0.04
461.946	0.04
462.301	0.06
462.655	0.04
463.01	0.05
463.365	0.04
463.719	0.05
464.074	0.06
464.428	0.05
464.783	0.05
465.137	0.04
465.492	0.05
465.846	0.06
466.201	0.03
466.555	0.05
466.909	0.05
467.263	0.03
467.618	0.06
467.972	0.04
468.326	0.07
468.68	0.04
469.034	0.05
469.388	0.04
469.742	0.04
470.096	0.04
470.45	0.04
470.804	0.04
471.157	0.04
471.511	0.04
471.865	0.04
472.218	0.05
472.572	0.03
472.926	0.05
473.279	0.04
473.633	0.04
473.986	0.04
474.34	0.04
474.693	0.04
475.046	0.04
475.4	0.04
475.753	0.03
476.106	0.03
476.459	0.04
476.812	0.03
477.165	0.03
477.519	0.03
477.872	0.03
478.224	0.03
478.577	0.03
478.93	0.03
479.283	0.03
479.636	0.03
479.989	0.03
480.341	0.03
480.694	0.03
481.047	0.03
481.399	0.03
481.752	0.03
482.104	0.03
482.457	0.02
482.809	0.03
483.162	0.03
483.514	0.02
483.866	0.03
484.219	0.03
484.571	0.03
484.923	0.04
485.275	0.02
485.627	0.02
485.979	0.02
486.331	0.03
486.683	0.03
487.035	0.02
487.387	0.02
487.739	0.02
488.091	0.03
488.443	0.03
488.794	0.03
489.146	0.03
489.498	0.02
489.849	0.03
490.201	0.03
490.552	0.03
490.904	0.02
491.255	0.02
491.607	0.02
491.958	0.03
492.309	0.03
492.661	0.03
493.012	0.02
493.363	0.02
493.714	0.03
494.065	0.02
494.416	0.03
494.767	0.03
495.118	0.02
495.469	0.02
495.82	0.03
496.171	0.03
496.522	0.03
496.872	0.03
497.223	0.03
497.574	0.02
497.924	0.03
498.275	0.02
498.626	0.02
498.976	0.03
499.327	0.03
499.677	0.03
500.027	0.03
500.378	0.03
500.728	0.03
501.078	0.03
501.428	0.03
501.779	0.03
502.129	0.04
502.479	0.03
502.829	0.03
503.179	0.02
503.529	0.03
503.879	0.03
504.229	0.03
504.578	0.03
504.928	0.03
505.278	0.03
505.628	0.03
505.977	0.03
506.327	0.03
506.676	0.03
507.026	0.03
507.375	0.03
507.725	0.03
508.074	0.03
508.424	0.03
508.773	0.03
509.122	0.03
509.471	0.03
509.82	0.03
510.17	0.03
510.519	0.03
510.868	0.04
511.217	0.03
511.566	0.03
511.915	0.03
512.263	0.03
512.612	0.03
512.961	0.03
513.31	0.03
513.659	0.03
514.007	0.04
514.356	0.03
514.704	0.03
515.053	0.03
515.401	0.03
515.75	0.04
516.098	0.03
516.447	0.03
516.795	0.03
517.143	0.04
517.491	0.03
517.839	0.03
518.188	0.03
518.536	0.04
518.884	0.04
519.232	0.04
519.58	0.04
519.928	0.03
520.275	0.03
520.623	0.03
520.971	0.03
521.319	0.03
521.666	0.04
522.014	0.04
522.362	0.04
522.709	0.04
523.057	0.04
523.404	0.04
523.752	0.04
524.099	0.04
524.446	0.04
524.794	0.04
525.141	0.04
525.488	0.04
525.835	0.04
526.182	0.03
526.529	0.04
526.876	0.04
527.223	0.04
527.57	0.04
527.917	0.03
528.264	0.04
528.611	0.04
528.958	0.04
529.304	0.04
529.651	0.04
529.998	0.04
530.344	0.04
530.691	0.04
531.037	0.04
531.384	0.04
531.73	0.04
532.076	0.04
532.423	0.05
532.769	0.04
533.115	0.04
533.461	0.04
533.807	0.04
534.154	0.04
534.5	0.04
534.846	0.04
535.192	0.04
535.537	0.04
535.883	0.05
536.229	0.04
536.575	0.05
536.921	0.04
537.266	0.04
537.612	0.04
537.957	0.04
538.303	0.04
538.649	0.05
538.994	0.04
539.339	0.04
539.685	0.04
540.03	0.04
540.375	0.05
540.721	0.05
541.066	0.05
541.411	0.05
541.756	0.05
542.101	0.05
542.446	0.05
542.791	0.05
543.136	0.05
543.481	0.05
543.825	0.05
544.17	0.05
544.515	0.05
544.86	0.05
545.204	0.05
545.549	0.05
545.893	0.05
546.238	0.05
546.582	0.05
546.927	0.05
547.271	0.05
547.615	0.06
547.96	0.05
548.304	0.06
548.648	0.05
548.992	0.05
549.336	0.05
549.68	0.05
550.024	0.05
550.368	0.05
550.712	0.06
551.056	0.06
551.4	0.06
551.743	0.06
552.087	0.06
552.431	0.05
552.774	0.06
553.118	0.06
553.462	0.05
553.805	0.05
554.148	0.05
554.492	0.05
554.835	0.06
555.178	0.05
555.522	0.05
555.865	0.06
556.208	0.06
556.551	0.06
556.894	0.06
557.237	0.05
557.58	0.06
557.923	0.06
558.266	0.06
558.609	0.06
558.952	0.05
559.294	0.06
559.637	0.06
559.98	0.06
560.322	0.06
560.665	0.06
561.007	0.06
561.35	0.05
561.692	0.06
562.034	0.05
562.377	0.06
562.719	0.06
563.061	0.06
563.403	0.06
563.745	0.06
564.088	0.06
564.43	0.06
564.772	0.06
565.113	0.06
565.455	0.06
565.797	0.06
566.139	0.06
566.481	0.06
566.822	0.06
567.164	0.06
567.506	0.06
567.847	0.06
568.189	0.06
568.53	0.06
568.872	0.06
569.213	0.06
569.554	0.06
569.895	0.06
570.237	0.06
570.578	0.06
570.919	0.06
571.26	0.06
571.601	0.06
571.942	0.06
572.283	0.06
572.624	0.06
572.965	0.06
573.306	0.06
573.646	0.06
573.987	0.06
574.328	0.06
574.668	0.06
575.009	0.06
575.349	0.06
575.69	0.06
576.03	0.06
576.37	0.05
576.711	0.05
577.051	0.06
577.391	0.06
577.731	0.06
578.072	0.06
578.412	0.06
578.752	0.06
579.092	0.05
579.431	0.05
579.771	0.05
580.111	0.05
580.451	0.05
580.791	0.06
581.13	0.06
581.47	0.06
581.81	0.06
582.149	0.06
582.489	0.06
582.828	0.05
583.167	0.04
583.507	0.03
583.846	0.02
584.185	0.03
584.525	0.04
584.864	0.06
585.203	0.06
585.542	0.06
585.881	0.07
586.22	0.06
586.559	0.05
586.898	0.05
587.236	0.05
587.575	0.06
587.914	0.06
588.252	0.06
588.591	0.06
588.93	0.06
589.268	0.06
589.607	0.06
589.945	0.06
590.283	0.06
590.622	0.06
590.96	0.07
591.298	0.07
591.636	0.07
591.974	0.07
592.313	0.07
592.651	0.07
592.989	0.07
593.326	0.06
593.664	0.06
594.002	0.06
594.34	0.06
594.678	0.06
595.015	0.06
595.353	0.06
595.691	0.07
596.028	0.07
596.366	0.07
596.703	0.07
597.04	0.07
597.378	0.07
597.715	0.07
598.052	0.07
598.389	0.07
598.726	0.07
599.064	0.07
599.401	0.07
599.738	0.07
600.074	0.07
600.411	0.07
600.748	0.06
601.085	0.07
601.422	0.07
601.758	0.07
602.095	0.07
602.432	0.07
602.768	0.07
603.105	0.07
603.441	0.07
603.777	0.08
604.114	0.08
604.45	0.08
604.786	0.07
605.122	0.07
605.459	0.07
605.795	0.07
606.131	0.07
606.467	0.07
606.803	0.07
607.139	0.07
607.474	0.07
607.81	0.07
608.146	0.07
608.482	0.07
608.817	0.07
609.153	0.07
609.488	0.07
609.824	0.07
610.159	0.07
610.495	0.07
610.83	0.07
611.165	0.07
611.5	0.07
611.836	0.07
612.171	0.07
612.506	0.07
612.841	0.07
613.176	0.07
613.511	0.07
613.845	0.07
614.18	0.07
614.515	0.07
614.85	0.07
615.184	0.07
615.519	0.07
615.854	0.07
616.188	0.06
616.523	0.06
616.857	0.06
617.191	0.07
617.526	0.07
617.86	0.07
618.194	0.07
618.528	0.07
618.862	0.07
619.196	0.07
619.53	0.07
619.864	0.07
620.198	0.07
620.532	0.07
620.866	0.07
621.2	0.07
621.533	0.07
621.867	0.07
622.201	0.07
622.534	0.07
622.868	0.07
623.201	0.07
623.534	0.06
623.868	0.06
624.201	0.06
624.534	0.06
624.868	0.07
625.201	0.06
625.534	0.06
625.867	0.06
626.2	0.06
626.533	0.07
626.865	0.06
627.198	0.06
627.531	0.06
627.864	0.06
628.196	0.06
628.529	0.06
628.862	0.06
629.194	0.06
629.527	0.06
629.859	0.06
630.191	0.07
630.524	0.06
630.856	0.06
631.188	0.05
631.52	0.06
631.852	0.06
632.184	0.06
632.516	0.06
632.848	0.06
633.18	0.06
633.512	0.06
633.844	0.06
634.175	0.06
634.507	0.05
634.839	0.06
635.17	0.06
635.502	0.05
635.833	0.05
636.165	0.05
636.496	0.05
636.827	0.05
637.159	0.05
637.49	0.05
637.821	0.05
638.152	0.05
638.483	0.05
638.814	0.05
639.145	0.05
639.476	0.05
639.807	0.05
640.137	0.05
640.468	0.05
640.799	0.05
641.129	0.05
641.46	0.04
641.791	0.05
642.121	0.04
642.451	0.04
642.782	0.04
643.112	0.04
643.442	0.04
643.773	0.04
644.103	0.04
644.433	0.04
644.763	0.04
645.093	0.04
645.423	0.04
645.753	0.04
646.082	0.04
646.412	0.04
646.742	0.04
647.072	0.04
647.401	0.04
647.731	0.04
648.06	0.04
648.39	0.04
648.719	0.04
649.048	0.04
649.378	0.04
649.707	0.04
650.036	0.04
650.365	0.04
650.694	0.04
651.023	0.04
651.352	0.04
651.681	0.04
652.01	0.04
652.339	0.04
652.668	0.04
652.996	0.04
653.325	0.04
653.654	0.04
653.982	0.04
654.311	0.04
654.639	0.04
654.967	0.04
655.296	0.04
655.624	0.04
655.952	0.04
656.28	0.04
656.609	0.04
656.937	0.04
657.265	0.02
657.593	-0.02
657.92	0
658.248	0
658.576	0
658.904	0
659.231	0.01
659.559	0.05
659.887	0.06
660.214	0.05
660.542	0.04
660.869	0.04
661.196	0.04
661.524	0.04
661.851	0.04
662.178	0.04
662.505	0.04
662.832	0.04
663.159	0.04
663.486	0.04
663.813	0.04
664.14	0.04
664.467	0.04
664.794	0.04
665.12	0.04
665.447	0.04
665.774	0.03
666.1	0.04
666.427	0.04
666.753	0.04
667.079	0.04
667.406	0.04
667.732	0.03
668.058	0.04
668.384	0.04
668.71	0.03
669.036	0.04
669.362	0.03
669.688	0.04
670.014	0.04
670.34	0.03
670.666	0.03
670.991	0.03
671.317	0.03
671.643	0.03
671.968	0.03
672.294	0.03
672.619	0.03
672.945	0.03
673.27	0.03
673.595	0.03
673.92	0.03
674.246	0.03
674.571	0.03
674.896	0.04
675.221	0.03
675.546	0.04
675.87	0.03
676.195	0.03
676.52	0.03
676.845	0.03
677.169	0.03
677.494	0.03
677.819	0.03
678.143	0.04
678.468	0.03
678.792	0.03
679.116	0.03
679.44	0.03
679.765	0.03
680.089	0.02
680.413	0.03
680.737	0.03
681.061	0.03
681.385	0.03
681.709	0.03
682.033	0.03
682.356	0.03
682.68	0.03
683.004	0.03
683.327	0.03
683.651	0.02
683.974	0.02
684.298	0.03
684.621	0.03
684.944	0.03
685.268	0.03
685.591	0.02
685.914	0.02
686.237	0.02
686.56	0.02
686.883	0.02
687.206	0.02
687.529	0.02
687.852	0.03
688.175	0.02
688.497	0.02
688.82	0.03
689.142	0.02
689.465	0.02
689.787	0.02
690.11	0.02
690.432	0.02
690.755	0.02
691.077	0.02
691.399	0.02
691.721	0.02
692.043	0.02
692.365	0.02
692.687	0.02
693.009	0.02
693.331	0.02
693.653	0.02
693.974	0.02
694.296	0.02
694.618	0.02
694.939	0.02
695.261	0.02
695.582	0.02
695.904	0.02
696.225	0.02
696.546	0.02
696.868	0.02
697.189	0.02
697.51	0.02
697.831	0.02
698.152	0.02
698.473	0.01
698.794	0.01
699.114	0.01
699.435	0.01
699.756	0.02
700.077	0.02
700.397	0.02
700.718	0.02
701.038	0.02
701.359	0.02
701.679	0.01
701.999	0.02
702.32	0.01
702.64	0.01
702.96	0.01
703.28	0.01
703.6	0.01
703.92	0.01
704.24	0.01
704.56	0.01
704.879	0.01
705.199	0.01
705.519	0.02
705.838	0.01
706.158	0.01
706.478	0.01
706.797	0.01
707.116	0.01
707.436	0.01
707.755	0.01
708.074	0.01
708.393	0.01
708.712	0.01
709.031	0.01
709.35	0.01
709.669	0.01
709.988	0.01
710.307	0.01
710.626	0.01
710.944	0.01
711.263	0.01
711.582	0.02
711.9	0.01
712.219	0.01
712.537	0.01
712.855	0.01
713.174	0.01
713.492	0.01
713.81	0.01
714.128	0.01
714.446	0.01
714.764	0.01
715.082	0.01
715.4	0.01
715.718	0.01
716.035	0.01
716.353	0.01
716.671	0.01
716.988	0.01
717.306	0.01
717.623	0.01
717.941	0.02
718.258	0.02
718.575	0.02
718.893	0.02
719.21	0.01
719.527	0.01
719.844	0.01
720.161	0.01
720.478	0.01
720.795	0.01
721.112	0.01
721.428	0.01
721.745	0.02
722.062	0.02
722.378	0.01
722.695	0.01
723.011	0.01
723.328	0.01
723.644	0.01
723.96	0.01
724.276	0.01
724.593	0.01
724.909	0.02
725.225	0.01
725.541	0.01
725.857	0.01
726.173	0.01
726.488	0.01
726.804	0.01
727.12	0.01
727.435	0.01
727.751	0.01
728.067	0.01
728.382	0.01
728.697	0.01
729.013	0.01
729.328	0.01
729.643	0.01
729.958	0.01
730.273	0.01
730.588	0.01
730.903	0.01
731.218	0.01
731.533	0.01
731.848	0.01
732.163	0.01
732.477	0.01
732.792	0.01
733.107	0.01
733.421	0.01
733.736	0.02
734.05	0.01
734.364	0.01
734.678	0.01
734.993	0.01
735.307	0.01
735.621	0.01
735.935	0.01
736.249	0.01
736.563	0.02
736.877	0.02
737.19	0.01
737.504	0.01
737.818	0.02
738.131	0.02
738.445	0.02
738.758	0.02
739.072	0.01
739.385	0.02
739.698	0.02
740.012	0.01
740.325	0.01
740.638	0.01
740.951	0.01
741.264	0.01
741.577	0.01
741.89	0.01
742.203	0.02
742.515	0.01
742.828	0.01
743.141	0.01
743.453	0.01
743.766	0.01
744.078	0.01
744.391	0.01
744.703	0.01
745.015	0.01
745.327	0.01
745.639	0.01
745.952	0.01
746.264	0.01
746.575	0.01
746.887	0.01
747.199	0.01
747.511	0.01
747.823	0.01
748.134	0
748.446	0.01
748.757	0.01
749.069	0.01
749.38	0.01
749.692	0.01
750.003	0.01
750.314	0.01
750.625	0.01
750.936	0.01
751.248	0.01
751.559	0.01
751.869	0.01
752.18	0.01
752.491	0.01
752.802	0.01
753.112	0.01
753.423	0.01
753.734	0.01
754.044	0.01
754.355	0.01
754.665	0.01
754.975	0.01
755.285	0.01
755.596	0.01
755.906	0.01
756.216	0.01
756.526	0.01
756.836	0.01
757.146	0.01
757.455	0.01
757.765	0.01
758.075	0.01
758.385	0
758.694	0
759.004	0
759.313	0.01
759.622	0.01
759.932	0.01
760.241	0.01
760.55	0.01
760.859	0.01
761.168	0.01
761.477	0.01
761.786	0.01
762.095	0
762.404	0
762.713	0.01
763.021	0.01
763.33	0.01
763.639	0.01
763.947	0.01
764.256	0.01
764.564	0.01
764.872	0.01
765.181	0.01
765.489	0.01
765.797	0
766.105	0
766.413	0
766.721	0.01
767.029	0.01
767.337	0.01
767.644	0.01
767.952	0.01
768.26	0.01
768.567	0.01
768.875	0.01
769.182	0.01
769.49	0
769.797	0
770.104	0
770.411	0.01
770.718	0.01
771.026	0.01
771.333	0.01
771.639	0
771.946	0.01
772.253	-0
772.56	0
772.867	0.01
773.173	0.01
773.48	0
773.786	0
774.093	0.01
774.399	0
774.705	0.01
775.012	0
775.318	0
775.624	0.01
775.93	0
776.236	0
776.542	0
776.848	0
777.154	0
777.459	0
777.765	0
778.071	0.01
778.376	0
778.682	0
778.987	0
779.292	-0
779.598	0
779.903	-0
780.208	0
780.513	0
780.818	0
781.123	0.01
781.428	0.01
781.733	0.01
782.038	0
782.343	0
782.647	0
782.952	0
783.256	-0
783.561	0
783.865	0
784.17	-0
784.474	0
784.778	0
785.082	0
785.386	0
785.69	0
785.994	0.01
786.298	0
786.602	0
786.906	0
787.209	0
787.513	0
787.817	0
788.12	0.01
788.424	0
788.727	0
789.03	0
789.333	0
789.637	0
789.94	-0
790.243	0
790.546	0.01
790.849	0
791.152	0
791.454	0.01
791.757	0
792.06	0
792.362	0
792.665	0
792.967	0
793.27	0.01
793.572	0
793.874	0
794.177	0
794.479	0
794.781	-0
795.083	-0
795.385	0
795.687	0
795.989	0
796.29	0.01
796.592	0
796.894	0.01
797.195	0
797.497	0.01
797.798	0.01
798.1	0.01
798.401	0.01
798.702	0
799.003	0
799.304	0
799.605	0
799.906	0.01
800.207	0
800.508	0
800.809	0
801.11	0.01
801.41	0.01
801.711	0.01
802.011	0
802.312	0
802.612	0
802.913	0
803.213	0
803.513	0
803.813	0
804.113	-0
804.413	-0
804.713	-0
805.013	-0
805.313	-0
805.613	-0
805.912	0
806.212	0.01
806.511	0
806.811	-0
807.11	0
807.41	0
807.709	-0
808.008	0
808.307	-0
808.606	0
808.905	0
809.204	-0
809.503	0
809.802	0.01
810.101	0.01
810.399	0
810.698	0
810.997	0.01
811.295	0
811.593	0
811.892	0
812.19	0.01
812.488	0
812.786	0.01
813.084	0
813.383	0
813.68	0.01
813.978	0
814.276	0.01
814.574	0.01
814.872	0.01
815.169	0
815.467	0
815.764	0
816.062	0.01
816.359	0.01
816.656	0.01
816.954	0.01
817.251	0
817.548	-0
817.845	0.01
818.142	-0
818.439	-0
818.735	0
819.032	-0
819.329	-0
819.626	-0
819.922	0
820.219	0.01
820.515	0.01
820.811	0
821.108	-0
821.404	0
821.7	-0
821.996	-0
822.292	0
822.588	-0
822.884	-0
823.18	-0
823.475	0
823.771	-0
824.067	-0
824.362	-0
824.658	-0
824.953	-0
825.249	-0
825.544	0
825.839	0
826.134	0
826.429	0
826.724	-0
827.019	-0
827.314	0
827.609	0.01
827.904	0
828.198	-0
828.493	0
828.787	-0
829.082	0
829.376	-0
829.671	-0
829.965	0.01
830.259	0.01
830.553	0.01
830.847	0.01
831.141	-0
831.435	-0.01
831.729	0.01
832.023	0
832.317	0
832.61	-0
832.904	0.01
833.197	-0
833.491	-0.01
833.784	-0
834.077	0
834.371	-0
834.664	-0.01
834.957	-0.01
835.25	-0
835.543	-0
835.836	0
836.129	0
836.421	-0
836.714	0
837.007	-0
837.299	0.01
837.592	0
837.884	0.01
838.177	0
838.469	-0
838.761	0
839.053	0
839.345	0
839.637	-0
839.929	0
840.221	0.01
840.513	0
840.805	0
841.096	0.01
841.388	0
841.68	0
841.971	0.01
842.262	0
842.554	-0.01
842.845	0
843.136	0.01
843.427	0.01
843.718	0.01
844.009	0.01
844.3	0.01
844.591	-0
844.882	0.01
845.173	-0
845.463	-0.01
845.754	0
846.044	-0
846.335	-0.01
846.625	0
846.915	-0
847.206	-0.01
847.496	0.01
847.786	-0.01
848.076	-0
848.366	-0.01
848.656	-0.01
848.945	-0.01
849.235	-0
849.525	-0.01
849.814	-0.01
850.104	0.01
850.393	-0.03
850.683	0.02
850.972	0.01
851.261	-0
851.551	-0.01
851.84	-0
852.129	-0.01
852.418	-0.01
852.707	0
852.995	-0.01
853.284	-0.01
853.573	0
853.862	-0.02
854.15	-0.04
854.439	0
854.727	-0
855.015	0
855.304	0.02
855.592	0
855.88	0
856.168	0.01
856.456	-0
856.744	0.01
857.032	0.01
857.32	-0.01
857.607	-0
857.895	-0.02
858.183	-0.01
858.47	0.01
858.757	0
859.045	-0.01
859.332	-0.02
859.619	0
859.907	0
860.194	0.02
860.481	-0.01
860.768	0
861.054	-0.01
861.341	-0.02
861.628	0.03
861.915	-0.01
862.201	-0.01
862.488	-0.01
862.774	0.01
863.061	-0.03
863.347	-0
863.633	-0.01
863.919	0.02
864.205	0.03
864.491	0
864.777	0.01
865.063	0.04
865.349	0.02
865.635	0.01
865.92	-0.04
866.206	-0.01
866.492	-0.01
866.777	-0.01
867.062	-0.07
867.348	0
867.633	0.01
867.918	0.02
868.203	-0.02
868.488	-0.05
868.773	0.01
869.058	0.02
869.343	-0.02
869.628	-0.05
869.912	-0.02
870.197	-0.02
870.482	-0.02
870.766	-0.03
871.05	-0.03
871.335	-0.01
871.619	-0.01
871.903	-0.07
872.187	-0.05
872.471	-0.05
872.755	0.02
873.039	-0.03
873.323	-0.08
873.607	0
873.89	-0.03
874.174	-0.02
874.458	-0.02
874.741	-0.08
875.024	-0.02
875.308	-0.02
875.591	-0.1
875.874	-0.1
876.157	-0.04
876.44	-0.12
876.723	-0.05
877.006	-0.05
877.289	-0.1
877.572	-0.07
877.854	-0.13
878.137	-0.18
878.42	-0.16
878.702	-0.02
878.984	-0.12
879.267	-0.1
879.549	-0.04
879.831	0.03
880.113	-0
880.395	-0.01
880.677	-0.14
880.959	0.06
