Data from Rubpy_EV_EDTA_Flow_Absorbance_14-09-42-474.txt Node
Date: Fri Jul 03 14:09:42 BST 2026
User: fpm-admin
Spectrometer: OFX00224
Trigger mode: 0
Integration Time (sec): 1.200000E-2
Scans to average: 3
Nonlinearity correction enabled: false
Boxcar width: 0
Storing dark spectrum: false
XAxis mode: Wavelengths
Number of Pixels in Spectrum: 2136
>>>>>Begin Spectral Data<<<<<
154.91	-0.78
155.289	-0.1
155.669	0.15
156.048	0.96
156.428	0.02
156.807	0.79
157.186	0.29
157.566	-0
157.945	-0.04
158.325	-0.65
158.704	-0
159.083	0.58
159.462	-1.02
159.842	-0.39
160.221	0.49
160.6	-0
160.979	-0
161.359	0.13
161.738	-0.2
162.117	0.54
162.496	-0
162.875	-1.1
163.254	-0
163.633	-0
164.012	-0
164.391	-1.04
164.77	0.46
165.149	0.52
165.528	-0
165.907	-0
166.286	-0
166.665	0.11
167.044	-0
167.423	-0
167.802	0.62
168.181	-0
168.559	0.07
168.938	-0
169.317	-0
169.696	-0
170.074	1.45
170.453	0.57
170.832	-0
171.21	-0
171.589	-0.04
171.968	0.4
172.346	-0
172.725	0.71
173.103	-0.86
173.482	0.9
173.861	-0
174.239	0.38
174.617	-0
174.996	-0
175.374	0.51
175.753	-0
176.131	-0
176.51	0.24
176.888	-0
177.266	-0.98
177.645	0.06
178.023	-0
178.401	-0.11
178.779	0.06
179.158	0.44
179.536	-0
179.914	-0
180.292	0.9
180.67	0.14
181.048	-0
181.427	-0
181.805	-0.37
182.183	-0
182.561	0.87
182.939	-0
183.317	-0
183.695	-0.05
184.073	-0
184.451	-0
184.829	-0
185.206	-0
185.584	-0.24
185.962	0.07
186.34	-0.31
186.718	-0.36
187.096	-0.2
187.473	-0
187.851	-0.29
188.229	-0
188.607	-0.01
188.984	0.03
189.362	0.02
189.74	0.06
190.117	-0.07
190.495	0.05
190.872	-0
191.25	0.01
191.627	0.13
192.005	-0
192.382	-0
192.76	0.06
193.137	0.09
193.515	0.1
193.892	0.17
194.269	0.04
194.647	0.01
195.024	-0.02
195.401	-0.02
195.779	0
196.156	0.08
196.533	-0.01
196.91	0.06
197.288	0.19
197.665	-0.02
198.042	0.02
198.419	0.08
198.796	-0.01
199.173	0.11
199.55	-0.05
199.927	0.02
200.304	-0.04
200.681	0.04
201.058	-0.08
201.435	0.11
201.812	-0.04
202.189	0.08
202.566	0.01
202.943	0.05
203.32	0.01
203.697	-0.09
204.073	0.07
204.45	0.03
204.827	-0.01
205.204	-0.07
205.58	-0.02
205.957	0.1
206.334	0
206.71	-0.02
207.087	-0.08
207.464	0.01
207.84	-0.02
208.217	0.04
208.593	-0.01
208.97	0.08
209.346	-0.06
209.723	0.06
210.099	0.01
210.476	0.03
210.852	-0.11
211.228	-0
211.605	-0.06
211.981	0
212.357	0.03
212.733	0.04
213.11	0.02
213.486	-0
213.862	0.03
214.238	-0.01
214.614	0.05
214.991	-0.04
215.367	-0.02
215.743	0.06
216.119	0.04
216.495	-0.06
216.871	-0.08
217.247	0.06
217.623	0.07
217.999	0.04
218.375	-0.06
218.751	0.03
219.127	-0.03
219.502	0.04
219.878	-0.03
220.254	-0.03
220.63	0.02
221.006	-0.02
221.381	0.01
221.757	-0.07
222.133	0.09
222.508	-0.01
222.884	-0.03
223.26	-0.08
223.635	-0.01
224.011	0
224.386	0.02
224.762	0.05
225.137	0.01
225.513	0.01
225.888	-0.05
226.264	-0.05
226.639	0.05
227.014	0.06
227.39	-0.01
227.765	0.02
228.14	0.03
228.516	-0.06
228.891	0.09
229.266	0.03
229.641	0.05
230.017	-0.01
230.392	-0.01
230.767	-0.04
231.142	-0.02
231.517	-0.05
231.892	-0
232.267	0.05
232.642	-0.01
233.017	-0.02
233.392	0.04
233.767	-0.01
234.142	-0.05
234.517	0
234.892	-0.03
235.267	-0.1
235.641	-0.08
236.016	0.05
236.391	-0.09
236.766	-0.01
237.14	0.12
237.515	0.12
237.89	-0.02
238.264	0.05
238.639	0.09
239.014	-0.06
239.388	0.01
239.763	-0.02
240.137	0.05
240.512	-0.02
240.886	-0.05
241.261	-0.06
241.635	0.01
242.009	0.04
242.384	0.01
242.758	0.11
243.132	-0.01
243.507	0.05
243.881	0.05
244.255	0.02
244.629	-0.03
245.004	0.13
245.378	-0.04
245.752	-0.04
246.126	0.05
246.5	-0.01
246.874	-0.04
247.248	-0.06
247.622	-0.03
247.996	0.03
248.37	0.02
248.744	0.06
249.118	-0.04
249.492	0.04
249.866	-0.04
250.24	-0.05
250.613	-0.03
250.987	0.08
251.361	0.09
251.735	-0.02
252.108	-0.01
252.482	-0.01
252.856	-0.03
253.229	-0.05
253.603	0.03
253.977	-0.06
254.35	0.04
254.724	0.03
255.097	-0.04
255.471	-0.02
255.844	-0.02
256.218	0.03
256.591	-0
256.964	-0.04
257.338	-0.01
257.711	0.05
258.084	0.05
258.458	0.02
258.831	-0.05
259.204	0.07
259.577	-0
259.95	0.11
260.323	-0.05
260.697	-0.02
261.07	-0.04
261.443	0.1
261.816	0.02
262.189	0.03
262.562	0.07
262.935	0.01
263.308	0.08
263.68	0.04
264.053	0.08
264.426	0.03
264.799	-0.03
265.172	-0.05
265.545	0.01
265.917	-0.1
266.29	0.08
266.663	0.01
267.035	-0.01
267.408	-0.07
267.781	0
268.153	0.04
268.526	0.02
268.898	-0
269.271	0.06
269.643	0.02
270.016	0.04
270.388	-0
270.76	0.03
271.133	0.04
271.505	-0.02
271.877	0.08
272.25	-0.03
272.622	-0.05
272.994	0.06
273.366	0.03
273.739	0.04
274.111	0.09
274.483	0.03
274.855	-0.05
275.227	0.02
275.599	-0
275.971	0.05
276.343	-0.03
276.715	0.1
277.087	-0
277.459	0.04
277.831	0.01
278.203	0.07
278.574	-0.01
278.946	-0.03
279.318	0.05
279.69	-0.03
280.061	0.04
280.433	0.06
280.805	0.03
281.176	-0
281.548	0.04
281.92	0.04
282.291	0.01
282.663	-0.02
283.034	0.06
283.406	-0.06
283.777	-0.04
284.148	0.01
284.52	0.08
284.891	0.03
285.262	-0.04
285.634	-0.01
286.005	0
286.376	0.05
286.747	0.02
287.119	0.02
287.49	-0.01
287.861	0.01
288.232	0.06
288.603	0.02
288.974	0.1
289.345	0.03
289.716	-0
290.087	0.04
290.458	0.01
290.829	0.01
291.2	0.02
291.571	-0
291.941	0.06
292.312	-0.01
292.683	0.01
293.054	-0.02
293.424	0.01
293.795	0.09
294.166	-0.07
294.536	0
294.907	-0.04
295.277	0.02
295.648	0
296.018	0.06
296.389	-0.01
296.759	0.01
297.13	0
297.5	-0.01
297.871	0.06
298.241	-0
298.611	-0.02
298.981	0.07
299.352	-0.02
299.722	0.03
300.092	-0.06
300.462	-0
300.832	-0.02
301.202	-0.04
301.573	0.01
301.943	-0.02
302.313	0.02
302.683	-0.02
303.053	0.04
303.422	-0
303.792	-0.05
304.162	-0.04
304.532	-0
304.902	-0.04
305.272	0.08
305.641	0.04
306.011	0.01
306.381	0.02
306.75	0
307.12	0.05
307.49	-0.05
307.859	-0.06
308.229	0.03
308.598	0.07
308.968	0
309.337	0
309.707	0.07
310.076	0.07
310.445	0
310.815	0.04
311.184	0.05
311.553	0.09
311.923	0.06
312.292	0.03
312.661	0.05
313.03	-0.01
313.399	0.06
313.768	0.02
314.137	0.03
314.506	0
314.875	0.06
315.244	0.08
315.613	0.04
315.982	0.05
316.351	0.04
316.72	0.04
317.089	0.06
317.458	0.04
317.826	0.06
318.195	0.03
318.564	0.04
318.933	0.02
319.301	0.04
319.67	0.06
320.038	0.04
320.407	0.05
320.775	0.03
321.144	0.05
321.512	0.03
321.881	0.04
322.249	0.05
322.618	0.06
322.986	0.05
323.354	0.03
323.723	0.03
324.091	0.05
324.459	0.04
324.827	0.04
325.195	0.05
325.564	0.04
325.932	0.04
326.3	0.04
326.668	0.06
327.036	0.04
327.404	0.03
327.772	0.03
328.14	0.03
328.508	0.03
328.875	0.04
329.243	0.04
329.611	0.04
329.979	0.03
330.346	0.04
330.714	0.05
331.082	0.04
331.449	0.03
331.817	0.03
332.185	0.04
332.552	0.04
332.92	0.05
333.287	0.04
333.655	0.04
334.022	0.04
334.389	0.03
334.757	0.04
335.124	0.04
335.491	0.03
335.859	0.04
336.226	0.03
336.593	0.04
336.96	0.03
337.327	0.04
337.695	0.04
338.062	0.03
338.429	0.04
338.796	0.03
339.163	0.03
339.53	0.04
339.897	0.04
340.263	0.05
340.63	0.03
340.997	0.04
341.364	0.04
341.731	0.04
342.097	0.04
342.464	0.04
342.831	0.04
343.197	0.04
343.564	0.04
343.931	0.04
344.297	0.04
344.664	0.05
345.03	0.05
345.396	0.04
345.763	0.04
346.129	0.05
346.496	0.05
346.862	0.04
347.228	0.04
347.594	0.05
347.961	0.04
348.327	0.04
348.693	0.04
349.059	0.05
349.425	0.05
349.791	0.05
350.157	0.05
350.523	0.05
350.889	0.05
351.255	0.05
351.621	0.05
351.987	0.05
352.353	0.05
352.719	0.05
353.084	0.06
353.45	0.06
353.816	0.05
354.181	0.05
354.547	0.05
354.913	0.06
355.278	0.06
355.644	0.06
356.009	0.06
356.375	0.06
356.74	0.06
357.106	0.06
357.471	0.06
357.836	0.06
358.202	0.06
358.567	0.06
358.932	0.07
359.297	0.06
359.663	0.06
360.028	0.06
360.393	0.06
360.758	0.07
361.123	0.07
361.488	0.07
361.853	0.07
362.218	0.07
362.583	0.07
362.948	0.06
363.312	0.07
363.677	0.07
364.042	0.07
364.407	0.07
364.772	0.08
365.136	0.07
365.501	0.07
365.865	0.07
366.23	0.07
366.595	0.07
366.959	0.08
367.324	0.08
367.688	0.08
368.052	0.08
368.417	0.07
368.781	0.07
369.145	0.08
369.51	0.08
369.874	0.08
370.238	0.08
370.602	0.08
370.967	0.08
371.331	0.08
371.695	0.08
372.059	0.08
372.423	0.09
372.787	0.07
373.151	0.08
373.515	0.08
373.878	0.08
374.242	0.08
374.606	0.08
374.97	0.07
375.334	0.08
375.697	0.07
376.061	0.08
376.425	0.08
376.788	0.08
377.152	0.08
377.515	0.08
377.879	0.08
378.242	0.08
378.606	0.09
378.969	0.09
379.333	0.08
379.696	0.08
380.059	0.08
380.422	0.08
380.786	0.09
381.149	0.09
381.512	0.09
381.875	0.09
382.238	0.09
382.601	0.09
382.964	0.1
383.327	0.1
383.69	0.1
384.053	0.1
384.416	0.11
384.779	0.11
385.142	0.11
385.504	0.12
385.867	0.12
386.23	0.12
386.593	0.12
386.955	0.12
387.318	0.12
387.68	0.12
388.043	0.12
388.405	0.12
388.768	0.12
389.13	0.12
389.493	0.12
389.855	0.11
390.217	0.11
390.58	0.11
390.942	0.12
391.304	0.11
391.666	0.12
392.028	0.12
392.391	0.13
392.753	0.12
393.115	0.13
393.477	0.12
393.839	0.13
394.201	0.14
394.563	0.14
394.924	0.15
395.286	0.15
395.648	0.16
396.01	0.16
396.371	0.17
396.733	0.17
397.095	0.18
397.456	0.18
397.818	0.18
398.18	0.18
398.541	0.17
398.903	0.18
399.264	0.16
399.625	0.16
399.987	0.15
400.348	0.16
400.709	0.15
401.071	0.14
401.432	0.14
401.793	0.13
402.154	0.12
402.515	0.12
402.876	0.11
403.238	0.1
403.599	0.1
403.96	0.1
404.32	0.09
404.681	0.08
405.042	0.09
405.403	0.08
405.764	0.08
406.125	0.07
406.485	0.07
406.846	0.06
407.207	0.07
407.567	0.07
407.928	0.06
408.288	0.07
408.649	0.06
409.009	0.05
409.37	0.06
409.73	0.05
410.091	0.06
410.451	0.04
410.811	0.05
411.171	0.05
411.532	0.05
411.892	0.05
412.252	0.05
412.612	0.05
412.972	0.05
413.332	0.05
413.692	0.05
414.052	0.05
414.412	0.05
414.772	0.05
415.132	0.05
415.492	0.06
415.851	0.04
416.211	0.04
416.571	0.05
416.931	0.06
417.29	0.04
417.65	0.04
418.009	0.05
418.369	0.05
418.728	0.05
419.088	0.05
419.447	0.04
419.807	0.04
420.166	0.04
420.525	0.06
420.884	0.05
421.244	0.05
421.603	0.06
421.962	0.04
422.321	0.05
422.68	0.04
423.039	0.04
423.398	0.04
423.757	0.04
424.116	0.06
424.475	0.05
424.834	0.04
425.193	0.06
425.551	0.04
425.91	0.05
426.269	0.05
426.628	0.06
426.986	0.05
427.345	0.04
427.703	0.04
428.062	0.05
428.42	0.06
428.779	0.04
429.137	0.06
429.496	0.03
429.854	0.07
430.212	0.05
430.57	0.04
430.929	0.03
431.287	0.03
431.645	0.04
432.003	0.05
432.361	0.04
432.719	0.04
433.077	0.04
433.435	0.06
433.793	0.04
434.151	0.05
434.509	0.04
434.866	0.03
435.224	0.05
435.582	0.04
435.94	0.04
436.297	0.04
436.655	0.04
437.012	0.05
437.37	0.05
437.727	0.03
438.085	0.05
438.442	0.03
438.8	0.04
439.157	0.07
439.514	0.07
439.872	0.04
440.229	0.04
440.586	0.06
440.943	0.05
441.3	0.02
441.657	0.03
442.014	0.03
442.371	0.05
442.728	0.04
443.085	0.03
443.442	0.04
443.799	0.04
444.156	0.05
444.513	0.04
444.869	0.06
445.226	0.03
445.583	0.05
445.939	0.04
446.296	0.03
446.652	0.04
447.009	0.05
447.365	0.04
447.722	0.04
448.078	0.04
448.434	0.05
448.791	0.08
449.147	0.03
449.503	0.05
449.859	0.04
450.215	0.04
450.571	0.04
450.928	0.06
451.284	0.04
451.64	0.04
451.995	0.04
452.351	0.02
452.707	0.06
453.063	0.05
453.419	0.04
453.775	0.06
454.13	0.04
454.486	0.03
454.842	0.03
455.197	0.06
455.553	0.06
455.908	0.06
456.264	0.04
456.619	0.07
456.975	0.04
457.33	0.03
457.685	0.03
458.04	0.05
458.396	0.05
458.751	0.06
459.106	0.03
459.461	0.03
459.816	0.03
460.171	0.04
460.526	0.05
460.881	0.05
461.236	0.03
461.591	0.04
461.946	0.04
462.301	0.05
462.655	0.03
463.01	0.06
463.365	0.05
463.719	0.03
464.074	0.05
464.428	0.05
464.783	0.04
465.137	0.05
465.492	0.03
465.846	0.04
466.201	0.03
466.555	0.03
466.909	0.03
467.263	0.02
467.618	0.05
467.972	0.03
468.326	0.04
468.68	0.03
469.034	0.05
469.388	0.04
469.742	0.04
470.096	0.04
470.45	0.05
470.804	0.04
471.157	0.02
471.511	0.03
471.865	0.04
472.218	0.04
472.572	0.03
472.926	0.05
473.279	0.04
473.633	0.02
473.986	0.04
474.34	0.03
474.693	0.03
475.046	0.03
475.4	0.03
475.753	0.02
476.106	0.03
476.459	0.03
476.812	0.03
477.165	0.03
477.519	0.02
477.872	0.03
478.224	0.03
478.577	0.02
478.93	0.03
479.283	0.03
479.636	0.02
479.989	0.03
480.341	0.02
480.694	0.03
481.047	0.03
481.399	0.03
481.752	0.02
482.104	0.02
482.457	0.02
482.809	0.02
483.162	0.02
483.514	0.02
483.866	0.02
484.219	0.02
484.571	0.03
484.923	0.03
485.275	0.02
485.627	0.02
485.979	0.02
486.331	0.02
486.683	0.02
487.035	0.02
487.387	0.01
487.739	0.02
488.091	0.02
488.443	0.03
488.794	0.03
489.146	0.03
489.498	0.02
489.849	0.02
490.201	0.02
490.552	0.02
490.904	0.01
491.255	0.02
491.607	0.01
491.958	0.02
492.309	0.02
492.661	0.02
493.012	0.01
493.363	0.02
493.714	0.02
494.065	0.02
494.416	0.02
494.767	0.02
495.118	0.02
495.469	0.02
495.82	0.02
496.171	0.02
496.522	0.03
496.872	0.02
497.223	0.02
497.574	0.01
497.924	0.02
498.275	0.02
498.626	0.01
498.976	0.02
499.327	0.03
499.677	0.03
500.027	0.02
500.378	0.02
500.728	0.02
501.078	0.02
501.428	0.02
501.779	0.02
502.129	0.02
502.479	0.02
502.829	0.02
503.179	0.02
503.529	0.02
503.879	0.02
504.229	0.02
504.578	0.02
504.928	0.02
505.278	0.02
505.628	0.02
505.977	0.02
506.327	0.02
506.676	0.02
507.026	0.02
507.375	0.02
507.725	0.02
508.074	0.02
508.424	0.02
508.773	0.02
509.122	0.03
509.471	0.02
509.82	0.02
510.17	0.03
510.519	0.03
510.868	0.02
511.217	0.02
511.566	0.02
511.915	0.02
512.263	0.02
512.612	0.02
512.961	0.02
513.31	0.02
513.659	0.03
514.007	0.03
514.356	0.03
514.704	0.02
515.053	0.02
515.401	0.02
515.75	0.02
516.098	0.02
516.447	0.02
516.795	0.02
517.143	0.03
517.491	0.02
517.839	0.02
518.188	0.02
518.536	0.02
518.884	0.03
519.232	0.02
519.58	0.03
519.928	0.03
520.275	0.02
520.623	0.03
520.971	0.02
521.319	0.02
521.666	0.02
522.014	0.03
522.362	0.03
522.709	0.03
523.057	0.02
523.404	0.02
523.752	0.03
524.099	0.02
524.446	0.02
524.794	0.02
525.141	0.02
525.488	0.03
525.835	0.03
526.182	0.03
526.529	0.03
526.876	0.02
527.223	0.03
527.57	0.03
527.917	0.02
528.264	0.03
528.611	0.02
528.958	0.03
529.304	0.03
529.651	0.03
529.998	0.02
530.344	0.02
530.691	0.03
531.037	0.02
531.384	0.02
531.73	0.03
532.076	0.03
532.423	0.03
532.769	0.03
533.115	0.03
533.461	0.03
533.807	0.03
534.154	0.03
534.5	0.03
534.846	0.03
535.192	0.02
535.537	0.03
535.883	0.03
536.229	0.03
536.575	0.03
536.921	0.03
537.266	0.03
537.612	0.03
537.957	0.03
538.303	0.03
538.649	0.03
538.994	0.03
539.339	0.03
539.685	0.03
540.03	0.03
540.375	0.03
540.721	0.03
541.066	0.03
541.411	0.03
541.756	0.03
542.101	0.03
542.446	0.03
542.791	0.03
543.136	0.03
543.481	0.03
543.825	0.03
544.17	0.03
544.515	0.03
544.86	0.03
545.204	0.03
545.549	0.04
545.893	0.03
546.238	0.03
546.582	0.03
546.927	0.04
547.271	0.04
547.615	0.04
547.96	0.04
548.304	0.04
548.648	0.04
548.992	0.04
549.336	0.04
549.68	0.03
550.024	0.04
550.368	0.04
550.712	0.04
551.056	0.04
551.4	0.04
551.743	0.04
552.087	0.04
552.431	0.04
552.774	0.04
553.118	0.04
553.462	0.03
553.805	0.04
554.148	0.03
554.492	0.04
554.835	0.04
555.178	0.04
555.522	0.04
555.865	0.04
556.208	0.04
556.551	0.04
556.894	0.04
557.237	0.04
557.58	0.04
557.923	0.04
558.266	0.04
558.609	0.04
558.952	0.04
559.294	0.04
559.637	0.04
559.98	0.04
560.322	0.04
560.665	0.04
561.007	0.04
561.35	0.04
561.692	0.04
562.034	0.04
562.377	0.04
562.719	0.04
563.061	0.04
563.403	0.04
563.745	0.04
564.088	0.04
564.43	0.04
564.772	0.04
565.113	0.04
565.455	0.04
565.797	0.04
566.139	0.04
566.481	0.04
566.822	0.04
567.164	0.04
567.506	0.04
567.847	0.04
568.189	0.04
568.53	0.04
568.872	0.04
569.213	0.04
569.554	0.04
569.895	0.04
570.237	0.04
570.578	0.04
570.919	0.04
571.26	0.04
571.601	0.04
571.942	0.04
572.283	0.04
572.624	0.04
572.965	0.04
573.306	0.03
573.646	0.04
573.987	0.04
574.328	0.04
574.668	0.04
575.009	0.04
575.349	0.04
575.69	0.04
576.03	0.04
576.37	0.04
576.711	0.03
577.051	0.04
577.391	0.04
577.731	0.04
578.072	0.04
578.412	0.04
578.752	0.04
579.092	0.03
579.431	0.03
579.771	0.03
580.111	0.03
580.451	0.04
580.791	0.04
581.13	0.04
581.47	0.04
581.81	0.04
582.149	0.04
582.489	0.04
582.828	0.03
583.167	0.03
583.507	0.02
583.846	0.01
584.185	0.02
584.525	0.03
584.864	0.04
585.203	0.05
585.542	0.05
585.881	0.05
586.22	0.04
586.559	0.03
586.898	0.03
587.236	0.03
587.575	0.04
587.914	0.04
588.252	0.04
588.591	0.04
588.93	0.04
589.268	0.04
589.607	0.04
589.945	0.04
590.283	0.04
590.622	0.04
590.96	0.05
591.298	0.05
591.636	0.05
591.974	0.04
592.313	0.04
592.651	0.05
592.989	0.05
593.326	0.04
593.664	0.04
594.002	0.04
594.34	0.04
594.678	0.04
595.015	0.04
595.353	0.04
595.691	0.05
596.028	0.05
596.366	0.05
596.703	0.05
597.04	0.05
597.378	0.05
597.715	0.05
598.052	0.05
598.389	0.05
598.726	0.05
599.064	0.05
599.401	0.04
599.738	0.05
600.074	0.05
600.411	0.04
600.748	0.04
601.085	0.04
601.422	0.04
601.758	0.05
602.095	0.04
602.432	0.05
602.768	0.05
603.105	0.05
603.441	0.05
603.777	0.05
604.114	0.05
604.45	0.05
604.786	0.05
605.122	0.05
605.459	0.04
605.795	0.05
606.131	0.05
606.467	0.05
606.803	0.05
607.139	0.05
607.474	0.04
607.81	0.05
608.146	0.05
608.482	0.05
608.817	0.05
609.153	0.05
609.488	0.05
609.824	0.05
610.159	0.05
610.495	0.05
610.83	0.05
611.165	0.05
611.5	0.05
611.836	0.05
612.171	0.05
612.506	0.05
612.841	0.05
613.176	0.05
613.511	0.05
613.845	0.05
614.18	0.05
614.515	0.05
614.85	0.05
615.184	0.05
615.519	0.05
615.854	0.05
616.188	0.04
616.523	0.04
616.857	0.04
617.191	0.04
617.526	0.05
617.86	0.05
618.194	0.05
618.528	0.05
618.862	0.05
619.196	0.05
619.53	0.05
619.864	0.05
620.198	0.05
620.532	0.04
620.866	0.05
621.2	0.05
621.533	0.04
621.867	0.05
622.201	0.04
622.534	0.05
622.868	0.05
623.201	0.05
623.534	0.04
623.868	0.04
624.201	0.04
624.534	0.04
624.868	0.05
625.201	0.04
625.534	0.04
625.867	0.04
626.2	0.04
626.533	0.05
626.865	0.04
627.198	0.05
627.531	0.05
627.864	0.04
628.196	0.04
628.529	0.04
628.862	0.04
629.194	0.04
629.527	0.04
629.859	0.04
630.191	0.05
630.524	0.05
630.856	0.04
631.188	0.04
631.52	0.04
631.852	0.04
632.184	0.04
632.516	0.04
632.848	0.04
633.18	0.04
633.512	0.04
633.844	0.04
634.175	0.04
634.507	0.04
634.839	0.04
635.17	0.04
635.502	0.04
635.833	0.04
636.165	0.03
636.496	0.04
636.827	0.03
637.159	0.04
637.49	0.04
637.821	0.03
638.152	0.03
638.483	0.03
638.814	0.04
639.145	0.03
639.476	0.03
639.807	0.03
640.137	0.03
640.468	0.03
640.799	0.03
641.129	0.03
641.46	0.03
641.791	0.03
642.121	0.03
642.451	0.03
642.782	0.03
643.112	0.03
643.442	0.03
643.773	0.03
644.103	0.03
644.433	0.03
644.763	0.03
645.093	0.03
645.423	0.03
645.753	0.03
646.082	0.03
646.412	0.03
646.742	0.03
647.072	0.03
647.401	0.03
647.731	0.02
648.06	0.03
648.39	0.03
648.719	0.03
649.048	0.03
649.378	0.03
649.707	0.03
650.036	0.03
650.365	0.02
650.694	0.03
651.023	0.03
651.352	0.03
651.681	0.03
652.01	0.03
652.339	0.03
652.668	0.03
652.996	0.03
653.325	0.03
653.654	0.03
653.982	0.03
654.311	0.03
654.639	0.03
654.967	0.03
655.296	0.03
655.624	0.03
655.952	0.03
656.28	0.03
656.609	0.03
656.937	0.02
657.265	0
657.593	-0.03
657.92	0
658.248	0
658.576	0
658.904	0
659.231	0
659.559	0.04
659.887	0.05
660.214	0.04
660.542	0.04
660.869	0.03
661.196	0.03
661.524	0.02
661.851	0.03
662.178	0.03
662.505	0.03
662.832	0.03
663.159	0.03
663.486	0.03
663.813	0.03
664.14	0.03
664.467	0.03
664.794	0.03
665.12	0.03
665.447	0.03
665.774	0.02
666.1	0.03
666.427	0.02
666.753	0.02
667.079	0.03
667.406	0.03
667.732	0.02
668.058	0.03
668.384	0.03
668.71	0.02
669.036	0.03
669.362	0.03
669.688	0.03
670.014	0.03
670.34	0.03
670.666	0.02
670.991	0.02
671.317	0.03
671.643	0.02
671.968	0.02
672.294	0.02
672.619	0.02
672.945	0.02
673.27	0.02
673.595	0.02
673.92	0.02
674.246	0.02
674.571	0.02
674.896	0.02
675.221	0.02
675.546	0.03
675.87	0.02
676.195	0.02
676.52	0.02
676.845	0.02
677.169	0.02
677.494	0.02
677.819	0.02
678.143	0.02
678.468	0.02
678.792	0.02
679.116	0.02
679.44	0.02
679.765	0.02
680.089	0.02
680.413	0.02
680.737	0.02
681.061	0.02
681.385	0.02
681.709	0.02
682.033	0.02
682.356	0.02
682.68	0.02
683.004	0.02
683.327	0.02
683.651	0.02
683.974	0.02
684.298	0.02
684.621	0.02
684.944	0.02
685.268	0.02
685.591	0.02
685.914	0.01
686.237	0.01
686.56	0.01
686.883	0.01
687.206	0.02
687.529	0.01
687.852	0.02
688.175	0.02
688.497	0.02
688.82	0.02
689.142	0.02
689.465	0.02
689.787	0.01
690.11	0.02
690.432	0.01
690.755	0.02
691.077	0.01
691.399	0.01
691.721	0.01
692.043	0.01
692.365	0.01
692.687	0.01
693.009	0.01
693.331	0.01
693.653	0.01
693.974	0.01
694.296	0.01
694.618	0.01
694.939	0.01
695.261	0.01
695.582	0.01
695.904	0.01
696.225	0.01
696.546	0.01
696.868	0.01
697.189	0.01
697.51	0.01
697.831	0.01
698.152	0.01
698.473	0.01
698.794	0
699.114	0
699.435	0.01
699.756	0.01
700.077	0.01
700.397	0.02
700.718	0.01
701.038	0.01
701.359	0.01
701.679	0.01
701.999	0.01
702.32	0.01
702.64	0.01
702.96	0.01
703.28	0.01
703.6	0
703.92	0.01
704.24	0.01
704.56	0.01
704.879	0.01
705.199	0.01
705.519	0.01
705.838	0.01
706.158	0.01
706.478	0.01
706.797	0.01
707.116	0.01
707.436	0.01
707.755	0
708.074	0
708.393	0
708.712	0
709.031	0
709.35	0
709.669	0.01
709.988	0.01
710.307	0.01
710.626	0.01
710.944	0.01
711.263	0.01
711.582	0.01
711.9	0.01
712.219	0.01
712.537	0.01
712.855	0.01
713.174	0
713.492	0.01
713.81	0.01
714.128	0.01
714.446	0.01
714.764	0.01
715.082	0.01
715.4	0.01
715.718	0.01
716.035	0.01
716.353	0.01
716.671	0.01
716.988	0.01
717.306	0.01
717.623	0.01
717.941	0.01
718.258	0.01
718.575	0.01
718.893	0.01
719.21	0.01
719.527	0.01
719.844	0
720.161	0.01
720.478	0.01
720.795	0.01
721.112	0.01
721.428	0.01
721.745	0.01
722.062	0.01
722.378	0.01
722.695	0.01
723.011	0.01
723.328	0.01
723.644	0.01
723.96	0.01
724.276	0.01
724.593	0.01
724.909	0.01
725.225	0.01
725.541	0.01
725.857	0.01
726.173	0.01
726.488	0.01
726.804	0
727.12	0
727.435	0.01
727.751	0.01
728.067	0.01
728.382	0.01
728.697	0.01
729.013	0.01
729.328	0.01
729.643	0.01
729.958	0.01
730.273	0.01
730.588	0.01
730.903	0.01
731.218	0.01
731.533	0.01
731.848	0.01
732.163	0.01
732.477	0.01
732.792	0.01
733.107	0.01
733.421	0.01
733.736	0.01
734.05	0.01
734.364	0.01
734.678	0.01
734.993	0.01
735.307	0.01
735.621	0.01
735.935	0.01
736.249	0.01
736.563	0.01
736.877	0.01
737.19	0.01
737.504	0.01
737.818	0.01
738.131	0.01
738.445	0.01
738.758	0.01
739.072	0.01
739.385	0.01
739.698	0.01
740.012	0.01
740.325	0.01
740.638	0.01
740.951	0
741.264	0.01
741.577	0.01
741.89	0.01
742.203	0.01
742.515	0.01
742.828	0.01
743.141	0.01
743.453	0.01
743.766	0.01
744.078	0.01
744.391	0
744.703	0.01
745.015	0.01
745.327	0.01
745.639	0.01
745.952	0.01
746.264	0.01
746.575	0.01
746.887	0.01
747.199	0
747.511	0.01
747.823	0
748.134	0
748.446	0
748.757	0.01
749.069	0.01
749.38	0.01
749.692	0.01
750.003	0.01
750.314	0.01
750.625	0
750.936	0
751.248	0.01
751.559	0
751.869	0.01
752.18	0
752.491	0.01
752.802	0
753.112	0
753.423	0
753.734	0
754.044	0.01
754.355	0.01
754.665	0.01
754.975	0.01
755.285	0.01
755.596	0.01
755.906	0.01
756.216	0.01
756.526	0.01
756.836	0.01
757.146	0.01
757.455	0
757.765	0
758.075	0
758.385	0
758.694	0
759.004	0
759.313	0
759.622	0.01
759.932	0.01
760.241	0.01
760.55	0.01
760.859	0.01
761.168	0.01
761.477	0.01
761.786	0.01
762.095	0.01
762.404	0
762.713	0
763.021	0
763.33	0
763.639	0
763.947	0
764.256	0
764.564	0
764.872	0
765.181	0.01
765.489	0
765.797	0
766.105	-0
766.413	0
766.721	0
767.029	0
767.337	0.01
767.644	0.01
767.952	0.01
768.26	0.01
768.567	0.01
768.875	0
769.182	0
769.49	0
769.797	-0
770.104	-0
770.411	0
770.718	0.01
771.026	0.01
771.333	0.01
771.639	0
771.946	0
772.253	0
772.56	0
772.867	0
773.173	0
773.48	-0
773.786	0
774.093	0
774.399	-0
774.705	0
775.012	0
775.318	0
775.624	0
775.93	-0
776.236	0
776.542	0
776.848	-0
777.154	0
777.459	0.01
777.765	0
778.071	0
778.376	0
778.682	0
778.987	-0
779.292	0
779.598	0
779.903	-0
780.208	0
780.513	-0
780.818	0
781.123	0
781.428	0
781.733	0.01
782.038	-0
782.343	-0
782.647	0
782.952	-0
783.256	-0
783.561	0
783.865	0
784.17	-0
784.474	-0
784.778	-0
785.082	-0
785.386	0
785.69	-0
785.994	0.01
786.298	0
786.602	0
786.906	-0
787.209	0
787.513	0.01
787.817	-0
788.12	0.01
788.424	0.01
788.727	0
789.03	0
789.333	0
789.637	0
789.94	-0
790.243	0
790.546	-0
790.849	0
791.152	-0
791.454	0.01
791.757	-0
792.06	-0
792.362	0.01
792.665	0
792.967	-0
793.27	0
793.572	-0
793.874	-0
794.177	-0
794.479	0
794.781	0
795.083	0
795.385	-0
795.687	0
795.989	-0
796.29	0
796.592	0
796.894	0
797.195	-0
797.497	0.01
797.798	0
798.1	0.01
798.401	0
798.702	0
799.003	0
799.304	0
799.605	0
799.906	0.01
800.207	0
800.508	0
800.809	0.01
801.11	0.01
801.41	0.01
801.711	0.01
802.011	0
802.312	0
802.612	0
802.913	-0
803.213	0
803.513	0
803.813	-0
804.113	-0
804.413	0
804.713	-0
805.013	-0
805.313	-0.01
805.613	-0.01
805.912	0
806.212	0
806.511	0
806.811	-0
807.11	-0.01
807.41	0
807.709	-0
808.008	-0
808.307	-0.01
808.606	0
808.905	0
809.204	-0
809.503	-0
809.802	0.01
810.101	0.01
810.399	0
810.698	0
810.997	0.01
811.295	0
811.593	-0
811.892	0
812.19	0
812.488	-0
812.786	0.01
813.084	0.01
813.383	0
813.68	-0
813.978	0
814.276	0.01
814.574	0.01
814.872	0.01
815.169	0
815.467	-0
815.764	-0
816.062	0
816.359	0
816.656	0.01
816.954	0
817.251	-0
817.548	-0
817.845	0.01
818.142	-0
818.439	-0
818.735	-0
819.032	-0.01
819.329	-0.01
819.626	-0
819.922	0
820.219	0
820.515	0
820.811	0
821.108	-0
821.404	0
821.7	-0.01
821.996	-0
822.292	-0
822.588	-0
822.884	0
823.18	-0
823.475	0
823.771	-0
824.067	-0
824.362	-0.01
824.658	-0
824.953	-0
825.249	-0
825.544	-0
825.839	0
826.134	0
826.429	0
826.724	0
827.019	-0
827.314	0
827.609	0.01
827.904	0
828.198	-0
828.493	-0
828.787	0
829.082	0
829.376	-0
829.671	-0
829.965	0.01
830.259	0
830.553	0
830.847	-0.01
831.141	-0.01
831.435	-0.01
831.729	0
832.023	-0
832.317	0.01
832.61	-0.01
832.904	0
833.197	-0
833.491	-0.01
833.784	-0.01
834.077	-0
834.371	-0
834.664	-0.01
834.957	-0.01
835.25	-0
835.543	-0
835.836	0
836.129	-0
836.421	-0.01
836.714	0
837.007	-0
837.299	0
837.592	0
837.884	0
838.177	0
838.469	-0
838.761	-0.01
839.053	-0.01
839.345	0.01
839.637	0.01
839.929	-0.01
840.221	0.01
840.513	0
840.805	-0.01
841.096	0
841.388	-0
841.68	-0.01
841.971	0
842.262	0
842.554	-0.02
842.845	0
843.136	0
843.427	0
843.718	0.01
844.009	-0
844.3	0.01
844.591	-0
844.882	0
845.173	-0.02
845.463	-0
845.754	-0.01
846.044	0.01
846.335	-0.02
846.625	-0
846.915	-0
847.206	-0
847.496	0
847.786	-0.01
848.076	-0
848.366	-0.01
848.656	-0.02
848.945	-0.01
849.235	-0.01
849.525	-0.02
849.814	-0.01
850.104	0
850.393	-0.01
850.683	-0
850.972	-0.01
851.261	0
851.551	0
851.84	-0.01
852.129	-0.02
852.418	-0.01
852.707	0
852.995	-0.01
853.284	-0.02
853.573	0.01
853.862	-0.01
854.15	-0.02
854.439	0.01
854.727	0.01
855.015	0
855.304	0
855.592	0
855.88	-0.02
856.168	0.01
856.456	0.01
856.744	-0
857.032	0
857.32	-0.01
857.607	0.01
857.895	-0.03
858.183	-0
858.47	0.03
858.757	0
859.045	-0
859.332	0.01
859.619	-0
859.907	0.01
860.194	0.01
860.481	-0
860.768	-0
861.054	-0.01
861.341	-0.02
861.628	0.01
861.915	0.01
862.201	-0.01
862.488	0.01
862.774	-0
863.061	-0
863.347	-0
863.633	-0
863.919	-0.01
864.205	0.02
864.491	0.01
864.777	-0
865.063	-0
865.349	0.03
865.635	0.02
865.92	-0.03
866.206	-0.02
866.492	0.02
866.777	0.02
867.062	-0.06
867.348	-0.01
867.633	0.03
867.918	0.01
868.203	-0.03
868.488	-0.03
868.773	-0
869.058	0.02
869.343	0.06
869.628	-0.07
869.912	-0.05
870.197	-0.05
870.482	-0.04
870.766	0.03
871.05	-0.01
871.335	-0.04
871.619	-0.05
871.903	-0.07
872.187	-0.01
872.471	0.01
872.755	0.04
873.039	-0.06
873.323	-0.07
873.607	-0.02
873.89	-0.05
874.174	-0
874.458	-0.01
874.741	-0.07
875.024	-0.03
875.308	0
875.591	-0.11
875.874	-0.05
876.157	-0.01
876.44	-0.05
876.723	-0.04
877.006	-0.03
877.289	-0.06
877.572	-0.03
877.854	-0.07
878.137	-0.17
878.42	-0.06
878.702	-0.06
878.984	-0.06
879.267	-0.07
879.549	-0.07
879.831	-0.02
880.113	0.02
880.395	0.05
880.677	-0.1
880.959	-0
