Data from Rubpy_EV_EDTA_Flow_Absorbance_14-17-19-459.txt Node
Date: Fri Jul 03 14:17:19 BST 2026
User: fpm-admin
Spectrometer: OFX00224
Trigger mode: 0
Integration Time (sec): 1.200000E-2
Scans to average: 3
Nonlinearity correction enabled: false
Boxcar width: 0
Storing dark spectrum: false
XAxis mode: Wavelengths
Number of Pixels in Spectrum: 2136
>>>>>Begin Spectral Data<<<<<
154.91	-0
155.289	-0.33
155.669	0.48
156.048	0.26
156.428	-0
156.807	0.71
157.186	0.04
157.566	-0
157.945	-0
158.325	-0
158.704	-0
159.083	0.37
159.462	-1.18
159.842	-0.16
160.221	-0
160.6	-0
160.979	-0
161.359	0.48
161.738	-0
162.117	0.27
162.496	-0
162.875	-1.11
163.254	-0
163.633	-0.13
164.012	-0
164.391	-0.6
164.77	-0.25
165.149	0.11
165.528	-0
165.907	-0
166.286	-0
166.665	0.16
167.044	-0
167.423	-0
167.802	0.23
168.181	-0
168.559	-0
168.938	0.18
169.317	-0
169.696	0.95
170.074	-0
170.453	-0
170.832	0.3
171.21	-0.62
171.589	-0.57
171.968	0.24
172.346	-0
172.725	0.61
173.103	-0.73
173.482	0.51
173.861	0.16
174.239	0.28
174.617	-0.04
174.996	-0.19
175.374	0.13
175.753	-0
176.131	0.13
176.51	0.31
176.888	-0
177.266	-0.69
177.645	0.06
178.023	-0
178.401	-0.08
178.779	-0.14
179.158	-0
179.536	0.34
179.914	-0
180.292	-0
180.67	-0.24
181.048	-0.93
181.427	-0
181.805	-0
182.183	-0.33
182.561	-0
182.939	0.73
183.317	-0
183.695	0.3
184.073	-0.18
184.451	1.04
184.829	-0
185.206	-0
185.584	-0.32
185.962	-0.24
186.34	0.11
186.718	-0.3
187.096	-0
187.473	-0
187.851	-0.15
188.229	1.11
188.607	0.14
188.984	-0.02
189.362	0.04
189.74	-0.03
190.117	0.02
190.495	0.01
190.872	-0
191.25	-0.04
191.627	0.1
192.005	0.04
192.382	-0
192.76	0.01
193.137	-0.04
193.515	0
193.892	0.1
194.269	-0.03
194.647	-0.05
195.024	-0.03
195.401	0.05
195.779	0.08
196.156	0.07
196.533	-0.01
196.91	0
197.288	0.21
197.665	-0.03
198.042	0.07
198.419	0.02
198.796	-0
199.173	0.08
199.55	0.07
199.927	0.04
200.304	-0.06
200.681	-0.11
201.058	0.01
201.435	0
201.812	-0
202.189	-0
202.566	0.04
202.943	-0.07
203.32	0.07
203.697	-0.06
204.073	0.04
204.45	0.07
204.827	0.07
205.204	-0.04
205.58	-0.04
205.957	0.14
206.334	-0
206.71	-0.07
207.087	-0.05
207.464	-0.03
207.84	0.1
208.217	0.01
208.593	-0.02
208.97	0.08
209.346	0.03
209.723	0.03
210.099	0.09
210.476	0.07
210.852	-0.01
211.228	0.02
211.605	-0.07
211.981	-0
212.357	0.05
212.733	0.05
213.11	-0.02
213.486	-0
213.862	0.02
214.238	0.04
214.614	0.06
214.991	0.03
215.367	-0.01
215.743	-0.02
216.119	0.01
216.495	-0.02
216.871	-0.01
217.247	0.1
217.623	0.05
217.999	0.12
218.375	-0.04
218.751	-0.01
219.127	0.01
219.502	0.01
219.878	0.1
220.254	0
220.63	-0.02
221.006	-0.04
221.381	-0.04
221.757	-0.08
222.133	0.02
222.508	0.05
222.884	-0.01
223.26	0.01
223.635	-0.03
224.011	0.01
224.386	-0.02
224.762	0.07
225.137	0.1
225.513	-0.01
225.888	-0.05
226.264	-0.06
226.639	-0.02
227.014	0.09
227.39	0.01
227.765	0.03
228.14	0.07
228.516	-0.06
228.891	0.1
229.266	0.03
229.641	0.15
230.017	-0.02
230.392	0.02
230.767	-0.09
231.142	0.01
231.517	0.06
231.892	0.03
232.267	0.02
232.642	0.08
233.017	0.04
233.392	0.06
233.767	-0.04
234.142	-0.07
234.517	-0.02
234.892	-0.05
235.267	-0.07
235.641	-0.02
236.016	0.03
236.391	0.02
236.766	0.01
237.14	0.08
237.515	0.1
237.89	0.04
238.264	0.18
238.639	0.04
239.014	-0
239.388	0.06
239.763	-0.06
240.137	0.03
240.512	0
240.886	-0.01
241.261	-0.06
241.635	-0.01
242.009	0
242.384	0.01
242.758	0.11
243.132	-0.01
243.507	0.03
243.881	0.07
244.255	0.09
244.629	-0.13
245.004	0.02
245.378	-0.01
245.752	-0.04
246.126	-0.01
246.5	-0.02
246.874	-0
247.248	0.02
247.622	0.02
247.996	0
248.37	0.02
248.744	0.01
249.118	-0.04
249.492	0.09
249.866	-0
250.24	0.05
250.613	0.04
250.987	0.01
251.361	-0.01
251.735	-0.06
252.108	0.02
252.482	-0.05
252.856	0.01
253.229	-0.03
253.603	-0.01
253.977	-0.02
254.35	0.06
254.724	-0.04
255.097	0.01
255.471	0.05
255.844	0.08
256.218	0.05
256.591	-0.01
256.964	-0.07
257.338	0.05
257.711	-0.06
258.084	0.07
258.458	0.03
258.831	-0.13
259.204	-0.01
259.577	-0.03
259.95	0.13
260.323	-0.01
260.697	0.02
261.07	-0.03
261.443	0.02
261.816	-0.02
262.189	0.01
262.562	-0
262.935	-0.05
263.308	0.09
263.68	0.03
264.053	0.02
264.426	0.1
264.799	0.05
265.172	-0.04
265.545	-0.03
265.917	-0.06
266.29	0.05
266.663	0.04
267.035	-0.02
267.408	-0.11
267.781	-0.01
268.153	0.09
268.526	0.05
268.898	0.04
269.271	0.03
269.643	0.07
270.016	0.07
270.388	0.05
270.76	0.03
271.133	0.02
271.505	0.03
271.877	0.1
272.25	0.08
272.622	0.02
272.994	0.08
273.366	-0.03
273.739	0.06
274.111	0.01
274.483	0.03
274.855	0.06
275.227	0.03
275.599	0.02
275.971	0.08
276.343	0.02
276.715	0.06
277.087	0.03
277.459	0.14
277.831	-0.02
278.203	0.08
278.574	0.1
278.946	-0.03
279.318	0.04
279.69	0.04
280.061	0.06
280.433	0.07
280.805	0.12
281.176	0.08
281.548	0.11
281.92	0.03
282.291	0.03
282.663	0.07
283.034	0.03
283.406	-0.01
283.777	-0.02
284.148	0.06
284.52	0.12
284.891	0.04
285.262	-0.03
285.634	0.05
286.005	0.08
286.376	0.02
286.747	-0.02
287.119	0.03
287.49	-0.01
287.861	0.04
288.232	0.09
288.603	0.05
288.974	0.08
289.345	0.01
289.716	-0
290.087	0.08
290.458	0.07
290.829	0.02
291.2	0.02
291.571	0.08
291.941	0.06
292.312	0
292.683	0.07
293.054	0.07
293.424	-0.07
293.795	0.04
294.166	-0
294.536	0.01
294.907	0.02
295.277	0.12
295.648	-0.01
296.018	0.07
296.389	0.01
296.759	0.11
297.13	0.07
297.5	0.05
297.871	0.1
298.241	0.06
298.611	0.03
298.981	0.02
299.352	0.04
299.722	0.01
300.092	0.01
300.462	0.04
300.832	0.03
301.202	0
301.573	0.04
301.943	-0.03
302.313	0.02
302.683	-0.02
303.053	0.03
303.422	0.05
303.792	0.07
304.162	0.01
304.532	0.06
304.902	-0.07
305.272	0.04
305.641	0.03
306.011	-0.01
306.381	0.01
306.75	0.04
307.12	0.1
307.49	-0.02
307.859	0.02
308.229	0.02
308.598	0.06
308.968	0.05
309.337	0.01
309.707	0.07
310.076	0.05
310.445	0.05
310.815	0.05
311.184	0.06
311.553	0.07
311.923	0.04
312.292	-0.01
312.661	0.04
313.03	-0
313.399	0.07
313.768	0.05
314.137	0.05
314.506	0.02
314.875	0.07
315.244	0.06
315.613	0.02
315.982	0.06
316.351	0.02
316.72	0.06
317.089	0.07
317.458	0.06
317.826	0.06
318.195	0.04
318.564	0.05
318.933	0.05
319.301	0.05
319.67	0.05
320.038	0.05
320.407	0.06
320.775	0.06
321.144	0.06
321.512	0.06
321.881	0.06
322.249	0.07
322.618	0.06
322.986	0.04
323.354	0.06
323.723	0.06
324.091	0.07
324.459	0.06
324.827	0.06
325.195	0.08
325.564	0.06
325.932	0.06
326.3	0.05
326.668	0.06
327.036	0.06
327.404	0.06
327.772	0.04
328.14	0.05
328.508	0.05
328.875	0.06
329.243	0.05
329.611	0.05
329.979	0.06
330.346	0.05
330.714	0.05
331.082	0.06
331.449	0.05
331.817	0.06
332.185	0.05
332.552	0.06
332.92	0.06
333.287	0.05
333.655	0.06
334.022	0.06
334.389	0.05
334.757	0.05
335.124	0.05
335.491	0.06
335.859	0.06
336.226	0.05
336.593	0.05
336.96	0.06
337.327	0.05
337.695	0.05
338.062	0.06
338.429	0.06
338.796	0.06
339.163	0.05
339.53	0.06
339.897	0.06
340.263	0.06
340.63	0.06
340.997	0.06
341.364	0.06
341.731	0.06
342.097	0.06
342.464	0.07
342.831	0.07
343.197	0.07
343.564	0.06
343.931	0.07
344.297	0.07
344.664	0.07
345.03	0.08
345.396	0.07
345.763	0.07
346.129	0.07
346.496	0.08
346.862	0.08
347.228	0.07
347.594	0.08
347.961	0.07
348.327	0.07
348.693	0.09
349.059	0.08
349.425	0.08
349.791	0.08
350.157	0.08
350.523	0.09
350.889	0.09
351.255	0.09
351.621	0.09
351.987	0.09
352.353	0.1
352.719	0.09
353.084	0.09
353.45	0.1
353.816	0.1
354.181	0.1
354.547	0.1
354.913	0.1
355.278	0.1
355.644	0.1
356.009	0.11
356.375	0.11
356.74	0.11
357.106	0.11
357.471	0.12
357.836	0.11
358.202	0.12
358.567	0.11
358.932	0.12
359.297	0.12
359.663	0.12
360.028	0.12
360.393	0.12
360.758	0.12
361.123	0.13
361.488	0.13
361.853	0.13
362.218	0.13
362.583	0.13
362.948	0.12
363.312	0.13
363.677	0.14
364.042	0.14
364.407	0.14
364.772	0.14
365.136	0.13
365.501	0.14
365.865	0.14
366.23	0.14
366.595	0.14
366.959	0.15
367.324	0.15
367.688	0.15
368.052	0.15
368.417	0.15
368.781	0.15
369.145	0.16
369.51	0.16
369.874	0.16
370.238	0.16
370.602	0.16
370.967	0.16
371.331	0.15
371.695	0.16
372.059	0.16
372.423	0.16
372.787	0.16
373.151	0.15
373.515	0.15
373.878	0.15
374.242	0.16
374.606	0.16
374.97	0.15
375.334	0.15
375.697	0.15
376.061	0.16
376.425	0.15
376.788	0.15
377.152	0.15
377.515	0.15
377.879	0.15
378.242	0.15
378.606	0.16
378.969	0.16
379.333	0.16
379.696	0.15
380.059	0.15
380.422	0.16
380.786	0.16
381.149	0.16
381.512	0.17
381.875	0.17
382.238	0.18
382.601	0.18
382.964	0.19
383.327	0.19
383.69	0.19
384.053	0.19
384.416	0.2
384.779	0.2
385.142	0.21
385.504	0.21
385.867	0.22
386.23	0.21
386.593	0.22
386.955	0.22
387.318	0.22
387.68	0.22
388.043	0.22
388.405	0.22
388.768	0.21
389.13	0.21
389.493	0.21
389.855	0.21
390.217	0.21
390.58	0.2
390.942	0.21
391.304	0.21
391.666	0.22
392.028	0.21
392.391	0.22
392.753	0.22
393.115	0.23
393.477	0.23
393.839	0.24
394.201	0.25
394.563	0.26
394.924	0.27
395.286	0.28
395.648	0.29
396.01	0.3
396.371	0.31
396.733	0.32
397.095	0.33
397.456	0.32
397.818	0.33
398.18	0.32
398.541	0.32
398.903	0.32
399.264	0.3
399.625	0.3
399.987	0.29
400.348	0.27
400.709	0.27
401.071	0.26
401.432	0.24
401.793	0.23
402.154	0.22
402.515	0.2
402.876	0.19
403.238	0.18
403.599	0.17
403.96	0.16
404.32	0.16
404.681	0.14
405.042	0.13
405.403	0.13
405.764	0.13
406.125	0.12
406.485	0.1
406.846	0.1
407.207	0.1
407.567	0.1
407.928	0.09
408.288	0.1
408.649	0.09
409.009	0.08
409.37	0.09
409.73	0.08
410.091	0.08
410.451	0.07
410.811	0.07
411.171	0.07
411.532	0.07
411.892	0.07
412.252	0.07
412.612	0.06
412.972	0.07
413.332	0.06
413.692	0.06
414.052	0.06
414.412	0.06
414.772	0.06
415.132	0.07
415.492	0.06
415.851	0.06
416.211	0.05
416.571	0.07
416.931	0.06
417.29	0.06
417.65	0.06
418.009	0.07
418.369	0.05
418.728	0.06
419.088	0.07
419.447	0.06
419.807	0.06
420.166	0.06
420.525	0.06
420.884	0.06
421.244	0.05
421.603	0.07
421.962	0.04
422.321	0.06
422.68	0.04
423.039	0.05
423.398	0.06
423.757	0.04
424.116	0.06
424.475	0.05
424.834	0.06
425.193	0.07
425.551	0.06
425.91	0.06
426.269	0.05
426.628	0.06
426.986	0.06
427.345	0.05
427.703	0.04
428.062	0.05
428.42	0.05
428.779	0.05
429.137	0.06
429.496	0.04
429.854	0.08
430.212	0.05
430.57	0.04
430.929	0.03
431.287	0.04
431.645	0.06
432.003	0.05
432.361	0.05
432.719	0.06
433.077	0.07
433.435	0.05
433.793	0.05
434.151	0.07
434.509	0.04
434.866	0.04
435.224	0.05
435.582	0.04
435.94	0.04
436.297	0.04
436.655	0.06
437.012	0.05
437.37	0.05
437.727	0.04
438.085	0.04
438.442	0.04
438.8	0.04
439.157	0.08
439.514	0.05
439.872	0.03
440.229	0.04
440.586	0.06
440.943	0.04
441.3	0.05
441.657	0.04
442.014	0.05
442.371	0.06
442.728	0.05
443.085	0.05
443.442	0.03
443.799	0.07
444.156	0.06
444.513	0.04
444.869	0.05
445.226	0.04
445.583	0.06
445.939	0.04
446.296	0.04
446.652	0.05
447.009	0.04
447.365	0.04
447.722	0.05
448.078	0.05
448.434	0.06
448.791	0.06
449.147	0.04
449.503	0.05
449.859	0.05
450.215	0.05
450.571	0.03
450.928	0.07
451.284	0.04
451.64	0.05
451.995	0.05
452.351	0.05
452.707	0.07
453.063	0.08
453.419	0.04
453.775	0.05
454.13	0.03
454.486	0.03
454.842	0.03
455.197	0.08
455.553	0.08
455.908	0.07
456.264	0.05
456.619	0.05
456.975	0.05
457.33	0.05
457.685	0.04
458.04	0.05
458.396	0.06
458.751	0.05
459.106	0.05
459.461	0.04
459.816	0.05
460.171	0.04
460.526	0.05
460.881	0.05
461.236	0.04
461.591	0.04
461.946	0.05
462.301	0.06
462.655	0.05
463.01	0.07
463.365	0.04
463.719	0.04
464.074	0.06
464.428	0.04
464.783	0.05
465.137	0.04
465.492	0.05
465.846	0.06
466.201	0.04
466.555	0.04
466.909	0.04
467.263	0.03
467.618	0.05
467.972	0.05
468.326	0.05
468.68	0.05
469.034	0.05
469.388	0.05
469.742	0.05
470.096	0.04
470.45	0.05
470.804	0.05
471.157	0.04
471.511	0.03
471.865	0.04
472.218	0.06
472.572	0.03
472.926	0.06
473.279	0.04
473.633	0.04
473.986	0.04
474.34	0.04
474.693	0.04
475.046	0.04
475.4	0.04
475.753	0.04
476.106	0.03
476.459	0.04
476.812	0.04
477.165	0.03
477.519	0.03
477.872	0.03
478.224	0.03
478.577	0.03
478.93	0.03
479.283	0.03
479.636	0.03
479.989	0.04
480.341	0.03
480.694	0.03
481.047	0.03
481.399	0.03
481.752	0.03
482.104	0.03
482.457	0.02
482.809	0.03
483.162	0.03
483.514	0.02
483.866	0.03
484.219	0.03
484.571	0.04
484.923	0.04
485.275	0.02
485.627	0.03
485.979	0.02
486.331	0.03
486.683	0.03
487.035	0.02
487.387	0.02
487.739	0.02
488.091	0.03
488.443	0.04
488.794	0.04
489.146	0.04
489.498	0.03
489.849	0.04
490.201	0.03
490.552	0.04
490.904	0.03
491.255	0.03
491.607	0.03
491.958	0.04
492.309	0.03
492.661	0.03
493.012	0.04
493.363	0.04
493.714	0.04
494.065	0.03
494.416	0.04
494.767	0.03
495.118	0.03
495.469	0.03
495.82	0.04
496.171	0.04
496.522	0.04
496.872	0.04
497.223	0.04
497.574	0.03
497.924	0.03
498.275	0.03
498.626	0.03
498.976	0.04
499.327	0.04
499.677	0.04
500.027	0.04
500.378	0.04
500.728	0.04
501.078	0.04
501.428	0.04
501.779	0.04
502.129	0.04
502.479	0.04
502.829	0.03
503.179	0.03
503.529	0.04
503.879	0.04
504.229	0.04
504.578	0.04
504.928	0.03
505.278	0.04
505.628	0.04
505.977	0.04
506.327	0.04
506.676	0.04
507.026	0.03
507.375	0.04
507.725	0.04
508.074	0.04
508.424	0.04
508.773	0.04
509.122	0.04
509.471	0.04
509.82	0.04
510.17	0.04
510.519	0.05
510.868	0.04
511.217	0.04
511.566	0.04
511.915	0.04
512.263	0.04
512.612	0.04
512.961	0.04
513.31	0.05
513.659	0.05
514.007	0.04
514.356	0.05
514.704	0.04
515.053	0.04
515.401	0.05
515.75	0.05
516.098	0.05
516.447	0.05
516.795	0.05
517.143	0.05
517.491	0.05
517.839	0.04
518.188	0.05
518.536	0.04
518.884	0.05
519.232	0.05
519.58	0.05
519.928	0.05
520.275	0.05
520.623	0.04
520.971	0.05
521.319	0.05
521.666	0.05
522.014	0.06
522.362	0.05
522.709	0.05
523.057	0.05
523.404	0.05
523.752	0.06
524.099	0.05
524.446	0.05
524.794	0.05
525.141	0.05
525.488	0.05
525.835	0.05
526.182	0.05
526.529	0.05
526.876	0.06
527.223	0.05
527.57	0.05
527.917	0.05
528.264	0.05
528.611	0.05
528.958	0.06
529.304	0.06
529.651	0.06
529.998	0.05
530.344	0.05
530.691	0.06
531.037	0.06
531.384	0.05
531.73	0.06
532.076	0.06
532.423	0.06
532.769	0.06
533.115	0.06
533.461	0.06
533.807	0.06
534.154	0.06
534.5	0.06
534.846	0.06
535.192	0.06
535.537	0.06
535.883	0.06
536.229	0.06
536.575	0.06
536.921	0.06
537.266	0.06
537.612	0.06
537.957	0.06
538.303	0.06
538.649	0.06
538.994	0.06
539.339	0.06
539.685	0.06
540.03	0.07
540.375	0.06
540.721	0.07
541.066	0.06
541.411	0.07
541.756	0.07
542.101	0.07
542.446	0.07
542.791	0.07
543.136	0.07
543.481	0.07
543.825	0.07
544.17	0.07
544.515	0.07
544.86	0.07
545.204	0.07
545.549	0.07
545.893	0.07
546.238	0.07
546.582	0.07
546.927	0.07
547.271	0.07
547.615	0.08
547.96	0.08
548.304	0.08
548.648	0.07
548.992	0.07
549.336	0.07
549.68	0.07
550.024	0.07
550.368	0.07
550.712	0.08
551.056	0.08
551.4	0.08
551.743	0.08
552.087	0.08
552.431	0.07
552.774	0.08
553.118	0.08
553.462	0.07
553.805	0.07
554.148	0.07
554.492	0.08
554.835	0.08
555.178	0.08
555.522	0.08
555.865	0.08
556.208	0.08
556.551	0.08
556.894	0.08
557.237	0.08
557.58	0.08
557.923	0.08
558.266	0.09
558.609	0.08
558.952	0.08
559.294	0.09
559.637	0.09
559.98	0.08
560.322	0.08
560.665	0.08
561.007	0.08
561.35	0.08
561.692	0.08
562.034	0.08
562.377	0.08
562.719	0.08
563.061	0.08
563.403	0.08
563.745	0.08
564.088	0.09
564.43	0.08
564.772	0.08
565.113	0.08
565.455	0.09
565.797	0.08
566.139	0.09
566.481	0.09
566.822	0.09
567.164	0.09
567.506	0.09
567.847	0.08
568.189	0.08
568.53	0.08
568.872	0.08
569.213	0.08
569.554	0.08
569.895	0.08
570.237	0.08
570.578	0.08
570.919	0.08
571.26	0.08
571.601	0.08
571.942	0.08
572.283	0.08
572.624	0.08
572.965	0.08
573.306	0.08
573.646	0.08
573.987	0.08
574.328	0.08
574.668	0.08
575.009	0.08
575.349	0.08
575.69	0.08
576.03	0.08
576.37	0.08
576.711	0.07
577.051	0.08
577.391	0.08
577.731	0.08
578.072	0.08
578.412	0.08
578.752	0.08
579.092	0.07
579.431	0.07
579.771	0.06
580.111	0.07
580.451	0.08
580.791	0.08
581.13	0.08
581.47	0.08
581.81	0.08
582.149	0.08
582.489	0.08
582.828	0.07
583.167	0.06
583.507	0.05
583.846	0.04
584.185	0.05
584.525	0.07
584.864	0.08
585.203	0.09
585.542	0.09
585.881	0.09
586.22	0.08
586.559	0.07
586.898	0.07
587.236	0.07
587.575	0.08
587.914	0.08
588.252	0.09
588.591	0.09
588.93	0.08
589.268	0.08
589.607	0.08
589.945	0.08
590.283	0.09
590.622	0.09
590.96	0.09
591.298	0.09
591.636	0.09
591.974	0.09
592.313	0.09
592.651	0.1
592.989	0.09
593.326	0.09
593.664	0.09
594.002	0.09
594.34	0.08
594.678	0.08
595.015	0.08
595.353	0.08
595.691	0.09
596.028	0.1
596.366	0.1
596.703	0.1
597.04	0.09
597.378	0.1
597.715	0.1
598.052	0.1
598.389	0.1
598.726	0.1
599.064	0.09
599.401	0.09
599.738	0.1
600.074	0.1
600.411	0.09
600.748	0.09
601.085	0.09
601.422	0.09
601.758	0.09
602.095	0.09
602.432	0.1
602.768	0.1
603.105	0.1
603.441	0.1
603.777	0.11
604.114	0.11
604.45	0.1
604.786	0.1
605.122	0.1
605.459	0.09
605.795	0.1
606.131	0.1
606.467	0.1
606.803	0.1
607.139	0.1
607.474	0.09
607.81	0.1
608.146	0.09
608.482	0.1
608.817	0.1
609.153	0.09
609.488	0.09
609.824	0.1
610.159	0.1
610.495	0.1
610.83	0.1
611.165	0.1
611.5	0.1
611.836	0.1
612.171	0.1
612.506	0.1
612.841	0.1
613.176	0.09
613.511	0.1
613.845	0.1
614.18	0.1
614.515	0.09
614.85	0.09
615.184	0.09
615.519	0.09
615.854	0.09
616.188	0.09
616.523	0.09
616.857	0.09
617.191	0.09
617.526	0.1
617.86	0.1
618.194	0.1
618.528	0.1
618.862	0.1
619.196	0.1
619.53	0.1
619.864	0.09
620.198	0.09
620.532	0.09
620.866	0.09
621.2	0.09
621.533	0.09
621.867	0.09
622.201	0.09
622.534	0.09
622.868	0.09
623.201	0.09
623.534	0.09
623.868	0.08
624.201	0.08
624.534	0.09
624.868	0.09
625.201	0.09
625.534	0.09
625.867	0.09
626.2	0.08
626.533	0.09
626.865	0.09
627.198	0.09
627.531	0.09
627.864	0.09
628.196	0.08
628.529	0.09
628.862	0.08
629.194	0.08
629.527	0.08
629.859	0.09
630.191	0.09
630.524	0.09
630.856	0.08
631.188	0.08
631.52	0.08
631.852	0.08
632.184	0.08
632.516	0.08
632.848	0.08
633.18	0.08
633.512	0.08
633.844	0.08
634.175	0.08
634.507	0.07
634.839	0.07
635.17	0.07
635.502	0.07
635.833	0.07
636.165	0.07
636.496	0.07
636.827	0.07
637.159	0.07
637.49	0.07
637.821	0.07
638.152	0.07
638.483	0.07
638.814	0.07
639.145	0.07
639.476	0.07
639.807	0.07
640.137	0.06
640.468	0.07
640.799	0.06
641.129	0.07
641.46	0.06
641.791	0.07
642.121	0.06
642.451	0.06
642.782	0.06
643.112	0.06
643.442	0.06
643.773	0.06
644.103	0.06
644.433	0.06
644.763	0.06
645.093	0.06
645.423	0.06
645.753	0.06
646.082	0.05
646.412	0.06
646.742	0.06
647.072	0.06
647.401	0.06
647.731	0.05
648.06	0.05
648.39	0.06
648.719	0.05
649.048	0.05
649.378	0.05
649.707	0.05
650.036	0.05
650.365	0.05
650.694	0.05
651.023	0.05
651.352	0.05
651.681	0.06
652.01	0.06
652.339	0.06
652.668	0.06
652.996	0.06
653.325	0.05
653.654	0.05
653.982	0.06
654.311	0.06
654.639	0.05
654.967	0.05
655.296	0.05
655.624	0.05
655.952	0.06
656.28	0.06
656.609	0.05
656.937	0.05
657.265	0.02
657.593	-0.03
657.92	0
658.248	0
658.576	0
658.904	0
659.231	0.02
659.559	0.07
659.887	0.08
660.214	0.08
660.542	0.07
660.869	0.06
661.196	0.05
661.524	0.05
661.851	0.05
662.178	0.05
662.505	0.06
662.832	0.05
663.159	0.05
663.486	0.05
663.813	0.05
664.14	0.05
664.467	0.05
664.794	0.05
665.12	0.05
665.447	0.05
665.774	0.05
666.1	0.05
666.427	0.05
666.753	0.05
667.079	0.05
667.406	0.05
667.732	0.05
668.058	0.05
668.384	0.05
668.71	0.05
669.036	0.05
669.362	0.05
669.688	0.05
670.014	0.05
670.34	0.05
670.666	0.05
670.991	0.05
671.317	0.05
671.643	0.05
671.968	0.05
672.294	0.05
672.619	0.05
672.945	0.04
673.27	0.04
673.595	0.04
673.92	0.04
674.246	0.04
674.571	0.05
674.896	0.05
675.221	0.05
675.546	0.05
675.87	0.05
676.195	0.04
676.52	0.05
676.845	0.04
677.169	0.04
677.494	0.04
677.819	0.04
678.143	0.05
678.468	0.04
678.792	0.04
679.116	0.04
679.44	0.04
679.765	0.04
680.089	0.04
680.413	0.04
680.737	0.04
681.061	0.04
681.385	0.04
681.709	0.04
682.033	0.04
682.356	0.04
682.68	0.04
683.004	0.03
683.327	0.03
683.651	0.03
683.974	0.03
684.298	0.04
684.621	0.04
684.944	0.04
685.268	0.03
685.591	0.03
685.914	0.03
686.237	0.03
686.56	0.03
686.883	0.03
687.206	0.03
687.529	0.03
687.852	0.03
688.175	0.03
688.497	0.04
688.82	0.04
689.142	0.03
689.465	0.03
689.787	0.03
690.11	0.03
690.432	0.03
690.755	0.03
691.077	0.03
691.399	0.02
691.721	0.03
692.043	0.03
692.365	0.03
692.687	0.03
693.009	0.03
693.331	0.02
693.653	0.03
693.974	0.02
694.296	0.02
694.618	0.03
694.939	0.03
695.261	0.03
695.582	0.02
695.904	0.03
696.225	0.02
696.546	0.02
696.868	0.03
697.189	0.02
697.51	0.02
697.831	0.02
698.152	0.03
698.473	0.02
698.794	0.01
699.114	0.01
699.435	0.02
699.756	0.02
700.077	0.02
700.397	0.02
700.718	0.02
701.038	0.02
701.359	0.02
701.679	0.02
701.999	0.02
702.32	0.02
702.64	0.02
702.96	0.02
703.28	0.02
703.6	0.01
703.92	0.02
704.24	0.01
704.56	0.01
704.879	0.02
705.199	0.02
705.519	0.02
705.838	0.02
706.158	0.02
706.478	0.01
706.797	0.02
707.116	0.02
707.436	0.02
707.755	0.01
708.074	0.01
708.393	0.01
708.712	0.01
709.031	0.01
709.35	0.01
709.669	0.01
709.988	0.02
710.307	0.02
710.626	0.02
710.944	0.02
711.263	0.02
711.582	0.02
711.9	0.02
712.219	0.02
712.537	0.01
712.855	0.01
713.174	0.01
713.492	0.01
713.81	0.02
714.128	0.01
714.446	0.01
714.764	0.02
715.082	0.01
715.4	0.02
715.718	0.02
716.035	0.02
716.353	0.02
716.671	0.02
716.988	0.02
717.306	0.02
717.623	0.02
717.941	0.02
718.258	0.02
718.575	0.02
718.893	0.02
719.21	0.02
719.527	0.02
719.844	0.01
720.161	0.02
720.478	0.02
720.795	0.02
721.112	0.02
721.428	0.02
721.745	0.02
722.062	0.02
722.378	0.02
722.695	0.02
723.011	0.02
723.328	0.02
723.644	0.02
723.96	0.02
724.276	0.02
724.593	0.02
724.909	0.02
725.225	0.02
725.541	0.02
725.857	0.02
726.173	0.02
726.488	0.02
726.804	0.01
727.12	0.01
727.435	0.01
727.751	0.02
728.067	0.02
728.382	0.02
728.697	0.02
729.013	0.02
729.328	0.02
729.643	0.02
729.958	0.02
730.273	0.02
730.588	0.02
730.903	0.02
731.218	0.02
731.533	0.02
731.848	0.02
732.163	0.01
732.477	0.01
732.792	0.02
733.107	0.01
733.421	0.02
733.736	0.02
734.05	0.02
734.364	0.02
734.678	0.02
734.993	0.02
735.307	0.02
735.621	0.02
735.935	0.02
736.249	0.02
736.563	0.02
736.877	0.02
737.19	0.02
737.504	0.02
737.818	0.02
738.131	0.02
738.445	0.02
738.758	0.02
739.072	0.02
739.385	0.02
739.698	0.02
740.012	0.02
740.325	0.02
740.638	0.01
740.951	0.01
741.264	0.02
741.577	0.02
741.89	0.03
742.203	0.02
742.515	0.02
742.828	0.02
743.141	0.02
743.453	0.02
743.766	0.02
744.078	0.01
744.391	0.02
744.703	0.02
745.015	0.02
745.327	0.02
745.639	0.02
745.952	0.02
746.264	0.02
746.575	0.02
746.887	0.02
747.199	0.02
747.511	0.01
747.823	0.01
748.134	0.01
748.446	0.01
748.757	0.01
749.069	0.01
749.38	0.01
749.692	0.02
750.003	0.02
750.314	0.01
750.625	0.01
750.936	0.01
751.248	0.01
751.559	0.01
751.869	0.02
752.18	0.01
752.491	0.02
752.802	0.02
753.112	0.01
753.423	0.02
753.734	0.01
754.044	0.01
754.355	0.01
754.665	0.01
754.975	0.01
755.285	0.01
755.596	0.01
755.906	0.02
756.216	0.01
756.526	0.02
756.836	0.01
757.146	0.01
757.455	0.01
757.765	0.01
758.075	0.01
758.385	0.01
758.694	0.01
759.004	0.01
759.313	0.01
759.622	0.01
759.932	0.02
760.241	0.02
760.55	0.01
760.859	0.01
761.168	0.01
761.477	0.01
761.786	0.01
762.095	0.01
762.404	0.01
762.713	0.01
763.021	0.01
763.33	0.01
763.639	0.01
763.947	0.01
764.256	0.01
764.564	0.01
764.872	0.01
765.181	0.01
765.489	0.01
765.797	0.01
766.105	0.01
766.413	0.01
766.721	0.01
767.029	0.01
767.337	0.02
767.644	0.01
767.952	0.01
768.26	0.02
768.567	0.01
768.875	0.01
769.182	0.01
769.49	0.01
769.797	0.01
770.104	0.01
770.411	0.01
770.718	0.01
771.026	0.01
771.333	0.01
771.639	0.01
771.946	0.01
772.253	0.01
772.56	0.01
772.867	0.01
773.173	0.01
773.48	0.01
773.786	0.01
774.093	0.01
774.399	0.01
774.705	0.01
775.012	0.01
775.318	0.01
775.624	0.01
775.93	0.01
776.236	0.01
776.542	0.01
776.848	0.01
777.154	0.01
777.459	0.01
777.765	0.01
778.071	0.01
778.376	0.01
778.682	0.01
778.987	0.01
779.292	0.01
779.598	0.01
779.903	0.01
780.208	0.01
780.513	0.01
780.818	0.01
781.123	0.01
781.428	0.01
781.733	0.01
782.038	0.01
782.343	0.01
782.647	-0
782.952	0.01
783.256	0.01
783.561	0
783.865	0.01
784.17	0
784.474	0
784.778	0.01
785.082	0.01
785.386	0.01
785.69	0.01
785.994	0.01
786.298	0.01
786.602	0.01
786.906	0.01
787.209	0
787.513	0.01
787.817	0
788.12	0.01
788.424	0.01
788.727	0.01
789.03	0
789.333	0.01
789.637	0.01
789.94	0.01
790.243	0.01
790.546	0.01
790.849	0.01
791.152	0.01
791.454	0.01
791.757	0.01
792.06	0.01
792.362	0.01
792.665	0.01
792.967	0.01
793.27	0.01
793.572	0.01
793.874	0.01
794.177	0.01
794.479	0
794.781	0.01
795.083	0
795.385	0
795.687	0.01
795.989	0
796.29	0.01
796.592	0.01
796.894	0.01
797.195	0.01
797.497	0.02
797.798	0.01
798.1	0.02
798.401	0.01
798.702	0.01
799.003	0.01
799.304	0.01
799.605	0.01
799.906	0.01
800.207	0.01
800.508	0.01
800.809	0.01
801.11	0.01
801.41	0.01
801.711	0.01
802.011	0
802.312	0
802.612	0.01
802.913	0
803.213	0.01
803.513	0.01
803.813	0.01
804.113	0.01
804.413	0.01
804.713	0
805.013	0
805.313	0
805.613	0
805.912	0
806.212	0
806.511	0.01
806.811	0
807.11	0
807.41	0.01
807.709	0
808.008	0
808.307	0.01
808.606	0.01
808.905	0.01
809.204	0
809.503	0.01
809.802	0.02
810.101	0
810.399	0.01
810.698	0.01
810.997	0.01
811.295	0.01
811.593	0.01
811.892	0.01
812.19	0.01
812.488	0.01
812.786	0.01
813.084	0.01
813.383	0
813.68	0.01
813.978	0
814.276	0.01
814.574	0.01
814.872	0.01
815.169	0.01
815.467	-0
815.764	0
816.062	0.01
816.359	0.01
816.656	0.01
816.954	0.01
817.251	0
817.548	0.01
817.845	0.01
818.142	0
818.439	0
818.735	0.01
819.032	0
819.329	0
819.626	0
819.922	0
820.219	0.01
820.515	0.01
820.811	0.01
821.108	0.01
821.404	-0
821.7	-0
821.996	-0
822.292	0
822.588	-0.01
822.884	0
823.18	-0
823.475	0
823.771	-0.01
824.067	0
824.362	0.01
824.658	0
824.953	-0
825.249	0
825.544	0
825.839	0.01
826.134	0
826.429	0.01
826.724	0.01
827.019	0
827.314	0.01
827.609	0
827.904	0
828.198	-0
828.493	0
828.787	0.01
829.082	0.01
829.376	0
829.671	0
829.965	0
830.259	0.01
830.553	0.01
830.847	0.01
831.141	0
831.435	-0
831.729	0
832.023	0
832.317	0
832.61	-0
832.904	0
833.197	0
833.491	0
833.784	0
834.077	0.01
834.371	0.01
834.664	-0
834.957	-0
835.25	0.01
835.543	0
835.836	0
836.129	0
836.421	0
836.714	0
837.007	0
837.299	0
837.592	-0
837.884	0.01
838.177	0.01
838.469	-0.01
838.761	-0
839.053	0
839.345	0
839.637	0
839.929	-0
840.221	0.01
840.513	-0
840.805	-0.01
841.096	0.01
841.388	0.01
841.68	0.01
841.971	0
842.262	0
842.554	-0.01
842.845	0
843.136	0
843.427	0.01
843.718	0.01
844.009	-0
844.3	0.01
844.591	-0
844.882	0
845.173	0
845.463	0
845.754	-0.01
846.044	0.01
846.335	-0.01
846.625	-0
846.915	0.01
847.206	-0.01
847.496	0.01
847.786	-0
848.076	-0
848.366	-0.01
848.656	-0.01
848.945	-0.01
849.235	-0
849.525	-0.01
849.814	0
850.104	-0
850.393	-0.02
850.683	-0
850.972	-0.01
851.261	0
851.551	0.01
851.84	0
852.129	-0.02
852.418	-0.01
852.707	-0
852.995	0.01
853.284	-0.01
853.573	0
853.862	-0
854.15	-0.02
854.439	0.01
854.727	-0.01
855.015	-0.01
855.304	-0.01
855.592	0.01
855.88	-0
856.168	0
856.456	0
856.744	-0
857.032	0.01
857.32	-0
857.607	0
857.895	-0.02
858.183	-0.01
858.47	0
858.757	0.01
859.045	0.01
859.332	-0.02
859.619	0
859.907	0.01
860.194	0.01
860.481	0.02
860.768	-0.02
861.054	-0.02
861.341	-0.03
861.628	-0
861.915	-0.01
862.201	-0.01
862.488	-0.02
862.774	-0.03
863.061	-0.01
863.347	-0.01
863.633	0.01
863.919	0.03
864.205	-0
864.491	0.02
864.777	0.01
865.063	0.01
865.349	0.02
865.635	-0
865.92	-0
866.206	-0.02
866.492	-0.02
866.777	0.01
867.062	-0.02
867.348	-0.03
867.633	0.02
867.918	-0.01
868.203	-0.02
868.488	-0.04
868.773	0.01
869.058	0.02
869.343	-0.01
869.628	-0.03
869.912	-0.03
870.197	-0.04
870.482	-0.06
870.766	0.01
871.05	-0.03
871.335	-0.01
871.619	-0.04
871.903	-0.06
872.187	0
872.471	-0.04
872.755	0.01
873.039	-0.03
873.323	-0
873.607	0.02
873.89	-0.02
874.174	-0.03
874.458	0
874.741	-0.05
875.024	-0.01
875.308	-0.09
875.591	-0.08
875.874	-0.11
876.157	0.01
876.44	-0.05
876.723	-0.1
877.006	-0.08
877.289	-0.04
877.572	-0.07
877.854	-0.06
878.137	-0.1
878.42	-0.16
878.702	-0.1
878.984	-0.09
879.267	-0.09
879.549	-0.07
879.831	-0.06
880.113	0.08
880.395	-0.06
880.677	-0.07
880.959	-0.1
