Data from Rubpy_EV_EDTA_Flow_Absorbance_14-50-40-492.txt Node
Date: Fri Jul 03 14:50:40 BST 2026
User: fpm-admin
Spectrometer: OFX00224
Trigger mode: 0
Integration Time (sec): 1.200000E-2
Scans to average: 3
Nonlinearity correction enabled: false
Boxcar width: 0
Storing dark spectrum: false
XAxis mode: Wavelengths
Number of Pixels in Spectrum: 2136
>>>>>Begin Spectral Data<<<<<
154.91	-0.76
155.289	-0.3
155.669	-0.09
156.048	0.32
156.428	0.58
156.807	0.11
157.186	-0
157.566	-0
157.945	0.14
158.325	0.85
158.704	-0
159.083	-0
159.462	-0.18
159.842	-0.46
160.221	0.87
160.6	-0
160.979	-0
161.359	0.05
161.738	0.67
162.117	-0
162.496	-0
162.875	-1.35
163.254	-0
163.633	0.06
164.012	-0
164.391	-0.9
164.77	0.13
165.149	-0
165.528	-0
165.907	-0
166.286	-0
166.665	0.27
167.044	-0
167.423	-0
167.802	0.18
168.181	-0
168.559	-0
168.938	-0
169.317	0.3
169.696	-0
170.074	-0
170.453	1.35
170.832	-0
171.21	-0
171.589	-0.61
171.968	-0
172.346	-0
172.725	0.42
173.103	-0.24
173.482	-0
173.861	-0
174.239	0.88
174.617	0.26
174.996	-0
175.374	0.24
175.753	-0
176.131	0.77
176.51	0.39
176.888	-0
177.266	-0.84
177.645	0.1
178.023	-0
178.401	-0.1
178.779	0.15
179.158	-0
179.536	0.16
179.914	-0
180.292	0.33
180.67	-0.53
181.048	-0.74
181.427	0.99
181.805	-0
182.183	-0.4
182.561	0.09
182.939	0.25
183.317	-0
183.695	-0.19
184.073	0.32
184.451	-0
184.829	-0.54
185.206	-0
185.584	-0.17
185.962	-0.37
186.34	-0.43
186.718	-0
187.096	0.6
187.473	-0
187.851	-0.1
188.229	-0.09
188.607	0.02
188.984	-0.01
189.362	-0.01
189.74	-0
190.117	0.08
190.495	0.03
190.872	0.03
191.25	0.06
191.627	0.13
192.005	0.04
192.382	0.01
192.76	-0.06
193.137	0.03
193.515	0.09
193.892	0.12
194.269	0.11
194.647	-0.02
195.024	-0.04
195.401	-0.03
195.779	0.07
196.156	0.03
196.533	0.07
196.91	-0.08
197.288	0.08
197.665	-0
198.042	-0.01
198.419	0.1
198.796	0
199.173	0.02
199.55	0.06
199.927	0.07
200.304	-0.08
200.681	-0.08
201.058	0.06
201.435	0.08
201.812	0
202.189	-0.02
202.566	-0.01
202.943	-0.01
203.32	0.02
203.697	-0.06
204.073	0.04
204.45	0.07
204.827	0.01
205.204	-0.02
205.58	-0.02
205.957	0.08
206.334	-0.07
206.71	0.02
207.087	-0.12
207.464	0
207.84	0.08
208.217	0.15
208.593	-0.05
208.97	0.03
209.346	-0.02
209.723	0
210.099	0.06
210.476	0.04
210.852	-0.03
211.228	-0.04
211.605	0.01
211.981	-0.01
212.357	-0.01
212.733	0.03
213.11	0.03
213.486	0.04
213.862	0.05
214.238	0.04
214.614	0.06
214.991	-0.09
215.367	0.01
215.743	0
216.119	-0.03
216.495	0.01
216.871	-0
217.247	0.08
217.623	0.04
217.999	0.04
218.375	-0.02
218.751	0
219.127	0
219.502	0.07
219.878	0.07
220.254	0.06
220.63	0.05
221.006	0.03
221.381	0.02
221.757	-0.12
222.133	0.08
222.508	0.01
222.884	0.02
223.26	-0.01
223.635	-0.04
224.011	0.04
224.386	0.05
224.762	0.05
225.137	0.05
225.513	0.04
225.888	0.02
226.264	-0.04
226.639	0.01
227.014	0.06
227.39	0.05
227.765	0.02
228.14	0.01
228.516	-0.02
228.891	0.17
229.266	0.02
229.641	0.18
230.017	0.05
230.392	0.03
230.767	-0.05
231.142	-0
231.517	-0.03
231.892	0.08
232.267	0.04
232.642	0.04
233.017	-0.03
233.392	0.05
233.767	-0.05
234.142	0.01
234.517	-0
234.892	-0.07
235.267	-0.08
235.641	-0.09
236.016	0.04
236.391	0.06
236.766	0.01
237.14	0.2
237.515	0.09
237.89	0.07
238.264	0.05
238.639	0.1
239.014	0.04
239.388	0.05
239.763	-0.04
240.137	0.03
240.512	0.01
240.886	0.08
241.261	-0.05
241.635	-0.04
242.009	0.01
242.384	0.04
242.758	0.07
243.132	0.06
243.507	0.08
243.881	0.08
244.255	0.06
244.629	-0.07
245.004	0.08
245.378	0.03
245.752	-0.09
246.126	-0.05
246.5	0.08
246.874	-0.07
247.248	-0.01
247.622	0.04
247.996	0.06
248.37	0.08
248.744	0.03
249.118	-0.02
249.492	0.07
249.866	0.04
250.24	0.03
250.613	0.03
250.987	0.1
251.361	0.07
251.735	-0.05
252.108	-0.05
252.482	0.05
252.856	-0.11
253.229	0.06
253.603	-0.06
253.977	-0.04
254.35	0.14
254.724	-0
255.097	0.08
255.471	0.1
255.844	0.05
256.218	0.07
256.591	0.01
256.964	0.05
257.338	0.04
257.711	0.02
258.084	0.08
258.458	0.04
258.831	-0.1
259.204	0.08
259.577	-0.05
259.95	0.08
260.323	-0.02
260.697	0.04
261.07	0.04
261.443	0.05
261.816	0
262.189	0
262.562	0.03
262.935	0.01
263.308	0
263.68	-0
264.053	0.04
264.426	0.08
264.799	0.04
265.172	0.01
265.545	0.03
265.917	-0.04
266.29	0.06
266.663	0.03
267.035	0.03
267.408	-0.05
267.781	0.09
268.153	0.12
268.526	-0.01
268.898	-0.01
269.271	0.07
269.643	0.02
270.016	0.06
270.388	0.03
270.76	0.06
271.133	0.05
271.505	-0.01
271.877	0.09
272.25	0.06
272.622	-0.02
272.994	0.1
273.366	0.03
273.739	0.07
274.111	0.08
274.483	0.07
274.855	-0
275.227	0.1
275.599	0.02
275.971	0.09
276.343	0.05
276.715	0.11
277.087	-0.02
277.459	0.01
277.831	0.04
278.203	0.11
278.574	-0.02
278.946	-0.04
279.318	0.12
279.69	0.03
280.061	0.07
280.433	0.04
280.805	0.08
281.176	0.05
281.548	0.07
281.92	0.1
282.291	0.06
282.663	0.1
283.034	0.06
283.406	0.04
283.777	0.08
284.148	-0.01
284.52	0.13
284.891	0.02
285.262	-0.02
285.634	0.08
286.005	0.06
286.376	0.07
286.747	0.04
287.119	0.05
287.49	0.01
287.861	0.12
288.232	0.05
288.603	0.05
288.974	0.1
289.345	0.08
289.716	0.03
290.087	0.09
290.458	0.06
290.829	0.06
291.2	0.09
291.571	0.08
291.941	0.04
292.312	0.03
292.683	0.03
293.054	0.08
293.424	-0.02
293.795	0.12
294.166	0.05
294.536	0.11
294.907	0.07
295.277	0.1
295.648	0.09
296.018	0.1
296.389	0.03
296.759	0.05
297.13	0.09
297.5	0.03
297.871	0.12
298.241	0.09
298.611	0.02
298.981	0.04
299.352	0.05
299.722	0.03
300.092	0.07
300.462	0.07
300.832	0.05
301.202	-0.01
301.573	0.02
301.943	-0.03
302.313	0.06
302.683	0.04
303.053	0.02
303.422	0.05
303.792	0.02
304.162	-0.02
304.532	0.03
304.902	0.04
305.272	0.08
305.641	0.11
306.011	0.04
306.381	0.04
306.75	0.04
307.12	0.09
307.49	-0
307.859	0.03
308.229	0.08
308.598	0.07
308.968	0.06
309.337	0.02
309.707	0.11
310.076	0.06
310.445	0.02
310.815	0.07
311.184	0.06
311.553	0.1
311.923	0.09
312.292	0.03
312.661	0.07
313.03	0.02
313.399	0.1
313.768	0.03
314.137	0.07
314.506	0.06
314.875	0.08
315.244	0.06
315.613	0.05
315.982	0.08
316.351	0.06
316.72	0.06
317.089	0.07
317.458	0.08
317.826	0.08
318.195	0.07
318.564	0.07
318.933	0.05
319.301	0.06
319.67	0.07
320.038	0.05
320.407	0.06
320.775	0.08
321.144	0.07
321.512	0.07
321.881	0.07
322.249	0.08
322.618	0.09
322.986	0.05
323.354	0.07
323.723	0.05
324.091	0.08
324.459	0.08
324.827	0.08
325.195	0.09
325.564	0.08
325.932	0.09
326.3	0.08
326.668	0.08
327.036	0.06
327.404	0.06
327.772	0.05
328.14	0.05
328.508	0.07
328.875	0.07
329.243	0.07
329.611	0.07
329.979	0.06
330.346	0.07
330.714	0.07
331.082	0.07
331.449	0.06
331.817	0.07
332.185	0.07
332.552	0.07
332.92	0.07
333.287	0.06
333.655	0.07
334.022	0.07
334.389	0.07
334.757	0.07
335.124	0.07
335.491	0.07
335.859	0.07
336.226	0.07
336.593	0.07
336.96	0.07
337.327	0.07
337.695	0.07
338.062	0.07
338.429	0.08
338.796	0.08
339.163	0.07
339.53	0.08
339.897	0.08
340.263	0.09
340.63	0.08
340.997	0.08
341.364	0.08
341.731	0.08
342.097	0.08
342.464	0.09
342.831	0.09
343.197	0.09
343.564	0.09
343.931	0.1
344.297	0.09
344.664	0.1
345.03	0.1
345.396	0.09
345.763	0.1
346.129	0.11
346.496	0.1
346.862	0.1
347.228	0.1
347.594	0.11
347.961	0.1
348.327	0.1
348.693	0.11
349.059	0.11
349.425	0.11
349.791	0.11
350.157	0.12
350.523	0.11
350.889	0.12
351.255	0.12
351.621	0.13
351.987	0.12
352.353	0.12
352.719	0.12
353.084	0.13
353.45	0.13
353.816	0.14
354.181	0.13
354.547	0.13
354.913	0.14
355.278	0.14
355.644	0.15
356.009	0.14
356.375	0.15
356.74	0.15
357.106	0.15
357.471	0.15
357.836	0.16
358.202	0.15
358.567	0.16
358.932	0.17
359.297	0.16
359.663	0.16
360.028	0.16
360.393	0.16
360.758	0.17
361.123	0.17
361.488	0.18
361.853	0.17
362.218	0.18
362.583	0.18
362.948	0.18
363.312	0.17
363.677	0.18
364.042	0.17
364.407	0.18
364.772	0.19
365.136	0.18
365.501	0.19
365.865	0.18
366.23	0.2
366.595	0.2
366.959	0.2
367.324	0.2
367.688	0.2
368.052	0.2
368.417	0.2
368.781	0.21
369.145	0.21
369.51	0.21
369.874	0.21
370.238	0.21
370.602	0.21
370.967	0.21
371.331	0.2
371.695	0.21
372.059	0.2
372.423	0.21
372.787	0.2
373.151	0.21
373.515	0.2
373.878	0.2
374.242	0.2
374.606	0.2
374.97	0.19
375.334	0.2
375.697	0.2
376.061	0.2
376.425	0.2
376.788	0.2
377.152	0.19
377.515	0.19
377.879	0.2
378.242	0.2
378.606	0.2
378.969	0.2
379.333	0.2
379.696	0.2
380.059	0.21
380.422	0.2
380.786	0.21
381.149	0.21
381.512	0.22
381.875	0.22
382.238	0.22
382.601	0.23
382.964	0.24
383.327	0.24
383.69	0.25
384.053	0.24
384.416	0.26
384.779	0.26
385.142	0.27
385.504	0.27
385.867	0.28
386.23	0.27
386.593	0.28
386.955	0.27
387.318	0.28
387.68	0.28
388.043	0.28
388.405	0.28
388.768	0.27
389.13	0.27
389.493	0.27
389.855	0.27
390.217	0.26
390.58	0.26
390.942	0.27
391.304	0.27
391.666	0.28
392.028	0.28
392.391	0.28
392.753	0.28
393.115	0.3
393.477	0.3
393.839	0.31
394.201	0.32
394.563	0.33
394.924	0.35
395.286	0.36
395.648	0.38
396.01	0.39
396.371	0.4
396.733	0.41
397.095	0.42
397.456	0.41
397.818	0.42
398.18	0.42
398.541	0.41
398.903	0.4
399.264	0.38
399.625	0.37
399.987	0.35
400.348	0.34
400.709	0.33
401.071	0.33
401.432	0.31
401.793	0.29
402.154	0.26
402.515	0.26
402.876	0.24
403.238	0.22
403.599	0.21
403.96	0.21
404.32	0.19
404.681	0.18
405.042	0.17
405.403	0.16
405.764	0.16
406.125	0.14
406.485	0.13
406.846	0.13
407.207	0.13
407.567	0.12
407.928	0.11
408.288	0.12
408.649	0.11
409.009	0.11
409.37	0.11
409.73	0.1
410.091	0.09
410.451	0.09
410.811	0.09
411.171	0.09
411.532	0.09
411.892	0.08
412.252	0.08
412.612	0.08
412.972	0.08
413.332	0.07
413.692	0.07
414.052	0.07
414.412	0.08
414.772	0.08
415.132	0.08
415.492	0.08
415.851	0.07
416.211	0.06
416.571	0.08
416.931	0.07
417.29	0.08
417.65	0.07
418.009	0.07
418.369	0.06
418.728	0.08
419.088	0.07
419.447	0.07
419.807	0.06
420.166	0.07
420.525	0.07
420.884	0.07
421.244	0.07
421.603	0.08
421.962	0.05
422.321	0.06
422.68	0.06
423.039	0.06
423.398	0.06
423.757	0.05
424.116	0.07
424.475	0.07
424.834	0.07
425.193	0.07
425.551	0.07
425.91	0.06
426.269	0.05
426.628	0.07
426.986	0.07
427.345	0.08
427.703	0.05
428.062	0.07
428.42	0.07
428.779	0.04
429.137	0.07
429.496	0.05
429.854	0.08
430.212	0.05
430.57	0.05
430.929	0.05
431.287	0.04
431.645	0.06
432.003	0.06
432.361	0.04
432.719	0.06
433.077	0.06
433.435	0.06
433.793	0.07
434.151	0.07
434.509	0.05
434.866	0.07
435.224	0.06
435.582	0.06
435.94	0.05
436.297	0.07
436.655	0.06
437.012	0.06
437.37	0.05
437.727	0.05
438.085	0.06
438.442	0.06
438.8	0.06
439.157	0.09
439.514	0.08
439.872	0.05
440.229	0.05
440.586	0.07
440.943	0.05
441.3	0.06
441.657	0.06
442.014	0.06
442.371	0.08
442.728	0.05
443.085	0.05
443.442	0.06
443.799	0.07
444.156	0.06
444.513	0.04
444.869	0.06
445.226	0.06
445.583	0.06
445.939	0.05
446.296	0.05
446.652	0.06
447.009	0.06
447.365	0.06
447.722	0.05
448.078	0.05
448.434	0.07
448.791	0.06
449.147	0.08
449.503	0.06
449.859	0.04
450.215	0.07
450.571	0.05
450.928	0.08
451.284	0.05
451.64	0.07
451.995	0.07
452.351	0.04
452.707	0.07
453.063	0.06
453.419	0.05
453.775	0.08
454.13	0.07
454.486	0.05
454.842	0.04
455.197	0.08
455.553	0.07
455.908	0.06
456.264	0.06
456.619	0.06
456.975	0.05
457.33	0.07
457.685	0.06
458.04	0.06
458.396	0.06
458.751	0.06
459.106	0.06
459.461	0.04
459.816	0.05
460.171	0.07
460.526	0.06
460.881	0.06
461.236	0.06
461.591	0.05
461.946	0.05
462.301	0.05
462.655	0.05
463.01	0.07
463.365	0.04
463.719	0.04
464.074	0.06
464.428	0.05
464.783	0.05
465.137	0.05
465.492	0.05
465.846	0.07
466.201	0.04
466.555	0.05
466.909	0.04
467.263	0.03
467.618	0.07
467.972	0.05
468.326	0.07
468.68	0.05
469.034	0.06
469.388	0.05
469.742	0.06
470.096	0.04
470.45	0.05
470.804	0.04
471.157	0.04
471.511	0.04
471.865	0.05
472.218	0.07
472.572	0.05
472.926	0.06
473.279	0.06
473.633	0.04
473.986	0.05
474.34	0.05
474.693	0.04
475.046	0.05
475.4	0.05
475.753	0.04
476.106	0.04
476.459	0.03
476.812	0.04
477.165	0.04
477.519	0.04
477.872	0.04
478.224	0.04
478.577	0.04
478.93	0.05
479.283	0.04
479.636	0.04
479.989	0.04
480.341	0.04
480.694	0.04
481.047	0.04
481.399	0.04
481.752	0.03
482.104	0.04
482.457	0.03
482.809	0.04
483.162	0.04
483.514	0.03
483.866	0.04
484.219	0.04
484.571	0.05
484.923	0.05
485.275	0.04
485.627	0.04
485.979	0.03
486.331	0.04
486.683	0.04
487.035	0.03
487.387	0.02
487.739	0.03
488.091	0.04
488.443	0.06
488.794	0.05
489.146	0.05
489.498	0.05
489.849	0.05
490.201	0.05
490.552	0.05
490.904	0.05
491.255	0.04
491.607	0.05
491.958	0.05
492.309	0.05
492.661	0.05
493.012	0.05
493.363	0.05
493.714	0.05
494.065	0.05
494.416	0.05
494.767	0.04
495.118	0.04
495.469	0.04
495.82	0.05
496.171	0.05
496.522	0.05
496.872	0.05
497.223	0.05
497.574	0.04
497.924	0.04
498.275	0.04
498.626	0.05
498.976	0.06
499.327	0.06
499.677	0.06
500.027	0.06
500.378	0.05
500.728	0.05
501.078	0.05
501.428	0.05
501.779	0.06
502.129	0.05
502.479	0.06
502.829	0.05
503.179	0.05
503.529	0.05
503.879	0.05
504.229	0.06
504.578	0.06
504.928	0.05
505.278	0.05
505.628	0.05
505.977	0.06
506.327	0.06
506.676	0.06
507.026	0.05
507.375	0.06
507.725	0.06
508.074	0.06
508.424	0.06
508.773	0.06
509.122	0.06
509.471	0.06
509.82	0.06
510.17	0.06
510.519	0.06
510.868	0.06
511.217	0.06
511.566	0.06
511.915	0.06
512.263	0.06
512.612	0.06
512.961	0.06
513.31	0.06
513.659	0.06
514.007	0.06
514.356	0.07
514.704	0.06
515.053	0.07
515.401	0.06
515.75	0.07
516.098	0.07
516.447	0.07
516.795	0.07
517.143	0.07
517.491	0.07
517.839	0.07
518.188	0.06
518.536	0.06
518.884	0.07
519.232	0.07
519.58	0.07
519.928	0.07
520.275	0.06
520.623	0.07
520.971	0.07
521.319	0.07
521.666	0.07
522.014	0.07
522.362	0.07
522.709	0.07
523.057	0.07
523.404	0.07
523.752	0.07
524.099	0.07
524.446	0.07
524.794	0.07
525.141	0.07
525.488	0.07
525.835	0.08
526.182	0.07
526.529	0.08
526.876	0.07
527.223	0.07
527.57	0.07
527.917	0.07
528.264	0.08
528.611	0.07
528.958	0.08
529.304	0.08
529.651	0.08
529.998	0.08
530.344	0.07
530.691	0.08
531.037	0.07
531.384	0.08
531.73	0.07
532.076	0.08
532.423	0.09
532.769	0.08
533.115	0.08
533.461	0.08
533.807	0.08
534.154	0.08
534.5	0.08
534.846	0.08
535.192	0.08
535.537	0.08
535.883	0.08
536.229	0.08
536.575	0.08
536.921	0.08
537.266	0.08
537.612	0.08
537.957	0.09
538.303	0.09
538.649	0.09
538.994	0.08
539.339	0.09
539.685	0.08
540.03	0.09
540.375	0.09
540.721	0.09
541.066	0.09
541.411	0.09
541.756	0.1
542.101	0.09
542.446	0.09
542.791	0.09
543.136	0.09
543.481	0.1
543.825	0.1
544.17	0.09
544.515	0.09
544.86	0.1
545.204	0.1
545.549	0.09
545.893	0.09
546.238	0.1
546.582	0.1
546.927	0.1
547.271	0.1
547.615	0.1
547.96	0.1
548.304	0.1
548.648	0.1
548.992	0.1
549.336	0.1
549.68	0.1
550.024	0.1
550.368	0.1
550.712	0.11
551.056	0.11
551.4	0.11
551.743	0.11
552.087	0.11
552.431	0.1
552.774	0.11
553.118	0.11
553.462	0.1
553.805	0.09
554.148	0.1
554.492	0.1
554.835	0.11
555.178	0.1
555.522	0.1
555.865	0.11
556.208	0.11
556.551	0.11
556.894	0.1
557.237	0.1
557.58	0.11
557.923	0.11
558.266	0.12
558.609	0.11
558.952	0.11
559.294	0.11
559.637	0.11
559.98	0.11
560.322	0.11
560.665	0.11
561.007	0.11
561.35	0.11
561.692	0.1
562.034	0.1
562.377	0.1
562.719	0.11
563.061	0.11
563.403	0.11
563.745	0.11
564.088	0.12
564.43	0.11
564.772	0.11
565.113	0.11
565.455	0.11
565.797	0.11
566.139	0.12
566.481	0.11
566.822	0.12
567.164	0.12
567.506	0.12
567.847	0.12
568.189	0.11
568.53	0.11
568.872	0.11
569.213	0.11
569.554	0.1
569.895	0.11
570.237	0.11
570.578	0.11
570.919	0.1
571.26	0.11
571.601	0.11
571.942	0.11
572.283	0.11
572.624	0.11
572.965	0.1
573.306	0.1
573.646	0.1
573.987	0.11
574.328	0.11
574.668	0.11
575.009	0.1
575.349	0.1
575.69	0.1
576.03	0.11
576.37	0.1
576.711	0.1
577.051	0.11
577.391	0.11
577.731	0.11
578.072	0.11
578.412	0.1
578.752	0.11
579.092	0.1
579.431	0.09
579.771	0.09
580.111	0.09
580.451	0.11
580.791	0.12
581.13	0.11
581.47	0.11
581.81	0.11
582.149	0.11
582.489	0.11
582.828	0.08
583.167	0.08
583.507	0.07
583.846	0.06
584.185	0.08
584.525	0.1
584.864	0.11
585.203	0.13
585.542	0.12
585.881	0.12
586.22	0.1
586.559	0.09
586.898	0.09
587.236	0.09
587.575	0.11
587.914	0.11
588.252	0.12
588.591	0.12
588.93	0.11
589.268	0.11
589.607	0.11
589.945	0.11
590.283	0.12
590.622	0.12
590.96	0.13
591.298	0.13
591.636	0.12
591.974	0.12
592.313	0.13
592.651	0.13
592.989	0.13
593.326	0.12
593.664	0.12
594.002	0.12
594.34	0.11
594.678	0.1
595.015	0.1
595.353	0.12
595.691	0.13
596.028	0.13
596.366	0.14
596.703	0.13
597.04	0.12
597.378	0.13
597.715	0.14
598.052	0.14
598.389	0.14
598.726	0.13
599.064	0.12
599.401	0.12
599.738	0.13
600.074	0.13
600.411	0.12
600.748	0.11
601.085	0.12
601.422	0.12
601.758	0.12
602.095	0.12
602.432	0.13
602.768	0.14
603.105	0.14
603.441	0.14
603.777	0.14
604.114	0.14
604.45	0.14
604.786	0.13
605.122	0.13
605.459	0.12
605.795	0.13
606.131	0.13
606.467	0.13
606.803	0.13
607.139	0.13
607.474	0.12
607.81	0.13
608.146	0.13
608.482	0.13
608.817	0.13
609.153	0.12
609.488	0.12
609.824	0.13
610.159	0.13
610.495	0.14
610.83	0.14
611.165	0.14
611.5	0.13
611.836	0.13
612.171	0.13
612.506	0.13
612.841	0.13
613.176	0.13
613.511	0.13
613.845	0.13
614.18	0.13
614.515	0.13
614.85	0.12
615.184	0.13
615.519	0.12
615.854	0.12
616.188	0.11
616.523	0.12
616.857	0.12
617.191	0.12
617.526	0.13
617.86	0.13
618.194	0.13
618.528	0.13
618.862	0.13
619.196	0.13
619.53	0.13
619.864	0.12
620.198	0.12
620.532	0.12
620.866	0.12
621.2	0.12
621.533	0.12
621.867	0.12
622.201	0.12
622.534	0.13
622.868	0.13
623.201	0.12
623.534	0.11
623.868	0.11
624.201	0.11
624.534	0.12
624.868	0.12
625.201	0.12
625.534	0.12
625.867	0.12
626.2	0.11
626.533	0.12
626.865	0.12
627.198	0.12
627.531	0.12
627.864	0.11
628.196	0.11
628.529	0.11
628.862	0.11
629.194	0.11
629.527	0.11
629.859	0.11
630.191	0.11
630.524	0.11
630.856	0.11
631.188	0.1
631.52	0.11
631.852	0.11
632.184	0.11
632.516	0.11
632.848	0.11
633.18	0.11
633.512	0.11
633.844	0.1
634.175	0.1
634.507	0.1
634.839	0.1
635.17	0.1
635.502	0.1
635.833	0.09
636.165	0.09
636.496	0.1
636.827	0.09
637.159	0.09
637.49	0.09
637.821	0.09
638.152	0.09
638.483	0.09
638.814	0.09
639.145	0.09
639.476	0.09
639.807	0.09
640.137	0.09
640.468	0.09
640.799	0.08
641.129	0.09
641.46	0.09
641.791	0.09
642.121	0.08
642.451	0.08
642.782	0.08
643.112	0.09
643.442	0.08
643.773	0.08
644.103	0.08
644.433	0.08
644.763	0.08
645.093	0.08
645.423	0.08
645.753	0.08
646.082	0.08
646.412	0.08
646.742	0.08
647.072	0.08
647.401	0.08
647.731	0.08
648.06	0.08
648.39	0.08
648.719	0.07
649.048	0.07
649.378	0.08
649.707	0.07
650.036	0.07
650.365	0.07
650.694	0.07
651.023	0.07
651.352	0.07
651.681	0.07
652.01	0.08
652.339	0.08
652.668	0.07
652.996	0.07
653.325	0.07
653.654	0.07
653.982	0.08
654.311	0.07
654.639	0.07
654.967	0.07
655.296	0.07
655.624	0.08
655.952	0.07
656.28	0.08
656.609	0.07
656.937	0.06
657.265	-0
657.593	-0.06
657.92	0
658.248	0
658.576	0
658.904	0
659.231	0.05
659.559	0.1
659.887	0.12
660.214	0.1
660.542	0.09
660.869	0.08
661.196	0.08
661.524	0.07
661.851	0.07
662.178	0.07
662.505	0.07
662.832	0.07
663.159	0.07
663.486	0.07
663.813	0.07
664.14	0.07
664.467	0.07
664.794	0.07
665.12	0.07
665.447	0.07
665.774	0.07
666.1	0.07
666.427	0.07
666.753	0.07
667.079	0.07
667.406	0.07
667.732	0.07
668.058	0.07
668.384	0.07
668.71	0.07
669.036	0.07
669.362	0.07
669.688	0.07
670.014	0.07
670.34	0.06
670.666	0.06
670.991	0.06
671.317	0.06
671.643	0.06
671.968	0.06
672.294	0.06
672.619	0.06
672.945	0.06
673.27	0.05
673.595	0.05
673.92	0.05
674.246	0.06
674.571	0.07
674.896	0.07
675.221	0.07
675.546	0.07
675.87	0.06
676.195	0.06
676.52	0.06
676.845	0.06
677.169	0.06
677.494	0.06
677.819	0.06
678.143	0.06
678.468	0.06
678.792	0.06
679.116	0.06
679.44	0.06
679.765	0.05
680.089	0.05
680.413	0.05
680.737	0.06
681.061	0.05
681.385	0.05
681.709	0.05
682.033	0.06
682.356	0.06
682.68	0.06
683.004	0.05
683.327	0.05
683.651	0.04
683.974	0.05
684.298	0.05
684.621	0.05
684.944	0.05
685.268	0.05
685.591	0.05
685.914	0.04
686.237	0.04
686.56	0.04
686.883	0.04
687.206	0.04
687.529	0.04
687.852	0.05
688.175	0.05
688.497	0.05
688.82	0.05
689.142	0.04
689.465	0.04
689.787	0.04
690.11	0.05
690.432	0.04
690.755	0.04
691.077	0.04
691.399	0.03
691.721	0.04
692.043	0.04
692.365	0.04
692.687	0.04
693.009	0.03
693.331	0.03
693.653	0.03
693.974	0.04
694.296	0.04
694.618	0.04
694.939	0.04
695.261	0.03
695.582	0.04
695.904	0.04
696.225	0.04
696.546	0.04
696.868	0.03
697.189	0.03
697.51	0.03
697.831	0.03
698.152	0.04
698.473	0.02
698.794	0.02
699.114	0.02
699.435	0.03
699.756	0.04
700.077	0.04
700.397	0.04
700.718	0.03
701.038	0.03
701.359	0.03
701.679	0.03
701.999	0.03
702.32	0.03
702.64	0.03
702.96	0.03
703.28	0.03
703.6	0.02
703.92	0.02
704.24	0.02
704.56	0.02
704.879	0.03
705.199	0.03
705.519	0.03
705.838	0.03
706.158	0.03
706.478	0.02
706.797	0.03
707.116	0.02
707.436	0.03
707.755	0.02
708.074	0.02
708.393	0.01
708.712	0.02
709.031	0.01
709.35	0.02
709.669	0.02
709.988	0.03
710.307	0.03
710.626	0.03
710.944	0.03
711.263	0.03
711.582	0.03
711.9	0.03
712.219	0.03
712.537	0.02
712.855	0.02
713.174	0.03
713.492	0.03
713.81	0.03
714.128	0.02
714.446	0.02
714.764	0.02
715.082	0.02
715.4	0.03
715.718	0.03
716.035	0.03
716.353	0.03
716.671	0.03
716.988	0.03
717.306	0.03
717.623	0.03
717.941	0.03
718.258	0.03
718.575	0.03
718.893	0.03
719.21	0.03
719.527	0.02
719.844	0.02
720.161	0.03
720.478	0.02
720.795	0.03
721.112	0.03
721.428	0.03
721.745	0.03
722.062	0.03
722.378	0.03
722.695	0.03
723.011	0.03
723.328	0.03
723.644	0.03
723.96	0.03
724.276	0.03
724.593	0.03
724.909	0.03
725.225	0.03
725.541	0.03
725.857	0.03
726.173	0.03
726.488	0.03
726.804	0.02
727.12	0.02
727.435	0.03
727.751	0.03
728.067	0.03
728.382	0.03
728.697	0.03
729.013	0.03
729.328	0.03
729.643	0.02
729.958	0.03
730.273	0.03
730.588	0.03
730.903	0.03
731.218	0.03
731.533	0.03
731.848	0.03
732.163	0.02
732.477	0.02
732.792	0.03
733.107	0.02
733.421	0.03
733.736	0.03
734.05	0.03
734.364	0.03
734.678	0.03
734.993	0.03
735.307	0.03
735.621	0.03
735.935	0.03
736.249	0.03
736.563	0.03
736.877	0.03
737.19	0.03
737.504	0.02
737.818	0.03
738.131	0.03
738.445	0.03
738.758	0.03
739.072	0.03
739.385	0.03
739.698	0.03
740.012	0.03
740.325	0.03
740.638	0.02
740.951	0.02
741.264	0.03
741.577	0.03
741.89	0.04
742.203	0.03
742.515	0.03
742.828	0.03
743.141	0.03
743.453	0.03
743.766	0.02
744.078	0.02
744.391	0.03
744.703	0.03
745.015	0.03
745.327	0.03
745.639	0.03
745.952	0.03
746.264	0.03
746.575	0.02
746.887	0.02
747.199	0.02
747.511	0.02
747.823	0.02
748.134	0.02
748.446	0.02
748.757	0.02
749.069	0.02
749.38	0.02
749.692	0.02
750.003	0.02
750.314	0.02
750.625	0.02
750.936	0.02
751.248	0.02
751.559	0.02
751.869	0.02
752.18	0.02
752.491	0.02
752.802	0.02
753.112	0.02
753.423	0.02
753.734	0.02
754.044	0.02
754.355	0.02
754.665	0.02
754.975	0.02
755.285	0.02
755.596	0.02
755.906	0.02
756.216	0.02
756.526	0.02
756.836	0.02
757.146	0.02
757.455	0.02
757.765	0.01
758.075	0.01
758.385	0.01
758.694	0.01
759.004	0.01
759.313	0.02
759.622	0.02
759.932	0.03
760.241	0.03
760.55	0.02
760.859	0.02
761.168	0.02
761.477	0.02
761.786	0.02
762.095	0.02
762.404	0.02
762.713	0.02
763.021	0.02
763.33	0.02
763.639	0.02
763.947	0.02
764.256	0.02
764.564	0.02
764.872	0.02
765.181	0.02
765.489	0.01
765.797	0.01
766.105	0.01
766.413	0.01
766.721	0.02
767.029	0.02
767.337	0.02
767.644	0.02
767.952	0.02
768.26	0.02
768.567	0.02
768.875	0.02
769.182	0.01
769.49	0.01
769.797	0.01
770.104	0.01
770.411	0.01
770.718	0.02
771.026	0.02
771.333	0.02
771.639	0.02
771.946	0.02
772.253	0.01
772.56	0.02
772.867	0.02
773.173	0.02
773.48	0.02
773.786	0.02
774.093	0.02
774.399	0.02
774.705	0.02
775.012	0.01
775.318	0.02
775.624	0.02
775.93	0.01
776.236	0.01
776.542	0.01
776.848	0.01
777.154	0.01
777.459	0.01
777.765	0.02
778.071	0.02
778.376	0.02
778.682	0.01
778.987	0.01
779.292	0.01
779.598	0.01
779.903	0.01
780.208	0.01
780.513	0.01
780.818	0.01
781.123	0.02
781.428	0.01
781.733	0.01
782.038	0.01
782.343	0.01
782.647	0
782.952	0.01
783.256	0.01
783.561	0.01
783.865	0.01
784.17	0.01
784.474	0.01
784.778	0.01
785.082	0.02
785.386	0.02
785.69	0.02
785.994	0.02
786.298	0.01
786.602	0.01
786.906	0.01
787.209	0.01
787.513	0.01
787.817	0.01
788.12	0.02
788.424	0.02
788.727	0.01
789.03	0.01
789.333	0.01
789.637	0
789.94	0.01
790.243	0.01
790.546	0.01
790.849	0.01
791.152	0.01
791.454	0.01
791.757	0.01
792.06	0.01
792.362	0.01
792.665	0.01
792.967	0.01
793.27	0.01
793.572	0.01
793.874	0.01
794.177	0.01
794.479	0.01
794.781	0.01
795.083	0.01
795.385	0.01
795.687	0.01
795.989	0.01
796.29	0.02
796.592	0.02
796.894	0.02
797.195	0.02
797.497	0.02
797.798	0.02
798.1	0.02
798.401	0.02
798.702	0.01
799.003	0.02
799.304	0.02
799.605	0.02
799.906	0.01
800.207	0.01
800.508	0.01
800.809	0.02
801.11	0.01
801.41	0.02
801.711	0.02
802.011	0.01
802.312	0.01
802.612	0.01
802.913	0.01
803.213	0.02
803.513	0.02
803.813	0.01
804.113	0.01
804.413	0.01
804.713	0.01
805.013	0.01
805.313	0.01
805.613	0.01
805.912	0.01
806.212	0.01
806.511	0.01
806.811	0
807.11	0
807.41	0.01
807.709	0
808.008	0.01
808.307	0.01
808.606	0.01
808.905	0.02
809.204	0.01
809.503	0.01
809.802	0.02
810.101	0.02
810.399	0.01
810.698	0.02
810.997	0.02
811.295	0.01
811.593	0.01
811.892	0.01
812.19	0.01
812.488	0.01
812.786	0.01
813.084	0.01
813.383	0.01
813.68	0.02
813.978	0.01
814.276	0.02
814.574	0.01
814.872	0.01
815.169	0.01
815.467	0
815.764	0.01
816.062	0.02
816.359	0.02
816.656	0.02
816.954	0.01
817.251	0.01
817.548	0
817.845	0.01
818.142	0.01
818.439	0.01
818.735	0.01
819.032	0.01
819.329	0.01
819.626	0.01
819.922	0.01
820.219	0.02
820.515	0.02
820.811	0.02
821.108	0.01
821.404	0.01
821.7	0
821.996	-0
822.292	0.01
822.588	0
822.884	0.01
823.18	0.01
823.475	0.01
823.771	0.01
824.067	0.01
824.362	0.01
824.658	0.01
824.953	0.01
825.249	0.01
825.544	0.01
825.839	0.01
826.134	0.01
826.429	0
826.724	0.01
827.019	0
827.314	0.01
827.609	0.01
827.904	0.01
828.198	-0
828.493	-0
828.787	0
829.082	0
829.376	0.01
829.671	0.01
829.965	0.01
830.259	0.02
830.553	0.02
830.847	0.01
831.141	0.01
831.435	0.01
831.729	0.01
832.023	0.01
832.317	0.01
832.61	0.01
832.904	0.01
833.197	0.01
833.491	0.01
833.784	0
834.077	0.01
834.371	0.01
834.664	0
834.957	0
835.25	0.01
835.543	0
835.836	0
836.129	0.01
836.421	0.01
836.714	0.01
837.007	0
837.299	0.02
837.592	0.01
837.884	0.01
838.177	0.01
838.469	0
838.761	0.01
839.053	0
839.345	0.01
839.637	0.01
839.929	0
840.221	0.01
840.513	-0.01
840.805	0
841.096	0.01
841.388	0.01
841.68	0.01
841.971	0
842.262	0.01
842.554	-0
842.845	0.01
843.136	0
843.427	0
843.718	0.01
844.009	0.01
844.3	0.02
844.591	0.02
844.882	0.02
845.173	0
845.463	0
845.754	0.01
846.044	0
846.335	-0
846.625	0.01
846.915	-0.01
847.206	0
847.496	0.01
847.786	0
848.076	-0.01
848.366	-0.02
848.656	0
848.945	-0.01
849.235	-0
849.525	-0
849.814	-0.01
850.104	0
850.393	-0.02
850.683	0
850.972	0
851.261	0.01
851.551	-0.01
851.84	-0.01
852.129	-0.01
852.418	-0
852.707	-0.01
852.995	0.01
853.284	-0.01
853.573	0
853.862	-0.02
854.15	-0.01
854.439	0
854.727	0.01
855.015	0.02
855.304	0.02
855.592	0.01
855.88	-0.01
856.168	0.02
856.456	0
856.744	0.01
857.032	0
857.32	-0
857.607	0.02
857.895	-0.02
858.183	-0.01
858.47	0.02
858.757	-0.02
859.045	-0
859.332	-0.03
859.619	0
859.907	0.01
860.194	0.02
860.481	0.02
860.768	-0.01
861.054	-0
861.341	-0.02
861.628	0
861.915	0.01
862.201	-0.01
862.488	-0
862.774	-0
863.061	-0
863.347	0.03
863.633	0.02
863.919	0.03
864.205	0.02
864.491	0.01
864.777	-0.01
865.063	0.02
865.349	0.01
865.635	0
865.92	-0.01
866.206	-0.03
866.492	-0.01
866.777	-0.02
867.062	-0.02
867.348	-0.01
867.633	0.03
867.918	0.05
868.203	-0.01
868.488	-0.04
868.773	0.02
869.058	0
869.343	0.02
869.628	-0.06
869.912	-0.01
870.197	-0.03
870.482	-0.01
870.766	-0.02
871.05	-0.07
871.335	-0.02
871.619	0
871.903	-0.08
872.187	-0.03
872.471	0
872.755	-0.03
873.039	-0.02
873.323	-0.04
873.607	0.02
873.89	-0.06
874.174	-0.03
874.458	-0.05
874.741	-0.1
875.024	-0.05
875.308	-0.09
875.591	-0.07
875.874	-0.11
876.157	-0.02
876.44	-0.09
876.723	-0.05
877.006	-0.1
877.289	-0.04
877.572	-0.06
877.854	-0.05
878.137	-0.11
878.42	-0.21
878.702	-0.09
878.984	-0.07
879.267	-0.1
879.549	-0.03
879.831	0.02
880.113	0.05
880.395	-0.06
880.677	-0.08
880.959	-0.09
