Data from Rubpy_EV_EDTA_Flow_Absorbance_15-09-32-504.txt Node
Date: Fri Jul 03 15:09:32 BST 2026
User: fpm-admin
Spectrometer: OFX00224
Trigger mode: 0
Integration Time (sec): 1.200000E-2
Scans to average: 3
Nonlinearity correction enabled: false
Boxcar width: 0
Storing dark spectrum: false
XAxis mode: Wavelengths
Number of Pixels in Spectrum: 2136
>>>>>Begin Spectral Data<<<<<
154.91	-0.99
155.289	-0
155.669	-0.07
156.048	-0
156.428	-0.04
156.807	-0
157.186	-0
157.566	-0
157.945	-0.54
158.325	-0.41
158.704	-0
159.083	0.74
159.462	-0
159.842	-0.43
160.221	-0
160.6	-0
160.979	-0
161.359	0.35
161.738	-0
162.117	0.17
162.496	-0
162.875	-1.08
163.254	-0
163.633	-0
164.012	-0
164.391	-1.13
164.77	-0.13
165.149	1.06
165.528	-0
165.907	-0.39
166.286	0.37
166.665	-0
167.044	-0
167.423	-0
167.802	0.26
168.181	-0
168.559	-0
168.938	-0
169.317	-0
169.696	0.26
170.074	-0
170.453	0.51
170.832	-0
171.21	-0
171.589	-0.49
171.968	0.32
172.346	-0
172.725	1.07
173.103	-0.8
173.482	1.38
173.861	-0
174.239	0.02
174.617	-0
174.996	-0
175.374	0.51
175.753	-0
176.131	-0
176.51	0.31
176.888	-0
177.266	-0.8
177.645	0.13
178.023	-0
178.401	-0.13
178.779	0.03
179.158	-0
179.536	-0
179.914	-0
180.292	-0
180.67	-0.37
181.048	-0.9
181.427	-0
181.805	-0
182.183	-0
182.561	0.39
182.939	-0.07
183.317	-0
183.695	0.09
184.073	-0
184.451	-0
184.829	-0
185.206	-0
185.584	-0.45
185.962	0.35
186.34	0.05
186.718	0.22
187.096	0.6
187.473	-0
187.851	-0.38
188.229	-0
188.607	0.01
188.984	-0.05
189.362	-0.03
189.74	0.02
190.117	0.01
190.495	-0.02
190.872	0.03
191.25	0.08
191.627	0.15
192.005	-0.05
192.382	0.04
192.76	-0
193.137	-0.01
193.515	0.03
193.892	0.12
194.269	-0.03
194.647	-0.04
195.024	-0.01
195.401	0.07
195.779	0.1
196.156	0.07
196.533	-0.09
196.91	-0.11
197.288	0.07
197.665	0.08
198.042	0.08
198.419	-0.02
198.796	-0.02
199.173	0.03
199.55	-0.05
199.927	0.05
200.304	-0.09
200.681	-0.09
201.058	-0.05
201.435	-0.01
201.812	-0.08
202.189	0.04
202.566	-0.03
202.943	-0.1
203.32	-0.01
203.697	-0.02
204.073	0.02
204.45	-0.07
204.827	0.01
205.204	-0.07
205.58	0.01
205.957	-0
206.334	-0.05
206.71	-0.04
207.087	-0.01
207.464	-0.01
207.84	0.03
208.217	0.02
208.593	-0.02
208.97	-0
209.346	-0.02
209.723	-0.05
210.099	-0.01
210.476	0.08
210.852	-0.11
211.228	0.05
211.605	-0.08
211.981	0.02
212.357	0.05
212.733	0
213.11	-0.02
213.486	-0.04
213.862	-0.02
214.238	-0
214.614	-0.01
214.991	-0.04
215.367	0.03
215.743	0.05
216.119	-0.07
216.495	-0
216.871	-0.06
217.247	0.04
217.623	0.01
217.999	0.04
218.375	0.01
218.751	0.03
219.127	-0.06
219.502	-0.05
219.878	-0.03
220.254	0.01
220.63	-0.05
221.006	-0.01
221.381	-0.09
221.757	-0.09
222.133	0.09
222.508	-0.03
222.884	0.02
223.26	-0.05
223.635	-0
224.011	0.01
224.386	0.04
224.762	-0.01
225.137	-0.01
225.513	0.02
225.888	-0.05
226.264	-0.04
226.639	0.05
227.014	0.08
227.39	0.05
227.765	-0.03
228.14	-0.06
228.516	-0.06
228.891	0.09
229.266	-0.05
229.641	-0.06
230.017	-0
230.392	-0.04
230.767	-0.11
231.142	-0.06
231.517	-0.06
231.892	0.01
232.267	0.04
232.642	0.01
233.017	-0.02
233.392	0.05
233.767	-0.06
234.142	-0.05
234.517	0.03
234.892	-0.05
235.267	-0.16
235.641	-0.04
236.016	-0.09
236.391	-0.05
236.766	0.09
237.14	0.05
237.515	0.03
237.89	-0.01
238.264	0.13
238.639	0.12
239.014	-0.05
239.388	-0.01
239.763	-0.08
240.137	0.01
240.512	-0.04
240.886	-0.07
241.261	-0.01
241.635	-0.04
242.009	0.02
242.384	0.01
242.758	0.1
243.132	-0.03
243.507	0.03
243.881	0.05
244.255	0.06
244.629	-0.05
245.004	0.05
245.378	-0.06
245.752	-0.07
246.126	-0.06
246.5	-0.02
246.874	0.01
247.248	-0.08
247.622	0.06
247.996	0.08
248.37	-0.01
248.744	0
249.118	0.06
249.492	0.1
249.866	-0.04
250.24	-0.05
250.613	0.05
250.987	0.02
251.361	0.07
251.735	-0.03
252.108	0.04
252.482	-0.02
252.856	-0.01
253.229	-0.05
253.603	-0.08
253.977	-0.02
254.35	0.09
254.724	-0.01
255.097	-0.03
255.471	-0.03
255.844	-0.04
256.218	0.04
256.591	0.04
256.964	-0.01
257.338	0.05
257.711	-0.03
258.084	0.01
258.458	-0.08
258.831	-0.13
259.204	0.03
259.577	-0
259.95	0.03
260.323	-0.01
260.697	-0.04
261.07	-0.01
261.443	0
261.816	-0.02
262.189	-0.05
262.562	0.01
262.935	-0.05
263.308	0.04
263.68	0
264.053	0.02
264.426	0.03
264.799	-0.01
265.172	-0.04
265.545	-0.06
265.917	-0.1
266.29	0
266.663	0.06
267.035	-0.03
267.408	-0.08
267.781	0.02
268.153	0.07
268.526	0.06
268.898	0.03
269.271	0.06
269.643	-0.03
270.016	-0
270.388	0.01
270.76	-0
271.133	0.03
271.505	0.02
271.877	0.11
272.25	0.02
272.622	-0.06
272.994	0.07
273.366	-0
273.739	0.08
274.111	0.05
274.483	0.06
274.855	0.05
275.227	0.02
275.599	-0.01
275.971	0.23
276.343	0.06
276.715	0.11
277.087	-0.03
277.459	0.11
277.831	-0
278.203	-0.02
278.574	0
278.946	-0.04
279.318	0.08
279.69	-0.04
280.061	0.02
280.433	0.06
280.805	0.04
281.176	-0.01
281.548	0.1
281.92	0.02
282.291	0
282.663	-0.01
283.034	-0.01
283.406	-0.05
283.777	0.05
284.148	0.03
284.52	0.14
284.891	0.03
285.262	-0.03
285.634	0.02
286.005	-0.03
286.376	-0.02
286.747	-0.01
287.119	-0.02
287.49	-0.01
287.861	0.04
288.232	0.02
288.603	0.08
288.974	0.05
289.345	-0.02
289.716	-0.02
290.087	0.01
290.458	0.01
290.829	0.05
291.2	-0.05
291.571	0.02
291.941	0.06
292.312	-0.03
292.683	0.01
293.054	0.01
293.424	-0.05
293.795	0.01
294.166	-0.04
294.536	-0.01
294.907	0.03
295.277	-0.02
295.648	0.02
296.018	0.01
296.389	-0.04
296.759	0.01
297.13	0.05
297.5	-0.02
297.871	0.04
298.241	0.04
298.611	-0.01
298.981	0.08
299.352	-0.04
299.722	-0.05
300.092	0.01
300.462	-0.05
300.832	-0.04
301.202	-0.01
301.573	-0.04
301.943	-0.06
302.313	-0.01
302.683	-0.07
303.053	0.02
303.422	0.05
303.792	0.01
304.162	-0.04
304.532	-0.03
304.902	-0.07
305.272	0.03
305.641	0.07
306.011	-0.04
306.381	-0.01
306.75	0.01
307.12	-0
307.49	-0.01
307.859	-0.05
308.229	0
308.598	0.02
308.968	0.01
309.337	0.02
309.707	0.02
310.076	0.03
310.445	-0
310.815	0.04
311.184	0.05
311.553	0.05
311.923	0.05
312.292	-0.03
312.661	0
313.03	-0.02
313.399	0.04
313.768	0.01
314.137	0.01
314.506	-0.02
314.875	0.04
315.244	0.04
315.613	0.02
315.982	0.03
316.351	0.01
316.72	0.01
317.089	0.02
317.458	0.02
317.826	0.01
318.195	-0
318.564	0.03
318.933	0.04
319.301	0.04
319.67	0.01
320.038	0.04
320.407	0.03
320.775	0.03
321.144	0.04
321.512	0.02
321.881	0.03
322.249	0.03
322.618	0.03
322.986	0.03
323.354	0.02
323.723	0.01
324.091	0.03
324.459	0.02
324.827	0.03
325.195	0.03
325.564	0.03
325.932	0.01
326.3	0.04
326.668	0.03
327.036	0.03
327.404	0.01
327.772	0.01
328.14	0
328.508	0.01
328.875	0.01
329.243	0.03
329.611	0.02
329.979	0.01
330.346	0.02
330.714	0.02
331.082	0.01
331.449	0.02
331.817	0.01
332.185	0.01
332.552	0.03
332.92	0.01
333.287	0.01
333.655	0.03
334.022	0.02
334.389	0.01
334.757	0.01
335.124	0.01
335.491	0.01
335.859	0.02
336.226	0.02
336.593	0.01
336.96	0.02
337.327	0.02
337.695	0.02
338.062	0.01
338.429	0.02
338.796	0.02
339.163	0.01
339.53	0.02
339.897	0.03
340.263	0.02
340.63	0.01
340.997	0.03
341.364	0.02
341.731	0.02
342.097	0.02
342.464	0.02
342.831	0.02
343.197	0.02
343.564	0.02
343.931	0.03
344.297	0.03
344.664	0.02
345.03	0.03
345.396	0.02
345.763	0.02
346.129	0.03
346.496	0.03
346.862	0.02
347.228	0.02
347.594	0.03
347.961	0.02
348.327	0.02
348.693	0.03
349.059	0.02
349.425	0.02
349.791	0.02
350.157	0.03
350.523	0.03
350.889	0.03
351.255	0.02
351.621	0.03
351.987	0.03
352.353	0.03
352.719	0.03
353.084	0.03
353.45	0.03
353.816	0.03
354.181	0.03
354.547	0.02
354.913	0.04
355.278	0.03
355.644	0.03
356.009	0.03
356.375	0.04
356.74	0.03
357.106	0.02
357.471	0.03
357.836	0.03
358.202	0.03
358.567	0.03
358.932	0.04
359.297	0.03
359.663	0.03
360.028	0.03
360.393	0.03
360.758	0.03
361.123	0.03
361.488	0.03
361.853	0.03
362.218	0.04
362.583	0.03
362.948	0.03
363.312	0.03
363.677	0.03
364.042	0.03
364.407	0.03
364.772	0.04
365.136	0.03
365.501	0.03
365.865	0.03
366.23	0.03
366.595	0.03
366.959	0.04
367.324	0.03
367.688	0.03
368.052	0.03
368.417	0.03
368.781	0.03
369.145	0.03
369.51	0.04
369.874	0.03
370.238	0.04
370.602	0.04
370.967	0.03
371.331	0.03
371.695	0.04
372.059	0.03
372.423	0.04
372.787	0.03
373.151	0.03
373.515	0.03
373.878	0.03
374.242	0.03
374.606	0.04
374.97	0.03
375.334	0.04
375.697	0.03
376.061	0.04
376.425	0.03
376.788	0.04
377.152	0.03
377.515	0.04
377.879	0.03
378.242	0.03
378.606	0.04
378.969	0.04
379.333	0.03
379.696	0.03
380.059	0.03
380.422	0.03
380.786	0.03
381.149	0.04
381.512	0.04
381.875	0.04
382.238	0.04
382.601	0.04
382.964	0.05
383.327	0.05
383.69	0.05
384.053	0.04
384.416	0.05
384.779	0.05
385.142	0.05
385.504	0.05
385.867	0.05
386.23	0.05
386.593	0.05
386.955	0.05
387.318	0.05
387.68	0.06
388.043	0.06
388.405	0.05
388.768	0.06
389.13	0.05
389.493	0.05
389.855	0.05
390.217	0.05
390.58	0.05
390.942	0.06
391.304	0.06
391.666	0.06
392.028	0.05
392.391	0.05
392.753	0.06
393.115	0.06
393.477	0.05
393.839	0.06
394.201	0.06
394.563	0.06
394.924	0.07
395.286	0.07
395.648	0.08
396.01	0.08
396.371	0.08
396.733	0.08
397.095	0.09
397.456	0.08
397.818	0.09
398.18	0.08
398.541	0.08
398.903	0.08
399.264	0.07
399.625	0.07
399.987	0.07
400.348	0.06
400.709	0.07
401.071	0.07
401.432	0.07
401.793	0.07
402.154	0.06
402.515	0.06
402.876	0.06
403.238	0.06
403.599	0.05
403.96	0.05
404.32	0.05
404.681	0.05
405.042	0.05
405.403	0.05
405.764	0.05
406.125	0.05
406.485	0.04
406.846	0.04
407.207	0.04
407.567	0.05
407.928	0.04
408.288	0.06
408.649	0.04
409.009	0.05
409.37	0.05
409.73	0.04
410.091	0.04
410.451	0.04
410.811	0.04
411.171	0.04
411.532	0.04
411.892	0.04
412.252	0.04
412.612	0.03
412.972	0.05
413.332	0.05
413.692	0.04
414.052	0.04
414.412	0.04
414.772	0.04
415.132	0.05
415.492	0.05
415.851	0.04
416.211	0.04
416.571	0.05
416.931	0.05
417.29	0.05
417.65	0.04
418.009	0.05
418.369	0.04
418.728	0.04
419.088	0.05
419.447	0.03
419.807	0.04
420.166	0.05
420.525	0.05
420.884	0.05
421.244	0.04
421.603	0.05
421.962	0.03
422.321	0.06
422.68	0.04
423.039	0.03
423.398	0.02
423.757	0.02
424.116	0.05
424.475	0.05
424.834	0.05
425.193	0.05
425.551	0.03
425.91	0.05
426.269	0.03
426.628	0.04
426.986	0.05
427.345	0.03
427.703	0.05
428.062	0.05
428.42	0.06
428.779	0.03
429.137	0.04
429.496	0.03
429.854	0.06
430.212	0.04
430.57	0.04
430.929	0.02
431.287	0.04
431.645	0.03
432.003	0.04
432.361	0.03
432.719	0.04
433.077	0.05
433.435	0.05
433.793	0.04
434.151	0.04
434.509	0.03
434.866	0.05
435.224	0.04
435.582	0.04
435.94	0.04
436.297	0.03
436.655	0.03
437.012	0.04
437.37	0.03
437.727	0.03
438.085	0.04
438.442	0.02
438.8	0.04
439.157	0.05
439.514	0.06
439.872	0.02
440.229	0.03
440.586	0.04
440.943	0.03
441.3	0.05
441.657	0.04
442.014	0.03
442.371	0.04
442.728	0.02
443.085	0.05
443.442	0.03
443.799	0.05
444.156	0.02
444.513	0.03
444.869	0.05
445.226	0.02
445.583	0.04
445.939	0.03
446.296	0.03
446.652	0.04
447.009	0.05
447.365	0.04
447.722	0.05
448.078	0.04
448.434	0.05
448.791	0.04
449.147	0.03
449.503	0.05
449.859	0.04
450.215	0.03
450.571	0.03
450.928	0.05
451.284	0.03
451.64	0.04
451.995	0.04
452.351	0.02
452.707	0.04
453.063	0.04
453.419	0.02
453.775	0.05
454.13	0.03
454.486	0.03
454.842	0.03
455.197	0.05
455.553	0.05
455.908	0.03
456.264	0.04
456.619	0.06
456.975	0.03
457.33	0.04
457.685	0.02
458.04	0.03
458.396	0.04
458.751	0.04
459.106	-0.01
459.461	0.01
459.816	0.02
460.171	0.03
460.526	0.05
460.881	0.04
461.236	0.04
461.591	0.03
461.946	0.02
462.301	0.03
462.655	0.02
463.01	0.04
463.365	0.04
463.719	0.03
464.074	0.03
464.428	0.03
464.783	0.02
465.137	0.03
465.492	0.03
465.846	0.04
466.201	0.04
466.555	0.03
466.909	0.02
467.263	0.01
467.618	0.03
467.972	0.03
468.326	0.04
468.68	0.03
469.034	0.03
469.388	0.03
469.742	0.02
470.096	0.02
470.45	0.03
470.804	0.03
471.157	0.03
471.511	0.02
471.865	0.02
472.218	0.04
472.572	0.01
472.926	0.04
473.279	0.03
473.633	0.02
473.986	0.02
474.34	0.02
474.693	0.01
475.046	0.02
475.4	0.02
475.753	0.01
476.106	0.02
476.459	0.02
476.812	0.01
477.165	0.01
477.519	0.01
477.872	0.02
478.224	0.01
478.577	0.01
478.93	0.02
479.283	0.02
479.636	0.01
479.989	0.02
480.341	0.01
480.694	0.01
481.047	0.02
481.399	0.01
481.752	0.01
482.104	0.01
482.457	0.01
482.809	0.01
483.162	0.01
483.514	0
483.866	0.01
484.219	0.01
484.571	0.02
484.923	0.02
485.275	0.01
485.627	0.01
485.979	0.01
486.331	0.01
486.683	0.01
487.035	-0
487.387	-0.02
487.739	-0
488.091	0.01
488.443	0.03
488.794	0.02
489.146	0.02
489.498	0.02
489.849	0.03
490.201	0.02
490.552	0.01
490.904	0.01
491.255	0.02
491.607	0.01
491.958	0.01
492.309	0.01
492.661	0.01
493.012	0.02
493.363	0.02
493.714	0.02
494.065	0.01
494.416	0.01
494.767	0.01
495.118	0.01
495.469	0.01
495.82	0.01
496.171	0.01
496.522	0.01
496.872	0.02
497.223	0.01
497.574	0
497.924	0
498.275	0
498.626	0.01
498.976	0.02
499.327	0.02
499.677	0.02
500.027	0.02
500.378	0.01
500.728	0.01
501.078	0.01
501.428	0.01
501.779	0.02
502.129	0.02
502.479	0.01
502.829	0.01
503.179	0
503.529	0.01
503.879	0.01
504.229	0.01
504.578	0.01
504.928	0.01
505.278	0.01
505.628	0.01
505.977	0.02
506.327	0.01
506.676	0.01
507.026	0.01
507.375	0.02
507.725	0.01
508.074	0.01
508.424	0.01
508.773	0.02
509.122	0.02
509.471	0.01
509.82	0.01
510.17	0.01
510.519	0.02
510.868	0.01
511.217	0.01
511.566	0.01
511.915	0.01
512.263	0.01
512.612	0.01
512.961	0.01
513.31	0.01
513.659	0.02
514.007	0.02
514.356	0.01
514.704	0.01
515.053	0.01
515.401	0.01
515.75	0.01
516.098	0.01
516.447	0.01
516.795	0.02
517.143	0.02
517.491	0.01
517.839	0.01
518.188	0
518.536	0.01
518.884	0.01
519.232	0.01
519.58	0.02
519.928	0.01
520.275	0.01
520.623	0.01
520.971	0.01
521.319	0.01
521.666	0.01
522.014	0.01
522.362	0.01
522.709	0.02
523.057	0.01
523.404	0.01
523.752	0.01
524.099	0.01
524.446	0.01
524.794	0.01
525.141	0.01
525.488	0.01
525.835	0.01
526.182	0.01
526.529	0.01
526.876	0.01
527.223	0.01
527.57	0.01
527.917	0.01
528.264	0.01
528.611	0.01
528.958	0.01
529.304	0.02
529.651	0.01
529.998	0.01
530.344	0.01
530.691	0.01
531.037	0.01
531.384	0.01
531.73	0.01
532.076	0.01
532.423	0.02
532.769	0.01
533.115	0.01
533.461	0.01
533.807	0.01
534.154	0.01
534.5	0.01
534.846	0.01
535.192	0.01
535.537	0.01
535.883	0.01
536.229	0.01
536.575	0.01
536.921	0.01
537.266	0.01
537.612	0.01
537.957	0.02
538.303	0.01
538.649	0.01
538.994	0.01
539.339	0.01
539.685	0.01
540.03	0.01
540.375	0.01
540.721	0.01
541.066	0.01
541.411	0.01
541.756	0.01
542.101	0.02
542.446	0.01
542.791	0.01
543.136	0.01
543.481	0.01
543.825	0.02
544.17	0.01
544.515	0.01
544.86	0.01
545.204	0.01
545.549	0.01
545.893	0.01
546.238	0.01
546.582	0.01
546.927	0.02
547.271	0.02
547.615	0.02
547.96	0.01
548.304	0.02
548.648	0.01
548.992	0.01
549.336	0.01
549.68	0.01
550.024	0.01
550.368	0.01
550.712	0.02
551.056	0.02
551.4	0.02
551.743	0.02
552.087	0.02
552.431	0.02
552.774	0.02
553.118	0.01
553.462	0.01
553.805	0.01
554.148	0.01
554.492	0.01
554.835	0.02
555.178	0.01
555.522	0.01
555.865	0.02
556.208	0.02
556.551	0.02
556.894	0.01
557.237	0.01
557.58	0.01
557.923	0.02
558.266	0.02
558.609	0.02
558.952	0.02
559.294	0.02
559.637	0.02
559.98	0.02
560.322	0.02
560.665	0.02
561.007	0.01
561.35	0.01
561.692	0.01
562.034	0.01
562.377	0.01
562.719	0.01
563.061	0.02
563.403	0.01
563.745	0.02
564.088	0.02
564.43	0.02
564.772	0.01
565.113	0.01
565.455	0.01
565.797	0.02
566.139	0.02
566.481	0.02
566.822	0.02
567.164	0.02
567.506	0.01
567.847	0.02
568.189	0.01
568.53	0.02
568.872	0.01
569.213	0.01
569.554	0.01
569.895	0.01
570.237	0.01
570.578	0.01
570.919	0.01
571.26	0.01
571.601	0
571.942	0.01
572.283	0.01
572.624	0.01
572.965	0
573.306	0
573.646	0.01
573.987	0.02
574.328	0.02
574.668	0.01
575.009	0.01
575.349	0.01
575.69	0.01
576.03	0.01
576.37	0.01
576.711	0.01
577.051	0.02
577.391	0.02
577.731	0.02
578.072	0.02
578.412	0.01
578.752	0.01
579.092	0
579.431	-0.01
579.771	-0
580.111	0.01
580.451	0.02
580.791	0.03
581.13	0.02
581.47	0.02
581.81	0.01
582.149	0.02
582.489	0.01
582.828	-0.01
583.167	-0.01
583.507	-0
583.846	0
584.185	0.01
584.525	0.02
584.864	0.03
585.203	0.03
585.542	0.03
585.881	0.02
586.22	0.01
586.559	-0
586.898	-0
587.236	0
587.575	0.02
587.914	0.02
588.252	0.02
588.591	0.02
588.93	0.01
589.268	0.01
589.607	0.02
589.945	0.02
590.283	0.02
590.622	0.03
590.96	0.03
591.298	0.03
591.636	0.02
591.974	0.02
592.313	0.02
592.651	0.02
592.989	0.02
593.326	0.01
593.664	0.01
594.002	0.01
594.34	-0
594.678	-0
595.015	0
595.353	0.01
595.691	0.02
596.028	0.03
596.366	0.03
596.703	0.02
597.04	0.02
597.378	0.02
597.715	0.03
598.052	0.03
598.389	0.03
598.726	0.02
599.064	0.01
599.401	0.01
599.738	0.02
600.074	0.01
600.411	0
600.748	0
601.085	0.01
601.422	0.01
601.758	0.02
602.095	0.01
602.432	0.02
602.768	0.03
603.105	0.03
603.441	0.03
603.777	0.03
604.114	0.03
604.45	0.03
604.786	0.02
605.122	0.02
605.459	0.01
605.795	0.01
606.131	0.02
606.467	0.03
606.803	0.02
607.139	0.02
607.474	0.01
607.81	0.02
608.146	0.01
608.482	0.02
608.817	0.02
609.153	0.01
609.488	0.02
609.824	0.02
610.159	0.03
610.495	0.03
610.83	0.03
611.165	0.03
611.5	0.02
611.836	0.02
612.171	0.02
612.506	0.02
612.841	0.03
613.176	0.02
613.511	0.02
613.845	0.02
614.18	0.02
614.515	0.02
614.85	0.02
615.184	0.02
615.519	0.02
615.854	0.02
616.188	0.01
616.523	0.01
616.857	0.01
617.191	0.02
617.526	0.03
617.86	0.03
618.194	0.03
618.528	0.03
618.862	0.03
619.196	0.03
619.53	0.02
619.864	0.02
620.198	0.02
620.532	0.02
620.866	0.02
621.2	0.02
621.533	0.02
621.867	0.02
622.201	0.01
622.534	0.03
622.868	0.03
623.201	0.02
623.534	0.01
623.868	0.01
624.201	0.01
624.534	0.02
624.868	0.02
625.201	0.02
625.534	0.02
625.867	0.02
626.2	0.02
626.533	0.02
626.865	0.02
627.198	0.02
627.531	0.02
627.864	0.02
628.196	0.02
628.529	0.02
628.862	0.01
629.194	0.02
629.527	0.02
629.859	0.02
630.191	0.03
630.524	0.02
630.856	0.02
631.188	0.01
631.52	0.01
631.852	0.02
632.184	0.02
632.516	0.02
632.848	0.02
633.18	0.02
633.512	0.02
633.844	0.02
634.175	0.02
634.507	0.02
634.839	0.02
635.17	0.02
635.502	0.02
635.833	0.01
636.165	0.01
636.496	0.02
636.827	0.01
637.159	0.02
637.49	0.01
637.821	0.01
638.152	0.01
638.483	0.01
638.814	0.01
639.145	0.02
639.476	0.02
639.807	0.02
640.137	0.01
640.468	0.02
640.799	0.01
641.129	0.01
641.46	0.01
641.791	0.01
642.121	0.01
642.451	0.01
642.782	0.01
643.112	0.01
643.442	0.01
643.773	0.01
644.103	0.01
644.433	0.01
644.763	0.01
645.093	0.01
645.423	0.01
645.753	0.01
646.082	0.01
646.412	0.01
646.742	0.01
647.072	0.01
647.401	0.01
647.731	0.01
648.06	0.01
648.39	0.02
648.719	0.01
649.048	0.01
649.378	0.01
649.707	0.01
650.036	0.01
650.365	0.01
650.694	0.01
651.023	0.01
651.352	0.01
651.681	0.01
652.01	0.02
652.339	0.02
652.668	0.01
652.996	0.01
653.325	0.01
653.654	0.01
653.982	0.02
654.311	0.01
654.639	0.01
654.967	0.01
655.296	0.01
655.624	0.02
655.952	0.01
656.28	0.02
656.609	0.01
656.937	0
657.265	-0.08
657.593	-0.1
657.92	0
658.248	0
658.576	0
658.904	0
659.231	0.01
659.559	0.06
659.887	0.07
660.214	0.05
660.542	0.03
660.869	0.02
661.196	0.01
661.524	0.01
661.851	0.02
662.178	0.01
662.505	0.02
662.832	0.01
663.159	0.01
663.486	0.01
663.813	0.01
664.14	0.01
664.467	0.01
664.794	0.01
665.12	0.01
665.447	0.01
665.774	0.01
666.1	0.01
666.427	0.01
666.753	0.01
667.079	0.02
667.406	0.01
667.732	0.01
668.058	0.01
668.384	0.02
668.71	0.01
669.036	0.01
669.362	0.01
669.688	0.01
670.014	0.01
670.34	0.01
670.666	0.01
670.991	0.01
671.317	0.01
671.643	0.01
671.968	0.01
672.294	0.01
672.619	0.01
672.945	0.01
673.27	0
673.595	0
673.92	0
674.246	0.01
674.571	0.01
674.896	0.01
675.221	0.02
675.546	0.02
675.87	0.01
676.195	0.01
676.52	0.01
676.845	0.01
677.169	0.01
677.494	0.01
677.819	0.01
678.143	0.01
678.468	0.01
678.792	0.01
679.116	0.01
679.44	0
679.765	0.01
680.089	0
680.413	0.01
680.737	0.01
681.061	0.01
681.385	0.01
681.709	0.01
682.033	0.01
682.356	0.01
682.68	0.01
683.004	0.01
683.327	0.01
683.651	0
683.974	0.01
684.298	0.01
684.621	0.01
684.944	0.01
685.268	0.01
685.591	0.01
685.914	-0
686.237	0
686.56	0
686.883	-0
687.206	0
687.529	0.01
687.852	0.01
688.175	0.01
688.497	0.02
688.82	0.01
689.142	0.01
689.465	0.01
689.787	0.01
690.11	0.01
690.432	0.01
690.755	0.01
691.077	0.01
691.399	0
691.721	0
692.043	0
692.365	0.01
692.687	0
693.009	0
693.331	-0
693.653	0
693.974	0.01
694.296	0.01
694.618	0.01
694.939	0.01
695.261	0.01
695.582	0.01
695.904	0.01
696.225	0.01
696.546	0.01
696.868	0
697.189	0
697.51	0.01
697.831	0.01
698.152	0.01
698.473	-0
698.794	-0.01
699.114	-0.01
699.435	-0
699.756	0.01
700.077	0.01
700.397	0.01
700.718	0.01
701.038	0.01
701.359	0.01
701.679	0.01
701.999	0
702.32	0.01
702.64	0.01
702.96	0.01
703.28	0
703.6	0
703.92	-0
704.24	-0
704.56	0
704.879	0.01
705.199	0.01
705.519	0.01
705.838	0
706.158	0.01
706.478	0
706.797	0
707.116	0
707.436	0
707.755	-0
708.074	-0
708.393	-0.01
708.712	-0.01
709.031	-0.01
709.35	-0
709.669	0
709.988	0.01
710.307	0.01
710.626	0.01
710.944	0.01
711.263	0.01
711.582	0.01
711.9	0.01
712.219	0
712.537	0
712.855	0
713.174	0
713.492	0.01
713.81	0.01
714.128	0
714.446	0
714.764	0
715.082	-0
715.4	0
715.718	0
716.035	0
716.353	0
716.671	0
716.988	0.01
717.306	0.01
717.623	0.01
717.941	0.01
718.258	0.01
718.575	0.01
718.893	0.01
719.21	0
719.527	-0
719.844	-0
720.161	0
720.478	0
720.795	0
721.112	0.01
721.428	0.01
721.745	0.01
722.062	0.01
722.378	0.01
722.695	0
723.011	0
723.328	0.01
723.644	0.01
723.96	0
724.276	0
724.593	0
724.909	0
725.225	0
725.541	0
725.857	0.01
726.173	0
726.488	0
726.804	-0
727.12	-0
727.435	0
727.751	0
728.067	0
728.382	0.01
728.697	0.01
729.013	0.01
729.328	0
729.643	-0
729.958	0
730.273	0
730.588	0
730.903	0
731.218	0
731.533	0
731.848	0
732.163	-0
732.477	-0.01
732.792	-0
733.107	-0
733.421	0.01
733.736	0.01
734.05	0
734.364	0
734.678	-0
734.993	0
735.307	0
735.621	0
735.935	0
736.249	0.01
736.563	0.01
736.877	0.01
737.19	0
737.504	0
737.818	0.01
738.131	0.01
738.445	0.01
738.758	0.01
739.072	0.01
739.385	0.01
739.698	0.01
740.012	0
740.325	-0
740.638	-0.01
740.951	-0
741.264	0.01
741.577	0.01
741.89	0.02
742.203	0.01
742.515	0.01
742.828	0.01
743.141	0.01
743.453	0.01
743.766	0
744.078	-0
744.391	0
744.703	0
745.015	0.01
745.327	0.01
745.639	0.01
745.952	0
746.264	0.01
746.575	0.01
746.887	0
747.199	0
747.511	-0
747.823	-0
748.134	-0
748.446	-0
748.757	0
749.069	0
749.38	0
749.692	0.01
750.003	0.01
750.314	0
750.625	-0
750.936	-0
751.248	0
751.559	-0
751.869	0
752.18	0
752.491	0.01
752.802	0.01
753.112	0
753.423	0.01
753.734	0
754.044	0.01
754.355	0
754.665	0
754.975	0
755.285	0
755.596	0.01
755.906	0.01
756.216	0.01
756.526	0.01
756.836	-0
757.146	0
757.455	0
757.765	0
758.075	-0
758.385	-0
758.694	-0.01
759.004	-0
759.313	0
759.622	0.01
759.932	0.02
760.241	0.01
760.55	0.01
760.859	0
761.168	0.01
761.477	0
761.786	0
762.095	0
762.404	0
762.713	0.01
763.021	0.01
763.33	0.01
763.639	0.01
763.947	0
764.256	0.01
764.564	0
764.872	0
765.181	0.01
765.489	-0
765.797	-0
766.105	-0
766.413	-0
766.721	0.01
767.029	0.01
767.337	0.01
767.644	0.01
767.952	0.01
768.26	0.02
768.567	0.01
768.875	0.01
769.182	0
769.49	-0
769.797	-0
770.104	-0
770.411	0
770.718	0.01
771.026	0.01
771.333	0.01
771.639	0
771.946	0
772.253	-0
772.56	0
772.867	0.01
773.173	0.01
773.48	0.01
773.786	0.01
774.093	0.01
774.399	0
774.705	0
775.012	0
775.318	0.01
775.624	0
775.93	0
776.236	0
776.542	0
776.848	0
777.154	0
777.459	0.01
777.765	0
778.071	0.01
778.376	0
778.682	0
778.987	0
779.292	0
779.598	0
779.903	0
780.208	0
780.513	0
780.818	0
781.123	0
781.428	0
781.733	0
782.038	-0
782.343	-0
782.647	-0.01
782.952	-0.01
783.256	0
783.561	0
783.865	0
784.17	-0
784.474	0
784.778	0
785.082	0
785.386	0
785.69	0.01
785.994	0.01
786.298	-0
786.602	0
786.906	0
787.209	0
787.513	0
787.817	-0
788.12	0
788.424	0
788.727	0
789.03	0
789.333	0
789.637	-0
789.94	-0
790.243	0
790.546	0
790.849	0
791.152	0
791.454	0.01
791.757	0
792.06	0.01
792.362	0.01
792.665	0
792.967	-0
793.27	0
793.572	0
793.874	0.01
794.177	0
794.479	0
794.781	0
795.083	-0
795.385	-0.01
795.687	0
795.989	0
796.29	0
796.592	0
796.894	0.01
797.195	0.01
797.497	0.01
797.798	0.01
798.1	0.01
798.401	0.01
798.702	0
799.003	0.01
799.304	0
799.605	-0
799.906	0
800.207	0
800.508	0.01
800.809	0
801.11	0.01
801.41	0.01
801.711	0.01
802.011	0
802.312	0.01
802.612	0
802.913	0
803.213	0.01
803.513	0
803.813	0
804.113	-0
804.413	0
804.713	-0
805.013	-0
805.313	-0.01
805.613	-0
805.912	-0
806.212	0
806.511	0
806.811	-0
807.11	-0
807.41	-0
807.709	-0.01
808.008	-0
808.307	0
808.606	-0
808.905	0.01
809.204	0
809.503	0
809.802	0.01
810.101	0.01
810.399	0
810.698	0
810.997	0
811.295	-0
811.593	0
811.892	0
812.19	0
812.488	0
812.786	0.01
813.084	0.01
813.383	0
813.68	0
813.978	0
814.276	0.01
814.574	0.01
814.872	0.01
815.169	-0
815.467	-0.01
815.764	0
816.062	0
816.359	0.01
816.656	0.01
816.954	0.01
817.251	-0
817.548	-0
817.845	0
818.142	-0
818.439	-0.01
818.735	-0
819.032	-0
819.329	-0
819.626	0
819.922	-0
820.219	0.01
820.515	0.01
820.811	0
821.108	-0.01
821.404	-0
821.7	-0.01
821.996	-0.01
822.292	-0.01
822.588	-0.01
822.884	-0.01
823.18	-0.01
823.475	0
823.771	-0.01
824.067	-0
824.362	0
824.658	-0
824.953	-0
825.249	0
825.544	-0
825.839	0
826.134	0
826.429	-0
826.724	0.01
827.019	-0.01
827.314	-0
827.609	-0
827.904	-0.01
828.198	-0.01
828.493	-0
828.787	-0.01
829.082	-0
829.376	-0.01
829.671	-0
829.965	0
830.259	0.01
830.553	0
830.847	0.01
831.141	-0
831.435	-0.01
831.729	0
832.023	-0.01
832.317	-0
832.61	-0.01
832.904	0
833.197	-0
833.491	-0.01
833.784	-0
834.077	-0
834.371	-0
834.664	-0.01
834.957	-0.02
835.25	0
835.543	-0.01
835.836	-0
836.129	-0
836.421	-0
836.714	-0.01
837.007	0
837.299	-0
837.592	-0
837.884	0
838.177	-0
838.469	-0
838.761	-0.01
839.053	-0.01
839.345	-0.01
839.637	-0.01
839.929	-0.01
840.221	-0
840.513	-0.01
840.805	-0.02
841.096	-0
841.388	-0
841.68	-0
841.971	-0
842.262	0.01
842.554	-0.01
842.845	-0.01
843.136	0
843.427	-0.01
843.718	0.01
844.009	-0
844.3	0.01
844.591	-0.01
844.882	0.01
845.173	-0.02
845.463	-0
845.754	-0.01
846.044	0
846.335	-0.02
846.625	-0.01
846.915	-0.02
847.206	0.01
847.496	-0
847.786	-0
848.076	-0.02
848.366	-0.02
848.656	-0.02
848.945	-0.01
849.235	-0.01
849.525	-0.01
849.814	-0
850.104	-0.01
850.393	-0.03
850.683	-0.01
850.972	-0.01
851.261	-0.01
851.551	-0
851.84	-0.01
852.129	-0.01
852.418	-0.02
852.707	-0.02
852.995	-0.02
853.284	-0.01
853.573	0
853.862	-0.03
854.15	-0.02
854.439	-0.02
854.727	-0.02
855.015	-0.01
855.304	-0.02
855.592	-0.01
855.88	-0.01
856.168	0.01
856.456	-0.02
856.744	0.01
857.032	-0.01
857.32	-0.02
857.607	-0
857.895	-0.01
858.183	-0.02
858.47	0
858.757	-0
859.045	-0.02
859.332	-0.02
859.619	-0.03
859.907	0.01
860.194	-0
860.481	-0.01
860.768	0.02
861.054	-0.01
861.341	-0.03
861.628	-0.02
861.915	0.01
862.201	0.01
862.488	-0.01
862.774	-0
863.061	-0.01
863.347	-0.02
863.633	-0.02
863.919	-0.02
864.205	0.02
864.491	-0.02
864.777	0
865.063	-0.01
865.349	-0.01
865.635	-0.01
865.92	-0.01
866.206	-0.03
866.492	-0.02
866.777	-0.01
867.062	-0.03
867.348	-0.02
867.633	-0.01
867.918	0.03
868.203	-0.02
868.488	-0.04
868.773	0.01
869.058	0.01
869.343	0.01
869.628	-0.03
869.912	-0.05
870.197	-0.08
870.482	-0.05
870.766	0.01
871.05	-0.04
871.335	-0.01
871.619	0.01
871.903	-0.04
872.187	-0.02
872.471	0.07
872.755	-0.02
873.039	-0.01
873.323	-0.04
873.607	-0.04
873.89	-0.01
874.174	-0.02
874.458	-0.01
874.741	-0.03
875.024	-0.04
875.308	-0.06
875.591	-0.11
875.874	-0.11
876.157	0.02
876.44	-0.03
876.723	-0.04
877.006	-0.04
877.289	-0
877.572	-0.08
877.854	-0.1
878.137	-0.07
878.42	-0.08
878.702	-0.11
878.984	-0.05
879.267	-0.02
879.549	0.02
879.831	-0.05
880.113	-0.01
880.395	-0.01
880.677	-0.02
880.959	-0.12
