Data from Rubpy_EV_EDTA_Flow_Absorbance_14-08-40-504.txt Node
Date: Fri Jul 03 14:08:40 BST 2026
User: fpm-admin
Spectrometer: OFX00224
Trigger mode: 0
Integration Time (sec): 1.200000E-2
Scans to average: 3
Nonlinearity correction enabled: false
Boxcar width: 0
Storing dark spectrum: false
XAxis mode: Wavelengths
Number of Pixels in Spectrum: 2136
>>>>>Begin Spectral Data<<<<<
154.91	-0
155.289	-0.59
155.669	0.11
156.048	-0
156.428	1.28
156.807	0.29
157.186	0.45
157.566	-0
157.945	-0
158.325	-0
158.704	-0
159.083	-0
159.462	-1.06
159.842	-0.41
160.221	-0
160.6	-0
160.979	-0
161.359	-0
161.738	-0.33
162.117	-0
162.496	-0
162.875	-1.08
163.254	-0
163.633	-0
164.012	-0
164.391	-1.33
164.77	0.13
165.149	-0.07
165.528	-0.37
165.907	-0
166.286	-0
166.665	-0
167.044	-0
167.423	-0
167.802	0.78
168.181	-0
168.559	-0
168.938	-0
169.317	-0
169.696	-0
170.074	-0
170.453	0.54
170.832	-0
171.21	-0
171.589	-0.2
171.968	0.68
172.346	-0
172.725	-0
173.103	-0.88
173.482	1.08
173.861	-0
174.239	-0
174.617	0.23
174.996	-0
175.374	-0.01
175.753	-0
176.131	0.29
176.51	-0.02
176.888	-0
177.266	-0.75
177.645	0.21
178.023	-0
178.401	-0.04
178.779	0.07
179.158	-0
179.536	0.16
179.914	-0
180.292	0.39
180.67	-0.24
181.048	-0
181.427	-0
181.805	-0
182.183	-0
182.561	0.53
182.939	0.36
183.317	-0
183.695	-0.03
184.073	0.1
184.451	-0
184.829	-0
185.206	-0
185.584	-0.02
185.962	0.19
186.34	-0
186.718	0.4
187.096	-0
187.473	-0
187.851	0.57
188.229	-0
188.607	0.02
188.984	0.01
189.362	-0.01
189.74	-0.01
190.117	-0.02
190.495	0.01
190.872	-0
191.25	-0.04
191.627	0.11
192.005	-0.09
192.382	0.03
192.76	-0.01
193.137	-0.04
193.515	-0
193.892	0.01
194.269	-0.03
194.647	-0.07
195.024	-0.07
195.401	-0.02
195.779	0.04
196.156	0.02
196.533	0.06
196.91	-0.09
197.288	-0.01
197.665	0.05
198.042	0.05
198.419	-0.02
198.796	-0.01
199.173	-0.07
199.55	-0.07
199.927	0.01
200.304	-0.08
200.681	-0.11
201.058	-0.07
201.435	-0.07
201.812	-0.08
202.189	-0.01
202.566	-0.05
202.943	-0.1
203.32	-0.01
203.697	-0.07
204.073	-0.01
204.45	-0.05
204.827	-0
205.204	-0.06
205.58	0
205.957	0.02
206.334	-0.07
206.71	-0.01
207.087	-0.06
207.464	-0.09
207.84	-0.06
208.217	-0.08
208.593	-0.08
208.97	-0.06
209.346	-0.1
209.723	0.04
210.099	-0.06
210.476	0
210.852	-0.16
211.228	-0.05
211.605	-0.13
211.981	0.01
212.357	-0.01
212.733	-0.02
213.11	0.01
213.486	-0.04
213.862	0
214.238	0
214.614	-0.04
214.991	-0.02
215.367	0.03
215.743	-0.01
216.119	-0.04
216.495	-0
216.871	0.03
217.247	0.08
217.623	-0.04
217.999	0.07
218.375	-0.02
218.751	0.02
219.127	-0.05
219.502	0.04
219.878	-0.05
220.254	-0.06
220.63	0.01
221.006	-0.04
221.381	-0.09
221.757	-0.11
222.133	-0
222.508	-0.02
222.884	-0.07
223.26	-0.08
223.635	-0.03
224.011	-0.02
224.386	-0.03
224.762	0.05
225.137	-0.03
225.513	-0.04
225.888	-0.06
226.264	-0.09
226.639	-0.02
227.014	0.02
227.39	-0.08
227.765	-0.1
228.14	0.07
228.516	-0.1
228.891	0.1
229.266	-0.03
229.641	0.02
230.017	-0.03
230.392	-0.02
230.767	-0.11
231.142	-0.07
231.517	0.03
231.892	-0.01
232.267	0.07
232.642	0.05
233.017	0.03
233.392	0
233.767	0.1
234.142	0.02
234.517	-0
234.892	-0.01
235.267	-0.11
235.641	-0.07
236.016	-0.07
236.391	-0.04
236.766	-0.03
237.14	-0.03
237.515	0
237.89	-0.06
238.264	0.05
238.639	0.02
239.014	-0.07
239.388	-0.02
239.763	0.01
240.137	-0.01
240.512	-0.01
240.886	-0.02
241.261	-0.04
241.635	-0.03
242.009	-0.06
242.384	-0.01
242.758	-0.02
243.132	0
243.507	-0.02
243.881	-0.01
244.255	0.04
244.629	-0.09
245.004	0.11
245.378	-0.12
245.752	-0.12
246.126	-0.01
246.5	-0.01
246.874	-0
247.248	-0.03
247.622	-0.02
247.996	0.07
248.37	0.02
248.744	0.02
249.118	-0.13
249.492	0.01
249.866	-0.04
250.24	-0.07
250.613	-0.06
250.987	-0.04
251.361	0.02
251.735	-0.08
252.108	-0.05
252.482	-0.04
252.856	-0.01
253.229	-0.04
253.603	-0.06
253.977	-0.09
254.35	-0.01
254.724	-0
255.097	-0.08
255.471	-0.03
255.844	-0.07
256.218	0.05
256.591	-0.01
256.964	-0.06
257.338	-0.06
257.711	-0
258.084	-0.04
258.458	-0.03
258.831	-0.11
259.204	-0.05
259.577	-0.03
259.95	0.05
260.323	-0.06
260.697	-0.07
261.07	-0.02
261.443	-0.02
261.816	-0.15
262.189	-0.03
262.562	0.03
262.935	-0.02
263.308	-0.05
263.68	-0.08
264.053	0.03
264.426	0.03
264.799	0.01
265.172	-0.02
265.545	-0.01
265.917	-0.1
266.29	-0.02
266.663	-0.07
267.035	0.02
267.408	-0.11
267.781	0.02
268.153	0.08
268.526	-0.04
268.898	-0.05
269.271	0
269.643	-0.01
270.016	-0.06
270.388	0.03
270.76	0.03
271.133	0.03
271.505	-0.01
271.877	0.01
272.25	0.02
272.622	-0.04
272.994	0.07
273.366	-0.05
273.739	0.02
274.111	0
274.483	0.02
274.855	-0.03
275.227	0.02
275.599	-0.05
275.971	0.07
276.343	-0
276.715	0.11
277.087	0.03
277.459	0.04
277.831	-0.08
278.203	0.01
278.574	-0.01
278.946	-0.03
279.318	-0.01
279.69	-0.06
280.061	-0.01
280.433	0
280.805	0.06
281.176	-0.04
281.548	0.05
281.92	0.01
282.291	-0.02
282.663	-0.02
283.034	0.02
283.406	-0.04
283.777	-0.04
284.148	0.04
284.52	0.06
284.891	-0
285.262	-0.01
285.634	-0.05
286.005	-0.02
286.376	-0.04
286.747	-0.06
287.119	0.03
287.49	-0.03
287.861	0.01
288.232	0.07
288.603	0.02
288.974	0.05
289.345	0.09
289.716	-0.03
290.087	0.03
290.458	0.05
290.829	-0.09
291.2	-0.02
291.571	0.04
291.941	0.05
292.312	0.01
292.683	0.01
293.054	0.03
293.424	-0.09
293.795	-0.01
294.166	-0.01
294.536	-0.03
294.907	-0.05
295.277	0.03
295.648	-0.02
296.018	0.03
296.389	-0.03
296.759	0.06
297.13	0.03
297.5	-0.03
297.871	0.02
298.241	0.01
298.611	0.03
298.981	0.01
299.352	-0.02
299.722	-0.02
300.092	-0.05
300.462	0.07
300.832	-0.01
301.202	-0.03
301.573	-0.01
301.943	-0.07
302.313	-0.01
302.683	0.03
303.053	-0
303.422	0.04
303.792	-0.04
304.162	-0.03
304.532	-0.01
304.902	-0.07
305.272	-0.03
305.641	0.02
306.011	0.04
306.381	0.04
306.75	0.02
307.12	0.01
307.49	-0.06
307.859	-0.03
308.229	0
308.598	0.05
308.968	0.03
309.337	0.03
309.707	0.05
310.076	0.02
310.445	0.01
310.815	0.08
311.184	0.03
311.553	0.06
311.923	0.04
312.292	0.01
312.661	0.02
313.03	0
313.399	0.03
313.768	0.03
314.137	0.03
314.506	0.01
314.875	0.07
315.244	0.05
315.613	0.02
315.982	0.06
316.351	0.03
316.72	0.05
317.089	0.04
317.458	0.06
317.826	0.05
318.195	0.04
318.564	0.03
318.933	0.04
319.301	0.03
319.67	0.04
320.038	0.04
320.407	0.05
320.775	0.05
321.144	0.06
321.512	0.03
321.881	0.05
322.249	0.05
322.618	0.05
322.986	0.05
323.354	0.05
323.723	0.04
324.091	0.06
324.459	0.06
324.827	0.05
325.195	0.06
325.564	0.04
325.932	0.04
326.3	0.04
326.668	0.06
327.036	0.05
327.404	0.04
327.772	0.03
328.14	0.03
328.508	0.04
328.875	0.04
329.243	0.05
329.611	0.04
329.979	0.04
330.346	0.04
330.714	0.05
331.082	0.04
331.449	0.04
331.817	0.04
332.185	0.04
332.552	0.05
332.92	0.05
333.287	0.04
333.655	0.05
334.022	0.04
334.389	0.04
334.757	0.04
335.124	0.05
335.491	0.04
335.859	0.04
336.226	0.04
336.593	0.04
336.96	0.04
337.327	0.04
337.695	0.04
338.062	0.04
338.429	0.04
338.796	0.04
339.163	0.04
339.53	0.04
339.897	0.05
340.263	0.05
340.63	0.04
340.997	0.06
341.364	0.05
341.731	0.05
342.097	0.04
342.464	0.05
342.831	0.05
343.197	0.05
343.564	0.05
343.931	0.06
344.297	0.05
344.664	0.05
345.03	0.05
345.396	0.05
345.763	0.05
346.129	0.05
346.496	0.05
346.862	0.05
347.228	0.05
347.594	0.06
347.961	0.05
348.327	0.04
348.693	0.05
349.059	0.05
349.425	0.05
349.791	0.06
350.157	0.05
350.523	0.06
350.889	0.06
351.255	0.06
351.621	0.06
351.987	0.06
352.353	0.07
352.719	0.06
353.084	0.07
353.45	0.06
353.816	0.06
354.181	0.06
354.547	0.06
354.913	0.07
355.278	0.07
355.644	0.08
356.009	0.07
356.375	0.08
356.74	0.08
357.106	0.07
357.471	0.08
357.836	0.08
358.202	0.08
358.567	0.08
358.932	0.08
359.297	0.08
359.663	0.08
360.028	0.08
360.393	0.08
360.758	0.08
361.123	0.09
361.488	0.08
361.853	0.08
362.218	0.09
362.583	0.09
362.948	0.09
363.312	0.08
363.677	0.09
364.042	0.09
364.407	0.09
364.772	0.09
365.136	0.08
365.501	0.09
365.865	0.09
366.23	0.09
366.595	0.09
366.959	0.09
367.324	0.09
367.688	0.09
368.052	0.09
368.417	0.1
368.781	0.1
369.145	0.1
369.51	0.1
369.874	0.1
370.238	0.1
370.602	0.1
370.967	0.1
371.331	0.1
371.695	0.1
372.059	0.1
372.423	0.1
372.787	0.1
373.151	0.1
373.515	0.1
373.878	0.1
374.242	0.11
374.606	0.1
374.97	0.1
375.334	0.1
375.697	0.09
376.061	0.1
376.425	0.1
376.788	0.1
377.152	0.1
377.515	0.1
377.879	0.1
378.242	0.1
378.606	0.1
378.969	0.1
379.333	0.11
379.696	0.1
380.059	0.1
380.422	0.1
380.786	0.11
381.149	0.11
381.512	0.11
381.875	0.11
382.238	0.11
382.601	0.11
382.964	0.12
383.327	0.13
383.69	0.13
384.053	0.12
384.416	0.14
384.779	0.14
385.142	0.14
385.504	0.14
385.867	0.14
386.23	0.14
386.593	0.15
386.955	0.15
387.318	0.15
387.68	0.15
388.043	0.14
388.405	0.14
388.768	0.15
389.13	0.14
389.493	0.14
389.855	0.14
390.217	0.14
390.58	0.14
390.942	0.14
391.304	0.14
391.666	0.14
392.028	0.14
392.391	0.15
392.753	0.15
393.115	0.15
393.477	0.15
393.839	0.17
394.201	0.17
394.563	0.17
394.924	0.18
395.286	0.19
395.648	0.19
396.01	0.2
396.371	0.21
396.733	0.21
397.095	0.22
397.456	0.22
397.818	0.22
398.18	0.22
398.541	0.21
398.903	0.21
399.264	0.2
399.625	0.2
399.987	0.19
400.348	0.19
400.709	0.18
401.071	0.18
401.432	0.17
401.793	0.16
402.154	0.15
402.515	0.14
402.876	0.14
403.238	0.12
403.599	0.12
403.96	0.11
404.32	0.11
404.681	0.09
405.042	0.1
405.403	0.09
405.764	0.09
406.125	0.09
406.485	0.08
406.846	0.07
407.207	0.08
407.567	0.07
407.928	0.07
408.288	0.07
408.649	0.06
409.009	0.07
409.37	0.06
409.73	0.06
410.091	0.06
410.451	0.06
410.811	0.06
411.171	0.06
411.532	0.06
411.892	0.05
412.252	0.05
412.612	0.05
412.972	0.05
413.332	0.05
413.692	0.05
414.052	0.05
414.412	0.05
414.772	0.05
415.132	0.05
415.492	0.07
415.851	0.05
416.211	0.05
416.571	0.05
416.931	0.05
417.29	0.04
417.65	0.05
418.009	0.05
418.369	0.05
418.728	0.06
419.088	0.05
419.447	0.05
419.807	0.05
420.166	0.05
420.525	0.05
420.884	0.06
421.244	0.04
421.603	0.06
421.962	0.05
422.321	0.06
422.68	0.03
423.039	0.03
423.398	0.03
423.757	0.03
424.116	0.06
424.475	0.05
424.834	0.05
425.193	0.05
425.551	0.05
425.91	0.04
426.269	0.04
426.628	0.05
426.986	0.06
427.345	0.05
427.703	0.04
428.062	0.05
428.42	0.03
428.779	0.04
429.137	0.04
429.496	0.03
429.854	0.06
430.212	0.05
430.57	0.04
430.929	0.03
431.287	0.02
431.645	0.04
432.003	0.05
432.361	0.04
432.719	0.05
433.077	0.05
433.435	0.05
433.793	0.04
434.151	0.05
434.509	0.04
434.866	0.04
435.224	0.05
435.582	0.04
435.94	0.04
436.297	0.05
436.655	0.04
437.012	0.05
437.37	0.05
437.727	0.04
438.085	0.05
438.442	0.03
438.8	0.06
439.157	0.06
439.514	0.05
439.872	0.02
440.229	0.04
440.586	0.05
440.943	0.05
441.3	0.04
441.657	0.05
442.014	0.04
442.371	0.06
442.728	0.03
443.085	0.04
443.442	0.05
443.799	0.05
444.156	0.05
444.513	0.05
444.869	0.05
445.226	0.04
445.583	0.04
445.939	0.05
446.296	0.04
446.652	0.05
447.009	0.04
447.365	0.04
447.722	0.05
448.078	0.03
448.434	0.05
448.791	0.06
449.147	0.04
449.503	0.04
449.859	0.05
450.215	0.04
450.571	0.03
450.928	0.05
451.284	0.05
451.64	0.05
451.995	0.04
452.351	0.03
452.707	0.04
453.063	0.04
453.419	0.04
453.775	0.04
454.13	0.05
454.486	0.02
454.842	0.03
455.197	0.05
455.553	0.05
455.908	0.05
456.264	0.07
456.619	0.07
456.975	0.03
457.33	0.06
457.685	0.04
458.04	0.05
458.396	0.05
458.751	0.07
459.106	0.05
459.461	0.02
459.816	0.05
460.171	0.05
460.526	0.04
460.881	0.04
461.236	0.04
461.591	0.04
461.946	0.05
462.301	0.04
462.655	0.03
463.01	0.03
463.365	0.04
463.719	0.04
464.074	0.05
464.428	0.03
464.783	0.05
465.137	0.04
465.492	0.04
465.846	0.05
466.201	0.04
466.555	0.05
466.909	0.04
467.263	0.02
467.618	0.05
467.972	0.04
468.326	0.05
468.68	0.05
469.034	0.04
469.388	0.05
469.742	0.04
470.096	0.03
470.45	0.04
470.804	0.04
471.157	0.03
471.511	0.04
471.865	0.03
472.218	0.05
472.572	0.02
472.926	0.06
473.279	0.04
473.633	0.03
473.986	0.04
474.34	0.03
474.693	0.04
475.046	0.05
475.4	0.03
475.753	0.03
476.106	0.03
476.459	0.03
476.812	0.04
477.165	0.03
477.519	0.02
477.872	0.03
478.224	0.03
478.577	0.02
478.93	0.03
479.283	0.02
479.636	0.02
479.989	0.03
480.341	0.02
480.694	0.03
481.047	0.03
481.399	0.02
481.752	0.02
482.104	0.03
482.457	0.01
482.809	0.03
483.162	0.03
483.514	0.02
483.866	0.02
484.219	0.03
484.571	0.03
484.923	0.02
485.275	0.02
485.627	0.02
485.979	0.02
486.331	0.02
486.683	0.02
487.035	0.02
487.387	0.02
487.739	0.02
488.091	0.02
488.443	0.03
488.794	0.03
489.146	0.03
489.498	0.02
489.849	0.03
490.201	0.03
490.552	0.03
490.904	0.02
491.255	0.03
491.607	0.02
491.958	0.03
492.309	0.02
492.661	0.02
493.012	0.02
493.363	0.03
493.714	0.02
494.065	0.02
494.416	0.03
494.767	0.02
495.118	0.02
495.469	0.02
495.82	0.03
496.171	0.02
496.522	0.02
496.872	0.02
497.223	0.02
497.574	0.02
497.924	0.02
498.275	0.02
498.626	0.02
498.976	0.03
499.327	0.03
499.677	0.03
500.027	0.03
500.378	0.02
500.728	0.02
501.078	0.02
501.428	0.02
501.779	0.02
502.129	0.03
502.479	0.02
502.829	0.02
503.179	0.02
503.529	0.02
503.879	0.02
504.229	0.02
504.578	0.03
504.928	0.02
505.278	0.03
505.628	0.03
505.977	0.03
506.327	0.02
506.676	0.02
507.026	0.02
507.375	0.03
507.725	0.02
508.074	0.03
508.424	0.03
508.773	0.03
509.122	0.03
509.471	0.02
509.82	0.03
510.17	0.03
510.519	0.03
510.868	0.03
511.217	0.03
511.566	0.03
511.915	0.03
512.263	0.02
512.612	0.03
512.961	0.03
513.31	0.03
513.659	0.03
514.007	0.03
514.356	0.03
514.704	0.03
515.053	0.03
515.401	0.03
515.75	0.03
516.098	0.03
516.447	0.03
516.795	0.03
517.143	0.03
517.491	0.03
517.839	0.03
518.188	0.03
518.536	0.03
518.884	0.03
519.232	0.03
519.58	0.03
519.928	0.03
520.275	0.03
520.623	0.03
520.971	0.03
521.319	0.03
521.666	0.03
522.014	0.03
522.362	0.03
522.709	0.03
523.057	0.03
523.404	0.03
523.752	0.03
524.099	0.02
524.446	0.03
524.794	0.03
525.141	0.03
525.488	0.03
525.835	0.03
526.182	0.03
526.529	0.03
526.876	0.04
527.223	0.03
527.57	0.03
527.917	0.03
528.264	0.03
528.611	0.03
528.958	0.04
529.304	0.04
529.651	0.03
529.998	0.03
530.344	0.03
530.691	0.03
531.037	0.03
531.384	0.03
531.73	0.03
532.076	0.04
532.423	0.04
532.769	0.04
533.115	0.04
533.461	0.04
533.807	0.04
534.154	0.04
534.5	0.04
534.846	0.04
535.192	0.03
535.537	0.04
535.883	0.03
536.229	0.03
536.575	0.04
536.921	0.04
537.266	0.03
537.612	0.04
537.957	0.04
538.303	0.04
538.649	0.04
538.994	0.04
539.339	0.04
539.685	0.03
540.03	0.04
540.375	0.04
540.721	0.04
541.066	0.04
541.411	0.04
541.756	0.04
542.101	0.04
542.446	0.04
542.791	0.04
543.136	0.04
543.481	0.04
543.825	0.04
544.17	0.04
544.515	0.04
544.86	0.04
545.204	0.04
545.549	0.04
545.893	0.04
546.238	0.04
546.582	0.04
546.927	0.05
547.271	0.04
547.615	0.05
547.96	0.05
548.304	0.05
548.648	0.04
548.992	0.05
549.336	0.04
549.68	0.04
550.024	0.05
550.368	0.04
550.712	0.05
551.056	0.05
551.4	0.05
551.743	0.05
552.087	0.05
552.431	0.05
552.774	0.05
553.118	0.05
553.462	0.05
553.805	0.04
554.148	0.04
554.492	0.05
554.835	0.05
555.178	0.05
555.522	0.05
555.865	0.05
556.208	0.05
556.551	0.05
556.894	0.05
557.237	0.05
557.58	0.05
557.923	0.05
558.266	0.05
558.609	0.05
558.952	0.05
559.294	0.05
559.637	0.05
559.98	0.05
560.322	0.05
560.665	0.05
561.007	0.05
561.35	0.05
561.692	0.05
562.034	0.05
562.377	0.05
562.719	0.05
563.061	0.06
563.403	0.05
563.745	0.05
564.088	0.05
564.43	0.05
564.772	0.05
565.113	0.05
565.455	0.05
565.797	0.05
566.139	0.06
566.481	0.05
566.822	0.05
567.164	0.06
567.506	0.05
567.847	0.05
568.189	0.05
568.53	0.05
568.872	0.05
569.213	0.05
569.554	0.05
569.895	0.05
570.237	0.05
570.578	0.05
570.919	0.05
571.26	0.05
571.601	0.05
571.942	0.05
572.283	0.05
572.624	0.05
572.965	0.05
573.306	0.05
573.646	0.05
573.987	0.05
574.328	0.05
574.668	0.05
575.009	0.05
575.349	0.05
575.69	0.05
576.03	0.05
576.37	0.05
576.711	0.04
577.051	0.05
577.391	0.05
577.731	0.05
578.072	0.05
578.412	0.05
578.752	0.05
579.092	0.05
579.431	0.04
579.771	0.04
580.111	0.04
580.451	0.05
580.791	0.05
581.13	0.05
581.47	0.05
581.81	0.05
582.149	0.05
582.489	0.05
582.828	0.04
583.167	0.04
583.507	0.03
583.846	0.01
584.185	0.02
584.525	0.04
584.864	0.05
585.203	0.06
585.542	0.06
585.881	0.06
586.22	0.05
586.559	0.04
586.898	0.04
587.236	0.04
587.575	0.05
587.914	0.05
588.252	0.05
588.591	0.05
588.93	0.05
589.268	0.05
589.607	0.05
589.945	0.05
590.283	0.06
590.622	0.06
590.96	0.06
591.298	0.06
591.636	0.06
591.974	0.06
592.313	0.06
592.651	0.06
592.989	0.06
593.326	0.06
593.664	0.05
594.002	0.05
594.34	0.05
594.678	0.05
595.015	0.05
595.353	0.05
595.691	0.06
596.028	0.06
596.366	0.06
596.703	0.06
597.04	0.06
597.378	0.06
597.715	0.06
598.052	0.06
598.389	0.06
598.726	0.06
599.064	0.06
599.401	0.06
599.738	0.06
600.074	0.06
600.411	0.06
600.748	0.05
601.085	0.06
601.422	0.06
601.758	0.06
602.095	0.06
602.432	0.06
602.768	0.06
603.105	0.06
603.441	0.07
603.777	0.07
604.114	0.07
604.45	0.07
604.786	0.06
605.122	0.07
605.459	0.06
605.795	0.06
606.131	0.06
606.467	0.06
606.803	0.06
607.139	0.06
607.474	0.06
607.81	0.06
608.146	0.06
608.482	0.06
608.817	0.06
609.153	0.06
609.488	0.06
609.824	0.06
610.159	0.06
610.495	0.06
610.83	0.06
611.165	0.07
611.5	0.07
611.836	0.06
612.171	0.06
612.506	0.07
612.841	0.07
613.176	0.06
613.511	0.06
613.845	0.06
614.18	0.06
614.515	0.06
614.85	0.06
615.184	0.06
615.519	0.06
615.854	0.06
616.188	0.06
616.523	0.06
616.857	0.06
617.191	0.06
617.526	0.06
617.86	0.06
618.194	0.06
618.528	0.06
618.862	0.06
619.196	0.06
619.53	0.06
619.864	0.06
620.198	0.06
620.532	0.06
620.866	0.06
621.2	0.06
621.533	0.06
621.867	0.06
622.201	0.06
622.534	0.06
622.868	0.06
623.201	0.06
623.534	0.06
623.868	0.05
624.201	0.05
624.534	0.05
624.868	0.06
625.201	0.06
625.534	0.06
625.867	0.06
626.2	0.05
626.533	0.06
626.865	0.06
627.198	0.06
627.531	0.06
627.864	0.06
628.196	0.05
628.529	0.06
628.862	0.05
629.194	0.06
629.527	0.05
629.859	0.05
630.191	0.06
630.524	0.06
630.856	0.05
631.188	0.05
631.52	0.05
631.852	0.05
632.184	0.05
632.516	0.05
632.848	0.05
633.18	0.05
633.512	0.05
633.844	0.05
634.175	0.05
634.507	0.05
634.839	0.05
635.17	0.05
635.502	0.05
635.833	0.04
636.165	0.04
636.496	0.05
636.827	0.04
637.159	0.05
637.49	0.04
637.821	0.04
638.152	0.04
638.483	0.04
638.814	0.04
639.145	0.05
639.476	0.04
639.807	0.04
640.137	0.04
640.468	0.04
640.799	0.04
641.129	0.04
641.46	0.04
641.791	0.04
642.121	0.04
642.451	0.04
642.782	0.04
643.112	0.04
643.442	0.04
643.773	0.04
644.103	0.04
644.433	0.04
644.763	0.04
645.093	0.04
645.423	0.04
645.753	0.04
646.082	0.03
646.412	0.04
646.742	0.03
647.072	0.04
647.401	0.04
647.731	0.04
648.06	0.03
648.39	0.04
648.719	0.03
649.048	0.03
649.378	0.03
649.707	0.04
650.036	0.03
650.365	0.03
650.694	0.03
651.023	0.03
651.352	0.03
651.681	0.04
652.01	0.04
652.339	0.04
652.668	0.03
652.996	0.03
653.325	0.04
653.654	0.03
653.982	0.03
654.311	0.04
654.639	0.03
654.967	0.03
655.296	0.03
655.624	0.03
655.952	0.03
656.28	0.04
656.609	0.03
656.937	0.03
657.265	0.02
657.593	-0.02
657.92	0
658.248	0
658.576	0
658.904	0
659.231	0.01
659.559	0.04
659.887	0.05
660.214	0.05
660.542	0.04
660.869	0.04
661.196	0.04
661.524	0.04
661.851	0.03
662.178	0.03
662.505	0.04
662.832	0.03
663.159	0.03
663.486	0.03
663.813	0.03
664.14	0.03
664.467	0.03
664.794	0.03
665.12	0.04
665.447	0.03
665.774	0.03
666.1	0.03
666.427	0.03
666.753	0.04
667.079	0.03
667.406	0.03
667.732	0.03
668.058	0.03
668.384	0.03
668.71	0.03
669.036	0.03
669.362	0.03
669.688	0.03
670.014	0.03
670.34	0.03
670.666	0.03
670.991	0.03
671.317	0.03
671.643	0.03
671.968	0.03
672.294	0.03
672.619	0.03
672.945	0.03
673.27	0.03
673.595	0.02
673.92	0.03
674.246	0.03
674.571	0.03
674.896	0.03
675.221	0.03
675.546	0.03
675.87	0.03
676.195	0.03
676.52	0.03
676.845	0.03
677.169	0.03
677.494	0.03
677.819	0.03
678.143	0.03
678.468	0.03
678.792	0.03
679.116	0.02
679.44	0.03
679.765	0.02
680.089	0.02
680.413	0.03
680.737	0.03
681.061	0.02
681.385	0.02
681.709	0.02
682.033	0.03
682.356	0.03
682.68	0.03
683.004	0.02
683.327	0.02
683.651	0.02
683.974	0.02
684.298	0.02
684.621	0.02
684.944	0.02
685.268	0.02
685.591	0.02
685.914	0.02
686.237	0.02
686.56	0.02
686.883	0.02
687.206	0.02
687.529	0.02
687.852	0.02
688.175	0.02
688.497	0.02
688.82	0.02
689.142	0.02
689.465	0.02
689.787	0.02
690.11	0.02
690.432	0.02
690.755	0.02
691.077	0.02
691.399	0.02
691.721	0.02
692.043	0.02
692.365	0.02
692.687	0.02
693.009	0.02
693.331	0.01
693.653	0.02
693.974	0.02
694.296	0.02
694.618	0.01
694.939	0.01
695.261	0.01
695.582	0.02
695.904	0.02
696.225	0.02
696.546	0.02
696.868	0.02
697.189	0.01
697.51	0.02
697.831	0.02
698.152	0.01
698.473	0.01
698.794	0.01
699.114	0.01
699.435	0.01
699.756	0.02
700.077	0.01
700.397	0.02
700.718	0.02
701.038	0.01
701.359	0.01
701.679	0.01
701.999	0.01
702.32	0.01
702.64	0.01
702.96	0.01
703.28	0.01
703.6	0.01
703.92	0.01
704.24	0.01
704.56	0.01
704.879	0.01
705.199	0.01
705.519	0.01
705.838	0.01
706.158	0.01
706.478	0.01
706.797	0.01
707.116	0.01
707.436	0.01
707.755	0.01
708.074	0.01
708.393	0.01
708.712	0
709.031	0
709.35	0.01
709.669	0.01
709.988	0.01
710.307	0.01
710.626	0.01
710.944	0.01
711.263	0.01
711.582	0.01
711.9	0.01
712.219	0.01
712.537	0.01
712.855	0.01
713.174	0.01
713.492	0.01
713.81	0.01
714.128	0.01
714.446	0.01
714.764	0.01
715.082	0.01
715.4	0.01
715.718	0.01
716.035	0.01
716.353	0.01
716.671	0.01
716.988	0.01
717.306	0.01
717.623	0.01
717.941	0.01
718.258	0.01
718.575	0.01
718.893	0.01
719.21	0.01
719.527	0.01
719.844	0.01
720.161	0.01
720.478	0.01
720.795	0.01
721.112	0.01
721.428	0.01
721.745	0.02
722.062	0.01
722.378	0.01
722.695	0.01
723.011	0.01
723.328	0.01
723.644	0.01
723.96	0.01
724.276	0.01
724.593	0.01
724.909	0.01
725.225	0.01
725.541	0.01
725.857	0.01
726.173	0.01
726.488	0.01
726.804	0
727.12	0.01
727.435	0.01
727.751	0.01
728.067	0.01
728.382	0.01
728.697	0.01
729.013	0.01
729.328	0.01
729.643	0.01
729.958	0.01
730.273	0.01
730.588	0.01
730.903	0.01
731.218	0.01
731.533	0.01
731.848	0.01
732.163	0.01
732.477	0.01
732.792	0.01
733.107	0.01
733.421	0.01
733.736	0.01
734.05	0.01
734.364	0.01
734.678	0.01
734.993	0.01
735.307	0.01
735.621	0.01
735.935	0.01
736.249	0.01
736.563	0.01
736.877	0.01
737.19	0.01
737.504	0.01
737.818	0.01
738.131	0.02
738.445	0.01
738.758	0.01
739.072	0.01
739.385	0.01
739.698	0.01
740.012	0.01
740.325	0.01
740.638	0.01
740.951	0.01
741.264	0.01
741.577	0.01
741.89	0.01
742.203	0.01
742.515	0.01
742.828	0.01
743.141	0.01
743.453	0.01
743.766	0.01
744.078	0.01
744.391	0.01
744.703	0.01
745.015	0.01
745.327	0.01
745.639	0.01
745.952	0.01
746.264	0.01
746.575	0.01
746.887	0.01
747.199	0.01
747.511	0
747.823	0
748.134	0
748.446	0
748.757	0.01
749.069	0
749.38	0.01
749.692	0.01
750.003	0.01
750.314	0.01
750.625	0.01
750.936	0
751.248	0.01
751.559	0.01
751.869	0.01
752.18	0.01
752.491	0.01
752.802	0.01
753.112	0.01
753.423	0.01
753.734	0.01
754.044	0.01
754.355	0.01
754.665	0.01
754.975	0.01
755.285	0.01
755.596	0.01
755.906	0.01
756.216	0.01
756.526	0.01
756.836	0
757.146	0.01
757.455	0.01
757.765	0
758.075	0
758.385	0
758.694	0
759.004	0
759.313	0.01
759.622	0.01
759.932	0.01
760.241	0.01
760.55	0.01
760.859	0.01
761.168	0.01
761.477	0.01
761.786	0
762.095	0
762.404	0
762.713	0.01
763.021	0.01
763.33	0.01
763.639	0.01
763.947	0.01
764.256	0.01
764.564	0
764.872	0.01
765.181	0.01
765.489	0.01
765.797	0
766.105	0
766.413	0
766.721	0.01
767.029	0.01
767.337	0.01
767.644	0.01
767.952	0.01
768.26	0.01
768.567	0.01
768.875	0.01
769.182	0
769.49	0
769.797	0
770.104	-0
770.411	0
770.718	0.01
771.026	0
771.333	0
771.639	0
771.946	0
772.253	0
772.56	0
772.867	0.01
773.173	0.01
773.48	0
773.786	0
774.093	0
774.399	0
774.705	0
775.012	0
775.318	0
775.624	0
775.93	0
776.236	0
776.542	0
776.848	0
777.154	0
777.459	0
777.765	-0
778.071	0
778.376	0
778.682	0
778.987	0
779.292	0
779.598	0
779.903	0
780.208	0
780.513	0
780.818	0
781.123	0
781.428	0
781.733	0.01
782.038	0
782.343	0
782.647	-0
782.952	0
783.256	-0
783.561	0
783.865	0
784.17	0
784.474	0
784.778	0
785.082	0
785.386	0
785.69	0
785.994	0
786.298	-0
786.602	0
786.906	0
787.209	0
787.513	0
787.817	-0
788.12	0.01
788.424	0.01
788.727	0
789.03	0
789.333	0
789.637	0
789.94	-0
790.243	0
790.546	0
790.849	0
791.152	0
791.454	0.01
791.757	-0
792.06	0
792.362	0.01
792.665	0
792.967	0
793.27	0
793.572	0
793.874	0
794.177	0
794.479	-0
794.781	-0
795.083	0
795.385	-0
795.687	0
795.989	0
796.29	0
796.592	0
796.894	0.01
797.195	-0
797.497	0.01
797.798	0
798.1	0.01
798.401	0
798.702	-0
799.003	0.01
799.304	0
799.605	0
799.906	0
800.207	0
800.508	0.01
800.809	0.01
801.11	0.01
801.41	0.01
801.711	0.01
802.011	0
802.312	0.01
802.612	0
802.913	0
803.213	0.01
803.513	-0
803.813	0
804.113	-0
804.413	0
804.713	0
805.013	0
805.313	-0
805.613	-0
805.912	-0
806.212	-0
806.511	0
806.811	-0
807.11	-0
807.41	0
807.709	-0
808.008	-0
808.307	0
808.606	-0
808.905	0
809.204	-0
809.503	0
809.802	0.01
810.101	0
810.399	0
810.698	0.01
810.997	0.01
811.295	-0
811.593	0
811.892	0
812.19	0.01
812.488	0
812.786	0.01
813.084	0
813.383	-0
813.68	0
813.978	0
814.276	0
814.574	0.01
814.872	0.01
815.169	-0
815.467	-0
815.764	0
816.062	0
816.359	0
816.656	0.01
816.954	0
817.251	-0
817.548	-0
817.845	0
818.142	-0.01
818.439	-0
818.735	-0
819.032	-0
819.329	-0.01
819.626	-0.01
819.922	-0
820.219	0
820.515	0
820.811	0
821.108	-0.01
821.404	-0
821.7	-0.01
821.996	-0.01
822.292	-0
822.588	-0
822.884	-0.01
823.18	-0
823.475	0
823.771	-0.01
824.067	-0.01
824.362	-0.01
824.658	-0
824.953	-0
825.249	-0
825.544	-0
825.839	-0
826.134	0
826.429	-0
826.724	-0
827.019	-0
827.314	-0
827.609	0
827.904	-0
828.198	-0
828.493	-0
828.787	-0
829.082	-0
829.376	-0.01
829.671	0
829.965	0
830.259	0
830.553	0.01
830.847	-0
831.141	-0.01
831.435	-0.02
831.729	-0
832.023	-0.01
832.317	-0.01
832.61	-0.01
832.904	-0
833.197	-0
833.491	-0.01
833.784	-0.01
834.077	0
834.371	0
834.664	-0.01
834.957	-0.01
835.25	-0.01
835.543	-0.01
835.836	-0
836.129	-0.01
836.421	-0
836.714	-0.01
837.007	-0
837.299	0.01
837.592	0
837.884	0
838.177	-0
838.469	-0
838.761	-0.01
839.053	-0.01
839.345	-0
839.637	-0.01
839.929	-0.01
840.221	0.01
840.513	0
840.805	-0
841.096	0.01
841.388	-0
841.68	0
841.971	-0
842.262	0.01
842.554	-0.01
842.845	-0.01
843.136	0.01
843.427	0
843.718	-0
844.009	0
844.3	0.01
844.591	-0.01
844.882	0.01
845.173	-0.01
845.463	0
845.754	0
846.044	0.01
846.335	-0
846.625	0
846.915	-0.01
847.206	-0
847.496	-0.01
847.786	-0.01
848.076	-0.02
848.366	-0.01
848.656	-0
848.945	-0.02
849.235	0
849.525	-0
849.814	-0.01
850.104	0
850.393	-0.02
850.683	-0.01
850.972	-0.01
851.261	-0
851.551	0.01
851.84	-0
852.129	-0.02
852.418	-0
852.707	-0.01
852.995	0
853.284	-0.01
853.573	-0.01
853.862	-0.02
854.15	-0.02
854.439	0
854.727	-0
855.015	0.01
855.304	-0.01
855.592	0
855.88	-0
856.168	0.02
856.456	-0.01
856.744	0
857.032	0
857.32	-0.02
857.607	-0.01
857.895	-0.02
858.183	0
858.47	0
858.757	-0.01
859.045	-0
859.332	-0.02
859.619	0
859.907	-0.02
860.194	0.02
860.481	-0.01
860.768	-0
861.054	-0.01
861.341	-0.03
861.628	-0
861.915	-0
862.201	-0.02
862.488	-0.02
862.774	-0.02
863.061	-0
863.347	-0
863.633	0
863.919	0.04
864.205	0.01
864.491	0
864.777	0
865.063	-0
865.349	0.01
865.635	-0.01
865.92	-0
866.206	-0.01
866.492	-0.01
866.777	-0.02
867.062	-0.06
867.348	-0.02
867.633	0.03
867.918	-0.01
868.203	-0.01
868.488	-0.02
868.773	-0.02
869.058	0.05
869.343	-0.02
869.628	-0.07
869.912	-0.01
870.197	-0.03
870.482	-0.04
870.766	-0.02
871.05	-0.03
871.335	-0.07
871.619	-0.04
871.903	-0.08
872.187	-0.03
872.471	-0.01
872.755	-0.05
873.039	-0.09
873.323	-0.07
873.607	-0.03
873.89	-0.07
874.174	-0.05
874.458	-0.01
874.741	-0.09
875.024	-0.05
875.308	-0.07
875.591	-0.09
875.874	-0.13
876.157	-0.04
876.44	-0.14
876.723	-0.06
877.006	-0.06
877.289	-0.03
877.572	-0.05
877.854	-0.13
878.137	-0.1
878.42	-0.13
878.702	-0.09
878.984	-0.16
879.267	-0.08
879.549	-0.08
879.831	-0.07
880.113	-0.02
880.395	-0.08
880.677	-0.1
880.959	-0
