Data from Rubpy_EV_EDTA_Flow_Absorbance_14-32-04-489.txt Node
Date: Fri Jul 03 14:32:04 BST 2026
User: fpm-admin
Spectrometer: OFX00224
Trigger mode: 0
Integration Time (sec): 1.200000E-2
Scans to average: 3
Nonlinearity correction enabled: false
Boxcar width: 0
Storing dark spectrum: false
XAxis mode: Wavelengths
Number of Pixels in Spectrum: 2136
>>>>>Begin Spectral Data<<<<<
154.91	-0.9
155.289	-0.51
155.669	-0.2
156.048	-0
156.428	0.98
156.807	0.06
157.186	0.27
157.566	-0
157.945	-0
158.325	-0.3
158.704	-0
159.083	0.91
159.462	-0
159.842	-0.16
160.221	-0
160.6	-0
160.979	-0
161.359	1.43
161.738	-0.06
162.117	0.05
162.496	-0
162.875	-1.23
163.254	0.24
163.633	0.06
164.012	-0
164.391	-0.54
164.77	0.52
165.149	-0.02
165.528	-0
165.907	-0.2
166.286	-0
166.665	-0.14
167.044	-0
167.423	-0
167.802	0.15
168.181	-0
168.559	-0
168.938	-0
169.317	-0
169.696	0.48
170.074	-0.06
170.453	-0
170.832	-0.11
171.21	-0
171.589	-0.6
171.968	0.02
172.346	-0
172.725	-0
173.103	0.43
173.482	-0
173.861	-0
174.239	-0
174.617	-0
174.996	0.65
175.374	0.54
175.753	-0
176.131	0.77
176.51	1.47
176.888	-0
177.266	-0.94
177.645	0.09
178.023	-0
178.401	-0.13
178.779	0.04
179.158	-0
179.536	0.03
179.914	-0
180.292	-0
180.67	-0
181.048	-0
181.427	-0
181.805	-0
182.183	-0.27
182.561	0.3
182.939	-0
183.317	-0
183.695	0.14
184.073	0.32
184.451	0.37
184.829	-0.74
185.206	-0
185.584	-0.21
185.962	1.3
186.34	0.3
186.718	-0.26
187.096	0.68
187.473	-0
187.851	0.13
188.229	-0.19
188.607	0.03
188.984	0.01
189.362	-0.04
189.74	0.04
190.117	0.06
190.495	0.07
190.872	-0
191.25	0.02
191.627	0.11
192.005	0.08
192.382	0.01
192.76	-0.05
193.137	0.06
193.515	0.04
193.892	0.08
194.269	0.06
194.647	-0.01
195.024	-0.04
195.401	0.05
195.779	0.04
196.156	0.07
196.533	-0.05
196.91	-0.1
197.288	0.07
197.665	0.02
198.042	-0.02
198.419	0.07
198.796	-0.03
199.173	0.02
199.55	-0.02
199.927	-0.02
200.304	-0.04
200.681	-0.05
201.058	-0.06
201.435	0.01
201.812	-0.07
202.189	-0.03
202.566	-0.04
202.943	-0.08
203.32	0.05
203.697	-0.1
204.073	0.04
204.45	-0.04
204.827	-0
205.204	-0
205.58	0.04
205.957	0
206.334	-0.06
206.71	0.08
207.087	-0.09
207.464	0.02
207.84	-0.03
208.217	-0.01
208.593	-0
208.97	0.06
209.346	-0
209.723	0.01
210.099	0.06
210.476	-0
210.852	-0.09
211.228	-0.02
211.605	0.04
211.981	-0.02
212.357	0.03
212.733	-0
213.11	-0
213.486	-0.03
213.862	0.04
214.238	-0.05
214.614	0.05
214.991	-0.03
215.367	0.08
215.743	0.02
216.119	-0.02
216.495	0.02
216.871	-0
217.247	0.14
217.623	0.05
217.999	0.09
218.375	-0.02
218.751	0.11
219.127	-0.04
219.502	0.07
219.878	0.07
220.254	0
220.63	-0.06
221.006	-0.03
221.381	-0
221.757	-0.06
222.133	0.02
222.508	0.06
222.884	0.05
223.26	-0.02
223.635	-0.03
224.011	0.07
224.386	0.02
224.762	0.07
225.137	-0.01
225.513	-0.01
225.888	-0.04
226.264	-0.04
226.639	0.01
227.014	0.15
227.39	-0
227.765	0.08
228.14	0.07
228.516	-0.02
228.891	0.08
229.266	0.02
229.641	0.09
230.017	-0.02
230.392	-0.02
230.767	-0.08
231.142	-0.04
231.517	0.07
231.892	0.04
232.267	0.09
232.642	-0
233.017	0.04
233.392	-0.03
233.767	-0.06
234.142	-0.06
234.517	0.01
234.892	-0
235.267	-0.06
235.641	-0.07
236.016	0
236.391	0.1
236.766	0.14
237.14	0.05
237.515	0.02
237.89	-0
238.264	0.04
238.639	0.1
239.014	-0
239.388	-0
239.763	-0.05
240.137	0
240.512	0.04
240.886	0.01
241.261	-0.06
241.635	0.01
242.009	-0.04
242.384	0.02
242.758	0.14
243.132	-0.01
243.507	0.04
243.881	0.05
244.255	0.14
244.629	-0.01
245.004	0.14
245.378	-0.07
245.752	-0.07
246.126	-0.06
246.5	-0.01
246.874	-0.03
247.248	-0.01
247.622	-0.06
247.996	0.12
248.37	-0.01
248.744	0.04
249.118	0.21
249.492	0.08
249.866	-0.05
250.24	-0
250.613	-0.02
250.987	0.02
251.361	0.04
251.735	-0.04
252.108	-0
252.482	0.01
252.856	-0.05
253.229	-0.02
253.603	-0.05
253.977	-0.03
254.35	0.06
254.724	-0.01
255.097	0.06
255.471	0.05
255.844	-0.06
256.218	0.07
256.591	0
256.964	-0.01
257.338	-0.07
257.711	0.03
258.084	0.09
258.458	0.03
258.831	-0.04
259.204	-0.01
259.577	-0.01
259.95	0.08
260.323	-0.06
260.697	0.02
261.07	0.05
261.443	0.09
261.816	-0.04
262.189	0.04
262.562	0.07
262.935	-0.05
263.308	0.11
263.68	0.04
264.053	0.05
264.426	0.03
264.799	-0.02
265.172	-0.06
265.545	0.01
265.917	-0.07
266.29	0.05
266.663	0.04
267.035	0
267.408	0
267.781	0.03
268.153	0.17
268.526	0.02
268.898	0.06
269.271	0.02
269.643	0.06
270.016	0.07
270.388	0.04
270.76	0.1
271.133	0.09
271.505	0.03
271.877	0.11
272.25	-0.03
272.622	-0.02
272.994	0.07
273.366	-0.01
273.739	0.04
274.111	0.07
274.483	0.01
274.855	0.02
275.227	0.06
275.599	0.04
275.971	0.08
276.343	0.06
276.715	0.13
277.087	0.02
277.459	0.1
277.831	-0.02
278.203	0.07
278.574	0.02
278.946	-0.04
279.318	0.04
279.69	0.01
280.061	0.05
280.433	0.05
280.805	0.05
281.176	0.05
281.548	0.09
281.92	0.08
282.291	0.09
282.663	0.13
283.034	-0.02
283.406	0.01
283.777	0.03
284.148	0.08
284.52	0.11
284.891	0.08
285.262	0.04
285.634	0.02
286.005	0.04
286.376	0.06
286.747	-0.03
287.119	-0.01
287.49	0
287.861	0.08
288.232	0.12
288.603	0.22
288.974	0.16
289.345	0.09
289.716	0.03
290.087	0.08
290.458	0.07
290.829	0.14
291.2	0.06
291.571	0.02
291.941	0.09
292.312	-0.02
292.683	0.06
293.054	0.09
293.424	0.02
293.795	0.05
294.166	-0.04
294.536	0.02
294.907	-0
295.277	0.09
295.648	0.03
296.018	0.14
296.389	0.03
296.759	0.09
297.13	0.09
297.5	0.05
297.871	0.07
298.241	0.03
298.611	0.05
298.981	0.12
299.352	0.03
299.722	0.03
300.092	0.05
300.462	0.08
300.832	0.06
301.202	0.07
301.573	0.03
301.943	0.01
302.313	0.08
302.683	0.03
303.053	0.04
303.422	0.04
303.792	0.1
304.162	-0
304.532	0.09
304.902	-0.07
305.272	0.03
305.641	0.11
306.011	0.03
306.381	0.07
306.75	-0.01
307.12	0.04
307.49	0
307.859	-0.02
308.229	0.05
308.598	0.11
308.968	0.03
309.337	0.05
309.707	0.07
310.076	0.07
310.445	0.07
310.815	0.08
311.184	0.1
311.553	0.05
311.923	0.08
312.292	0.05
312.661	0.07
313.03	0.04
313.399	0.09
313.768	0.03
314.137	0.08
314.506	0.05
314.875	0.09
315.244	0.05
315.613	0.06
315.982	0.06
316.351	0.04
316.72	0.07
317.089	0.1
317.458	0.08
317.826	0.08
318.195	0.07
318.564	0.06
318.933	0.08
319.301	0.07
319.67	0.07
320.038	0.08
320.407	0.08
320.775	0.09
321.144	0.08
321.512	0.09
321.881	0.08
322.249	0.08
322.618	0.08
322.986	0.09
323.354	0.07
323.723	0.05
324.091	0.08
324.459	0.08
324.827	0.08
325.195	0.09
325.564	0.09
325.932	0.06
326.3	0.07
326.668	0.08
327.036	0.08
327.404	0.06
327.772	0.06
328.14	0.06
328.508	0.07
328.875	0.08
329.243	0.08
329.611	0.08
329.979	0.07
330.346	0.06
330.714	0.08
331.082	0.07
331.449	0.07
331.817	0.07
332.185	0.06
332.552	0.08
332.92	0.07
333.287	0.07
333.655	0.09
334.022	0.08
334.389	0.08
334.757	0.08
335.124	0.07
335.491	0.08
335.859	0.08
336.226	0.08
336.593	0.08
336.96	0.08
337.327	0.08
337.695	0.08
338.062	0.08
338.429	0.09
338.796	0.08
339.163	0.08
339.53	0.08
339.897	0.09
340.263	0.09
340.63	0.09
340.997	0.1
341.364	0.09
341.731	0.09
342.097	0.1
342.464	0.1
342.831	0.1
343.197	0.1
343.564	0.1
343.931	0.1
344.297	0.1
344.664	0.11
345.03	0.11
345.396	0.1
345.763	0.11
346.129	0.12
346.496	0.11
346.862	0.11
347.228	0.11
347.594	0.12
347.961	0.11
348.327	0.11
348.693	0.12
349.059	0.12
349.425	0.12
349.791	0.13
350.157	0.13
350.523	0.13
350.889	0.13
351.255	0.14
351.621	0.14
351.987	0.14
352.353	0.14
352.719	0.13
353.084	0.14
353.45	0.15
353.816	0.14
354.181	0.14
354.547	0.15
354.913	0.15
355.278	0.15
355.644	0.16
356.009	0.16
356.375	0.17
356.74	0.17
357.106	0.16
357.471	0.17
357.836	0.17
358.202	0.17
358.567	0.18
358.932	0.18
359.297	0.18
359.663	0.18
360.028	0.18
360.393	0.18
360.758	0.19
361.123	0.19
361.488	0.19
361.853	0.19
362.218	0.2
362.583	0.2
362.948	0.19
363.312	0.19
363.677	0.2
364.042	0.2
364.407	0.2
364.772	0.21
365.136	0.2
365.501	0.21
365.865	0.21
366.23	0.21
366.595	0.22
366.959	0.22
367.324	0.22
367.688	0.22
368.052	0.23
368.417	0.23
368.781	0.23
369.145	0.23
369.51	0.23
369.874	0.24
370.238	0.23
370.602	0.23
370.967	0.24
371.331	0.23
371.695	0.23
372.059	0.22
372.423	0.23
372.787	0.22
373.151	0.22
373.515	0.22
373.878	0.22
374.242	0.23
374.606	0.22
374.97	0.21
375.334	0.22
375.697	0.21
376.061	0.22
376.425	0.21
376.788	0.22
377.152	0.21
377.515	0.22
377.879	0.22
378.242	0.22
378.606	0.22
378.969	0.22
379.333	0.22
379.696	0.22
380.059	0.22
380.422	0.22
380.786	0.23
381.149	0.23
381.512	0.24
381.875	0.24
382.238	0.25
382.601	0.25
382.964	0.25
383.327	0.26
383.69	0.27
384.053	0.27
384.416	0.28
384.779	0.28
385.142	0.29
385.504	0.29
385.867	0.29
386.23	0.3
386.593	0.3
386.955	0.31
387.318	0.3
387.68	0.3
388.043	0.3
388.405	0.3
388.768	0.3
389.13	0.3
389.493	0.29
389.855	0.29
390.217	0.28
390.58	0.28
390.942	0.29
391.304	0.29
391.666	0.29
392.028	0.29
392.391	0.3
392.753	0.31
393.115	0.32
393.477	0.32
393.839	0.34
394.201	0.35
394.563	0.36
394.924	0.37
395.286	0.38
395.648	0.4
396.01	0.42
396.371	0.43
396.733	0.44
397.095	0.44
397.456	0.44
397.818	0.45
398.18	0.45
398.541	0.44
398.903	0.44
399.264	0.42
399.625	0.41
399.987	0.38
400.348	0.37
400.709	0.36
401.071	0.35
401.432	0.33
401.793	0.32
402.154	0.29
402.515	0.28
402.876	0.26
403.238	0.24
403.599	0.24
403.96	0.21
404.32	0.2
404.681	0.19
405.042	0.18
405.403	0.17
405.764	0.16
406.125	0.15
406.485	0.14
406.846	0.13
407.207	0.13
407.567	0.13
407.928	0.12
408.288	0.13
408.649	0.12
409.009	0.11
409.37	0.11
409.73	0.1
410.091	0.1
410.451	0.09
410.811	0.1
411.171	0.09
411.532	0.09
411.892	0.09
412.252	0.09
412.612	0.08
412.972	0.09
413.332	0.08
413.692	0.08
414.052	0.08
414.412	0.07
414.772	0.07
415.132	0.08
415.492	0.09
415.851	0.07
416.211	0.06
416.571	0.07
416.931	0.08
417.29	0.08
417.65	0.07
418.009	0.07
418.369	0.06
418.728	0.08
419.088	0.07
419.447	0.07
419.807	0.07
420.166	0.07
420.525	0.08
420.884	0.08
421.244	0.05
421.603	0.09
421.962	0.06
422.321	0.07
422.68	0.05
423.039	0.06
423.398	0.07
423.757	0.05
424.116	0.09
424.475	0.08
424.834	0.07
425.193	0.08
425.551	0.06
425.91	0.06
426.269	0.06
426.628	0.06
426.986	0.07
427.345	0.06
427.703	0.05
428.062	0.07
428.42	0.07
428.779	0.05
429.137	0.06
429.496	0.05
429.854	0.08
430.212	0.06
430.57	0.06
430.929	0.04
431.287	0.04
431.645	0.06
432.003	0.05
432.361	0.06
432.719	0.07
433.077	0.06
433.435	0.07
433.793	0.08
434.151	0.08
434.509	0.07
434.866	0.06
435.224	0.06
435.582	0.05
435.94	0.06
436.297	0.06
436.655	0.05
437.012	0.06
437.37	0.05
437.727	0.04
438.085	0.06
438.442	0.04
438.8	0.06
439.157	0.1
439.514	0.07
439.872	0.05
440.229	0.06
440.586	0.06
440.943	0.06
441.3	0.06
441.657	0.05
442.014	0.06
442.371	0.06
442.728	0.07
443.085	0.05
443.442	0.06
443.799	0.06
444.156	0.06
444.513	0.06
444.869	0.07
445.226	0.04
445.583	0.08
445.939	0.03
446.296	0.05
446.652	0.05
447.009	0.07
447.365	0.06
447.722	0.05
448.078	0.06
448.434	0.06
448.791	0.07
449.147	0.05
449.503	0.05
449.859	0.07
450.215	0.05
450.571	0.03
450.928	0.07
451.284	0.07
451.64	0.05
451.995	0.05
452.351	0.05
452.707	0.07
453.063	0.07
453.419	0.05
453.775	0.06
454.13	0.05
454.486	0.04
454.842	0.04
455.197	0.08
455.553	0.06
455.908	0.07
456.264	0.07
456.619	0.06
456.975	0.05
457.33	0.05
457.685	0.06
458.04	0.06
458.396	0.05
458.751	0.05
459.106	0.06
459.461	0.05
459.816	0.05
460.171	0.05
460.526	0.07
460.881	0.04
461.236	0.05
461.591	0.05
461.946	0.04
462.301	0.06
462.655	0.03
463.01	0.07
463.365	0.06
463.719	0.05
464.074	0.06
464.428	0.07
464.783	0.06
465.137	0.05
465.492	0.04
465.846	0.06
466.201	0.06
466.555	0.04
466.909	0.05
467.263	0.04
467.618	0.06
467.972	0.05
468.326	0.06
468.68	0.05
469.034	0.06
469.388	0.06
469.742	0.06
470.096	0.05
470.45	0.06
470.804	0.06
471.157	0.04
471.511	0.05
471.865	0.06
472.218	0.06
472.572	0.05
472.926	0.06
473.279	0.06
473.633	0.05
473.986	0.05
474.34	0.04
474.693	0.06
475.046	0.05
475.4	0.05
475.753	0.04
476.106	0.05
476.459	0.05
476.812	0.04
477.165	0.05
477.519	0.04
477.872	0.04
478.224	0.05
478.577	0.04
478.93	0.04
479.283	0.05
479.636	0.04
479.989	0.05
480.341	0.05
480.694	0.05
481.047	0.05
481.399	0.04
481.752	0.04
482.104	0.05
482.457	0.04
482.809	0.05
483.162	0.05
483.514	0.04
483.866	0.04
484.219	0.05
484.571	0.05
484.923	0.05
485.275	0.04
485.627	0.04
485.979	0.04
486.331	0.04
486.683	0.04
487.035	0.04
487.387	0.02
487.739	0.04
488.091	0.04
488.443	0.06
488.794	0.06
489.146	0.06
489.498	0.05
489.849	0.06
490.201	0.05
490.552	0.05
490.904	0.05
491.255	0.05
491.607	0.05
491.958	0.05
492.309	0.05
492.661	0.05
493.012	0.05
493.363	0.05
493.714	0.05
494.065	0.05
494.416	0.05
494.767	0.05
495.118	0.05
495.469	0.05
495.82	0.05
496.171	0.05
496.522	0.05
496.872	0.05
497.223	0.05
497.574	0.04
497.924	0.05
498.275	0.05
498.626	0.06
498.976	0.06
499.327	0.06
499.677	0.06
500.027	0.06
500.378	0.05
500.728	0.06
501.078	0.06
501.428	0.06
501.779	0.06
502.129	0.06
502.479	0.06
502.829	0.05
503.179	0.05
503.529	0.06
503.879	0.06
504.229	0.06
504.578	0.06
504.928	0.06
505.278	0.06
505.628	0.07
505.977	0.06
506.327	0.06
506.676	0.06
507.026	0.06
507.375	0.06
507.725	0.06
508.074	0.07
508.424	0.06
508.773	0.07
509.122	0.06
509.471	0.06
509.82	0.06
510.17	0.07
510.519	0.07
510.868	0.07
511.217	0.07
511.566	0.07
511.915	0.06
512.263	0.06
512.612	0.07
512.961	0.07
513.31	0.07
513.659	0.07
514.007	0.07
514.356	0.07
514.704	0.07
515.053	0.07
515.401	0.07
515.75	0.07
516.098	0.07
516.447	0.08
516.795	0.08
517.143	0.08
517.491	0.07
517.839	0.07
518.188	0.07
518.536	0.07
518.884	0.08
519.232	0.08
519.58	0.08
519.928	0.08
520.275	0.08
520.623	0.07
520.971	0.07
521.319	0.08
521.666	0.08
522.014	0.08
522.362	0.08
522.709	0.08
523.057	0.08
523.404	0.08
523.752	0.08
524.099	0.08
524.446	0.08
524.794	0.08
525.141	0.08
525.488	0.08
525.835	0.08
526.182	0.08
526.529	0.08
526.876	0.09
527.223	0.08
527.57	0.08
527.917	0.08
528.264	0.08
528.611	0.08
528.958	0.09
529.304	0.09
529.651	0.09
529.998	0.09
530.344	0.08
530.691	0.09
531.037	0.09
531.384	0.09
531.73	0.08
532.076	0.09
532.423	0.1
532.769	0.09
533.115	0.09
533.461	0.09
533.807	0.09
534.154	0.09
534.5	0.09
534.846	0.09
535.192	0.09
535.537	0.09
535.883	0.09
536.229	0.09
536.575	0.1
536.921	0.09
537.266	0.1
537.612	0.1
537.957	0.1
538.303	0.1
538.649	0.09
538.994	0.09
539.339	0.09
539.685	0.1
540.03	0.09
540.375	0.1
540.721	0.1
541.066	0.1
541.411	0.1
541.756	0.1
542.101	0.1
542.446	0.1
542.791	0.1
543.136	0.1
543.481	0.11
543.825	0.1
544.17	0.1
544.515	0.1
544.86	0.1
545.204	0.11
545.549	0.1
545.893	0.1
546.238	0.11
546.582	0.11
546.927	0.11
547.271	0.11
547.615	0.12
547.96	0.11
548.304	0.11
548.648	0.11
548.992	0.11
549.336	0.11
549.68	0.11
550.024	0.11
550.368	0.11
550.712	0.12
551.056	0.12
551.4	0.12
551.743	0.12
552.087	0.12
552.431	0.12
552.774	0.12
553.118	0.12
553.462	0.11
553.805	0.11
554.148	0.11
554.492	0.11
554.835	0.12
555.178	0.12
555.522	0.11
555.865	0.12
556.208	0.12
556.551	0.12
556.894	0.12
557.237	0.11
557.58	0.12
557.923	0.12
558.266	0.12
558.609	0.12
558.952	0.12
559.294	0.12
559.637	0.12
559.98	0.12
560.322	0.12
560.665	0.12
561.007	0.12
561.35	0.12
561.692	0.12
562.034	0.11
562.377	0.11
562.719	0.12
563.061	0.12
563.403	0.12
563.745	0.12
564.088	0.13
564.43	0.12
564.772	0.12
565.113	0.12
565.455	0.12
565.797	0.12
566.139	0.13
566.481	0.12
566.822	0.13
567.164	0.12
567.506	0.12
567.847	0.12
568.189	0.12
568.53	0.12
568.872	0.12
569.213	0.11
569.554	0.12
569.895	0.12
570.237	0.12
570.578	0.12
570.919	0.11
571.26	0.12
571.601	0.12
571.942	0.12
572.283	0.12
572.624	0.12
572.965	0.11
573.306	0.11
573.646	0.11
573.987	0.12
574.328	0.12
574.668	0.12
575.009	0.12
575.349	0.11
575.69	0.12
576.03	0.12
576.37	0.12
576.711	0.11
577.051	0.12
577.391	0.12
577.731	0.12
578.072	0.12
578.412	0.12
578.752	0.12
579.092	0.11
579.431	0.1
579.771	0.1
580.111	0.1
580.451	0.12
580.791	0.13
581.13	0.12
581.47	0.12
581.81	0.12
582.149	0.12
582.489	0.12
582.828	0.1
583.167	0.09
583.507	0.08
583.846	0.07
584.185	0.09
584.525	0.11
584.864	0.12
585.203	0.13
585.542	0.13
585.881	0.13
586.22	0.12
586.559	0.11
586.898	0.11
587.236	0.11
587.575	0.12
587.914	0.12
588.252	0.13
588.591	0.13
588.93	0.12
589.268	0.12
589.607	0.12
589.945	0.12
590.283	0.13
590.622	0.13
590.96	0.14
591.298	0.14
591.636	0.13
591.974	0.13
592.313	0.14
592.651	0.14
592.989	0.14
593.326	0.13
593.664	0.13
594.002	0.13
594.34	0.12
594.678	0.12
595.015	0.12
595.353	0.13
595.691	0.13
596.028	0.15
596.366	0.14
596.703	0.14
597.04	0.13
597.378	0.14
597.715	0.15
598.052	0.15
598.389	0.15
598.726	0.14
599.064	0.14
599.401	0.13
599.738	0.14
600.074	0.14
600.411	0.13
600.748	0.13
601.085	0.13
601.422	0.13
601.758	0.13
602.095	0.13
602.432	0.14
602.768	0.14
603.105	0.15
603.441	0.15
603.777	0.15
604.114	0.15
604.45	0.15
604.786	0.14
605.122	0.14
605.459	0.14
605.795	0.14
606.131	0.14
606.467	0.15
606.803	0.14
607.139	0.14
607.474	0.13
607.81	0.14
608.146	0.14
608.482	0.14
608.817	0.14
609.153	0.13
609.488	0.13
609.824	0.14
610.159	0.15
610.495	0.14
610.83	0.15
611.165	0.15
611.5	0.14
611.836	0.14
612.171	0.14
612.506	0.14
612.841	0.14
613.176	0.14
613.511	0.14
613.845	0.14
614.18	0.14
614.515	0.14
614.85	0.13
615.184	0.13
615.519	0.14
615.854	0.13
616.188	0.13
616.523	0.13
616.857	0.13
617.191	0.13
617.526	0.14
617.86	0.14
618.194	0.14
618.528	0.14
618.862	0.14
619.196	0.14
619.53	0.14
619.864	0.13
620.198	0.13
620.532	0.13
620.866	0.13
621.2	0.13
621.533	0.13
621.867	0.13
622.201	0.13
622.534	0.13
622.868	0.13
623.201	0.13
623.534	0.12
623.868	0.12
624.201	0.12
624.534	0.12
624.868	0.13
625.201	0.12
625.534	0.13
625.867	0.13
626.2	0.12
626.533	0.13
626.865	0.13
627.198	0.13
627.531	0.13
627.864	0.12
628.196	0.12
628.529	0.12
628.862	0.12
629.194	0.12
629.527	0.12
629.859	0.12
630.191	0.12
630.524	0.12
630.856	0.11
631.188	0.11
631.52	0.11
631.852	0.11
632.184	0.12
632.516	0.11
632.848	0.11
633.18	0.11
633.512	0.11
633.844	0.11
634.175	0.11
634.507	0.11
634.839	0.11
635.17	0.11
635.502	0.11
635.833	0.1
636.165	0.1
636.496	0.1
636.827	0.1
637.159	0.1
637.49	0.1
637.821	0.1
638.152	0.09
638.483	0.1
638.814	0.1
639.145	0.1
639.476	0.1
639.807	0.1
640.137	0.1
640.468	0.1
640.799	0.1
641.129	0.1
641.46	0.09
641.791	0.09
642.121	0.09
642.451	0.09
642.782	0.09
643.112	0.09
643.442	0.09
643.773	0.09
644.103	0.09
644.433	0.09
644.763	0.09
645.093	0.08
645.423	0.08
645.753	0.09
646.082	0.08
646.412	0.09
646.742	0.08
647.072	0.08
647.401	0.08
647.731	0.08
648.06	0.08
648.39	0.08
648.719	0.08
649.048	0.08
649.378	0.08
649.707	0.08
650.036	0.07
650.365	0.08
650.694	0.08
651.023	0.08
651.352	0.08
651.681	0.08
652.01	0.09
652.339	0.09
652.668	0.08
652.996	0.08
653.325	0.08
653.654	0.08
653.982	0.08
654.311	0.08
654.639	0.08
654.967	0.08
655.296	0.07
655.624	0.08
655.952	0.08
656.28	0.08
656.609	0.08
656.937	0.07
657.265	0.02
657.593	-0.04
657.92	0
658.248	0
658.576	0
658.904	0
659.231	0.05
659.559	0.1
659.887	0.11
660.214	0.11
660.542	0.09
660.869	0.08
661.196	0.08
661.524	0.08
661.851	0.08
662.178	0.08
662.505	0.08
662.832	0.08
663.159	0.08
663.486	0.07
663.813	0.07
664.14	0.07
664.467	0.08
664.794	0.08
665.12	0.08
665.447	0.08
665.774	0.07
666.1	0.07
666.427	0.07
666.753	0.07
667.079	0.08
667.406	0.08
667.732	0.07
668.058	0.08
668.384	0.08
668.71	0.08
669.036	0.07
669.362	0.07
669.688	0.07
670.014	0.08
670.34	0.07
670.666	0.07
670.991	0.07
671.317	0.07
671.643	0.07
671.968	0.07
672.294	0.07
672.619	0.07
672.945	0.06
673.27	0.06
673.595	0.06
673.92	0.06
674.246	0.06
674.571	0.07
674.896	0.07
675.221	0.07
675.546	0.07
675.87	0.07
676.195	0.07
676.52	0.07
676.845	0.06
677.169	0.06
677.494	0.06
677.819	0.06
678.143	0.06
678.468	0.06
678.792	0.06
679.116	0.06
679.44	0.06
679.765	0.06
680.089	0.06
680.413	0.06
680.737	0.06
681.061	0.06
681.385	0.06
681.709	0.06
682.033	0.06
682.356	0.06
682.68	0.06
683.004	0.05
683.327	0.05
683.651	0.05
683.974	0.05
684.298	0.05
684.621	0.05
684.944	0.05
685.268	0.05
685.591	0.05
685.914	0.04
686.237	0.05
686.56	0.04
686.883	0.04
687.206	0.05
687.529	0.05
687.852	0.05
688.175	0.05
688.497	0.05
688.82	0.05
689.142	0.05
689.465	0.05
689.787	0.05
690.11	0.05
690.432	0.04
690.755	0.05
691.077	0.04
691.399	0.04
691.721	0.04
692.043	0.04
692.365	0.04
692.687	0.04
693.009	0.04
693.331	0.03
693.653	0.04
693.974	0.04
694.296	0.04
694.618	0.04
694.939	0.04
695.261	0.04
695.582	0.04
695.904	0.04
696.225	0.04
696.546	0.04
696.868	0.03
697.189	0.03
697.51	0.03
697.831	0.04
698.152	0.04
698.473	0.03
698.794	0.02
699.114	0.02
699.435	0.03
699.756	0.04
700.077	0.04
700.397	0.04
700.718	0.04
701.038	0.03
701.359	0.03
701.679	0.03
701.999	0.03
702.32	0.03
702.64	0.03
702.96	0.03
703.28	0.03
703.6	0.03
703.92	0.03
704.24	0.02
704.56	0.03
704.879	0.03
705.199	0.03
705.519	0.03
705.838	0.03
706.158	0.03
706.478	0.03
706.797	0.03
707.116	0.03
707.436	0.03
707.755	0.03
708.074	0.02
708.393	0.02
708.712	0.02
709.031	0.02
709.35	0.03
709.669	0.03
709.988	0.03
710.307	0.03
710.626	0.03
710.944	0.03
711.263	0.03
711.582	0.03
711.9	0.03
712.219	0.03
712.537	0.03
712.855	0.02
713.174	0.03
713.492	0.02
713.81	0.03
714.128	0.03
714.446	0.02
714.764	0.03
715.082	0.02
715.4	0.03
715.718	0.03
716.035	0.03
716.353	0.03
716.671	0.03
716.988	0.03
717.306	0.03
717.623	0.04
717.941	0.04
718.258	0.03
718.575	0.03
718.893	0.03
719.21	0.03
719.527	0.03
719.844	0.03
720.161	0.03
720.478	0.03
720.795	0.03
721.112	0.03
721.428	0.03
721.745	0.03
722.062	0.04
722.378	0.03
722.695	0.03
723.011	0.03
723.328	0.03
723.644	0.03
723.96	0.03
724.276	0.03
724.593	0.03
724.909	0.03
725.225	0.03
725.541	0.03
725.857	0.03
726.173	0.03
726.488	0.03
726.804	0.02
727.12	0.03
727.435	0.03
727.751	0.03
728.067	0.03
728.382	0.03
728.697	0.03
729.013	0.03
729.328	0.03
729.643	0.02
729.958	0.03
730.273	0.03
730.588	0.03
730.903	0.03
731.218	0.03
731.533	0.03
731.848	0.03
732.163	0.02
732.477	0.02
732.792	0.03
733.107	0.02
733.421	0.03
733.736	0.04
734.05	0.03
734.364	0.03
734.678	0.03
734.993	0.03
735.307	0.03
735.621	0.03
735.935	0.03
736.249	0.03
736.563	0.03
736.877	0.03
737.19	0.03
737.504	0.02
737.818	0.03
738.131	0.04
738.445	0.03
738.758	0.03
739.072	0.03
739.385	0.03
739.698	0.03
740.012	0.03
740.325	0.03
740.638	0.02
740.951	0.02
741.264	0.03
741.577	0.03
741.89	0.04
742.203	0.03
742.515	0.03
742.828	0.03
743.141	0.03
743.453	0.03
743.766	0.03
744.078	0.02
744.391	0.03
744.703	0.03
745.015	0.03
745.327	0.03
745.639	0.03
745.952	0.03
746.264	0.03
746.575	0.03
746.887	0.02
747.199	0.03
747.511	0.02
747.823	0.02
748.134	0.02
748.446	0.02
748.757	0.03
749.069	0.02
749.38	0.03
749.692	0.03
750.003	0.03
750.314	0.02
750.625	0.02
750.936	0.02
751.248	0.02
751.559	0.02
751.869	0.02
752.18	0.02
752.491	0.03
752.802	0.03
753.112	0.02
753.423	0.03
753.734	0.02
754.044	0.03
754.355	0.02
754.665	0.02
754.975	0.02
755.285	0.02
755.596	0.02
755.906	0.03
756.216	0.02
756.526	0.02
756.836	0.02
757.146	0.02
757.455	0.02
757.765	0.02
758.075	0.02
758.385	0.01
758.694	0.01
759.004	0.01
759.313	0.02
759.622	0.02
759.932	0.02
760.241	0.02
760.55	0.02
760.859	0.02
761.168	0.02
761.477	0.02
761.786	0.02
762.095	0.02
762.404	0.02
762.713	0.02
763.021	0.02
763.33	0.02
763.639	0.02
763.947	0.02
764.256	0.02
764.564	0.02
764.872	0.02
765.181	0.02
765.489	0.01
765.797	0.01
766.105	0.01
766.413	0.01
766.721	0.02
767.029	0.02
767.337	0.02
767.644	0.02
767.952	0.02
768.26	0.03
768.567	0.02
768.875	0.02
769.182	0.02
769.49	0.01
769.797	0.01
770.104	0.01
770.411	0.02
770.718	0.02
771.026	0.02
771.333	0.02
771.639	0.01
771.946	0.01
772.253	0.01
772.56	0.01
772.867	0.02
773.173	0.02
773.48	0.02
773.786	0.02
774.093	0.02
774.399	0.01
774.705	0.02
775.012	0.01
775.318	0.02
775.624	0.02
775.93	0.02
776.236	0.02
776.542	0.02
776.848	0.01
777.154	0.02
777.459	0.02
777.765	0.01
778.071	0.02
778.376	0.02
778.682	0.01
778.987	0.01
779.292	0.01
779.598	0.01
779.903	0.01
780.208	0.01
780.513	0.02
780.818	0.02
781.123	0.02
781.428	0.02
781.733	0.02
782.038	0.01
782.343	0.01
782.647	0.01
782.952	0.01
783.256	0.02
783.561	0.01
783.865	0.02
784.17	0.01
784.474	0.01
784.778	0.02
785.082	0.02
785.386	0.02
785.69	0.01
785.994	0.02
786.298	0.01
786.602	0.01
786.906	0.01
787.209	0.01
787.513	0.02
787.817	0.01
788.12	0.02
788.424	0.02
788.727	0.01
789.03	0.01
789.333	0.02
789.637	0.01
789.94	0.01
790.243	0.01
790.546	0.01
790.849	0.02
791.152	0.01
791.454	0.02
791.757	0.01
792.06	0.01
792.362	0.02
792.665	0.01
792.967	0.01
793.27	0.01
793.572	0.01
793.874	0.01
794.177	0.01
794.479	0.01
794.781	0.01
795.083	0.01
795.385	0.01
795.687	0.01
795.989	0.01
796.29	0.01
796.592	0.02
796.894	0.02
797.195	0.02
797.497	0.02
797.798	0.02
798.1	0.02
798.401	0.02
798.702	0.01
799.003	0.02
799.304	0.01
799.605	0.01
799.906	0.02
800.207	0.01
800.508	0.02
800.809	0.02
801.11	0.02
801.41	0.02
801.711	0.02
802.011	0.01
802.312	0.01
802.612	0.01
802.913	0.01
803.213	0.01
803.513	0.01
803.813	0.01
804.113	0.01
804.413	0.01
804.713	0.01
805.013	0.01
805.313	0.01
805.613	0.01
805.912	0.01
806.212	0.01
806.511	0.01
806.811	0
807.11	0.01
807.41	0.01
807.709	0
808.008	0.01
808.307	0.01
808.606	0.01
808.905	0.02
809.204	0.01
809.503	0.02
809.802	0.02
810.101	0.02
810.399	0.01
810.698	0.02
810.997	0.02
811.295	0.01
811.593	0.01
811.892	0.02
812.19	0.02
812.488	0.01
812.786	0.02
813.084	0.02
813.383	0.01
813.68	0.02
813.978	0.01
814.276	0.02
814.574	0.02
814.872	0.02
815.169	0.01
815.467	0.01
815.764	0.01
816.062	0.02
816.359	0.01
816.656	0.02
816.954	0.02
817.251	0.01
817.548	0.02
817.845	0.02
818.142	0.01
818.439	0.02
818.735	0.02
819.032	0.01
819.329	0.01
819.626	0.01
819.922	0.01
820.219	0.02
820.515	0.02
820.811	0.01
821.108	0.01
821.404	0.01
821.7	0
821.996	0
822.292	0.01
822.588	-0
822.884	0
823.18	0.01
823.475	0.01
823.771	-0
824.067	0.01
824.362	0.02
824.658	0.01
824.953	0.01
825.249	0.01
825.544	0.02
825.839	0.02
826.134	0.01
826.429	0.01
826.724	0.01
827.019	0.01
827.314	0.01
827.609	0.01
827.904	0.01
828.198	0.01
828.493	0.01
828.787	0.01
829.082	0.01
829.376	0
829.671	0.01
829.965	0.02
830.259	0.01
830.553	0.02
830.847	0.01
831.141	0.01
831.435	0.01
831.729	0.01
832.023	0.01
832.317	0.01
832.61	0.01
832.904	0.01
833.197	0.01
833.491	0.01
833.784	0.01
834.077	0.02
834.371	0
834.664	0.01
834.957	-0
835.25	0.01
835.543	0.01
835.836	0.01
836.129	0.01
836.421	0.01
836.714	0.01
837.007	0.01
837.299	0.02
837.592	0.01
837.884	0.01
838.177	0
838.469	0
838.761	0
839.053	0
839.345	0.01
839.637	0.02
839.929	0.01
840.221	0.02
840.513	0.01
840.805	0
841.096	0.02
841.388	0.01
841.68	0.01
841.971	0.01
842.262	0.01
842.554	0
842.845	0.01
843.136	0.02
843.427	0.01
843.718	0.02
844.009	0.02
844.3	0.02
844.591	0
844.882	0.02
845.173	-0
845.463	0.01
845.754	0.01
846.044	0.01
846.335	-0
846.625	0.01
846.915	-0
847.206	0.01
847.496	-0
847.786	0.01
848.076	-0
848.366	-0.01
848.656	-0
848.945	0
849.235	-0
849.525	-0
849.814	0.01
850.104	-0
850.393	-0.02
850.683	0
850.972	0.01
851.261	0.01
851.551	0.01
851.84	0.01
852.129	-0
852.418	-0.01
852.707	-0
852.995	-0
853.284	-0
853.573	0.02
853.862	-0.02
854.15	-0.01
854.439	0.01
854.727	0
855.015	-0.01
855.304	0.01
855.592	0.02
855.88	0
856.168	0.03
856.456	0.01
856.744	0.01
857.032	-0
857.32	-0.01
857.607	0.01
857.895	-0.01
858.183	0.01
858.47	0.01
858.757	0
859.045	0
859.332	-0.02
859.619	-0.01
859.907	-0.01
860.194	0.02
860.481	0.02
860.768	0.01
861.054	-0.02
861.341	-0.03
861.628	0.02
861.915	0.01
862.201	-0.02
862.488	-0.02
862.774	-0.03
863.061	-0.03
863.347	0.02
863.633	0.02
863.919	0.02
864.205	0.02
864.491	0
864.777	0.01
865.063	0.01
865.349	0.03
865.635	0.02
865.92	-0.04
866.206	-0.01
866.492	-0.02
866.777	0.02
867.062	-0.03
867.348	0
867.633	-0.01
867.918	0.01
868.203	-0.02
868.488	-0.03
868.773	0.01
869.058	0.02
869.343	0.02
869.628	-0.04
869.912	-0
870.197	-0.03
870.482	-0.02
870.766	0.04
871.05	0.01
871.335	-0.06
871.619	-0.02
871.903	-0.07
872.187	-0.03
872.471	0.01
872.755	-0.03
873.039	-0.04
873.323	-0.03
873.607	-0.03
873.89	-0.05
874.174	-0.01
874.458	0.02
874.741	-0.12
875.024	-0.07
875.308	-0.07
875.591	-0.03
875.874	-0.09
876.157	-0.02
876.44	-0.09
876.723	-0.04
877.006	-0.11
877.289	-0.04
877.572	-0.06
877.854	-0.15
878.137	-0.17
878.42	-0.1
878.702	-0.08
878.984	-0.1
879.267	-0.08
879.549	-0.06
879.831	0.02
880.113	0.04
880.395	-0.03
880.677	-0.05
880.959	-0.07
