Data from Rubpy_EV_EDTA_Flow_Absorbance_15-08-59-501.txt Node
Date: Fri Jul 03 15:08:59 BST 2026
User: fpm-admin
Spectrometer: OFX00224
Trigger mode: 0
Integration Time (sec): 1.200000E-2
Scans to average: 3
Nonlinearity correction enabled: false
Boxcar width: 0
Storing dark spectrum: false
XAxis mode: Wavelengths
Number of Pixels in Spectrum: 2136
>>>>>Begin Spectral Data<<<<<
154.91	-0
155.289	-0.24
155.669	0.37
156.048	0.41
156.428	-0.14
156.807	-0.09
157.186	0.24
157.566	1.04
157.945	-0
158.325	-0.06
158.704	-0
159.083	0.46
159.462	-0.7
159.842	-0.48
160.221	-0
160.6	-0
160.979	-0
161.359	0.48
161.738	-0
162.117	0.19
162.496	-0
162.875	-1
163.254	-0
163.633	0.11
164.012	0.74
164.391	-1.31
164.77	0.76
165.149	-0
165.528	-0
165.907	-0
166.286	-0
166.665	-0.14
167.044	-0
167.423	-0
167.802	0.15
168.181	0.22
168.559	-0
168.938	-0.3
169.317	-0
169.696	0.21
170.074	-0.08
170.453	-0
170.832	-0
171.21	-0
171.589	-0.3
171.968	0.37
172.346	-0
172.725	0.96
173.103	-0.05
173.482	0.34
173.861	-0
174.239	0.13
174.617	-0.24
174.996	0.11
175.374	0.58
175.753	-0
176.131	-0
176.51	0.02
176.888	-0
177.266	-0.64
177.645	0.09
178.023	-0
178.401	-0.01
178.779	-0.01
179.158	-0
179.536	0.21
179.914	-0
180.292	-0
180.67	0.14
181.048	-0
181.427	-0
181.805	-0
182.183	0.9
182.561	-0
182.939	-0
183.317	-0
183.695	0.16
184.073	0.58
184.451	-0
184.829	-0
185.206	-0
185.584	0.05
185.962	-0.18
186.34	-0.07
186.718	-0
187.096	-0
187.473	-0
187.851	-0.39
188.229	0.16
188.607	-0.03
188.984	-0.06
189.362	-0.06
189.74	0.02
190.117	-0.09
190.495	0.03
190.872	0.08
191.25	-0.03
191.627	0.19
192.005	-0.01
192.382	0
192.76	-0.02
193.137	-0.07
193.515	-0.03
193.892	0.07
194.269	0.05
194.647	-0.1
195.024	-0.03
195.401	0.03
195.779	0.11
196.156	0.03
196.533	-0.08
196.91	-0.11
197.288	0.06
197.665	0.03
198.042	-0.04
198.419	-0.06
198.796	-0.01
199.173	0.06
199.55	-0.03
199.927	0.01
200.304	-0.01
200.681	-0.05
201.058	-0.04
201.435	0.01
201.812	-0.01
202.189	-0.01
202.566	-0
202.943	-0.08
203.32	0.01
203.697	-0.08
204.073	0.03
204.45	-0.06
204.827	-0.06
205.204	-0.06
205.58	-0.05
205.957	-0.01
206.334	-0.06
206.71	0.03
207.087	-0.04
207.464	-0.06
207.84	-0.06
208.217	0.06
208.593	-0.05
208.97	-0.04
209.346	-0.09
209.723	-0.06
210.099	-0.01
210.476	0.02
210.852	-0.02
211.228	-0.05
211.605	-0.07
211.981	-0.05
212.357	0.03
212.733	0.02
213.11	0.04
213.486	-0.03
213.862	0.05
214.238	0.05
214.614	-0.04
214.991	-0.02
215.367	-0.03
215.743	-0.01
216.119	-0.05
216.495	-0
216.871	-0.12
217.247	0.05
217.623	0.02
217.999	0.09
218.375	-0
218.751	0.05
219.127	-0.11
219.502	0.04
219.878	0.06
220.254	-0.03
220.63	-0.01
221.006	-0.02
221.381	-0.08
221.757	-0.08
222.133	0.08
222.508	-0.01
222.884	0.03
223.26	-0.04
223.635	-0.01
224.011	0.05
224.386	0.03
224.762	-0.03
225.137	-0.02
225.513	-0.03
225.888	-0.07
226.264	-0.06
226.639	0.01
227.014	0.04
227.39	-0.04
227.765	-0.06
228.14	0.05
228.516	-0.08
228.891	0.02
229.266	-0
229.641	-0.04
230.017	-0.09
230.392	-0.06
230.767	-0.1
231.142	-0.04
231.517	0.06
231.892	-0.03
232.267	0.06
232.642	0.01
233.017	0.02
233.392	0.02
233.767	-0.03
234.142	-0.04
234.517	0.01
234.892	-0.1
235.267	-0.04
235.641	-0.02
236.016	-0.03
236.391	-0.05
236.766	-0.03
237.14	-0.02
237.515	0.05
237.89	-0.01
238.264	0.04
238.639	0.08
239.014	-0.06
239.388	0.01
239.763	-0.1
240.137	-0.01
240.512	-0.05
240.886	-0.02
241.261	-0.06
241.635	-0.1
242.009	-0.04
242.384	-0.01
242.758	0.08
243.132	0.01
243.507	0.03
243.881	0.03
244.255	0
244.629	-0.05
245.004	0.05
245.378	-0.06
245.752	-0.11
246.126	-0.09
246.5	0.01
246.874	0
247.248	0.02
247.622	0.04
247.996	-0.02
248.37	0.05
248.744	0.07
249.118	-0.06
249.492	0.11
249.866	-0.04
250.24	-0.01
250.613	-0.02
250.987	-0.08
251.361	0.05
251.735	-0.02
252.108	-0.02
252.482	0
252.856	-0.07
253.229	-0.06
253.603	-0.02
253.977	-0.07
254.35	-0.01
254.724	-0.09
255.097	-0.07
255.471	-0.01
255.844	-0.05
256.218	-0.04
256.591	-0.06
256.964	0.03
257.338	-0.01
257.711	-0.06
258.084	0.08
258.458	-0.03
258.831	-0.09
259.204	-0.03
259.577	-0.04
259.95	0.01
260.323	-0
260.697	-0.09
261.07	-0.06
261.443	-0
261.816	-0.06
262.189	-0.04
262.562	-0.06
262.935	-0.06
263.308	0.08
263.68	0.07
264.053	-0.02
264.426	-0.01
264.799	-0.02
265.172	-0.1
265.545	-0.01
265.917	-0.12
266.29	0.02
266.663	-0.05
267.035	-0.05
267.408	-0.05
267.781	-0.01
268.153	0.02
268.526	0.12
268.898	-0.04
269.271	-0
269.643	-0.01
270.016	-0.06
270.388	-0.03
270.76	-0.07
271.133	0.03
271.505	-0.04
271.877	0.01
272.25	-0.01
272.622	-0.09
272.994	0.04
273.366	0.02
273.739	0
274.111	-0.01
274.483	-0
274.855	-0.03
275.227	-0.02
275.599	0.02
275.971	0.03
276.343	0.02
276.715	0.12
277.087	0
277.459	0.03
277.831	-0.08
278.203	0.03
278.574	-0.02
278.946	-0.04
279.318	0.09
279.69	-0.03
280.061	0.01
280.433	0.03
280.805	-0.01
281.176	0.01
281.548	0.05
281.92	-0.03
282.291	0.02
282.663	-0.03
283.034	0.01
283.406	0.02
283.777	0.01
284.148	0.04
284.52	0.06
284.891	0.02
285.262	-0.04
285.634	0.04
286.005	-0.01
286.376	-0.06
286.747	-0.04
287.119	-0
287.49	-0.04
287.861	0.08
288.232	0
288.603	0.1
288.974	0.05
289.345	0.07
289.716	-0.07
290.087	0.04
290.458	0.02
290.829	0.08
291.2	-0
291.571	0.02
291.941	0.01
292.312	-0.04
292.683	0.05
293.054	0.06
293.424	-0.06
293.795	0.04
294.166	-0.03
294.536	-0
294.907	-0.02
295.277	0.04
295.648	-0.02
296.018	0.06
296.389	-0.01
296.759	0.02
297.13	0.05
297.5	-0.02
297.871	0.05
298.241	-0.03
298.611	-0.05
298.981	0.04
299.352	-0.03
299.722	-0.01
300.092	0.03
300.462	0.01
300.832	0.05
301.202	-0.02
301.573	0.05
301.943	-0.04
302.313	0.06
302.683	-0
303.053	0.01
303.422	-0
303.792	0.03
304.162	-0.05
304.532	-0.02
304.902	-0.04
305.272	-0.01
305.641	0.05
306.011	-0.04
306.381	0.01
306.75	-0.05
307.12	0.01
307.49	0.05
307.859	-0.03
308.229	0.04
308.598	0.02
308.968	0.03
309.337	-0.01
309.707	0.06
310.076	0.05
310.445	-0.02
310.815	-0.01
311.184	0.01
311.553	0.02
311.923	0.01
312.292	0
312.661	-0.01
313.03	-0.01
313.399	0.03
313.768	-0
314.137	0.02
314.506	0
314.875	0.02
315.244	0.04
315.613	-0.01
315.982	0.03
316.351	0.02
316.72	0.02
317.089	0.03
317.458	0.03
317.826	0.04
318.195	0.03
318.564	0.03
318.933	0.02
319.301	0.03
319.67	0
320.038	0.03
320.407	0.03
320.775	0.03
321.144	0.03
321.512	0.03
321.881	0.02
322.249	0.03
322.618	0.03
322.986	0.03
323.354	0.02
323.723	0.02
324.091	0.02
324.459	0.03
324.827	0.02
325.195	0.03
325.564	0.03
325.932	0.03
326.3	0.03
326.668	0.05
327.036	0.02
327.404	0.02
327.772	0.02
328.14	0.01
328.508	0.02
328.875	0.01
329.243	0.02
329.611	0.02
329.979	0.03
330.346	0.03
330.714	0.03
331.082	0.01
331.449	0
331.817	0.02
332.185	0.01
332.552	0.02
332.92	0.01
333.287	0.02
333.655	0.02
334.022	0.02
334.389	0.01
334.757	0.01
335.124	0.01
335.491	0.01
335.859	0.02
336.226	0.02
336.593	0.02
336.96	0.02
337.327	0.02
337.695	0.02
338.062	0.01
338.429	0.02
338.796	0.01
339.163	0.01
339.53	0.02
339.897	0.02
340.263	0.03
340.63	0.02
340.997	0.02
341.364	0.02
341.731	0.02
342.097	0.02
342.464	0.02
342.831	0.03
343.197	0.02
343.564	0.02
343.931	0.03
344.297	0.02
344.664	0.02
345.03	0.02
345.396	0.02
345.763	0.03
346.129	0.03
346.496	0.03
346.862	0.02
347.228	0.03
347.594	0.02
347.961	0.02
348.327	0.02
348.693	0.03
349.059	0.02
349.425	0.02
349.791	0.03
350.157	0.02
350.523	0.02
350.889	0.03
351.255	0.03
351.621	0.03
351.987	0.03
352.353	0.02
352.719	0.03
353.084	0.03
353.45	0.03
353.816	0.03
354.181	0.03
354.547	0.03
354.913	0.03
355.278	0.03
355.644	0.04
356.009	0.03
356.375	0.03
356.74	0.03
357.106	0.03
357.471	0.04
357.836	0.03
358.202	0.03
358.567	0.03
358.932	0.04
359.297	0.03
359.663	0.03
360.028	0.03
360.393	0.03
360.758	0.04
361.123	0.04
361.488	0.03
361.853	0.03
362.218	0.03
362.583	0.03
362.948	0.03
363.312	0.03
363.677	0.04
364.042	0.03
364.407	0.03
364.772	0.03
365.136	0.03
365.501	0.03
365.865	0.03
366.23	0.03
366.595	0.03
366.959	0.04
367.324	0.03
367.688	0.04
368.052	0.03
368.417	0.03
368.781	0.03
369.145	0.03
369.51	0.03
369.874	0.03
370.238	0.03
370.602	0.04
370.967	0.03
371.331	0.04
371.695	0.04
372.059	0.04
372.423	0.04
372.787	0.04
373.151	0.04
373.515	0.04
373.878	0.03
374.242	0.04
374.606	0.04
374.97	0.03
375.334	0.04
375.697	0.03
376.061	0.03
376.425	0.03
376.788	0.03
377.152	0.03
377.515	0.04
377.879	0.04
378.242	0.04
378.606	0.03
378.969	0.04
379.333	0.03
379.696	0.04
380.059	0.04
380.422	0.04
380.786	0.03
381.149	0.03
381.512	0.04
381.875	0.05
382.238	0.04
382.601	0.05
382.964	0.05
383.327	0.05
383.69	0.05
384.053	0.04
384.416	0.05
384.779	0.05
385.142	0.05
385.504	0.06
385.867	0.06
386.23	0.05
386.593	0.06
386.955	0.05
387.318	0.06
387.68	0.05
388.043	0.06
388.405	0.05
388.768	0.06
389.13	0.05
389.493	0.05
389.855	0.05
390.217	0.05
390.58	0.05
390.942	0.06
391.304	0.06
391.666	0.06
392.028	0.06
392.391	0.06
392.753	0.06
393.115	0.06
393.477	0.06
393.839	0.06
394.201	0.06
394.563	0.05
394.924	0.07
395.286	0.07
395.648	0.08
396.01	0.08
396.371	0.08
396.733	0.08
397.095	0.08
397.456	0.09
397.818	0.09
398.18	0.09
398.541	0.08
398.903	0.08
399.264	0.07
399.625	0.07
399.987	0.07
400.348	0.06
400.709	0.07
401.071	0.08
401.432	0.07
401.793	0.07
402.154	0.06
402.515	0.06
402.876	0.06
403.238	0.06
403.599	0.06
403.96	0.06
404.32	0.05
404.681	0.05
405.042	0.05
405.403	0.05
405.764	0.06
406.125	0.05
406.485	0.04
406.846	0.04
407.207	0.05
407.567	0.05
407.928	0.05
408.288	0.05
408.649	0.04
409.009	0.05
409.37	0.05
409.73	0.05
410.091	0.04
410.451	0.04
410.811	0.04
411.171	0.04
411.532	0.05
411.892	0.05
412.252	0.04
412.612	0.04
412.972	0.05
413.332	0.04
413.692	0.04
414.052	0.04
414.412	0.04
414.772	0.04
415.132	0.04
415.492	0.05
415.851	0.04
416.211	0.04
416.571	0.05
416.931	0.05
417.29	0.04
417.65	0.04
418.009	0.05
418.369	0.04
418.728	0.05
419.088	0.05
419.447	0.05
419.807	0.04
420.166	0.05
420.525	0.05
420.884	0.04
421.244	0.04
421.603	0.05
421.962	0.04
422.321	0.05
422.68	0.03
423.039	0.03
423.398	0.02
423.757	0.03
424.116	0.05
424.475	0.04
424.834	0.05
425.193	0.05
425.551	0.05
425.91	0.04
426.269	0.03
426.628	0.05
426.986	0.05
427.345	0.03
427.703	0.03
428.062	0.04
428.42	0.05
428.779	0.03
429.137	0.04
429.496	0.01
429.854	0.05
430.212	0.04
430.57	0.03
430.929	0.03
431.287	0.02
431.645	0.04
432.003	0.03
432.361	0.05
432.719	0.04
433.077	0.05
433.435	0.05
433.793	0.06
434.151	0.06
434.509	0.03
434.866	0.04
435.224	0.04
435.582	0.04
435.94	0.04
436.297	0.05
436.655	0.03
437.012	0.03
437.37	0.04
437.727	0.03
438.085	0.03
438.442	0.04
438.8	0.03
439.157	0.07
439.514	0.06
439.872	0.04
440.229	0.03
440.586	0.05
440.943	0.05
441.3	0.04
441.657	0.04
442.014	0.02
442.371	0.04
442.728	0.02
443.085	0.03
443.442	0.04
443.799	0.05
444.156	0.04
444.513	0.03
444.869	0.04
445.226	0.03
445.583	0.05
445.939	0.03
446.296	0.04
446.652	0.03
447.009	0.05
447.365	0.03
447.722	0.02
448.078	0.05
448.434	0.04
448.791	0.05
449.147	0.05
449.503	0.04
449.859	0.03
450.215	0.03
450.571	0.03
450.928	0.06
451.284	0.05
451.64	0.04
451.995	0.03
452.351	0.01
452.707	0.04
453.063	0.05
453.419	0.03
453.775	0.04
454.13	0.02
454.486	0.03
454.842	0.02
455.197	0.06
455.553	0.05
455.908	0.04
456.264	0.06
456.619	0.07
456.975	0.04
457.33	0.04
457.685	0.03
458.04	0.03
458.396	0.04
458.751	0.05
459.106	0.03
459.461	0.03
459.816	0.03
460.171	0.04
460.526	0.04
460.881	0.02
461.236	0.02
461.591	0.02
461.946	0.03
462.301	0.04
462.655	0.03
463.01	0.05
463.365	0.03
463.719	0.03
464.074	0.04
464.428	0.03
464.783	0.04
465.137	0.02
465.492	0.03
465.846	0.03
466.201	0.03
466.555	0.02
466.909	0.02
467.263	0
467.618	0.03
467.972	0.04
468.326	0.04
468.68	0.04
469.034	0.04
469.388	0.03
469.742	0.04
470.096	0.02
470.45	0.04
470.804	0.03
471.157	0.02
471.511	0.02
471.865	0.04
472.218	0.04
472.572	0.02
472.926	0.04
473.279	0.03
473.633	0.02
473.986	0.03
474.34	0.02
474.693	0.02
475.046	0.02
475.4	0.01
475.753	0.02
476.106	0.02
476.459	0.02
476.812	0.01
477.165	0.01
477.519	0.01
477.872	0.02
478.224	0.02
478.577	0.02
478.93	0.01
479.283	0.02
479.636	0.01
479.989	0.01
480.341	0.02
480.694	0.02
481.047	0.01
481.399	0.01
481.752	0.01
482.104	0.01
482.457	0
482.809	0.01
483.162	0.02
483.514	0.01
483.866	0.01
484.219	0.02
484.571	0.02
484.923	0.01
485.275	0.01
485.627	0.01
485.979	0
486.331	0.01
486.683	0.01
487.035	-0
487.387	-0.01
487.739	-0
488.091	0.01
488.443	0.03
488.794	0.02
489.146	0.02
489.498	0.02
489.849	0.02
490.201	0.02
490.552	0.02
490.904	0.01
491.255	0.01
491.607	0.01
491.958	0.01
492.309	0.02
492.661	0.01
493.012	0.01
493.363	0.01
493.714	0.01
494.065	0.01
494.416	0.02
494.767	0.01
495.118	0.01
495.469	0.01
495.82	0.01
496.171	0.01
496.522	0.01
496.872	0.01
497.223	0.01
497.574	-0
497.924	0
498.275	0
498.626	0.01
498.976	0.02
499.327	0.02
499.677	0.02
500.027	0.02
500.378	0.01
500.728	0.01
501.078	0.01
501.428	0.01
501.779	0.02
502.129	0.02
502.479	0.01
502.829	0
503.179	0
503.529	0.01
503.879	0.01
504.229	0.01
504.578	0.02
504.928	0.01
505.278	0.01
505.628	0.01
505.977	0.01
506.327	0.01
506.676	0.01
507.026	0.01
507.375	0.01
507.725	0.02
508.074	0.02
508.424	0.01
508.773	0.02
509.122	0.02
509.471	0.01
509.82	0.01
510.17	0.01
510.519	0.02
510.868	0.01
511.217	0.01
511.566	0.01
511.915	0.01
512.263	0.01
512.612	0.01
512.961	0.01
513.31	0.01
513.659	0.01
514.007	0.01
514.356	0.01
514.704	0.01
515.053	0.01
515.401	0.01
515.75	0.01
516.098	0.01
516.447	0.01
516.795	0.02
517.143	0.01
517.491	0.01
517.839	0.01
518.188	0
518.536	0.01
518.884	0.01
519.232	0.01
519.58	0.02
519.928	0.01
520.275	0.01
520.623	0.01
520.971	0.01
521.319	0.01
521.666	0.01
522.014	0.02
522.362	0.01
522.709	0.01
523.057	0.01
523.404	0.01
523.752	0.02
524.099	0.01
524.446	0.01
524.794	0.01
525.141	0.01
525.488	0.01
525.835	0.01
526.182	0.01
526.529	0.02
526.876	0.01
527.223	0.01
527.57	0.01
527.917	0.01
528.264	0.01
528.611	0.01
528.958	0.01
529.304	0.02
529.651	0.01
529.998	0.01
530.344	0.01
530.691	0.01
531.037	0.01
531.384	0.01
531.73	0.01
532.076	0.01
532.423	0.02
532.769	0.01
533.115	0.01
533.461	0.01
533.807	0.02
534.154	0.01
534.5	0.01
534.846	0.01
535.192	0.01
535.537	0.01
535.883	0.01
536.229	0.01
536.575	0.01
536.921	0.01
537.266	0.01
537.612	0.01
537.957	0.01
538.303	0.02
538.649	0.01
538.994	0.01
539.339	0.01
539.685	0
540.03	0.01
540.375	0.01
540.721	0.01
541.066	0.01
541.411	0.01
541.756	0.02
542.101	0.02
542.446	0.01
542.791	0.01
543.136	0.01
543.481	0.01
543.825	0.02
544.17	0.01
544.515	0.01
544.86	0.01
545.204	0.01
545.549	0.01
545.893	0.01
546.238	0.01
546.582	0.01
546.927	0.02
547.271	0.02
547.615	0.02
547.96	0.02
548.304	0.02
548.648	0.01
548.992	0.01
549.336	0.01
549.68	0.01
550.024	0.01
550.368	0.01
550.712	0.02
551.056	0.02
551.4	0.02
551.743	0.02
552.087	0.02
552.431	0.01
552.774	0.02
553.118	0.02
553.462	0.01
553.805	0.01
554.148	0.01
554.492	0.01
554.835	0.02
555.178	0.01
555.522	0.01
555.865	0.02
556.208	0.02
556.551	0.02
556.894	0.01
557.237	0.01
557.58	0.02
557.923	0.02
558.266	0.02
558.609	0.02
558.952	0.02
559.294	0.02
559.637	0.02
559.98	0.02
560.322	0.02
560.665	0.02
561.007	0.01
561.35	0.01
561.692	0.01
562.034	0.01
562.377	0.01
562.719	0.01
563.061	0.01
563.403	0.01
563.745	0.02
564.088	0.02
564.43	0.02
564.772	0.02
565.113	0.01
565.455	0.01
565.797	0.02
566.139	0.02
566.481	0.02
566.822	0.02
567.164	0.02
567.506	0.02
567.847	0.02
568.189	0.01
568.53	0.01
568.872	0.01
569.213	0.01
569.554	0.01
569.895	0.01
570.237	0.01
570.578	0.01
570.919	0.01
571.26	0.01
571.601	0.01
571.942	0.01
572.283	0.01
572.624	0.01
572.965	0
573.306	0
573.646	0.01
573.987	0.02
574.328	0.02
574.668	0.01
575.009	0.01
575.349	0.01
575.69	0.01
576.03	0.01
576.37	0.01
576.711	0.01
577.051	0.02
577.391	0.02
577.731	0.02
578.072	0.02
578.412	0.01
578.752	0.01
579.092	0
579.431	-0
579.771	-0
580.111	0.01
580.451	0.02
580.791	0.03
581.13	0.02
581.47	0.02
581.81	0.02
582.149	0.02
582.489	0.02
582.828	-0.01
583.167	-0.01
583.507	-0
583.846	0
584.185	0.01
584.525	0.02
584.864	0.03
585.203	0.04
585.542	0.03
585.881	0.03
586.22	0.01
586.559	-0
586.898	-0
587.236	0
587.575	0.02
587.914	0.02
588.252	0.02
588.591	0.02
588.93	0.02
589.268	0.01
589.607	0.02
589.945	0.02
590.283	0.02
590.622	0.03
590.96	0.03
591.298	0.03
591.636	0.02
591.974	0.02
592.313	0.02
592.651	0.03
592.989	0.02
593.326	0.02
593.664	0.02
594.002	0.01
594.34	-0
594.678	-0
595.015	0
595.353	0.02
595.691	0.03
596.028	0.03
596.366	0.03
596.703	0.03
597.04	0.02
597.378	0.02
597.715	0.03
598.052	0.03
598.389	0.03
598.726	0.02
599.064	0.01
599.401	0.01
599.738	0.02
600.074	0.01
600.411	0
600.748	0.01
601.085	0.01
601.422	0.01
601.758	0.02
602.095	0.02
602.432	0.02
602.768	0.03
603.105	0.03
603.441	0.03
603.777	0.03
604.114	0.03
604.45	0.03
604.786	0.02
605.122	0.02
605.459	0.01
605.795	0.01
606.131	0.02
606.467	0.03
606.803	0.02
607.139	0.02
607.474	0.01
607.81	0.02
608.146	0.02
608.482	0.02
608.817	0.02
609.153	0.01
609.488	0.02
609.824	0.03
610.159	0.03
610.495	0.03
610.83	0.03
611.165	0.03
611.5	0.02
611.836	0.02
612.171	0.02
612.506	0.03
612.841	0.03
613.176	0.02
613.511	0.02
613.845	0.02
614.18	0.02
614.515	0.02
614.85	0.02
615.184	0.02
615.519	0.02
615.854	0.02
616.188	0.01
616.523	0.01
616.857	0.01
617.191	0.02
617.526	0.03
617.86	0.03
618.194	0.03
618.528	0.03
618.862	0.03
619.196	0.03
619.53	0.02
619.864	0.02
620.198	0.02
620.532	0.02
620.866	0.02
621.2	0.02
621.533	0.02
621.867	0.02
622.201	0.02
622.534	0.03
622.868	0.03
623.201	0.02
623.534	0.01
623.868	0.01
624.201	0.01
624.534	0.02
624.868	0.02
625.201	0.02
625.534	0.02
625.867	0.02
626.2	0.02
626.533	0.02
626.865	0.02
627.198	0.02
627.531	0.02
627.864	0.02
628.196	0.02
628.529	0.02
628.862	0.01
629.194	0.02
629.527	0.02
629.859	0.02
630.191	0.02
630.524	0.02
630.856	0.01
631.188	0.01
631.52	0.02
631.852	0.02
632.184	0.02
632.516	0.02
632.848	0.02
633.18	0.02
633.512	0.02
633.844	0.02
634.175	0.02
634.507	0.02
634.839	0.02
635.17	0.02
635.502	0.02
635.833	0.01
636.165	0.02
636.496	0.02
636.827	0.01
637.159	0.01
637.49	0.01
637.821	0.01
638.152	0.01
638.483	0.01
638.814	0.01
639.145	0.02
639.476	0.02
639.807	0.02
640.137	0.01
640.468	0.02
640.799	0.01
641.129	0.02
641.46	0.01
641.791	0.01
642.121	0.01
642.451	0.01
642.782	0.01
643.112	0.01
643.442	0.01
643.773	0.01
644.103	0.01
644.433	0.01
644.763	0.01
645.093	0.01
645.423	0.01
645.753	0.01
646.082	0.01
646.412	0.01
646.742	0.01
647.072	0.01
647.401	0.01
647.731	0.01
648.06	0.01
648.39	0.01
648.719	0.01
649.048	0.01
649.378	0.01
649.707	0.01
650.036	0
650.365	0.01
650.694	0.01
651.023	0.01
651.352	0.01
651.681	0.01
652.01	0.02
652.339	0.02
652.668	0.01
652.996	0.01
653.325	0.01
653.654	0.01
653.982	0.01
654.311	0.01
654.639	0.01
654.967	0.01
655.296	0.01
655.624	0.01
655.952	0.01
656.28	0.02
656.609	0.01
656.937	0
657.265	-0.08
657.593	-0.1
657.92	0
658.248	0
658.576	0
658.904	0
659.231	0.01
659.559	0.06
659.887	0.07
660.214	0.05
660.542	0.03
660.869	0.02
661.196	0.01
661.524	0.01
661.851	0.02
662.178	0.02
662.505	0.02
662.832	0.01
663.159	0.01
663.486	0.01
663.813	0.01
664.14	0.01
664.467	0.01
664.794	0.01
665.12	0.01
665.447	0.01
665.774	0.01
666.1	0.01
666.427	0.01
666.753	0.01
667.079	0.01
667.406	0.02
667.732	0.01
668.058	0.02
668.384	0.01
668.71	0.02
669.036	0.01
669.362	0.01
669.688	0.01
670.014	0.01
670.34	0.01
670.666	0.01
670.991	0.01
671.317	0.01
671.643	0.01
671.968	0.01
672.294	0.01
672.619	0.01
672.945	0.01
673.27	0
673.595	-0
673.92	0
674.246	0.01
674.571	0.01
674.896	0.02
675.221	0.02
675.546	0.02
675.87	0.01
676.195	0.01
676.52	0.01
676.845	0.01
677.169	0.01
677.494	0.01
677.819	0.01
678.143	0.01
678.468	0.01
678.792	0.01
679.116	0.01
679.44	0.01
679.765	0.01
680.089	0
680.413	0.01
680.737	0.01
681.061	0.01
681.385	0.01
681.709	0.01
682.033	0.01
682.356	0.01
682.68	0.01
683.004	0.01
683.327	0.01
683.651	0.01
683.974	0.01
684.298	0.01
684.621	0.01
684.944	0.01
685.268	0.01
685.591	0.01
685.914	0
686.237	0
686.56	0
686.883	-0
687.206	0
687.529	0.01
687.852	0.01
688.175	0.01
688.497	0.02
688.82	0.01
689.142	0.01
689.465	0.01
689.787	0.01
690.11	0.01
690.432	0.01
690.755	0.01
691.077	0
691.399	0
691.721	0
692.043	0
692.365	0.01
692.687	0
693.009	0
693.331	-0
693.653	0
693.974	0.01
694.296	0.01
694.618	0.01
694.939	0.01
695.261	0.01
695.582	0.01
695.904	0.01
696.225	0.01
696.546	0.01
696.868	0
697.189	0
697.51	0
697.831	0.01
698.152	0.01
698.473	-0
698.794	-0.01
699.114	-0.01
699.435	-0
699.756	0.01
700.077	0.01
700.397	0.01
700.718	0.01
701.038	0.01
701.359	0.01
701.679	0.01
701.999	0.01
702.32	0.01
702.64	0
702.96	0.01
703.28	0
703.6	0
703.92	-0
704.24	-0
704.56	0
704.879	0.01
705.199	0.01
705.519	0.01
705.838	0.01
706.158	0.01
706.478	0
706.797	0
707.116	0
707.436	0
707.755	-0
708.074	-0
708.393	-0.01
708.712	-0.01
709.031	-0.01
709.35	-0
709.669	0
709.988	0.01
710.307	0.01
710.626	0.01
710.944	0.01
711.263	0.01
711.582	0.01
711.9	0
712.219	0
712.537	0
712.855	0
713.174	0
713.492	0
713.81	0
714.128	0
714.446	-0
714.764	0
715.082	-0
715.4	0
715.718	0
716.035	0
716.353	0.01
716.671	0
716.988	0
717.306	0.01
717.623	0.01
717.941	0.01
718.258	0.01
718.575	0.01
718.893	0.01
719.21	0
719.527	-0
719.844	-0
720.161	0
720.478	0
720.795	0.01
721.112	0
721.428	0.01
721.745	0.01
722.062	0.01
722.378	0.01
722.695	0
723.011	0
723.328	0
723.644	0.01
723.96	0
724.276	0
724.593	0.01
724.909	0
725.225	0
725.541	0
725.857	0.01
726.173	0
726.488	0
726.804	-0
727.12	0
727.435	0
727.751	0
728.067	0.01
728.382	0.01
728.697	0.01
729.013	0.01
729.328	0
729.643	-0
729.958	0
730.273	0
730.588	0
730.903	0.01
731.218	0
731.533	0
731.848	0
732.163	-0
732.477	-0
732.792	0
733.107	-0
733.421	0.01
733.736	0.01
734.05	0
734.364	0
734.678	0
734.993	0
735.307	0
735.621	0
735.935	0
736.249	0.01
736.563	0.01
736.877	0.01
737.19	0
737.504	-0
737.818	0.01
738.131	0.01
738.445	0.01
738.758	0.01
739.072	0.01
739.385	0.01
739.698	0.01
740.012	0
740.325	0
740.638	-0.01
740.951	-0
741.264	0.01
741.577	0.01
741.89	0.01
742.203	0.01
742.515	0.01
742.828	0.01
743.141	0.01
743.453	0
743.766	-0
744.078	-0
744.391	0
744.703	0.01
745.015	0.01
745.327	0.01
745.639	0.01
745.952	0.01
746.264	0.01
746.575	0.01
746.887	0
747.199	0
747.511	-0
747.823	0
748.134	-0
748.446	-0
748.757	0
749.069	0
749.38	0
749.692	0.01
750.003	0.01
750.314	0
750.625	0
750.936	-0
751.248	-0
751.559	-0
751.869	0.01
752.18	0
752.491	0.01
752.802	0
753.112	0
753.423	0
753.734	0
754.044	0.01
754.355	0.01
754.665	0
754.975	0
755.285	0
755.596	0.01
755.906	0.01
756.216	0.01
756.526	0.01
756.836	0
757.146	0
757.455	0
757.765	0
758.075	-0
758.385	-0
758.694	-0.01
759.004	-0
759.313	0
759.622	0.01
759.932	0.01
760.241	0.01
760.55	0.01
760.859	0
761.168	0
761.477	0
761.786	0
762.095	0
762.404	0
762.713	0
763.021	0.01
763.33	0.01
763.639	0.01
763.947	0
764.256	0.01
764.564	0
764.872	0
765.181	0.01
765.489	-0
765.797	-0
766.105	-0
766.413	-0
766.721	0.01
767.029	0.01
767.337	0.01
767.644	0.01
767.952	0.01
768.26	0.01
768.567	0.01
768.875	0.01
769.182	0
769.49	-0
769.797	-0
770.104	-0
770.411	0
770.718	0.01
771.026	0.01
771.333	0.01
771.639	0
771.946	0
772.253	-0
772.56	0
772.867	0.01
773.173	0.01
773.48	0.01
773.786	0
774.093	0
774.399	0
774.705	0
775.012	-0
775.318	0.01
775.624	0
775.93	-0
776.236	-0
776.542	0
776.848	0
777.154	0
777.459	0.01
777.765	-0
778.071	0
778.376	0
778.682	0
778.987	-0
779.292	0
779.598	0.01
779.903	0
780.208	-0
780.513	0
780.818	0
781.123	0
781.428	0
781.733	0.01
782.038	-0
782.343	-0
782.647	-0
782.952	-0
783.256	-0
783.561	0
783.865	0
784.17	0
784.474	0
784.778	0
785.082	0
785.386	0
785.69	0.01
785.994	0.01
786.298	0
786.602	0
786.906	0
787.209	0
787.513	0
787.817	-0
788.12	0.01
788.424	0
788.727	0
789.03	0
789.333	-0
789.637	-0
789.94	-0
790.243	-0
790.546	0
790.849	0
791.152	0
791.454	0.01
791.757	0
792.06	0
792.362	0.01
792.665	0
792.967	-0
793.27	0
793.572	0
793.874	0
794.177	0
794.479	0
794.781	-0
795.083	-0
795.385	-0.01
795.687	-0
795.989	-0
796.29	0.01
796.592	0.01
796.894	0.01
797.195	0.01
797.497	0.01
797.798	0.01
798.1	0.01
798.401	0.01
798.702	0
799.003	0
799.304	0
799.605	0
799.906	0
800.207	0
800.508	0
800.809	0.01
801.11	0.01
801.41	0.01
801.711	0.01
802.011	0.01
802.312	0
802.612	0.01
802.913	-0
803.213	0
803.513	-0
803.813	0
804.113	0
804.413	-0
804.713	-0
805.013	-0
805.313	-0
805.613	-0.01
805.912	-0
806.212	0
806.511	-0
806.811	-0.01
807.11	-0.01
807.41	-0.01
807.709	-0
808.008	-0
808.307	-0
808.606	0
808.905	0.01
809.204	-0.01
809.503	0
809.802	0.01
810.101	0.01
810.399	0
810.698	0
810.997	0
811.295	0
811.593	0
811.892	0
812.19	0.01
812.488	0.01
812.786	0
813.084	0.01
813.383	-0
813.68	0
813.978	-0
814.276	0.01
814.574	0
814.872	0
815.169	-0
815.467	-0.01
815.764	0
816.062	0
816.359	0.01
816.656	0.01
816.954	0
817.251	0
817.548	0
817.845	0
818.142	-0.01
818.439	-0
818.735	-0
819.032	-0
819.329	0
819.626	0.01
819.922	-0
820.219	0
820.515	0
820.811	0
821.108	-0.01
821.404	-0.01
821.7	-0.01
821.996	-0.01
822.292	-0
822.588	-0.01
822.884	-0.01
823.18	-0
823.475	0
823.771	-0.01
824.067	0
824.362	0
824.658	-0
824.953	-0
825.249	-0
825.544	0.01
825.839	-0
826.134	-0
826.429	-0.01
826.724	0
827.019	0
827.314	0
827.609	-0
827.904	-0.01
828.198	-0.01
828.493	-0
828.787	-0.01
829.082	0
829.376	-0
829.671	-0.01
829.965	-0
830.259	0
830.553	0.02
830.847	0
831.141	-0.01
831.435	-0
831.729	0
832.023	-0.01
832.317	-0
832.61	-0
832.904	-0
833.197	-0
833.491	-0
833.784	-0.01
834.077	-0
834.371	-0.02
834.664	-0.01
834.957	-0.01
835.25	-0
835.543	-0.01
835.836	0
836.129	0
836.421	0
836.714	-0.01
837.007	-0.01
837.299	0.01
837.592	-0
837.884	0
838.177	-0
838.469	-0.01
838.761	-0.01
839.053	-0.01
839.345	-0.02
839.637	-0.01
839.929	-0.01
840.221	-0
840.513	-0.01
840.805	-0.01
841.096	0
841.388	-0.01
841.68	-0.01
841.971	-0.01
842.262	-0.01
842.554	-0.02
842.845	-0
843.136	0.01
843.427	0.01
843.718	0
844.009	-0
844.3	-0
844.591	-0
844.882	0.01
845.173	-0.01
845.463	-0.01
845.754	-0.01
846.044	-0.01
846.335	-0.01
846.625	-0.01
846.915	-0.02
847.206	-0.01
847.496	0
847.786	-0.01
848.076	-0.01
848.366	-0.02
848.656	-0.01
848.945	-0.02
849.235	-0.02
849.525	-0.02
849.814	-0.01
850.104	-0.01
850.393	-0.04
850.683	-0.01
850.972	-0
851.261	-0.01
851.551	-0.01
851.84	-0
852.129	-0.01
852.418	-0.01
852.707	-0.01
852.995	-0.01
853.284	-0.02
853.573	-0.01
853.862	-0.01
854.15	-0.03
854.439	0
854.727	-0
855.015	-0.01
855.304	-0.02
855.592	-0
855.88	-0.03
856.168	0
856.456	-0.02
856.744	-0.01
857.032	-0.01
857.32	-0.02
857.607	0
857.895	-0.02
858.183	-0.02
858.47	0
858.757	-0.02
859.045	-0
859.332	-0.03
859.619	-0.02
859.907	-0.01
860.194	0.02
860.481	-0
860.768	-0
861.054	-0.03
861.341	-0.04
861.628	0
861.915	0.01
862.201	-0
862.488	-0.02
862.774	-0.01
863.061	-0.02
863.347	-0.02
863.633	-0.01
863.919	0
864.205	0.02
864.491	0
864.777	0
865.063	-0.01
865.349	0.02
865.635	-0.01
865.92	-0.01
866.206	-0.04
866.492	-0.04
866.777	-0.02
867.062	-0.01
867.348	-0.02
867.633	0.06
867.918	0.01
868.203	-0.03
868.488	-0
868.773	0.01
869.058	-0.01
869.343	-0
869.628	-0.06
869.912	-0.02
870.197	-0.07
870.482	-0.05
870.766	-0.01
871.05	-0.01
871.335	-0.03
871.619	0.01
871.903	-0.06
872.187	-0.04
872.471	-0.03
872.755	0.01
873.039	-0.03
873.323	-0.03
873.607	0.03
873.89	-0.03
874.174	-0.02
874.458	-0.03
874.741	-0.09
875.024	-0.04
875.308	-0.03
875.591	-0.05
875.874	-0.1
876.157	-0.05
876.44	-0.03
876.723	-0.05
877.006	-0.1
877.289	-0.05
877.572	-0
877.854	-0.15
878.137	-0.1
878.42	-0.17
878.702	-0.08
878.984	-0.08
879.267	-0.07
879.549	-0.05
879.831	0.07
880.113	-0
880.395	0.03
880.677	-0.05
880.959	0.03
