Data from Rubpy_EV_EDTA_Flow_Absorbance_14-50-31-505.txt Node
Date: Fri Jul 03 14:50:31 BST 2026
User: fpm-admin
Spectrometer: OFX00224
Trigger mode: 0
Integration Time (sec): 1.200000E-2
Scans to average: 3
Nonlinearity correction enabled: false
Boxcar width: 0
Storing dark spectrum: false
XAxis mode: Wavelengths
Number of Pixels in Spectrum: 2136
>>>>>Begin Spectral Data<<<<<
154.91	-0.54
155.289	-0
155.669	0.1
156.048	-0
156.428	0.5
156.807	1.19
157.186	0.43
157.566	-0
157.945	-0
158.325	-0.15
158.704	-0
159.083	-0
159.462	-1.24
159.842	-0.46
160.221	-0
160.6	-0
160.979	-0
161.359	0.15
161.738	-0
162.117	-0
162.496	-0
162.875	-0.93
163.254	-0
163.633	-0
164.012	-0
164.391	-1.3
164.77	-0.23
165.149	0.46
165.528	-0
165.907	-0
166.286	-0
166.665	-0
167.044	-0
167.423	-0
167.802	0.26
168.181	-0
168.559	-0
168.938	-0
169.317	-0
169.696	0.41
170.074	-0
170.453	0.24
170.832	0.19
171.21	-0
171.589	-0.08
171.968	0.14
172.346	-0
172.725	0.47
173.103	-0.91
173.482	0.64
173.861	0.98
174.239	-0
174.617	0.23
174.996	-0.28
175.374	0.92
175.753	-0.56
176.131	-0
176.51	0.36
176.888	-0
177.266	-0.8
177.645	0.1
178.023	-0
178.401	-0.13
178.779	-0.03
179.158	-0
179.536	0.27
179.914	-0.38
180.292	-0
180.67	-0.41
181.048	-0.95
181.427	-0
181.805	-0
182.183	-0
182.561	-0
182.939	-0
183.317	-0
183.695	-0.24
184.073	0.98
184.451	0.56
184.829	-0.7
185.206	-0
185.584	0.5
185.962	-0.31
186.34	-0.26
186.718	-0.1
187.096	1.38
187.473	-0
187.851	-0.39
188.229	-0
188.607	0.14
188.984	-0.03
189.362	0.03
189.74	0.03
190.117	0.04
190.495	0.03
190.872	0.12
191.25	0.06
191.627	0.18
192.005	0.01
192.382	0.07
192.76	0
193.137	0.1
193.515	0.12
193.892	0.11
194.269	0.04
194.647	-0.04
195.024	0.02
195.401	-0
195.779	0.12
196.156	0.03
196.533	-0.01
196.91	-0
197.288	0.08
197.665	0.05
198.042	0.06
198.419	0.06
198.796	0.01
199.173	0.02
199.55	0.07
199.927	0.12
200.304	-0.02
200.681	0.02
201.058	-0.05
201.435	0.01
201.812	0
202.189	-0.01
202.566	0.06
202.943	0.02
203.32	0.04
203.697	-0.1
204.073	0.06
204.45	0.08
204.827	-0
205.204	-0.04
205.58	-0.04
205.957	0.07
206.334	-0.02
206.71	0.07
207.087	-0.05
207.464	-0.08
207.84	0.04
208.217	0.09
208.593	-0.06
208.97	-0.01
209.346	-0.01
209.723	0.1
210.099	0.11
210.476	0.1
210.852	-0.05
211.228	0.03
211.605	0.07
211.981	0.03
212.357	-0.02
212.733	0.05
213.11	0.01
213.486	0.02
213.862	0.04
214.238	0.13
214.614	0.07
214.991	0.07
215.367	0.03
215.743	0.02
216.119	0
216.495	0.05
216.871	-0.02
217.247	0.14
217.623	-0.04
217.999	0.1
218.375	0.08
218.751	0.05
219.127	-0
219.502	0.02
219.878	0.1
220.254	0.04
220.63	0.08
221.006	0.09
221.381	0.04
221.757	-0.1
222.133	0.11
222.508	0.06
222.884	0.07
223.26	0.04
223.635	0.05
224.011	0.1
224.386	0.03
224.762	0.08
225.137	0.04
225.513	-0.01
225.888	-0.02
226.264	-0.06
226.639	-0
227.014	0.08
227.39	-0.02
227.765	-0.04
228.14	0.07
228.516	0.01
228.891	0.1
229.266	0.02
229.641	-0.02
230.017	0.02
230.392	-0.02
230.767	-0.01
231.142	0.03
231.517	0.08
231.892	0.03
232.267	0.05
232.642	-0
233.017	0.01
233.392	0.05
233.767	0.08
234.142	-0
234.517	-0.03
234.892	-0
235.267	0.03
235.641	0.02
236.016	-0.06
236.391	0.03
236.766	-0.05
237.14	0.13
237.515	0.1
237.89	0.02
238.264	0.09
238.639	0.11
239.014	0.08
239.388	0.04
239.763	-0.02
240.137	0.01
240.512	0.06
240.886	-0.05
241.261	-0.01
241.635	-0.01
242.009	0.07
242.384	0.03
242.758	0.05
243.132	0.03
243.507	0.04
243.881	0.07
244.255	0.07
244.629	-0.05
245.004	0.08
245.378	-0.02
245.752	0.07
246.126	-0.02
246.5	0.05
246.874	0.03
247.248	-0.04
247.622	0.01
247.996	0.05
248.37	0.09
248.744	0.09
249.118	0.07
249.492	0.13
249.866	-0.04
250.24	0.07
250.613	0.04
250.987	0.08
251.361	0.12
251.735	-0.02
252.108	-0.01
252.482	0.04
252.856	-0.05
253.229	-0.01
253.603	0.03
253.977	-0.03
254.35	0.05
254.724	-0.02
255.097	0.05
255.471	0.05
255.844	-0
256.218	0.13
256.591	0.04
256.964	0.03
257.338	0.04
257.711	0.07
258.084	0.04
258.458	0.01
258.831	-0.06
259.204	0.02
259.577	-0.01
259.95	0.01
260.323	-0.06
260.697	-0.05
261.07	0.03
261.443	0.14
261.816	-0.02
262.189	0.02
262.562	0.01
262.935	0.03
263.308	0.03
263.68	0.18
264.053	0.05
264.426	0.03
264.799	0.03
265.172	-0.03
265.545	0.03
265.917	-0.04
266.29	0.06
266.663	0.03
267.035	0.03
267.408	-0.04
267.781	0.02
268.153	0.17
268.526	0.07
268.898	0.06
269.271	0.05
269.643	0.06
270.016	0.05
270.388	0.02
270.76	0.01
271.133	0.07
271.505	0.1
271.877	0.09
272.25	-0.03
272.622	-0.05
272.994	0.09
273.366	0.01
273.739	0.02
274.111	0.08
274.483	0.04
274.855	0.01
275.227	0.05
275.599	0
275.971	0.05
276.343	0.06
276.715	0.16
277.087	0
277.459	0.05
277.831	0.02
278.203	0.08
278.574	0.05
278.946	-0.01
279.318	0.07
279.69	-0.03
280.061	0.04
280.433	0.04
280.805	0.05
281.176	0.03
281.548	0.07
281.92	0.06
282.291	0.08
282.663	0.04
283.034	0.05
283.406	0.06
283.777	0.01
284.148	0.14
284.52	0.12
284.891	0.03
285.262	-0
285.634	0.05
286.005	0.04
286.376	0.02
286.747	0.02
287.119	0.04
287.49	-0
287.861	0.08
288.232	0.04
288.603	0.09
288.974	0.12
289.345	0.09
289.716	0.05
290.087	0.11
290.458	0.04
290.829	0.08
291.2	-0.01
291.571	0.1
291.941	0.11
292.312	0.04
292.683	0.14
293.054	0.07
293.424	-0.06
293.795	-0.05
294.166	-0.03
294.536	0.04
294.907	0
295.277	0.03
295.648	0.02
296.018	0.07
296.389	-0.01
296.759	0.14
297.13	0.12
297.5	0.04
297.871	0.02
298.241	0.02
298.611	0.01
298.981	0.03
299.352	0.04
299.722	0.03
300.092	0.02
300.462	0.11
300.832	0.06
301.202	0.08
301.573	0
301.943	0.02
302.313	0.08
302.683	0.04
303.053	0.02
303.422	0.02
303.792	0.02
304.162	0.03
304.532	0.08
304.902	-0.04
305.272	0.07
305.641	0.09
306.011	0.07
306.381	0.03
306.75	0.08
307.12	0.06
307.49	0.02
307.859	0.04
308.229	0.07
308.598	0.1
308.968	0.05
309.337	0.06
309.707	0.09
310.076	0.09
310.445	0.03
310.815	0.09
311.184	0.11
311.553	0.04
311.923	0.1
312.292	0.05
312.661	0.09
313.03	0.01
313.399	0.09
313.768	0.05
314.137	0.06
314.506	0.05
314.875	0.09
315.244	0.07
315.613	0.07
315.982	0.08
316.351	0.04
316.72	0.08
317.089	0.07
317.458	0.08
317.826	0.07
318.195	0.04
318.564	0.07
318.933	0.08
319.301	0.07
319.67	0.06
320.038	0.06
320.407	0.07
320.775	0.08
321.144	0.09
321.512	0.07
321.881	0.06
322.249	0.09
322.618	0.08
322.986	0.07
323.354	0.07
323.723	0.08
324.091	0.08
324.459	0.08
324.827	0.07
325.195	0.09
325.564	0.08
325.932	0.07
326.3	0.07
326.668	0.09
327.036	0.06
327.404	0.05
327.772	0.06
328.14	0.05
328.508	0.06
328.875	0.07
329.243	0.07
329.611	0.07
329.979	0.06
330.346	0.06
330.714	0.07
331.082	0.06
331.449	0.05
331.817	0.07
332.185	0.07
332.552	0.07
332.92	0.08
333.287	0.07
333.655	0.07
334.022	0.07
334.389	0.07
334.757	0.06
335.124	0.07
335.491	0.07
335.859	0.07
336.226	0.07
336.593	0.08
336.96	0.07
337.327	0.08
337.695	0.07
338.062	0.07
338.429	0.08
338.796	0.08
339.163	0.07
339.53	0.08
339.897	0.08
340.263	0.08
340.63	0.08
340.997	0.09
341.364	0.08
341.731	0.08
342.097	0.08
342.464	0.09
342.831	0.09
343.197	0.09
343.564	0.09
343.931	0.09
344.297	0.09
344.664	0.09
345.03	0.1
345.396	0.1
345.763	0.09
346.129	0.1
346.496	0.11
346.862	0.1
347.228	0.1
347.594	0.11
347.961	0.1
348.327	0.1
348.693	0.11
349.059	0.11
349.425	0.11
349.791	0.12
350.157	0.11
350.523	0.11
350.889	0.12
351.255	0.12
351.621	0.12
351.987	0.13
352.353	0.13
352.719	0.13
353.084	0.13
353.45	0.13
353.816	0.13
354.181	0.13
354.547	0.13
354.913	0.14
355.278	0.14
355.644	0.15
356.009	0.14
356.375	0.14
356.74	0.15
357.106	0.15
357.471	0.15
357.836	0.15
358.202	0.15
358.567	0.16
358.932	0.16
359.297	0.16
359.663	0.16
360.028	0.16
360.393	0.16
360.758	0.17
361.123	0.17
361.488	0.17
361.853	0.17
362.218	0.18
362.583	0.18
362.948	0.17
363.312	0.17
363.677	0.18
364.042	0.18
364.407	0.19
364.772	0.19
365.136	0.18
365.501	0.19
365.865	0.19
366.23	0.19
366.595	0.19
366.959	0.19
367.324	0.2
367.688	0.2
368.052	0.2
368.417	0.2
368.781	0.21
369.145	0.21
369.51	0.21
369.874	0.21
370.238	0.21
370.602	0.21
370.967	0.21
371.331	0.21
371.695	0.21
372.059	0.2
372.423	0.21
372.787	0.2
373.151	0.2
373.515	0.2
373.878	0.2
374.242	0.2
374.606	0.2
374.97	0.19
375.334	0.19
375.697	0.19
376.061	0.2
376.425	0.19
376.788	0.2
377.152	0.2
377.515	0.2
377.879	0.2
378.242	0.19
378.606	0.2
378.969	0.2
379.333	0.2
379.696	0.2
380.059	0.2
380.422	0.2
380.786	0.21
381.149	0.21
381.512	0.22
381.875	0.23
382.238	0.23
382.601	0.23
382.964	0.24
383.327	0.25
383.69	0.25
384.053	0.25
384.416	0.26
384.779	0.27
385.142	0.26
385.504	0.27
385.867	0.27
386.23	0.27
386.593	0.28
386.955	0.28
387.318	0.28
387.68	0.27
388.043	0.28
388.405	0.27
388.768	0.27
389.13	0.26
389.493	0.26
389.855	0.26
390.217	0.26
390.58	0.26
390.942	0.27
391.304	0.27
391.666	0.27
392.028	0.27
392.391	0.28
392.753	0.29
393.115	0.29
393.477	0.3
393.839	0.31
394.201	0.32
394.563	0.33
394.924	0.34
395.286	0.36
395.648	0.37
396.01	0.39
396.371	0.39
396.733	0.41
397.095	0.41
397.456	0.42
397.818	0.42
398.18	0.41
398.541	0.4
398.903	0.39
399.264	0.38
399.625	0.37
399.987	0.36
400.348	0.34
400.709	0.33
401.071	0.32
401.432	0.3
401.793	0.29
402.154	0.27
402.515	0.26
402.876	0.24
403.238	0.22
403.599	0.22
403.96	0.2
404.32	0.19
404.681	0.17
405.042	0.17
405.403	0.16
405.764	0.15
406.125	0.15
406.485	0.14
406.846	0.12
407.207	0.12
407.567	0.12
407.928	0.11
408.288	0.12
408.649	0.11
409.009	0.11
409.37	0.11
409.73	0.1
410.091	0.09
410.451	0.08
410.811	0.09
411.171	0.08
411.532	0.08
411.892	0.09
412.252	0.08
412.612	0.08
412.972	0.08
413.332	0.08
413.692	0.08
414.052	0.08
414.412	0.08
414.772	0.07
415.132	0.09
415.492	0.09
415.851	0.08
416.211	0.07
416.571	0.08
416.931	0.08
417.29	0.06
417.65	0.07
418.009	0.08
418.369	0.07
418.728	0.08
419.088	0.07
419.447	0.06
419.807	0.08
420.166	0.06
420.525	0.08
420.884	0.06
421.244	0.07
421.603	0.08
421.962	0.05
422.321	0.06
422.68	0.06
423.039	0.05
423.398	0.06
423.757	0.05
424.116	0.08
424.475	0.07
424.834	0.07
425.193	0.07
425.551	0.07
425.91	0.07
426.269	0.06
426.628	0.06
426.986	0.07
427.345	0.06
427.703	0.05
428.062	0.07
428.42	0.08
428.779	0.06
429.137	0.07
429.496	0.06
429.854	0.07
430.212	0.07
430.57	0.05
430.929	0.05
431.287	0.06
431.645	0.06
432.003	0.06
432.361	0.05
432.719	0.05
433.077	0.07
433.435	0.07
433.793	0.07
434.151	0.07
434.509	0.06
434.866	0.06
435.224	0.06
435.582	0.06
435.94	0.06
436.297	0.07
436.655	0.06
437.012	0.06
437.37	0.06
437.727	0.04
438.085	0.06
438.442	0.06
438.8	0.05
439.157	0.09
439.514	0.05
439.872	0.04
440.229	0.05
440.586	0.06
440.943	0.05
441.3	0.06
441.657	0.04
442.014	0.06
442.371	0.08
442.728	0.06
443.085	0.05
443.442	0.05
443.799	0.05
444.156	0.06
444.513	0.05
444.869	0.07
445.226	0.04
445.583	0.07
445.939	0.05
446.296	0.04
446.652	0.06
447.009	0.07
447.365	0.06
447.722	0.06
448.078	0.05
448.434	0.07
448.791	0.07
449.147	0.05
449.503	0.05
449.859	0.06
450.215	0.06
450.571	0.05
450.928	0.07
451.284	0.05
451.64	0.07
451.995	0.06
452.351	0.03
452.707	0.07
453.063	0.09
453.419	0.07
453.775	0.07
454.13	0.07
454.486	0.05
454.842	0.05
455.197	0.07
455.553	0.08
455.908	0.06
456.264	0.07
456.619	0.06
456.975	0.06
457.33	0.05
457.685	0.05
458.04	0.08
458.396	0.07
458.751	0.06
459.106	0.06
459.461	0.04
459.816	0.04
460.171	0.04
460.526	0.08
460.881	0.06
461.236	0.03
461.591	0.05
461.946	0.05
462.301	0.06
462.655	0.05
463.01	0.06
463.365	0.06
463.719	0.04
464.074	0.06
464.428	0.05
464.783	0.05
465.137	0.05
465.492	0.06
465.846	0.05
466.201	0.05
466.555	0.04
466.909	0.05
467.263	0.03
467.618	0.06
467.972	0.06
468.326	0.05
468.68	0.05
469.034	0.06
469.388	0.06
469.742	0.05
470.096	0.04
470.45	0.05
470.804	0.05
471.157	0.04
471.511	0.05
471.865	0.05
472.218	0.05
472.572	0.04
472.926	0.05
473.279	0.05
473.633	0.04
473.986	0.05
474.34	0.04
474.693	0.05
475.046	0.05
475.4	0.04
475.753	0.04
476.106	0.05
476.459	0.03
476.812	0.03
477.165	0.03
477.519	0.04
477.872	0.04
478.224	0.04
478.577	0.04
478.93	0.05
479.283	0.05
479.636	0.03
479.989	0.05
480.341	0.04
480.694	0.04
481.047	0.04
481.399	0.04
481.752	0.04
482.104	0.04
482.457	0.03
482.809	0.04
483.162	0.04
483.514	0.03
483.866	0.04
484.219	0.05
484.571	0.05
484.923	0.05
485.275	0.04
485.627	0.04
485.979	0.03
486.331	0.04
486.683	0.04
487.035	0.03
487.387	0.01
487.739	0.03
488.091	0.04
488.443	0.06
488.794	0.05
489.146	0.05
489.498	0.05
489.849	0.05
490.201	0.05
490.552	0.05
490.904	0.05
491.255	0.05
491.607	0.04
491.958	0.04
492.309	0.04
492.661	0.04
493.012	0.05
493.363	0.05
493.714	0.05
494.065	0.05
494.416	0.05
494.767	0.04
495.118	0.04
495.469	0.04
495.82	0.04
496.171	0.05
496.522	0.05
496.872	0.05
497.223	0.05
497.574	0.04
497.924	0.04
498.275	0.04
498.626	0.05
498.976	0.06
499.327	0.06
499.677	0.06
500.027	0.05
500.378	0.05
500.728	0.05
501.078	0.05
501.428	0.05
501.779	0.06
502.129	0.06
502.479	0.06
502.829	0.05
503.179	0.05
503.529	0.05
503.879	0.05
504.229	0.05
504.578	0.06
504.928	0.05
505.278	0.05
505.628	0.06
505.977	0.06
506.327	0.05
506.676	0.05
507.026	0.05
507.375	0.06
507.725	0.06
508.074	0.05
508.424	0.06
508.773	0.07
509.122	0.06
509.471	0.06
509.82	0.06
510.17	0.06
510.519	0.06
510.868	0.06
511.217	0.06
511.566	0.06
511.915	0.06
512.263	0.06
512.612	0.06
512.961	0.06
513.31	0.06
513.659	0.06
514.007	0.07
514.356	0.06
514.704	0.07
515.053	0.06
515.401	0.06
515.75	0.06
516.098	0.06
516.447	0.06
516.795	0.07
517.143	0.07
517.491	0.07
517.839	0.07
518.188	0.06
518.536	0.06
518.884	0.07
519.232	0.07
519.58	0.07
519.928	0.07
520.275	0.06
520.623	0.07
520.971	0.07
521.319	0.07
521.666	0.07
522.014	0.07
522.362	0.07
522.709	0.07
523.057	0.07
523.404	0.07
523.752	0.07
524.099	0.07
524.446	0.07
524.794	0.07
525.141	0.07
525.488	0.07
525.835	0.07
526.182	0.07
526.529	0.07
526.876	0.08
527.223	0.07
527.57	0.07
527.917	0.08
528.264	0.07
528.611	0.07
528.958	0.08
529.304	0.08
529.651	0.08
529.998	0.08
530.344	0.08
530.691	0.08
531.037	0.08
531.384	0.07
531.73	0.08
532.076	0.08
532.423	0.08
532.769	0.08
533.115	0.08
533.461	0.08
533.807	0.08
534.154	0.08
534.5	0.08
534.846	0.08
535.192	0.08
535.537	0.08
535.883	0.08
536.229	0.08
536.575	0.08
536.921	0.08
537.266	0.08
537.612	0.09
537.957	0.09
538.303	0.09
538.649	0.09
538.994	0.08
539.339	0.08
539.685	0.08
540.03	0.08
540.375	0.09
540.721	0.09
541.066	0.09
541.411	0.09
541.756	0.09
542.101	0.09
542.446	0.09
542.791	0.09
543.136	0.09
543.481	0.09
543.825	0.09
544.17	0.09
544.515	0.09
544.86	0.09
545.204	0.1
545.549	0.09
545.893	0.09
546.238	0.09
546.582	0.09
546.927	0.1
547.271	0.1
547.615	0.1
547.96	0.1
548.304	0.1
548.648	0.1
548.992	0.1
549.336	0.09
549.68	0.1
550.024	0.1
550.368	0.1
550.712	0.11
551.056	0.11
551.4	0.11
551.743	0.11
552.087	0.1
552.431	0.1
552.774	0.11
553.118	0.11
553.462	0.1
553.805	0.1
554.148	0.1
554.492	0.1
554.835	0.11
555.178	0.11
555.522	0.1
555.865	0.11
556.208	0.11
556.551	0.11
556.894	0.11
557.237	0.1
557.58	0.11
557.923	0.11
558.266	0.11
558.609	0.11
558.952	0.11
559.294	0.11
559.637	0.11
559.98	0.11
560.322	0.12
560.665	0.11
561.007	0.11
561.35	0.11
561.692	0.11
562.034	0.1
562.377	0.1
562.719	0.11
563.061	0.11
563.403	0.11
563.745	0.11
564.088	0.11
564.43	0.12
564.772	0.11
565.113	0.11
565.455	0.11
565.797	0.11
566.139	0.12
566.481	0.11
566.822	0.11
567.164	0.12
567.506	0.11
567.847	0.11
568.189	0.11
568.53	0.11
568.872	0.11
569.213	0.11
569.554	0.11
569.895	0.11
570.237	0.11
570.578	0.11
570.919	0.1
571.26	0.1
571.601	0.1
571.942	0.1
572.283	0.1
572.624	0.1
572.965	0.1
573.306	0.1
573.646	0.1
573.987	0.11
574.328	0.12
574.668	0.11
575.009	0.1
575.349	0.1
575.69	0.1
576.03	0.1
576.37	0.1
576.711	0.1
577.051	0.11
577.391	0.11
577.731	0.11
578.072	0.11
578.412	0.11
578.752	0.11
579.092	0.1
579.431	0.09
579.771	0.09
580.111	0.09
580.451	0.11
580.791	0.12
581.13	0.11
581.47	0.11
581.81	0.11
582.149	0.11
582.489	0.11
582.828	0.08
583.167	0.08
583.507	0.07
583.846	0.06
584.185	0.08
584.525	0.1
584.864	0.11
585.203	0.12
585.542	0.12
585.881	0.12
586.22	0.1
586.559	0.09
586.898	0.1
587.236	0.09
587.575	0.11
587.914	0.11
588.252	0.12
588.591	0.11
588.93	0.11
589.268	0.11
589.607	0.11
589.945	0.11
590.283	0.12
590.622	0.12
590.96	0.13
591.298	0.13
591.636	0.12
591.974	0.12
592.313	0.13
592.651	0.13
592.989	0.12
593.326	0.12
593.664	0.12
594.002	0.11
594.34	0.1
594.678	0.1
595.015	0.1
595.353	0.11
595.691	0.12
596.028	0.13
596.366	0.13
596.703	0.13
597.04	0.12
597.378	0.13
597.715	0.14
598.052	0.13
598.389	0.14
598.726	0.13
599.064	0.12
599.401	0.12
599.738	0.13
600.074	0.13
600.411	0.11
600.748	0.11
601.085	0.11
601.422	0.12
601.758	0.12
602.095	0.12
602.432	0.13
602.768	0.13
603.105	0.14
603.441	0.14
603.777	0.14
604.114	0.14
604.45	0.14
604.786	0.13
605.122	0.13
605.459	0.12
605.795	0.12
606.131	0.13
606.467	0.13
606.803	0.13
607.139	0.13
607.474	0.12
607.81	0.13
608.146	0.12
608.482	0.13
608.817	0.13
609.153	0.12
609.488	0.12
609.824	0.13
610.159	0.14
610.495	0.13
610.83	0.13
611.165	0.14
611.5	0.13
611.836	0.13
612.171	0.13
612.506	0.13
612.841	0.13
613.176	0.13
613.511	0.13
613.845	0.13
614.18	0.12
614.515	0.13
614.85	0.12
615.184	0.12
615.519	0.12
615.854	0.12
616.188	0.12
616.523	0.11
616.857	0.11
617.191	0.12
617.526	0.13
617.86	0.13
618.194	0.13
618.528	0.13
618.862	0.13
619.196	0.13
619.53	0.13
619.864	0.12
620.198	0.12
620.532	0.12
620.866	0.12
621.2	0.12
621.533	0.12
621.867	0.12
622.201	0.12
622.534	0.12
622.868	0.12
623.201	0.12
623.534	0.11
623.868	0.11
624.201	0.11
624.534	0.11
624.868	0.12
625.201	0.11
625.534	0.11
625.867	0.12
626.2	0.11
626.533	0.11
626.865	0.12
627.198	0.12
627.531	0.12
627.864	0.11
628.196	0.11
628.529	0.11
628.862	0.11
629.194	0.11
629.527	0.11
629.859	0.11
630.191	0.11
630.524	0.11
630.856	0.1
631.188	0.1
631.52	0.11
631.852	0.1
632.184	0.11
632.516	0.11
632.848	0.11
633.18	0.1
633.512	0.11
633.844	0.1
634.175	0.1
634.507	0.1
634.839	0.1
635.17	0.1
635.502	0.1
635.833	0.09
636.165	0.09
636.496	0.1
636.827	0.09
637.159	0.1
637.49	0.09
637.821	0.09
638.152	0.09
638.483	0.09
638.814	0.09
639.145	0.09
639.476	0.09
639.807	0.09
640.137	0.09
640.468	0.09
640.799	0.08
641.129	0.09
641.46	0.09
641.791	0.08
642.121	0.08
642.451	0.08
642.782	0.08
643.112	0.08
643.442	0.08
643.773	0.08
644.103	0.08
644.433	0.08
644.763	0.08
645.093	0.08
645.423	0.08
645.753	0.08
646.082	0.08
646.412	0.08
646.742	0.08
647.072	0.08
647.401	0.08
647.731	0.07
648.06	0.07
648.39	0.08
648.719	0.08
649.048	0.07
649.378	0.07
649.707	0.07
650.036	0.07
650.365	0.07
650.694	0.07
651.023	0.07
651.352	0.07
651.681	0.07
652.01	0.08
652.339	0.08
652.668	0.07
652.996	0.07
653.325	0.07
653.654	0.07
653.982	0.07
654.311	0.07
654.639	0.07
654.967	0.07
655.296	0.07
655.624	0.07
655.952	0.08
656.28	0.08
656.609	0.07
656.937	0.06
657.265	-0
657.593	-0.06
657.92	0
658.248	0
658.576	0
658.904	0
659.231	0.05
659.559	0.1
659.887	0.11
660.214	0.1
660.542	0.09
660.869	0.08
661.196	0.07
661.524	0.07
661.851	0.07
662.178	0.07
662.505	0.07
662.832	0.07
663.159	0.07
663.486	0.07
663.813	0.07
664.14	0.07
664.467	0.07
664.794	0.07
665.12	0.07
665.447	0.07
665.774	0.07
666.1	0.07
666.427	0.07
666.753	0.07
667.079	0.07
667.406	0.07
667.732	0.07
668.058	0.07
668.384	0.07
668.71	0.07
669.036	0.07
669.362	0.06
669.688	0.07
670.014	0.07
670.34	0.07
670.666	0.06
670.991	0.06
671.317	0.06
671.643	0.06
671.968	0.06
672.294	0.06
672.619	0.06
672.945	0.06
673.27	0.06
673.595	0.05
673.92	0.05
674.246	0.06
674.571	0.07
674.896	0.07
675.221	0.07
675.546	0.07
675.87	0.06
676.195	0.06
676.52	0.06
676.845	0.06
677.169	0.06
677.494	0.06
677.819	0.06
678.143	0.06
678.468	0.06
678.792	0.06
679.116	0.06
679.44	0.05
679.765	0.05
680.089	0.05
680.413	0.05
680.737	0.05
681.061	0.05
681.385	0.05
681.709	0.05
682.033	0.05
682.356	0.06
682.68	0.06
683.004	0.05
683.327	0.05
683.651	0.04
683.974	0.05
684.298	0.05
684.621	0.05
684.944	0.05
685.268	0.05
685.591	0.05
685.914	0.04
686.237	0.04
686.56	0.04
686.883	0.04
687.206	0.04
687.529	0.04
687.852	0.05
688.175	0.05
688.497	0.05
688.82	0.05
689.142	0.04
689.465	0.05
689.787	0.04
690.11	0.05
690.432	0.04
690.755	0.04
691.077	0.04
691.399	0.04
691.721	0.04
692.043	0.04
692.365	0.04
692.687	0.04
693.009	0.04
693.331	0.03
693.653	0.03
693.974	0.04
694.296	0.04
694.618	0.04
694.939	0.03
695.261	0.04
695.582	0.03
695.904	0.04
696.225	0.04
696.546	0.03
696.868	0.03
697.189	0.03
697.51	0.03
697.831	0.03
698.152	0.03
698.473	0.02
698.794	0.02
699.114	0.02
699.435	0.03
699.756	0.04
700.077	0.04
700.397	0.04
700.718	0.03
701.038	0.03
701.359	0.03
701.679	0.03
701.999	0.03
702.32	0.03
702.64	0.03
702.96	0.03
703.28	0.03
703.6	0.02
703.92	0.02
704.24	0.02
704.56	0.02
704.879	0.03
705.199	0.03
705.519	0.03
705.838	0.03
706.158	0.03
706.478	0.03
706.797	0.03
707.116	0.02
707.436	0.03
707.755	0.02
708.074	0.02
708.393	0.01
708.712	0.01
709.031	0.01
709.35	0.02
709.669	0.02
709.988	0.02
710.307	0.03
710.626	0.03
710.944	0.03
711.263	0.03
711.582	0.03
711.9	0.03
712.219	0.03
712.537	0.02
712.855	0.02
713.174	0.03
713.492	0.03
713.81	0.02
714.128	0.02
714.446	0.02
714.764	0.02
715.082	0.02
715.4	0.03
715.718	0.03
716.035	0.03
716.353	0.03
716.671	0.03
716.988	0.03
717.306	0.03
717.623	0.03
717.941	0.03
718.258	0.03
718.575	0.03
718.893	0.03
719.21	0.02
719.527	0.02
719.844	0.02
720.161	0.03
720.478	0.03
720.795	0.03
721.112	0.03
721.428	0.03
721.745	0.03
722.062	0.03
722.378	0.03
722.695	0.03
723.011	0.03
723.328	0.03
723.644	0.03
723.96	0.03
724.276	0.03
724.593	0.03
724.909	0.03
725.225	0.03
725.541	0.03
725.857	0.03
726.173	0.03
726.488	0.03
726.804	0.02
727.12	0.02
727.435	0.03
727.751	0.03
728.067	0.03
728.382	0.03
728.697	0.03
729.013	0.03
729.328	0.03
729.643	0.02
729.958	0.03
730.273	0.03
730.588	0.03
730.903	0.03
731.218	0.03
731.533	0.03
731.848	0.03
732.163	0.02
732.477	0.02
732.792	0.02
733.107	0.02
733.421	0.03
733.736	0.03
734.05	0.03
734.364	0.03
734.678	0.03
734.993	0.03
735.307	0.03
735.621	0.03
735.935	0.03
736.249	0.03
736.563	0.03
736.877	0.03
737.19	0.03
737.504	0.03
737.818	0.03
738.131	0.03
738.445	0.03
738.758	0.03
739.072	0.03
739.385	0.03
739.698	0.03
740.012	0.03
740.325	0.02
740.638	0.02
740.951	0.02
741.264	0.03
741.577	0.03
741.89	0.04
742.203	0.03
742.515	0.02
742.828	0.03
743.141	0.03
743.453	0.03
743.766	0.02
744.078	0.02
744.391	0.03
744.703	0.03
745.015	0.03
745.327	0.03
745.639	0.03
745.952	0.03
746.264	0.03
746.575	0.03
746.887	0.02
747.199	0.03
747.511	0.02
747.823	0.02
748.134	0.02
748.446	0.02
748.757	0.02
749.069	0.02
749.38	0.02
749.692	0.03
750.003	0.02
750.314	0.02
750.625	0.02
750.936	0.02
751.248	0.02
751.559	0.02
751.869	0.02
752.18	0.02
752.491	0.02
752.802	0.02
753.112	0.02
753.423	0.02
753.734	0.02
754.044	0.02
754.355	0.02
754.665	0.02
754.975	0.02
755.285	0.02
755.596	0.02
755.906	0.02
756.216	0.02
756.526	0.02
756.836	0.02
757.146	0.02
757.455	0.02
757.765	0.01
758.075	0.01
758.385	0.01
758.694	0.01
759.004	0.01
759.313	0.02
759.622	0.02
759.932	0.03
760.241	0.03
760.55	0.02
760.859	0.02
761.168	0.02
761.477	0.02
761.786	0.02
762.095	0.02
762.404	0.02
762.713	0.02
763.021	0.02
763.33	0.02
763.639	0.02
763.947	0.02
764.256	0.02
764.564	0.02
764.872	0.02
765.181	0.02
765.489	0.01
765.797	0.01
766.105	0.01
766.413	0.01
766.721	0.02
767.029	0.02
767.337	0.02
767.644	0.02
767.952	0.02
768.26	0.03
768.567	0.02
768.875	0.02
769.182	0.01
769.49	0.01
769.797	0.01
770.104	0.01
770.411	0.02
770.718	0.02
771.026	0.02
771.333	0.02
771.639	0.02
771.946	0.02
772.253	0.01
772.56	0.01
772.867	0.02
773.173	0.02
773.48	0.02
773.786	0.02
774.093	0.02
774.399	0.01
774.705	0.02
775.012	0.02
775.318	0.02
775.624	0.02
775.93	0.01
776.236	0.01
776.542	0.01
776.848	0.01
777.154	0.01
777.459	0.02
777.765	0.01
778.071	0.02
778.376	0.01
778.682	0.01
778.987	0.01
779.292	0.01
779.598	0.01
779.903	0.01
780.208	0.01
780.513	0.01
780.818	0.02
781.123	0.02
781.428	0.01
781.733	0.02
782.038	0.01
782.343	0.01
782.647	0
782.952	0.01
783.256	0.01
783.561	0.01
783.865	0.01
784.17	0.01
784.474	0.01
784.778	0.01
785.082	0.02
785.386	0.02
785.69	0.02
785.994	0.02
786.298	0.01
786.602	0.01
786.906	0.01
787.209	0.01
787.513	0.01
787.817	0.01
788.12	0.02
788.424	0.02
788.727	0.01
789.03	0.01
789.333	0.01
789.637	0.01
789.94	0
790.243	0.01
790.546	0.01
790.849	0.01
791.152	0.01
791.454	0.02
791.757	0.01
792.06	0.01
792.362	0.01
792.665	0.01
792.967	0.01
793.27	0.01
793.572	0.01
793.874	0.01
794.177	0.01
794.479	0.01
794.781	0.01
795.083	0.01
795.385	0.01
795.687	0.01
795.989	0.01
796.29	0.02
796.592	0.02
796.894	0.02
797.195	0.02
797.497	0.02
797.798	0.02
798.1	0.02
798.401	0.02
798.702	0.01
799.003	0.02
799.304	0.01
799.605	0.01
799.906	0.02
800.207	0.01
800.508	0.02
800.809	0.02
801.11	0.02
801.41	0.02
801.711	0.02
802.011	0.01
802.312	0.02
802.612	0.02
802.913	0.01
803.213	0.02
803.513	0.01
803.813	0.01
804.113	0.01
804.413	0.01
804.713	0.01
805.013	0.01
805.313	0.01
805.613	0.01
805.912	0.01
806.212	0.02
806.511	0.01
806.811	0
807.11	0.01
807.41	0.01
807.709	0
808.008	0.01
808.307	0.01
808.606	0.01
808.905	0.02
809.204	0.01
809.503	0.01
809.802	0.02
810.101	0.01
810.399	0.01
810.698	0.01
810.997	0.02
811.295	0.01
811.593	0.02
811.892	0.02
812.19	0.02
812.488	0.01
812.786	0.01
813.084	0.01
813.383	0.01
813.68	0.02
813.978	0.01
814.276	0.02
814.574	0.02
814.872	0.01
815.169	0.01
815.467	0
815.764	0.01
816.062	0.02
816.359	0.02
816.656	0.02
816.954	0.02
817.251	0.01
817.548	0.01
817.845	0.01
818.142	0
818.439	0.01
818.735	0.01
819.032	0.01
819.329	0
819.626	0.01
819.922	0.01
820.219	0.02
820.515	0.02
820.811	0.01
821.108	0.01
821.404	0
821.7	0
821.996	-0
822.292	0
822.588	0.01
822.884	0.01
823.18	0.01
823.475	0.01
823.771	0.01
824.067	0.01
824.362	0.01
824.658	0.01
824.953	0.01
825.249	0
825.544	0.01
825.839	0.02
826.134	0.01
826.429	0.01
826.724	0
827.019	0.01
827.314	0.01
827.609	0.01
827.904	0.01
828.198	0
828.493	0
828.787	0.01
829.082	0.01
829.376	0
829.671	0.01
829.965	0.02
830.259	0.01
830.553	0.02
830.847	0.01
831.141	0.01
831.435	-0
831.729	0.02
832.023	0
832.317	0.01
832.61	-0.01
832.904	0.01
833.197	0.01
833.491	0.01
833.784	0.01
834.077	0.01
834.371	0.01
834.664	-0.01
834.957	0
835.25	0.01
835.543	0.01
835.836	0.01
836.129	0.01
836.421	0.01
836.714	0.01
837.007	0.01
837.299	0.01
837.592	0.01
837.884	0.01
838.177	0.01
838.469	0
838.761	0
839.053	0.01
839.345	0.02
839.637	0.01
839.929	0
840.221	0.01
840.513	0.01
840.805	-0
841.096	0.01
841.388	0
841.68	0
841.971	0.01
842.262	0.02
842.554	-0
842.845	-0
843.136	0
843.427	0.02
843.718	0.01
844.009	0.01
844.3	0.02
844.591	0
844.882	0.03
845.173	0
845.463	0.01
845.754	0
846.044	0.01
846.335	-0.01
846.625	0.02
846.915	0.01
847.206	0.01
847.496	0.01
847.786	-0.01
848.076	-0.01
848.366	-0.01
848.656	-0.01
848.945	-0.01
849.235	-0
849.525	0
849.814	-0
850.104	-0
850.393	-0.01
850.683	0
850.972	-0.01
851.261	-0
851.551	-0
851.84	0.01
852.129	-0.01
852.418	-0
852.707	-0
852.995	0.01
853.284	-0
853.573	0
853.862	-0.01
854.15	-0.02
854.439	0
854.727	0
855.015	0
855.304	-0.01
855.592	0
855.88	-0.01
856.168	0.01
856.456	0
856.744	0.01
857.032	0.02
857.32	0.01
857.607	0.01
857.895	-0.02
858.183	0
858.47	0.01
858.757	-0.01
859.045	0
859.332	-0.01
859.619	0.02
859.907	-0
860.194	0
860.481	-0.01
860.768	-0
861.054	-0.02
861.341	-0.02
861.628	-0
861.915	0
862.201	-0.01
862.488	-0.02
862.774	0.01
863.061	-0.01
863.347	-0.02
863.633	0.02
863.919	0.01
864.205	0.01
864.491	0.02
864.777	0.03
865.063	-0
865.349	0.02
865.635	0.01
865.92	-0.02
866.206	-0.03
866.492	-0.02
866.777	-0.01
867.062	-0.02
867.348	0
867.633	0.04
867.918	0.04
868.203	0.01
868.488	0
868.773	0.01
869.058	-0
869.343	0.02
869.628	-0.03
869.912	-0.02
870.197	-0.02
870.482	-0.01
870.766	0.02
871.05	-0.01
871.335	-0.01
871.619	-0.04
871.903	-0.08
872.187	-0.02
872.471	-0.03
872.755	-0
873.039	-0.01
873.323	-0.03
873.607	0
873.89	-0.03
874.174	0
874.458	-0.01
874.741	-0.05
875.024	-0.02
875.308	-0.05
875.591	-0.11
875.874	-0.08
876.157	-0.04
876.44	-0.04
876.723	-0.03
877.006	-0.1
877.289	-0.04
877.572	-0.09
877.854	-0.12
878.137	-0.1
878.42	-0.09
878.702	-0.11
878.984	-0.11
879.267	-0.07
879.549	-0.03
879.831	-0.01
880.113	0.03
880.395	-0.05
880.677	-0.02
880.959	0.05
