Data from Rubpy_BV_EDTA_PtOEP_DPA_Green_StopFlow_Absorbance__10__15-13-42-937.txt Node

Date: Tue Jul 14 15:13:42 BST 2026
User: fpm-admin
Spectrometer: SR600986
Trigger mode: 0
Integration Time (sec): 1.800000E-2
Scans to average: 3
Nonlinearity correction enabled: true
Boxcar width: 0
Storing dark spectrum: false
XAxis mode: Wavelengths
Number of Pixels in Spectrum: 2048
>>>>>Begin Spectral Data<<<<<
188.613	0.07
189.078	0.06
189.542	0.06
190.007	0.03
190.472	0.06
190.936	0.03
191.401	0.05
191.865	0.05
192.33	0.06
192.794	0.06
193.258	0.04
193.723	0.03
194.187	0.07
194.651	0.04
195.115	0.06
195.579	0.07
196.043	0.05
196.507	0.07
196.971	0.04
197.435	0.07
197.899	0.04
198.363	0.06
198.827	0.04
199.29	0.05
199.754	0.08
200.218	0.06
200.681	0.05
201.145	0.03
201.608	0.05
202.072	0.06
202.535	0.07
202.998	0.04
203.462	0.05
203.925	0.06
204.388	0.04
204.851	0.06
205.314	0.06
205.777	0.06
206.24	0.07
206.703	0.05
207.166	0.07
207.629	0.05
208.092	0.04
208.555	0.06
209.018	0.06
209.48	0.07
209.943	0.06
210.406	0.05
210.868	0.07
211.331	0.05
211.793	0.06
212.256	0.06
212.718	0.06
213.18	0.07
213.643	0.05
214.105	0.06
214.567	0.05
215.029	0.07
215.491	0.06
215.953	0.05
216.415	0.06
216.877	0.06
217.339	0.06
217.801	0.05
218.263	0.05
218.725	0.05
219.186	0.06
219.648	0.06
220.11	0.04
220.571	0.04
221.033	0.04
221.494	0.05
221.956	0.08
222.417	0.05
222.878	0.04
223.34	0.07
223.801	0.09
224.262	0.05
224.723	0.07
225.185	0.04
225.646	0.05
226.107	0.05
226.568	0.04
227.029	0.07
227.489	0.07
227.95	0.04
228.411	0.06
228.872	0.04
229.332	0.02
229.793	0.05
230.254	0.07
230.714	0.04
231.175	0.06
231.635	0.06
232.096	0.06
232.556	0.07
233.016	0.05
233.477	0.05
233.937	0.07
234.397	0.05
234.857	0.06
235.317	0.05
235.777	0.06
236.237	0.06
236.697	0.06
237.157	0.06
237.617	0.05
238.077	0.02
238.537	0.04
238.996	0.04
239.456	0.07
239.916	0.05
240.375	0.07
240.835	0.05
241.294	0.04
241.754	0.05
242.213	0.06
242.672	0.07
243.132	0.06
243.591	0.05
244.05	0.06
244.509	0.06
244.968	0.05
245.427	0.06
245.886	0.05
246.345	0.08
246.804	0.05
247.263	0.04
247.722	0.06
248.181	0.07
248.639	0.04
249.098	0.05
249.557	0.05
250.015	0.06
250.474	0.08
250.932	0.04
251.391	0.06
251.849	0.06
252.308	0.07
252.766	0.05
253.224	0.07
253.682	0.04
254.14	0.05
254.599	0.06
255.057	0.04
255.515	0.06
255.973	0.06
256.431	0.06
256.888	0.06
257.346	0.03
257.804	0.04
258.262	0.06
258.719	0.06
259.177	0.07
259.635	0.05
260.092	0.05
260.55	0.06
261.007	0.07
261.465	0.06
261.922	0.05
262.379	0.07
262.836	0.07
263.294	0.05
263.751	0.07
264.208	0.05
264.665	0.05
265.122	0.07
265.579	0.03
266.036	0.05
266.493	0.06
266.95	0.03
267.406	0.05
267.863	0.03
268.32	0.06
268.777	0.05
269.233	0.04
269.69	0.05
270.146	0.08
270.603	0.07
271.059	0.05
271.515	0.06
271.972	0.06
272.428	0.05
272.884	0.03
273.34	0.03
273.796	0.04
274.253	0.05
274.709	0.06
275.165	0.06
275.62	0.02
276.076	0.07
276.532	0.04
276.988	0.05
277.444	0.05
277.899	0.05
278.355	0.06
278.811	0.04
279.266	0.04
279.722	0.04
280.177	0.04
280.633	0.05
281.088	0.04
281.543	0.05
281.998	0.05
282.454	0.08
282.909	0.03
283.364	0.06
283.819	0.08
284.274	0.06
284.729	0.04
285.184	0.06
285.639	0.04
286.094	0.08
286.548	0.06
287.003	0.06
287.458	0.06
287.913	0.04
288.367	0.04
288.822	0.09
289.276	0.03
289.731	0.06
290.185	0.08
290.639	0.04
291.094	0.04
291.548	0.07
292.002	0.06
292.456	0.06
292.91	0.06
293.365	0.04
293.819	0.04
294.273	0.05
294.726	0.06
295.18	0.05
295.634	0.07
296.088	0.05
296.542	0.03
296.995	0.06
297.449	0.06
297.903	0.05
298.356	0.08
298.81	0.04
299.263	0.06
299.716	0.06
300.17	0.05
300.623	0.08
301.076	0.04
301.53	0.07
301.983	0.06
302.436	0.07
302.889	0.02
303.342	0.06
303.795	0.04
304.248	0.08
304.701	0.05
305.153	0.04
305.606	0.06
306.059	0.06
306.512	0.05
306.964	0.08
307.417	0.04
307.869	0.08
308.322	0.08
308.774	0.06
309.227	0.09
309.679	0.05
310.131	0.05
310.584	0.08
311.036	0.06
311.488	0.05
311.94	0.08
312.392	0.07
312.844	0.07
313.296	0.05
313.748	0.06
314.2	0.06
314.652	0.05
315.103	0.07
315.555	0.08
316.007	0.04
316.458	0.07
316.91	0.07
317.361	0.08
317.813	0.08
318.264	0.07
318.716	0.08
319.167	0.06
319.618	0.08
320.07	0.07
320.521	0.09
320.972	0.1
321.423	0.07
321.874	0.08
322.325	0.08
322.776	0.1
323.227	0.09
323.678	0.1
324.128	0.1
324.579	0.1
325.03	0.1
325.48	0.1
325.931	0.1
326.382	0.1
326.832	0.1
327.283	0.1
327.733	0.11
328.183	0.11
328.634	0.11
329.084	0.11
329.534	0.12
329.984	0.11
330.434	0.12
330.884	0.12
331.334	0.12
331.784	0.13
332.234	0.13
332.684	0.13
333.134	0.13
333.584	0.14
334.034	0.14
334.483	0.14
334.933	0.15
335.382	0.15
335.832	0.15
336.281	0.16
336.731	0.16
337.18	0.16
337.63	0.17
338.079	0.16
338.528	0.17
338.977	0.18
339.426	0.17
339.876	0.18
340.325	0.18
340.774	0.19
341.223	0.19
341.671	0.19
342.12	0.2
342.569	0.2
343.018	0.21
343.467	0.21
343.915	0.21
344.364	0.21
344.812	0.21
345.261	0.22
345.709	0.23
346.158	0.23
346.606	0.23
347.054	0.23
347.503	0.23
347.951	0.24
348.399	0.25
348.847	0.25
349.295	0.25
349.743	0.25
350.191	0.25
350.639	0.26
351.087	0.27
351.535	0.27
351.983	0.27
352.43	0.27
352.878	0.28
353.326	0.28
353.773	0.28
354.221	0.29
354.668	0.29
355.116	0.3
355.563	0.3
356.01	0.31
356.458	0.3
356.905	0.31
357.352	0.32
357.799	0.32
358.246	0.33
358.693	0.33
359.14	0.34
359.587	0.34
360.034	0.35
360.481	0.35
360.928	0.36
361.375	0.36
361.821	0.37
362.268	0.37
362.714	0.38
363.161	0.38
363.608	0.38
364.054	0.39
364.5	0.39
364.947	0.39
365.393	0.4
365.839	0.4
366.285	0.4
366.732	0.41
367.178	0.41
367.624	0.41
368.07	0.41
368.516	0.41
368.962	0.42
369.408	0.42
369.853	0.41
370.299	0.42
370.745	0.41
371.19	0.42
371.636	0.41
372.082	0.41
372.527	0.41
372.973	0.4
373.418	0.4
373.863	0.4
374.309	0.39
374.754	0.39
375.199	0.38
375.644	0.37
376.09	0.36
376.535	0.36
376.98	0.35
377.425	0.34
377.87	0.34
378.314	0.34
378.759	0.33
379.204	0.32
379.649	0.31
380.093	0.31
380.538	0.3
380.983	0.3
381.427	0.29
381.872	0.29
382.316	0.28
382.76	0.28
383.205	0.27
383.649	0.27
384.093	0.26
384.537	0.26
384.982	0.25
385.426	0.25
385.87	0.25
386.314	0.24
386.758	0.24
387.201	0.24
387.645	0.23
388.089	0.23
388.533	0.22
388.976	0.22
389.42	0.22
389.864	0.21
390.307	0.21
390.751	0.21
391.194	0.2
391.638	0.2
392.081	0.2
392.524	0.19
392.967	0.19
393.411	0.19
393.854	0.19
394.297	0.18
394.74	0.19
395.183	0.2
395.626	0.19
396.069	0.2
396.512	0.2
396.954	0.2
397.397	0.2
397.84	0.2
398.282	0.21
398.725	0.21
399.168	0.21
399.61	0.21
400.052	0.21
400.495	0.21
400.937	0.2
401.38	0.2
401.822	0.2
402.264	0.19
402.706	0.19
403.148	0.18
403.59	0.17
404.032	0.17
404.474	0.16
404.916	0.15
405.358	0.15
405.8	0.13
406.241	0.13
406.683	0.13
407.125	0.11
407.566	0.11
408.008	0.11
408.449	0.1
408.891	0.09
409.332	0.09
409.774	0.09
410.215	0.08
410.656	0.07
411.097	0.08
411.539	0.07
411.98	0.07
412.421	0.07
412.862	0.07
413.303	0.06
413.744	0.06
414.184	0.05
414.625	0.06
415.066	0.06
415.507	0.05
415.947	0.05
416.388	0.05
416.828	0.04
417.269	0.05
417.709	0.04
418.15	0.04
418.59	0.04
419.03	0.04
419.471	0.04
419.911	0.04
420.351	0.04
420.791	0.04
421.231	0.03
421.671	0.03
422.111	0.04
422.551	0.04
422.991	0.04
423.431	0.04
423.87	0.03
424.31	0.04
424.75	0.04
425.189	0.04
425.629	0.04
426.068	0.04
426.508	0.03
426.947	0.03
427.386	0.04
427.826	0.04
428.265	0.03
428.704	0.03
429.143	0.04
429.582	0.04
430.021	0.03
430.46	0.02
430.899	0.03
431.338	0.04
431.777	0.03
432.216	0.03
432.655	0.04
433.093	0.03
433.532	0.04
433.971	0.04
434.409	0.02
434.848	0.04
435.286	0.04
435.724	0.03
436.163	0.02
436.601	0.04
437.039	0.04
437.477	0.04
437.916	0.04
438.354	0.02
438.792	0.04
439.23	0.04
439.668	0.04
440.105	0.04
440.543	0.05
440.981	0.05
441.419	0.02
441.856	0.03
442.294	0.04
442.732	0.05
443.169	0.03
443.607	0.04
444.044	0.04
444.481	0.04
444.919	0.04
445.356	0.06
445.793	0.03
446.23	0.04
446.668	0.03
447.105	0.04
447.542	0.04
447.979	0.06
448.416	0.04
448.852	0.05
449.289	0.04
449.726	0.05
450.163	0.04
450.599	0.05
451.036	0.04
451.473	0.05
451.909	0.05
452.346	0.05
452.782	0.03
453.218	0.04
453.655	0.04
454.091	0.04
454.527	0.05
454.963	0.05
455.399	0.04
455.835	0.05
456.271	0.04
456.707	0.05
457.143	0.06
457.579	0.04
458.015	0.04
458.451	0.05
458.886	0.07
459.322	0.06
459.758	0.04
460.193	0.05
460.629	0.06
461.064	0.05
461.5	0.03
461.935	0.05
462.37	0.05
462.805	0.05
463.241	0.05
463.676	0.06
464.111	0.06
464.546	0.06
464.981	0.06
465.416	0.06
465.851	0.05
466.286	0.06
466.72	0.07
467.155	0.07
467.59	0.06
468.024	0.07
468.459	0.06
468.893	0.07
469.328	0.06
469.762	0.07
470.197	0.07
470.631	0.06
471.065	0.06
471.5	0.07
471.934	0.07
472.368	0.07
472.802	0.08
473.236	0.07
473.67	0.07
474.104	0.08
474.538	0.07
474.972	0.08
475.405	0.08
475.839	0.08
476.273	0.08
476.706	0.08
477.14	0.08
477.573	0.09
478.007	0.09
478.44	0.09
478.874	0.09
479.307	0.09
479.74	0.09
480.173	0.09
480.606	0.09
481.04	0.09
481.473	0.09
481.906	0.09
482.339	0.09
482.771	0.09
483.204	0.09
483.637	0.1
484.07	0.1
484.502	0.1
484.935	0.1
485.368	0.1
485.8	0.1
486.233	0.1
486.665	0.1
487.098	0.1
487.53	0.1
487.962	0.1
488.394	0.1
488.827	0.11
489.259	0.11
489.691	0.11
490.123	0.11
490.555	0.11
490.987	0.11
491.418	0.11
491.85	0.11
492.282	0.12
492.714	0.12
493.145	0.11
493.577	0.12
494.009	0.12
494.44	0.12
494.872	0.12
495.303	0.12
495.734	0.12
496.166	0.12
496.597	0.12
497.028	0.12
497.459	0.13
497.89	0.13
498.321	0.13
498.752	0.13
499.183	0.13
499.614	0.13
500.045	0.13
500.476	0.13
500.906	0.13
501.337	0.13
501.768	0.13
502.198	0.14
502.629	0.13
503.059	0.14
503.49	0.14
503.92	0.14
504.35	0.14
504.781	0.14
505.211	0.14
505.641	0.14
506.071	0.14
506.501	0.15
506.931	0.15
507.361	0.15
507.791	0.15
508.221	0.15
508.651	0.15
509.081	0.15
509.51	0.15
509.94	0.15
510.37	0.15
510.799	0.15
511.229	0.15
511.658	0.16
512.087	0.16
512.517	0.15
512.946	0.15
513.375	0.16
513.804	0.16
514.234	0.16
514.663	0.16
515.092	0.16
515.521	0.16
515.95	0.16
516.378	0.16
516.807	0.16
517.236	0.17
517.665	0.16
518.093	0.17
518.522	0.16
518.951	0.17
519.379	0.16
519.807	0.17
520.236	0.17
520.664	0.17
521.093	0.17
521.521	0.17
521.949	0.17
522.377	0.18
522.805	0.17
523.233	0.17
523.661	0.18
524.089	0.18
524.517	0.17
524.945	0.18
525.373	0.18
525.8	0.18
526.228	0.18
526.656	0.18
527.083	0.18
527.511	0.18
527.938	0.18
528.366	0.18
528.793	0.18
529.22	0.18
529.648	0.18
530.075	0.18
530.502	0.18
530.929	0.18
531.356	0.18
531.783	0.18
532.21	0.18
532.637	0.18
533.064	0.18
533.49	0.18
533.917	0.18
534.344	0.18
534.771	0.18
535.197	0.18
535.624	0.19
536.05	0.19
536.477	0.18
536.903	0.19
537.329	0.19
537.755	0.19
538.182	0.18
538.608	0.19
539.034	0.19
539.46	0.19
539.886	0.19
540.312	0.19
540.738	0.19
541.164	0.19
541.589	0.19
542.015	0.19
542.441	0.19
542.867	0.19
543.292	0.19
543.718	0.19
544.143	0.19
544.569	0.19
544.994	0.19
545.419	0.19
545.845	0.19
546.27	0.18
546.695	0.19
547.12	0.19
547.545	0.19
547.97	0.19
548.395	0.19
548.82	0.18
549.245	0.19
549.67	0.19
550.094	0.18
550.519	0.19
550.944	0.18
551.368	0.18
551.793	0.19
552.217	0.19
552.642	0.19
553.066	0.18
553.49	0.18
553.915	0.18
554.339	0.19
554.763	0.18
555.187	0.19
555.611	0.18
556.035	0.18
556.459	0.18
556.883	0.18
557.307	0.18
557.731	0.18
558.154	0.18
558.578	0.18
559.002	0.18
559.425	0.18
559.849	0.18
560.272	0.18
560.696	0.18
561.119	0.18
561.543	0.18
561.966	0.18
562.389	0.18
562.812	0.18
563.235	0.17
563.658	0.18
564.081	0.18
564.504	0.18
564.927	0.17
565.35	0.18
565.773	0.18
566.196	0.17
566.618	0.17
567.041	0.17
567.463	0.17
567.886	0.17
568.309	0.17
568.731	0.17
569.153	0.17
569.576	0.17
569.998	0.17
570.42	0.17
570.842	0.17
571.264	0.17
571.686	0.17
572.108	0.17
572.53	0.17
572.952	0.17
573.374	0.17
573.796	0.17
574.218	0.16
574.639	0.17
575.061	0.17
575.483	0.16
575.904	0.16
576.326	0.16
576.747	0.16
577.168	0.16
577.59	0.16
578.011	0.16
578.432	0.16
578.853	0.16
579.274	0.16
579.695	0.16
580.116	0.16
580.537	0.16
580.958	0.16
581.379	0.16
581.8	0.16
582.221	0.16
582.641	0.16
583.062	0.16
583.482	0.16
583.903	0.16
584.323	0.16
584.744	0.16
585.164	0.16
585.584	0.15
586.005	0.15
586.425	0.15
586.845	0.15
587.265	0.15
587.685	0.16
588.105	0.15
588.525	0.15
588.945	0.15
589.365	0.15
589.785	0.15
590.204	0.15
590.624	0.15
591.044	0.15
591.463	0.15
591.883	0.15
592.302	0.15
592.721	0.15
593.141	0.15
593.56	0.15
593.979	0.15
594.399	0.15
594.818	0.15
595.237	0.15
595.656	0.15
596.075	0.15
596.494	0.15
596.913	0.15
597.331	0.15
597.75	0.15
598.169	0.15
598.587	0.15
599.006	0.14
599.425	0.14
599.843	0.14
600.262	0.15
600.68	0.14
601.098	0.14
601.517	0.14
601.935	0.14
602.353	0.14
602.771	0.14
603.189	0.14
603.607	0.14
604.025	0.14
604.443	0.14
604.861	0.14
605.279	0.14
605.696	0.14
606.114	0.14
606.532	0.14
606.949	0.14
607.367	0.14
607.784	0.13
608.202	0.13
608.619	0.13
609.036	0.13
609.454	0.13
609.871	0.13
610.288	0.13
610.705	0.13
611.122	0.13
611.539	0.13
611.956	0.13
612.373	0.13
612.79	0.13
613.207	0.13
613.623	0.13
614.04	0.13
614.457	0.13
614.873	0.13
615.29	0.13
615.706	0.12
616.122	0.12
616.539	0.12
616.955	0.12
617.371	0.12
617.788	0.12
618.204	0.12
618.62	0.12
619.036	0.12
619.452	0.12
619.868	0.12
620.284	0.12
620.699	0.12
621.115	0.11
621.531	0.12
621.946	0.12
622.362	0.11
622.778	0.11
623.193	0.11
623.608	0.11
624.024	0.11
624.439	0.11
624.854	0.11
625.27	0.11
625.685	0.11
626.1	0.11
626.515	0.11
626.93	0.11
627.345	0.11
627.76	0.11
628.175	0.1
628.589	0.11
629.004	0.1
629.419	0.1
629.833	0.1
630.248	0.1
630.663	0.1
631.077	0.1
631.491	0.1
631.906	0.1
632.32	0.1
632.734	0.1
633.148	0.1
633.563	0.1
633.977	0.09
634.391	0.09
634.805	0.09
635.219	0.09
635.632	0.09
636.046	0.09
636.46	0.09
636.874	0.09
637.287	0.09
637.701	0.09
638.115	0.09
638.528	0.09
638.941	0.09
639.355	0.09
639.768	0.09
640.181	0.09
640.595	0.08
641.008	0.08
641.421	0.08
641.834	0.08
642.247	0.08
642.66	0.08
643.073	0.08
643.486	0.08
643.898	0.08
644.311	0.08
644.724	0.08
645.136	0.08
645.549	0.08
645.961	0.08
646.374	0.08
646.786	0.08
647.199	0.08
647.611	0.08
648.023	0.07
648.435	0.07
648.847	0.07
649.26	0.08
649.672	0.07
650.084	0.07
650.495	0.07
650.907	0.07
651.319	0.07
651.731	0.07
652.143	0.07
652.554	0.07
652.966	0.07
653.377	0.07
653.789	0.07
654.2	0.07
654.612	0.08
655.023	0.05
655.434	0.04
655.845	0.07
656.256	0.08
656.668	0.07
657.079	0.07
657.49	0.07
657.901	0.07
658.311	0.07
658.722	0.07
659.133	0.07
659.544	0.07
659.954	0.07
660.365	0.07
660.775	0.07
661.186	0.06
661.596	0.06
662.007	0.06
662.417	0.06
662.827	0.06
663.238	0.06
663.648	0.06
664.058	0.06
664.468	0.06
664.878	0.06
665.288	0.06
665.698	0.06
666.108	0.06
666.517	0.06
666.927	0.06
667.337	0.06
667.746	0.05
668.156	0.06
668.565	0.06
668.975	0.06
669.384	0.05
669.794	0.05
670.203	0.06
670.612	0.05
671.021	0.05
671.43	0.05
671.84	0.05
672.249	0.05
672.658	0.05
673.066	0.05
673.475	0.05
673.884	0.05
674.293	0.05
674.702	0.05
675.11	0.05
675.519	0.05
675.927	0.05
676.336	0.05
676.744	0.05
677.152	0.05
677.561	0.05
677.969	0.04
678.377	0.05
678.785	0.04
679.193	0.04
679.601	0.04
680.009	0.04
680.417	0.04
680.825	0.04
681.233	0.04
681.641	0.04
682.048	0.04
682.456	0.04
682.864	0.04
683.271	0.04
683.679	0.04
684.086	0.04
684.493	0.04
684.901	0.04
685.308	0.04
685.715	0.04
686.122	0.04
686.529	0.04
686.936	0.04
687.343	0.04
687.75	0.04
688.157	0.03
688.564	0.03
688.971	0.03
689.378	0.03
689.784	0.03
690.191	0.03
690.597	0.03
691.004	0.03
691.41	0.03
691.817	0.03
692.223	0.03
692.629	0.03
693.035	0.03
693.442	0.03
693.848	0.03
694.254	0.03
694.66	0.03
695.066	0.03
695.471	0.03
695.877	0.03
696.283	0.03
696.689	0.02
697.094	0.03
697.5	0.03
697.906	0.03
698.311	0.03
698.716	0.03
699.122	0.03
699.527	0.03
699.932	0.03
700.338	0.03
700.743	0.03
701.148	0.03
701.553	0.02
701.958	0.03
702.363	0.03
702.768	0.03
703.173	0.03
703.577	0.03
703.982	0.03
704.387	0.02
704.791	0.02
705.196	0.02
705.6	0.02
706.005	0.02
706.409	0.02
706.814	0.02
707.218	0.02
707.622	0.02
708.026	0.02
708.43	0.02
708.834	0.02
709.238	0.02
709.642	0.03
710.046	0.03
710.45	0.02
710.854	0.02
711.257	0.02
711.661	0.02
712.065	0.02
712.468	0.02
712.872	0.02
713.275	0.02
713.679	0.02
714.082	0.02
714.485	0.02
714.888	0.02
715.291	0.02
715.695	0.02
716.098	0.02
716.501	0.02
716.904	0.02
717.306	0.02
717.709	0.02
718.112	0.02
718.515	0.02
718.917	0.02
719.32	0.02
719.723	0.02
720.125	0.02
720.527	0.02
720.93	0.02
721.332	0.02
721.734	0.02
722.137	0.02
722.539	0.02
722.941	0.02
723.343	0.02
723.745	0.03
724.147	0.02
724.549	0.02
724.95	0.02
725.352	0.02
725.754	0.02
726.156	0.02
726.557	0.02
726.959	0.02
727.36	0.02
727.762	0.02
728.163	0.02
728.564	0.02
728.966	0.02
729.367	0.02
729.768	0.02
730.169	0.02
730.57	0.02
730.971	0.02
731.372	0.02
731.773	0.02
732.174	0.02
732.574	0.02
732.975	0.02
733.376	0.02
733.776	0.02
734.177	0.02
734.577	0.02
734.978	0.02
735.378	0.02
735.778	0.02
736.179	0.02
736.579	0.02
736.979	0.02
737.379	0.02
737.779	0.02
738.179	0.02
738.579	0.02
738.979	0.02
739.379	0.02
739.778	0.02
740.178	0.02
740.578	0.02
740.977	0.02
741.377	0.02
741.776	0.02
742.176	0.02
742.575	0.02
742.974	0.02
743.374	0.02
743.773	0.02
744.172	0.02
744.571	0.02
744.97	0.02
745.369	0.02
745.768	0.02
746.167	0.02
746.565	0.02
746.964	0.02
747.363	0.02
747.761	0.02
748.16	0.02
748.559	0.02
748.957	0.02
749.355	0.02
749.754	0.02
750.152	0.02
750.55	0.02
750.948	0.02
751.347	0.02
751.745	0.02
752.143	0.01
752.541	0.02
752.938	0.02
753.336	0.01
753.734	0.01
754.132	0.01
754.529	0.01
754.927	0.02
755.325	0.02
755.722	0.02
756.119	0.01
756.517	0.01
756.914	0.01
757.311	0.02
757.709	0.01
758.106	0.01
758.503	0.01
758.9	0.01
759.297	0.02
759.694	0.02
760.091	0.01
760.488	0.01
760.884	0.02
761.281	0.02
761.678	0.02
762.074	0.02
762.471	0.02
762.867	0.02
763.264	0.01
763.66	0.01
764.056	0.01
764.453	0.01
764.849	0.01
765.245	0.01
765.641	0.01
766.037	0.01
766.433	0.01
766.829	0.01
767.225	0.01
767.621	0.01
768.016	0.02
768.412	0.01
768.808	0.01
769.203	0.01
769.599	0.01
769.994	0.02
770.389	0.02
770.785	0.01
771.18	0.01
771.575	0.01
771.971	0.01
772.366	0.01
772.761	0.01
773.156	0.01
773.551	0.01
773.945	0.01
774.34	0.01
774.735	0.01
775.13	0.01
775.524	0.01
775.919	0.02
776.314	0.01
776.708	0.01
777.103	0.02
777.497	0.02
777.891	0.01
778.285	0.01
778.68	0.02
779.074	0.01
779.468	0.01
779.862	0.01
780.256	0.01
780.65	0.01
781.044	0.01
781.438	0.01
781.831	0.01
782.225	0.01
782.619	0.02
783.012	0.01
783.406	0.02
783.799	0.01
784.193	0.02
784.586	0.02
784.979	0.02
785.372	0.02
785.766	0.01
786.159	0.02
786.552	0.01
786.945	0.02
787.338	0.01
787.731	0.01
788.123	0.02
788.516	0.01
788.909	0.01
789.302	0.02
789.694	0.02
790.087	0.02
790.479	0.02
790.872	0.02
791.264	0.02
791.656	0.02
792.049	0.02
792.441	0.02
792.833	0.02
793.225	0.02
793.617	0.02
794.009	0.02
794.401	0.01
794.793	0.02
795.185	0.02
795.576	0.02
795.968	0.02
796.36	0.02
796.751	0.02
797.143	0.02
797.534	0.02
797.926	0.02
798.317	0.02
798.708	0.02
799.1	0.02
799.491	0.02
799.882	0.02
800.273	0.02
800.664	0.02
801.055	0.02
801.446	0.02
801.837	0.02
802.227	0.02
802.618	0.02
803.009	0.02
803.399	0.02
803.79	0.02
804.18	0.02
804.571	0.02
804.961	0.02
805.351	0.02
805.742	0.02
806.132	0.02
806.522	0.02
806.912	0.02
807.302	0.02
807.692	0.02
808.082	0.02
808.472	0.02
808.862	0.03
809.251	0.02
809.641	0.02
810.031	0.02
810.42	0.02
810.81	0.02
811.199	0.02
811.589	0.02
811.978	0.02
812.367	0.02
812.756	0.02
813.146	0.02
813.535	0.02
813.924	0.02
814.313	0.02
814.702	0.02
815.091	0.02
815.479	0.02
815.868	0.02
816.257	0.02
816.645	0.02
817.034	0.02
817.423	0.02
817.811	0.02
818.199	0.02
818.588	0.02
818.976	0.02
819.364	0.02
819.753	0.02
820.141	0.02
820.529	0.02
820.917	0.02
821.305	0.02
821.693	0.02
822.08	0.03
822.468	0.02
822.856	0.02
823.244	0.03
823.631	0.03
824.019	0.03
824.406	0.03
824.794	0.03
825.181	0.03
825.568	0.02
825.956	0.03
826.343	0.03
826.73	0.03
827.117	0.03
827.504	0.03
827.891	0.02
828.278	0.02
828.665	0.03
829.052	0.03
829.438	0.03
829.825	0.03
830.212	0.03
830.598	0.03
830.985	0.03
831.371	0.03
831.757	0.03
832.144	0.03
832.53	0.03
832.916	0.03
833.302	0.03
833.688	0.03
834.075	0.03
834.461	0.03
834.846	0.03
835.232	0.03
835.618	0.03
836.004	0.03
836.39	0.03
836.775	0.03
837.161	0.03
837.546	0.03
837.932	0.03
838.317	0.03
838.702	0.03
839.088	0.03
839.473	0.03
839.858	0.03
840.243	0.03
840.628	0.03
841.013	0.03
841.398	0.03
841.783	0.03
842.168	0.03
842.553	0.04
842.937	0.03
843.322	0.03
843.707	0.04
844.091	0.03
844.476	0.04
844.86	0.03
845.244	0.03
845.629	0.03
846.013	0.04
846.397	0.04
846.781	0.03
847.165	0.03
847.549	0.03
847.933	0.03
848.317	0.03
848.701	0.03
849.085	0.03
849.468	0.03
849.852	0.03
850.236	0.03
850.619	0.03
851.003	0.03
851.386	0.03
851.769	0.03
852.153	0.04
852.536	0.04
852.919	0.04
853.302	0.04
853.685	0.04
854.068	0.04
854.451	0.03
854.834	0.03
855.217	0.04
855.6	0.04
855.982	0.04
856.365	0.04
856.748	0.04
857.13	0.04
857.513	0.04
857.895	0.04
858.277	0.04
858.66	0.03
859.042	0.04
859.424	0.04
859.806	0.04
860.188	0.04
860.57	0.04
860.952	0.04
861.334	0.04
861.716	0.04
862.098	0.04
862.48	0.04
862.861	0.04
863.243	0.04
863.624	0.04
864.006	0.04
864.387	0.04
864.769	0.04
865.15	0.04
865.531	0.04
865.912	0.04
866.294	0.04
866.675	0.04
867.056	0.04
867.437	0.04
867.818	0.04
868.198	0.04
868.579	0.04
868.96	0.04
869.341	0.04
869.721	0.04
870.102	0.04
870.482	0.04
870.863	0.04
871.243	0.04
871.623	0.04
872.003	0.04
872.384	0.04
872.764	0.04
873.144	0.04
873.524	0.04
873.904	0.04
874.284	0.04
874.664	0.04
875.043	0.04
875.423	0.04
875.803	0.04
876.182	0.04
876.562	0.04
876.941	0.04
877.321	0.04
877.7	0.05
878.079	0.04
878.459	0.04
878.838	0.04
879.217	0.04
879.596	0.04
879.975	0.04
880.354	0.04
880.733	0.04
881.112	0.04
881.491	0.04
881.869	0.04
882.248	0.04
882.627	0.04
883.005	0.04
883.384	0.04
883.762	0.04
884.14	0.05
884.519	0.04
884.897	0.04
885.275	0.04
885.653	0.04
886.031	0.04
886.409	0.05
886.787	0.04
887.165	0.05
887.543	0.04
887.921	0.04
888.298	0.04
888.676	0.04
889.054	0.04
889.431	0.04
889.809	0.05
890.186	0.05
890.563	0.05
890.941	0.05
891.318	0.04
891.695	0.04
892.072	0.05
892.449	0.05
892.826	0.05
893.203	0.05
893.58	0.05
893.957	0.05
894.334	0.05
894.71	0.05
895.087	0.05
895.464	0.04
895.84	0.05
896.217	0.05
896.593	0.05
896.969	0.05
897.346	0.05
897.722	0.04
898.098	0.05
898.474	0.05
898.85	0.05
899.226	0.04
899.602	0.05
899.978	0.05
900.354	0.05
900.73	0.04
901.105	0.05
901.481	0.05
901.857	0.05
902.232	0.05
902.608	0.05
902.983	0.05
903.358	0.05
903.734	0.05
904.109	0.05
904.484	0.05
904.859	0.05
905.234	0.05
905.609	0.05
905.984	0.05
906.359	0.05
906.734	0.05
907.108	0.05
907.483	0.05
907.858	0.05
908.232	0.05
908.607	0.05
908.981	0.05
909.356	0.05
909.73	0.05
910.104	0.05
910.478	0.05
910.853	0.05
911.227	0.05
911.601	0.05
911.975	0.05
912.349	0.05
912.722	0.05
913.096	0.05
913.47	0.05
913.844	0.05
914.217	0.05
914.591	0.05
914.964	0.05
915.338	0.05
915.711	0.05
916.084	0.05
916.458	0.05
916.831	0.05
917.204	0.05
917.577	0.05
917.95	0.05
918.323	0.05
918.696	0.05
919.069	0.05
919.441	0.05
919.814	0.05
920.187	0.05
920.559	0.05
920.932	0.05
921.304	0.05
921.677	0.05
922.049	0.05
922.421	0.05
922.794	0.05
923.166	0.05
923.538	0.05
923.91	0.05
924.282	0.05
924.654	0.05
925.026	0.05
925.398	0.05
925.769	0.05
926.141	0.05
926.513	0.05
926.884	0.05
927.256	0.05
927.627	0.05
927.999	0.05
928.37	0.05
928.741	0.05
929.113	0.05
929.484	0.05
929.855	0.05
930.226	0.05
930.597	0.05
930.968	0.05
931.339	0.05
931.709	0.05
932.08	0.05
932.451	0.05
932.821	0.05
933.192	0.05
933.562	0.05
933.933	0.05
934.303	0.05
934.673	0.05
935.044	0.05
935.414	0.05
935.784	0.05
936.154	0.05
936.524	0.05
936.894	0.05
937.264	0.05
937.634	0.05
938.004	0.05
938.373	0.05
938.743	0.05
939.113	0.05
939.482	0.05
939.852	0.05
940.221	0.05
940.59	0.05
940.96	0.05
941.329	0.05
941.698	0.05
942.067	0.05
942.436	0.05
942.805	0.05
943.174	0.05
943.543	0.05
943.912	0.05
944.28	0.05
944.649	0.05
945.018	0.05
945.386	0.05
945.755	0.05
946.123	0.05
946.492	0.05
946.86	0.05
947.228	0.05
947.596	0.05
947.965	0.05
948.333	0.05
948.701	0.05
949.069	0.05
949.437	0.05
949.804	0.05
950.172	0.05
950.54	0.05
950.908	0.05
951.275	0.05
951.643	0.05
952.01	0.05
952.378	0.05
952.745	0.05
953.112	0.05
953.479	0.05
953.847	0.05
954.214	0.04
954.581	0.04
954.948	0.05
955.315	0.04
955.682	0.05
956.048	0.05
956.415	0.05
956.782	0.05
957.148	0.05
957.515	0.05
957.881	0.05
958.248	0.05
958.614	0.05
958.981	0.05
959.347	0.05
959.713	0.05
960.079	0.05
960.445	0.05
960.811	0.05
961.177	0.05
961.543	0.05
961.909	0.05
962.275	0.04
962.641	0.04
963.006	0.04
963.372	0.05
963.737	0.05
964.103	0.04
964.468	0.04
964.834	0.05
965.199	0.04
965.564	0.05
965.929	0.05
966.294	0.05
966.659	0.05
967.024	0.05
967.389	0.05
967.754	0.05
968.119	0.05
968.484	0.05
968.848	0.05
969.213	0.05
969.578	0.05
969.942	0.04
970.307	0.04
970.671	0.04
971.035	0.04
971.399	0.05
971.764	0.04
972.128	0.04
972.492	0.04
972.856	0.04
973.22	0.04
973.584	0.04
973.948	0.04
974.311	0.04
974.675	0.04
975.039	0.04
975.402	0.05
975.766	0.04
976.129	0.05
976.493	0.05
976.856	0.04
977.219	0.05
977.582	0.05
977.946	0.04
978.309	0.04
978.672	0.04
979.035	0.04
979.398	0.04
979.761	0.04
980.123	0.04
980.486	0.04
980.849	0.04
981.211	0.05
981.574	0.04
981.936	0.04
982.299	0.05
982.661	0.04
983.023	0.04
983.386	0.04
983.748	0.04
984.11	0.05
984.472	0.05
984.834	0.04
985.196	0.04
985.558	0.04
985.92	0.05
986.281	0.04
986.643	0.04
987.005	0.04
987.366	0.04
987.728	0.04
988.089	0.04
988.451	0.04
988.812	0.04
989.173	0.04
989.534	0.05
989.895	0.05
990.257	0.05
990.618	0.05
990.979	0.04
991.339	0.04
991.7	0.04
992.061	0.04
992.422	0.04
992.782	0.04
993.143	0.04
993.503	0.04
993.864	0.04
994.224	0.04
994.585	0.04
994.945	0.04
995.305	0.04
995.665	0.04
996.025	0.04
996.385	0.04
996.745	0.04
997.105	0.04
997.465	0.04
997.825	0.04
998.185	0.04
998.544	0.04
998.904	0.04
999.263	0.04
999.623	0.04
999.982	0.04
1000.342	0.04
1000.701	0.04
1001.06	0.04
1001.419	0.04
1001.778	0.04
1002.138	0.04
1002.497	0.04
1002.855	0.04
1003.214	0.04
1003.573	0.04
1003.932	0.04
1004.29	0.04
1004.649	0.04
1005.008	0.04
1005.366	0.04
1005.725	0.04
1006.083	0.04
1006.441	0.04
1006.799	0.03
1007.158	0.04
1007.516	0.04
1007.874	0.04
1008.232	0.04
1008.59	0.04
1008.948	0.04
1009.305	0.04
1009.663	0.04
1010.021	0.04
1010.379	0.04
1010.736	0.04
1011.094	0.04
1011.451	0.04
1011.808	0.04
1012.166	0.04
1012.523	0.03
1012.88	0.04
1013.237	0.04
1013.594	0.04
1013.951	0.04
1014.308	0.04
1014.665	0.04
1015.022	0.04
1015.379	0.04
1015.735	0.04
1016.092	0.04
1016.449	0.04
1016.805	0.04
1017.162	0.04
1017.518	0.04
1017.874	0.04
1018.231	0.04
1018.587	0.04
1018.943	0.04
1019.299	0.04
1019.655	0.04
1020.011	0.04
1020.367	0.04
1020.723	0.05
1021.078	0.05
1021.434	0.05
1021.79	0.04
1022.145	0.04
1022.501	0.04
1022.856	0.04
1023.212	0.03
1023.567	0.04
1023.922	0.03
1024.278	0.03
1024.633	0.04
1024.988	0.04
1025.343	0.04
1025.698	0.04
1026.053	0.03
1026.408	0.03
1026.762	0.04
1027.117	0.04
1027.472	0.03
1027.826	0.04
1028.181	0.04
1028.535	0.03
1028.89	0.04
1029.244	0.04
1029.598	0.04
1029.952	0.04
1030.307	0.04
1030.661	0.04
1031.015	0.03
1031.369	0.04
1031.723	0.04
1032.076	0.05
