Data from Rubpy_BV_EDTA_Blank_StopFlow_Absorbance__9__16-52-51-074.txt Node

Date: Thu Jul 09 16:52:51 BST 2026
User: fpm-admin
Spectrometer: SR600986
Trigger mode: 0
Integration Time (sec): 2.500000E-2
Scans to average: 3
Nonlinearity correction enabled: true
Boxcar width: 0
Storing dark spectrum: false
XAxis mode: Wavelengths
Number of Pixels in Spectrum: 2048
>>>>>Begin Spectral Data<<<<<
188.613	0.2
189.078	0.2
189.542	0.19
190.007	0.22
190.472	0.19
190.936	0.21
191.401	0.21
191.865	0.18
192.33	0.2
192.794	0.21
193.258	0.19
193.723	0.18
194.187	0.19
194.651	0.21
195.115	0.2
195.579	0.21
196.043	0.19
196.507	0.2
196.971	0.18
197.435	0.23
197.899	0.21
198.363	0.19
198.827	0.2
199.29	0.19
199.754	0.19
200.218	0.2
200.681	0.19
201.145	0.19
201.608	0.21
202.072	0.2
202.535	0.2
202.998	0.19
203.462	0.19
203.925	0.18
204.388	0.17
204.851	0.21
205.314	0.19
205.777	0.2
206.24	0.18
206.703	0.21
207.166	0.2
207.629	0.19
208.092	0.18
208.555	0.19
209.018	0.2
209.48	0.2
209.943	0.17
210.406	0.2
210.868	0.21
211.331	0.21
211.793	0.2
212.256	0.19
212.718	0.2
213.18	0.21
213.643	0.2
214.105	0.2
214.567	0.17
215.029	0.2
215.491	0.19
215.953	0.19
216.415	0.19
216.877	0.2
217.339	0.19
217.801	0.21
218.263	0.23
218.725	0.22
219.186	0.2
219.648	0.19
220.11	0.21
220.571	0.21
221.033	0.19
221.494	0.21
221.956	0.17
222.417	0.21
222.878	0.19
223.34	0.19
223.801	0.19
224.262	0.2
224.723	0.19
225.185	0.18
225.646	0.23
226.107	0.22
226.568	0.22
227.029	0.17
227.489	0.19
227.95	0.2
228.411	0.18
228.872	0.2
229.332	0.21
229.793	0.21
230.254	0.2
230.714	0.19
231.175	0.21
231.635	0.21
232.096	0.22
232.556	0.21
233.016	0.19
233.477	0.2
233.937	0.19
234.397	0.2
234.857	0.2
235.317	0.19
235.777	0.22
236.237	0.24
236.697	0.18
237.157	0.16
237.617	0.21
238.077	0.23
238.537	0.2
238.996	0.19
239.456	0.2
239.916	0.2
240.375	0.16
240.835	0.19
241.294	0.18
241.754	0.2
242.213	0.2
242.672	0.22
243.132	0.23
243.591	0.17
244.05	0.21
244.509	0.19
244.968	0.2
245.427	0.21
245.886	0.2
246.345	0.2
246.804	0.19
247.263	0.2
247.722	0.18
248.181	0.2
248.639	0.19
249.098	0.19
249.557	0.2
250.015	0.22
250.474	0.2
250.932	0.19
251.391	0.19
251.849	0.2
252.308	0.19
252.766	0.18
253.224	0.2
253.682	0.18
254.14	0.18
254.599	0.19
255.057	0.2
255.515	0.22
255.973	0.21
256.431	0.18
256.888	0.21
257.346	0.21
257.804	0.2
258.262	0.2
258.719	0.19
259.177	0.19
259.635	0.19
260.092	0.22
260.55	0.19
261.007	0.19
261.465	0.2
261.922	0.18
262.379	0.2
262.836	0.21
263.294	0.19
263.751	0.21
264.208	0.2
264.665	0.19
265.122	0.22
265.579	0.21
266.036	0.19
266.493	0.2
266.95	0.2
267.406	0.21
267.863	0.2
268.32	0.2
268.777	0.21
269.233	0.22
269.69	0.16
270.146	0.19
270.603	0.2
271.059	0.23
271.515	0.21
271.972	0.19
272.428	0.21
272.884	0.2
273.34	0.18
273.796	0.2
274.253	0.2
274.709	0.16
275.165	0.21
275.62	0.22
276.076	0.21
276.532	0.18
276.988	0.21
277.444	0.18
277.899	0.19
278.355	0.2
278.811	0.22
279.266	0.2
279.722	0.16
280.177	0.22
280.633	0.21
281.088	0.2
281.543	0.22
281.998	0.22
282.454	0.21
282.909	0.19
283.364	0.22
283.819	0.19
284.274	0.19
284.729	0.22
285.184	0.22
285.639	0.23
286.094	0.2
286.548	0.19
287.003	0.2
287.458	0.19
287.913	0.18
288.367	0.19
288.822	0.19
289.276	0.2
289.731	0.21
290.185	0.19
290.639	0.2
291.094	0.23
291.548	0.2
292.002	0.21
292.456	0.22
292.91	0.17
293.365	0.17
293.819	0.22
294.273	0.2
294.726	0.23
295.18	0.21
295.634	0.19
296.088	0.23
296.542	0.21
296.995	0.23
297.449	0.19
297.903	0.21
298.356	0.2
298.81	0.22
299.263	0.21
299.716	0.19
300.17	0.24
300.623	0.19
301.076	0.21
301.53	0.23
301.983	0.18
302.436	0.19
302.889	0.18
303.342	0.21
303.795	0.2
304.248	0.24
304.701	0.22
305.153	0.22
305.606	0.21
306.059	0.19
306.512	0.22
306.964	0.25
307.417	0.21
307.869	0.2
308.322	0.21
308.774	0.18
309.227	0.22
309.679	0.26
310.131	0.24
310.584	0.21
311.036	0.24
311.488	0.21
311.94	0.23
312.392	0.23
312.844	0.21
313.296	0.24
313.748	0.22
314.2	0.25
314.652	0.23
315.103	0.23
315.555	0.25
316.007	0.25
316.458	0.26
316.91	0.26
317.361	0.25
317.813	0.26
318.264	0.28
318.716	0.26
319.167	0.28
319.618	0.27
320.07	0.29
320.521	0.29
320.972	0.3
321.423	0.3
321.874	0.29
322.325	0.31
322.776	0.33
323.227	0.34
323.678	0.33
324.128	0.34
324.579	0.35
325.03	0.37
325.48	0.36
325.931	0.37
326.382	0.39
326.832	0.37
327.283	0.41
327.733	0.4
328.183	0.43
328.634	0.44
329.084	0.45
329.534	0.45
329.984	0.46
330.434	0.49
330.884	0.49
331.334	0.5
331.784	0.53
332.234	0.53
332.684	0.54
333.134	0.56
333.584	0.58
334.034	0.57
334.483	0.58
334.933	0.61
335.382	0.62
335.832	0.63
336.281	0.63
336.731	0.65
337.18	0.67
337.63	0.68
338.079	0.69
338.528	0.72
338.977	0.71
339.426	0.74
339.876	0.76
340.325	0.78
340.774	0.78
341.223	0.8
341.671	0.82
342.12	0.83
342.569	0.83
343.018	0.86
343.467	0.87
343.915	0.88
344.364	0.89
344.812	0.9
345.261	0.93
345.709	0.93
346.158	0.95
346.606	0.96
347.054	0.97
347.503	0.98
347.951	0.99
348.399	1
348.847	1.01
349.295	1.03
349.743	1.05
350.191	1.04
350.639	1.07
351.087	1.08
351.535	1.09
351.983	1.11
352.43	1.12
352.878	1.13
353.326	1.14
353.773	1.15
354.221	1.16
354.668	1.18
355.116	1.19
355.563	1.21
356.01	1.22
356.458	1.24
356.905	1.25
357.352	1.27
357.799	1.29
358.246	1.31
358.693	1.33
359.14	1.34
359.587	1.34
360.034	1.38
360.481	1.38
360.928	1.4
361.375	1.4
361.821	1.43
362.268	1.44
362.714	1.43
363.161	1.46
363.608	1.48
364.054	1.5
364.5	1.49
364.947	1.52
365.393	1.52
365.839	1.53
366.285	1.51
366.732	1.52
367.178	1.55
367.624	1.54
368.07	1.55
368.516	1.55
368.962	1.55
369.408	1.53
369.853	1.55
370.299	1.54
370.745	1.54
371.19	1.53
371.636	1.52
372.082	1.52
372.527	1.51
372.973	1.5
373.418	1.49
373.863	1.49
374.309	1.46
374.754	1.45
375.199	1.42
375.644	1.41
376.09	1.4
376.535	1.35
376.98	1.34
377.425	1.33
377.87	1.3
378.314	1.29
378.759	1.26
379.204	1.24
379.649	1.22
380.093	1.19
380.538	1.16
380.983	1.14
381.427	1.12
381.872	1.09
382.316	1.07
382.76	1.04
383.205	1.02
383.649	1
384.093	0.97
384.537	0.96
384.982	0.93
385.426	0.91
385.87	0.9
386.314	0.87
386.758	0.85
387.201	0.84
387.645	0.81
388.089	0.8
388.533	0.78
388.976	0.77
389.42	0.75
389.864	0.73
390.307	0.72
390.751	0.7
391.194	0.68
391.638	0.67
392.081	0.65
392.524	0.65
392.967	0.64
393.411	0.62
393.854	0.62
394.297	0.61
394.74	0.61
395.183	0.61
395.626	0.6
396.069	0.61
396.512	0.61
396.954	0.62
397.397	0.62
397.84	0.61
398.282	0.62
398.725	0.62
399.168	0.61
399.61	0.61
400.052	0.6
400.495	0.6
400.937	0.58
401.38	0.57
401.822	0.56
402.264	0.55
402.706	0.54
403.148	0.52
403.59	0.5
404.032	0.47
404.474	0.46
404.916	0.44
405.358	0.43
405.8	0.41
406.241	0.39
406.683	0.37
407.125	0.36
407.566	0.35
408.008	0.32
408.449	0.31
408.891	0.3
409.332	0.29
409.774	0.28
410.215	0.27
410.656	0.26
411.097	0.25
411.539	0.24
411.98	0.23
412.421	0.22
412.862	0.21
413.303	0.21
413.744	0.21
414.184	0.2
414.625	0.19
415.066	0.19
415.507	0.18
415.947	0.18
416.388	0.18
416.828	0.17
417.269	0.17
417.709	0.16
418.15	0.16
418.59	0.16
419.03	0.17
419.471	0.16
419.911	0.15
420.351	0.14
420.791	0.16
421.231	0.15
421.671	0.15
422.111	0.15
422.551	0.14
422.991	0.15
423.431	0.15
423.87	0.15
424.31	0.14
424.75	0.15
425.189	0.14
425.629	0.14
426.068	0.14
426.508	0.14
426.947	0.15
427.386	0.15
427.826	0.14
428.265	0.14
428.704	0.14
429.143	0.15
429.582	0.13
430.021	0.14
430.46	0.15
430.899	0.13
431.338	0.14
431.777	0.13
432.216	0.14
432.655	0.15
433.093	0.14
433.532	0.14
433.971	0.14
434.409	0.14
434.848	0.16
435.286	0.15
435.724	0.15
436.163	0.15
436.601	0.15
437.039	0.15
437.477	0.15
437.916	0.16
438.354	0.16
438.792	0.16
439.23	0.15
439.668	0.17
440.105	0.15
440.543	0.15
440.981	0.17
441.419	0.16
441.856	0.17
442.294	0.16
442.732	0.17
443.169	0.16
443.607	0.18
444.044	0.17
444.481	0.17
444.919	0.18
445.356	0.16
445.793	0.17
446.23	0.17
446.668	0.17
447.105	0.16
447.542	0.18
447.979	0.17
448.416	0.18
448.852	0.19
449.289	0.21
449.726	0.17
450.163	0.2
450.599	0.18
451.036	0.19
451.473	0.21
451.909	0.2
452.346	0.2
452.782	0.2
453.218	0.19
453.655	0.2
454.091	0.2
454.527	0.19
454.963	0.21
455.399	0.2
455.835	0.22
456.271	0.2
456.707	0.22
457.143	0.21
457.579	0.21
458.015	0.21
458.451	0.23
458.886	0.22
459.322	0.22
459.758	0.23
460.193	0.23
460.629	0.22
461.064	0.23
461.5	0.24
461.935	0.25
462.37	0.24
462.805	0.26
463.241	0.25
463.676	0.25
464.111	0.25
464.546	0.25
464.981	0.26
465.416	0.27
465.851	0.27
466.286	0.26
466.72	0.28
467.155	0.28
467.59	0.28
468.024	0.29
468.459	0.29
468.893	0.28
469.328	0.3
469.762	0.3
470.197	0.31
470.631	0.3
471.065	0.32
471.5	0.32
471.934	0.32
472.368	0.33
472.802	0.33
473.236	0.34
473.67	0.34
474.104	0.33
474.538	0.34
474.972	0.35
475.405	0.36
475.839	0.36
476.273	0.36
476.706	0.37
477.14	0.38
477.573	0.37
478.007	0.38
478.44	0.39
478.874	0.38
479.307	0.4
479.74	0.39
480.173	0.4
480.606	0.4
481.04	0.41
481.473	0.41
481.906	0.41
482.339	0.42
482.771	0.42
483.204	0.43
483.637	0.44
484.07	0.44
484.502	0.44
484.935	0.45
485.368	0.45
485.8	0.45
486.233	0.46
486.665	0.46
487.098	0.47
487.53	0.47
487.962	0.47
488.394	0.48
488.827	0.48
489.259	0.49
489.691	0.5
490.123	0.5
490.555	0.5
490.987	0.5
491.418	0.51
491.85	0.51
492.282	0.52
492.714	0.52
493.145	0.52
493.577	0.53
494.009	0.53
494.44	0.54
494.872	0.54
495.303	0.54
495.734	0.55
496.166	0.55
496.597	0.56
497.028	0.56
497.459	0.57
497.89	0.57
498.321	0.57
498.752	0.58
499.183	0.58
499.614	0.58
500.045	0.59
500.476	0.6
500.906	0.6
501.337	0.6
501.768	0.61
502.198	0.61
502.629	0.61
503.059	0.62
503.49	0.62
503.92	0.63
504.35	0.63
504.781	0.63
505.211	0.63
505.641	0.64
506.071	0.64
506.501	0.65
506.931	0.65
507.361	0.66
507.791	0.66
508.221	0.66
508.651	0.66
509.081	0.67
509.51	0.67
509.94	0.68
510.37	0.68
510.799	0.68
511.229	0.69
511.658	0.69
512.087	0.69
512.517	0.7
512.946	0.7
513.375	0.7
513.804	0.71
514.234	0.7
514.663	0.71
515.092	0.71
515.521	0.72
515.95	0.72
516.378	0.72
516.807	0.73
517.236	0.73
517.665	0.73
518.093	0.73
518.522	0.74
518.951	0.74
519.379	0.74
519.807	0.74
520.236	0.75
520.664	0.75
521.093	0.74
521.521	0.75
521.949	0.75
522.377	0.75
522.805	0.76
523.233	0.76
523.661	0.76
524.089	0.76
524.517	0.76
524.945	0.77
525.373	0.77
525.8	0.77
526.228	0.77
526.656	0.78
527.083	0.77
527.511	0.77
527.938	0.78
528.366	0.78
528.793	0.78
529.22	0.78
529.648	0.78
530.075	0.78
530.502	0.78
530.929	0.79
531.356	0.79
531.783	0.78
532.21	0.79
532.637	0.79
533.064	0.79
533.49	0.8
533.917	0.79
534.344	0.79
534.771	0.79
535.197	0.79
535.624	0.8
536.05	0.79
536.477	0.8
536.903	0.79
537.329	0.79
537.755	0.79
538.182	0.79
538.608	0.79
539.034	0.8
539.46	0.79
539.886	0.8
540.312	0.8
540.738	0.79
541.164	0.8
541.589	0.79
542.015	0.8
542.441	0.79
542.867	0.79
543.292	0.79
543.718	0.79
544.143	0.79
544.569	0.79
544.994	0.79
545.419	0.79
545.845	0.79
546.27	0.79
546.695	0.79
547.12	0.78
547.545	0.78
547.97	0.78
548.395	0.78
548.82	0.78
549.245	0.78
549.67	0.78
550.094	0.78
550.519	0.78
550.944	0.78
551.368	0.78
551.793	0.77
552.217	0.77
552.642	0.77
553.066	0.77
553.49	0.77
553.915	0.77
554.339	0.76
554.763	0.76
555.187	0.76
555.611	0.76
556.035	0.75
556.459	0.75
556.883	0.75
557.307	0.75
557.731	0.75
558.154	0.74
558.578	0.74
559.002	0.74
559.425	0.74
559.849	0.74
560.272	0.74
560.696	0.73
561.119	0.73
561.543	0.73
561.966	0.73
562.389	0.72
562.812	0.73
563.235	0.72
563.658	0.72
564.081	0.72
564.504	0.72
564.927	0.72
565.35	0.71
565.773	0.71
566.196	0.71
566.618	0.7
567.041	0.7
567.463	0.7
567.886	0.69
568.309	0.7
568.731	0.69
569.153	0.69
569.576	0.69
569.998	0.69
570.42	0.68
570.842	0.68
571.264	0.68
571.686	0.68
572.108	0.67
572.53	0.67
572.952	0.67
573.374	0.67
573.796	0.66
574.218	0.66
574.639	0.66
575.061	0.65
575.483	0.65
575.904	0.65
576.326	0.65
576.747	0.65
577.168	0.64
577.59	0.64
578.011	0.64
578.432	0.63
578.853	0.63
579.274	0.63
579.695	0.63
580.116	0.63
580.537	0.63
580.958	0.62
581.379	0.62
581.8	0.62
582.221	0.62
582.641	0.61
583.062	0.61
583.482	0.61
583.903	0.6
584.323	0.6
584.744	0.6
585.164	0.6
585.584	0.6
586.005	0.59
586.425	0.6
586.845	0.59
587.265	0.59
587.685	0.59
588.105	0.59
588.525	0.59
588.945	0.58
589.365	0.58
589.785	0.58
590.204	0.58
590.624	0.57
591.044	0.57
591.463	0.57
591.883	0.57
592.302	0.56
592.721	0.57
593.141	0.56
593.56	0.56
593.979	0.56
594.399	0.56
594.818	0.56
595.237	0.55
595.656	0.55
596.075	0.55
596.494	0.55
596.913	0.54
597.331	0.54
597.75	0.54
598.169	0.54
598.587	0.54
599.006	0.54
599.425	0.53
599.843	0.53
600.262	0.53
600.68	0.53
601.098	0.53
601.517	0.52
601.935	0.52
602.353	0.52
602.771	0.52
603.189	0.52
603.607	0.52
604.025	0.51
604.443	0.51
604.861	0.51
605.279	0.51
605.696	0.51
606.114	0.5
606.532	0.5
606.949	0.5
607.367	0.5
607.784	0.49
608.202	0.49
608.619	0.49
609.036	0.49
609.454	0.48
609.871	0.48
610.288	0.48
610.705	0.48
611.122	0.47
611.539	0.47
611.956	0.47
612.373	0.47
612.79	0.46
613.207	0.46
613.623	0.46
614.04	0.46
614.457	0.45
614.873	0.45
615.29	0.45
615.706	0.45
616.122	0.45
616.539	0.45
616.955	0.45
617.371	0.44
617.788	0.44
618.204	0.43
618.62	0.43
619.036	0.43
619.452	0.43
619.868	0.43
620.284	0.42
620.699	0.42
621.115	0.42
621.531	0.42
621.946	0.41
622.362	0.41
622.778	0.41
623.193	0.41
623.608	0.4
624.024	0.4
624.439	0.4
624.854	0.4
625.27	0.4
625.685	0.39
626.1	0.39
626.515	0.39
626.93	0.39
627.345	0.38
627.76	0.38
628.175	0.38
628.589	0.38
629.004	0.38
629.419	0.37
629.833	0.37
630.248	0.37
630.663	0.36
631.077	0.36
631.491	0.36
631.906	0.36
632.32	0.35
632.734	0.35
633.148	0.35
633.563	0.35
633.977	0.34
634.391	0.34
634.805	0.34
635.219	0.34
635.632	0.33
636.046	0.33
636.46	0.33
636.874	0.32
637.287	0.32
637.701	0.32
638.115	0.32
638.528	0.32
638.941	0.31
639.355	0.31
639.768	0.31
640.181	0.31
640.595	0.31
641.008	0.3
641.421	0.3
641.834	0.3
642.247	0.3
642.66	0.3
643.073	0.29
643.486	0.29
643.898	0.29
644.311	0.29
644.724	0.28
645.136	0.28
645.549	0.28
645.961	0.28
646.374	0.28
646.786	0.27
647.199	0.27
647.611	0.27
648.023	0.27
648.435	0.26
648.847	0.26
649.26	0.26
649.672	0.26
650.084	0.26
650.495	0.26
650.907	0.25
651.319	0.26
651.731	0.26
652.143	0.26
652.554	0.25
652.966	0.25
653.377	0.24
653.789	0.25
654.2	0.21
654.612	0.17
655.023	0.14
655.434	0.15
655.845	0.2
656.256	0.25
656.668	0.24
657.079	0.24
657.49	0.24
657.901	0.23
658.311	0.23
658.722	0.23
659.133	0.23
659.544	0.23
659.954	0.22
660.365	0.23
660.775	0.22
661.186	0.22
661.596	0.22
662.007	0.22
662.417	0.21
662.827	0.21
663.238	0.21
663.648	0.21
664.058	0.21
664.468	0.21
664.878	0.21
665.288	0.21
665.698	0.21
666.108	0.2
666.517	0.2
666.927	0.2
667.337	0.2
667.746	0.19
668.156	0.19
668.565	0.19
668.975	0.19
669.384	0.19
669.794	0.19
670.203	0.19
670.612	0.19
671.021	0.18
671.43	0.18
671.84	0.18
672.249	0.18
672.658	0.18
673.066	0.17
673.475	0.17
673.884	0.17
674.293	0.17
674.702	0.17
675.11	0.17
675.519	0.17
675.927	0.16
676.336	0.16
676.744	0.16
677.152	0.16
677.561	0.16
677.969	0.16
678.377	0.16
678.785	0.16
679.193	0.15
679.601	0.15
680.009	0.15
680.417	0.15
680.825	0.15
681.233	0.14
681.641	0.14
682.048	0.14
682.456	0.14
682.864	0.14
683.271	0.14
683.679	0.14
684.086	0.14
684.493	0.13
684.901	0.13
685.308	0.13
685.715	0.13
686.122	0.13
686.529	0.13
686.936	0.13
687.343	0.12
687.75	0.12
688.157	0.12
688.564	0.12
688.971	0.12
689.378	0.12
689.784	0.12
690.191	0.12
690.597	0.11
691.004	0.11
691.41	0.11
691.817	0.11
692.223	0.11
692.629	0.11
693.035	0.11
693.442	0.11
693.848	0.11
694.254	0.11
694.66	0.1
695.066	0.1
695.471	0.1
695.877	0.1
696.283	0.1
696.689	0.1
697.094	0.1
697.5	0.1
697.906	0.1
698.311	0.1
698.716	0.1
699.122	0.1
699.527	0.1
699.932	0.1
700.338	0.1
700.743	0.09
701.148	0.09
701.553	0.09
701.958	0.09
702.363	0.09
702.768	0.09
703.173	0.09
703.577	0.09
703.982	0.09
704.387	0.09
704.791	0.09
705.196	0.09
705.6	0.09
706.005	0.09
706.409	0.09
706.814	0.09
707.218	0.09
707.622	0.09
708.026	0.09
708.43	0.09
708.834	0.09
709.238	0.08
709.642	0.08
710.046	0.09
710.45	0.08
710.854	0.08
711.257	0.08
711.661	0.08
712.065	0.09
712.468	0.08
712.872	0.08
713.275	0.09
713.679	0.08
714.082	0.08
714.485	0.08
714.888	0.08
715.291	0.08
715.695	0.08
716.098	0.08
716.501	0.08
716.904	0.08
717.306	0.08
717.709	0.08
718.112	0.08
718.515	0.08
718.917	0.08
719.32	0.08
719.723	0.08
720.125	0.08
720.527	0.08
720.93	0.08
721.332	0.08
721.734	0.08
722.137	0.08
722.539	0.08
722.941	0.08
723.343	0.08
723.745	0.08
724.147	0.08
724.549	0.08
724.95	0.08
725.352	0.09
725.754	0.08
726.156	0.08
726.557	0.08
726.959	0.08
727.36	0.08
727.762	0.08
728.163	0.08
728.564	0.08
728.966	0.08
729.367	0.08
729.768	0.08
730.169	0.08
730.57	0.08
730.971	0.08
731.372	0.08
731.773	0.08
732.174	0.08
732.574	0.08
732.975	0.08
733.376	0.08
733.776	0.08
734.177	0.08
734.577	0.08
734.978	0.08
735.378	0.08
735.778	0.08
736.179	0.08
736.579	0.08
736.979	0.08
737.379	0.08
737.779	0.08
738.179	0.08
738.579	0.07
738.979	0.08
739.379	0.07
739.778	0.07
740.178	0.07
740.578	0.07
740.977	0.07
741.377	0.07
741.776	0.07
742.176	0.07
742.575	0.07
742.974	0.07
743.374	0.07
743.773	0.07
744.172	0.07
744.571	0.07
744.97	0.07
745.369	0.07
745.768	0.07
746.167	0.07
746.565	0.07
746.964	0.07
747.363	0.07
747.761	0.07
748.16	0.07
748.559	0.07
748.957	0.07
749.355	0.07
749.754	0.07
750.152	0.07
750.55	0.06
750.948	0.07
751.347	0.07
751.745	0.07
752.143	0.06
752.541	0.07
752.938	0.06
753.336	0.06
753.734	0.06
754.132	0.06
754.529	0.06
754.927	0.06
755.325	0.06
755.722	0.06
756.119	0.06
756.517	0.06
756.914	0.06
757.311	0.07
757.709	0.06
758.106	0.06
758.503	0.06
758.9	0.06
759.297	0.07
759.694	0.06
760.091	0.06
760.488	0.06
760.884	0.06
761.281	0.06
761.678	0.06
762.074	0.06
762.471	0.06
762.867	0.06
763.264	0.06
763.66	0.06
764.056	0.06
764.453	0.06
764.849	0.06
765.245	0.06
765.641	0.06
766.037	0.06
766.433	0.06
766.829	0.06
767.225	0.06
767.621	0.06
768.016	0.06
768.412	0.06
768.808	0.06
769.203	0.06
769.599	0.06
769.994	0.06
770.389	0.06
770.785	0.06
771.18	0.06
771.575	0.07
771.971	0.06
772.366	0.06
772.761	0.06
773.156	0.06
773.551	0.07
773.945	0.06
774.34	0.06
774.735	0.06
775.13	0.06
775.524	0.06
775.919	0.07
776.314	0.07
776.708	0.07
777.103	0.06
777.497	0.07
777.891	0.07
778.285	0.07
778.68	0.07
779.074	0.07
779.468	0.07
779.862	0.07
780.256	0.07
780.65	0.07
781.044	0.07
781.438	0.07
781.831	0.07
782.225	0.07
782.619	0.07
783.012	0.07
783.406	0.07
783.799	0.07
784.193	0.07
784.586	0.07
784.979	0.07
785.372	0.07
785.766	0.07
786.159	0.07
786.552	0.07
786.945	0.08
787.338	0.08
787.731	0.08
788.123	0.08
788.516	0.07
788.909	0.08
789.302	0.08
789.694	0.08
790.087	0.08
790.479	0.08
790.872	0.08
791.264	0.07
791.656	0.08
792.049	0.08
792.441	0.08
792.833	0.08
793.225	0.08
793.617	0.08
794.009	0.08
794.401	0.08
794.793	0.08
795.185	0.08
795.576	0.08
795.968	0.08
796.36	0.08
796.751	0.09
797.143	0.08
797.534	0.09
797.926	0.09
798.317	0.09
798.708	0.09
799.1	0.09
799.491	0.09
799.882	0.09
800.273	0.08
800.664	0.09
801.055	0.09
801.446	0.09
801.837	0.09
802.227	0.09
802.618	0.09
803.009	0.09
803.399	0.09
803.79	0.09
804.18	0.09
804.571	0.09
804.961	0.09
805.351	0.09
805.742	0.09
806.132	0.09
806.522	0.1
806.912	0.1
807.302	0.1
807.692	0.09
808.082	0.1
808.472	0.1
808.862	0.1
809.251	0.1
809.641	0.1
810.031	0.1
810.42	0.1
810.81	0.1
811.199	0.11
811.589	0.11
811.978	0.11
812.367	0.11
812.756	0.11
813.146	0.1
813.535	0.11
813.924	0.11
814.313	0.11
814.702	0.11
815.091	0.11
815.479	0.11
815.868	0.11
816.257	0.11
816.645	0.11
817.034	0.11
817.423	0.11
817.811	0.11
818.199	0.11
818.588	0.11
818.976	0.11
819.364	0.11
819.753	0.12
820.141	0.11
820.529	0.11
820.917	0.12
821.305	0.12
821.693	0.12
822.08	0.12
822.468	0.12
822.856	0.12
823.244	0.12
823.631	0.12
824.019	0.12
824.406	0.12
824.794	0.12
825.181	0.12
825.568	0.12
825.956	0.12
826.343	0.12
826.73	0.12
827.117	0.12
827.504	0.12
827.891	0.13
828.278	0.12
828.665	0.13
829.052	0.13
829.438	0.13
829.825	0.13
830.212	0.13
830.598	0.13
830.985	0.13
831.371	0.13
831.757	0.13
832.144	0.13
832.53	0.14
832.916	0.13
833.302	0.14
833.688	0.14
834.075	0.14
834.461	0.14
834.846	0.14
835.232	0.14
835.618	0.13
836.004	0.14
836.39	0.14
836.775	0.14
837.161	0.14
837.546	0.14
837.932	0.14
838.317	0.14
838.702	0.15
839.088	0.14
839.473	0.15
839.858	0.14
840.243	0.15
840.628	0.14
841.013	0.14
841.398	0.15
841.783	0.15
842.168	0.15
842.553	0.15
842.937	0.15
843.322	0.15
843.707	0.15
844.091	0.15
844.476	0.15
844.86	0.15
845.244	0.15
845.629	0.15
846.013	0.15
846.397	0.15
846.781	0.15
847.165	0.15
847.549	0.16
847.933	0.16
848.317	0.16
848.701	0.16
849.085	0.16
849.468	0.16
849.852	0.16
850.236	0.16
850.619	0.16
851.003	0.16
851.386	0.16
851.769	0.16
852.153	0.16
852.536	0.16
852.919	0.16
853.302	0.17
853.685	0.16
854.068	0.17
854.451	0.17
854.834	0.17
855.217	0.17
855.6	0.16
855.982	0.17
856.365	0.17
856.748	0.17
857.13	0.17
857.513	0.17
857.895	0.17
858.277	0.17
858.66	0.17
859.042	0.18
859.424	0.17
859.806	0.18
860.188	0.17
860.57	0.18
860.952	0.18
861.334	0.18
861.716	0.18
862.098	0.18
862.48	0.18
862.861	0.18
863.243	0.18
863.624	0.18
864.006	0.18
864.387	0.18
864.769	0.18
865.15	0.19
865.531	0.18
865.912	0.19
866.294	0.18
866.675	0.19
867.056	0.19
867.437	0.19
867.818	0.19
868.198	0.19
868.579	0.19
868.96	0.19
869.341	0.19
869.721	0.19
870.102	0.19
870.482	0.19
870.863	0.19
871.243	0.19
871.623	0.19
872.003	0.19
872.384	0.19
872.764	0.19
873.144	0.19
873.524	0.19
873.904	0.19
874.284	0.2
874.664	0.19
875.043	0.2
875.423	0.2
875.803	0.2
876.182	0.2
876.562	0.2
876.941	0.2
877.321	0.2
877.7	0.2
878.079	0.2
878.459	0.2
878.838	0.2
879.217	0.2
879.596	0.2
879.975	0.2
880.354	0.2
880.733	0.2
881.112	0.2
881.491	0.2
881.869	0.21
882.248	0.21
882.627	0.21
883.005	0.21
883.384	0.2
883.762	0.21
884.14	0.21
884.519	0.21
884.897	0.21
885.275	0.21
885.653	0.21
886.031	0.21
886.409	0.21
886.787	0.21
887.165	0.21
887.543	0.21
887.921	0.22
888.298	0.21
888.676	0.21
889.054	0.21
889.431	0.21
889.809	0.21
890.186	0.22
890.563	0.21
890.941	0.22
891.318	0.21
891.695	0.22
892.072	0.22
892.449	0.22
892.826	0.22
893.203	0.22
893.58	0.22
893.957	0.22
894.334	0.22
894.71	0.22
895.087	0.22
895.464	0.22
895.84	0.22
896.217	0.22
896.593	0.22
896.969	0.22
897.346	0.22
897.722	0.22
898.098	0.22
898.474	0.22
898.85	0.22
899.226	0.22
899.602	0.22
899.978	0.22
900.354	0.22
900.73	0.22
901.105	0.22
901.481	0.23
901.857	0.22
902.232	0.23
902.608	0.22
902.983	0.22
903.358	0.22
903.734	0.22
904.109	0.23
904.484	0.23
904.859	0.23
905.234	0.23
905.609	0.23
905.984	0.23
906.359	0.23
906.734	0.23
907.108	0.23
907.483	0.23
907.858	0.23
908.232	0.23
908.607	0.23
908.981	0.23
909.356	0.23
909.73	0.23
910.104	0.23
910.478	0.23
910.853	0.23
911.227	0.23
911.601	0.23
911.975	0.23
912.349	0.23
912.722	0.23
913.096	0.23
913.47	0.23
913.844	0.23
914.217	0.23
914.591	0.24
914.964	0.23
915.338	0.24
915.711	0.23
916.084	0.23
916.458	0.23
916.831	0.23
917.204	0.23
917.577	0.24
917.95	0.24
918.323	0.24
918.696	0.23
919.069	0.23
919.441	0.23
919.814	0.23
920.187	0.24
920.559	0.24
920.932	0.24
921.304	0.24
921.677	0.24
922.049	0.23
922.421	0.23
922.794	0.24
923.166	0.23
923.538	0.23
923.91	0.23
924.282	0.23
924.654	0.24
925.026	0.24
925.398	0.24
925.769	0.24
926.141	0.24
926.513	0.24
926.884	0.24
927.256	0.24
927.627	0.24
927.999	0.24
928.37	0.24
928.741	0.24
929.113	0.24
929.484	0.24
929.855	0.24
930.226	0.24
930.597	0.24
930.968	0.24
931.339	0.24
931.709	0.24
932.08	0.24
932.451	0.24
932.821	0.24
933.192	0.24
933.562	0.24
933.933	0.24
934.303	0.24
934.673	0.24
935.044	0.24
935.414	0.24
935.784	0.24
936.154	0.24
936.524	0.24
936.894	0.24
937.264	0.24
937.634	0.24
938.004	0.24
938.373	0.24
938.743	0.24
939.113	0.24
939.482	0.24
939.852	0.24
940.221	0.24
940.59	0.24
940.96	0.24
941.329	0.24
941.698	0.24
942.067	0.24
942.436	0.24
942.805	0.24
943.174	0.24
943.543	0.24
943.912	0.24
944.28	0.24
944.649	0.24
945.018	0.24
945.386	0.24
945.755	0.24
946.123	0.24
946.492	0.24
946.86	0.24
947.228	0.24
947.596	0.23
947.965	0.24
948.333	0.23
948.701	0.23
949.069	0.24
949.437	0.23
949.804	0.23
950.172	0.24
950.54	0.24
950.908	0.23
951.275	0.24
951.643	0.23
952.01	0.24
952.378	0.23
952.745	0.24
953.112	0.24
953.479	0.24
953.847	0.24
954.214	0.24
954.581	0.24
954.948	0.24
955.315	0.23
955.682	0.23
956.048	0.23
956.415	0.23
956.782	0.23
957.148	0.23
957.515	0.23
957.881	0.23
958.248	0.23
958.614	0.23
958.981	0.23
959.347	0.23
959.713	0.23
960.079	0.23
960.445	0.23
960.811	0.23
961.177	0.24
961.543	0.23
961.909	0.24
962.275	0.23
962.641	0.24
963.006	0.23
963.372	0.23
963.737	0.23
964.103	0.23
964.468	0.23
964.834	0.24
965.199	0.23
965.564	0.23
965.929	0.23
966.294	0.23
966.659	0.23
967.024	0.24
967.389	0.23
967.754	0.23
968.119	0.23
968.484	0.23
968.848	0.23
969.213	0.23
969.578	0.23
969.942	0.23
970.307	0.23
970.671	0.23
971.035	0.23
971.399	0.22
971.764	0.22
972.128	0.23
972.492	0.23
972.856	0.23
973.22	0.23
973.584	0.23
973.948	0.23
974.311	0.23
974.675	0.23
975.039	0.23
975.402	0.23
975.766	0.23
976.129	0.22
976.493	0.22
976.856	0.23
977.219	0.23
977.582	0.23
977.946	0.23
978.309	0.22
978.672	0.23
979.035	0.22
979.398	0.22
979.761	0.23
980.123	0.23
980.486	0.22
980.849	0.23
981.211	0.22
981.574	0.23
981.936	0.22
982.299	0.22
982.661	0.22
983.023	0.22
983.386	0.22
983.748	0.22
984.11	0.22
984.472	0.22
984.834	0.22
985.196	0.22
985.558	0.22
985.92	0.22
986.281	0.22
986.643	0.22
987.005	0.22
987.366	0.22
987.728	0.22
988.089	0.22
988.451	0.22
988.812	0.22
989.173	0.22
989.534	0.22
989.895	0.22
990.257	0.22
990.618	0.22
990.979	0.22
991.339	0.22
991.7	0.22
992.061	0.22
992.422	0.22
992.782	0.21
993.143	0.21
993.503	0.22
993.864	0.21
994.224	0.22
994.585	0.22
994.945	0.21
995.305	0.21
995.665	0.22
996.025	0.21
996.385	0.21
996.745	0.21
997.105	0.21
997.465	0.21
997.825	0.22
998.185	0.21
998.544	0.21
998.904	0.21
999.263	0.21
999.623	0.21
999.982	0.21
1000.342	0.21
1000.701	0.21
1001.06	0.21
1001.419	0.21
1001.778	0.21
1002.138	0.2
1002.497	0.21
1002.855	0.21
1003.214	0.21
1003.573	0.2
1003.932	0.21
1004.29	0.2
1004.649	0.2
1005.008	0.21
1005.366	0.21
1005.725	0.21
1006.083	0.21
1006.441	0.21
1006.799	0.21
1007.158	0.21
1007.516	0.21
1007.874	0.21
1008.232	0.21
1008.59	0.21
1008.948	0.21
1009.305	0.2
1009.663	0.2
1010.021	0.2
1010.379	0.2
1010.736	0.21
1011.094	0.2
1011.451	0.21
1011.808	0.2
1012.166	0.21
1012.523	0.2
1012.88	0.2
1013.237	0.19
1013.594	0.2
1013.951	0.2
1014.308	0.2
1014.665	0.2
1015.022	0.19
1015.379	0.2
1015.735	0.2
1016.092	0.2
1016.449	0.2
1016.805	0.2
1017.162	0.19
1017.518	0.2
1017.874	0.19
1018.231	0.2
1018.587	0.2
1018.943	0.19
1019.299	0.19
1019.655	0.19
1020.011	0.2
1020.367	0.19
1020.723	0.19
1021.078	0.2
1021.434	0.19
1021.79	0.19
1022.145	0.19
1022.501	0.2
1022.856	0.2
1023.212	0.19
1023.567	0.19
1023.922	0.19
1024.278	0.19
1024.633	0.19
1024.988	0.19
1025.343	0.2
1025.698	0.19
1026.053	0.18
1026.408	0.19
1026.762	0.19
1027.117	0.19
1027.472	0.19
1027.826	0.19
1028.181	0.19
1028.535	0.19
1028.89	0.19
1029.244	0.19
1029.598	0.19
1029.952	0.19
1030.307	0.19
1030.661	0.18
1031.015	0.19
1031.369	0.19
1031.723	0.19
1032.076	0.2
