Data from Rubpy_BV_EDTA_Blank_StopFlow_Absorbance__4__16-17-16-385.txt Node

Date: Thu Jul 09 16:17:16 BST 2026
User: fpm-admin
Spectrometer: SR600986
Trigger mode: 0
Integration Time (sec): 2.500000E-2
Scans to average: 3
Nonlinearity correction enabled: true
Boxcar width: 0
Storing dark spectrum: false
XAxis mode: Wavelengths
Number of Pixels in Spectrum: 2048
>>>>>Begin Spectral Data<<<<<
188.613	0.11
189.078	0.13
189.542	0.15
190.007	0.13
190.472	0.12
190.936	0.13
191.401	0.16
191.865	0.13
192.33	0.13
192.794	0.13
193.258	0.11
193.723	0.13
194.187	0.13
194.651	0.14
195.115	0.14
195.579	0.12
196.043	0.15
196.507	0.13
196.971	0.11
197.435	0.13
197.899	0.11
198.363	0.13
198.827	0.14
199.29	0.12
199.754	0.13
200.218	0.11
200.681	0.12
201.145	0.13
201.608	0.11
202.072	0.13
202.535	0.13
202.998	0.13
203.462	0.1
203.925	0.14
204.388	0.14
204.851	0.14
205.314	0.12
205.777	0.13
206.24	0.13
206.703	0.13
207.166	0.12
207.629	0.15
208.092	0.11
208.555	0.14
209.018	0.12
209.48	0.12
209.943	0.13
210.406	0.13
210.868	0.11
211.331	0.13
211.793	0.14
212.256	0.12
212.718	0.11
213.18	0.13
213.643	0.12
214.105	0.13
214.567	0.13
215.029	0.12
215.491	0.13
215.953	0.12
216.415	0.12
216.877	0.13
217.339	0.14
217.801	0.12
218.263	0.12
218.725	0.13
219.186	0.13
219.648	0.11
220.11	0.14
220.571	0.11
221.033	0.12
221.494	0.12
221.956	0.13
222.417	0.12
222.878	0.12
223.34	0.11
223.801	0.14
224.262	0.11
224.723	0.1
225.185	0.13
225.646	0.13
226.107	0.13
226.568	0.11
227.029	0.13
227.489	0.15
227.95	0.13
228.411	0.14
228.872	0.12
229.332	0.12
229.793	0.13
230.254	0.13
230.714	0.13
231.175	0.12
231.635	0.14
232.096	0.15
232.556	0.13
233.016	0.14
233.477	0.13
233.937	0.12
234.397	0.1
234.857	0.12
235.317	0.12
235.777	0.13
236.237	0.11
236.697	0.13
237.157	0.11
237.617	0.13
238.077	0.12
238.537	0.09
238.996	0.14
239.456	0.13
239.916	0.13
240.375	0.11
240.835	0.14
241.294	0.15
241.754	0.11
242.213	0.13
242.672	0.12
243.132	0.13
243.591	0.13
244.05	0.12
244.509	0.11
244.968	0.11
245.427	0.13
245.886	0.12
246.345	0.12
246.804	0.1
247.263	0.13
247.722	0.1
248.181	0.11
248.639	0.12
249.098	0.13
249.557	0.13
250.015	0.14
250.474	0.11
250.932	0.14
251.391	0.13
251.849	0.14
252.308	0.1
252.766	0.14
253.224	0.13
253.682	0.13
254.14	0.14
254.599	0.12
255.057	0.14
255.515	0.12
255.973	0.11
256.431	0.16
256.888	0.1
257.346	0.15
257.804	0.14
258.262	0.14
258.719	0.15
259.177	0.15
259.635	0.1
260.092	0.13
260.55	0.15
261.007	0.14
261.465	0.12
261.922	0.13
262.379	0.14
262.836	0.13
263.294	0.14
263.751	0.14
264.208	0.12
264.665	0.11
265.122	0.12
265.579	0.12
266.036	0.1
266.493	0.11
266.95	0.12
267.406	0.12
267.863	0.14
268.32	0.12
268.777	0.17
269.233	0.13
269.69	0.12
270.146	0.13
270.603	0.14
271.059	0.1
271.515	0.14
271.972	0.13
272.428	0.12
272.884	0.15
273.34	0.11
273.796	0.14
274.253	0.1
274.709	0.13
275.165	0.13
275.62	0.14
276.076	0.14
276.532	0.11
276.988	0.13
277.444	0.13
277.899	0.12
278.355	0.14
278.811	0.14
279.266	0.14
279.722	0.14
280.177	0.11
280.633	0.1
281.088	0.15
281.543	0.13
281.998	0.14
282.454	0.11
282.909	0.12
283.364	0.11
283.819	0.14
284.274	0.13
284.729	0.15
285.184	0.11
285.639	0.13
286.094	0.14
286.548	0.13
287.003	0.12
287.458	0.12
287.913	0.11
288.367	0.12
288.822	0.13
289.276	0.14
289.731	0.14
290.185	0.13
290.639	0.12
291.094	0.11
291.548	0.13
292.002	0.12
292.456	0.13
292.91	0.12
293.365	0.13
293.819	0.11
294.273	0.14
294.726	0.16
295.18	0.12
295.634	0.13
296.088	0.13
296.542	0.13
296.995	0.14
297.449	0.1
297.903	0.14
298.356	0.14
298.81	0.12
299.263	0.13
299.716	0.14
300.17	0.13
300.623	0.14
301.076	0.12
301.53	0.13
301.983	0.14
302.436	0.13
302.889	0.14
303.342	0.15
303.795	0.11
304.248	0.14
304.701	0.11
305.153	0.13
305.606	0.13
306.059	0.11
306.512	0.13
306.964	0.14
307.417	0.13
307.869	0.13
308.322	0.16
308.774	0.15
309.227	0.14
309.679	0.15
310.131	0.15
310.584	0.15
311.036	0.15
311.488	0.15
311.94	0.13
312.392	0.15
312.844	0.16
313.296	0.18
313.748	0.14
314.2	0.16
314.652	0.16
315.103	0.15
315.555	0.14
316.007	0.15
316.458	0.16
316.91	0.16
317.361	0.17
317.813	0.16
318.264	0.18
318.716	0.18
319.167	0.17
319.618	0.18
320.07	0.19
320.521	0.18
320.972	0.18
321.423	0.19
321.874	0.19
322.325	0.2
322.776	0.19
323.227	0.21
323.678	0.21
324.128	0.22
324.579	0.23
325.03	0.23
325.48	0.22
325.931	0.23
326.382	0.24
326.832	0.26
327.283	0.24
327.733	0.25
328.183	0.27
328.634	0.28
329.084	0.28
329.534	0.29
329.984	0.29
330.434	0.3
330.884	0.31
331.334	0.32
331.784	0.32
332.234	0.33
332.684	0.34
333.134	0.34
333.584	0.36
334.034	0.36
334.483	0.37
334.933	0.37
335.382	0.39
335.832	0.4
336.281	0.4
336.731	0.42
337.18	0.42
337.63	0.44
338.079	0.44
338.528	0.45
338.977	0.46
339.426	0.47
339.876	0.48
340.325	0.48
340.774	0.5
341.223	0.51
341.671	0.51
342.12	0.52
342.569	0.53
343.018	0.54
343.467	0.55
343.915	0.56
344.364	0.57
344.812	0.57
345.261	0.58
345.709	0.59
346.158	0.6
346.606	0.61
347.054	0.62
347.503	0.62
347.951	0.63
348.399	0.65
348.847	0.65
349.295	0.66
349.743	0.67
350.191	0.68
350.639	0.69
351.087	0.69
351.535	0.7
351.983	0.72
352.43	0.73
352.878	0.73
353.326	0.74
353.773	0.75
354.221	0.77
354.668	0.77
355.116	0.79
355.563	0.79
356.01	0.81
356.458	0.81
356.905	0.83
357.352	0.84
357.799	0.86
358.246	0.87
358.693	0.87
359.14	0.89
359.587	0.9
360.034	0.91
360.481	0.92
360.928	0.93
361.375	0.95
361.821	0.96
362.268	0.97
362.714	0.98
363.161	0.99
363.608	1.01
364.054	1.01
364.5	1.02
364.947	1.02
365.393	1.04
365.839	1.04
366.285	1.04
366.732	1.06
367.178	1.06
367.624	1.06
368.07	1.06
368.516	1.07
368.962	1.07
369.408	1.07
369.853	1.06
370.299	1.05
370.745	1.06
371.19	1.05
371.636	1.05
372.082	1.04
372.527	1.04
372.973	1.02
373.418	1.01
373.863	1
374.309	0.98
374.754	0.97
375.199	0.96
375.644	0.94
376.09	0.93
376.535	0.91
376.98	0.89
377.425	0.88
377.87	0.86
378.314	0.84
378.759	0.82
379.204	0.81
379.649	0.8
380.093	0.78
380.538	0.76
380.983	0.74
381.427	0.72
381.872	0.7
382.316	0.68
382.76	0.67
383.205	0.66
383.649	0.64
384.093	0.63
384.537	0.62
384.982	0.6
385.426	0.59
385.87	0.58
386.314	0.57
386.758	0.55
387.201	0.54
387.645	0.53
388.089	0.53
388.533	0.51
388.976	0.5
389.42	0.49
389.864	0.48
390.307	0.47
390.751	0.45
391.194	0.45
391.638	0.44
392.081	0.43
392.524	0.42
392.967	0.41
393.411	0.42
393.854	0.41
394.297	0.41
394.74	0.41
395.183	0.41
395.626	0.41
396.069	0.41
396.512	0.41
396.954	0.42
397.397	0.42
397.84	0.42
398.282	0.42
398.725	0.43
399.168	0.42
399.61	0.42
400.052	0.42
400.495	0.41
400.937	0.41
401.38	0.4
401.822	0.39
402.264	0.37
402.706	0.36
403.148	0.35
403.59	0.34
404.032	0.32
404.474	0.31
404.916	0.3
405.358	0.29
405.8	0.27
406.241	0.26
406.683	0.25
407.125	0.23
407.566	0.22
408.008	0.21
408.449	0.21
408.891	0.19
409.332	0.18
409.774	0.18
410.215	0.18
410.656	0.16
411.097	0.15
411.539	0.15
411.98	0.14
412.421	0.15
412.862	0.14
413.303	0.13
413.744	0.13
414.184	0.13
414.625	0.13
415.066	0.12
415.507	0.1
415.947	0.11
416.388	0.11
416.828	0.11
417.269	0.1
417.709	0.1
418.15	0.1
418.59	0.09
419.03	0.09
419.471	0.09
419.911	0.09
420.351	0.08
420.791	0.09
421.231	0.09
421.671	0.08
422.111	0.09
422.551	0.09
422.991	0.08
423.431	0.09
423.87	0.09
424.31	0.08
424.75	0.08
425.189	0.08
425.629	0.09
426.068	0.09
426.508	0.09
426.947	0.09
427.386	0.08
427.826	0.09
428.265	0.08
428.704	0.08
429.143	0.07
429.582	0.08
430.021	0.09
430.46	0.09
430.899	0.08
431.338	0.09
431.777	0.08
432.216	0.09
432.655	0.08
433.093	0.09
433.532	0.08
433.971	0.09
434.409	0.09
434.848	0.09
435.286	0.09
435.724	0.08
436.163	0.1
436.601	0.09
437.039	0.08
437.477	0.09
437.916	0.08
438.354	0.09
438.792	0.09
439.23	0.09
439.668	0.1
440.105	0.11
440.543	0.1
440.981	0.08
441.419	0.11
441.856	0.08
442.294	0.09
442.732	0.1
443.169	0.1
443.607	0.09
444.044	0.1
444.481	0.1
444.919	0.11
445.356	0.1
445.793	0.12
446.23	0.09
446.668	0.11
447.105	0.12
447.542	0.11
447.979	0.12
448.416	0.12
448.852	0.12
449.289	0.1
449.726	0.1
450.163	0.11
450.599	0.1
451.036	0.11
451.473	0.12
451.909	0.11
452.346	0.11
452.782	0.12
453.218	0.11
453.655	0.12
454.091	0.13
454.527	0.11
454.963	0.13
455.399	0.13
455.835	0.12
456.271	0.11
456.707	0.12
457.143	0.12
457.579	0.14
458.015	0.12
458.451	0.12
458.886	0.11
459.322	0.14
459.758	0.14
460.193	0.13
460.629	0.14
461.064	0.13
461.5	0.14
461.935	0.14
462.37	0.15
462.805	0.15
463.241	0.15
463.676	0.14
464.111	0.16
464.546	0.16
464.981	0.14
465.416	0.15
465.851	0.16
466.286	0.16
466.72	0.16
467.155	0.17
467.59	0.17
468.024	0.17
468.459	0.17
468.893	0.18
469.328	0.18
469.762	0.18
470.197	0.18
470.631	0.19
471.065	0.2
471.5	0.19
471.934	0.21
472.368	0.19
472.802	0.2
473.236	0.21
473.67	0.21
474.104	0.21
474.538	0.21
474.972	0.21
475.405	0.21
475.839	0.21
476.273	0.22
476.706	0.23
477.14	0.23
477.573	0.23
478.007	0.23
478.44	0.23
478.874	0.23
479.307	0.24
479.74	0.24
480.173	0.24
480.606	0.24
481.04	0.25
481.473	0.25
481.906	0.26
482.339	0.25
482.771	0.25
483.204	0.26
483.637	0.26
484.07	0.27
484.502	0.27
484.935	0.27
485.368	0.27
485.8	0.27
486.233	0.27
486.665	0.28
487.098	0.28
487.53	0.28
487.962	0.29
488.394	0.29
488.827	0.29
489.259	0.29
489.691	0.3
490.123	0.3
490.555	0.3
490.987	0.3
491.418	0.31
491.85	0.31
492.282	0.31
492.714	0.32
493.145	0.32
493.577	0.32
494.009	0.32
494.44	0.33
494.872	0.33
495.303	0.33
495.734	0.33
496.166	0.33
496.597	0.34
497.028	0.34
497.459	0.34
497.89	0.34
498.321	0.35
498.752	0.35
499.183	0.35
499.614	0.36
500.045	0.36
500.476	0.36
500.906	0.36
501.337	0.37
501.768	0.37
502.198	0.37
502.629	0.37
503.059	0.37
503.49	0.38
503.92	0.38
504.35	0.38
504.781	0.38
505.211	0.39
505.641	0.39
506.071	0.39
506.501	0.39
506.931	0.39
507.361	0.4
507.791	0.4
508.221	0.4
508.651	0.41
509.081	0.41
509.51	0.41
509.94	0.41
510.37	0.41
510.799	0.42
511.229	0.42
511.658	0.42
512.087	0.42
512.517	0.43
512.946	0.43
513.375	0.43
513.804	0.43
514.234	0.43
514.663	0.43
515.092	0.44
515.521	0.44
515.95	0.44
516.378	0.44
516.807	0.44
517.236	0.44
517.665	0.45
518.093	0.45
518.522	0.45
518.951	0.45
519.379	0.45
519.807	0.45
520.236	0.46
520.664	0.45
521.093	0.46
521.521	0.46
521.949	0.46
522.377	0.46
522.805	0.47
523.233	0.47
523.661	0.47
524.089	0.47
524.517	0.47
524.945	0.47
525.373	0.47
525.8	0.48
526.228	0.48
526.656	0.47
527.083	0.47
527.511	0.48
527.938	0.48
528.366	0.48
528.793	0.48
529.22	0.48
529.648	0.48
530.075	0.48
530.502	0.48
530.929	0.48
531.356	0.48
531.783	0.48
532.21	0.48
532.637	0.49
533.064	0.49
533.49	0.49
533.917	0.48
534.344	0.48
534.771	0.49
535.197	0.49
535.624	0.49
536.05	0.49
536.477	0.49
536.903	0.49
537.329	0.49
537.755	0.49
538.182	0.49
538.608	0.49
539.034	0.49
539.46	0.49
539.886	0.49
540.312	0.49
540.738	0.49
541.164	0.49
541.589	0.49
542.015	0.49
542.441	0.49
542.867	0.49
543.292	0.49
543.718	0.49
544.143	0.49
544.569	0.49
544.994	0.49
545.419	0.49
545.845	0.49
546.27	0.49
546.695	0.49
547.12	0.49
547.545	0.49
547.97	0.48
548.395	0.49
548.82	0.48
549.245	0.48
549.67	0.48
550.094	0.48
550.519	0.48
550.944	0.48
551.368	0.48
551.793	0.48
552.217	0.48
552.642	0.48
553.066	0.47
553.49	0.48
553.915	0.47
554.339	0.47
554.763	0.47
555.187	0.47
555.611	0.47
556.035	0.47
556.459	0.47
556.883	0.47
557.307	0.46
557.731	0.47
558.154	0.46
558.578	0.46
559.002	0.46
559.425	0.46
559.849	0.46
560.272	0.46
560.696	0.46
561.119	0.45
561.543	0.45
561.966	0.45
562.389	0.45
562.812	0.45
563.235	0.45
563.658	0.45
564.081	0.45
564.504	0.44
564.927	0.44
565.35	0.44
565.773	0.44
566.196	0.44
566.618	0.44
567.041	0.44
567.463	0.44
567.886	0.43
568.309	0.43
568.731	0.43
569.153	0.43
569.576	0.43
569.998	0.43
570.42	0.43
570.842	0.42
571.264	0.42
571.686	0.42
572.108	0.42
572.53	0.42
572.952	0.42
573.374	0.42
573.796	0.42
574.218	0.42
574.639	0.41
575.061	0.41
575.483	0.41
575.904	0.41
576.326	0.4
576.747	0.41
577.168	0.4
577.59	0.4
578.011	0.4
578.432	0.4
578.853	0.4
579.274	0.4
579.695	0.4
580.116	0.4
580.537	0.39
580.958	0.39
581.379	0.39
581.8	0.39
582.221	0.39
582.641	0.39
583.062	0.39
583.482	0.38
583.903	0.38
584.323	0.38
584.744	0.38
585.164	0.38
585.584	0.38
586.005	0.38
586.425	0.38
586.845	0.37
587.265	0.37
587.685	0.37
588.105	0.37
588.525	0.37
588.945	0.37
589.365	0.37
589.785	0.37
590.204	0.36
590.624	0.36
591.044	0.36
591.463	0.36
591.883	0.36
592.302	0.36
592.721	0.36
593.141	0.36
593.56	0.36
593.979	0.36
594.399	0.35
594.818	0.35
595.237	0.35
595.656	0.35
596.075	0.35
596.494	0.35
596.913	0.35
597.331	0.35
597.75	0.34
598.169	0.35
598.587	0.35
599.006	0.34
599.425	0.34
599.843	0.34
600.262	0.34
600.68	0.34
601.098	0.34
601.517	0.33
601.935	0.33
602.353	0.34
602.771	0.33
603.189	0.33
603.607	0.33
604.025	0.32
604.443	0.33
604.861	0.32
605.279	0.32
605.696	0.32
606.114	0.32
606.532	0.32
606.949	0.32
607.367	0.32
607.784	0.32
608.202	0.32
608.619	0.31
609.036	0.31
609.454	0.31
609.871	0.31
610.288	0.31
610.705	0.31
611.122	0.3
611.539	0.3
611.956	0.3
612.373	0.3
612.79	0.3
613.207	0.3
613.623	0.29
614.04	0.29
614.457	0.29
614.873	0.29
615.29	0.29
615.706	0.29
616.122	0.29
616.539	0.28
616.955	0.28
617.371	0.28
617.788	0.28
618.204	0.28
618.62	0.28
619.036	0.28
619.452	0.28
619.868	0.27
620.284	0.27
620.699	0.27
621.115	0.27
621.531	0.26
621.946	0.26
622.362	0.26
622.778	0.26
623.193	0.26
623.608	0.26
624.024	0.26
624.439	0.25
624.854	0.25
625.27	0.25
625.685	0.25
626.1	0.25
626.515	0.25
626.93	0.24
627.345	0.24
627.76	0.24
628.175	0.24
628.589	0.24
629.004	0.24
629.419	0.24
629.833	0.24
630.248	0.23
630.663	0.23
631.077	0.23
631.491	0.23
631.906	0.22
632.32	0.22
632.734	0.22
633.148	0.22
633.563	0.22
633.977	0.22
634.391	0.21
634.805	0.22
635.219	0.21
635.632	0.21
636.046	0.21
636.46	0.21
636.874	0.21
637.287	0.2
637.701	0.2
638.115	0.2
638.528	0.2
638.941	0.2
639.355	0.2
639.768	0.2
640.181	0.19
640.595	0.19
641.008	0.19
641.421	0.19
641.834	0.19
642.247	0.19
642.66	0.19
643.073	0.18
643.486	0.18
643.898	0.18
644.311	0.18
644.724	0.18
645.136	0.18
645.549	0.18
645.961	0.17
646.374	0.17
646.786	0.17
647.199	0.17
647.611	0.17
648.023	0.17
648.435	0.17
648.847	0.17
649.26	0.17
649.672	0.16
650.084	0.16
650.495	0.16
650.907	0.16
651.319	0.16
651.731	0.16
652.143	0.16
652.554	0.16
652.966	0.16
653.377	0.16
653.789	0.16
654.2	0.13
654.612	0.09
655.023	0.06
655.434	0.07
655.845	0.11
656.256	0.16
656.668	0.15
657.079	0.15
657.49	0.15
657.901	0.15
658.311	0.15
658.722	0.15
659.133	0.14
659.544	0.14
659.954	0.14
660.365	0.14
660.775	0.14
661.186	0.14
661.596	0.14
662.007	0.14
662.417	0.14
662.827	0.13
663.238	0.13
663.648	0.13
664.058	0.13
664.468	0.13
664.878	0.13
665.288	0.13
665.698	0.13
666.108	0.13
666.517	0.13
666.927	0.13
667.337	0.12
667.746	0.12
668.156	0.12
668.565	0.12
668.975	0.12
669.384	0.12
669.794	0.12
670.203	0.12
670.612	0.11
671.021	0.11
671.43	0.11
671.84	0.11
672.249	0.11
672.658	0.11
673.066	0.11
673.475	0.11
673.884	0.11
674.293	0.11
674.702	0.11
675.11	0.11
675.519	0.11
675.927	0.1
676.336	0.1
676.744	0.1
677.152	0.1
677.561	0.1
677.969	0.1
678.377	0.1
678.785	0.1
679.193	0.09
679.601	0.09
680.009	0.09
680.417	0.09
680.825	0.09
681.233	0.09
681.641	0.09
682.048	0.09
682.456	0.09
682.864	0.09
683.271	0.09
683.679	0.08
684.086	0.08
684.493	0.08
684.901	0.08
685.308	0.08
685.715	0.08
686.122	0.08
686.529	0.08
686.936	0.08
687.343	0.08
687.75	0.07
688.157	0.07
688.564	0.07
688.971	0.07
689.378	0.07
689.784	0.07
690.191	0.07
690.597	0.07
691.004	0.07
691.41	0.07
691.817	0.07
692.223	0.07
692.629	0.06
693.035	0.06
693.442	0.06
693.848	0.06
694.254	0.06
694.66	0.06
695.066	0.06
695.471	0.06
695.877	0.06
696.283	0.06
696.689	0.06
697.094	0.06
697.5	0.06
697.906	0.06
698.311	0.06
698.716	0.06
699.122	0.06
699.527	0.06
699.932	0.06
700.338	0.06
700.743	0.05
701.148	0.06
701.553	0.05
701.958	0.05
702.363	0.05
702.768	0.06
703.173	0.05
703.577	0.05
703.982	0.05
704.387	0.05
704.791	0.05
705.196	0.05
705.6	0.05
706.005	0.05
706.409	0.05
706.814	0.05
707.218	0.05
707.622	0.05
708.026	0.05
708.43	0.05
708.834	0.05
709.238	0.05
709.642	0.05
710.046	0.05
710.45	0.05
710.854	0.05
711.257	0.05
711.661	0.05
712.065	0.05
712.468	0.05
712.872	0.05
713.275	0.05
713.679	0.05
714.082	0.05
714.485	0.05
714.888	0.05
715.291	0.05
715.695	0.05
716.098	0.05
716.501	0.05
716.904	0.05
717.306	0.05
717.709	0.05
718.112	0.05
718.515	0.05
718.917	0.05
719.32	0.05
719.723	0.05
720.125	0.05
720.527	0.05
720.93	0.05
721.332	0.05
721.734	0.05
722.137	0.05
722.539	0.05
722.941	0.05
723.343	0.05
723.745	0.05
724.147	0.05
724.549	0.05
724.95	0.05
725.352	0.05
725.754	0.05
726.156	0.05
726.557	0.05
726.959	0.05
727.36	0.05
727.762	0.05
728.163	0.05
728.564	0.05
728.966	0.05
729.367	0.05
729.768	0.05
730.169	0.05
730.57	0.05
730.971	0.05
731.372	0.05
731.773	0.05
732.174	0.05
732.574	0.05
732.975	0.05
733.376	0.05
733.776	0.05
734.177	0.05
734.577	0.05
734.978	0.05
735.378	0.05
735.778	0.05
736.179	0.05
736.579	0.05
736.979	0.04
737.379	0.05
737.779	0.04
738.179	0.04
738.579	0.04
738.979	0.05
739.379	0.04
739.778	0.04
740.178	0.04
740.578	0.04
740.977	0.04
741.377	0.04
741.776	0.04
742.176	0.04
742.575	0.04
742.974	0.04
743.374	0.04
743.773	0.04
744.172	0.04
744.571	0.04
744.97	0.04
745.369	0.04
745.768	0.04
746.167	0.04
746.565	0.04
746.964	0.04
747.363	0.04
747.761	0.04
748.16	0.04
748.559	0.04
748.957	0.04
749.355	0.04
749.754	0.04
750.152	0.03
750.55	0.04
750.948	0.04
751.347	0.04
751.745	0.04
752.143	0.04
752.541	0.03
752.938	0.03
753.336	0.04
753.734	0.04
754.132	0.04
754.529	0.04
754.927	0.04
755.325	0.03
755.722	0.03
756.119	0.03
756.517	0.03
756.914	0.03
757.311	0.03
757.709	0.03
758.106	0.03
758.503	0.03
758.9	0.03
759.297	0.03
759.694	0.03
760.091	0.03
760.488	0.03
760.884	0.03
761.281	0.03
761.678	0.03
762.074	0.03
762.471	0.03
762.867	0.03
763.264	0.03
763.66	0.03
764.056	0.04
764.453	0.03
764.849	0.03
765.245	0.03
765.641	0.03
766.037	0.03
766.433	0.03
766.829	0.03
767.225	0.03
767.621	0.03
768.016	0.03
768.412	0.03
768.808	0.03
769.203	0.03
769.599	0.03
769.994	0.03
770.389	0.03
770.785	0.03
771.18	0.03
771.575	0.03
771.971	0.03
772.366	0.03
772.761	0.03
773.156	0.03
773.551	0.03
773.945	0.03
774.34	0.04
774.735	0.03
775.13	0.04
775.524	0.04
775.919	0.04
776.314	0.04
776.708	0.04
777.103	0.04
777.497	0.04
777.891	0.04
778.285	0.04
778.68	0.04
779.074	0.04
779.468	0.04
779.862	0.04
780.256	0.04
780.65	0.04
781.044	0.04
781.438	0.04
781.831	0.04
782.225	0.04
782.619	0.04
783.012	0.04
783.406	0.04
783.799	0.04
784.193	0.04
784.586	0.04
784.979	0.04
785.372	0.04
785.766	0.04
786.159	0.04
786.552	0.04
786.945	0.04
787.338	0.04
787.731	0.04
788.123	0.04
788.516	0.04
788.909	0.04
789.302	0.04
789.694	0.04
790.087	0.04
790.479	0.04
790.872	0.04
791.264	0.04
791.656	0.04
792.049	0.04
792.441	0.04
792.833	0.04
793.225	0.04
793.617	0.04
794.009	0.04
794.401	0.04
794.793	0.05
795.185	0.04
795.576	0.04
795.968	0.04
796.36	0.05
796.751	0.04
797.143	0.05
797.534	0.05
797.926	0.05
798.317	0.04
798.708	0.05
799.1	0.05
799.491	0.05
799.882	0.05
800.273	0.05
800.664	0.05
801.055	0.05
801.446	0.05
801.837	0.05
802.227	0.05
802.618	0.05
803.009	0.05
803.399	0.05
803.79	0.05
804.18	0.05
804.571	0.05
804.961	0.05
805.351	0.05
805.742	0.05
806.132	0.05
806.522	0.05
806.912	0.05
807.302	0.05
807.692	0.05
808.082	0.06
808.472	0.06
808.862	0.06
809.251	0.05
809.641	0.06
810.031	0.06
810.42	0.06
810.81	0.06
811.199	0.05
811.589	0.06
811.978	0.06
812.367	0.06
812.756	0.05
813.146	0.06
813.535	0.06
813.924	0.06
814.313	0.06
814.702	0.06
815.091	0.06
815.479	0.06
815.868	0.06
816.257	0.06
816.645	0.06
817.034	0.06
817.423	0.06
817.811	0.06
818.199	0.06
818.588	0.06
818.976	0.06
819.364	0.06
819.753	0.07
820.141	0.06
820.529	0.06
820.917	0.06
821.305	0.06
821.693	0.06
822.08	0.06
822.468	0.07
822.856	0.07
823.244	0.07
823.631	0.07
824.019	0.07
824.406	0.07
824.794	0.07
825.181	0.07
825.568	0.07
825.956	0.07
826.343	0.07
826.73	0.07
827.117	0.07
827.504	0.07
827.891	0.07
828.278	0.07
828.665	0.07
829.052	0.07
829.438	0.07
829.825	0.07
830.212	0.07
830.598	0.07
830.985	0.07
831.371	0.08
831.757	0.07
832.144	0.07
832.53	0.07
832.916	0.07
833.302	0.08
833.688	0.08
834.075	0.08
834.461	0.08
834.846	0.08
835.232	0.08
835.618	0.08
836.004	0.08
836.39	0.08
836.775	0.08
837.161	0.08
837.546	0.08
837.932	0.08
838.317	0.08
838.702	0.08
839.088	0.08
839.473	0.08
839.858	0.08
840.243	0.08
840.628	0.09
841.013	0.08
841.398	0.08
841.783	0.08
842.168	0.09
842.553	0.08
842.937	0.09
843.322	0.09
843.707	0.09
844.091	0.09
844.476	0.09
844.86	0.09
845.244	0.09
845.629	0.09
846.013	0.09
846.397	0.09
846.781	0.09
847.165	0.09
847.549	0.09
847.933	0.09
848.317	0.09
848.701	0.09
849.085	0.09
849.468	0.09
849.852	0.09
850.236	0.09
850.619	0.09
851.003	0.09
851.386	0.09
851.769	0.09
852.153	0.09
852.536	0.09
852.919	0.09
853.302	0.09
853.685	0.1
854.068	0.1
854.451	0.1
854.834	0.1
855.217	0.1
855.6	0.1
855.982	0.1
856.365	0.1
856.748	0.1
857.13	0.1
857.513	0.1
857.895	0.1
858.277	0.1
858.66	0.1
859.042	0.1
859.424	0.1
859.806	0.1
860.188	0.1
860.57	0.1
860.952	0.1
861.334	0.1
861.716	0.1
862.098	0.1
862.48	0.1
862.861	0.1
863.243	0.1
863.624	0.1
864.006	0.1
864.387	0.11
864.769	0.11
865.15	0.11
865.531	0.11
865.912	0.11
866.294	0.11
866.675	0.11
867.056	0.11
867.437	0.11
867.818	0.11
868.198	0.11
868.579	0.11
868.96	0.11
869.341	0.11
869.721	0.11
870.102	0.11
870.482	0.11
870.863	0.11
871.243	0.11
871.623	0.11
872.003	0.11
872.384	0.11
872.764	0.11
873.144	0.11
873.524	0.11
873.904	0.11
874.284	0.11
874.664	0.11
875.043	0.12
875.423	0.12
875.803	0.12
876.182	0.12
876.562	0.12
876.941	0.12
877.321	0.12
877.7	0.12
878.079	0.12
878.459	0.12
878.838	0.12
879.217	0.12
879.596	0.12
879.975	0.12
880.354	0.12
880.733	0.12
881.112	0.12
881.491	0.12
881.869	0.12
882.248	0.12
882.627	0.12
883.005	0.12
883.384	0.12
883.762	0.12
884.14	0.12
884.519	0.12
884.897	0.12
885.275	0.12
885.653	0.12
886.031	0.12
886.409	0.12
886.787	0.12
887.165	0.12
887.543	0.12
887.921	0.12
888.298	0.12
888.676	0.12
889.054	0.12
889.431	0.13
889.809	0.12
890.186	0.12
890.563	0.13
890.941	0.13
891.318	0.12
891.695	0.12
892.072	0.13
892.449	0.13
892.826	0.13
893.203	0.13
893.58	0.13
893.957	0.13
894.334	0.13
894.71	0.13
895.087	0.13
895.464	0.13
895.84	0.13
896.217	0.13
896.593	0.13
896.969	0.13
897.346	0.13
897.722	0.13
898.098	0.13
898.474	0.13
898.85	0.13
899.226	0.13
899.602	0.13
899.978	0.13
900.354	0.13
900.73	0.13
901.105	0.13
901.481	0.13
901.857	0.14
902.232	0.13
902.608	0.13
902.983	0.13
903.358	0.13
903.734	0.13
904.109	0.13
904.484	0.13
904.859	0.13
905.234	0.13
905.609	0.14
905.984	0.13
906.359	0.13
906.734	0.13
907.108	0.13
907.483	0.13
907.858	0.14
908.232	0.14
908.607	0.14
908.981	0.14
909.356	0.13
909.73	0.13
910.104	0.13
910.478	0.14
910.853	0.14
911.227	0.14
911.601	0.14
911.975	0.14
912.349	0.14
912.722	0.14
913.096	0.14
913.47	0.14
913.844	0.13
914.217	0.14
914.591	0.14
914.964	0.14
915.338	0.14
915.711	0.14
916.084	0.14
916.458	0.14
916.831	0.14
917.204	0.14
917.577	0.14
917.95	0.14
918.323	0.14
918.696	0.14
919.069	0.14
919.441	0.13
919.814	0.14
920.187	0.14
920.559	0.14
920.932	0.14
921.304	0.14
921.677	0.14
922.049	0.14
922.421	0.14
922.794	0.14
923.166	0.14
923.538	0.14
923.91	0.14
924.282	0.14
924.654	0.14
925.026	0.14
925.398	0.14
925.769	0.14
926.141	0.14
926.513	0.14
926.884	0.14
927.256	0.14
927.627	0.14
927.999	0.14
928.37	0.14
928.741	0.14
929.113	0.14
929.484	0.14
929.855	0.14
930.226	0.14
930.597	0.14
930.968	0.14
931.339	0.14
931.709	0.14
932.08	0.14
932.451	0.14
932.821	0.14
933.192	0.14
933.562	0.14
933.933	0.14
934.303	0.14
934.673	0.14
935.044	0.14
935.414	0.14
935.784	0.14
936.154	0.14
936.524	0.14
936.894	0.14
937.264	0.14
937.634	0.14
938.004	0.14
938.373	0.14
938.743	0.14
939.113	0.14
939.482	0.14
939.852	0.14
940.221	0.14
940.59	0.14
940.96	0.14
941.329	0.14
941.698	0.14
942.067	0.14
942.436	0.14
942.805	0.14
943.174	0.14
943.543	0.14
943.912	0.14
944.28	0.14
944.649	0.14
945.018	0.14
945.386	0.14
945.755	0.14
946.123	0.14
946.492	0.14
946.86	0.14
947.228	0.14
947.596	0.14
947.965	0.14
948.333	0.14
948.701	0.14
949.069	0.14
949.437	0.14
949.804	0.14
950.172	0.14
950.54	0.14
950.908	0.14
951.275	0.14
951.643	0.14
952.01	0.14
952.378	0.14
952.745	0.14
953.112	0.14
953.479	0.14
953.847	0.14
954.214	0.14
954.581	0.14
954.948	0.14
955.315	0.14
955.682	0.14
956.048	0.14
956.415	0.14
956.782	0.14
957.148	0.14
957.515	0.14
957.881	0.14
958.248	0.14
958.614	0.14
958.981	0.14
959.347	0.14
959.713	0.14
960.079	0.14
960.445	0.13
960.811	0.14
961.177	0.14
961.543	0.14
961.909	0.14
962.275	0.14
962.641	0.13
963.006	0.14
963.372	0.14
963.737	0.14
964.103	0.14
964.468	0.14
964.834	0.14
965.199	0.14
965.564	0.14
965.929	0.14
966.294	0.14
966.659	0.14
967.024	0.14
967.389	0.14
967.754	0.14
968.119	0.14
968.484	0.14
968.848	0.13
969.213	0.14
969.578	0.13
969.942	0.13
970.307	0.13
970.671	0.13
971.035	0.13
971.399	0.13
971.764	0.14
972.128	0.14
972.492	0.13
972.856	0.14
973.22	0.13
973.584	0.13
973.948	0.14
974.311	0.13
974.675	0.13
975.039	0.13
975.402	0.13
975.766	0.13
976.129	0.13
976.493	0.13
976.856	0.13
977.219	0.13
977.582	0.13
977.946	0.13
978.309	0.13
978.672	0.13
979.035	0.13
979.398	0.13
979.761	0.13
980.123	0.13
980.486	0.13
980.849	0.13
981.211	0.13
981.574	0.13
981.936	0.13
982.299	0.13
982.661	0.13
983.023	0.13
983.386	0.13
983.748	0.13
984.11	0.13
984.472	0.13
984.834	0.13
985.196	0.13
985.558	0.13
985.92	0.13
986.281	0.13
986.643	0.13
987.005	0.12
987.366	0.13
987.728	0.13
988.089	0.13
988.451	0.13
988.812	0.13
989.173	0.13
989.534	0.13
989.895	0.13
990.257	0.13
990.618	0.13
990.979	0.13
991.339	0.12
991.7	0.13
992.061	0.12
992.422	0.13
992.782	0.13
993.143	0.12
993.503	0.13
993.864	0.13
994.224	0.13
994.585	0.13
994.945	0.12
995.305	0.12
995.665	0.13
996.025	0.12
996.385	0.13
996.745	0.12
997.105	0.12
997.465	0.12
997.825	0.12
998.185	0.12
998.544	0.12
998.904	0.12
999.263	0.12
999.623	0.12
999.982	0.12
1000.342	0.12
1000.701	0.12
1001.06	0.12
1001.419	0.12
1001.778	0.12
1002.138	0.12
1002.497	0.12
1002.855	0.12
1003.214	0.12
1003.573	0.12
1003.932	0.12
1004.29	0.13
1004.649	0.12
1005.008	0.12
1005.366	0.12
1005.725	0.12
1006.083	0.12
1006.441	0.12
1006.799	0.12
1007.158	0.12
1007.516	0.12
1007.874	0.12
1008.232	0.12
1008.59	0.12
1008.948	0.12
1009.305	0.12
1009.663	0.12
1010.021	0.12
1010.379	0.12
1010.736	0.12
1011.094	0.12
1011.451	0.12
1011.808	0.12
1012.166	0.12
1012.523	0.12
1012.88	0.12
1013.237	0.12
1013.594	0.12
1013.951	0.12
1014.308	0.12
1014.665	0.12
1015.022	0.12
1015.379	0.12
1015.735	0.12
1016.092	0.12
1016.449	0.12
1016.805	0.11
1017.162	0.11
1017.518	0.12
1017.874	0.12
1018.231	0.12
1018.587	0.11
1018.943	0.11
1019.299	0.12
1019.655	0.12
1020.011	0.12
1020.367	0.12
1020.723	0.12
1021.078	0.11
1021.434	0.12
1021.79	0.12
1022.145	0.11
1022.501	0.11
1022.856	0.12
1023.212	0.11
1023.567	0.12
1023.922	0.12
1024.278	0.11
1024.633	0.12
1024.988	0.11
1025.343	0.11
1025.698	0.11
1026.053	0.11
1026.408	0.11
1026.762	0.11
1027.117	0.11
1027.472	0.11
1027.826	0.11
1028.181	0.11
1028.535	0.11
1028.89	0.11
1029.244	0.11
1029.598	0.11
1029.952	0.11
1030.307	0.11
1030.661	0.11
1031.015	0.11
1031.369	0.11
1031.723	0.11
1032.076	0.11
