Data from Absorbance__0__15-51-21-875.txt Node

Date: Thu Jul 09 15:51:21 BST 2026
User: fpm-admin
Spectrometer: SR600986
Trigger mode: 0
Integration Time (sec): 2.500000E-2
Scans to average: 3
Nonlinearity correction enabled: true
Boxcar width: 0
Storing dark spectrum: false
XAxis mode: Wavelengths
Number of Pixels in Spectrum: 2048
>>>>>Begin Spectral Data<<<<<
188.613	0.02
189.078	0.04
189.542	0.03
190.007	0.03
190.472	0.04
190.936	0.04
191.401	0.04
191.865	0.04
192.33	0.04
192.794	0.04
193.258	0.03
193.723	0.04
194.187	0.02
194.651	0.04
195.115	0.04
195.579	0.03
196.043	0.05
196.507	0.03
196.971	0.04
197.435	0.03
197.899	0.03
198.363	0.07
198.827	0.05
199.29	0.02
199.754	0.02
200.218	0.02
200.681	0.03
201.145	0.03
201.608	0.05
202.072	0.02
202.535	0.02
202.998	0.07
203.462	0.03
203.925	0.05
204.388	0.02
204.851	0.04
205.314	0.03
205.777	0.05
206.24	0.03
206.703	0.05
207.166	0.03
207.629	0.04
208.092	0.02
208.555	-0
209.018	0.03
209.48	0.05
209.943	0.06
210.406	0.04
210.868	0.03
211.331	0.03
211.793	0.05
212.256	0.06
212.718	0.04
213.18	0.03
213.643	0.05
214.105	0.04
214.567	0.05
215.029	0.04
215.491	0.05
215.953	0.05
216.415	0.03
216.877	0.05
217.339	0.03
217.801	0.02
218.263	0.03
218.725	0.01
219.186	0.04
219.648	0.04
220.11	0.01
220.571	0.05
221.033	0.04
221.494	0.05
221.956	0.02
222.417	0.05
222.878	0.03
223.34	0.05
223.801	0.02
224.262	0.04
224.723	0.05
225.185	0.05
225.646	0.04
226.107	0
226.568	0.05
227.029	0.03
227.489	0.05
227.95	0.03
228.411	0.04
228.872	0.03
229.332	0.04
229.793	0.06
230.254	0.02
230.714	0.03
231.175	0.04
231.635	0.04
232.096	0.06
232.556	0.05
233.016	0.05
233.477	0.03
233.937	0.06
234.397	0.03
234.857	0.05
235.317	0.05
235.777	0.05
236.237	0.03
236.697	0.05
237.157	0.03
237.617	0
238.077	0.04
238.537	0.05
238.996	0.05
239.456	0.03
239.916	0.03
240.375	0.03
240.835	0.04
241.294	0.03
241.754	0.04
242.213	0.03
242.672	0.05
243.132	0.04
243.591	0.02
244.05	0.04
244.509	0.02
244.968	0.01
245.427	0.04
245.886	0.04
246.345	0.01
246.804	0.03
247.263	0.06
247.722	0.03
248.181	0.04
248.639	0.04
249.098	0.04
249.557	0.02
250.015	0.03
250.474	0.03
250.932	0.04
251.391	0.05
251.849	0.02
252.308	0.04
252.766	0.03
253.224	0.02
253.682	0.03
254.14	0.05
254.599	0.03
255.057	0.03
255.515	0.04
255.973	0.03
256.431	0.03
256.888	0.03
257.346	0.03
257.804	0.03
258.262	0.05
258.719	0.03
259.177	0.01
259.635	0.03
260.092	0.02
260.55	0.04
261.007	0.03
261.465	0.04
261.922	0.02
262.379	0.05
262.836	0.05
263.294	0.03
263.751	0.03
264.208	0.03
264.665	0.04
265.122	0.05
265.579	0.04
266.036	0.04
266.493	0.02
266.95	0.04
267.406	0.04
267.863	0.04
268.32	0.02
268.777	0.04
269.233	0.01
269.69	0.04
270.146	0.04
270.603	0.04
271.059	0.03
271.515	0.04
271.972	0.03
272.428	0.03
272.884	0.04
273.34	0.03
273.796	0.02
274.253	0.04
274.709	0.05
275.165	0.06
275.62	0.05
276.076	0.05
276.532	0.06
276.988	0.04
277.444	0.05
277.899	0.04
278.355	0.02
278.811	0.03
279.266	0.07
279.722	0.04
280.177	0.03
280.633	0.04
281.088	0.05
281.543	0.04
281.998	0.04
282.454	0.04
282.909	0.04
283.364	0.05
283.819	0.04
284.274	0.02
284.729	0.04
285.184	0.04
285.639	0.04
286.094	0.04
286.548	0.05
287.003	0.04
287.458	0.03
287.913	0.05
288.367	0.02
288.822	0.04
289.276	0.05
289.731	0.03
290.185	0.05
290.639	0.04
291.094	0.03
291.548	0.03
292.002	0.03
292.456	0.03
292.91	0.02
293.365	0.05
293.819	0.03
294.273	0.05
294.726	0.04
295.18	0.03
295.634	0.03
296.088	0.03
296.542	0.05
296.995	0.03
297.449	0.04
297.903	0.05
298.356	0.02
298.81	0.03
299.263	0.03
299.716	0.04
300.17	0.03
300.623	0.05
301.076	0.03
301.53	0.07
301.983	0.04
302.436	0.07
302.889	0.04
303.342	0.03
303.795	0.07
304.248	0.05
304.701	0.07
305.153	0.05
305.606	0.06
306.059	0.06
306.512	0.04
306.964	0.05
307.417	0.04
307.869	0.04
308.322	0.02
308.774	0.07
309.227	0.05
309.679	0.05
310.131	0.03
310.584	0.05
311.036	0.05
311.488	0.06
311.94	0.05
312.392	0.04
312.844	0.04
313.296	0.05
313.748	0.04
314.2	0.05
314.652	0.03
315.103	0.04
315.555	0.04
316.007	0.05
316.458	0.02
316.91	0.03
317.361	0.04
317.813	0.05
318.264	0.03
318.716	0.04
319.167	0.05
319.618	0.04
320.07	0.04
320.521	0.04
320.972	0.06
321.423	0.06
321.874	0.06
322.325	0.06
322.776	0.05
323.227	0.05
323.678	0.04
324.128	0.07
324.579	0.05
325.03	0.06
325.48	0.05
325.931	0.07
326.382	0.06
326.832	0.07
327.283	0.07
327.733	0.06
328.183	0.07
328.634	0.06
329.084	0.07
329.534	0.08
329.984	0.08
330.434	0.09
330.884	0.08
331.334	0.07
331.784	0.08
332.234	0.09
332.684	0.09
333.134	0.09
333.584	0.09
334.034	0.09
334.483	0.09
334.933	0.1
335.382	0.11
335.832	0.11
336.281	0.11
336.731	0.11
337.18	0.11
337.63	0.11
338.079	0.12
338.528	0.12
338.977	0.12
339.426	0.12
339.876	0.13
340.325	0.13
340.774	0.13
341.223	0.13
341.671	0.14
342.12	0.13
342.569	0.14
343.018	0.14
343.467	0.15
343.915	0.15
344.364	0.15
344.812	0.15
345.261	0.15
345.709	0.16
346.158	0.16
346.606	0.16
347.054	0.16
347.503	0.16
347.951	0.17
348.399	0.17
348.847	0.17
349.295	0.18
349.743	0.18
350.191	0.18
350.639	0.18
351.087	0.19
351.535	0.18
351.983	0.19
352.43	0.19
352.878	0.2
353.326	0.2
353.773	0.21
354.221	0.21
354.668	0.21
355.116	0.22
355.563	0.22
356.01	0.22
356.458	0.22
356.905	0.23
357.352	0.23
357.799	0.23
358.246	0.24
358.693	0.24
359.14	0.24
359.587	0.25
360.034	0.25
360.481	0.26
360.928	0.26
361.375	0.26
361.821	0.27
362.268	0.27
362.714	0.27
363.161	0.28
363.608	0.28
364.054	0.28
364.5	0.28
364.947	0.29
365.393	0.28
365.839	0.29
366.285	0.3
366.732	0.3
367.178	0.3
367.624	0.3
368.07	0.3
368.516	0.3
368.962	0.3
369.408	0.3
369.853	0.3
370.299	0.3
370.745	0.3
371.19	0.3
371.636	0.3
372.082	0.3
372.527	0.3
372.973	0.29
373.418	0.28
373.863	0.29
374.309	0.28
374.754	0.27
375.199	0.27
375.644	0.27
376.09	0.26
376.535	0.26
376.98	0.25
377.425	0.25
377.87	0.24
378.314	0.24
378.759	0.23
379.204	0.23
379.649	0.22
380.093	0.22
380.538	0.21
380.983	0.21
381.427	0.21
381.872	0.2
382.316	0.2
382.76	0.19
383.205	0.19
383.649	0.19
384.093	0.19
384.537	0.18
384.982	0.18
385.426	0.18
385.87	0.18
386.314	0.17
386.758	0.17
387.201	0.16
387.645	0.16
388.089	0.16
388.533	0.16
388.976	0.15
389.42	0.15
389.864	0.15
390.307	0.14
390.751	0.14
391.194	0.14
391.638	0.14
392.081	0.14
392.524	0.14
392.967	0.14
393.411	0.13
393.854	0.13
394.297	0.13
394.74	0.13
395.183	0.14
395.626	0.14
396.069	0.14
396.512	0.14
396.954	0.14
397.397	0.14
397.84	0.15
398.282	0.15
398.725	0.15
399.168	0.15
399.61	0.15
400.052	0.15
400.495	0.14
400.937	0.15
401.38	0.14
401.822	0.13
402.264	0.13
402.706	0.12
403.148	0.12
403.59	0.11
404.032	0.11
404.474	0.1
404.916	0.1
405.358	0.09
405.8	0.08
406.241	0.08
406.683	0.08
407.125	0.07
407.566	0.07
408.008	0.06
408.449	0.06
408.891	0.05
409.332	0.05
409.774	0.06
410.215	0.05
410.656	0.04
411.097	0.05
411.539	0.03
411.98	0.04
412.421	0.03
412.862	0.04
413.303	0.04
413.744	0.04
414.184	0.04
414.625	0.02
415.066	0.02
415.507	0.02
415.947	0.02
416.388	0.03
416.828	0.04
417.269	0.02
417.709	0.03
418.15	0.02
418.59	0.02
419.03	0.03
419.471	0.02
419.911	0.02
420.351	0.01
420.791	0.02
421.231	0.02
421.671	0.02
422.111	0.02
422.551	0.01
422.991	0.02
423.431	0.01
423.87	0.02
424.31	0.02
424.75	0.01
425.189	0.03
425.629	0.02
426.068	0.02
426.508	0.03
426.947	0.02
427.386	0.02
427.826	0.02
428.265	0.02
428.704	0.01
429.143	0.01
429.582	0.01
430.021	0.01
430.46	0.01
430.899	0.02
431.338	0.02
431.777	0.01
432.216	0.01
432.655	0.02
433.093	0.02
433.532	0.02
433.971	0.02
434.409	0.03
434.848	0.03
435.286	0.02
435.724	0.02
436.163	0.02
436.601	0.03
437.039	0.02
437.477	0.01
437.916	0.03
438.354	0.03
438.792	0.02
439.23	0.01
439.668	0.02
440.105	0.02
440.543	0.02
440.981	0.01
441.419	0.03
441.856	0.03
442.294	0.03
442.732	0.02
443.169	0.02
443.607	0.02
444.044	0.02
444.481	0.02
444.919	0.03
445.356	0.03
445.793	0.03
446.23	0.03
446.668	0.02
447.105	0.02
447.542	0.02
447.979	0.01
448.416	0.03
448.852	0.02
449.289	0.01
449.726	0.04
450.163	0.02
450.599	0.02
451.036	0.02
451.473	0.03
451.909	0.03
452.346	0.02
452.782	0.03
453.218	0.02
453.655	0.03
454.091	0.03
454.527	0.03
454.963	0.03
455.399	0.03
455.835	0.03
456.271	0.04
456.707	0.03
457.143	0.03
457.579	0.04
458.015	0.03
458.451	0.03
458.886	0.02
459.322	0.02
459.758	0.03
460.193	0.02
460.629	0.02
461.064	0.03
461.5	0.03
461.935	0.02
462.37	0.04
462.805	0.05
463.241	0.03
463.676	0.04
464.111	0.03
464.546	0.02
464.981	0.03
465.416	0.04
465.851	0.04
466.286	0.04
466.72	0.04
467.155	0.05
467.59	0.04
468.024	0.04
468.459	0.04
468.893	0.03
469.328	0.04
469.762	0.04
470.197	0.05
470.631	0.05
471.065	0.05
471.5	0.04
471.934	0.05
472.368	0.05
472.802	0.05
473.236	0.05
473.67	0.05
474.104	0.06
474.538	0.05
474.972	0.06
475.405	0.06
475.839	0.05
476.273	0.05
476.706	0.05
477.14	0.05
477.573	0.05
478.007	0.05
478.44	0.06
478.874	0.05
479.307	0.06
479.74	0.06
480.173	0.06
480.606	0.06
481.04	0.06
481.473	0.06
481.906	0.06
482.339	0.06
482.771	0.06
483.204	0.06
483.637	0.07
484.07	0.07
484.502	0.06
484.935	0.06
485.368	0.07
485.8	0.07
486.233	0.07
486.665	0.07
487.098	0.07
487.53	0.07
487.962	0.07
488.394	0.07
488.827	0.07
489.259	0.08
489.691	0.08
490.123	0.08
490.555	0.08
490.987	0.08
491.418	0.08
491.85	0.08
492.282	0.07
492.714	0.08
493.145	0.08
493.577	0.08
494.009	0.08
494.44	0.09
494.872	0.08
495.303	0.08
495.734	0.09
496.166	0.09
496.597	0.08
497.028	0.08
497.459	0.09
497.89	0.09
498.321	0.09
498.752	0.09
499.183	0.09
499.614	0.09
500.045	0.09
500.476	0.1
500.906	0.09
501.337	0.1
501.768	0.1
502.198	0.1
502.629	0.1
503.059	0.1
503.49	0.1
503.92	0.1
504.35	0.1
504.781	0.1
505.211	0.1
505.641	0.1
506.071	0.1
506.501	0.1
506.931	0.1
507.361	0.11
507.791	0.1
508.221	0.11
508.651	0.11
509.081	0.11
509.51	0.11
509.94	0.11
510.37	0.11
510.799	0.11
511.229	0.11
511.658	0.11
512.087	0.11
512.517	0.11
512.946	0.11
513.375	0.11
513.804	0.11
514.234	0.11
514.663	0.12
515.092	0.11
515.521	0.12
515.95	0.12
516.378	0.12
516.807	0.11
517.236	0.12
517.665	0.12
518.093	0.12
518.522	0.12
518.951	0.12
519.379	0.12
519.807	0.12
520.236	0.12
520.664	0.12
521.093	0.12
521.521	0.12
521.949	0.12
522.377	0.12
522.805	0.13
523.233	0.12
523.661	0.13
524.089	0.13
524.517	0.13
524.945	0.13
525.373	0.12
525.8	0.12
526.228	0.13
526.656	0.13
527.083	0.13
527.511	0.13
527.938	0.12
528.366	0.13
528.793	0.13
529.22	0.13
529.648	0.13
530.075	0.13
530.502	0.13
530.929	0.13
531.356	0.13
531.783	0.13
532.21	0.13
532.637	0.13
533.064	0.13
533.49	0.13
533.917	0.13
534.344	0.13
534.771	0.13
535.197	0.13
535.624	0.13
536.05	0.13
536.477	0.13
536.903	0.13
537.329	0.13
537.755	0.13
538.182	0.14
538.608	0.14
539.034	0.13
539.46	0.14
539.886	0.13
540.312	0.13
540.738	0.13
541.164	0.14
541.589	0.13
542.015	0.13
542.441	0.14
542.867	0.14
543.292	0.13
543.718	0.13
544.143	0.13
544.569	0.14
544.994	0.13
545.419	0.13
545.845	0.13
546.27	0.14
546.695	0.13
547.12	0.13
547.545	0.14
547.97	0.13
548.395	0.13
548.82	0.13
549.245	0.13
549.67	0.13
550.094	0.13
550.519	0.14
550.944	0.14
551.368	0.13
551.793	0.13
552.217	0.13
552.642	0.13
553.066	0.13
553.49	0.13
553.915	0.13
554.339	0.13
554.763	0.13
555.187	0.13
555.611	0.13
556.035	0.13
556.459	0.13
556.883	0.13
557.307	0.13
557.731	0.13
558.154	0.13
558.578	0.13
559.002	0.13
559.425	0.13
559.849	0.13
560.272	0.13
560.696	0.13
561.119	0.13
561.543	0.13
561.966	0.13
562.389	0.13
562.812	0.13
563.235	0.13
563.658	0.13
564.081	0.13
564.504	0.13
564.927	0.13
565.35	0.12
565.773	0.13
566.196	0.13
566.618	0.13
567.041	0.13
567.463	0.13
567.886	0.13
568.309	0.12
568.731	0.13
569.153	0.13
569.576	0.12
569.998	0.12
570.42	0.12
570.842	0.12
571.264	0.12
571.686	0.12
572.108	0.12
572.53	0.12
572.952	0.12
573.374	0.12
573.796	0.12
574.218	0.12
574.639	0.12
575.061	0.12
575.483	0.12
575.904	0.12
576.326	0.12
576.747	0.12
577.168	0.12
577.59	0.12
578.011	0.12
578.432	0.12
578.853	0.12
579.274	0.12
579.695	0.12
580.116	0.12
580.537	0.12
580.958	0.11
581.379	0.12
581.8	0.11
582.221	0.11
582.641	0.12
583.062	0.12
583.482	0.11
583.903	0.11
584.323	0.11
584.744	0.11
585.164	0.11
585.584	0.11
586.005	0.11
586.425	0.11
586.845	0.11
587.265	0.11
587.685	0.11
588.105	0.11
588.525	0.11
588.945	0.11
589.365	0.11
589.785	0.11
590.204	0.11
590.624	0.11
591.044	0.11
591.463	0.11
591.883	0.11
592.302	0.11
592.721	0.11
593.141	0.11
593.56	0.11
593.979	0.11
594.399	0.11
594.818	0.11
595.237	0.11
595.656	0.11
596.075	0.11
596.494	0.11
596.913	0.11
597.331	0.11
597.75	0.11
598.169	0.11
598.587	0.11
599.006	0.1
599.425	0.1
599.843	0.1
600.262	0.1
600.68	0.1
601.098	0.1
601.517	0.1
601.935	0.1
602.353	0.1
602.771	0.1
603.189	0.1
603.607	0.1
604.025	0.1
604.443	0.1
604.861	0.1
605.279	0.1
605.696	0.1
606.114	0.1
606.532	0.1
606.949	0.1
607.367	0.1
607.784	0.1
608.202	0.1
608.619	0.1
609.036	0.1
609.454	0.09
609.871	0.09
610.288	0.1
610.705	0.09
611.122	0.09
611.539	0.09
611.956	0.09
612.373	0.09
612.79	0.09
613.207	0.09
613.623	0.09
614.04	0.09
614.457	0.09
614.873	0.09
615.29	0.09
615.706	0.09
616.122	0.09
616.539	0.09
616.955	0.09
617.371	0.09
617.788	0.09
618.204	0.09
618.62	0.08
619.036	0.09
619.452	0.09
619.868	0.08
620.284	0.08
620.699	0.08
621.115	0.08
621.531	0.08
621.946	0.08
622.362	0.08
622.778	0.08
623.193	0.08
623.608	0.08
624.024	0.08
624.439	0.07
624.854	0.08
625.27	0.08
625.685	0.08
626.1	0.08
626.515	0.08
626.93	0.08
627.345	0.08
627.76	0.07
628.175	0.07
628.589	0.07
629.004	0.07
629.419	0.07
629.833	0.07
630.248	0.07
630.663	0.07
631.077	0.07
631.491	0.07
631.906	0.07
632.32	0.07
632.734	0.07
633.148	0.07
633.563	0.07
633.977	0.07
634.391	0.07
634.805	0.06
635.219	0.06
635.632	0.06
636.046	0.06
636.46	0.06
636.874	0.06
637.287	0.06
637.701	0.06
638.115	0.06
638.528	0.06
638.941	0.06
639.355	0.06
639.768	0.06
640.181	0.06
640.595	0.06
641.008	0.06
641.421	0.06
641.834	0.06
642.247	0.05
642.66	0.05
643.073	0.05
643.486	0.06
643.898	0.06
644.311	0.06
644.724	0.05
645.136	0.05
645.549	0.05
645.961	0.05
646.374	0.05
646.786	0.05
647.199	0.05
647.611	0.05
648.023	0.05
648.435	0.05
648.847	0.05
649.26	0.05
649.672	0.05
650.084	0.05
650.495	0.05
650.907	0.05
651.319	0.05
651.731	0.05
652.143	0.05
652.554	0.05
652.966	0.05
653.377	0.05
653.789	0.05
654.2	0.02
654.612	-0
655.023	-0
655.434	-0
655.845	0.01
656.256	0.06
656.668	0.05
657.079	0.05
657.49	0.04
657.901	0.05
658.311	0.04
658.722	0.04
659.133	0.04
659.544	0.04
659.954	0.04
660.365	0.04
660.775	0.04
661.186	0.04
661.596	0.04
662.007	0.04
662.417	0.04
662.827	0.04
663.238	0.04
663.648	0.04
664.058	0.04
664.468	0.04
664.878	0.04
665.288	0.04
665.698	0.04
666.108	0.04
666.517	0.04
666.927	0.04
667.337	0.04
667.746	0.04
668.156	0.04
668.565	0.04
668.975	0.04
669.384	0.04
669.794	0.04
670.203	0.04
670.612	0.04
671.021	0.04
671.43	0.04
671.84	0.04
672.249	0.03
672.658	0.03
673.066	0.03
673.475	0.03
673.884	0.03
674.293	0.03
674.702	0.03
675.11	0.03
675.519	0.03
675.927	0.03
676.336	0.03
676.744	0.03
677.152	0.03
677.561	0.03
677.969	0.03
678.377	0.03
678.785	0.03
679.193	0.03
679.601	0.03
680.009	0.03
680.417	0.03
680.825	0.03
681.233	0.03
681.641	0.02
682.048	0.02
682.456	0.03
682.864	0.03
683.271	0.02
683.679	0.02
684.086	0.02
684.493	0.02
684.901	0.02
685.308	0.02
685.715	0.02
686.122	0.02
686.529	0.02
686.936	0.02
687.343	0.02
687.75	0.02
688.157	0.02
688.564	0.02
688.971	0.02
689.378	0.02
689.784	0.02
690.191	0.02
690.597	0.02
691.004	0.02
691.41	0.02
691.817	0.02
692.223	0.02
692.629	0.02
693.035	0.02
693.442	0.02
693.848	0.02
694.254	0.02
694.66	0.01
695.066	0.02
695.471	0.02
695.877	0.02
696.283	0.02
696.689	0.01
697.094	0.01
697.5	0.01
697.906	0.01
698.311	0.01
698.716	0.01
699.122	0.02
699.527	0.02
699.932	0.02
700.338	0.02
700.743	0.02
701.148	0.01
701.553	0.02
701.958	0.01
702.363	0.01
702.768	0.02
703.173	0.01
703.577	0.01
703.982	0.01
704.387	0.02
704.791	0.01
705.196	0.01
705.6	0.01
706.005	0.02
706.409	0.02
706.814	0.01
707.218	0.01
707.622	0.01
708.026	0.01
708.43	0.01
708.834	0.01
709.238	0.01
709.642	0.01
710.046	0.01
710.45	0.01
710.854	0.01
711.257	0.01
711.661	0.01
712.065	0.01
712.468	0.01
712.872	0.01
713.275	0.01
713.679	0.01
714.082	0.01
714.485	0.01
714.888	0.01
715.291	0.01
715.695	0.01
716.098	0.01
716.501	0.01
716.904	0.01
717.306	0.01
717.709	0.01
718.112	0.01
718.515	0.02
718.917	0.01
719.32	0.01
719.723	0.01
720.125	0.01
720.527	0.01
720.93	0.01
721.332	0.01
721.734	0.01
722.137	0.01
722.539	0.01
722.941	0.01
723.343	0.01
723.745	0.01
724.147	0.01
724.549	0.01
724.95	0.01
725.352	0.01
725.754	0.01
726.156	0.01
726.557	0.01
726.959	0.01
727.36	0.01
727.762	0.01
728.163	0.01
728.564	0.01
728.966	0.01
729.367	0.01
729.768	0.01
730.169	0.02
730.57	0.01
730.971	0.01
731.372	0.01
731.773	0.01
732.174	0.01
732.574	0.01
732.975	0.01
733.376	0.01
733.776	0.01
734.177	0.01
734.577	0.01
734.978	0.01
735.378	0.01
735.778	0.01
736.179	0.01
736.579	0.01
736.979	0.01
737.379	0.01
737.779	0.01
738.179	0.01
738.579	0.01
738.979	0.01
739.379	0.01
739.778	0.01
740.178	0.01
740.578	0.01
740.977	0.01
741.377	0.01
741.776	0.01
742.176	0.01
742.575	0.01
742.974	0.01
743.374	0.01
743.773	0.01
744.172	0.01
744.571	0.01
744.97	0.01
745.369	0.01
745.768	0.01
746.167	0.01
746.565	0.01
746.964	0.01
747.363	0.01
747.761	0.01
748.16	0.01
748.559	0.01
748.957	0.01
749.355	0.01
749.754	0.01
750.152	0.01
750.55	0.01
750.948	0.01
751.347	0.01
751.745	0.01
752.143	0.01
752.541	0.01
752.938	0.01
753.336	0.01
753.734	0.01
754.132	0.01
754.529	0.01
754.927	0.01
755.325	0.01
755.722	0.01
756.119	0.01
756.517	0.01
756.914	0.01
757.311	0.01
757.709	0.01
758.106	0.01
758.503	0
758.9	0.01
759.297	0.01
759.694	0.01
760.091	0.01
760.488	0.01
760.884	0.01
761.281	0.01
761.678	0.01
762.074	0.01
762.471	0.01
762.867	0.01
763.264	0.01
763.66	0
764.056	0.01
764.453	0.01
764.849	0.01
765.245	0
765.641	0.01
766.037	0.01
766.433	0.01
766.829	0.01
767.225	0.01
767.621	0.01
768.016	0.01
768.412	0.01
768.808	0.01
769.203	0
769.599	0.01
769.994	0.01
770.389	0
770.785	0.01
771.18	0.01
771.575	0.01
771.971	0
772.366	0.01
772.761	0
773.156	0.01
773.551	0.01
773.945	0.01
774.34	0.01
774.735	0.01
775.13	0.01
775.524	0.01
775.919	0.01
776.314	0.01
776.708	0.01
777.103	0.01
777.497	0.01
777.891	0.01
778.285	0.01
778.68	0.01
779.074	0
779.468	0.01
779.862	0.01
780.256	0.01
780.65	0.01
781.044	0.01
781.438	0.01
781.831	0.01
782.225	0.01
782.619	0.01
783.012	0.01
783.406	0.01
783.799	0.01
784.193	0.01
784.586	0.01
784.979	0.01
785.372	0.01
785.766	0.01
786.159	0.01
786.552	0.01
786.945	0.01
787.338	0.01
787.731	0.01
788.123	0.01
788.516	0.01
788.909	0.01
789.302	0.01
789.694	0.01
790.087	0.01
790.479	0.01
790.872	0.01
791.264	0.01
791.656	0.01
792.049	0.01
792.441	0.01
792.833	0.01
793.225	0.01
793.617	0.01
794.009	0.01
794.401	0.01
794.793	0.01
795.185	0.01
795.576	0.01
795.968	0.01
796.36	0.01
796.751	0.01
797.143	0.01
797.534	0.01
797.926	0.01
798.317	0.01
798.708	0.01
799.1	0.01
799.491	0.01
799.882	0.01
800.273	0.01
800.664	0.01
801.055	0.01
801.446	0.01
801.837	0.02
802.227	0.01
802.618	0.01
803.009	0.01
803.399	0.01
803.79	0.01
804.18	0.01
804.571	0.01
804.961	0.01
805.351	0.01
805.742	0.01
806.132	0.01
806.522	0.01
806.912	0.01
807.302	0.01
807.692	0.01
808.082	0.01
808.472	0.01
808.862	0.01
809.251	0.01
809.641	0.01
810.031	0.01
810.42	0.01
810.81	0.01
811.199	0.01
811.589	0.01
811.978	0.01
812.367	0.01
812.756	0.01
813.146	0.01
813.535	0.01
813.924	0.01
814.313	0.01
814.702	0.01
815.091	0.01
815.479	0.01
815.868	0.01
816.257	0.02
816.645	0.01
817.034	0.01
817.423	0.01
817.811	0.01
818.199	0.02
818.588	0.01
818.976	0.02
819.364	0.02
819.753	0.02
820.141	0.02
820.529	0.02
820.917	0.02
821.305	0.02
821.693	0.02
822.08	0.01
822.468	0.02
822.856	0.01
823.244	0.02
823.631	0.02
824.019	0.02
824.406	0.02
824.794	0.02
825.181	0.01
825.568	0.02
825.956	0.01
826.343	0.02
826.73	0.02
827.117	0.02
827.504	0.02
827.891	0.02
828.278	0.02
828.665	0.01
829.052	0.02
829.438	0.02
829.825	0.02
830.212	0.02
830.598	0.02
830.985	0.02
831.371	0.02
831.757	0.02
832.144	0.02
832.53	0.02
832.916	0.02
833.302	0.02
833.688	0.02
834.075	0.02
834.461	0.02
834.846	0.02
835.232	0.02
835.618	0.02
836.004	0.02
836.39	0.02
836.775	0.02
837.161	0.02
837.546	0.02
837.932	0.02
838.317	0.02
838.702	0.02
839.088	0.02
839.473	0.02
839.858	0.02
840.243	0.02
840.628	0.02
841.013	0.02
841.398	0.02
841.783	0.02
842.168	0.02
842.553	0.02
842.937	0.02
843.322	0.02
843.707	0.02
844.091	0.02
844.476	0.02
844.86	0.02
845.244	0.02
845.629	0.02
846.013	0.02
846.397	0.02
846.781	0.02
847.165	0.02
847.549	0.02
847.933	0.02
848.317	0.02
848.701	0.02
849.085	0.02
849.468	0.02
849.852	0.02
850.236	0.02
850.619	0.02
851.003	0.02
851.386	0.02
851.769	0.02
852.153	0.03
852.536	0.02
852.919	0.02
853.302	0.02
853.685	0.02
854.068	0.02
854.451	0.02
854.834	0.02
855.217	0.02
855.6	0.03
855.982	0.02
856.365	0.02
856.748	0.03
857.13	0.02
857.513	0.03
857.895	0.03
858.277	0.03
858.66	0.03
859.042	0.03
859.424	0.03
859.806	0.02
860.188	0.02
860.57	0.02
860.952	0.02
861.334	0.03
861.716	0.02
862.098	0.02
862.48	0.02
862.861	0.02
863.243	0.03
863.624	0.03
864.006	0.03
864.387	0.03
864.769	0.03
865.15	0.03
865.531	0.03
865.912	0.03
866.294	0.03
866.675	0.03
867.056	0.03
867.437	0.02
867.818	0.03
868.198	0.03
868.579	0.03
868.96	0.02
869.341	0.02
869.721	0.03
870.102	0.03
870.482	0.03
870.863	0.03
871.243	0.03
871.623	0.03
872.003	0.03
872.384	0.03
872.764	0.03
873.144	0.03
873.524	0.03
873.904	0.02
874.284	0.03
874.664	0.03
875.043	0.03
875.423	0.03
875.803	0.03
876.182	0.03
876.562	0.03
876.941	0.03
877.321	0.03
877.7	0.03
878.079	0.03
878.459	0.03
878.838	0.03
879.217	0.03
879.596	0.03
879.975	0.03
880.354	0.03
880.733	0.03
881.112	0.03
881.491	0.03
881.869	0.03
882.248	0.03
882.627	0.03
883.005	0.03
883.384	0.03
883.762	0.03
884.14	0.03
884.519	0.03
884.897	0.03
885.275	0.03
885.653	0.03
886.031	0.03
886.409	0.03
886.787	0.03
887.165	0.03
887.543	0.03
887.921	0.03
888.298	0.03
888.676	0.03
889.054	0.03
889.431	0.03
889.809	0.03
890.186	0.03
890.563	0.03
890.941	0.03
891.318	0.03
891.695	0.03
892.072	0.03
892.449	0.03
892.826	0.03
893.203	0.03
893.58	0.03
893.957	0.03
894.334	0.03
894.71	0.03
895.087	0.03
895.464	0.03
895.84	0.03
896.217	0.03
896.593	0.03
896.969	0.03
897.346	0.03
897.722	0.03
898.098	0.03
898.474	0.03
898.85	0.03
899.226	0.03
899.602	0.03
899.978	0.03
900.354	0.03
900.73	0.03
901.105	0.03
901.481	0.03
901.857	0.03
902.232	0.03
902.608	0.03
902.983	0.03
903.358	0.03
903.734	0.03
904.109	0.03
904.484	0.03
904.859	0.03
905.234	0.03
905.609	0.03
905.984	0.03
906.359	0.03
906.734	0.03
907.108	0.03
907.483	0.03
907.858	0.03
908.232	0.04
908.607	0.04
908.981	0.03
909.356	0.03
909.73	0.03
910.104	0.04
910.478	0.03
910.853	0.04
911.227	0.03
911.601	0.04
911.975	0.04
912.349	0.04
912.722	0.03
913.096	0.03
913.47	0.03
913.844	0.03
914.217	0.04
914.591	0.04
914.964	0.04
915.338	0.04
915.711	0.03
916.084	0.04
916.458	0.04
916.831	0.04
917.204	0.04
917.577	0.04
917.95	0.04
918.323	0.04
918.696	0.04
919.069	0.04
919.441	0.04
919.814	0.04
920.187	0.03
920.559	0.03
920.932	0.04
921.304	0.04
921.677	0.04
922.049	0.04
922.421	0.03
922.794	0.04
923.166	0.04
923.538	0.04
923.91	0.04
924.282	0.04
924.654	0.03
925.026	0.04
925.398	0.04
925.769	0.04
926.141	0.03
926.513	0.03
926.884	0.03
927.256	0.03
927.627	0.04
927.999	0.04
928.37	0.03
928.741	0.03
929.113	0.04
929.484	0.04
929.855	0.03
930.226	0.04
930.597	0.03
930.968	0.03
931.339	0.04
931.709	0.04
932.08	0.03
932.451	0.03
932.821	0.04
933.192	0.03
933.562	0.04
933.933	0.03
934.303	0.04
934.673	0.04
935.044	0.04
935.414	0.04
935.784	0.04
936.154	0.03
936.524	0.04
936.894	0.04
937.264	0.04
937.634	0.03
938.004	0.04
938.373	0.03
938.743	0.04
939.113	0.04
939.482	0.04
939.852	0.03
940.221	0.04
940.59	0.04
940.96	0.03
941.329	0.03
941.698	0.04
942.067	0.03
942.436	0.04
942.805	0.03
943.174	0.03
943.543	0.04
943.912	0.03
944.28	0.03
944.649	0.03
945.018	0.04
945.386	0.03
945.755	0.04
946.123	0.03
946.492	0.03
946.86	0.03
947.228	0.03
947.596	0.03
947.965	0.03
948.333	0.03
948.701	0.03
949.069	0.03
949.437	0.03
949.804	0.04
950.172	0.04
950.54	0.03
950.908	0.04
951.275	0.04
951.643	0.04
952.01	0.04
952.378	0.03
952.745	0.04
953.112	0.04
953.479	0.03
953.847	0.03
954.214	0.03
954.581	0.03
954.948	0.03
955.315	0.03
955.682	0.03
956.048	0.03
956.415	0.04
956.782	0.04
957.148	0.04
957.515	0.03
957.881	0.04
958.248	0.03
958.614	0.03
958.981	0.04
959.347	0.03
959.713	0.04
960.079	0.03
960.445	0.04
960.811	0.04
961.177	0.04
961.543	0.03
961.909	0.04
962.275	0.03
962.641	0.04
963.006	0.03
963.372	0.04
963.737	0.04
964.103	0.03
964.468	0.04
964.834	0.04
965.199	0.03
965.564	0.03
965.929	0.03
966.294	0.04
966.659	0.04
967.024	0.04
967.389	0.04
967.754	0.04
968.119	0.03
968.484	0.03
968.848	0.03
969.213	0.03
969.578	0.03
969.942	0.04
970.307	0.03
970.671	0.03
971.035	0.03
971.399	0.03
971.764	0.03
972.128	0.03
972.492	0.04
972.856	0.03
973.22	0.03
973.584	0.03
973.948	0.03
974.311	0.03
974.675	0.03
975.039	0.04
975.402	0.04
975.766	0.03
976.129	0.03
976.493	0.03
976.856	0.03
977.219	0.03
977.582	0.03
977.946	0.03
978.309	0.03
978.672	0.03
979.035	0.04
979.398	0.03
979.761	0.03
980.123	0.03
980.486	0.03
980.849	0.03
981.211	0.04
981.574	0.04
981.936	0.03
982.299	0.04
982.661	0.03
983.023	0.03
983.386	0.03
983.748	0.03
984.11	0.03
984.472	0.03
984.834	0.03
985.196	0.04
985.558	0.03
985.92	0.03
986.281	0.03
986.643	0.03
987.005	0.03
987.366	0.03
987.728	0.03
988.089	0.03
988.451	0.03
988.812	0.03
989.173	0.03
989.534	0.03
989.895	0.03
990.257	0.03
990.618	0.03
990.979	0.03
991.339	0.04
991.7	0.03
992.061	0.04
992.422	0.04
992.782	0.04
993.143	0.04
993.503	0.03
993.864	0.03
994.224	0.03
994.585	0.04
994.945	0.03
995.305	0.03
995.665	0.03
996.025	0.03
996.385	0.03
996.745	0.03
997.105	0.03
997.465	0.03
997.825	0.03
998.185	0.03
998.544	0.03
998.904	0.04
999.263	0.03
999.623	0.03
999.982	0.03
1000.342	0.03
1000.701	0.03
1001.06	0.04
1001.419	0.03
1001.778	0.03
1002.138	0.03
1002.497	0.03
1002.855	0.03
1003.214	0.03
1003.573	0.03
1003.932	0.03
1004.29	0.02
1004.649	0.03
1005.008	0.03
1005.366	0.03
1005.725	0.03
1006.083	0.03
1006.441	0.03
1006.799	0.03
1007.158	0.03
1007.516	0.03
1007.874	0.03
1008.232	0.03
1008.59	0.03
1008.948	0.03
1009.305	0.03
1009.663	0.03
1010.021	0.03
1010.379	0.03
1010.736	0.03
1011.094	0.02
1011.451	0.03
1011.808	0.03
1012.166	0.03
1012.523	0.03
1012.88	0.03
1013.237	0.03
1013.594	0.03
1013.951	0.03
1014.308	0.03
1014.665	0.03
1015.022	0.03
1015.379	0.03
1015.735	0.03
1016.092	0.03
1016.449	0.03
1016.805	0.03
1017.162	0.02
1017.518	0.03
1017.874	0.02
1018.231	0.03
1018.587	0.03
1018.943	0.02
1019.299	0.03
1019.655	0.03
1020.011	0.02
1020.367	0.03
1020.723	0.03
1021.078	0.03
1021.434	0.03
1021.79	0.03
1022.145	0.03
1022.501	0.03
1022.856	0.02
1023.212	0.03
1023.567	0.03
1023.922	0.03
1024.278	0.03
1024.633	0.02
1024.988	0.02
1025.343	0.02
1025.698	0.02
1026.053	0.02
1026.408	0.02
1026.762	0.02
1027.117	0.02
1027.472	0.02
1027.826	0.03
1028.181	0.02
1028.535	0.03
1028.89	0.02
1029.244	0.02
1029.598	0.02
1029.952	0.02
1030.307	0.02
1030.661	0.02
1031.015	0.03
1031.369	0.03
1031.723	0.02
1032.076	0.02
