Data from Rubpy_EV_1500_EDTA_Absorbance_13-09-31-964.txt Node
Date: Mon Jun 29 13:09:31 BST 2026
User: fpm-admin
Spectrometer: OFX00224
Trigger mode: 0
Integration Time (sec): 7.000000E-2
Scans to average: 3
Nonlinearity correction enabled: false
Boxcar width: 0
Storing dark spectrum: false
XAxis mode: Wavelengths
Number of Pixels in Spectrum: 2136
>>>>>Begin Spectral Data<<<<<
154.91	-0.41
155.289	-0
155.669	-0
156.048	0.01
156.428	-0
156.807	-0
157.186	-0.08
157.566	-0
157.945	0.32
158.325	-0
158.704	0.51
159.083	0.45
159.462	0.12
159.842	0.12
160.221	0.02
160.6	-0.63
160.979	0.22
161.359	0.16
161.738	-0.4
162.117	-0
162.496	-0.73
162.875	-0.14
163.254	-0
163.633	-0
164.012	0.05
164.391	0.04
164.77	-0.48
165.149	-0
165.528	-0
165.907	0.43
166.286	0.18
166.665	-0.4
167.044	-0
167.423	-0
167.802	0.12
168.181	-0.33
168.559	-0.02
168.938	-0.44
169.317	-0
169.696	0.67
170.074	-0.87
170.453	-0.05
170.832	-0
171.21	-0
171.589	-0
171.968	0.41
172.346	-0.18
172.725	-0
173.103	-0
173.482	1.22
173.861	0.25
174.239	0.41
174.617	0.18
174.996	-0.1
175.374	-1
175.753	0.12
176.131	-0.12
176.51	-0
176.888	0.65
177.266	-0.24
177.645	0.14
178.023	-0.1
178.401	-0.1
178.779	-0.19
179.158	0.59
179.536	-0.07
179.914	0.78
180.292	-0
180.67	0.22
181.048	-0.03
181.427	-0
181.805	-0
182.183	-0.55
182.561	-0.04
182.939	0.3
183.317	-0
183.695	-0
184.073	-0.67
184.451	-0.29
184.829	-0
185.206	0.11
185.584	-0.44
185.962	0.15
186.34	0.37
186.718	0.62
187.096	0.36
187.473	-0
187.851	-0
188.229	0.24
188.607	-0.01
188.984	-0.08
189.362	0.29
189.74	0.03
190.117	0.23
190.495	0.1
190.872	0.15
191.25	-0.02
191.627	0.03
192.005	0.03
192.382	-0.07
192.76	0.28
193.137	0.15
193.515	0.02
193.892	0.13
194.269	0.17
194.647	0.04
195.024	0.07
195.401	0.02
195.779	0.06
196.156	0.09
196.533	-0.07
196.91	0.05
197.288	-0.04
197.665	0.08
198.042	0.04
198.419	0.09
198.796	0.06
199.173	0.04
199.55	0.09
199.927	0.11
200.304	0.06
200.681	0.07
201.058	0.14
201.435	-0.01
201.812	0.01
202.189	0.06
202.566	0.09
202.943	0.16
203.32	-0.03
203.697	0.01
204.073	0.08
204.45	0.09
204.827	0.1
205.204	0.05
205.58	0.07
205.957	-0.08
206.334	-0.09
206.71	-0.1
207.087	0.17
207.464	0.01
207.84	0.02
208.217	0.08
208.593	0.09
208.97	0.04
209.346	0.08
209.723	0.05
210.099	0.11
210.476	0.13
210.852	0.13
211.228	0.02
211.605	0.08
211.981	-0.02
212.357	0.04
212.733	-0.03
213.11	-0.04
213.486	0.02
213.862	0.14
214.238	0.08
214.614	0.08
214.991	-0.09
215.367	0.08
215.743	0.15
216.119	0.08
216.495	0
216.871	0.04
217.247	0.05
217.623	-0.03
217.999	0.04
218.375	0.06
218.751	0.05
219.127	0.09
219.502	0.11
219.878	0.19
220.254	0.12
220.63	0.01
221.006	0.11
221.381	0.09
221.757	0.05
222.133	-0
222.508	0.02
222.884	0.01
223.26	0.08
223.635	0.09
224.011	0.15
224.386	0.06
224.762	0.1
225.137	0.08
225.513	0.06
225.888	0.14
226.264	0.02
226.639	-0.01
227.014	0.19
227.39	0.02
227.765	0.13
228.14	0.06
228.516	-0.02
228.891	-0
229.266	-0.01
229.641	0.03
230.017	0.09
230.392	0.1
230.767	0.12
231.142	0.04
231.517	0
231.892	0.06
232.267	0.04
232.642	0.07
233.017	0.04
233.392	0.13
233.767	0.04
234.142	0.01
234.517	0.1
234.892	0.11
235.267	0.11
235.641	-0.02
236.016	0.03
236.391	-0.02
236.766	0.01
237.14	0.07
237.515	0.16
237.89	0.07
238.264	-0.04
238.639	0.26
239.014	0.07
239.388	0.1
239.763	0.17
240.137	0.01
240.512	0.14
240.886	0.11
241.261	0.12
241.635	0.05
242.009	0.09
242.384	0.02
242.758	0.15
243.132	-0.01
243.507	0.16
243.881	0.08
244.255	-0.04
244.629	0.05
245.004	-0.1
245.378	-0.07
245.752	0.06
246.126	0.05
246.5	0.07
246.874	0.09
247.248	0.02
247.622	0.12
247.996	0.19
248.37	0.11
248.744	0
249.118	0.17
249.492	0.1
249.866	0.13
250.24	-0
250.613	0.04
250.987	0.02
251.361	0.03
251.735	0.11
252.108	0.01
252.482	-0.03
252.856	0.07
253.229	0.03
253.603	0.06
253.977	0.03
254.35	0.11
254.724	0.09
255.097	0.11
255.471	0.03
255.844	0.11
256.218	0.08
256.591	0.1
256.964	0.06
257.338	0.01
257.711	0.17
258.084	0.14
258.458	0.06
258.831	0.07
259.204	0.06
259.577	0.12
259.95	0.09
260.323	0.1
260.697	0.11
261.07	-0.04
261.443	0.18
261.816	0.05
262.189	-0
262.562	0.18
262.935	0.12
263.308	0.14
263.68	0.04
264.053	0.22
264.426	0.19
264.799	0.11
265.172	0.03
265.545	0.1
265.917	0.08
266.29	0.14
266.663	0.09
267.035	0.08
267.408	0.05
267.781	0.18
268.153	0.08
268.526	0.06
268.898	0.11
269.271	0.06
269.643	0.17
270.016	0.08
270.388	0.12
270.76	0.2
271.133	-0.02
271.505	0.1
271.877	0.02
272.25	0.07
272.622	0.05
272.994	0.12
273.366	-0.01
273.739	0.08
274.111	0.07
274.483	0.02
274.855	0.05
275.227	0.03
275.599	0.14
275.971	0.19
276.343	0.03
276.715	0.03
277.087	0.08
277.459	0.09
277.831	-0.01
278.203	0.04
278.574	0.17
278.946	0.13
279.318	0.09
279.69	0.02
280.061	0.07
280.433	-0.01
280.805	-0.01
281.176	0.1
281.548	-0
281.92	0.03
282.291	0.06
282.663	0.1
283.034	0.07
283.406	0.09
283.777	0.14
284.148	0.09
284.52	0.09
284.891	0.11
285.262	0.05
285.634	0.1
286.005	0.03
286.376	0.1
286.747	0.06
287.119	0.16
287.49	0.09
287.861	0.02
288.232	0.03
288.603	0.06
288.974	0.09
289.345	0.08
289.716	0.09
290.087	0.09
290.458	0
290.829	0
291.2	0.08
291.571	0.08
291.941	0.12
292.312	0.06
292.683	0.08
293.054	0.11
293.424	0.1
293.795	0.02
294.166	0.1
294.536	0.06
294.907	0.08
295.277	0.07
295.648	0.04
296.018	0.03
296.389	0.09
296.759	0.07
297.13	0.06
297.5	0.03
297.871	0.02
298.241	0.03
298.611	0.02
298.981	0.05
299.352	0.08
299.722	0.07
300.092	0.01
300.462	0.03
300.832	0.04
301.202	0.02
301.573	0.04
301.943	0.05
302.313	0.04
302.683	0.01
303.053	0.03
303.422	0.02
303.792	0.04
304.162	0.02
304.532	0.04
304.902	0.03
305.272	0.02
305.641	0.03
306.011	0.02
306.381	0.03
306.75	0.02
307.12	0.03
307.49	0.03
307.859	0.03
308.229	0.02
308.598	0.02
308.968	0.02
309.337	0.03
309.707	0.03
310.076	0.03
310.445	0.02
310.815	0.02
311.184	0.03
311.553	0.03
311.923	0.02
312.292	0.03
312.661	0.03
313.03	0.02
313.399	0.03
313.768	0.03
314.137	0.03
314.506	0.03
314.875	0.02
315.244	0.03
315.613	0.03
315.982	0.03
316.351	0.03
316.72	0.02
317.089	0.03
317.458	0.03
317.826	0.03
318.195	0.03
318.564	0.03
318.933	0.03
319.301	0.02
319.67	0.03
320.038	0.02
320.407	0.03
320.775	0.02
321.144	0.03
321.512	0.02
321.881	0.03
322.249	0.02
322.618	0.02
322.986	0.03
323.354	0.02
323.723	0.03
324.091	0.03
324.459	0.02
324.827	0.02
325.195	0.02
325.564	0.03
325.932	0.03
326.3	0.02
326.668	0.02
327.036	0.02
327.404	0.03
327.772	0.03
328.14	0.03
328.508	0.02
328.875	0.03
329.243	0.02
329.611	0.03
329.979	0.02
330.346	0.02
330.714	0.02
331.082	0.03
331.449	0.02
331.817	0.02
332.185	0.02
332.552	0.03
332.92	0.03
333.287	0.03
333.655	0.04
334.022	0.03
334.389	0.02
334.757	0.03
335.124	0.03
335.491	0.02
335.859	0.03
336.226	0.03
336.593	0.02
336.96	0.03
337.327	0.03
337.695	0.03
338.062	0.03
338.429	0.03
338.796	0.03
339.163	0.03
339.53	0.03
339.897	0.03
340.263	0.03
340.63	0.03
340.997	0.03
341.364	0.03
341.731	0.03
342.097	0.03
342.464	0.03
342.831	0.03
343.197	0.03
343.564	0.03
343.931	0.03
344.297	0.03
344.664	0.04
345.03	0.04
345.396	0.04
345.763	0.03
346.129	0.04
346.496	0.04
346.862	0.04
347.228	0.04
347.594	0.04
347.961	0.04
348.327	0.04
348.693	0.04
349.059	0.04
349.425	0.04
349.791	0.04
350.157	0.04
350.523	0.04
350.889	0.04
351.255	0.04
351.621	0.05
351.987	0.04
352.353	0.05
352.719	0.05
353.084	0.04
353.45	0.04
353.816	0.05
354.181	0.05
354.547	0.05
354.913	0.04
355.278	0.05
355.644	0.05
356.009	0.05
356.375	0.05
356.74	0.05
357.106	0.06
357.471	0.06
357.836	0.05
358.202	0.06
358.567	0.06
358.932	0.06
359.297	0.06
359.663	0.06
360.028	0.06
360.393	0.07
360.758	0.06
361.123	0.06
361.488	0.07
361.853	0.07
362.218	0.07
362.583	0.07
362.948	0.07
363.312	0.07
363.677	0.07
364.042	0.07
364.407	0.08
364.772	0.07
365.136	0.07
365.501	0.08
365.865	0.08
366.23	0.08
366.595	0.08
366.959	0.08
367.324	0.08
367.688	0.08
368.052	0.08
368.417	0.08
368.781	0.09
369.145	0.09
369.51	0.08
369.874	0.09
370.238	0.09
370.602	0.09
370.967	0.09
371.331	0.09
371.695	0.08
372.059	0.09
372.423	0.09
372.787	0.09
373.151	0.09
373.515	0.09
373.878	0.09
374.242	0.09
374.606	0.09
374.97	0.09
375.334	0.09
375.697	0.09
376.061	0.09
376.425	0.09
376.788	0.09
377.152	0.09
377.515	0.09
377.879	0.09
378.242	0.09
378.606	0.1
378.969	0.09
379.333	0.1
379.696	0.09
380.059	0.09
380.422	0.1
380.786	0.1
381.149	0.1
381.512	0.11
381.875	0.11
382.238	0.11
382.601	0.11
382.964	0.12
383.327	0.12
383.69	0.12
384.053	0.13
384.416	0.13
384.779	0.13
385.142	0.13
385.504	0.14
385.867	0.14
386.23	0.14
386.593	0.14
386.955	0.14
387.318	0.14
387.68	0.14
388.043	0.14
388.405	0.14
388.768	0.13
389.13	0.14
389.493	0.14
389.855	0.14
390.217	0.13
390.58	0.14
390.942	0.13
391.304	0.14
391.666	0.14
392.028	0.14
392.391	0.14
392.753	0.15
393.115	0.15
393.477	0.15
393.839	0.16
394.201	0.17
394.563	0.18
394.924	0.18
395.286	0.19
395.648	0.19
396.01	0.2
396.371	0.21
396.733	0.21
397.095	0.21
397.456	0.21
397.818	0.22
398.18	0.21
398.541	0.21
398.903	0.2
399.264	0.2
399.625	0.19
399.987	0.18
400.348	0.18
400.709	0.17
401.071	0.16
401.432	0.15
401.793	0.14
402.154	0.13
402.515	0.12
402.876	0.12
403.238	0.12
403.599	0.11
403.96	0.1
404.32	0.09
404.681	0.09
405.042	0.08
405.403	0.07
405.764	0.07
406.125	0.07
406.485	0.06
406.846	0.06
407.207	0.06
407.567	0.05
407.928	0.05
408.288	0.05
408.649	0.05
409.009	0.05
409.37	0.05
409.73	0.05
410.091	0.04
410.451	0.04
410.811	0.04
411.171	0.04
411.532	0.04
411.892	0.04
412.252	0.04
412.612	0.04
412.972	0.04
413.332	0.04
413.692	0.04
414.052	0.04
414.412	0.04
414.772	0.03
415.132	0.03
415.492	0.04
415.851	0.04
416.211	0.04
416.571	0.03
416.931	0.03
417.29	0.03
417.65	0.03
418.009	0.03
418.369	0.03
418.728	0.03
419.088	0.03
419.447	0.03
419.807	0.03
420.166	0.03
420.525	0.03
420.884	0.03
421.244	0.03
421.603	0.03
421.962	0.03
422.321	0.03
422.68	0.03
423.039	0.03
423.398	0.03
423.757	0.04
424.116	0.03
424.475	0.02
424.834	0.03
425.193	0.03
425.551	0.03
425.91	0.03
426.269	0.03
426.628	0.03
426.986	0.02
427.345	0.03
427.703	0.04
428.062	0.03
428.42	0.03
428.779	0.02
429.137	0.04
429.496	0.03
429.854	0.02
430.212	0.03
430.57	0.02
430.929	0.04
431.287	0.03
431.645	0.04
432.003	0.03
432.361	0.03
432.719	0.03
433.077	0.03
433.435	0.02
433.793	0.02
434.151	0.02
434.509	0.03
434.866	0.03
435.224	0.03
435.582	0.03
435.94	0.03
436.297	0.03
436.655	0.03
437.012	0.03
437.37	0.02
437.727	0.03
438.085	0.03
438.442	0.03
438.8	0.03
439.157	0.02
439.514	0.02
439.872	0.03
440.229	0.03
440.586	0.03
440.943	0.03
441.3	0.02
441.657	0.03
442.014	0.02
442.371	0.02
442.728	0.02
443.085	0.02
443.442	0.02
443.799	0.02
444.156	0.03
444.513	0.02
444.869	0.02
445.226	0.03
445.583	0.03
445.939	0.03
446.296	0.03
446.652	0.02
447.009	0.03
447.365	0.02
447.722	0.03
448.078	0.02
448.434	0.02
448.791	0.02
449.147	0.03
449.503	0.02
449.859	0.02
450.215	0.02
450.571	0.02
450.928	0.03
451.284	0.03
451.64	0.03
451.995	0.02
452.351	0.02
452.707	0.02
453.063	0.02
453.419	0.02
453.775	0.02
454.13	0.01
454.486	0.02
454.842	0.01
455.197	0.01
455.553	0.02
455.908	0.01
456.264	0.02
456.619	0.01
456.975	0.01
457.33	0.01
457.685	0.01
458.04	0.01
458.396	0.01
458.751	0.01
459.106	0.01
459.461	0.01
459.816	0.02
460.171	0.01
460.526	0.01
460.881	0.01
461.236	0.01
461.591	0
461.946	-0
462.301	-0
462.655	0
463.01	0
463.365	0.01
463.719	-0.01
464.074	-0
464.428	-0.01
464.783	-0.01
465.137	0
465.492	-0
465.846	-0.01
466.201	-0
466.555	-0.01
466.909	-0.01
467.263	-0
467.618	-0
467.972	0
468.326	-0.01
468.68	-0.01
469.034	-0.01
469.388	-0.01
469.742	-0.01
470.096	-0.01
470.45	-0.01
470.804	-0.01
471.157	-0.01
471.511	-0
471.865	-0.01
472.218	-0
472.572	-0.01
472.926	-0.01
473.279	-0.01
473.633	-0
473.986	-0
474.34	-0
474.693	-0
475.046	0
475.4	0
475.753	0
476.106	0.01
476.459	0
476.812	0
477.165	0.01
477.519	0.01
477.872	0.01
478.224	0.01
478.577	0.02
478.93	0.01
479.283	0.02
479.636	0.02
479.989	0.01
480.341	0.01
480.694	0.01
481.047	0.02
481.399	0.02
481.752	0.02
482.104	0.02
482.457	0.02
482.809	0.02
483.162	0.02
483.514	0.03
483.866	0.02
484.219	0.02
484.571	0.02
484.923	0.02
485.275	0.02
485.627	0.03
485.979	0.03
486.331	0.03
486.683	0.03
487.035	0.03
487.387	0.03
487.739	0.03
488.091	0.03
488.443	0.02
488.794	0.02
489.146	0.03
489.498	0.02
489.849	0.02
490.201	0.03
490.552	0.03
490.904	0.03
491.255	0.03
491.607	0.03
491.958	0.04
492.309	0.03
492.661	0.03
493.012	0.03
493.363	0.03
493.714	0.03
494.065	0.03
494.416	0.03
494.767	0.03
495.118	0.03
495.469	0.03
495.82	0.03
496.171	0.03
496.522	0.03
496.872	0.04
497.223	0.03
497.574	0.04
497.924	0.04
498.275	0.03
498.626	0.03
498.976	0.03
499.327	0.03
499.677	0.04
500.027	0.03
500.378	0.04
500.728	0.04
501.078	0.04
501.428	0.04
501.779	0.04
502.129	0.03
502.479	0.04
502.829	0.04
503.179	0.04
503.529	0.04
503.879	0.04
504.229	0.04
504.578	0.04
504.928	0.04
505.278	0.04
505.628	0.04
505.977	0.04
506.327	0.04
506.676	0.04
507.026	0.04
507.375	0.04
507.725	0.04
508.074	0.04
508.424	0.04
508.773	0.04
509.122	0.04
509.471	0.04
509.82	0.04
510.17	0.04
510.519	0.04
510.868	0.04
511.217	0.04
511.566	0.05
511.915	0.04
512.263	0.04
512.612	0.04
512.961	0.04
513.31	0.04
513.659	0.05
514.007	0.05
514.356	0.04
514.704	0.05
515.053	0.05
515.401	0.05
515.75	0.05
516.098	0.05
516.447	0.05
516.795	0.05
517.143	0.05
517.491	0.05
517.839	0.05
518.188	0.05
518.536	0.05
518.884	0.05
519.232	0.05
519.58	0.05
519.928	0.05
520.275	0.05
520.623	0.05
520.971	0.05
521.319	0.05
521.666	0.06
522.014	0.06
522.362	0.05
522.709	0.05
523.057	0.05
523.404	0.05
523.752	0.05
524.099	0.06
524.446	0.06
524.794	0.05
525.141	0.05
525.488	0.06
525.835	0.05
526.182	0.05
526.529	0.06
526.876	0.05
527.223	0.06
527.57	0.06
527.917	0.06
528.264	0.06
528.611	0.06
528.958	0.06
529.304	0.06
529.651	0.06
529.998	0.06
530.344	0.05
530.691	0.05
531.037	0.06
531.384	0.06
531.73	0.06
532.076	0.06
532.423	0.06
532.769	0.06
533.115	0.06
533.461	0.06
533.807	0.06
534.154	0.06
534.5	0.06
534.846	0.06
535.192	0.06
535.537	0.06
535.883	0.06
536.229	0.06
536.575	0.06
536.921	0.07
537.266	0.06
537.612	0.06
537.957	0.06
538.303	0.06
538.649	0.07
538.994	0.06
539.339	0.06
539.685	0.07
540.03	0.07
540.375	0.07
540.721	0.07
541.066	0.07
541.411	0.07
541.756	0.07
542.101	0.07
542.446	0.07
542.791	0.07
543.136	0.07
543.481	0.07
543.825	0.07
544.17	0.07
544.515	0.07
544.86	0.08
545.204	0.07
545.549	0.07
545.893	0.07
546.238	0.07
546.582	0.07
546.927	0.07
547.271	0.08
547.615	0.07
547.96	0.08
548.304	0.08
548.648	0.08
548.992	0.08
549.336	0.07
549.68	0.08
550.024	0.07
550.368	0.08
550.712	0.07
551.056	0.07
551.4	0.07
551.743	0.08
552.087	0.08
552.431	0.08
552.774	0.08
553.118	0.08
553.462	0.08
553.805	0.08
554.148	0.08
554.492	0.08
554.835	0.08
555.178	0.08
555.522	0.08
555.865	0.08
556.208	0.08
556.551	0.08
556.894	0.08
557.237	0.08
557.58	0.08
557.923	0.08
558.266	0.08
558.609	0.08
558.952	0.08
559.294	0.09
559.637	0.08
559.98	0.08
560.322	0.08
560.665	0.08
561.007	0.09
561.35	0.08
561.692	0.09
562.034	0.09
562.377	0.09
562.719	0.08
563.061	0.08
563.403	0.08
563.745	0.08
564.088	0.08
564.43	0.08
564.772	0.08
565.113	0.08
565.455	0.08
565.797	0.08
566.139	0.08
566.481	0.08
566.822	0.08
567.164	0.08
567.506	0.08
567.847	0.08
568.189	0.08
568.53	0.08
568.872	0.08
569.213	0.09
569.554	0.08
569.895	0.08
570.237	0.08
570.578	0.08
570.919	0.08
571.26	0.08
571.601	0.08
571.942	0.08
572.283	0.08
572.624	0.08
572.965	0.08
573.306	0.08
573.646	0.08
573.987	0.08
574.328	0.08
574.668	0.08
575.009	0.08
575.349	0.08
575.69	0.08
576.03	0.08
576.37	0.08
576.711	0.08
577.051	0.08
577.391	0.08
577.731	0.08
578.072	0.08
578.412	0.08
578.752	0.08
579.092	0.08
579.431	0.08
579.771	0.08
580.111	0.07
580.451	0.07
580.791	0.07
581.13	0.07
581.47	0.08
581.81	0.08
582.149	0.08
582.489	0.08
582.828	0.08
583.167	0.08
583.507	0.08
583.846	0.07
584.185	0.07
584.525	0.07
584.864	0.07
585.203	0.08
585.542	0.08
585.881	0.08
586.22	0.08
586.559	0.08
586.898	0.08
587.236	0.08
587.575	0.08
587.914	0.08
588.252	0.08
588.591	0.08
588.93	0.08
589.268	0.08
589.607	0.08
589.945	0.08
590.283	0.08
590.622	0.08
590.96	0.08
591.298	0.08
591.636	0.09
591.974	0.09
592.313	0.09
592.651	0.09
592.989	0.09
593.326	0.09
593.664	0.09
594.002	0.09
594.34	0.09
594.678	0.09
595.015	0.09
595.353	0.09
595.691	0.09
596.028	0.09
596.366	0.09
596.703	0.09
597.04	0.09
597.378	0.09
597.715	0.09
598.052	0.09
598.389	0.09
598.726	0.09
599.064	0.09
599.401	0.1
599.738	0.09
600.074	0.09
600.411	0.09
600.748	0.09
601.085	0.09
601.422	0.09
601.758	0.09
602.095	0.09
602.432	0.09
602.768	0.09
603.105	0.09
603.441	0.09
603.777	0.09
604.114	0.09
604.45	0.09
604.786	0.09
605.122	0.1
605.459	0.09
605.795	0.09
606.131	0.09
606.467	0.09
606.803	0.1
607.139	0.09
607.474	0.09
607.81	0.09
608.146	0.09
608.482	0.09
608.817	0.09
609.153	0.09
609.488	0.09
609.824	0.09
610.159	0.09
610.495	0.09
610.83	0.09
611.165	0.09
611.5	0.09
611.836	0.1
612.171	0.09
612.506	0.09
612.841	0.09
613.176	0.1
613.511	0.09
613.845	0.09
614.18	0.09
614.515	0.09
614.85	0.09
615.184	0.09
615.519	0.09
615.854	0.09
616.188	0.09
616.523	0.09
616.857	0.09
617.191	0.09
617.526	0.09
617.86	0.09
618.194	0.09
618.528	0.09
618.862	0.09
619.196	0.09
619.53	0.09
619.864	0.09
620.198	0.09
620.532	0.09
620.866	0.09
621.2	0.09
621.533	0.09
621.867	0.1
622.201	0.09
622.534	0.09
622.868	0.09
623.201	0.09
623.534	0.1
623.868	0.1
624.201	0.09
624.534	0.09
624.868	0.09
625.201	0.09
625.534	0.09
625.867	0.09
626.2	0.09
626.533	0.09
626.865	0.08
627.198	0.08
627.531	0.09
627.864	0.08
628.196	0.09
628.529	0.09
628.862	0.08
629.194	0.09
629.527	0.09
629.859	0.09
630.191	0.09
630.524	0.09
630.856	0.09
631.188	0.09
631.52	0.09
631.852	0.09
632.184	0.09
632.516	0.09
632.848	0.09
633.18	0.09
633.512	0.08
633.844	0.09
634.175	0.09
634.507	0.09
634.839	0.09
635.17	0.09
635.502	0.09
635.833	0.09
636.165	0.08
636.496	0.09
636.827	0.09
637.159	0.09
637.49	0.09
637.821	0.09
638.152	0.09
638.483	0.08
638.814	0.09
639.145	0.09
639.476	0.08
639.807	0.08
640.137	0.08
640.468	0.08
640.799	0.08
641.129	0.08
641.46	0.08
641.791	0.08
642.121	0.08
642.451	0.08
642.782	0.08
643.112	0.08
643.442	0.08
643.773	0.08
644.103	0.08
644.433	0.08
644.763	0.08
645.093	0.08
645.423	0.08
645.753	0.08
646.082	0.08
646.412	0.08
646.742	0.08
647.072	0.08
647.401	0.08
647.731	0.08
648.06	0.08
648.39	0.08
648.719	0.08
649.048	0.08
649.378	0.08
649.707	0.08
650.036	0.08
650.365	0.08
650.694	0.07
651.023	0.07
651.352	0.08
651.681	0.07
652.01	0.08
652.339	0.08
652.668	0.08
652.996	0.08
653.325	0.08
653.654	0.08
653.982	0.08
654.311	0.08
654.639	0.08
654.967	0.08
655.296	0.08
655.624	0.08
655.952	0.08
656.28	0.08
656.609	0.08
656.937	0.08
657.265	0.08
657.593	0.08
657.92	0
658.248	0
658.576	0
658.904	0.05
659.231	0.05
659.559	0.06
659.887	0.07
660.214	0.07
660.542	0.07
660.869	0.07
661.196	0.08
661.524	0.08
661.851	0.08
662.178	0.08
662.505	0.08
662.832	0.08
663.159	0.08
663.486	0.08
663.813	0.08
664.14	0.08
664.467	0.08
664.794	0.08
665.12	0.08
665.447	0.08
665.774	0.08
666.1	0.08
666.427	0.08
666.753	0.08
667.079	0.08
667.406	0.08
667.732	0.07
668.058	0.07
668.384	0.08
668.71	0.08
669.036	0.08
669.362	0.08
669.688	0.08
670.014	0.08
670.34	0.08
670.666	0.08
670.991	0.08
671.317	0.08
671.643	0.08
671.968	0.08
672.294	0.07
672.619	0.08
672.945	0.08
673.27	0.08
673.595	0.08
673.92	0.08
674.246	0.08
674.571	0.08
674.896	0.08
675.221	0.08
675.546	0.08
675.87	0.08
676.195	0.08
676.52	0.08
676.845	0.08
677.169	0.07
677.494	0.07
677.819	0.07
678.143	0.08
678.468	0.07
678.792	0.07
679.116	0.08
679.44	0.08
679.765	0.07
680.089	0.08
680.413	0.08
680.737	0.08
681.061	0.08
681.385	0.07
681.709	0.07
682.033	0.07
682.356	0.07
682.68	0.07
683.004	0.07
683.327	0.07
683.651	0.07
683.974	0.07
684.298	0.07
684.621	0.07
684.944	0.07
685.268	0.07
685.591	0.07
685.914	0.07
686.237	0.07
686.56	0.07
686.883	0.07
687.206	0.06
687.529	0.06
687.852	0.07
688.175	0.07
688.497	0.07
688.82	0.07
689.142	0.07
689.465	0.07
689.787	0.07
690.11	0.07
690.432	0.07
690.755	0.07
691.077	0.07
691.399	0.07
691.721	0.07
692.043	0.07
692.365	0.07
692.687	0.07
693.009	0.06
693.331	0.06
693.653	0.06
693.974	0.06
694.296	0.06
694.618	0.07
694.939	0.07
695.261	0.07
695.582	0.07
695.904	0.07
696.225	0.07
696.546	0.07
696.868	0.07
697.189	0.08
697.51	0.07
697.831	0.07
698.152	0.06
698.473	0.07
698.794	0.07
699.114	0.06
699.435	0.06
699.756	0.06
700.077	0.06
700.397	0.07
700.718	0.07
701.038	0.07
701.359	0.07
701.679	0.07
701.999	0.06
702.32	0.07
702.64	0.06
702.96	0.06
703.28	0.07
703.6	0.06
703.92	0.06
704.24	0.06
704.56	0.06
704.879	0.07
705.199	0.07
705.519	0.06
705.838	0.06
706.158	0.06
706.478	0.06
706.797	0.07
707.116	0.07
707.436	0.07
707.755	0.07
708.074	0.07
708.393	0.07
708.712	0.07
709.031	0.07
709.35	0.06
709.669	0.06
709.988	0.06
710.307	0.06
710.626	0.06
710.944	0.06
711.263	0.06
711.582	0.06
711.9	0.06
712.219	0.06
712.537	0.06
712.855	0.06
713.174	0.06
713.492	0.07
713.81	0.07
714.128	0.07
714.446	0.07
714.764	0.07
715.082	0.07
715.4	0.07
715.718	0.07
716.035	0.07
716.353	0.07
716.671	0.06
716.988	0.06
717.306	0.07
717.623	0.07
717.941	0.07
718.258	0.07
718.575	0.07
718.893	0.07
719.21	0.07
719.527	0.07
719.844	0.07
720.161	0.07
720.478	0.06
720.795	0.06
721.112	0.06
721.428	0.06
721.745	0.06
722.062	0.07
722.378	0.07
722.695	0.07
723.011	0.07
723.328	0.07
723.644	0.06
723.96	0.06
724.276	0.06
724.593	0.06
724.909	0.06
725.225	0.06
725.541	0.06
725.857	0.06
726.173	0.06
726.488	0.06
726.804	0.07
727.12	0.07
727.435	0.06
727.751	0.07
728.067	0.07
728.382	0.07
728.697	0.07
729.013	0.07
729.328	0.07
729.643	0.07
729.958	0.07
730.273	0.07
730.588	0.07
730.903	0.07
731.218	0.07
731.533	0.07
731.848	0.07
732.163	0.06
732.477	0.06
732.792	0.06
733.107	0.06
733.421	0.06
733.736	0.07
734.05	0.07
734.364	0.07
734.678	0.07
734.993	0.07
735.307	0.07
735.621	0.07
735.935	0.07
736.249	0.07
736.563	0.07
736.877	0.07
737.19	0.07
737.504	0.07
737.818	0.07
738.131	0.07
738.445	0.07
738.758	0.07
739.072	0.07
739.385	0.07
739.698	0.07
740.012	0.07
740.325	0.07
740.638	0.08
740.951	0.07
741.264	0.07
741.577	0.07
741.89	0.07
742.203	0.07
742.515	0.06
742.828	0.06
743.141	0.06
743.453	0.06
743.766	0.07
744.078	0.07
744.391	0.06
744.703	0.06
745.015	0.07
745.327	0.07
745.639	0.07
745.952	0.07
746.264	0.07
746.575	0.08
746.887	0.07
747.199	0.07
747.511	0.07
747.823	0.07
748.134	0.07
748.446	0.07
748.757	0.07
749.069	0.07
749.38	0.07
749.692	0.07
750.003	0.08
750.314	0.08
750.625	0.07
750.936	0.07
751.248	0.07
751.559	0.07
751.869	0.07
752.18	0.07
752.491	0.07
752.802	0.07
753.112	0.06
753.423	0.07
753.734	0.07
754.044	0.07
754.355	0.07
754.665	0.06
754.975	0.06
755.285	0.06
755.596	0.06
755.906	0.07
756.216	0.07
756.526	0.07
756.836	0.07
757.146	0.07
757.455	0.07
757.765	0.07
758.075	0.07
758.385	0.07
758.694	0.07
759.004	0.07
759.313	0.07
759.622	0.07
759.932	0.07
760.241	0.07
760.55	0.07
760.859	0.07
761.168	0.06
761.477	0.07
761.786	0.06
762.095	0.06
762.404	0.06
762.713	0.06
763.021	0.06
763.33	0.06
763.639	0.06
763.947	0.06
764.256	0.06
764.564	0.06
764.872	0.06
765.181	0.06
765.489	0.05
765.797	0.05
766.105	0.05
766.413	0.05
766.721	0.06
767.029	0.06
767.337	0.06
767.644	0.06
767.952	0.06
768.26	0.06
768.567	0.06
768.875	0.06
769.182	0.06
769.49	0.06
769.797	0.06
770.104	0.06
770.411	0.06
770.718	0.06
771.026	0.06
771.333	0.06
771.639	0.07
771.946	0.07
772.253	0.07
772.56	0.07
772.867	0.07
773.173	0.06
773.48	0.07
773.786	0.07
774.093	0.06
774.399	0.06
774.705	0.06
775.012	0.07
775.318	0.06
775.624	0.06
775.93	0.06
776.236	0.06
776.542	0.06
776.848	0.06
777.154	0.06
777.459	0.06
777.765	0.07
778.071	0.06
778.376	0.07
778.682	0.06
778.987	0.06
779.292	0.06
779.598	0.06
779.903	0.06
780.208	0.06
780.513	0.06
780.818	0.06
781.123	0.06
781.428	0.06
781.733	0.06
782.038	0.05
782.343	0.06
782.647	0.06
782.952	0.06
783.256	0.06
783.561	0.07
783.865	0.07
784.17	0.07
784.474	0.07
784.778	0.07
785.082	0.06
785.386	0.07
785.69	0.06
785.994	0.05
786.298	0.06
786.602	0.05
786.906	0.05
787.209	0.05
787.513	0.05
787.817	0.06
788.12	0.05
788.424	0.05
788.727	0.06
789.03	0.05
789.333	0.05
789.637	0.04
789.94	0.05
790.243	0.05
790.546	0.04
790.849	0.04
791.152	0.04
791.454	0.05
791.757	0.05
792.06	0.05
792.362	0.05
792.665	0.05
792.967	0.05
793.27	0.06
793.572	0.06
793.874	0.06
794.177	0.06
794.479	0.06
794.781	0.06
795.083	0.05
795.385	0.05
795.687	0.05
795.989	0.04
796.29	0.05
796.592	0.04
796.894	0.04
797.195	0.04
797.497	0.04
797.798	0.05
798.1	0.05
798.401	0.05
798.702	0.05
799.003	0.05
799.304	0.05
799.605	0.05
799.906	0.05
800.207	0.05
800.508	0.04
800.809	0.04
801.11	0.05
801.41	0.05
801.711	0.04
802.011	0.05
802.312	0.04
802.612	0.04
802.913	0.05
803.213	0.05
803.513	0.05
803.813	0.04
804.113	0.05
804.413	0.04
804.713	0.05
805.013	0.04
805.313	0.05
805.613	0.04
805.912	0.04
806.212	0.04
806.511	0.05
806.811	0.04
807.11	0.04
807.41	0.04
807.709	0.04
808.008	0.04
808.307	0.04
808.606	0.04
808.905	0.04
809.204	0.04
809.503	0.04
809.802	0.04
810.101	0.05
810.399	0.04
810.698	0.04
810.997	0.05
811.295	0.05
811.593	0.04
811.892	0.05
812.19	0.04
812.488	0.04
812.786	0.05
813.084	0.05
813.383	0.05
813.68	0.05
813.978	0.05
814.276	0.05
814.574	0.05
814.872	0.05
815.169	0.04
815.467	0.04
815.764	0.04
816.062	0.04
816.359	0.04
816.656	0.03
816.954	0.03
817.251	0.03
817.548	0.04
817.845	0.04
818.142	0.03
818.439	0.04
818.735	0.04
819.032	0.04
819.329	0.04
819.626	0.03
819.922	0.04
820.219	0.04
820.515	0.04
820.811	0.03
821.108	0.03
821.404	0.03
821.7	0.02
821.996	0.03
822.292	0.03
822.588	0.03
822.884	0.03
823.18	0.04
823.475	0.04
823.771	0.03
824.067	0.03
824.362	0.04
824.658	0.04
824.953	0.04
825.249	0.04
825.544	0.04
825.839	0.04
826.134	0.03
826.429	0.04
826.724	0.04
827.019	0.04
827.314	0.05
827.609	0.04
827.904	0.04
828.198	0.03
828.493	0.02
828.787	0.03
829.082	0.03
829.376	0.03
829.671	0.02
829.965	0.03
830.259	0.03
830.553	0.02
830.847	0.02
831.141	0.02
831.435	0.02
831.729	0.01
832.023	0.02
832.317	0.01
832.61	0.01
832.904	0.01
833.197	0.01
833.491	0.02
833.784	0.02
834.077	0.01
834.371	0.02
834.664	0.02
834.957	0.02
835.25	0.02
835.543	0.02
835.836	0.02
836.129	0.02
836.421	0.02
836.714	0.03
837.007	0.02
837.299	0.03
837.592	0.02
837.884	0.03
838.177	0.02
838.469	0.03
838.761	0.01
839.053	0.01
839.345	0.02
839.637	0.01
839.929	-0.01
840.221	0.01
840.513	-0
840.805	0.01
841.096	0.01
841.388	-0.01
841.68	0
841.971	0.02
842.262	0
842.554	0
842.845	0.01
843.136	0.01
843.427	0.01
843.718	0.02
844.009	0
844.3	0.01
844.591	0
844.882	0.01
845.173	-0.01
845.463	-0
845.754	0.01
846.044	0.01
846.335	-0.01
846.625	0
846.915	-0
847.206	0.01
847.496	-0
847.786	0.01
848.076	-0
848.366	0
848.656	0
848.945	-0
849.235	0.02
849.525	0.01
849.814	-0.01
850.104	-0.01
850.393	-0
850.683	0.01
850.972	0.02
851.261	-0
851.551	0.01
851.84	0
852.129	0.01
852.418	0.02
852.707	0.01
852.995	-0
853.284	-0
853.573	0.01
853.862	-0.01
854.15	0.01
854.439	-0.01
854.727	-0.01
855.015	0.02
855.304	-0
855.592	0
855.88	-0.02
856.168	-0
856.456	0.01
856.744	-0
857.032	-0.02
857.32	-0
857.607	0.01
857.895	0
858.183	-0.01
858.47	0.01
858.757	-0
859.045	0.01
859.332	0
859.619	-0.01
859.907	-0.03
860.194	0.01
860.481	-0.02
860.768	0
861.054	-0.02
861.341	-0
861.628	-0.05
861.915	-0.03
862.201	-0
862.488	-0.08
862.774	-0
863.061	-0.02
863.347	-0.02
863.633	-0.03
863.919	-0.03
864.205	-0.04
864.491	-0.04
864.777	-0.03
865.063	-0.02
865.349	0.02
865.635	0.01
865.92	0.01
866.206	-0.04
866.492	-0.01
866.777	-0.07
867.062	-0.02
867.348	-0.01
867.633	-0.05
867.918	-0.05
868.203	-0.02
868.488	-0.01
868.773	-0.01
869.058	0.04
869.343	-0.05
869.628	0.01
869.912	-0
870.197	-0.07
870.482	-0.05
870.766	-0.06
871.05	-0.02
871.335	0.01
871.619	0.04
871.903	-0.07
872.187	-0.06
872.471	-0.02
872.755	-0.08
873.039	-0.02
873.323	0.01
873.607	-0.01
873.89	-0.06
874.174	-0
874.458	-0.05
874.741	0.08
875.024	0.04
875.308	-0.02
875.591	-0.01
875.874	-0.11
876.157	0.04
876.44	-0
876.723	-0.11
877.006	-0.06
877.289	0.02
877.572	-0.2
877.854	0.01
878.137	0.11
878.42	-0.08
878.702	0.16
878.984	0.03
879.267	0.11
879.549	-0.2
879.831	0.02
880.113	0.02
880.395	0.1
880.677	0.14
880.959	0.09
