Data from Rubpy_EV_1500_EDTA_Absorbance_13-06-45-862.txt Node
Date: Mon Jun 29 13:06:45 BST 2026
User: fpm-admin
Spectrometer: OFX00224
Trigger mode: 0
Integration Time (sec): 7.000000E-2
Scans to average: 3
Nonlinearity correction enabled: false
Boxcar width: 0
Storing dark spectrum: false
XAxis mode: Wavelengths
Number of Pixels in Spectrum: 2136
>>>>>Begin Spectral Data<<<<<
154.91	-0.27
155.289	0.39
155.669	-0
156.048	0.13
156.428	-0
156.807	-0.53
157.186	0.15
157.566	-0
157.945	-0
158.325	-0.7
158.704	0.12
159.083	0.31
159.462	-0.85
159.842	0.35
160.221	-0.2
160.6	-0.41
160.979	0.41
161.359	0.14
161.738	-0.36
162.117	0.7
162.496	-0.66
162.875	-0
163.254	-0.8
163.633	-0
164.012	-0
164.391	-0.03
164.77	-0.78
165.149	-0
165.528	-0
165.907	-0
166.286	0.15
166.665	0.81
167.044	-0
167.423	0.11
167.802	0.06
168.181	0.07
168.559	1.06
168.938	-0.35
169.317	-0
169.696	-0
170.074	-0
170.453	-0.07
170.832	-0
171.21	-0
171.589	-0.12
171.968	-0
172.346	-0.07
172.725	-0.15
173.103	-0
173.482	0.74
173.861	0.11
174.239	-0
174.617	-0.3
174.996	-0.21
175.374	-1.36
175.753	-0
176.131	0.2
176.51	-0
176.888	-0
177.266	0.25
177.645	0.02
178.023	0.38
178.401	0.03
178.779	0.07
179.158	-0
179.536	0.02
179.914	-0.03
180.292	-0.18
180.67	-0
181.048	0.04
181.427	-0
181.805	0.22
182.183	0.37
182.561	-0.2
182.939	0.26
183.317	-0.08
183.695	-0
184.073	-0.06
184.451	-0
184.829	-0
185.206	0.19
185.584	-0
185.962	-0
186.34	0.29
186.718	-0.26
187.096	0.19
187.473	0.63
187.851	-0
188.229	-0.44
188.607	0.01
188.984	0.11
189.362	0.05
189.74	-0.11
190.117	0.11
190.495	-0.04
190.872	-0.06
191.25	-0.02
191.627	-0.01
192.005	-0.02
192.382	-0.19
192.76	0.21
193.137	0.13
193.515	0.03
193.892	0.02
194.269	-0.04
194.647	0.02
195.024	0.02
195.401	0.04
195.779	0.03
196.156	0.02
196.533	-0.16
196.91	0.08
197.288	0
197.665	-0.12
198.042	0.11
198.419	-0.04
198.796	-0.1
199.173	-0.03
199.55	0.09
199.927	0.15
200.304	0.1
200.681	-0.01
201.058	0.12
201.435	0.01
201.812	-0.01
202.189	0.01
202.566	0.17
202.943	0.14
203.32	-0.07
203.697	-0.1
204.073	-0.03
204.45	0.09
204.827	0.09
205.204	0.03
205.58	-0.01
205.957	0.07
206.334	-0
206.71	-0.08
207.087	0.19
207.464	0.04
207.84	0.05
208.217	0.05
208.593	0.16
208.97	0.12
209.346	0.25
209.723	0.13
210.099	0.03
210.476	0.07
210.852	0.05
211.228	-0.01
211.605	0.14
211.981	-0.03
212.357	-0.03
212.733	0.03
213.11	0
213.486	0.04
213.862	0.1
214.238	0.16
214.614	0.09
214.991	-0.02
215.367	0.05
215.743	0.08
216.119	0.11
216.495	0.02
216.871	0.1
217.247	0.11
217.623	0.16
217.999	-0.02
218.375	0.1
218.751	0.02
219.127	0.14
219.502	0.02
219.878	0.13
220.254	0.02
220.63	-0.12
221.006	0.1
221.381	0.08
221.757	0.14
222.133	-0.01
222.508	0.06
222.884	0.01
223.26	0.12
223.635	0.1
224.011	0.21
224.386	0.05
224.762	0.02
225.137	0.04
225.513	0.04
225.888	0.03
226.264	0.08
226.639	0.08
227.014	0.05
227.39	0.2
227.765	0.08
228.14	0.02
228.516	0.1
228.891	0.04
229.266	-0.01
229.641	0.06
230.017	0.03
230.392	0.17
230.767	0.07
231.142	-0.09
231.517	0.01
231.892	0.01
232.267	-0
232.642	0.02
233.017	0.02
233.392	0.07
233.767	-0.11
234.142	0.1
234.517	0.02
234.892	0.13
235.267	0.19
235.641	-0.03
236.016	-0
236.391	-0.09
236.766	0.1
237.14	0.09
237.515	0.07
237.89	0
238.264	-0.06
238.639	0.03
239.014	0.05
239.388	0.14
239.763	0.1
240.137	0.04
240.512	0.01
240.886	0.06
241.261	0.04
241.635	0.07
242.009	0.08
242.384	-0.01
242.758	0.18
243.132	-0.05
243.507	0.02
243.881	0.05
244.255	0.03
244.629	0.03
245.004	0.05
245.378	-0.03
245.752	0.12
246.126	-0.08
246.5	0.11
246.874	-0.04
247.248	0.06
247.622	0.14
247.996	0.15
248.37	-0.07
248.744	0.03
249.118	0.1
249.492	0.03
249.866	0.02
250.24	-0.01
250.613	0.1
250.987	-0
251.361	-0
251.735	0.08
252.108	0.07
252.482	0.05
252.856	0.16
253.229	0.05
253.603	-0.1
253.977	0.03
254.35	0.02
254.724	0.09
255.097	0.2
255.471	0
255.844	0.09
256.218	0.08
256.591	0.11
256.964	0.01
257.338	-0.01
257.711	0.05
258.084	-0.03
258.458	0.08
258.831	0.05
259.204	0.03
259.577	0.11
259.95	0.06
260.323	0.04
260.697	0.1
261.07	-0.06
261.443	0.04
261.816	0.07
262.189	0.01
262.562	0.14
262.935	0.1
263.308	0.02
263.68	0.01
264.053	0
264.426	0.06
264.799	0.04
265.172	0.1
265.545	0.1
265.917	0.03
266.29	0.05
266.663	0.12
267.035	0.07
267.408	0.02
267.781	0.07
268.153	0.1
268.526	0.06
268.898	0.05
269.271	0.05
269.643	0.16
270.016	0
270.388	0.1
270.76	0.06
271.133	-0.01
271.505	0.16
271.877	-0.01
272.25	-0.01
272.622	0.06
272.994	0.04
273.366	0.02
273.739	0.04
274.111	0.06
274.483	0.01
274.855	0.04
275.227	0.06
275.599	0.11
275.971	0.08
276.343	0.04
276.715	0.07
277.087	0.1
277.459	0
277.831	0.04
278.203	0.01
278.574	0.09
278.946	0.11
279.318	0.1
279.69	-0.02
280.061	0.02
280.433	0.04
280.805	-0.01
281.176	0.05
281.548	0.01
281.92	-0
282.291	0.07
282.663	0.05
283.034	0.06
283.406	-0.01
283.777	0.08
284.148	0.03
284.52	0.08
284.891	0.03
285.262	0.06
285.634	0.07
286.005	0.05
286.376	0.04
286.747	0.03
287.119	0.05
287.49	0.03
287.861	-0.04
288.232	0.04
288.603	0.03
288.974	0.16
289.345	0.03
289.716	0.06
290.087	0.05
290.458	0.06
290.829	-0
291.2	0.04
291.571	0.01
291.941	0.09
292.312	0.06
292.683	0.06
293.054	0.07
293.424	0.07
293.795	-0.01
294.166	0.05
294.536	0.05
294.907	0.03
295.277	0.04
295.648	0.02
296.018	0
296.389	0.06
296.759	0.05
297.13	0.05
297.5	0.03
297.871	0.02
298.241	0.05
298.611	0.07
298.981	0.03
299.352	0
299.722	0.06
300.092	-0.01
300.462	0.03
300.832	0.03
301.202	0.02
301.573	0.02
301.943	0.02
302.313	0.02
302.683	0.01
303.053	0.03
303.422	0.02
303.792	0.03
304.162	0.01
304.532	0.03
304.902	0
305.272	0.02
305.641	0.02
306.011	0.01
306.381	0.01
306.75	0.01
307.12	0.02
307.49	0.02
307.859	0.02
308.229	0.01
308.598	0.01
308.968	0.01
309.337	0.02
309.707	0.02
310.076	0.01
310.445	0.02
310.815	0.01
311.184	0.02
311.553	0.02
311.923	0.02
312.292	0.02
312.661	0.01
313.03	0.01
313.399	0.02
313.768	0.02
314.137	0.02
314.506	0.01
314.875	0.01
315.244	0.02
315.613	0.02
315.982	0.02
316.351	0.02
316.72	0.01
317.089	0.02
317.458	0.02
317.826	0.02
318.195	0.02
318.564	0.02
318.933	0.02
319.301	0.02
319.67	0.01
320.038	0.01
320.407	0.02
320.775	0.01
321.144	0.02
321.512	0.01
321.881	0.02
322.249	0.01
322.618	0.02
322.986	0.01
323.354	0.01
323.723	0.02
324.091	0.02
324.459	0.02
324.827	0.01
325.195	0.01
325.564	0.02
325.932	0.02
326.3	0.01
326.668	0.02
327.036	0.01
327.404	0.01
327.772	0.02
328.14	0.02
328.508	0.01
328.875	0.02
329.243	0.02
329.611	0.02
329.979	0.02
330.346	0.01
330.714	0.01
331.082	0.01
331.449	0.01
331.817	0.01
332.185	0.01
332.552	0.02
332.92	0.02
333.287	0.02
333.655	0.02
334.022	0.02
334.389	0.02
334.757	0.01
335.124	0.01
335.491	0.01
335.859	0.01
336.226	0.02
336.593	0.01
336.96	0.02
337.327	0.02
337.695	0.02
338.062	0.02
338.429	0.02
338.796	0.02
339.163	0.01
339.53	0.01
339.897	0.02
340.263	0.02
340.63	0.01
340.997	0.02
341.364	0.01
341.731	0.02
342.097	0.02
342.464	0.02
342.831	0.02
343.197	0.02
343.564	0.02
343.931	0.02
344.297	0.02
344.664	0.02
345.03	0.02
345.396	0.02
345.763	0.02
346.129	0.02
346.496	0.02
346.862	0.02
347.228	0.02
347.594	0.02
347.961	0.02
348.327	0.02
348.693	0.02
349.059	0.02
349.425	0.02
349.791	0.02
350.157	0.02
350.523	0.02
350.889	0.02
351.255	0.02
351.621	0.02
351.987	0.02
352.353	0.02
352.719	0.02
353.084	0.02
353.45	0.02
353.816	0.02
354.181	0.02
354.547	0.02
354.913	0.02
355.278	0.02
355.644	0.02
356.009	0.02
356.375	0.03
356.74	0.02
357.106	0.03
357.471	0.03
357.836	0.03
358.202	0.03
358.567	0.02
358.932	0.03
359.297	0.03
359.663	0.02
360.028	0.03
360.393	0.03
360.758	0.03
361.123	0.02
361.488	0.02
361.853	0.03
362.218	0.03
362.583	0.02
362.948	0.03
363.312	0.03
363.677	0.03
364.042	0.02
364.407	0.03
364.772	0.03
365.136	0.02
365.501	0.02
365.865	0.03
366.23	0.03
366.595	0.03
366.959	0.03
367.324	0.03
367.688	0.03
368.052	0.03
368.417	0.03
368.781	0.03
369.145	0.03
369.51	0.03
369.874	0.03
370.238	0.03
370.602	0.03
370.967	0.03
371.331	0.03
371.695	0.03
372.059	0.03
372.423	0.03
372.787	0.03
373.151	0.03
373.515	0.03
373.878	0.03
374.242	0.03
374.606	0.03
374.97	0.03
375.334	0.03
375.697	0.03
376.061	0.03
376.425	0.03
376.788	0.03
377.152	0.03
377.515	0.03
377.879	0.03
378.242	0.03
378.606	0.03
378.969	0.03
379.333	0.03
379.696	0.03
380.059	0.03
380.422	0.03
380.786	0.03
381.149	0.03
381.512	0.04
381.875	0.03
382.238	0.04
382.601	0.03
382.964	0.03
383.327	0.04
383.69	0.04
384.053	0.04
384.416	0.03
384.779	0.04
385.142	0.04
385.504	0.04
385.867	0.04
386.23	0.04
386.593	0.04
386.955	0.04
387.318	0.04
387.68	0.04
388.043	0.04
388.405	0.04
388.768	0.04
389.13	0.04
389.493	0.04
389.855	0.04
390.217	0.04
390.58	0.04
390.942	0.04
391.304	0.04
391.666	0.04
392.028	0.04
392.391	0.04
392.753	0.04
393.115	0.04
393.477	0.04
393.839	0.04
394.201	0.05
394.563	0.05
394.924	0.05
395.286	0.05
395.648	0.05
396.01	0.05
396.371	0.06
396.733	0.05
397.095	0.05
397.456	0.05
397.818	0.05
398.18	0.05
398.541	0.06
398.903	0.05
399.264	0.05
399.625	0.05
399.987	0.05
400.348	0.04
400.709	0.05
401.071	0.04
401.432	0.04
401.793	0.04
402.154	0.04
402.515	0.04
402.876	0.04
403.238	0.04
403.599	0.04
403.96	0.03
404.32	0.03
404.681	0.03
405.042	0.03
405.403	0.03
405.764	0.03
406.125	0.03
406.485	0.03
406.846	0.03
407.207	0.03
407.567	0.03
407.928	0.02
408.288	0.02
408.649	0.02
409.009	0.03
409.37	0.02
409.73	0.02
410.091	0.02
410.451	0.03
410.811	0.03
411.171	0.02
411.532	0.02
411.892	0.02
412.252	0.02
412.612	0.03
412.972	0.02
413.332	0.03
413.692	0.02
414.052	0.03
414.412	0.02
414.772	0.02
415.132	0.02
415.492	0.02
415.851	0.02
416.211	0.03
416.571	0.02
416.931	0.02
417.29	0.03
417.65	0.02
418.009	0.02
418.369	0.01
418.728	0.02
419.088	0.01
419.447	0.02
419.807	0.02
420.166	0.02
420.525	0.02
420.884	0.02
421.244	0.02
421.603	0.02
421.962	0.02
422.321	0.01
422.68	0.02
423.039	0.02
423.398	0.02
423.757	0.02
424.116	0.02
424.475	0.01
424.834	0.03
425.193	0.02
425.551	0.02
425.91	0.02
426.269	0.03
426.628	0.02
426.986	0.02
427.345	0.02
427.703	0.03
428.062	0.02
428.42	0.02
428.779	0.02
429.137	0.03
429.496	0.03
429.854	0.02
430.212	0.02
430.57	0.02
430.929	0.03
431.287	0.02
431.645	0.03
432.003	0.03
432.361	0.03
432.719	0.02
433.077	0.03
433.435	0.02
433.793	0.02
434.151	0.02
434.509	0.03
434.866	0.02
435.224	0.02
435.582	0.03
435.94	0.03
436.297	0.02
436.655	0.02
437.012	0.02
437.37	0.02
437.727	0.02
438.085	0.02
438.442	0.02
438.8	0.03
439.157	0.02
439.514	0.02
439.872	0.03
440.229	0.02
440.586	0.03
440.943	0.02
441.3	0.02
441.657	0.02
442.014	0.01
442.371	0.03
442.728	0.01
443.085	0.02
443.442	0.01
443.799	0.02
444.156	0.03
444.513	0.02
444.869	0.03
445.226	0.02
445.583	0.03
445.939	0.02
446.296	0.02
446.652	0.02
447.009	0.02
447.365	0.02
447.722	0.03
448.078	0.02
448.434	0.02
448.791	0.02
449.147	0.03
449.503	0.02
449.859	0.02
450.215	0.02
450.571	0.02
450.928	0.02
451.284	0.02
451.64	0.02
451.995	0.02
452.351	0.02
452.707	0.02
453.063	0.01
453.419	0.02
453.775	0.01
454.13	0.01
454.486	0.02
454.842	0.01
455.197	0
455.553	0.02
455.908	0.02
456.264	0.01
456.619	0
456.975	0.01
457.33	0.01
457.685	0.01
458.04	0.01
458.396	0.02
458.751	0.01
459.106	0.01
459.461	0.01
459.816	0.01
460.171	0.01
460.526	0
460.881	0
461.236	-0
461.591	0
461.946	0.01
462.301	-0
462.655	-0
463.01	0
463.365	-0
463.719	-0
464.074	-0.01
464.428	-0
464.783	-0
465.137	-0.01
465.492	-0.01
465.846	-0
466.201	-0.01
466.555	-0.01
466.909	-0.01
467.263	-0
467.618	-0.01
467.972	0
468.326	-0.01
468.68	-0.01
469.034	-0.01
469.388	-0.01
469.742	-0.01
470.096	-0.01
470.45	-0.01
470.804	-0.01
471.157	-0.01
471.511	-0.01
471.865	-0.02
472.218	-0.01
472.572	-0.01
472.926	-0.01
473.279	-0.01
473.633	-0.01
473.986	-0.01
474.34	-0
474.693	-0.01
475.046	-0
475.4	0
475.753	-0
476.106	-0
476.459	-0
476.812	-0
477.165	-0
477.519	0.01
477.872	0.01
478.224	0.01
478.577	0.01
478.93	0.01
479.283	0.01
479.636	0.02
479.989	0.01
480.341	0.02
480.694	0.01
481.047	0.02
481.399	0.01
481.752	0.02
482.104	0.02
482.457	0.02
482.809	0.02
483.162	0.02
483.514	0.02
483.866	0.02
484.219	0.01
484.571	0.02
484.923	0.02
485.275	0.02
485.627	0.02
485.979	0.02
486.331	0.03
486.683	0.02
487.035	0.02
487.387	0.02
487.739	0.03
488.091	0.02
488.443	0.02
488.794	0.02
489.146	0.02
489.498	0.02
489.849	0.02
490.201	0.03
490.552	0.02
490.904	0.02
491.255	0.02
491.607	0.03
491.958	0.03
492.309	0.02
492.661	0.03
493.012	0.03
493.363	0.02
493.714	0.02
494.065	0.03
494.416	0.03
494.767	0.03
495.118	0.02
495.469	0.03
495.82	0.02
496.171	0.02
496.522	0.02
496.872	0.03
497.223	0.03
497.574	0.03
497.924	0.03
498.275	0.03
498.626	0.02
498.976	0.02
499.327	0.02
499.677	0.03
500.027	0.03
500.378	0.03
500.728	0.03
501.078	0.03
501.428	0.03
501.779	0.03
502.129	0.03
502.479	0.03
502.829	0.03
503.179	0.04
503.529	0.03
503.879	0.03
504.229	0.03
504.578	0.03
504.928	0.03
505.278	0.03
505.628	0.03
505.977	0.03
506.327	0.03
506.676	0.03
507.026	0.03
507.375	0.03
507.725	0.03
508.074	0.03
508.424	0.03
508.773	0.03
509.122	0.03
509.471	0.03
509.82	0.03
510.17	0.03
510.519	0.04
510.868	0.03
511.217	0.03
511.566	0.03
511.915	0.03
512.263	0.03
512.612	0.04
512.961	0.03
513.31	0.03
513.659	0.04
514.007	0.03
514.356	0.03
514.704	0.04
515.053	0.04
515.401	0.04
515.75	0.04
516.098	0.03
516.447	0.04
516.795	0.04
517.143	0.04
517.491	0.03
517.839	0.04
518.188	0.04
518.536	0.04
518.884	0.04
519.232	0.03
519.58	0.04
519.928	0.04
520.275	0.04
520.623	0.04
520.971	0.04
521.319	0.04
521.666	0.04
522.014	0.04
522.362	0.04
522.709	0.04
523.057	0.04
523.404	0.04
523.752	0.04
524.099	0.04
524.446	0.04
524.794	0.04
525.141	0.04
525.488	0.04
525.835	0.04
526.182	0.04
526.529	0.04
526.876	0.04
527.223	0.04
527.57	0.04
527.917	0.04
528.264	0.04
528.611	0.04
528.958	0.04
529.304	0.04
529.651	0.04
529.998	0.04
530.344	0.04
530.691	0.04
531.037	0.04
531.384	0.04
531.73	0.04
532.076	0.05
532.423	0.04
532.769	0.04
533.115	0.04
533.461	0.04
533.807	0.04
534.154	0.04
534.5	0.04
534.846	0.04
535.192	0.04
535.537	0.04
535.883	0.04
536.229	0.05
536.575	0.04
536.921	0.04
537.266	0.04
537.612	0.04
537.957	0.04
538.303	0.04
538.649	0.04
538.994	0.04
539.339	0.04
539.685	0.05
540.03	0.05
540.375	0.04
540.721	0.05
541.066	0.04
541.411	0.05
541.756	0.04
542.101	0.05
542.446	0.04
542.791	0.04
543.136	0.04
543.481	0.04
543.825	0.05
544.17	0.04
544.515	0.04
544.86	0.05
545.204	0.05
545.549	0.05
545.893	0.05
546.238	0.05
546.582	0.04
546.927	0.04
547.271	0.05
547.615	0.04
547.96	0.05
548.304	0.05
548.648	0.05
548.992	0.05
549.336	0.05
549.68	0.05
550.024	0.05
550.368	0.05
550.712	0.05
551.056	0.05
551.4	0.05
551.743	0.05
552.087	0.05
552.431	0.05
552.774	0.05
553.118	0.05
553.462	0.05
553.805	0.05
554.148	0.05
554.492	0.05
554.835	0.05
555.178	0.05
555.522	0.04
555.865	0.05
556.208	0.05
556.551	0.04
556.894	0.05
557.237	0.05
557.58	0.05
557.923	0.05
558.266	0.05
558.609	0.05
558.952	0.05
559.294	0.05
559.637	0.05
559.98	0.05
560.322	0.05
560.665	0.05
561.007	0.05
561.35	0.05
561.692	0.05
562.034	0.05
562.377	0.05
562.719	0.05
563.061	0.05
563.403	0.05
563.745	0.05
564.088	0.05
564.43	0.05
564.772	0.05
565.113	0.05
565.455	0.05
565.797	0.05
566.139	0.05
566.481	0.05
566.822	0.05
567.164	0.05
567.506	0.05
567.847	0.05
568.189	0.05
568.53	0.05
568.872	0.05
569.213	0.05
569.554	0.05
569.895	0.05
570.237	0.05
570.578	0.05
570.919	0.04
571.26	0.05
571.601	0.05
571.942	0.05
572.283	0.05
572.624	0.04
572.965	0.04
573.306	0.04
573.646	0.04
573.987	0.05
574.328	0.04
574.668	0.04
575.009	0.05
575.349	0.04
575.69	0.04
576.03	0.05
576.37	0.05
576.711	0.04
577.051	0.04
577.391	0.04
577.731	0.04
578.072	0.04
578.412	0.04
578.752	0.04
579.092	0.04
579.431	0.04
579.771	0.04
580.111	0.04
580.451	0.04
580.791	0.04
581.13	0.04
581.47	0.04
581.81	0.04
582.149	0.04
582.489	0.04
582.828	0.04
583.167	0.04
583.507	0.04
583.846	0.04
584.185	0.04
584.525	0.04
584.864	0.04
585.203	0.04
585.542	0.04
585.881	0.04
586.22	0.04
586.559	0.05
586.898	0.04
587.236	0.04
587.575	0.04
587.914	0.04
588.252	0.04
588.591	0.04
588.93	0.04
589.268	0.04
589.607	0.04
589.945	0.04
590.283	0.04
590.622	0.04
590.96	0.04
591.298	0.04
591.636	0.04
591.974	0.04
592.313	0.05
592.651	0.05
592.989	0.05
593.326	0.05
593.664	0.05
594.002	0.05
594.34	0.05
594.678	0.05
595.015	0.05
595.353	0.05
595.691	0.05
596.028	0.04
596.366	0.04
596.703	0.04
597.04	0.05
597.378	0.04
597.715	0.05
598.052	0.05
598.389	0.05
598.726	0.05
599.064	0.05
599.401	0.05
599.738	0.05
600.074	0.05
600.411	0.04
600.748	0.05
601.085	0.05
601.422	0.04
601.758	0.04
602.095	0.04
602.432	0.05
602.768	0.04
603.105	0.04
603.441	0.05
603.777	0.04
604.114	0.05
604.45	0.05
604.786	0.05
605.122	0.05
605.459	0.05
605.795	0.05
606.131	0.04
606.467	0.05
606.803	0.05
607.139	0.05
607.474	0.05
607.81	0.05
608.146	0.04
608.482	0.05
608.817	0.05
609.153	0.05
609.488	0.05
609.824	0.05
610.159	0.04
610.495	0.05
610.83	0.05
611.165	0.05
611.5	0.05
611.836	0.05
612.171	0.05
612.506	0.05
612.841	0.05
613.176	0.05
613.511	0.05
613.845	0.05
614.18	0.05
614.515	0.05
614.85	0.05
615.184	0.05
615.519	0.05
615.854	0.05
616.188	0.05
616.523	0.05
616.857	0.05
617.191	0.05
617.526	0.05
617.86	0.05
618.194	0.05
618.528	0.05
618.862	0.05
619.196	0.05
619.53	0.05
619.864	0.05
620.198	0.05
620.532	0.05
620.866	0.05
621.2	0.05
621.533	0.05
621.867	0.05
622.201	0.05
622.534	0.05
622.868	0.05
623.201	0.06
623.534	0.05
623.868	0.05
624.201	0.05
624.534	0.05
624.868	0.05
625.201	0.05
625.534	0.05
625.867	0.05
626.2	0.05
626.533	0.05
626.865	0.04
627.198	0.04
627.531	0.05
627.864	0.04
628.196	0.05
628.529	0.05
628.862	0.05
629.194	0.05
629.527	0.05
629.859	0.05
630.191	0.05
630.524	0.05
630.856	0.05
631.188	0.06
631.52	0.06
631.852	0.06
632.184	0.05
632.516	0.05
632.848	0.05
633.18	0.06
633.512	0.05
633.844	0.05
634.175	0.05
634.507	0.06
634.839	0.06
635.17	0.06
635.502	0.05
635.833	0.06
636.165	0.05
636.496	0.06
636.827	0.05
637.159	0.05
637.49	0.05
637.821	0.05
638.152	0.06
638.483	0.05
638.814	0.06
639.145	0.06
639.476	0.05
639.807	0.05
640.137	0.05
640.468	0.05
640.799	0.05
641.129	0.05
641.46	0.05
641.791	0.05
642.121	0.05
642.451	0.05
642.782	0.05
643.112	0.05
643.442	0.05
643.773	0.05
644.103	0.06
644.433	0.06
644.763	0.06
645.093	0.06
645.423	0.06
645.753	0.06
646.082	0.06
646.412	0.06
646.742	0.06
647.072	0.06
647.401	0.06
647.731	0.06
648.06	0.06
648.39	0.05
648.719	0.06
649.048	0.06
649.378	0.06
649.707	0.06
650.036	0.05
650.365	0.06
650.694	0.05
651.023	0.05
651.352	0.05
651.681	0.05
652.01	0.05
652.339	0.05
652.668	0.05
652.996	0.06
653.325	0.06
653.654	0.05
653.982	0.05
654.311	0.05
654.639	0.05
654.967	0.05
655.296	0.05
655.624	0.06
655.952	0.05
656.28	0.06
656.609	0.05
656.937	0.06
657.265	0.06
657.593	0.05
657.92	0
658.248	-0
658.576	0
658.904	0.03
659.231	0.03
659.559	0.04
659.887	0.04
660.214	0.05
660.542	0.05
660.869	0.05
661.196	0.05
661.524	0.05
661.851	0.05
662.178	0.05
662.505	0.05
662.832	0.05
663.159	0.06
663.486	0.06
663.813	0.06
664.14	0.06
664.467	0.06
664.794	0.06
665.12	0.06
665.447	0.06
665.774	0.06
666.1	0.06
666.427	0.05
666.753	0.05
667.079	0.06
667.406	0.05
667.732	0.05
668.058	0.05
668.384	0.06
668.71	0.06
669.036	0.06
669.362	0.06
669.688	0.06
670.014	0.06
670.34	0.06
670.666	0.06
670.991	0.06
671.317	0.06
671.643	0.06
671.968	0.06
672.294	0.06
672.619	0.06
672.945	0.06
673.27	0.06
673.595	0.06
673.92	0.06
674.246	0.06
674.571	0.06
674.896	0.06
675.221	0.06
675.546	0.06
675.87	0.06
676.195	0.06
676.52	0.06
676.845	0.06
677.169	0.05
677.494	0.05
677.819	0.06
678.143	0.06
678.468	0.06
678.792	0.06
679.116	0.06
679.44	0.06
679.765	0.06
680.089	0.06
680.413	0.05
680.737	0.06
681.061	0.06
681.385	0.06
681.709	0.06
682.033	0.06
682.356	0.06
682.68	0.06
683.004	0.06
683.327	0.05
683.651	0.05
683.974	0.05
684.298	0.06
684.621	0.05
684.944	0.05
685.268	0.05
685.591	0.05
685.914	0.06
686.237	0.05
686.56	0.05
686.883	0.05
687.206	0.05
687.529	0.05
687.852	0.05
688.175	0.06
688.497	0.06
688.82	0.06
689.142	0.06
689.465	0.06
689.787	0.06
690.11	0.06
690.432	0.06
690.755	0.06
691.077	0.05
691.399	0.06
691.721	0.06
692.043	0.06
692.365	0.06
692.687	0.06
693.009	0.05
693.331	0.05
693.653	0.05
693.974	0.05
694.296	0.05
694.618	0.06
694.939	0.06
695.261	0.06
695.582	0.06
695.904	0.06
696.225	0.06
696.546	0.06
696.868	0.06
697.189	0.06
697.51	0.06
697.831	0.06
698.152	0.06
698.473	0.06
698.794	0.06
699.114	0.05
699.435	0.06
699.756	0.05
700.077	0.05
700.397	0.06
700.718	0.05
701.038	0.06
701.359	0.06
701.679	0.06
701.999	0.06
702.32	0.06
702.64	0.06
702.96	0.06
703.28	0.06
703.6	0.06
703.92	0.06
704.24	0.06
704.56	0.06
704.879	0.06
705.199	0.06
705.519	0.06
705.838	0.06
706.158	0.06
706.478	0.06
706.797	0.06
707.116	0.06
707.436	0.06
707.755	0.06
708.074	0.06
708.393	0.06
708.712	0.06
709.031	0.06
709.35	0.05
709.669	0.05
709.988	0.05
710.307	0.05
710.626	0.06
710.944	0.06
711.263	0.05
711.582	0.05
711.9	0.05
712.219	0.06
712.537	0.06
712.855	0.06
713.174	0.06
713.492	0.06
713.81	0.06
714.128	0.06
714.446	0.06
714.764	0.06
715.082	0.06
715.4	0.06
715.718	0.06
716.035	0.06
716.353	0.06
716.671	0.06
716.988	0.06
717.306	0.06
717.623	0.06
717.941	0.07
718.258	0.07
718.575	0.07
718.893	0.07
719.21	0.07
719.527	0.06
719.844	0.07
720.161	0.07
720.478	0.06
720.795	0.06
721.112	0.06
721.428	0.06
721.745	0.06
722.062	0.06
722.378	0.06
722.695	0.06
723.011	0.06
723.328	0.06
723.644	0.06
723.96	0.06
724.276	0.06
724.593	0.06
724.909	0.06
725.225	0.05
725.541	0.05
725.857	0.06
726.173	0.06
726.488	0.06
726.804	0.06
727.12	0.06
727.435	0.06
727.751	0.06
728.067	0.06
728.382	0.07
728.697	0.06
729.013	0.06
729.328	0.07
729.643	0.06
729.958	0.06
730.273	0.06
730.588	0.06
730.903	0.06
731.218	0.06
731.533	0.06
731.848	0.06
732.163	0.06
732.477	0.06
732.792	0.06
733.107	0.06
733.421	0.06
733.736	0.06
734.05	0.07
734.364	0.07
734.678	0.07
734.993	0.07
735.307	0.07
735.621	0.06
735.935	0.06
736.249	0.06
736.563	0.07
736.877	0.06
737.19	0.06
737.504	0.07
737.818	0.06
738.131	0.07
738.445	0.07
738.758	0.07
739.072	0.07
739.385	0.07
739.698	0.06
740.012	0.07
740.325	0.07
740.638	0.07
740.951	0.07
741.264	0.06
741.577	0.06
741.89	0.06
742.203	0.06
742.515	0.06
742.828	0.06
743.141	0.06
743.453	0.06
743.766	0.06
744.078	0.06
744.391	0.06
744.703	0.06
745.015	0.06
745.327	0.06
745.639	0.06
745.952	0.06
746.264	0.07
746.575	0.07
746.887	0.07
747.199	0.07
747.511	0.07
747.823	0.07
748.134	0.07
748.446	0.07
748.757	0.07
749.069	0.07
749.38	0.07
749.692	0.08
750.003	0.08
750.314	0.07
750.625	0.07
750.936	0.07
751.248	0.07
751.559	0.06
751.869	0.06
752.18	0.06
752.491	0.07
752.802	0.06
753.112	0.06
753.423	0.06
753.734	0.07
754.044	0.06
754.355	0.06
754.665	0.06
754.975	0.06
755.285	0.06
755.596	0.06
755.906	0.07
756.216	0.06
756.526	0.07
756.836	0.07
757.146	0.06
757.455	0.06
757.765	0.06
758.075	0.06
758.385	0.07
758.694	0.06
759.004	0.07
759.313	0.06
759.622	0.06
759.932	0.06
760.241	0.06
760.55	0.06
760.859	0.06
761.168	0.06
761.477	0.06
761.786	0.06
762.095	0.06
762.404	0.06
762.713	0.06
763.021	0.06
763.33	0.06
763.639	0.06
763.947	0.06
764.256	0.06
764.564	0.06
764.872	0.06
765.181	0.06
765.489	0.05
765.797	0.05
766.105	0.05
766.413	0.05
766.721	0.06
767.029	0.06
767.337	0.06
767.644	0.06
767.952	0.06
768.26	0.06
768.567	0.06
768.875	0.06
769.182	0.06
769.49	0.06
769.797	0.06
770.104	0.06
770.411	0.06
770.718	0.06
771.026	0.06
771.333	0.06
771.639	0.06
771.946	0.07
772.253	0.07
772.56	0.06
772.867	0.06
773.173	0.06
773.48	0.06
773.786	0.06
774.093	0.07
774.399	0.07
774.705	0.07
775.012	0.07
775.318	0.06
775.624	0.06
775.93	0.06
776.236	0.06
776.542	0.06
776.848	0.06
777.154	0.07
777.459	0.07
777.765	0.07
778.071	0.07
778.376	0.07
778.682	0.06
778.987	0.06
779.292	0.06
779.598	0.06
779.903	0.06
780.208	0.05
780.513	0.06
780.818	0.06
781.123	0.06
781.428	0.06
781.733	0.06
782.038	0.05
782.343	0.06
782.647	0.06
782.952	0.06
783.256	0.06
783.561	0.06
783.865	0.07
784.17	0.07
784.474	0.07
784.778	0.07
785.082	0.07
785.386	0.07
785.69	0.06
785.994	0.05
786.298	0.06
786.602	0.06
786.906	0.05
787.209	0.06
787.513	0.06
787.817	0.06
788.12	0.06
788.424	0.06
788.727	0.06
789.03	0.05
789.333	0.05
789.637	0.05
789.94	0.05
790.243	0.05
790.546	0.04
790.849	0.04
791.152	0.05
791.454	0.05
791.757	0.05
792.06	0.05
792.362	0.06
792.665	0.05
792.967	0.06
793.27	0.06
793.572	0.06
793.874	0.05
794.177	0.06
794.479	0.06
794.781	0.06
795.083	0.05
795.385	0.05
795.687	0.05
795.989	0.04
796.29	0.05
796.592	0.04
796.894	0.04
797.195	0.04
797.497	0.05
797.798	0.05
798.1	0.05
798.401	0.05
798.702	0.05
799.003	0.05
799.304	0.05
799.605	0.05
799.906	0.05
800.207	0.05
800.508	0.04
800.809	0.04
801.11	0.05
801.41	0.05
801.711	0.04
802.011	0.05
802.312	0.05
802.612	0.04
802.913	0.05
803.213	0.05
803.513	0.05
803.813	0.04
804.113	0.04
804.413	0.04
804.713	0.05
805.013	0.04
805.313	0.05
805.613	0.04
805.912	0.04
806.212	0.04
806.511	0.04
806.811	0.05
807.11	0.05
807.41	0.04
807.709	0.04
808.008	0.04
808.307	0.04
808.606	0.04
808.905	0.04
809.204	0.04
809.503	0.04
809.802	0.04
810.101	0.05
810.399	0.05
810.698	0.05
810.997	0.05
811.295	0.05
811.593	0.05
811.892	0.05
812.19	0.05
812.488	0.05
812.786	0.05
813.084	0.04
813.383	0.05
813.68	0.05
813.978	0.05
814.276	0.05
814.574	0.04
814.872	0.05
815.169	0.04
815.467	0.04
815.764	0.04
816.062	0.04
816.359	0.04
816.656	0.03
816.954	0.03
817.251	0.03
817.548	0.04
817.845	0.04
818.142	0.03
818.439	0.04
818.735	0.05
819.032	0.04
819.329	0.04
819.626	0.03
819.922	0.04
820.219	0.04
820.515	0.04
820.811	0.03
821.108	0.03
821.404	0.04
821.7	0.03
821.996	0.03
822.292	0.03
822.588	0.03
822.884	0.03
823.18	0.04
823.475	0.03
823.771	0.03
824.067	0.03
824.362	0.03
824.658	0.04
824.953	0.03
825.249	0.04
825.544	0.04
825.839	0.05
826.134	0.04
826.429	0.03
826.724	0.04
827.019	0.05
827.314	0.05
827.609	0.04
827.904	0.03
828.198	0.04
828.493	0.03
828.787	0.03
829.082	0.02
829.376	0.03
829.671	0.03
829.965	0.02
830.259	0.03
830.553	0.02
830.847	0.02
831.141	0.02
831.435	0.02
831.729	0.02
832.023	0.02
832.317	0.01
832.61	0.01
832.904	0.02
833.197	0.02
833.491	0.02
833.784	0.02
834.077	0.02
834.371	0.03
834.664	0.02
834.957	0.01
835.25	0.02
835.543	0.03
835.836	0.02
836.129	0.02
836.421	0.02
836.714	0.02
837.007	0.03
837.299	0.03
837.592	0.02
837.884	0.02
838.177	0.02
838.469	0.03
838.761	0.02
839.053	0.01
839.345	0.01
839.637	0.01
839.929	-0.01
840.221	0.01
840.513	0.01
840.805	0.02
841.096	0.01
841.388	0.01
841.68	0.01
841.971	0.01
842.262	-0
842.554	0.01
842.845	0.01
843.136	0
843.427	0
843.718	0.01
844.009	-0
844.3	0
844.591	-0
844.882	0.01
845.173	-0.01
845.463	0
845.754	-0.01
846.044	0.01
846.335	-0.01
846.625	0
846.915	-0.01
847.206	0.01
847.496	-0.01
847.786	-0
848.076	-0.01
848.366	0
848.656	0
848.945	-0.01
849.235	0.01
849.525	0.01
849.814	-0
850.104	-0
850.393	-0
850.683	0
850.972	0.01
851.261	-0.01
851.551	0.01
851.84	-0
852.129	0.01
852.418	0
852.707	0
852.995	-0.02
853.284	-0.01
853.573	-0
853.862	-0.01
854.15	-0
854.439	0
854.727	-0.02
855.015	0
855.304	-0.01
855.592	-0.01
855.88	-0.02
856.168	-0.02
856.456	-0
856.744	0.01
857.032	-0
857.32	-0.02
857.607	-0
857.895	0
858.183	-0.02
858.47	0.01
858.757	-0
859.045	0.02
859.332	0.01
859.619	-0.01
859.907	-0.02
860.194	0.03
860.481	-0.01
860.768	-0.01
861.054	-0
861.341	0.01
861.628	-0.03
861.915	-0.04
862.201	-0
862.488	-0.07
862.774	-0
863.061	0.01
863.347	-0.03
863.633	-0.06
863.919	-0.06
864.205	-0.02
864.491	-0.04
864.777	-0.05
865.063	-0.02
865.349	-0.01
865.635	-0.01
865.92	0.01
866.206	0.01
866.492	-0.01
866.777	-0.06
867.062	0.03
867.348	-0.07
867.633	-0.02
867.918	0.02
868.203	-0.08
868.488	-0.05
868.773	-0.03
869.058	-0.04
869.343	-0.1
869.628	-0.01
869.912	-0.05
870.197	-0.02
870.482	-0.03
870.766	-0.07
871.05	-0.02
871.335	-0.04
871.619	0.01
871.903	-0.03
872.187	0.02
872.471	-0.06
872.755	-0
873.039	0.01
873.323	-0.09
873.607	-0.06
873.89	-0.12
874.174	-0.02
874.458	0.03
874.741	0.07
875.024	0.09
875.308	0.07
875.591	-0.07
875.874	-0.13
876.157	0.06
876.44	-0
876.723	-0.08
877.006	-0.03
877.289	0
877.572	-0.28
877.854	-0.09
878.137	0.12
878.42	0.07
878.702	-0.03
878.984	0.02
879.267	0.03
879.549	-0.18
879.831	0.05
880.113	-0.05
880.395	0.02
880.677	0.11
880.959	0.05
