Data from Rubpy_EV_1500_EDTA_Absorbance_13-07-15-807.txt Node
Date: Mon Jun 29 13:07:15 BST 2026
User: fpm-admin
Spectrometer: OFX00224
Trigger mode: 0
Integration Time (sec): 7.000000E-2
Scans to average: 3
Nonlinearity correction enabled: false
Boxcar width: 0
Storing dark spectrum: false
XAxis mode: Wavelengths
Number of Pixels in Spectrum: 2136
>>>>>Begin Spectral Data<<<<<
154.91	-0.35
155.289	0.74
155.669	-0
156.048	0.35
156.428	0.62
156.807	-0.59
157.186	0.12
157.566	-0
157.945	-0
158.325	-1.1
158.704	0.03
159.083	0.42
159.462	-0.4
159.842	-0.04
160.221	0.18
160.6	-0.3
160.979	0.66
161.359	0.01
161.738	-0.5
162.117	0.1
162.496	-0.66
162.875	0.15
163.254	-1.15
163.633	-0
164.012	-0
164.391	0.22
164.77	-0
165.149	0.52
165.528	-1.38
165.907	0.06
166.286	-0
166.665	-0.12
167.044	-0
167.423	-0.22
167.802	-0.03
168.181	-0
168.559	-0.17
168.938	-0
169.317	-0.12
169.696	0.49
170.074	-0
170.453	1.43
170.832	-0
171.21	-0
171.589	-0.95
171.968	0.41
172.346	-0.14
172.725	-0.45
173.103	-1.08
173.482	0.56
173.861	0.28
174.239	-0.19
174.617	-0.07
174.996	-0.12
175.374	-0
175.753	-0
176.131	0.9
176.51	-0
176.888	-0.12
177.266	0.51
177.645	0.12
178.023	0.13
178.401	0.02
178.779	-0.22
179.158	-0
179.536	-0.21
179.914	-0
180.292	-0.6
180.67	-0
181.048	-0.33
181.427	-0
181.805	-0
182.183	-0
182.561	-0
182.939	0.87
183.317	-0.04
183.695	-0
184.073	-1
184.451	0.36
184.829	-0
185.206	-0.02
185.584	-0.51
185.962	-0
186.34	0.52
186.718	-0.17
187.096	0.28
187.473	0.57
187.851	-0
188.229	-0.29
188.607	0.04
188.984	0.08
189.362	0.12
189.74	-0.07
190.117	0.04
190.495	0.02
190.872	0.06
191.25	-0.08
191.627	-0.01
192.005	0.11
192.382	-0.11
192.76	0.18
193.137	0.28
193.515	-0.04
193.892	-0.08
194.269	0.02
194.647	0.14
195.024	0.13
195.401	0.03
195.779	0.1
196.156	0.09
196.533	-0.1
196.91	0.1
197.288	-0.01
197.665	-0.12
198.042	-0.03
198.419	0.09
198.796	0.02
199.173	0.06
199.55	0.19
199.927	0.24
200.304	0.11
200.681	0
201.058	0.03
201.435	0.07
201.812	0.05
202.189	0
202.566	0.08
202.943	0.12
203.32	-0.05
203.697	-0.13
204.073	0.09
204.45	-0.05
204.827	0.05
205.204	0.02
205.58	0.03
205.957	-0.02
206.334	-0.06
206.71	0.01
207.087	0.14
207.464	0.09
207.84	-0.04
208.217	0.06
208.593	0.02
208.97	0.07
209.346	0.06
209.723	0.14
210.099	-0
210.476	0.12
210.852	0.04
211.228	0.06
211.605	0.18
211.981	0.04
212.357	0.01
212.733	0.05
213.11	0.01
213.486	0.1
213.862	0.12
214.238	0.1
214.614	0.02
214.991	-0.05
215.367	0.1
215.743	0.08
216.119	0.03
216.495	0.05
216.871	0.04
217.247	0.03
217.623	-0.01
217.999	-0.01
218.375	-0.04
218.751	0.03
219.127	0.02
219.502	0.01
219.878	0.13
220.254	0.06
220.63	-0.09
221.006	0.03
221.381	0.12
221.757	0.07
222.133	0.07
222.508	0.04
222.884	0.03
223.26	0.1
223.635	0.11
224.011	0.1
224.386	0.1
224.762	0.09
225.137	-0.01
225.513	0.05
225.888	0.16
226.264	0.08
226.639	0.02
227.014	-0.01
227.39	0.15
227.765	0.19
228.14	0.12
228.516	0.04
228.891	0.03
229.266	0.06
229.641	-0.08
230.017	0.07
230.392	0.01
230.767	0.18
231.142	-0.09
231.517	0.03
231.892	0.1
232.267	0.08
232.642	-0.03
233.017	0.11
233.392	-0.04
233.767	-0.03
234.142	0.09
234.517	0.14
234.892	0.13
235.267	0.11
235.641	-0.03
236.016	0.06
236.391	0.09
236.766	0.07
237.14	-0.02
237.515	0.11
237.89	0.05
238.264	-0.01
238.639	0.17
239.014	0.03
239.388	0.05
239.763	0.15
240.137	0.07
240.512	0.05
240.886	0.06
241.261	0.06
241.635	0.1
242.009	0.12
242.384	0.03
242.758	0.05
243.132	-0.06
243.507	0.02
243.881	0.03
244.255	0.03
244.629	0.14
245.004	0.03
245.378	-0.1
245.752	0.06
246.126	-0.01
246.5	0.17
246.874	-0.06
247.248	0.12
247.622	0.07
247.996	-0.02
248.37	0.07
248.744	0.07
249.118	0.07
249.492	0.11
249.866	0.05
250.24	0.02
250.613	0.11
250.987	0.06
251.361	-0.01
251.735	0.13
252.108	0.09
252.482	0.04
252.856	0.15
253.229	0.06
253.603	0.02
253.977	0.11
254.35	0.03
254.724	0.1
255.097	0.12
255.471	0.07
255.844	0.1
256.218	0.06
256.591	0.16
256.964	0.05
257.338	0.05
257.711	0.06
258.084	0.12
258.458	0.06
258.831	0.03
259.204	0.09
259.577	0.18
259.95	0.1
260.323	0.12
260.697	0.18
261.07	-0.06
261.443	0.04
261.816	0.01
262.189	0.07
262.562	0.13
262.935	0.15
263.308	0.08
263.68	0.1
264.053	0.11
264.426	0.12
264.799	0.12
265.172	0.2
265.545	0.07
265.917	0.04
266.29	0.06
266.663	0.09
267.035	0.09
267.408	0.05
267.781	0.1
268.153	0.05
268.526	0.1
268.898	0.09
269.271	0.09
269.643	0.08
270.016	-0
270.388	0.12
270.76	0.11
271.133	-0.07
271.505	0.11
271.877	0.03
272.25	0.07
272.622	0.06
272.994	0.13
273.366	0.03
273.739	0.08
274.111	0.06
274.483	0
274.855	0.07
275.227	0.09
275.599	0.17
275.971	0.17
276.343	0.02
276.715	0.01
277.087	0.08
277.459	0.08
277.831	-0.07
278.203	0.05
278.574	0.11
278.946	0.28
279.318	0.1
279.69	0.01
280.061	0.08
280.433	0.06
280.805	0.01
281.176	0.05
281.548	0.02
281.92	0.03
282.291	0.08
282.663	0.12
283.034	0.06
283.406	0.16
283.777	0.11
284.148	0.1
284.52	0.13
284.891	0.06
285.262	0.03
285.634	0.04
286.005	0.15
286.376	0.11
286.747	0.05
287.119	0.1
287.49	0.07
287.861	0
288.232	0.09
288.603	0.1
288.974	0.14
289.345	0.07
289.716	0.06
290.087	0.04
290.458	0.04
290.829	0.06
291.2	0.05
291.571	0.06
291.941	0.09
292.312	0.04
292.683	0.07
293.054	0.13
293.424	0.08
293.795	0.06
294.166	0.09
294.536	0.04
294.907	0.07
295.277	0.03
295.648	0.06
296.018	0.06
296.389	0.11
296.759	0.04
297.13	0.07
297.5	0.07
297.871	0.04
298.241	0.07
298.611	0.01
298.981	0.01
299.352	0.03
299.722	0.01
300.092	-0.03
300.462	0.04
300.832	0.04
301.202	0.03
301.573	0.03
301.943	0.05
302.313	0.02
302.683	0.01
303.053	0.02
303.422	0.01
303.792	0.03
304.162	0.01
304.532	0.04
304.902	0.03
305.272	0.01
305.641	0.03
306.011	0.01
306.381	0.02
306.75	0.01
307.12	0.02
307.49	0.02
307.859	0.01
308.229	0.02
308.598	0.01
308.968	0.02
309.337	0.02
309.707	0.03
310.076	0.02
310.445	0.02
310.815	0.02
311.184	0.02
311.553	0.03
311.923	0.02
312.292	0.02
312.661	0.02
313.03	0.01
313.399	0.02
313.768	0.02
314.137	0.02
314.506	0.01
314.875	0.02
315.244	0.02
315.613	0.02
315.982	0.02
316.351	0.02
316.72	0.02
317.089	0.02
317.458	0.02
317.826	0.02
318.195	0.02
318.564	0.03
318.933	0.02
319.301	0.02
319.67	0.02
320.038	0.01
320.407	0.02
320.775	0.01
321.144	0.02
321.512	0.02
321.881	0.02
322.249	0.01
322.618	0.02
322.986	0.01
323.354	0.01
323.723	0.02
324.091	0.02
324.459	0.02
324.827	0.02
325.195	0.01
325.564	0.02
325.932	0.02
326.3	0.01
326.668	0.01
327.036	0.01
327.404	0.02
327.772	0.02
328.14	0.02
328.508	0.02
328.875	0.02
329.243	0.02
329.611	0.02
329.979	0.02
330.346	0.01
330.714	0.01
331.082	0.01
331.449	0.02
331.817	0.01
332.185	0.02
332.552	0.03
332.92	0.02
333.287	0.02
333.655	0.03
334.022	0.03
334.389	0.02
334.757	0.02
335.124	0.02
335.491	0.01
335.859	0.02
336.226	0.02
336.593	0.02
336.96	0.02
337.327	0.02
337.695	0.03
338.062	0.02
338.429	0.02
338.796	0.02
339.163	0.02
339.53	0.02
339.897	0.02
340.263	0.02
340.63	0.02
340.997	0.02
341.364	0.02
341.731	0.02
342.097	0.02
342.464	0.02
342.831	0.02
343.197	0.02
343.564	0.02
343.931	0.02
344.297	0.02
344.664	0.02
345.03	0.02
345.396	0.02
345.763	0.02
346.129	0.02
346.496	0.02
346.862	0.02
347.228	0.03
347.594	0.03
347.961	0.03
348.327	0.03
348.693	0.02
349.059	0.03
349.425	0.03
349.791	0.03
350.157	0.02
350.523	0.03
350.889	0.03
351.255	0.03
351.621	0.02
351.987	0.02
352.353	0.03
352.719	0.03
353.084	0.03
353.45	0.03
353.816	0.03
354.181	0.03
354.547	0.02
354.913	0.03
355.278	0.03
355.644	0.03
356.009	0.03
356.375	0.03
356.74	0.03
357.106	0.03
357.471	0.03
357.836	0.03
358.202	0.03
358.567	0.03
358.932	0.04
359.297	0.04
359.663	0.04
360.028	0.04
360.393	0.04
360.758	0.04
361.123	0.03
361.488	0.04
361.853	0.04
362.218	0.04
362.583	0.03
362.948	0.04
363.312	0.04
363.677	0.03
364.042	0.04
364.407	0.04
364.772	0.04
365.136	0.04
365.501	0.04
365.865	0.04
366.23	0.04
366.595	0.04
366.959	0.04
367.324	0.04
367.688	0.04
368.052	0.04
368.417	0.04
368.781	0.05
369.145	0.04
369.51	0.04
369.874	0.04
370.238	0.04
370.602	0.04
370.967	0.04
371.331	0.04
371.695	0.05
372.059	0.04
372.423	0.05
372.787	0.05
373.151	0.04
373.515	0.04
373.878	0.05
374.242	0.04
374.606	0.04
374.97	0.04
375.334	0.05
375.697	0.05
376.061	0.04
376.425	0.04
376.788	0.05
377.152	0.04
377.515	0.05
377.879	0.05
378.242	0.05
378.606	0.05
378.969	0.05
379.333	0.05
379.696	0.05
380.059	0.04
380.422	0.05
380.786	0.05
381.149	0.05
381.512	0.05
381.875	0.05
382.238	0.05
382.601	0.05
382.964	0.06
383.327	0.06
383.69	0.06
384.053	0.06
384.416	0.06
384.779	0.06
385.142	0.07
385.504	0.06
385.867	0.06
386.23	0.07
386.593	0.07
386.955	0.06
387.318	0.06
387.68	0.06
388.043	0.07
388.405	0.07
388.768	0.07
389.13	0.06
389.493	0.07
389.855	0.07
390.217	0.07
390.58	0.06
390.942	0.06
391.304	0.07
391.666	0.07
392.028	0.06
392.391	0.07
392.753	0.06
393.115	0.07
393.477	0.07
393.839	0.07
394.201	0.08
394.563	0.08
394.924	0.08
395.286	0.09
395.648	0.09
396.01	0.09
396.371	0.09
396.733	0.09
397.095	0.09
397.456	0.1
397.818	0.1
398.18	0.09
398.541	0.1
398.903	0.09
399.264	0.09
399.625	0.09
399.987	0.08
400.348	0.08
400.709	0.07
401.071	0.07
401.432	0.07
401.793	0.07
402.154	0.06
402.515	0.06
402.876	0.06
403.238	0.06
403.599	0.06
403.96	0.05
404.32	0.05
404.681	0.05
405.042	0.04
405.403	0.04
405.764	0.04
406.125	0.04
406.485	0.03
406.846	0.03
407.207	0.04
407.567	0.03
407.928	0.03
408.288	0.03
408.649	0.03
409.009	0.03
409.37	0.03
409.73	0.03
410.091	0.03
410.451	0.03
410.811	0.03
411.171	0.03
411.532	0.03
411.892	0.03
412.252	0.02
412.612	0.03
412.972	0.03
413.332	0.03
413.692	0.03
414.052	0.03
414.412	0.03
414.772	0.02
415.132	0.02
415.492	0.03
415.851	0.03
416.211	0.02
416.571	0.02
416.931	0.03
417.29	0.03
417.65	0.02
418.009	0.03
418.369	0.02
418.728	0.02
419.088	0.02
419.447	0.02
419.807	0.03
420.166	0.03
420.525	0.02
420.884	0.02
421.244	0.02
421.603	0.02
421.962	0.02
422.321	0.02
422.68	0.03
423.039	0.02
423.398	0.03
423.757	0.03
424.116	0.02
424.475	0.02
424.834	0.02
425.193	0.02
425.551	0.02
425.91	0.02
426.269	0.03
426.628	0.02
426.986	0.02
427.345	0.03
427.703	0.03
428.062	0.02
428.42	0.03
428.779	0.02
429.137	0.03
429.496	0.02
429.854	0.02
430.212	0.02
430.57	0.01
430.929	0.03
431.287	0.03
431.645	0.03
432.003	0.02
432.361	0.03
432.719	0.02
433.077	0.03
433.435	0.03
433.793	0.02
434.151	0.02
434.509	0.03
434.866	0.02
435.224	0.02
435.582	0.03
435.94	0.03
436.297	0.03
436.655	0.02
437.012	0.02
437.37	0.02
437.727	0.01
438.085	0.02
438.442	0.03
438.8	0.03
439.157	0.02
439.514	0.02
439.872	0.03
440.229	0.02
440.586	0.03
440.943	0.02
441.3	0.02
441.657	0.02
442.014	0.02
442.371	0.03
442.728	0.02
443.085	0.02
443.442	0.03
443.799	0.02
444.156	0.03
444.513	0.02
444.869	0.03
445.226	0.02
445.583	0.03
445.939	0.02
446.296	0.02
446.652	0.02
447.009	0.02
447.365	0.02
447.722	0.03
448.078	0.02
448.434	0.02
448.791	0.02
449.147	0.03
449.503	0.02
449.859	0.02
450.215	0.01
450.571	0.02
450.928	0.02
451.284	0.02
451.64	0.02
451.995	0.02
452.351	0.02
452.707	0.02
453.063	0.02
453.419	0.02
453.775	0.02
454.13	0.02
454.486	0.02
454.842	0.01
455.197	0.02
455.553	0.02
455.908	0.01
456.264	0.02
456.619	0
456.975	0
457.33	0.01
457.685	0.02
458.04	0.01
458.396	0.01
458.751	0
459.106	0.02
459.461	0.01
459.816	0.01
460.171	0.01
460.526	0.01
460.881	0
461.236	0.01
461.591	-0
461.946	-0
462.301	0
462.655	-0
463.01	-0
463.365	-0
463.719	0
464.074	-0
464.428	-0
464.783	0
465.137	-0.01
465.492	0
465.846	-0.01
466.201	-0.01
466.555	-0
466.909	-0.01
467.263	-0.01
467.618	-0
467.972	0
468.326	-0.01
468.68	-0.01
469.034	-0.01
469.388	-0.01
469.742	-0.01
470.096	-0.01
470.45	-0.01
470.804	-0.01
471.157	-0.01
471.511	-0.01
471.865	-0.01
472.218	-0
472.572	-0.01
472.926	-0.01
473.279	-0.01
473.633	-0.01
473.986	-0
474.34	-0.01
474.693	-0.01
475.046	0
475.4	0
475.753	-0
476.106	0
476.459	0
476.812	-0
477.165	0.01
477.519	0.01
477.872	0.01
478.224	0.01
478.577	0.01
478.93	0.01
479.283	0.01
479.636	0.01
479.989	0.01
480.341	0.01
480.694	0.01
481.047	0.01
481.399	0.02
481.752	0.02
482.104	0.02
482.457	0.02
482.809	0.02
483.162	0.02
483.514	0.02
483.866	0.02
484.219	0.02
484.571	0.02
484.923	0.03
485.275	0.03
485.627	0.03
485.979	0.02
486.331	0.02
486.683	0.03
487.035	0.02
487.387	0.03
487.739	0.03
488.091	0.02
488.443	0.02
488.794	0.02
489.146	0.03
489.498	0.02
489.849	0.02
490.201	0.03
490.552	0.02
490.904	0.02
491.255	0.03
491.607	0.03
491.958	0.03
492.309	0.03
492.661	0.03
493.012	0.03
493.363	0.03
493.714	0.02
494.065	0.03
494.416	0.03
494.767	0.03
495.118	0.03
495.469	0.03
495.82	0.02
496.171	0.03
496.522	0.03
496.872	0.03
497.223	0.03
497.574	0.03
497.924	0.03
498.275	0.03
498.626	0.03
498.976	0.03
499.327	0.03
499.677	0.03
500.027	0.03
500.378	0.03
500.728	0.03
501.078	0.03
501.428	0.04
501.779	0.04
502.129	0.03
502.479	0.03
502.829	0.03
503.179	0.04
503.529	0.03
503.879	0.03
504.229	0.04
504.578	0.03
504.928	0.03
505.278	0.04
505.628	0.03
505.977	0.04
506.327	0.03
506.676	0.03
507.026	0.04
507.375	0.03
507.725	0.03
508.074	0.04
508.424	0.03
508.773	0.03
509.122	0.04
509.471	0.03
509.82	0.03
510.17	0.03
510.519	0.04
510.868	0.03
511.217	0.03
511.566	0.04
511.915	0.03
512.263	0.04
512.612	0.03
512.961	0.03
513.31	0.04
513.659	0.04
514.007	0.03
514.356	0.04
514.704	0.04
515.053	0.04
515.401	0.04
515.75	0.04
516.098	0.04
516.447	0.04
516.795	0.04
517.143	0.04
517.491	0.04
517.839	0.04
518.188	0.04
518.536	0.04
518.884	0.04
519.232	0.04
519.58	0.04
519.928	0.04
520.275	0.04
520.623	0.05
520.971	0.04
521.319	0.04
521.666	0.04
522.014	0.04
522.362	0.05
522.709	0.04
523.057	0.04
523.404	0.04
523.752	0.04
524.099	0.05
524.446	0.05
524.794	0.05
525.141	0.04
525.488	0.04
525.835	0.05
526.182	0.04
526.529	0.04
526.876	0.05
527.223	0.05
527.57	0.04
527.917	0.04
528.264	0.05
528.611	0.04
528.958	0.04
529.304	0.04
529.651	0.05
529.998	0.04
530.344	0.04
530.691	0.04
531.037	0.04
531.384	0.05
531.73	0.05
532.076	0.05
532.423	0.04
532.769	0.05
533.115	0.04
533.461	0.05
533.807	0.05
534.154	0.04
534.5	0.05
534.846	0.05
535.192	0.05
535.537	0.05
535.883	0.05
536.229	0.05
536.575	0.05
536.921	0.05
537.266	0.05
537.612	0.05
537.957	0.05
538.303	0.04
538.649	0.05
538.994	0.05
539.339	0.05
539.685	0.05
540.03	0.05
540.375	0.05
540.721	0.05
541.066	0.05
541.411	0.05
541.756	0.05
542.101	0.05
542.446	0.05
542.791	0.05
543.136	0.05
543.481	0.05
543.825	0.05
544.17	0.06
544.515	0.05
544.86	0.06
545.204	0.05
545.549	0.05
545.893	0.05
546.238	0.05
546.582	0.05
546.927	0.05
547.271	0.05
547.615	0.05
547.96	0.05
548.304	0.05
548.648	0.06
548.992	0.06
549.336	0.05
549.68	0.05
550.024	0.05
550.368	0.05
550.712	0.05
551.056	0.05
551.4	0.05
551.743	0.06
552.087	0.06
552.431	0.05
552.774	0.06
553.118	0.06
553.462	0.06
553.805	0.06
554.148	0.06
554.492	0.05
554.835	0.05
555.178	0.05
555.522	0.05
555.865	0.05
556.208	0.06
556.551	0.05
556.894	0.06
557.237	0.06
557.58	0.06
557.923	0.05
558.266	0.06
558.609	0.06
558.952	0.06
559.294	0.06
559.637	0.06
559.98	0.06
560.322	0.06
560.665	0.05
561.007	0.06
561.35	0.06
561.692	0.06
562.034	0.06
562.377	0.06
562.719	0.06
563.061	0.06
563.403	0.06
563.745	0.05
564.088	0.06
564.43	0.06
564.772	0.06
565.113	0.06
565.455	0.06
565.797	0.06
566.139	0.05
566.481	0.06
566.822	0.05
567.164	0.06
567.506	0.06
567.847	0.06
568.189	0.06
568.53	0.06
568.872	0.06
569.213	0.06
569.554	0.05
569.895	0.06
570.237	0.06
570.578	0.06
570.919	0.05
571.26	0.06
571.601	0.06
571.942	0.05
572.283	0.05
572.624	0.05
572.965	0.05
573.306	0.05
573.646	0.05
573.987	0.05
574.328	0.05
574.668	0.05
575.009	0.05
575.349	0.06
575.69	0.05
576.03	0.05
576.37	0.05
576.711	0.05
577.051	0.05
577.391	0.05
577.731	0.05
578.072	0.05
578.412	0.05
578.752	0.05
579.092	0.05
579.431	0.05
579.771	0.05
580.111	0.05
580.451	0.05
580.791	0.05
581.13	0.04
581.47	0.05
581.81	0.05
582.149	0.05
582.489	0.05
582.828	0.05
583.167	0.05
583.507	0.05
583.846	0.05
584.185	0.05
584.525	0.05
584.864	0.04
585.203	0.05
585.542	0.05
585.881	0.05
586.22	0.05
586.559	0.05
586.898	0.05
587.236	0.05
587.575	0.05
587.914	0.05
588.252	0.05
588.591	0.05
588.93	0.05
589.268	0.05
589.607	0.05
589.945	0.05
590.283	0.05
590.622	0.05
590.96	0.05
591.298	0.05
591.636	0.05
591.974	0.06
592.313	0.06
592.651	0.06
592.989	0.06
593.326	0.06
593.664	0.06
594.002	0.06
594.34	0.06
594.678	0.06
595.015	0.06
595.353	0.06
595.691	0.06
596.028	0.05
596.366	0.05
596.703	0.05
597.04	0.06
597.378	0.05
597.715	0.06
598.052	0.06
598.389	0.06
598.726	0.06
599.064	0.06
599.401	0.06
599.738	0.06
600.074	0.06
600.411	0.06
600.748	0.06
601.085	0.06
601.422	0.06
601.758	0.05
602.095	0.05
602.432	0.05
602.768	0.06
603.105	0.05
603.441	0.06
603.777	0.06
604.114	0.06
604.45	0.06
604.786	0.06
605.122	0.06
605.459	0.06
605.795	0.06
606.131	0.06
606.467	0.06
606.803	0.06
607.139	0.06
607.474	0.06
607.81	0.06
608.146	0.06
608.482	0.06
608.817	0.06
609.153	0.06
609.488	0.06
609.824	0.06
610.159	0.06
610.495	0.06
610.83	0.06
611.165	0.06
611.5	0.06
611.836	0.06
612.171	0.06
612.506	0.06
612.841	0.06
613.176	0.06
613.511	0.06
613.845	0.06
614.18	0.06
614.515	0.06
614.85	0.06
615.184	0.06
615.519	0.05
615.854	0.06
616.188	0.06
616.523	0.06
616.857	0.06
617.191	0.06
617.526	0.06
617.86	0.06
618.194	0.06
618.528	0.06
618.862	0.06
619.196	0.06
619.53	0.06
619.864	0.06
620.198	0.06
620.532	0.06
620.866	0.06
621.2	0.06
621.533	0.06
621.867	0.06
622.201	0.06
622.534	0.06
622.868	0.06
623.201	0.06
623.534	0.06
623.868	0.06
624.201	0.06
624.534	0.06
624.868	0.06
625.201	0.06
625.534	0.06
625.867	0.06
626.2	0.06
626.533	0.06
626.865	0.06
627.198	0.05
627.531	0.06
627.864	0.06
628.196	0.06
628.529	0.06
628.862	0.06
629.194	0.06
629.527	0.06
629.859	0.06
630.191	0.06
630.524	0.06
630.856	0.06
631.188	0.06
631.52	0.07
631.852	0.06
632.184	0.06
632.516	0.06
632.848	0.06
633.18	0.06
633.512	0.06
633.844	0.06
634.175	0.06
634.507	0.06
634.839	0.07
635.17	0.06
635.502	0.06
635.833	0.06
636.165	0.06
636.496	0.06
636.827	0.06
637.159	0.06
637.49	0.06
637.821	0.06
638.152	0.06
638.483	0.06
638.814	0.06
639.145	0.06
639.476	0.06
639.807	0.06
640.137	0.06
640.468	0.06
640.799	0.06
641.129	0.06
641.46	0.06
641.791	0.06
642.121	0.06
642.451	0.06
642.782	0.06
643.112	0.06
643.442	0.06
643.773	0.06
644.103	0.06
644.433	0.06
644.763	0.06
645.093	0.06
645.423	0.06
645.753	0.06
646.082	0.06
646.412	0.06
646.742	0.07
647.072	0.07
647.401	0.07
647.731	0.06
648.06	0.06
648.39	0.06
648.719	0.06
649.048	0.06
649.378	0.06
649.707	0.06
650.036	0.06
650.365	0.06
650.694	0.05
651.023	0.05
651.352	0.06
651.681	0.06
652.01	0.06
652.339	0.06
652.668	0.06
652.996	0.06
653.325	0.06
653.654	0.06
653.982	0.06
654.311	0.06
654.639	0.06
654.967	0.06
655.296	0.06
655.624	0.06
655.952	0.06
656.28	0.06
656.609	0.06
656.937	0.06
657.265	0.06
657.593	0.06
657.92	0
658.248	-0
658.576	0
658.904	0.03
659.231	0.03
659.559	0.04
659.887	0.05
660.214	0.05
660.542	0.05
660.869	0.05
661.196	0.06
661.524	0.05
661.851	0.06
662.178	0.06
662.505	0.06
662.832	0.06
663.159	0.06
663.486	0.06
663.813	0.06
664.14	0.06
664.467	0.06
664.794	0.06
665.12	0.06
665.447	0.06
665.774	0.06
666.1	0.06
666.427	0.06
666.753	0.06
667.079	0.06
667.406	0.06
667.732	0.06
668.058	0.06
668.384	0.06
668.71	0.07
669.036	0.07
669.362	0.07
669.688	0.07
670.014	0.06
670.34	0.06
670.666	0.06
670.991	0.06
671.317	0.07
671.643	0.06
671.968	0.06
672.294	0.06
672.619	0.06
672.945	0.06
673.27	0.06
673.595	0.06
673.92	0.06
674.246	0.06
674.571	0.06
674.896	0.06
675.221	0.06
675.546	0.06
675.87	0.06
676.195	0.06
676.52	0.06
676.845	0.06
677.169	0.06
677.494	0.06
677.819	0.06
678.143	0.06
678.468	0.06
678.792	0.06
679.116	0.06
679.44	0.06
679.765	0.06
680.089	0.06
680.413	0.06
680.737	0.07
681.061	0.06
681.385	0.06
681.709	0.06
682.033	0.06
682.356	0.06
682.68	0.06
683.004	0.06
683.327	0.06
683.651	0.06
683.974	0.06
684.298	0.06
684.621	0.06
684.944	0.05
685.268	0.06
685.591	0.06
685.914	0.06
686.237	0.06
686.56	0.06
686.883	0.06
687.206	0.05
687.529	0.06
687.852	0.06
688.175	0.06
688.497	0.06
688.82	0.06
689.142	0.06
689.465	0.06
689.787	0.06
690.11	0.06
690.432	0.06
690.755	0.06
691.077	0.06
691.399	0.06
691.721	0.06
692.043	0.06
692.365	0.06
692.687	0.06
693.009	0.06
693.331	0.06
693.653	0.06
693.974	0.05
694.296	0.06
694.618	0.06
694.939	0.06
695.261	0.06
695.582	0.06
695.904	0.06
696.225	0.06
696.546	0.07
696.868	0.07
697.189	0.06
697.51	0.06
697.831	0.06
698.152	0.06
698.473	0.06
698.794	0.06
699.114	0.06
699.435	0.06
699.756	0.06
700.077	0.06
700.397	0.06
700.718	0.06
701.038	0.06
701.359	0.06
701.679	0.06
701.999	0.06
702.32	0.06
702.64	0.06
702.96	0.06
703.28	0.06
703.6	0.06
703.92	0.06
704.24	0.06
704.56	0.06
704.879	0.06
705.199	0.06
705.519	0.06
705.838	0.06
706.158	0.06
706.478	0.06
706.797	0.06
707.116	0.06
707.436	0.06
707.755	0.06
708.074	0.06
708.393	0.06
708.712	0.06
709.031	0.06
709.35	0.06
709.669	0.05
709.988	0.06
710.307	0.05
710.626	0.06
710.944	0.06
711.263	0.05
711.582	0.05
711.9	0.05
712.219	0.06
712.537	0.05
712.855	0.06
713.174	0.06
713.492	0.06
713.81	0.06
714.128	0.06
714.446	0.07
714.764	0.06
715.082	0.06
715.4	0.06
715.718	0.06
716.035	0.06
716.353	0.06
716.671	0.06
716.988	0.06
717.306	0.06
717.623	0.06
717.941	0.07
718.258	0.07
718.575	0.07
718.893	0.07
719.21	0.07
719.527	0.06
719.844	0.07
720.161	0.07
720.478	0.06
720.795	0.06
721.112	0.06
721.428	0.06
721.745	0.06
722.062	0.06
722.378	0.06
722.695	0.06
723.011	0.06
723.328	0.06
723.644	0.06
723.96	0.06
724.276	0.06
724.593	0.06
724.909	0.05
725.225	0.06
725.541	0.06
725.857	0.06
726.173	0.06
726.488	0.06
726.804	0.06
727.12	0.06
727.435	0.06
727.751	0.06
728.067	0.06
728.382	0.07
728.697	0.06
729.013	0.07
729.328	0.07
729.643	0.06
729.958	0.06
730.273	0.06
730.588	0.06
730.903	0.06
731.218	0.06
731.533	0.06
731.848	0.06
732.163	0.06
732.477	0.06
732.792	0.06
733.107	0.06
733.421	0.06
733.736	0.06
734.05	0.06
734.364	0.07
734.678	0.07
734.993	0.07
735.307	0.07
735.621	0.06
735.935	0.06
736.249	0.07
736.563	0.07
736.877	0.07
737.19	0.07
737.504	0.07
737.818	0.06
738.131	0.07
738.445	0.07
738.758	0.07
739.072	0.07
739.385	0.07
739.698	0.06
740.012	0.07
740.325	0.07
740.638	0.07
740.951	0.07
741.264	0.07
741.577	0.06
741.89	0.06
742.203	0.06
742.515	0.06
742.828	0.06
743.141	0.06
743.453	0.06
743.766	0.06
744.078	0.06
744.391	0.06
744.703	0.06
745.015	0.06
745.327	0.06
745.639	0.06
745.952	0.06
746.264	0.07
746.575	0.07
746.887	0.07
747.199	0.07
747.511	0.07
747.823	0.07
748.134	0.07
748.446	0.07
748.757	0.07
749.069	0.07
749.38	0.07
749.692	0.07
750.003	0.08
750.314	0.07
750.625	0.07
750.936	0.07
751.248	0.07
751.559	0.06
751.869	0.06
752.18	0.06
752.491	0.06
752.802	0.06
753.112	0.06
753.423	0.06
753.734	0.06
754.044	0.06
754.355	0.06
754.665	0.06
754.975	0.06
755.285	0.06
755.596	0.06
755.906	0.06
756.216	0.06
756.526	0.07
756.836	0.07
757.146	0.07
757.455	0.07
757.765	0.06
758.075	0.06
758.385	0.06
758.694	0.07
759.004	0.06
759.313	0.06
759.622	0.07
759.932	0.07
760.241	0.06
760.55	0.07
760.859	0.06
761.168	0.06
761.477	0.06
761.786	0.06
762.095	0.06
762.404	0.06
762.713	0.06
763.021	0.06
763.33	0.06
763.639	0.06
763.947	0.06
764.256	0.06
764.564	0.06
764.872	0.06
765.181	0.06
765.489	0.05
765.797	0.06
766.105	0.05
766.413	0.05
766.721	0.06
767.029	0.06
767.337	0.06
767.644	0.06
767.952	0.06
768.26	0.06
768.567	0.06
768.875	0.06
769.182	0.06
769.49	0.06
769.797	0.06
770.104	0.06
770.411	0.06
770.718	0.06
771.026	0.06
771.333	0.06
771.639	0.06
771.946	0.07
772.253	0.07
772.56	0.07
772.867	0.07
773.173	0.06
773.48	0.07
773.786	0.06
774.093	0.06
774.399	0.06
774.705	0.06
775.012	0.07
775.318	0.06
775.624	0.06
775.93	0.06
776.236	0.06
776.542	0.06
776.848	0.06
777.154	0.06
777.459	0.07
777.765	0.07
778.071	0.06
778.376	0.07
778.682	0.06
778.987	0.06
779.292	0.06
779.598	0.06
779.903	0.06
780.208	0.06
780.513	0.06
780.818	0.06
781.123	0.06
781.428	0.06
781.733	0.06
782.038	0.05
782.343	0.06
782.647	0.06
782.952	0.06
783.256	0.07
783.561	0.06
783.865	0.07
784.17	0.07
784.474	0.07
784.778	0.07
785.082	0.07
785.386	0.06
785.69	0.06
785.994	0.05
786.298	0.06
786.602	0.06
786.906	0.05
787.209	0.05
787.513	0.05
787.817	0.06
788.12	0.06
788.424	0.06
788.727	0.06
789.03	0.05
789.333	0.05
789.637	0.04
789.94	0.05
790.243	0.05
790.546	0.04
790.849	0.04
791.152	0.05
791.454	0.05
791.757	0.05
792.06	0.05
792.362	0.05
792.665	0.05
792.967	0.06
793.27	0.06
793.572	0.06
793.874	0.05
794.177	0.06
794.479	0.06
794.781	0.05
795.083	0.05
795.385	0.05
795.687	0.05
795.989	0.04
796.29	0.05
796.592	0.04
796.894	0.04
797.195	0.04
797.497	0.05
797.798	0.05
798.1	0.05
798.401	0.05
798.702	0.05
799.003	0.05
799.304	0.05
799.605	0.05
799.906	0.04
800.207	0.04
800.508	0.04
800.809	0.04
801.11	0.04
801.41	0.05
801.711	0.04
802.011	0.04
802.312	0.05
802.612	0.04
802.913	0.05
803.213	0.05
803.513	0.05
803.813	0.04
804.113	0.04
804.413	0.04
804.713	0.04
805.013	0.04
805.313	0.05
805.613	0.04
805.912	0.04
806.212	0.05
806.511	0.05
806.811	0.05
807.11	0.04
807.41	0.05
807.709	0.04
808.008	0.03
808.307	0.04
808.606	0.04
808.905	0.05
809.204	0.04
809.503	0.04
809.802	0.04
810.101	0.04
810.399	0.04
810.698	0.05
810.997	0.05
811.295	0.05
811.593	0.05
811.892	0.05
812.19	0.04
812.488	0.04
812.786	0.04
813.084	0.04
813.383	0.05
813.68	0.05
813.978	0.05
814.276	0.05
814.574	0.05
814.872	0.04
815.169	0.04
815.467	0.04
815.764	0.04
816.062	0.03
816.359	0.04
816.656	0.03
816.954	0.04
817.251	0.03
817.548	0.04
817.845	0.04
818.142	0.03
818.439	0.04
818.735	0.04
819.032	0.04
819.329	0.04
819.626	0.03
819.922	0.04
820.219	0.03
820.515	0.03
820.811	0.03
821.108	0.03
821.404	0.04
821.7	0.03
821.996	0.03
822.292	0.03
822.588	0.04
822.884	0.03
823.18	0.03
823.475	0.03
823.771	0.03
824.067	0.03
824.362	0.03
824.658	0.04
824.953	0.03
825.249	0.04
825.544	0.05
825.839	0.04
826.134	0.04
826.429	0.04
826.724	0.04
827.019	0.04
827.314	0.05
827.609	0.04
827.904	0.04
828.198	0.03
828.493	0.03
828.787	0.03
829.082	0.02
829.376	0.02
829.671	0.03
829.965	0.03
830.259	0.02
830.553	0.02
830.847	0.02
831.141	0.02
831.435	0.03
831.729	0.02
832.023	0.02
832.317	0.01
832.61	0.02
832.904	0.02
833.197	0.02
833.491	0.02
833.784	0.01
834.077	0.01
834.371	0.03
834.664	0.02
834.957	0.02
835.25	0.01
835.543	0.02
835.836	0.02
836.129	0.02
836.421	0.02
836.714	0.03
837.007	0.03
837.299	0.02
837.592	0.02
837.884	0.02
838.177	0.02
838.469	0.03
838.761	0.02
839.053	0.01
839.345	0.01
839.637	0.01
839.929	0
840.221	0
840.513	0
840.805	0.01
841.096	-0
841.388	0.01
841.68	0.01
841.971	0.01
842.262	0.01
842.554	0
842.845	0
843.136	0.01
843.427	-0
843.718	0.01
844.009	0
844.3	0.01
844.591	-0
844.882	-0
845.173	-0
845.463	0
845.754	0
846.044	0
846.335	-0.01
846.625	-0
846.915	0.01
847.206	0.01
847.496	0
847.786	0
848.076	0.01
848.366	0
848.656	0.01
848.945	-0
849.235	0.02
849.525	-0.01
849.814	-0
850.104	-0.01
850.393	-0.01
850.683	0.01
850.972	0
851.261	-0
851.551	0
851.84	-0.01
852.129	0.01
852.418	0.01
852.707	-0.01
852.995	-0.01
853.284	-0.01
853.573	0.01
853.862	0.01
854.15	0
854.439	0
854.727	-0.01
855.015	0.01
855.304	-0.01
855.592	-0
855.88	-0.02
856.168	-0.01
856.456	-0.01
856.744	0.02
857.032	-0.01
857.32	-0.02
857.607	-0.02
857.895	-0
858.183	-0.01
858.47	0.02
858.757	0.03
859.045	0.01
859.332	-0
859.619	0.01
859.907	0.01
860.194	0.02
860.481	-0.01
860.768	0.01
861.054	0.01
861.341	-0.01
861.628	-0.02
861.915	-0.01
862.201	-0.02
862.488	-0.03
862.774	-0.03
863.061	-0.01
863.347	0
863.633	-0.01
863.919	-0.01
864.205	-0.03
864.491	0.01
864.777	0.01
865.063	-0.04
865.349	-0
865.635	-0.01
865.92	-0.01
866.206	0.01
866.492	0
866.777	-0.04
867.062	0.01
867.348	-0.05
867.633	0.02
867.918	-0.04
868.203	-0.01
868.488	0
868.773	0.03
869.058	-0.01
869.343	-0.07
869.628	-0.02
869.912	0.02
870.197	-0
870.482	-0.01
870.766	-0.04
871.05	-0.05
871.335	0.04
871.619	0.05
871.903	-0.07
872.187	-0.02
872.471	0.02
872.755	0.04
873.039	0.04
873.323	0.08
873.607	-0.03
873.89	-0.09
874.174	0.03
874.458	0.11
874.741	0.02
875.024	0.06
875.308	0.04
875.591	-0.01
875.874	-0.04
876.157	0.16
876.44	0.09
876.723	0.03
877.006	-0.11
877.289	-0.1
877.572	-0.16
877.854	0.04
878.137	-0.05
878.42	-0.03
878.702	0.08
878.984	0.04
879.267	0.06
879.549	-0.04
879.831	0.13
880.113	0.17
880.395	0.14
880.677	0.19
880.959	0.13
