Data from Rubpy_EV_600_EDTA_Absorbance_12-03-59-478.txt Node
Date: Mon Jun 29 12:03:59 BST 2026
User: fpm-admin
Spectrometer: OFX00224
Trigger mode: 0
Integration Time (sec): 7.000000E-2
Scans to average: 3
Nonlinearity correction enabled: false
Boxcar width: 0
Storing dark spectrum: false
XAxis mode: Wavelengths
Number of Pixels in Spectrum: 2136
>>>>>Begin Spectral Data<<<<<
154.91	0.07
155.289	0.06
155.669	-0
156.048	0.07
156.428	0.29
156.807	-0.08
157.186	-1.18
157.566	1.3
157.945	-0
158.325	0.02
158.704	-0
159.083	-0
159.462	-0.25
159.842	0.3
160.221	0.5
160.6	-0.17
160.979	-0
161.359	-0.11
161.738	-0
162.117	-0
162.496	-0
162.875	-0
163.254	-0.74
163.633	-0.07
164.012	-0
164.391	-0
164.77	-0
165.149	0.55
165.528	-0
165.907	-0
166.286	-0
166.665	-0
167.044	0.38
167.423	-0.22
167.802	0.4
168.181	0.56
168.559	-0.18
168.938	-0.55
169.317	-0.06
169.696	-0.36
170.074	0.08
170.453	0.51
170.832	-0.41
171.21	0.43
171.589	-0
171.968	-0
172.346	-0.32
172.725	-0.27
173.103	1.63
173.482	0.05
173.861	-0
174.239	0.63
174.617	0.47
174.996	-0.09
175.374	-0
175.753	0.67
176.131	0.03
176.51	-0
176.888	-0
177.266	-0.23
177.645	0.02
178.023	-0
178.401	0.11
178.779	0.08
179.158	-0
179.536	0.37
179.914	0.13
180.292	-1.48
180.67	-0
181.048	-0
181.427	-0.1
181.805	0.32
182.183	-0
182.561	0.34
182.939	-0
183.317	-0.38
183.695	0.19
184.073	0.13
184.451	0.18
184.829	-0.48
185.206	-0.49
185.584	-0
185.962	-0.95
186.34	-0
186.718	-0.51
187.096	-0.3
187.473	0.44
187.851	0.24
188.229	0.15
188.607	-0.03
188.984	-0
189.362	0
189.74	-0.05
190.117	-0.01
190.495	0.19
190.872	-0.07
191.25	0.02
191.627	0.02
192.005	-0.01
192.382	0.04
192.76	-0.05
193.137	-0.06
193.515	-0
193.892	0.18
194.269	0.01
194.647	-0.01
195.024	0
195.401	-0.09
195.779	-0.02
196.156	-0.03
196.533	0.11
196.91	-0.09
197.288	-0.03
197.665	0.02
198.042	-0.07
198.419	-0.05
198.796	-0.04
199.173	-0.07
199.55	-0
199.927	-0.01
200.304	0.06
200.681	0.01
201.058	0.23
201.435	0.13
201.812	0.02
202.189	0
202.566	-0.1
202.943	0.05
203.32	0.17
203.697	0.04
204.073	0.05
204.45	-0.04
204.827	0.06
205.204	-0.07
205.58	0.01
205.957	0.07
206.334	-0.03
206.71	0.02
207.087	0.07
207.464	0.01
207.84	-0.04
208.217	-0.05
208.593	0.02
208.97	0.02
209.346	0.01
209.723	0.03
210.099	0.07
210.476	0
210.852	0.02
211.228	-0.02
211.605	0.07
211.981	0.01
212.357	0.01
212.733	0
213.11	0.07
213.486	0.01
213.862	0.12
214.238	0.09
214.614	-0.02
214.991	0
215.367	-0.02
215.743	-0.02
216.119	0.04
216.495	-0
216.871	-0.03
217.247	0.03
217.623	0.04
217.999	-0.04
218.375	0.04
218.751	-0.03
219.127	0.07
219.502	0.09
219.878	0.05
220.254	0.03
220.63	-0.03
221.006	-0.09
221.381	0.01
221.757	0.03
222.133	0.02
222.508	-0.02
222.884	0.07
223.26	0.02
223.635	0.03
224.011	-0.01
224.386	0.01
224.762	0.04
225.137	0.02
225.513	0.02
225.888	0.09
226.264	0.04
226.639	0.06
227.014	0.08
227.39	0.05
227.765	-0.02
228.14	0.06
228.516	0.08
228.891	-0.03
229.266	0.09
229.641	0.08
230.017	0.07
230.392	0
230.767	-0.04
231.142	-0.04
231.517	0.06
231.892	0.05
232.267	0.08
232.642	0.02
233.017	0.02
233.392	0.04
233.767	0.06
234.142	-0.03
234.517	0.05
234.892	-0
235.267	-0.11
235.641	-0.04
236.016	0.07
236.391	0.06
236.766	-0.01
237.14	0.02
237.515	0.05
237.89	0.02
238.264	0.03
238.639	-0.05
239.014	0.14
239.388	0.05
239.763	0
240.137	0.04
240.512	0.05
240.886	0
241.261	0.05
241.635	0.02
242.009	-0.03
242.384	0.07
242.758	0.04
243.132	-0
243.507	0.01
243.881	0.07
244.255	0.05
244.629	0
245.004	0.04
245.378	0.07
245.752	0.01
246.126	0.01
246.5	0.03
246.874	0.16
247.248	0.03
247.622	-0.06
247.996	0.05
248.37	0.05
248.744	-0.05
249.118	-0.03
249.492	-0.08
249.866	0.01
250.24	-0.01
250.613	0
250.987	-0.05
251.361	0.02
251.735	0.16
252.108	0.12
252.482	0.1
252.856	0.11
253.229	0.02
253.603	0.03
253.977	0.07
254.35	0.04
254.724	0.03
255.097	0.04
255.471	0.04
255.844	0.05
256.218	0.08
256.591	-0
256.964	0.1
257.338	-0.02
257.711	0.1
258.084	0.06
258.458	0.08
258.831	0.09
259.204	-0.02
259.577	0.05
259.95	0.01
260.323	-0.02
260.697	0.1
261.07	0.03
261.443	-0.01
261.816	-0.02
262.189	0.06
262.562	0.07
262.935	-0.04
263.308	0.03
263.68	0
264.053	-0.01
264.426	0.05
264.799	0.05
265.172	0.06
265.545	-0.02
265.917	0.03
266.29	0.06
266.663	-0.01
267.035	0
267.408	0.02
267.781	-0.01
268.153	0.06
268.526	-0.04
268.898	0.04
269.271	0.03
269.643	-0.02
270.016	0.05
270.388	0.02
270.76	0.04
271.133	-0.02
271.505	0.01
271.877	0.02
272.25	0.03
272.622	0.09
272.994	0.06
273.366	-0.04
273.739	0.05
274.111	0.02
274.483	0.06
274.855	0.02
275.227	-0.02
275.599	0.04
275.971	0.06
276.343	0.05
276.715	0.06
277.087	0.07
277.459	-0.04
277.831	0.06
278.203	0.02
278.574	0.03
278.946	0.07
279.318	0.02
279.69	0.04
280.061	0.06
280.433	0.07
280.805	0.07
281.176	0.05
281.548	0.04
281.92	0
282.291	0.02
282.663	0.03
283.034	0.07
283.406	0.09
283.777	0.06
284.148	0.04
284.52	0.07
284.891	-0.01
285.262	0.08
285.634	0.06
286.005	0.07
286.376	-0.03
286.747	0.05
287.119	0.05
287.49	0.05
287.861	0.11
288.232	0.03
288.603	0.05
288.974	0.01
289.345	0.04
289.716	0.04
290.087	0
290.458	0.03
290.829	0.01
291.2	-0
291.571	0.02
291.941	0.04
292.312	0.09
292.683	0.03
293.054	0.07
293.424	0.03
293.795	0.02
294.166	0.09
294.536	-0
294.907	0.05
295.277	0.04
295.648	0.05
296.018	0.05
296.389	0.04
296.759	0.03
297.13	0.01
297.5	0.04
297.871	0.07
298.241	0.04
298.611	0.03
298.981	0.01
299.352	0.04
299.722	0.01
300.092	0.04
300.462	0.02
300.832	0.01
301.202	0
301.573	0.01
301.943	0.04
302.313	0.01
302.683	0.02
303.053	0.03
303.422	0.02
303.792	0.02
304.162	0.03
304.532	0.03
304.902	0.03
305.272	0.03
305.641	0.03
306.011	0.03
306.381	0.03
306.75	0.04
307.12	0.04
307.49	0.03
307.859	0.04
308.229	0.02
308.598	0.04
308.968	0.04
309.337	0.03
309.707	0.04
310.076	0.04
310.445	0.03
310.815	0.04
311.184	0.04
311.553	0.03
311.923	0.04
312.292	0.04
312.661	0.04
313.03	0.04
313.399	0.04
313.768	0.04
314.137	0.04
314.506	0.03
314.875	0.04
315.244	0.04
315.613	0.04
315.982	0.04
316.351	0.04
316.72	0.03
317.089	0.03
317.458	0.04
317.826	0.03
318.195	0.04
318.564	0.04
318.933	0.04
319.301	0.04
319.67	0.04
320.038	0.03
320.407	0.04
320.775	0.04
321.144	0.04
321.512	0.03
321.881	0.04
322.249	0.04
322.618	0.03
322.986	0.04
323.354	0.03
323.723	0.04
324.091	0.03
324.459	0.04
324.827	0.03
325.195	0.03
325.564	0.03
325.932	0.03
326.3	0.03
326.668	0.02
327.036	0.03
327.404	0.03
327.772	0.02
328.14	0.03
328.508	0.03
328.875	0.03
329.243	0.03
329.611	0.03
329.979	0.03
330.346	0.03
330.714	0.03
331.082	0.03
331.449	0.03
331.817	0.03
332.185	0.03
332.552	0.03
332.92	0.03
333.287	0.03
333.655	0.03
334.022	0.03
334.389	0.02
334.757	0.03
335.124	0.03
335.491	0.03
335.859	0.03
336.226	0.03
336.593	0.03
336.96	0.04
337.327	0.04
337.695	0.03
338.062	0.03
338.429	0.04
338.796	0.04
339.163	0.04
339.53	0.03
339.897	0.04
340.263	0.04
340.63	0.04
340.997	0.04
341.364	0.04
341.731	0.04
342.097	0.04
342.464	0.04
342.831	0.05
343.197	0.04
343.564	0.04
343.931	0.04
344.297	0.05
344.664	0.04
345.03	0.05
345.396	0.04
345.763	0.05
346.129	0.05
346.496	0.04
346.862	0.05
347.228	0.05
347.594	0.05
347.961	0.05
348.327	0.05
348.693	0.06
349.059	0.05
349.425	0.05
349.791	0.06
350.157	0.06
350.523	0.05
350.889	0.06
351.255	0.06
351.621	0.06
351.987	0.06
352.353	0.06
352.719	0.07
353.084	0.07
353.45	0.07
353.816	0.07
354.181	0.07
354.547	0.07
354.913	0.08
355.278	0.07
355.644	0.08
356.009	0.08
356.375	0.08
356.74	0.08
357.106	0.09
357.471	0.09
357.836	0.09
358.202	0.09
358.567	0.09
358.932	0.09
359.297	0.1
359.663	0.1
360.028	0.09
360.393	0.1
360.758	0.1
361.123	0.1
361.488	0.1
361.853	0.11
362.218	0.11
362.583	0.11
362.948	0.11
363.312	0.11
363.677	0.11
364.042	0.12
364.407	0.12
364.772	0.12
365.136	0.12
365.501	0.12
365.865	0.13
366.23	0.13
366.595	0.13
366.959	0.14
367.324	0.14
367.688	0.14
368.052	0.15
368.417	0.15
368.781	0.15
369.145	0.15
369.51	0.15
369.874	0.15
370.238	0.16
370.602	0.15
370.967	0.15
371.331	0.15
371.695	0.15
372.059	0.16
372.423	0.15
372.787	0.15
373.151	0.15
373.515	0.15
373.878	0.15
374.242	0.15
374.606	0.15
374.97	0.15
375.334	0.15
375.697	0.15
376.061	0.15
376.425	0.15
376.788	0.16
377.152	0.16
377.515	0.16
377.879	0.16
378.242	0.17
378.606	0.17
378.969	0.17
379.333	0.17
379.696	0.17
380.059	0.18
380.422	0.18
380.786	0.18
381.149	0.19
381.512	0.19
381.875	0.2
382.238	0.2
382.601	0.21
382.964	0.21
383.327	0.22
383.69	0.22
384.053	0.23
384.416	0.23
384.779	0.24
385.142	0.24
385.504	0.25
385.867	0.25
386.23	0.26
386.593	0.26
386.955	0.26
387.318	0.26
387.68	0.26
388.043	0.26
388.405	0.25
388.768	0.25
389.13	0.25
389.493	0.25
389.855	0.25
390.217	0.24
390.58	0.24
390.942	0.25
391.304	0.25
391.666	0.25
392.028	0.26
392.391	0.26
392.753	0.27
393.115	0.28
393.477	0.29
393.839	0.3
394.201	0.31
394.563	0.33
394.924	0.34
395.286	0.35
395.648	0.37
396.01	0.38
396.371	0.39
396.733	0.4
397.095	0.4
397.456	0.41
397.818	0.41
398.18	0.41
398.541	0.4
398.903	0.39
399.264	0.38
399.625	0.37
399.987	0.35
400.348	0.34
400.709	0.32
401.071	0.3
401.432	0.29
401.793	0.26
402.154	0.25
402.515	0.23
402.876	0.21
403.238	0.2
403.599	0.18
403.96	0.17
404.32	0.16
404.681	0.15
405.042	0.14
405.403	0.12
405.764	0.12
406.125	0.11
406.485	0.11
406.846	0.09
407.207	0.08
407.567	0.08
407.928	0.08
408.288	0.08
408.649	0.07
409.009	0.07
409.37	0.06
409.73	0.06
410.091	0.05
410.451	0.06
410.811	0.05
411.171	0.05
411.532	0.05
411.892	0.04
412.252	0.05
412.612	0.04
412.972	0.04
413.332	0.03
413.692	0.04
414.052	0.03
414.412	0.04
414.772	0.03
415.132	0.03
415.492	0.03
415.851	0.02
416.211	0.03
416.571	0.03
416.931	0.03
417.29	0.03
417.65	0.03
418.009	0.02
418.369	0.03
418.728	0.03
419.088	0.02
419.447	0.02
419.807	0.02
420.166	0.02
420.525	0.02
420.884	0.02
421.244	0.02
421.603	0.02
421.962	0.02
422.321	0.01
422.68	0.02
423.039	0.01
423.398	0.02
423.757	0.02
424.116	0.02
424.475	0.02
424.834	0.01
425.193	0.02
425.551	0.02
425.91	0.02
426.269	0.01
426.628	0.02
426.986	0
427.345	0.01
427.703	0.01
428.062	0.01
428.42	0.01
428.779	0.01
429.137	0.01
429.496	0.01
429.854	0.01
430.212	0.01
430.57	0.02
430.929	0.01
431.287	0.01
431.645	0
432.003	0.01
432.361	0
432.719	0.01
433.077	0.01
433.435	0.01
433.793	0.01
434.151	0.01
434.509	0.01
434.866	0.01
435.224	0
435.582	0.01
435.94	0
436.297	0
436.655	0.01
437.012	0.01
437.37	0.01
437.727	0.01
438.085	0.01
438.442	0.01
438.8	0.01
439.157	0.01
439.514	0
439.872	0
440.229	0.01
440.586	0.01
440.943	0
441.3	0.01
441.657	0.01
442.014	0
442.371	0
442.728	0.01
443.085	-0
443.442	0.01
443.799	0
444.156	-0
444.513	0
444.869	0
445.226	-0
445.583	-0
445.939	-0
446.296	-0
446.652	0
447.009	0.01
447.365	-0
447.722	-0.01
448.078	-0
448.434	0
448.791	-0
449.147	-0
449.503	-0.01
449.859	-0.01
450.215	-0
450.571	-0.01
450.928	-0.01
451.284	-0.01
451.64	-0.01
451.995	-0.01
452.351	-0.01
452.707	-0.01
453.063	-0.01
453.419	-0.01
453.775	-0.01
454.13	-0.01
454.486	-0.02
454.842	-0.01
455.197	-0.02
455.553	-0.01
455.908	-0.03
456.264	-0.03
456.619	-0.02
456.975	-0.03
457.33	-0.03
457.685	-0.02
458.04	-0.03
458.396	-0.04
458.751	-0.04
459.106	-0.04
459.461	-0.04
459.816	-0.04
460.171	-0.05
460.526	-0.04
460.881	-0.05
461.236	-0.05
461.591	-0.06
461.946	-0.05
462.301	-0.06
462.655	-0.05
463.01	-0.05
463.365	-0.06
463.719	-0.06
464.074	-0.06
464.428	-0.07
464.783	-0.08
465.137	-0.08
465.492	-0.07
465.846	-0.07
466.201	-0.08
466.555	-0.09
466.909	-0.08
467.263	-0.08
467.618	-0.07
467.972	-0.08
468.326	-0.07
468.68	-0.08
469.034	-0.08
469.388	-0.09
469.742	-0.08
470.096	-0.08
470.45	-0.08
470.804	-0.08
471.157	-0.08
471.511	-0.08
471.865	-0.08
472.218	-0.08
472.572	-0.08
472.926	-0.08
473.279	-0.08
473.633	-0.07
473.986	-0.08
474.34	-0.07
474.693	-0.06
475.046	-0.06
475.4	-0.06
475.753	-0.06
476.106	-0.05
476.459	-0.05
476.812	-0.05
477.165	-0.04
477.519	-0.04
477.872	-0.04
478.224	-0.04
478.577	-0.04
478.93	-0.03
479.283	-0.03
479.636	-0.03
479.989	-0.03
480.341	-0.03
480.694	-0.02
481.047	-0.03
481.399	-0.03
481.752	-0.02
482.104	-0.02
482.457	-0.02
482.809	-0.02
483.162	-0.02
483.514	-0.02
483.866	-0.02
484.219	-0.01
484.571	-0.02
484.923	-0.02
485.275	-0.02
485.627	-0.01
485.979	-0.01
486.331	-0.01
486.683	-0.02
487.035	-0.01
487.387	-0.01
487.739	-0.01
488.091	-0.01
488.443	-0
488.794	-0
489.146	-0
489.498	-0
489.849	-0
490.201	-0
490.552	0
490.904	-0
491.255	-0
491.607	-0
491.958	-0
492.309	-0
492.661	-0
493.012	0
493.363	-0
493.714	0
494.065	0
494.416	-0
494.767	0
495.118	0
495.469	0
495.82	0
496.171	0
496.522	0
496.872	0
497.223	0.01
497.574	0
497.924	0
498.275	0
498.626	0.01
498.976	0.01
499.327	0.01
499.677	0.01
500.027	0.01
500.378	0.01
500.728	0.01
501.078	0.01
501.428	0.01
501.779	0.01
502.129	0.01
502.479	0.01
502.829	0.01
503.179	0.01
503.529	0.01
503.879	0.01
504.229	0.01
504.578	0.01
504.928	0.02
505.278	0.01
505.628	0.01
505.977	0.01
506.327	0.02
506.676	0.02
507.026	0.02
507.375	0.02
507.725	0.02
508.074	0.02
508.424	0.02
508.773	0.02
509.122	0.02
509.471	0.02
509.82	0.02
510.17	0.02
510.519	0.02
510.868	0.02
511.217	0.02
511.566	0.02
511.915	0.02
512.263	0.02
512.612	0.02
512.961	0.02
513.31	0.02
513.659	0.02
514.007	0.02
514.356	0.02
514.704	0.02
515.053	0.02
515.401	0.03
515.75	0.02
516.098	0.03
516.447	0.03
516.795	0.02
517.143	0.03
517.491	0.03
517.839	0.02
518.188	0.03
518.536	0.03
518.884	0.03
519.232	0.03
519.58	0.03
519.928	0.03
520.275	0.03
520.623	0.03
520.971	0.03
521.319	0.03
521.666	0.03
522.014	0.03
522.362	0.04
522.709	0.03
523.057	0.03
523.404	0.04
523.752	0.03
524.099	0.04
524.446	0.03
524.794	0.03
525.141	0.03
525.488	0.03
525.835	0.04
526.182	0.03
526.529	0.03
526.876	0.04
527.223	0.04
527.57	0.03
527.917	0.04
528.264	0.04
528.611	0.04
528.958	0.04
529.304	0.04
529.651	0.04
529.998	0.03
530.344	0.04
530.691	0.03
531.037	0.04
531.384	0.04
531.73	0.04
532.076	0.04
532.423	0.04
532.769	0.04
533.115	0.04
533.461	0.04
533.807	0.04
534.154	0.04
534.5	0.04
534.846	0.04
535.192	0.04
535.537	0.04
535.883	0.04
536.229	0.04
536.575	0.04
536.921	0.04
537.266	0.04
537.612	0.04
537.957	0.05
538.303	0.05
538.649	0.05
538.994	0.05
539.339	0.05
539.685	0.05
540.03	0.05
540.375	0.05
540.721	0.05
541.066	0.05
541.411	0.05
541.756	0.05
542.101	0.05
542.446	0.05
542.791	0.05
543.136	0.06
543.481	0.06
543.825	0.05
544.17	0.06
544.515	0.06
544.86	0.06
545.204	0.06
545.549	0.06
545.893	0.06
546.238	0.06
546.582	0.06
546.927	0.06
547.271	0.06
547.615	0.06
547.96	0.07
548.304	0.06
548.648	0.07
548.992	0.06
549.336	0.07
549.68	0.07
550.024	0.07
550.368	0.07
550.712	0.07
551.056	0.07
551.4	0.07
551.743	0.07
552.087	0.07
552.431	0.07
552.774	0.07
553.118	0.07
553.462	0.07
553.805	0.07
554.148	0.07
554.492	0.07
554.835	0.07
555.178	0.07
555.522	0.07
555.865	0.07
556.208	0.07
556.551	0.07
556.894	0.07
557.237	0.07
557.58	0.07
557.923	0.07
558.266	0.07
558.609	0.07
558.952	0.07
559.294	0.07
559.637	0.08
559.98	0.07
560.322	0.07
560.665	0.07
561.007	0.07
561.35	0.07
561.692	0.07
562.034	0.07
562.377	0.07
562.719	0.07
563.061	0.07
563.403	0.08
563.745	0.08
564.088	0.08
564.43	0.08
564.772	0.07
565.113	0.08
565.455	0.07
565.797	0.08
566.139	0.08
566.481	0.08
566.822	0.08
567.164	0.08
567.506	0.08
567.847	0.07
568.189	0.08
568.53	0.08
568.872	0.08
569.213	0.08
569.554	0.08
569.895	0.08
570.237	0.08
570.578	0.08
570.919	0.08
571.26	0.08
571.601	0.08
571.942	0.08
572.283	0.08
572.624	0.08
572.965	0.08
573.306	0.08
573.646	0.07
573.987	0.08
574.328	0.08
574.668	0.08
575.009	0.08
575.349	0.08
575.69	0.08
576.03	0.08
576.37	0.08
576.711	0.08
577.051	0.08
577.391	0.08
577.731	0.08
578.072	0.08
578.412	0.08
578.752	0.08
579.092	0.08
579.431	0.08
579.771	0.07
580.111	0.07
580.451	0.08
580.791	0.08
581.13	0.08
581.47	0.08
581.81	0.08
582.149	0.08
582.489	0.08
582.828	0.08
583.167	0.07
583.507	0.06
583.846	0.05
584.185	0.06
584.525	0.07
584.864	0.08
585.203	0.09
585.542	0.09
585.881	0.09
586.22	0.09
586.559	0.08
586.898	0.08
587.236	0.08
587.575	0.08
587.914	0.08
588.252	0.08
588.591	0.09
588.93	0.09
589.268	0.08
589.607	0.08
589.945	0.09
590.283	0.09
590.622	0.09
590.96	0.09
591.298	0.09
591.636	0.09
591.974	0.09
592.313	0.09
592.651	0.09
592.989	0.09
593.326	0.09
593.664	0.09
594.002	0.09
594.34	0.09
594.678	0.09
595.015	0.09
595.353	0.09
595.691	0.09
596.028	0.1
596.366	0.1
596.703	0.1
597.04	0.1
597.378	0.1
597.715	0.1
598.052	0.1
598.389	0.1
598.726	0.1
599.064	0.1
599.401	0.1
599.738	0.1
600.074	0.1
600.411	0.1
600.748	0.1
601.085	0.1
601.422	0.1
601.758	0.1
602.095	0.1
602.432	0.1
602.768	0.1
603.105	0.1
603.441	0.1
603.777	0.11
604.114	0.1
604.45	0.1
604.786	0.1
605.122	0.1
605.459	0.1
605.795	0.1
606.131	0.1
606.467	0.1
606.803	0.1
607.139	0.1
607.474	0.1
607.81	0.1
608.146	0.1
608.482	0.1
608.817	0.1
609.153	0.1
609.488	0.1
609.824	0.1
610.159	0.1
610.495	0.1
610.83	0.1
611.165	0.1
611.5	0.1
611.836	0.1
612.171	0.1
612.506	0.1
612.841	0.1
613.176	0.1
613.511	0.09
613.845	0.09
614.18	0.1
614.515	0.1
614.85	0.09
615.184	0.09
615.519	0.09
615.854	0.09
616.188	0.09
616.523	0.09
616.857	0.09
617.191	0.09
617.526	0.09
617.86	0.09
618.194	0.1
618.528	0.09
618.862	0.09
619.196	0.09
619.53	0.09
619.864	0.09
620.198	0.09
620.532	0.09
620.866	0.09
621.2	0.09
621.533	0.09
621.867	0.09
622.201	0.09
622.534	0.09
622.868	0.09
623.201	0.09
623.534	0.09
623.868	0.09
624.201	0.08
624.534	0.09
624.868	0.09
625.201	0.08
625.534	0.08
625.867	0.09
626.2	0.08
626.533	0.08
626.865	0.08
627.198	0.08
627.531	0.08
627.864	0.08
628.196	0.08
628.529	0.08
628.862	0.08
629.194	0.08
629.527	0.08
629.859	0.07
630.191	0.07
630.524	0.07
630.856	0.07
631.188	0.07
631.52	0.07
631.852	0.07
632.184	0.07
632.516	0.07
632.848	0.07
633.18	0.07
633.512	0.07
633.844	0.07
634.175	0.07
634.507	0.06
634.839	0.06
635.17	0.06
635.502	0.07
635.833	0.06
636.165	0.06
636.496	0.06
636.827	0.06
637.159	0.06
637.49	0.06
637.821	0.06
638.152	0.05
638.483	0.06
638.814	0.05
639.145	0.06
639.476	0.05
639.807	0.05
640.137	0.05
640.468	0.05
640.799	0.05
641.129	0.05
641.46	0.05
641.791	0.05
642.121	0.05
642.451	0.05
642.782	0.05
643.112	0.05
643.442	0.05
643.773	0.05
644.103	0.05
644.433	0.05
644.763	0.05
645.093	0.05
645.423	0.05
645.753	0.05
646.082	0.05
646.412	0.05
646.742	0.05
647.072	0.05
647.401	0.04
647.731	0.05
648.06	0.05
648.39	0.05
648.719	0.05
649.048	0.05
649.378	0.04
649.707	0.04
650.036	0.04
650.365	0.04
650.694	0.04
651.023	0.05
651.352	0.04
651.681	0.04
652.01	0.04
652.339	0.04
652.668	0.04
652.996	0.04
653.325	0.04
653.654	0.04
653.982	0.04
654.311	0.04
654.639	0.04
654.967	0.04
655.296	0.04
655.624	0.04
655.952	0.05
656.28	0.05
656.609	0.04
656.937	0.04
657.265	0.03
657.593	0.02
657.92	-0
658.248	-0
658.576	0
658.904	0
659.231	0.02
659.559	0.05
659.887	0.05
660.214	0.05
660.542	0.04
660.869	0.04
661.196	0.05
661.524	0.04
661.851	0.04
662.178	0.04
662.505	0.04
662.832	0.04
663.159	0.04
663.486	0.04
663.813	0.04
664.14	0.04
664.467	0.04
664.794	0.04
665.12	0.04
665.447	0.03
665.774	0.04
666.1	0.04
666.427	0.04
666.753	0.04
667.079	0.04
667.406	0.03
667.732	0.03
668.058	0.04
668.384	0.03
668.71	0.03
669.036	0.03
669.362	0.03
669.688	0.03
670.014	0.03
670.34	0.04
670.666	0.03
670.991	0.03
671.317	0.03
671.643	0.03
671.968	0.03
672.294	0.03
672.619	0.03
672.945	0.03
673.27	0.03
673.595	0.03
673.92	0.03
674.246	0.03
674.571	0.03
674.896	0.03
675.221	0.03
675.546	0.03
675.87	0.03
676.195	0.03
676.52	0.03
676.845	0.03
677.169	0.03
677.494	0.03
677.819	0.03
678.143	0.03
678.468	0.03
678.792	0.03
679.116	0.03
679.44	0.03
679.765	0.02
680.089	0.02
680.413	0.02
680.737	0.02
681.061	0.02
681.385	0.02
681.709	0.02
682.033	0.02
682.356	0.02
682.68	0.02
683.004	0.02
683.327	0.02
683.651	0.01
683.974	0.01
684.298	0.02
684.621	0.02
684.944	0.01
685.268	0.02
685.591	0.02
685.914	0.01
686.237	0.01
686.56	0.01
686.883	0.01
687.206	0.01
687.529	0.01
687.852	0.02
688.175	0.02
688.497	0.02
688.82	0.01
689.142	0.01
689.465	0.01
689.787	0.01
690.11	0.01
690.432	0.01
690.755	0.01
691.077	0.01
691.399	0.01
691.721	0.01
692.043	0.01
692.365	0.01
692.687	0.01
693.009	0.01
693.331	0.01
693.653	0.01
693.974	0.01
694.296	0.01
694.618	0.01
694.939	0
695.261	0
695.582	0
695.904	0
696.225	0
696.546	0
696.868	0.01
697.189	0
697.51	-0
697.831	-0
698.152	-0
698.473	-0
698.794	-0
699.114	-0
699.435	0
699.756	0
700.077	0
700.397	0
700.718	-0
701.038	-0
701.359	-0
701.679	-0
701.999	-0
702.32	-0.01
702.64	-0
702.96	-0.01
703.28	-0
703.6	-0.01
703.92	-0
704.24	-0.01
704.56	-0
704.879	-0
705.199	-0
705.519	-0
705.838	-0.01
706.158	-0.01
706.478	-0.01
706.797	-0.01
707.116	-0.01
707.436	-0.01
707.755	-0.01
708.074	-0.01
708.393	-0.01
708.712	-0.01
709.031	-0.01
709.35	-0.01
709.669	-0.01
709.988	-0
710.307	-0.01
710.626	-0
710.944	-0
711.263	-0
711.582	-0.01
711.9	-0.01
712.219	-0.01
712.537	-0.01
712.855	-0
713.174	-0
713.492	-0.01
713.81	-0
714.128	-0.01
714.446	-0
714.764	-0
715.082	-0.01
715.4	-0.01
715.718	-0.01
716.035	-0.01
716.353	-0.01
716.671	-0.01
716.988	-0.01
717.306	-0.01
717.623	-0.01
717.941	-0
718.258	-0
718.575	-0
718.893	-0
719.21	0
719.527	-0
719.844	-0
720.161	-0
720.478	0
720.795	-0
721.112	-0
721.428	0
721.745	-0
722.062	-0
722.378	-0
722.695	-0
723.011	-0
723.328	-0.01
723.644	-0.01
723.96	-0
724.276	-0.01
724.593	-0.01
724.909	-0.01
725.225	-0.01
725.541	-0.01
725.857	-0.01
726.173	-0.01
726.488	-0
726.804	-0
727.12	-0
727.435	-0.01
727.751	-0
728.067	0
728.382	-0
728.697	0
729.013	0
729.328	0
729.643	0
729.958	-0
730.273	-0
730.588	-0
730.903	-0
731.218	-0
731.533	-0
731.848	-0
732.163	-0
732.477	-0.01
732.792	-0.01
733.107	-0
733.421	-0
733.736	-0
734.05	-0
734.364	-0.01
734.678	-0
734.993	-0
735.307	-0
735.621	-0
735.935	-0
736.249	-0
736.563	-0
736.877	-0
737.19	-0.01
737.504	-0
737.818	-0
738.131	-0
738.445	-0
738.758	-0
739.072	-0
739.385	-0
739.698	-0.01
740.012	-0.01
740.325	-0.01
740.638	-0.01
740.951	-0.01
741.264	-0.01
741.577	-0
741.89	-0
742.203	-0.01
742.515	-0
742.828	-0.01
743.141	-0.01
743.453	-0.01
743.766	-0.01
744.078	-0.01
744.391	-0.01
744.703	-0.01
745.015	-0.01
745.327	-0.01
745.639	-0.01
745.952	-0.01
746.264	-0.01
746.575	-0.01
746.887	-0.01
747.199	-0.01
747.511	-0.02
747.823	-0.01
748.134	-0.01
748.446	-0.01
748.757	-0.01
749.069	-0.01
749.38	-0.01
749.692	-0.01
750.003	-0.01
750.314	-0.01
750.625	-0.01
750.936	-0.01
751.248	-0.01
751.559	-0.01
751.869	-0.01
752.18	-0.02
752.491	-0.02
752.802	-0.01
753.112	-0.02
753.423	-0.02
753.734	-0.02
754.044	-0.02
754.355	-0.02
754.665	-0.02
754.975	-0.02
755.285	-0.02
755.596	-0.01
755.906	-0.01
756.216	-0.01
756.526	-0.02
756.836	-0.01
757.146	-0.01
757.455	-0.01
757.765	-0.01
758.075	-0.02
758.385	-0.02
758.694	-0.02
759.004	-0.02
759.313	-0.02
759.622	-0.02
759.932	-0.02
760.241	-0.02
760.55	-0.01
760.859	-0.02
761.168	-0.02
761.477	-0.02
761.786	-0.02
762.095	-0.02
762.404	-0.02
762.713	-0.02
763.021	-0.02
763.33	-0.02
763.639	-0.02
763.947	-0.02
764.256	-0.02
764.564	-0.02
764.872	-0.02
765.181	-0.02
765.489	-0.02
765.797	-0.02
766.105	-0.03
766.413	-0.03
766.721	-0.03
767.029	-0.03
767.337	-0.03
767.644	-0.03
767.952	-0.03
768.26	-0.03
768.567	-0.03
768.875	-0.03
769.182	-0.03
769.49	-0.03
769.797	-0.03
770.104	-0.03
770.411	-0.03
770.718	-0.03
771.026	-0.03
771.333	-0.03
771.639	-0.03
771.946	-0.03
772.253	-0.03
772.56	-0.03
772.867	-0.03
773.173	-0.03
773.48	-0.03
773.786	-0.02
774.093	-0.02
774.399	-0.02
774.705	-0.02
775.012	-0.02
775.318	-0.02
775.624	-0.02
775.93	-0.02
776.236	-0.02
776.542	-0.02
776.848	-0.02
777.154	-0.02
777.459	-0.02
777.765	-0.02
778.071	-0.02
778.376	-0.03
778.682	-0.03
778.987	-0.03
779.292	-0.03
779.598	-0.03
779.903	-0.03
780.208	-0.03
780.513	-0.03
780.818	-0.03
781.123	-0.03
781.428	-0.03
781.733	-0.02
782.038	-0.03
782.343	-0.03
782.647	-0.03
782.952	-0.02
783.256	-0.02
783.561	-0.02
783.865	-0.02
784.17	-0.02
784.474	-0.02
784.778	-0.02
785.082	-0.02
785.386	-0.02
785.69	-0.02
785.994	-0.02
786.298	-0.02
786.602	-0.03
786.906	-0.03
787.209	-0.03
787.513	-0.03
787.817	-0.03
788.12	-0.03
788.424	-0.03
788.727	-0.03
789.03	-0.03
789.333	-0.03
789.637	-0.03
789.94	-0.03
790.243	-0.03
790.546	-0.03
790.849	-0.03
791.152	-0.03
791.454	-0.03
791.757	-0.03
792.06	-0.03
792.362	-0.03
792.665	-0.03
792.967	-0.03
793.27	-0.03
793.572	-0.03
793.874	-0.03
794.177	-0.03
794.479	-0.03
794.781	-0.03
795.083	-0.03
795.385	-0.02
795.687	-0.03
795.989	-0.02
796.29	-0.02
796.592	-0.02
796.894	-0.02
797.195	-0.02
797.497	-0.02
797.798	-0.02
798.1	-0.03
798.401	-0.03
798.702	-0.03
799.003	-0.03
799.304	-0.03
799.605	-0.03
799.906	-0.03
800.207	-0.03
800.508	-0.03
800.809	-0.03
801.11	-0.03
801.41	-0.03
801.711	-0.03
802.011	-0.03
802.312	-0.03
802.612	-0.03
802.913	-0.03
803.213	-0.03
803.513	-0.03
803.813	-0.03
804.113	-0.03
804.413	-0.03
804.713	-0.03
805.013	-0.03
805.313	-0.04
805.613	-0.03
805.912	-0.03
806.212	-0.03
806.511	-0.03
806.811	-0.02
807.11	-0.03
807.41	-0.03
807.709	-0.03
808.008	-0.03
808.307	-0.03
808.606	-0.02
808.905	-0.02
809.204	-0.02
809.503	-0.01
809.802	-0.01
810.101	-0.01
810.399	-0.01
810.698	-0.01
810.997	-0.01
811.295	-0.01
811.593	-0.02
811.892	-0.02
812.19	-0.02
812.488	-0.02
812.786	-0.02
813.084	-0.01
813.383	-0.02
813.68	-0.01
813.978	-0.01
814.276	-0.01
814.574	-0.01
814.872	-0.01
815.169	-0.01
815.467	-0.01
815.764	-0.02
816.062	-0.02
816.359	-0.02
816.656	-0.01
816.954	-0.02
817.251	-0.02
817.548	-0.02
817.845	-0.02
818.142	-0.02
818.439	-0.02
818.735	-0.02
819.032	-0.02
819.329	-0.02
819.626	-0.02
819.922	-0.02
820.219	-0.02
820.515	-0.02
820.811	-0.02
821.108	-0.02
821.404	-0.03
821.7	-0.02
821.996	-0.02
822.292	-0.02
822.588	-0.02
822.884	-0.02
823.18	-0.02
823.475	-0.02
823.771	-0.02
824.067	-0.01
824.362	-0.03
824.658	-0.02
824.953	-0.02
825.249	-0.02
825.544	-0.02
825.839	-0.02
826.134	-0.02
826.429	-0.02
826.724	-0.02
827.019	-0.02
827.314	-0.02
827.609	-0.02
827.904	-0.02
828.198	-0.01
828.493	-0.01
828.787	-0
829.082	-0.01
829.376	-0.01
829.671	-0.01
829.965	-0.01
830.259	-0.01
830.553	-0.01
830.847	-0.01
831.141	-0.01
831.435	-0.02
831.729	-0.01
832.023	-0.02
832.317	-0.02
832.61	-0.02
832.904	-0.02
833.197	-0.01
833.491	-0.02
833.784	-0.02
834.077	-0.02
834.371	-0.01
834.664	-0.02
834.957	-0.01
835.25	-0.01
835.543	-0
835.836	-0.01
836.129	-0.01
836.421	-0.02
836.714	-0.02
837.007	-0.02
837.299	-0.01
837.592	-0.02
837.884	-0
838.177	-0.01
838.469	-0.01
838.761	-0.01
839.053	-0.01
839.345	-0.02
839.637	-0.01
839.929	-0.02
840.221	-0.01
840.513	-0.01
840.805	-0.02
841.096	-0.02
841.388	0
841.68	-0.01
841.971	-0.01
842.262	-0.01
842.554	-0.01
842.845	-0.01
843.136	-0.02
843.427	-0.01
843.718	-0.01
844.009	-0.01
844.3	-0
844.591	-0.01
844.882	-0
845.173	-0
845.463	-0.01
845.754	-0
846.044	-0.01
846.335	-0
846.625	-0
846.915	-0.01
847.206	-0.01
847.496	-0.01
847.786	-0.01
848.076	-0.01
848.366	0
848.656	0
848.945	-0.01
849.235	-0.01
849.525	-0.01
849.814	-0.01
850.104	-0
850.393	0.01
850.683	-0.01
850.972	0
851.261	0.01
851.551	0
851.84	0
852.129	0.01
852.418	0.01
852.707	-0
852.995	0.01
853.284	0.01
853.573	-0.01
853.862	-0
854.15	0
854.439	0
854.727	-0.01
855.015	-0
855.304	0.01
855.592	0
855.88	0.01
856.168	0
856.456	-0.01
856.744	-0
857.032	0.01
857.32	0
857.607	0
857.895	0.01
858.183	0.02
858.47	0
858.757	-0
859.045	0.01
859.332	-0.01
859.619	0.02
859.907	0
860.194	0.02
860.481	0.01
860.768	0.01
861.054	0.01
861.341	0.01
861.628	0.02
861.915	-0
862.201	-0
862.488	0.01
862.774	-0.01
863.061	0
863.347	-0.01
863.633	0
863.919	0.03
864.205	0
864.491	0.01
864.777	-0
865.063	0.02
865.349	0.04
865.635	0.03
865.92	0.01
866.206	0.03
866.492	0.02
866.777	0
867.062	0.02
867.348	0.02
867.633	0.01
867.918	0.02
868.203	0
868.488	-0.01
868.773	0.02
869.058	-0.01
869.343	0.01
869.628	-0
869.912	0
870.197	0.03
870.482	-0
870.766	0.02
871.05	0.01
871.335	0.02
871.619	-0.02
871.903	-0.03
872.187	0.04
872.471	0.04
872.755	0.06
873.039	-0.05
873.323	0.02
873.607	0.03
873.89	0.02
874.174	0.01
874.458	0.04
874.741	0.02
875.024	0.02
875.308	-0.05
875.591	0.05
875.874	0.06
876.157	0.01
876.44	0.02
876.723	-0.01
877.006	0.01
877.289	0.04
877.572	0.06
877.854	0.02
878.137	0.02
878.42	-0
878.702	-0.01
878.984	0.07
879.267	0.06
879.549	-0.03
879.831	0.05
880.113	0.05
880.395	-0.06
880.677	0.05
880.959	0.12
