Data from Rubpy_EV_600_EDTA_Absorbance_11-57-57-460.txt Node
Date: Mon Jun 29 11:57:57 BST 2026
User: fpm-admin
Spectrometer: OFX00224
Trigger mode: 0
Integration Time (sec): 7.000000E-2
Scans to average: 3
Nonlinearity correction enabled: false
Boxcar width: 0
Storing dark spectrum: false
XAxis mode: Wavelengths
Number of Pixels in Spectrum: 2136
>>>>>Begin Spectral Data<<<<<
154.91	0.06
155.289	-0.24
155.669	-0
156.048	0.17
156.428	0.13
156.807	0.27
157.186	-1.65
157.566	-0.23
157.945	0.12
158.325	-0
158.704	-0.43
159.083	-0.07
159.462	-0.5
159.842	-0
160.221	-0
160.6	-0
160.979	-0
161.359	-1
161.738	-0
162.117	1
162.496	-0
162.875	-0
163.254	-0.46
163.633	0.3
164.012	-0.52
164.391	-0
164.77	-0
165.149	-0
165.528	-0
165.907	-0.69
166.286	-0.9
166.665	-0
167.044	-0
167.423	-0.14
167.802	0.22
168.181	0.3
168.559	-0.33
168.938	-0.36
169.317	-0
169.696	-0
170.074	1.08
170.453	-0.24
170.832	-0
171.21	0.38
171.589	-0
171.968	-0
172.346	0.34
172.725	-0
173.103	0.68
173.482	-0.19
173.861	-0
174.239	0.53
174.617	-0
174.996	0.15
175.374	-0
175.753	-0.27
176.131	-0.07
176.51	-0.48
176.888	-0
177.266	-0
177.645	-0.06
178.023	0.48
178.401	0.19
178.779	0.01
179.158	0.36
179.536	-0.43
179.914	-0.28
180.292	-1.28
180.67	-0
181.048	-0.9
181.427	-0
181.805	-0.1
182.183	-0
182.561	0.07
182.939	-0
183.317	-0.18
183.695	-0.11
184.073	-0
184.451	-0.07
184.829	-1.12
185.206	0.43
185.584	-0
185.962	-0
186.34	-0
186.718	-0
187.096	0.27
187.473	-0.25
187.851	-0
188.229	-0
188.607	-0.03
188.984	-0.02
189.362	0.01
189.74	0.04
190.117	0.1
190.495	0.06
190.872	0.02
191.25	0.05
191.627	-0.05
192.005	0.04
192.382	0.07
192.76	-0.03
193.137	-0.02
193.515	-0.03
193.892	-0.02
194.269	-0
194.647	-0.09
195.024	-0.02
195.401	-0.05
195.779	0.04
196.156	-0.01
196.533	0
196.91	0.03
197.288	-0.06
197.665	0.16
198.042	-0.01
198.419	-0.03
198.796	-0.01
199.173	-0.01
199.55	-0.01
199.927	-0.02
200.304	-0.05
200.681	0.03
201.058	0.07
201.435	0.13
201.812	0.09
202.189	-0.03
202.566	-0
202.943	0.03
203.32	0.09
203.697	-0.02
204.073	0.04
204.45	0.03
204.827	0.03
205.204	-0.09
205.58	-0.04
205.957	0.07
206.334	0.06
206.71	0.01
207.087	0.08
207.464	-0.02
207.84	-0.01
208.217	-0.05
208.593	0.13
208.97	0.05
209.346	-0.01
209.723	-0.03
210.099	0.02
210.476	-0.03
210.852	-0.08
211.228	0.01
211.605	-0.02
211.981	-0.02
212.357	0.03
212.733	0.12
213.11	0.06
213.486	0.02
213.862	0.06
214.238	0.06
214.614	-0.03
214.991	-0.07
215.367	0.06
215.743	-0.02
216.119	0.06
216.495	0.08
216.871	-0.08
217.247	0.13
217.623	0.05
217.999	0.04
218.375	-0.01
218.751	0.05
219.127	0.14
219.502	0.03
219.878	0.05
220.254	0.02
220.63	-0.08
221.006	-0.06
221.381	0.01
221.757	0.09
222.133	0.01
222.508	-0
222.884	0.07
223.26	-0.03
223.635	-0.03
224.011	-0
224.386	0.02
224.762	0
225.137	0.04
225.513	0.07
225.888	0.07
226.264	0.04
226.639	0.03
227.014	0.02
227.39	0.04
227.765	0.03
228.14	-0
228.516	-0.01
228.891	-0.08
229.266	0.01
229.641	-0.13
230.017	-0.01
230.392	0.01
230.767	-0
231.142	0.01
231.517	0.05
231.892	0.06
232.267	0.06
232.642	-0.06
233.017	-0.01
233.392	0.13
233.767	0.01
234.142	-0
234.517	0.07
234.892	0.05
235.267	-0.09
235.641	-0.01
236.016	0.1
236.391	0.05
236.766	0.03
237.14	0.09
237.515	0.06
237.89	0.01
238.264	0.01
238.639	-0.05
239.014	0.08
239.388	0.02
239.763	-0
240.137	-0.02
240.512	-0.02
240.886	0.03
241.261	-0
241.635	0.05
242.009	0.03
242.384	-0.02
242.758	0.06
243.132	-0.04
243.507	0.02
243.881	0.03
244.255	0.04
244.629	0.06
245.004	0.04
245.378	0.03
245.752	0
246.126	0.04
246.5	-0.03
246.874	0.08
247.248	0.01
247.622	0.01
247.996	0.03
248.37	0.05
248.744	0
249.118	-0.03
249.492	0.01
249.866	-0.03
250.24	-0.04
250.613	0.04
250.987	-0
251.361	0.05
251.735	0.02
252.108	0.02
252.482	0.01
252.856	-0
253.229	0.06
253.603	0.05
253.977	0.06
254.35	0.06
254.724	0.01
255.097	-0.01
255.471	0.03
255.844	0.03
256.218	0.04
256.591	0.03
256.964	0.05
257.338	-0.01
257.711	0.06
258.084	0.09
258.458	0.04
258.831	0.08
259.204	0.02
259.577	0.05
259.95	-0.03
260.323	0.01
260.697	0.05
261.07	0.05
261.443	-0.03
261.816	-0.02
262.189	0.09
262.562	0.03
262.935	-0
263.308	0.03
263.68	0.02
264.053	-0.03
264.426	-0.01
264.799	0.03
265.172	0.05
265.545	-0.01
265.917	0.04
266.29	0.04
266.663	-0.03
267.035	0.02
267.408	-0.01
267.781	-0
268.153	0.03
268.526	-0.01
268.898	0.02
269.271	0.02
269.643	0.09
270.016	0.04
270.388	-0.01
270.76	0.07
271.133	0.02
271.505	0.03
271.877	0.04
272.25	0.03
272.622	0.11
272.994	0.06
273.366	0.01
273.739	0.06
274.111	0.03
274.483	0.03
274.855	0.03
275.227	-0.02
275.599	0.01
275.971	0.08
276.343	0.03
276.715	0.08
277.087	0.07
277.459	-0.05
277.831	0.01
278.203	-0.02
278.574	0.06
278.946	0.02
279.318	0.04
279.69	0.02
280.061	0.03
280.433	0.01
280.805	0.03
281.176	0.04
281.548	-0.02
281.92	-0.03
282.291	-0.02
282.663	0.03
283.034	0.01
283.406	0.05
283.777	-0.01
284.148	-0.02
284.52	0.02
284.891	-0.02
285.262	-0.01
285.634	0.01
286.005	0.03
286.376	0
286.747	0.02
287.119	-0.01
287.49	0.07
287.861	0.02
288.232	0.02
288.603	0.04
288.974	-0.03
289.345	0
289.716	-0
290.087	-0.01
290.458	0.04
290.829	-0.02
291.2	-0.02
291.571	-0.02
291.941	0.02
292.312	0.02
292.683	-0.02
293.054	0.04
293.424	-0.01
293.795	-0
294.166	0.03
294.536	-0.01
294.907	0.05
295.277	0.04
295.648	0.03
296.018	0.01
296.389	0.02
296.759	0.01
297.13	0.03
297.5	0.03
297.871	0.04
298.241	0.03
298.611	-0
298.981	-0.01
299.352	0.01
299.722	0.01
300.092	0.04
300.462	0.02
300.832	0.02
301.202	-0
301.573	0
301.943	0.02
302.313	-0.01
302.683	-0
303.053	0.01
303.422	0.01
303.792	0
304.162	0.02
304.532	0.01
304.902	0.02
305.272	0.02
305.641	0.01
306.011	0.02
306.381	0.01
306.75	0.01
307.12	0.02
307.49	0.01
307.859	0.01
308.229	0.01
308.598	0.02
308.968	0.02
309.337	0.01
309.707	0.02
310.076	0.01
310.445	0.01
310.815	0.02
311.184	0.01
311.553	0.02
311.923	0.02
312.292	0.02
312.661	0.01
313.03	0.02
313.399	0.01
313.768	0.01
314.137	0.02
314.506	0.01
314.875	0.02
315.244	0.02
315.613	0.02
315.982	0.02
316.351	0.01
316.72	0.01
317.089	0.02
317.458	0.01
317.826	0.02
318.195	0.01
318.564	0.01
318.933	0.01
319.301	0.02
319.67	0.01
320.038	0.01
320.407	0.02
320.775	0.01
321.144	0.01
321.512	0.01
321.881	0.02
322.249	0.02
322.618	0.01
322.986	0.01
323.354	0.02
323.723	0.01
324.091	0.01
324.459	0.02
324.827	0.01
325.195	0.01
325.564	0.01
325.932	0.01
326.3	0.01
326.668	0
327.036	0.02
327.404	0.01
327.772	0.01
328.14	0.01
328.508	0.01
328.875	0.01
329.243	0.01
329.611	0.01
329.979	0.01
330.346	0.02
330.714	0.01
331.082	0.01
331.449	0.02
331.817	0.01
332.185	0.01
332.552	0.01
332.92	0.01
333.287	0.01
333.655	0.01
334.022	0.01
334.389	0.01
334.757	0.01
335.124	0.01
335.491	0.01
335.859	0.01
336.226	0.01
336.593	0.01
336.96	0.01
337.327	0.01
337.695	0.01
338.062	0.02
338.429	0.01
338.796	0.01
339.163	0.02
339.53	0.02
339.897	0.01
340.263	0.01
340.63	0.02
340.997	0.01
341.364	0.02
341.731	0.01
342.097	0.01
342.464	0.02
342.831	0.02
343.197	0.01
343.564	0.01
343.931	0.01
344.297	0.02
344.664	0.01
345.03	0.02
345.396	0.02
345.763	0.02
346.129	0.02
346.496	0.01
346.862	0.02
347.228	0.02
347.594	0.02
347.961	0.02
348.327	0.02
348.693	0.02
349.059	0.02
349.425	0.02
349.791	0.02
350.157	0.02
350.523	0.02
350.889	0.02
351.255	0.02
351.621	0.02
351.987	0.02
352.353	0.03
352.719	0.03
353.084	0.02
353.45	0.02
353.816	0.02
354.181	0.03
354.547	0.03
354.913	0.03
355.278	0.03
355.644	0.03
356.009	0.03
356.375	0.03
356.74	0.03
357.106	0.03
357.471	0.03
357.836	0.03
358.202	0.03
358.567	0.03
358.932	0.03
359.297	0.03
359.663	0.04
360.028	0.03
360.393	0.04
360.758	0.04
361.123	0.03
361.488	0.03
361.853	0.04
362.218	0.04
362.583	0.04
362.948	0.04
363.312	0.04
363.677	0.04
364.042	0.04
364.407	0.04
364.772	0.04
365.136	0.04
365.501	0.04
365.865	0.05
366.23	0.05
366.595	0.05
366.959	0.05
367.324	0.05
367.688	0.05
368.052	0.05
368.417	0.05
368.781	0.05
369.145	0.05
369.51	0.05
369.874	0.05
370.238	0.06
370.602	0.06
370.967	0.06
371.331	0.05
371.695	0.05
372.059	0.05
372.423	0.05
372.787	0.06
373.151	0.05
373.515	0.06
373.878	0.05
374.242	0.06
374.606	0.05
374.97	0.06
375.334	0.06
375.697	0.06
376.061	0.06
376.425	0.05
376.788	0.05
377.152	0.05
377.515	0.06
377.879	0.06
378.242	0.06
378.606	0.06
378.969	0.06
379.333	0.06
379.696	0.06
380.059	0.07
380.422	0.06
380.786	0.07
381.149	0.06
381.512	0.07
381.875	0.07
382.238	0.07
382.601	0.07
382.964	0.07
383.327	0.08
383.69	0.08
384.053	0.08
384.416	0.08
384.779	0.08
385.142	0.09
385.504	0.09
385.867	0.09
386.23	0.09
386.593	0.09
386.955	0.09
387.318	0.09
387.68	0.09
388.043	0.09
388.405	0.09
388.768	0.09
389.13	0.09
389.493	0.09
389.855	0.09
390.217	0.08
390.58	0.09
390.942	0.09
391.304	0.09
391.666	0.09
392.028	0.09
392.391	0.09
392.753	0.1
393.115	0.1
393.477	0.1
393.839	0.11
394.201	0.11
394.563	0.11
394.924	0.12
395.286	0.12
395.648	0.13
396.01	0.13
396.371	0.14
396.733	0.14
397.095	0.14
397.456	0.15
397.818	0.14
398.18	0.14
398.541	0.14
398.903	0.14
399.264	0.14
399.625	0.13
399.987	0.12
400.348	0.12
400.709	0.12
401.071	0.11
401.432	0.1
401.793	0.1
402.154	0.09
402.515	0.08
402.876	0.07
403.238	0.07
403.599	0.07
403.96	0.06
404.32	0.06
404.681	0.06
405.042	0.05
405.403	0.04
405.764	0.05
406.125	0.04
406.485	0.04
406.846	0.03
407.207	0.03
407.567	0.03
407.928	0.03
408.288	0.03
408.649	0.03
409.009	0.02
409.37	0.02
409.73	0.02
410.091	0.01
410.451	0.02
410.811	0.02
411.171	0.02
411.532	0.02
411.892	0.02
412.252	0.02
412.612	0.01
412.972	0.01
413.332	0.01
413.692	0.01
414.052	0.01
414.412	0.01
414.772	0.01
415.132	0.01
415.492	0
415.851	0.01
416.211	0.01
416.571	0.01
416.931	0.01
417.29	0.01
417.65	0.01
418.009	0.01
418.369	0.01
418.728	0.01
419.088	0
419.447	0.01
419.807	0.01
420.166	0
420.525	0.01
420.884	0.01
421.244	0.01
421.603	0
421.962	0.01
422.321	0.01
422.68	0
423.039	0
423.398	0.01
423.757	0
424.116	0.01
424.475	0.01
424.834	-0
425.193	0
425.551	0.01
425.91	0.01
426.269	0
426.628	0.01
426.986	-0
427.345	0
427.703	0.01
428.062	-0
428.42	0
428.779	0
429.137	-0
429.496	0
429.854	0
430.212	-0
430.57	0.01
430.929	0
431.287	0
431.645	-0
432.003	0
432.361	-0
432.719	0.01
433.077	-0
433.435	0.01
433.793	0
434.151	0
434.509	0
434.866	0
435.224	-0
435.582	-0
435.94	-0
436.297	-0
436.655	0.01
437.012	-0
437.37	-0
437.727	-0
438.085	-0
438.442	0
438.8	-0
439.157	0
439.514	-0.01
439.872	-0.01
440.229	0
440.586	-0
440.943	-0
441.3	-0
441.657	-0
442.014	-0.01
442.371	-0.01
442.728	-0
443.085	0
443.442	-0
443.799	-0
444.156	0
444.513	0
444.869	0
445.226	-0.01
445.583	-0
445.939	-0.01
446.296	0
446.652	0
447.009	-0
447.365	-0.01
447.722	-0.01
448.078	-0.01
448.434	-0
448.791	-0.01
449.147	-0
449.503	-0.01
449.859	-0.01
450.215	-0.01
450.571	-0.01
450.928	-0.02
451.284	-0.01
451.64	-0.01
451.995	-0.02
452.351	-0.01
452.707	-0.01
453.063	-0.01
453.419	-0.02
453.775	-0.02
454.13	-0.02
454.486	-0.03
454.842	-0.02
455.197	-0.02
455.553	-0.02
455.908	-0.03
456.264	-0.03
456.619	-0.03
456.975	-0.03
457.33	-0.03
457.685	-0.03
458.04	-0.02
458.396	-0.03
458.751	-0.05
459.106	-0.04
459.461	-0.04
459.816	-0.04
460.171	-0.04
460.526	-0.05
460.881	-0.05
461.236	-0.05
461.591	-0.05
461.946	-0.05
462.301	-0.06
462.655	-0.05
463.01	-0.05
463.365	-0.06
463.719	-0.06
464.074	-0.07
464.428	-0.07
464.783	-0.07
465.137	-0.08
465.492	-0.08
465.846	-0.07
466.201	-0.07
466.555	-0.08
466.909	-0.08
467.263	-0.08
467.618	-0.07
467.972	-0.07
468.326	-0.08
468.68	-0.07
469.034	-0.08
469.388	-0.09
469.742	-0.09
470.096	-0.08
470.45	-0.08
470.804	-0.08
471.157	-0.08
471.511	-0.09
471.865	-0.08
472.218	-0.08
472.572	-0.08
472.926	-0.08
473.279	-0.08
473.633	-0.07
473.986	-0.07
474.34	-0.07
474.693	-0.07
475.046	-0.07
475.4	-0.06
475.753	-0.06
476.106	-0.05
476.459	-0.06
476.812	-0.04
477.165	-0.05
477.519	-0.05
477.872	-0.04
478.224	-0.04
478.577	-0.04
478.93	-0.04
479.283	-0.04
479.636	-0.04
479.989	-0.04
480.341	-0.03
480.694	-0.03
481.047	-0.03
481.399	-0.04
481.752	-0.03
482.104	-0.03
482.457	-0.03
482.809	-0.03
483.162	-0.03
483.514	-0.03
483.866	-0.02
484.219	-0.02
484.571	-0.02
484.923	-0.02
485.275	-0.02
485.627	-0.02
485.979	-0.02
486.331	-0.02
486.683	-0.02
487.035	-0.02
487.387	-0.02
487.739	-0.01
488.091	-0.01
488.443	-0.01
488.794	-0.01
489.146	-0.01
489.498	-0.01
489.849	-0.01
490.201	-0.01
490.552	-0.01
490.904	-0.01
491.255	-0.01
491.607	-0.02
491.958	-0.01
492.309	-0.01
492.661	-0.01
493.012	-0.01
493.363	-0.02
493.714	-0.01
494.065	-0.01
494.416	-0.01
494.767	-0.01
495.118	-0.01
495.469	-0.01
495.82	-0.01
496.171	-0.01
496.522	-0.01
496.872	-0.01
497.223	-0.01
497.574	-0.01
497.924	-0.01
498.275	-0.01
498.626	-0
498.976	-0
499.327	-0
499.677	-0
500.027	-0
500.378	-0.01
500.728	-0.01
501.078	-0.01
501.428	-0
501.779	0
502.129	-0
502.479	-0
502.829	-0.01
503.179	-0.01
503.529	-0
503.879	-0
504.229	-0
504.578	-0
504.928	-0
505.278	-0.01
505.628	-0
505.977	0
506.327	0
506.676	-0
507.026	0
507.375	-0
507.725	-0
508.074	0
508.424	-0
508.773	-0
509.122	0
509.471	-0
509.82	-0
510.17	0
510.519	0
510.868	0
511.217	0
511.566	0
511.915	0
512.263	-0
512.612	-0
512.961	-0
513.31	-0
513.659	0
514.007	0
514.356	0
514.704	0
515.053	0
515.401	0
515.75	-0
516.098	0
516.447	0
516.795	0
517.143	0
517.491	0
517.839	0.01
518.188	0
518.536	0
518.884	0.01
519.232	0.01
519.58	0
519.928	0.01
520.275	0.01
520.623	0
520.971	0
521.319	0
521.666	0
522.014	0
522.362	0.01
522.709	0
523.057	0
523.404	0.01
523.752	0.01
524.099	0.01
524.446	0.01
524.794	0
525.141	0
525.488	0
525.835	0
526.182	0.01
526.529	0.01
526.876	0
527.223	0.01
527.57	0.01
527.917	0.01
528.264	0.01
528.611	0
528.958	0.01
529.304	0.01
529.651	0.01
529.998	0
530.344	0
530.691	0
531.037	0.01
531.384	0.01
531.73	0
532.076	0.01
532.423	0.01
532.769	0.01
533.115	0.01
533.461	0.01
533.807	0.01
534.154	0.01
534.5	0
534.846	0.01
535.192	0.01
535.537	0.01
535.883	0.01
536.229	0
536.575	0.01
536.921	0
537.266	0.01
537.612	0.01
537.957	0.01
538.303	0.01
538.649	0.01
538.994	0.01
539.339	0.01
539.685	0.01
540.03	0.01
540.375	0.01
540.721	0.01
541.066	0.01
541.411	0.01
541.756	0.01
542.101	0.01
542.446	0.01
542.791	0.01
543.136	0.01
543.481	0.01
543.825	0.01
544.17	0.01
544.515	0.01
544.86	0.01
545.204	0.01
545.549	0.02
545.893	0.01
546.238	0.02
546.582	0.01
546.927	0.01
547.271	0.02
547.615	0.02
547.96	0.02
548.304	0.01
548.648	0.02
548.992	0.02
549.336	0.02
549.68	0.02
550.024	0.02
550.368	0.02
550.712	0.02
551.056	0.02
551.4	0.02
551.743	0.02
552.087	0.01
552.431	0.01
552.774	0.01
553.118	0.01
553.462	0.02
553.805	0.01
554.148	0.02
554.492	0.01
554.835	0.02
555.178	0.02
555.522	0.01
555.865	0.02
556.208	0.01
556.551	0.01
556.894	0.01
557.237	0.02
557.58	0.02
557.923	0.01
558.266	0.02
558.609	0.02
558.952	0.02
559.294	0.02
559.637	0.02
559.98	0.02
560.322	0.02
560.665	0.02
561.007	0.01
561.35	0.01
561.692	0.01
562.034	0.02
562.377	0.01
562.719	0.01
563.061	0.01
563.403	0.02
563.745	0.02
564.088	0.02
564.43	0.02
564.772	0.02
565.113	0.02
565.455	0.02
565.797	0.02
566.139	0.02
566.481	0.02
566.822	0.02
567.164	0.02
567.506	0.01
567.847	0.02
568.189	0.02
568.53	0.02
568.872	0.01
569.213	0.02
569.554	0.02
569.895	0.02
570.237	0.02
570.578	0.02
570.919	0.02
571.26	0.02
571.601	0.02
571.942	0.02
572.283	0.02
572.624	0.02
572.965	0.02
573.306	0.02
573.646	0.02
573.987	0.02
574.328	0.02
574.668	0.02
575.009	0.02
575.349	0.02
575.69	0.02
576.03	0.02
576.37	0.02
576.711	0.02
577.051	0.02
577.391	0.02
577.731	0.02
578.072	0.02
578.412	0.02
578.752	0.02
579.092	0.02
579.431	0.02
579.771	0.02
580.111	0.01
580.451	0.02
580.791	0.02
581.13	0.02
581.47	0.02
581.81	0.02
582.149	0.02
582.489	0.02
582.828	0.02
583.167	0.01
583.507	0.01
583.846	0
584.185	0.01
584.525	0.02
584.864	0.02
585.203	0.03
585.542	0.02
585.881	0.02
586.22	0.02
586.559	0.02
586.898	0.02
587.236	0.02
587.575	0.02
587.914	0.02
588.252	0.02
588.591	0.02
588.93	0.02
589.268	0.02
589.607	0.02
589.945	0.02
590.283	0.02
590.622	0.02
590.96	0.02
591.298	0.02
591.636	0.02
591.974	0.02
592.313	0.02
592.651	0.02
592.989	0.02
593.326	0.02
593.664	0.02
594.002	0.02
594.34	0.02
594.678	0.02
595.015	0.02
595.353	0.02
595.691	0.02
596.028	0.03
596.366	0.03
596.703	0.03
597.04	0.03
597.378	0.02
597.715	0.02
598.052	0.02
598.389	0.03
598.726	0.03
599.064	0.03
599.401	0.02
599.738	0.02
600.074	0.02
600.411	0.02
600.748	0.02
601.085	0.03
601.422	0.02
601.758	0.03
602.095	0.02
602.432	0.03
602.768	0.03
603.105	0.03
603.441	0.03
603.777	0.03
604.114	0.03
604.45	0.03
604.786	0.03
605.122	0.02
605.459	0.03
605.795	0.03
606.131	0.03
606.467	0.03
606.803	0.03
607.139	0.03
607.474	0.03
607.81	0.03
608.146	0.02
608.482	0.02
608.817	0.02
609.153	0.03
609.488	0.03
609.824	0.02
610.159	0.02
610.495	0.03
610.83	0.02
611.165	0.02
611.5	0.02
611.836	0.02
612.171	0.02
612.506	0.03
612.841	0.03
613.176	0.02
613.511	0.02
613.845	0.02
614.18	0.02
614.515	0.02
614.85	0.02
615.184	0.02
615.519	0.02
615.854	0.02
616.188	0.02
616.523	0.02
616.857	0.02
617.191	0.02
617.526	0.02
617.86	0.03
618.194	0.03
618.528	0.02
618.862	0.02
619.196	0.02
619.53	0.02
619.864	0.02
620.198	0.02
620.532	0.02
620.866	0.02
621.2	0.02
621.533	0.02
621.867	0.02
622.201	0.02
622.534	0.02
622.868	0.02
623.201	0.02
623.534	0.02
623.868	0.02
624.201	0.02
624.534	0.02
624.868	0.02
625.201	0.02
625.534	0.02
625.867	0.02
626.2	0.02
626.533	0.02
626.865	0.02
627.198	0.02
627.531	0.01
627.864	0.01
628.196	0.02
628.529	0.02
628.862	0.01
629.194	0.01
629.527	0.01
629.859	0.01
630.191	0.01
630.524	0.01
630.856	0.01
631.188	0.01
631.52	0.01
631.852	0.01
632.184	0.01
632.516	0.01
632.848	0.01
633.18	0.01
633.512	0.01
633.844	0.01
634.175	0.01
634.507	0.01
634.839	0.01
635.17	0.01
635.502	0.01
635.833	0.01
636.165	0.01
636.496	0.01
636.827	0
637.159	0
637.49	0
637.821	0.01
638.152	0
638.483	0.01
638.814	0
639.145	0.01
639.476	0
639.807	0
640.137	0
640.468	0
640.799	-0
641.129	0
641.46	-0
641.791	0
642.121	0
642.451	0
642.782	0
643.112	0
643.442	0
643.773	0.01
644.103	0
644.433	0
644.763	0
645.093	0
645.423	0.01
645.753	0
646.082	0
646.412	0
646.742	0
647.072	0.01
647.401	0
647.731	0.01
648.06	0
648.39	0.01
648.719	0.01
649.048	0.01
649.378	0
649.707	0
650.036	0
650.365	0
650.694	-0
651.023	0
651.352	-0
651.681	0
652.01	0
652.339	0
652.668	-0
652.996	0
653.325	-0
653.654	0
653.982	-0
654.311	0
654.639	0
654.967	0
655.296	0
655.624	0.01
655.952	0
656.28	0.01
656.609	0.01
656.937	-0
657.265	-0
657.593	-0.01
657.92	0
658.248	0
658.576	0
658.904	0
659.231	0
659.559	0.02
659.887	0.02
660.214	0.01
660.542	0.01
660.869	0
661.196	0.01
661.524	0
661.851	0
662.178	0
662.505	0
662.832	-0
663.159	-0
663.486	-0
663.813	-0
664.14	-0
664.467	0
664.794	0
665.12	-0
665.447	-0
665.774	-0
666.1	0
666.427	0
666.753	0
667.079	0
667.406	-0
667.732	-0
668.058	-0
668.384	-0.01
668.71	-0.01
669.036	-0
669.362	-0.01
669.688	-0
670.014	-0.01
670.34	-0
670.666	-0
670.991	-0
671.317	-0.01
671.643	-0
671.968	-0.01
672.294	-0
672.619	-0
672.945	-0.01
673.27	-0.01
673.595	-0.01
673.92	-0
674.246	-0
674.571	-0
674.896	-0
675.221	-0
675.546	-0
675.87	-0
676.195	-0
676.52	-0
676.845	-0
677.169	-0
677.494	-0
677.819	-0
678.143	-0
678.468	-0
678.792	-0.01
679.116	-0
679.44	-0.01
679.765	-0
680.089	-0.01
680.413	-0.01
680.737	-0.01
681.061	-0.01
681.385	-0.01
681.709	-0.01
682.033	-0.01
682.356	-0.01
682.68	-0.01
683.004	-0.01
683.327	-0.01
683.651	-0.01
683.974	-0.01
684.298	-0.01
684.621	-0.01
684.944	-0.01
685.268	-0.01
685.591	-0.01
685.914	-0.01
686.237	-0.01
686.56	-0.01
686.883	-0.01
687.206	-0.01
687.529	-0.01
687.852	-0.01
688.175	-0.01
688.497	-0.01
688.82	-0.01
689.142	-0.01
689.465	-0.01
689.787	-0.01
690.11	-0.01
690.432	-0.01
690.755	-0.01
691.077	-0.01
691.399	-0.01
691.721	-0.01
692.043	-0.01
692.365	-0.01
692.687	-0.01
693.009	-0.01
693.331	-0.01
693.653	-0.01
693.974	-0.01
694.296	-0.01
694.618	-0.01
694.939	-0.01
695.261	-0.01
695.582	-0.01
695.904	-0.01
696.225	-0.01
696.546	-0.01
696.868	-0.01
697.189	-0.01
697.51	-0.02
697.831	-0.02
698.152	-0.02
698.473	-0.02
698.794	-0.02
699.114	-0.02
699.435	-0.01
699.756	-0.01
700.077	-0.01
700.397	-0.01
700.718	-0.01
701.038	-0.01
701.359	-0.01
701.679	-0.02
701.999	-0.02
702.32	-0.02
702.64	-0.02
702.96	-0.02
703.28	-0.02
703.6	-0.02
703.92	-0.02
704.24	-0.02
704.56	-0.02
704.879	-0.02
705.199	-0.02
705.519	-0.02
705.838	-0.02
706.158	-0.02
706.478	-0.02
706.797	-0.02
707.116	-0.02
707.436	-0.02
707.755	-0.02
708.074	-0.02
708.393	-0.02
708.712	-0.02
709.031	-0.02
709.35	-0.02
709.669	-0.02
709.988	-0.02
710.307	-0.02
710.626	-0.02
710.944	-0.02
711.263	-0.02
711.582	-0.02
711.9	-0.02
712.219	-0.02
712.537	-0.02
712.855	-0.02
713.174	-0.02
713.492	-0.02
713.81	-0.02
714.128	-0.02
714.446	-0.01
714.764	-0.01
715.082	-0.02
715.4	-0.02
715.718	-0.02
716.035	-0.02
716.353	-0.02
716.671	-0.02
716.988	-0.02
717.306	-0.02
717.623	-0.02
717.941	-0.02
718.258	-0.01
718.575	-0.02
718.893	-0.01
719.21	-0.01
719.527	-0.01
719.844	-0.01
720.161	-0.01
720.478	-0.01
720.795	-0.01
721.112	-0.01
721.428	-0.01
721.745	-0.01
722.062	-0.01
722.378	-0.01
722.695	-0.01
723.011	-0.01
723.328	-0.02
723.644	-0.02
723.96	-0.02
724.276	-0.02
724.593	-0.02
724.909	-0.02
725.225	-0.02
725.541	-0.02
725.857	-0.02
726.173	-0.02
726.488	-0.02
726.804	-0.02
727.12	-0.02
727.435	-0.02
727.751	-0.02
728.067	-0.02
728.382	-0.02
728.697	-0.01
729.013	-0.01
729.328	-0.01
729.643	-0.01
729.958	-0.02
730.273	-0.02
730.588	-0.02
730.903	-0.02
731.218	-0.02
731.533	-0.02
731.848	-0.02
732.163	-0.02
732.477	-0.02
732.792	-0.02
733.107	-0.01
733.421	-0.02
733.736	-0.02
734.05	-0.02
734.364	-0.02
734.678	-0.02
734.993	-0.02
735.307	-0.02
735.621	-0.02
735.935	-0.02
736.249	-0.02
736.563	-0.02
736.877	-0.02
737.19	-0.02
737.504	-0.02
737.818	-0.02
738.131	-0.02
738.445	-0.02
738.758	-0.02
739.072	-0.02
739.385	-0.02
739.698	-0.02
740.012	-0.02
740.325	-0.02
740.638	-0.02
740.951	-0.02
741.264	-0.02
741.577	-0.02
741.89	-0.02
742.203	-0.02
742.515	-0.02
742.828	-0.02
743.141	-0.02
743.453	-0.02
743.766	-0.02
744.078	-0.02
744.391	-0.02
744.703	-0.02
745.015	-0.02
745.327	-0.02
745.639	-0.02
745.952	-0.02
746.264	-0.02
746.575	-0.02
746.887	-0.02
747.199	-0.02
747.511	-0.02
747.823	-0.02
748.134	-0.02
748.446	-0.02
748.757	-0.02
749.069	-0.02
749.38	-0.02
749.692	-0.02
750.003	-0.02
750.314	-0.02
750.625	-0.02
750.936	-0.02
751.248	-0.02
751.559	-0.02
751.869	-0.02
752.18	-0.02
752.491	-0.02
752.802	-0.02
753.112	-0.02
753.423	-0.02
753.734	-0.03
754.044	-0.03
754.355	-0.02
754.665	-0.02
754.975	-0.02
755.285	-0.02
755.596	-0.02
755.906	-0.02
756.216	-0.02
756.526	-0.02
756.836	-0.02
757.146	-0.02
757.455	-0.02
757.765	-0.02
758.075	-0.02
758.385	-0.02
758.694	-0.02
759.004	-0.02
759.313	-0.02
759.622	-0.02
759.932	-0.02
760.241	-0.02
760.55	-0.02
760.859	-0.02
761.168	-0.03
761.477	-0.02
761.786	-0.02
762.095	-0.02
762.404	-0.02
762.713	-0.02
763.021	-0.02
763.33	-0.02
763.639	-0.02
763.947	-0.02
764.256	-0.02
764.564	-0.02
764.872	-0.02
765.181	-0.02
765.489	-0.02
765.797	-0.02
766.105	-0.03
766.413	-0.03
766.721	-0.03
767.029	-0.04
767.337	-0.03
767.644	-0.03
767.952	-0.03
768.26	-0.03
768.567	-0.03
768.875	-0.03
769.182	-0.03
769.49	-0.03
769.797	-0.03
770.104	-0.03
770.411	-0.03
770.718	-0.03
771.026	-0.03
771.333	-0.03
771.639	-0.03
771.946	-0.03
772.253	-0.03
772.56	-0.03
772.867	-0.03
773.173	-0.03
773.48	-0.02
773.786	-0.03
774.093	-0.02
774.399	-0.02
774.705	-0.03
775.012	-0.02
775.318	-0.03
775.624	-0.02
775.93	-0.02
776.236	-0.02
776.542	-0.02
776.848	-0.02
777.154	-0.03
777.459	-0.03
777.765	-0.02
778.071	-0.03
778.376	-0.03
778.682	-0.03
778.987	-0.03
779.292	-0.03
779.598	-0.03
779.903	-0.03
780.208	-0.03
780.513	-0.03
780.818	-0.03
781.123	-0.03
781.428	-0.03
781.733	-0.02
782.038	-0.03
782.343	-0.02
782.647	-0.02
782.952	-0.02
783.256	-0.02
783.561	-0.02
783.865	-0.02
784.17	-0.02
784.474	-0.02
784.778	-0.02
785.082	-0.02
785.386	-0.02
785.69	-0.02
785.994	-0.02
786.298	-0.02
786.602	-0.03
786.906	-0.02
787.209	-0.02
787.513	-0.02
787.817	-0.03
788.12	-0.03
788.424	-0.03
788.727	-0.03
789.03	-0.03
789.333	-0.03
789.637	-0.03
789.94	-0.03
790.243	-0.04
790.546	-0.03
790.849	-0.04
791.152	-0.03
791.454	-0.03
791.757	-0.03
792.06	-0.03
792.362	-0.03
792.665	-0.03
792.967	-0.03
793.27	-0.03
793.572	-0.03
793.874	-0.04
794.177	-0.03
794.479	-0.03
794.781	-0.03
795.083	-0.03
795.385	-0.02
795.687	-0.02
795.989	-0.02
796.29	-0.02
796.592	-0.02
796.894	-0.02
797.195	-0.01
797.497	-0.02
797.798	-0.02
798.1	-0.02
798.401	-0.03
798.702	-0.03
799.003	-0.03
799.304	-0.03
799.605	-0.03
799.906	-0.03
800.207	-0.03
800.508	-0.03
800.809	-0.03
801.11	-0.03
801.41	-0.03
801.711	-0.03
802.011	-0.03
802.312	-0.03
802.612	-0.03
802.913	-0.03
803.213	-0.03
803.513	-0.03
803.813	-0.03
804.113	-0.03
804.413	-0.03
804.713	-0.03
805.013	-0.03
805.313	-0.03
805.613	-0.03
805.912	-0.03
806.212	-0.03
806.511	-0.03
806.811	-0.03
807.11	-0.03
807.41	-0.03
807.709	-0.02
808.008	-0.03
808.307	-0.03
808.606	-0.02
808.905	-0.02
809.204	-0.02
809.503	-0.02
809.802	-0.01
810.101	-0.02
810.399	-0.02
810.698	-0.02
810.997	-0.01
811.295	-0.01
811.593	-0.02
811.892	-0.02
812.19	-0.02
812.488	-0.02
812.786	-0.02
813.084	-0.01
813.383	-0.01
813.68	-0.01
813.978	-0.01
814.276	-0.01
814.574	-0.02
814.872	-0.01
815.169	-0.01
815.467	-0.02
815.764	-0.01
816.062	-0.02
816.359	-0.02
816.656	-0.01
816.954	-0.02
817.251	-0.02
817.548	-0.02
817.845	-0.03
818.142	-0.02
818.439	-0.02
818.735	-0.02
819.032	-0.01
819.329	-0.01
819.626	-0.02
819.922	-0.02
820.219	-0.02
820.515	-0.02
820.811	-0.03
821.108	-0.02
821.404	-0.03
821.7	-0.03
821.996	-0.02
822.292	-0.02
822.588	-0.02
822.884	-0.02
823.18	-0.02
823.475	-0.02
823.771	-0.02
824.067	-0.02
824.362	-0.02
824.658	-0.02
824.953	-0.03
825.249	-0.03
825.544	-0.02
825.839	-0.03
826.134	-0.03
826.429	-0.02
826.724	-0.02
827.019	-0.02
827.314	-0.02
827.609	-0.01
827.904	-0.01
828.198	-0.01
828.493	-0.01
828.787	-0.01
829.082	-0.01
829.376	-0
829.671	-0
829.965	-0.01
830.259	-0.01
830.553	-0.01
830.847	-0.01
831.141	-0.01
831.435	-0.02
831.729	-0.02
832.023	-0.01
832.317	-0.01
832.61	-0.01
832.904	-0.02
833.197	-0.02
833.491	-0.02
833.784	-0.02
834.077	-0.02
834.371	-0.01
834.664	-0.02
834.957	-0.01
835.25	-0.01
835.543	-0.01
835.836	-0.01
836.129	-0.01
836.421	-0.02
836.714	-0.01
837.007	-0.01
837.299	-0.01
837.592	-0.02
837.884	-0.01
838.177	-0.01
838.469	-0
838.761	-0.01
839.053	-0.01
839.345	-0.01
839.637	-0.01
839.929	-0.01
840.221	-0.01
840.513	-0.01
840.805	-0.02
841.096	-0.01
841.388	0.01
841.68	-0
841.971	-0.01
842.262	-0.01
842.554	-0.01
842.845	-0.01
843.136	-0.01
843.427	-0.01
843.718	-0.01
844.009	-0.01
844.3	-0
844.591	-0.01
844.882	0
845.173	0.01
845.463	-0.01
845.754	-0
846.044	-0.01
846.335	0
846.625	-0
846.915	-0.01
847.206	-0.01
847.496	-0.01
847.786	-0.01
848.076	-0.01
848.366	0
848.656	0
848.945	-0.01
849.235	0
849.525	-0.01
849.814	-0.01
850.104	0
850.393	0.01
850.683	0.01
850.972	0.01
851.261	0
851.551	-0
851.84	0
852.129	0.01
852.418	-0
852.707	-0
852.995	0.01
853.284	0.01
853.573	-0
853.862	0.01
854.15	0
854.439	0.01
854.727	-0
855.015	0.01
855.304	0.01
855.592	0.02
855.88	0.01
856.168	0.01
856.456	0.01
856.744	0
857.032	0.02
857.32	-0.01
857.607	0.01
857.895	0.02
858.183	0.02
858.47	0.01
858.757	-0
859.045	0
859.332	-0
859.619	0.01
859.907	0
860.194	0
860.481	0.02
860.768	0.02
861.054	0.01
861.341	0
861.628	0.03
861.915	-0.01
862.201	-0.02
862.488	-0
862.774	-0.02
863.061	0.02
863.347	-0.01
863.633	0.01
863.919	0.02
864.205	0.01
864.491	0.02
864.777	0.02
865.063	0.03
865.349	0.02
865.635	0.01
865.92	-0.01
866.206	0.03
866.492	0.02
866.777	0.01
867.062	0.03
867.348	-0.01
867.633	-0
867.918	0.02
868.203	-0
868.488	0
868.773	0.03
869.058	0.02
869.343	0.02
869.628	0.01
869.912	0.02
870.197	0.04
870.482	0.01
870.766	0.02
871.05	0.01
871.335	0
871.619	-0.03
871.903	-0.02
872.187	0.03
872.471	0.01
872.755	0.04
873.039	-0.01
873.323	0.04
873.607	-0
873.89	0.03
874.174	0.04
874.458	0.04
874.741	0.03
875.024	0.04
875.308	-0.04
875.591	0.05
875.874	0.02
876.157	0.1
876.44	-0.02
876.723	0.04
877.006	0.03
877.289	0.02
877.572	0.06
877.854	0.02
878.137	-0.01
878.42	0.05
878.702	-0.03
878.984	0.03
879.267	0.03
879.549	-0.03
879.831	0.04
880.113	0.02
880.395	0
880.677	0.13
880.959	0.1
