Data from Rubpy_EV_300_EDTA_Buffered_Absorbance_12-20-51-162.txt Node
Date: Tue Jun 30 12:20:51 BST 2026
User: fpm-admin
Spectrometer: OFX00224
Trigger mode: 0
Integration Time (sec): 7.000000E-2
Scans to average: 3
Nonlinearity correction enabled: false
Boxcar width: 0
Storing dark spectrum: false
XAxis mode: Wavelengths
Number of Pixels in Spectrum: 2136
>>>>>Begin Spectral Data<<<<<
154.91	-0
155.289	-0
155.669	-0
156.048	-0.24
156.428	0.25
156.807	0.36
157.186	1.2
157.566	0.19
157.945	-0
158.325	-0
158.704	-0.85
159.083	0.34
159.462	-0.08
159.842	-1.25
160.221	-0.76
160.6	-0.27
160.979	-0
161.359	-0.48
161.738	-0
162.117	-0
162.496	-0.48
162.875	-0.8
163.254	-0
163.633	-0
164.012	0.22
164.391	-0.17
164.77	-0
165.149	-0.26
165.528	-0.24
165.907	0.48
166.286	-0.48
166.665	-0.04
167.044	0.41
167.423	-0
167.802	-0
168.181	0.26
168.559	-0
168.938	0.03
169.317	-0
169.696	-0
170.074	-0
170.453	0.11
170.832	0.65
171.21	-0.34
171.589	-0
171.968	-0
172.346	0.16
172.725	-0
173.103	-0
173.482	-0.13
173.861	-0
174.239	-0
174.617	-0
174.996	-0.3
175.374	-1.38
175.753	-0.68
176.131	-0
176.51	1.46
176.888	-0
177.266	-0
177.645	0.13
178.023	0.21
178.401	-0.49
178.779	0.24
179.158	0.23
179.536	-0
179.914	-0
180.292	-0.49
180.67	-0
181.048	-0
181.427	0.23
181.805	-0
182.183	-0.97
182.561	-0.06
182.939	-0.33
183.317	0.05
183.695	-0
184.073	0.17
184.451	-0
184.829	-0.31
185.206	-0.16
185.584	-1.18
185.962	-0.56
186.34	-0
186.718	-0
187.096	0.27
187.473	-0
187.851	-0.35
188.229	-0.12
188.607	0.02
188.984	-0.05
189.362	-0.11
189.74	0.08
190.117	0.1
190.495	-0
190.872	-0.01
191.25	0.04
191.627	-0.01
192.005	0.09
192.382	0.02
192.76	0.02
193.137	0.14
193.515	0.04
193.892	0.09
194.269	-0.09
194.647	-0.02
195.024	0.05
195.401	0.01
195.779	0.07
196.156	0.08
196.533	0.09
196.91	0.16
197.288	-0.01
197.665	0.08
198.042	0.1
198.419	0.13
198.796	0.09
199.173	0.08
199.55	0.06
199.927	0.04
200.304	-0.07
200.681	0.08
201.058	0.12
201.435	0.09
201.812	0.06
202.189	0.08
202.566	-0.01
202.943	0.12
203.32	0.04
203.697	0.06
204.073	0.02
204.45	0.07
204.827	0.06
205.204	0.07
205.58	0.15
205.957	-0.01
206.334	0.02
206.71	0.1
207.087	0.14
207.464	0.15
207.84	0.04
208.217	0.03
208.593	-0.03
208.97	0.02
209.346	0.05
209.723	0.05
210.099	0.02
210.476	-0.04
210.852	0.07
211.228	0.14
211.605	0.04
211.981	0.12
212.357	0.12
212.733	0.01
213.11	0.07
213.486	0.05
213.862	0.12
214.238	0.05
214.614	0.03
214.991	0.04
215.367	-0.02
215.743	0.12
216.119	0.05
216.495	0.09
216.871	0.09
217.247	0.06
217.623	0.17
217.999	0.04
218.375	0.05
218.751	0.08
219.127	0.01
219.502	0.08
219.878	0.07
220.254	0.08
220.63	0.11
221.006	0.06
221.381	0.04
221.757	0.06
222.133	0.05
222.508	0.1
222.884	0.06
223.26	0.05
223.635	0.14
224.011	-0
224.386	0.06
224.762	0.03
225.137	-0.01
225.513	0
225.888	0.11
226.264	0.12
226.639	0.08
227.014	0.15
227.39	0.01
227.765	0.05
228.14	0.09
228.516	-0.06
228.891	0.06
229.266	0.06
229.641	0.07
230.017	0.06
230.392	-0
230.767	0.12
231.142	0
231.517	-0.03
231.892	0.06
232.267	-0.05
232.642	0
233.017	0.11
233.392	0.04
233.767	0.05
234.142	0.09
234.517	0.04
234.892	-0.07
235.267	0.05
235.641	0.09
236.016	0.01
236.391	0.15
236.766	0.22
237.14	0.06
237.515	0.09
237.89	0.02
238.264	-0
238.639	-0.03
239.014	0.06
239.388	0.03
239.763	0.04
240.137	0.06
240.512	0.01
240.886	-0.02
241.261	0.08
241.635	0.07
242.009	0.05
242.384	0.05
242.758	-0
243.132	0.07
243.507	0.17
243.881	0.1
244.255	0.07
244.629	0.08
245.004	0.04
245.378	0.1
245.752	-0.01
246.126	0.06
246.5	0.16
246.874	0.1
247.248	-0.01
247.622	0.01
247.996	0.18
248.37	0.06
248.744	0.05
249.118	0.04
249.492	0.12
249.866	0.07
250.24	0.03
250.613	0.12
250.987	0
251.361	0.01
251.735	0.1
252.108	0.1
252.482	0.09
252.856	-0.01
253.229	0.04
253.603	0.03
253.977	0
254.35	-0.01
254.724	0.06
255.097	0.02
255.471	0.07
255.844	0.05
256.218	0.06
256.591	0.06
256.964	0.14
257.338	0.1
257.711	0.03
258.084	0.05
258.458	0.03
258.831	-0.02
259.204	0.07
259.577	0.09
259.95	-0.01
260.323	0.09
260.697	0.07
261.07	0.03
261.443	-0.01
261.816	0.11
262.189	-0.01
262.562	0.02
262.935	-0
263.308	-0.02
263.68	0.12
264.053	0.01
264.426	0
264.799	-0.01
265.172	-0.04
265.545	0.03
265.917	0.02
266.29	0.05
266.663	-0.06
267.035	0.03
267.408	0.07
267.781	0.03
268.153	-0.02
268.526	0.02
268.898	0.06
269.271	0.05
269.643	-0
270.016	0.07
270.388	0.04
270.76	0.03
271.133	0.09
271.505	0.12
271.877	-0.03
272.25	0.05
272.622	0.1
272.994	0.15
273.366	0.08
273.739	0.06
274.111	0.06
274.483	0.09
274.855	0.05
275.227	0.05
275.599	0.06
275.971	0.13
276.343	0.05
276.715	0.04
277.087	0.11
277.459	0.06
277.831	0.07
278.203	0.08
278.574	0.1
278.946	0.08
279.318	0.09
279.69	0.13
280.061	0.05
280.433	0.03
280.805	0.08
281.176	0.03
281.548	0.08
281.92	0.06
282.291	0.07
282.663	0.09
283.034	0.05
283.406	0.07
283.777	0.11
284.148	0.05
284.52	0.03
284.891	0.15
285.262	0.03
285.634	0.08
286.005	0.12
286.376	0.07
286.747	0.12
287.119	0.05
287.49	0.03
287.861	0.13
288.232	0.06
288.603	0.08
288.974	0.07
289.345	0.02
289.716	0.06
290.087	0.08
290.458	0.09
290.829	0.04
291.2	0.05
291.571	0.07
291.941	0.12
292.312	0.12
292.683	0.08
293.054	0.1
293.424	0.04
293.795	0.05
294.166	0.07
294.536	0.1
294.907	0.09
295.277	0.09
295.648	0.1
296.018	0.07
296.389	0.07
296.759	0.04
297.13	0.08
297.5	0.06
297.871	0.12
298.241	0.07
298.611	0.06
298.981	0.04
299.352	0.08
299.722	0.07
300.092	0.07
300.462	0.05
300.832	0.06
301.202	0.06
301.573	0.07
301.943	0.08
302.313	0.06
302.683	0.06
303.053	0.05
303.422	0.06
303.792	0.06
304.162	0.05
304.532	0.07
304.902	0.06
305.272	0.08
305.641	0.08
306.011	0.06
306.381	0.08
306.75	0.08
307.12	0.07
307.49	0.07
307.859	0.06
308.229	0.07
308.598	0.08
308.968	0.08
309.337	0.07
309.707	0.09
310.076	0.08
310.445	0.09
310.815	0.08
311.184	0.08
311.553	0.08
311.923	0.08
312.292	0.09
312.661	0.08
313.03	0.09
313.399	0.09
313.768	0.08
314.137	0.08
314.506	0.09
314.875	0.08
315.244	0.08
315.613	0.09
315.982	0.09
316.351	0.08
316.72	0.09
317.089	0.08
317.458	0.09
317.826	0.08
318.195	0.08
318.564	0.08
318.933	0.08
319.301	0.08
319.67	0.08
320.038	0.08
320.407	0.08
320.775	0.08
321.144	0.07
321.512	0.08
321.881	0.08
322.249	0.08
322.618	0.08
322.986	0.08
323.354	0.08
323.723	0.07
324.091	0.08
324.459	0.08
324.827	0.07
325.195	0.07
325.564	0.07
325.932	0.07
326.3	0.06
326.668	0.07
327.036	0.06
327.404	0.07
327.772	0.07
328.14	0.07
328.508	0.07
328.875	0.07
329.243	0.07
329.611	0.07
329.979	0.08
330.346	0.07
330.714	0.07
331.082	0.07
331.449	0.07
331.817	0.07
332.185	0.08
332.552	0.07
332.92	0.07
333.287	0.07
333.655	0.07
334.022	0.07
334.389	0.08
334.757	0.08
335.124	0.07
335.491	0.07
335.859	0.08
336.226	0.07
336.593	0.08
336.96	0.08
337.327	0.08
337.695	0.08
338.062	0.08
338.429	0.08
338.796	0.09
339.163	0.09
339.53	0.09
339.897	0.08
340.263	0.09
340.63	0.09
340.997	0.09
341.364	0.09
341.731	0.09
342.097	0.09
342.464	0.09
342.831	0.09
343.197	0.09
343.564	0.09
343.931	0.1
344.297	0.1
344.664	0.1
345.03	0.1
345.396	0.1
345.763	0.11
346.129	0.11
346.496	0.11
346.862	0.11
347.228	0.11
347.594	0.11
347.961	0.11
348.327	0.11
348.693	0.12
349.059	0.12
349.425	0.12
349.791	0.12
350.157	0.12
350.523	0.13
350.889	0.12
351.255	0.13
351.621	0.13
351.987	0.13
352.353	0.13
352.719	0.14
353.084	0.14
353.45	0.15
353.816	0.15
354.181	0.15
354.547	0.15
354.913	0.15
355.278	0.16
355.644	0.16
356.009	0.16
356.375	0.17
356.74	0.17
357.106	0.17
357.471	0.17
357.836	0.18
358.202	0.18
358.567	0.19
358.932	0.19
359.297	0.19
359.663	0.2
360.028	0.2
360.393	0.2
360.758	0.2
361.123	0.2
361.488	0.21
361.853	0.21
362.218	0.21
362.583	0.22
362.948	0.22
363.312	0.22
363.677	0.23
364.042	0.23
364.407	0.23
364.772	0.24
365.136	0.24
365.501	0.24
365.865	0.25
366.23	0.25
366.595	0.26
366.959	0.27
367.324	0.27
367.688	0.27
368.052	0.28
368.417	0.28
368.781	0.29
369.145	0.29
369.51	0.29
369.874	0.29
370.238	0.29
370.602	0.3
370.967	0.29
371.331	0.3
371.695	0.29
372.059	0.3
372.423	0.29
372.787	0.29
373.151	0.29
373.515	0.29
373.878	0.29
374.242	0.29
374.606	0.29
374.97	0.29
375.334	0.29
375.697	0.29
376.061	0.3
376.425	0.29
376.788	0.3
377.152	0.3
377.515	0.3
377.879	0.31
378.242	0.31
378.606	0.31
378.969	0.32
379.333	0.32
379.696	0.32
380.059	0.33
380.422	0.33
380.786	0.34
381.149	0.36
381.512	0.36
381.875	0.36
382.238	0.37
382.601	0.38
382.964	0.39
383.327	0.4
383.69	0.42
384.053	0.43
384.416	0.44
384.779	0.44
385.142	0.46
385.504	0.46
385.867	0.47
386.23	0.47
386.593	0.48
386.955	0.48
387.318	0.48
387.68	0.48
388.043	0.48
388.405	0.47
388.768	0.47
389.13	0.47
389.493	0.45
389.855	0.45
390.217	0.46
390.58	0.45
390.942	0.46
391.304	0.46
391.666	0.47
392.028	0.47
392.391	0.48
392.753	0.5
393.115	0.51
393.477	0.53
393.839	0.55
394.201	0.57
394.563	0.6
394.924	0.62
395.286	0.64
395.648	0.66
396.01	0.68
396.371	0.71
396.733	0.72
397.095	0.73
397.456	0.74
397.818	0.74
398.18	0.73
398.541	0.72
398.903	0.71
399.264	0.69
399.625	0.67
399.987	0.64
400.348	0.61
400.709	0.59
401.071	0.55
401.432	0.52
401.793	0.5
402.154	0.46
402.515	0.43
402.876	0.4
403.238	0.37
403.599	0.35
403.96	0.33
404.32	0.3
404.681	0.27
405.042	0.26
405.403	0.24
405.764	0.23
406.125	0.22
406.485	0.2
406.846	0.19
407.207	0.18
407.567	0.17
407.928	0.15
408.288	0.15
408.649	0.15
409.009	0.13
409.37	0.13
409.73	0.12
410.091	0.12
410.451	0.12
410.811	0.11
411.171	0.11
411.532	0.1
411.892	0.1
412.252	0.1
412.612	0.09
412.972	0.09
413.332	0.09
413.692	0.09
414.052	0.08
414.412	0.08
414.772	0.08
415.132	0.08
415.492	0.07
415.851	0.07
416.211	0.08
416.571	0.07
416.931	0.07
417.29	0.07
417.65	0.06
418.009	0.07
418.369	0.06
418.728	0.06
419.088	0.06
419.447	0.06
419.807	0.06
420.166	0.06
420.525	0.06
420.884	0.06
421.244	0.06
421.603	0.06
421.962	0.06
422.321	0.06
422.68	0.06
423.039	0.05
423.398	0.05
423.757	0.06
424.116	0.05
424.475	0.06
424.834	0.06
425.193	0.06
425.551	0.05
425.91	0.05
426.269	0.06
426.628	0.05
426.986	0.05
427.345	0.05
427.703	0.05
428.062	0.05
428.42	0.05
428.779	0.05
429.137	0.05
429.496	0.05
429.854	0.05
430.212	0.04
430.57	0.04
430.929	0.05
431.287	0.04
431.645	0.05
432.003	0.05
432.361	0.05
432.719	0.04
433.077	0.04
433.435	0.05
433.793	0.05
434.151	0.05
434.509	0.05
434.866	0.04
435.224	0.04
435.582	0.05
435.94	0.04
436.297	0.04
436.655	0.04
437.012	0.04
437.37	0.04
437.727	0.05
438.085	0.04
438.442	0.04
438.8	0.04
439.157	0.04
439.514	0.05
439.872	0.04
440.229	0.04
440.586	0.04
440.943	0.04
441.3	0.04
441.657	0.03
442.014	0.03
442.371	0.04
442.728	0.04
443.085	0.04
443.442	0.04
443.799	0.03
444.156	0.04
444.513	0.04
444.869	0.03
445.226	0.03
445.583	0.04
445.939	0.04
446.296	0.03
446.652	0.04
447.009	0.04
447.365	0.03
447.722	0.03
448.078	0.03
448.434	0.03
448.791	0.03
449.147	0.03
449.503	0.02
449.859	0.03
450.215	0.03
450.571	0.04
450.928	0.03
451.284	0.04
451.64	0.03
451.995	0.04
452.351	0.03
452.707	0.03
453.063	0.04
453.419	0.03
453.775	0.03
454.13	0.03
454.486	0.03
454.842	0.03
455.197	0.03
455.553	0.02
455.908	0.02
456.264	0.03
456.619	0.02
456.975	0.02
457.33	0.03
457.685	0.03
458.04	0.02
458.396	0.02
458.751	0.02
459.106	0.02
459.461	0.01
459.816	0.01
460.171	0.02
460.526	0
460.881	0.02
461.236	0.02
461.591	0.02
461.946	0.02
462.301	0.01
462.655	0.01
463.01	0.02
463.365	0.01
463.719	0.01
464.074	0.01
464.428	0.01
464.783	0.01
465.137	0.01
465.492	0.01
465.846	0.01
466.201	-0
466.555	0
466.909	0.01
467.263	0.01
467.618	0.01
467.972	0
468.326	0.01
468.68	0.01
469.034	0.01
469.388	0
469.742	0.01
470.096	0
470.45	0.01
470.804	0.01
471.157	-0
471.511	0.01
471.865	0
472.218	0.01
472.572	0.01
472.926	0
473.279	0.01
473.633	0.01
473.986	0
474.34	0.01
474.693	0.01
475.046	0.02
475.4	0.02
475.753	0.01
476.106	0.02
476.459	0.02
476.812	0.02
477.165	0.02
477.519	0.03
477.872	0.02
478.224	0.02
478.577	0.02
478.93	0.02
479.283	0.03
479.636	0.02
479.989	0.03
480.341	0.03
480.694	0.02
481.047	0.03
481.399	0.03
481.752	0.03
482.104	0.03
482.457	0.03
482.809	0.03
483.162	0.04
483.514	0.03
483.866	0.03
484.219	0.04
484.571	0.03
484.923	0.03
485.275	0.03
485.627	0.04
485.979	0.04
486.331	0.04
486.683	0.04
487.035	0.04
487.387	0.04
487.739	0.04
488.091	0.04
488.443	0.04
488.794	0.05
489.146	0.04
489.498	0.05
489.849	0.04
490.201	0.04
490.552	0.04
490.904	0.04
491.255	0.05
491.607	0.05
491.958	0.05
492.309	0.04
492.661	0.05
493.012	0.04
493.363	0.05
493.714	0.05
494.065	0.05
494.416	0.04
494.767	0.04
495.118	0.05
495.469	0.05
495.82	0.05
496.171	0.05
496.522	0.04
496.872	0.05
497.223	0.05
497.574	0.05
497.924	0.06
498.275	0.06
498.626	0.06
498.976	0.06
499.327	0.06
499.677	0.06
500.027	0.06
500.378	0.05
500.728	0.06
501.078	0.06
501.428	0.06
501.779	0.06
502.129	0.06
502.479	0.06
502.829	0.06
503.179	0.06
503.529	0.06
503.879	0.06
504.229	0.06
504.578	0.06
504.928	0.07
505.278	0.07
505.628	0.07
505.977	0.07
506.327	0.07
506.676	0.07
507.026	0.07
507.375	0.07
507.725	0.06
508.074	0.07
508.424	0.07
508.773	0.07
509.122	0.07
509.471	0.07
509.82	0.08
510.17	0.07
510.519	0.07
510.868	0.07
511.217	0.07
511.566	0.08
511.915	0.08
512.263	0.08
512.612	0.08
512.961	0.08
513.31	0.08
513.659	0.08
514.007	0.08
514.356	0.08
514.704	0.08
515.053	0.08
515.401	0.08
515.75	0.08
516.098	0.08
516.447	0.08
516.795	0.08
517.143	0.08
517.491	0.09
517.839	0.09
518.188	0.09
518.536	0.09
518.884	0.08
519.232	0.09
519.58	0.09
519.928	0.08
520.275	0.09
520.623	0.09
520.971	0.09
521.319	0.09
521.666	0.09
522.014	0.09
522.362	0.09
522.709	0.09
523.057	0.09
523.404	0.09
523.752	0.1
524.099	0.1
524.446	0.1
524.794	0.1
525.141	0.09
525.488	0.09
525.835	0.09
526.182	0.1
526.529	0.1
526.876	0.1
527.223	0.1
527.57	0.1
527.917	0.1
528.264	0.1
528.611	0.1
528.958	0.1
529.304	0.1
529.651	0.1
529.998	0.1
530.344	0.1
530.691	0.11
531.037	0.11
531.384	0.11
531.73	0.11
532.076	0.11
532.423	0.11
532.769	0.11
533.115	0.11
533.461	0.11
533.807	0.12
534.154	0.11
534.5	0.11
534.846	0.12
535.192	0.12
535.537	0.12
535.883	0.12
536.229	0.12
536.575	0.12
536.921	0.12
537.266	0.12
537.612	0.12
537.957	0.12
538.303	0.12
538.649	0.12
538.994	0.12
539.339	0.12
539.685	0.13
540.03	0.13
540.375	0.13
540.721	0.13
541.066	0.13
541.411	0.13
541.756	0.13
542.101	0.13
542.446	0.14
542.791	0.14
543.136	0.13
543.481	0.14
543.825	0.14
544.17	0.14
544.515	0.14
544.86	0.14
545.204	0.14
545.549	0.14
545.893	0.14
546.238	0.14
546.582	0.14
546.927	0.14
547.271	0.14
547.615	0.15
547.96	0.15
548.304	0.15
548.648	0.15
548.992	0.15
549.336	0.15
549.68	0.15
550.024	0.16
550.368	0.15
550.712	0.15
551.056	0.16
551.4	0.15
551.743	0.15
552.087	0.16
552.431	0.15
552.774	0.16
553.118	0.16
553.462	0.15
553.805	0.16
554.148	0.16
554.492	0.16
554.835	0.16
555.178	0.16
555.522	0.16
555.865	0.16
556.208	0.17
556.551	0.17
556.894	0.17
557.237	0.16
557.58	0.17
557.923	0.17
558.266	0.17
558.609	0.17
558.952	0.17
559.294	0.17
559.637	0.17
559.98	0.17
560.322	0.17
560.665	0.17
561.007	0.17
561.35	0.17
561.692	0.17
562.034	0.17
562.377	0.17
562.719	0.17
563.061	0.17
563.403	0.17
563.745	0.17
564.088	0.17
564.43	0.17
564.772	0.17
565.113	0.17
565.455	0.17
565.797	0.17
566.139	0.17
566.481	0.17
566.822	0.18
567.164	0.18
567.506	0.17
567.847	0.18
568.189	0.18
568.53	0.18
568.872	0.18
569.213	0.18
569.554	0.18
569.895	0.18
570.237	0.18
570.578	0.18
570.919	0.18
571.26	0.18
571.601	0.18
571.942	0.18
572.283	0.18
572.624	0.18
572.965	0.18
573.306	0.18
573.646	0.18
573.987	0.18
574.328	0.18
574.668	0.18
575.009	0.18
575.349	0.18
575.69	0.18
576.03	0.18
576.37	0.17
576.711	0.17
577.051	0.18
577.391	0.18
577.731	0.18
578.072	0.18
578.412	0.18
578.752	0.18
579.092	0.18
579.431	0.18
579.771	0.17
580.111	0.16
580.451	0.16
580.791	0.17
581.13	0.18
581.47	0.18
581.81	0.18
582.149	0.18
582.489	0.18
582.828	0.18
583.167	0.17
583.507	0.14
583.846	0.12
584.185	0.14
584.525	0.16
584.864	0.18
585.203	0.18
585.542	0.18
585.881	0.19
586.22	0.19
586.559	0.19
586.898	0.18
587.236	0.18
587.575	0.18
587.914	0.18
588.252	0.19
588.591	0.19
588.93	0.19
589.268	0.19
589.607	0.19
589.945	0.19
590.283	0.19
590.622	0.19
590.96	0.2
591.298	0.2
591.636	0.2
591.974	0.2
592.313	0.2
592.651	0.2
592.989	0.2
593.326	0.21
593.664	0.2
594.002	0.21
594.34	0.21
594.678	0.2
595.015	0.2
595.353	0.2
595.691	0.2
596.028	0.21
596.366	0.21
596.703	0.21
597.04	0.21
597.378	0.22
597.715	0.22
598.052	0.21
598.389	0.22
598.726	0.22
599.064	0.21
599.401	0.22
599.738	0.22
600.074	0.22
600.411	0.22
600.748	0.22
601.085	0.22
601.422	0.21
601.758	0.21
602.095	0.22
602.432	0.22
602.768	0.21
603.105	0.22
603.441	0.22
603.777	0.22
604.114	0.22
604.45	0.22
604.786	0.22
605.122	0.22
605.459	0.22
605.795	0.22
606.131	0.22
606.467	0.22
606.803	0.22
607.139	0.22
607.474	0.22
607.81	0.22
608.146	0.22
608.482	0.22
608.817	0.22
609.153	0.22
609.488	0.22
609.824	0.22
610.159	0.22
610.495	0.22
610.83	0.22
611.165	0.21
611.5	0.22
611.836	0.21
612.171	0.22
612.506	0.21
612.841	0.21
613.176	0.21
613.511	0.21
613.845	0.21
614.18	0.21
614.515	0.21
614.85	0.21
615.184	0.21
615.519	0.21
615.854	0.21
616.188	0.21
616.523	0.21
616.857	0.21
617.191	0.21
617.526	0.2
617.86	0.21
618.194	0.2
618.528	0.21
618.862	0.21
619.196	0.2
619.53	0.2
619.864	0.2
620.198	0.2
620.532	0.2
620.866	0.2
621.2	0.2
621.533	0.2
621.867	0.2
622.201	0.2
622.534	0.2
622.868	0.2
623.201	0.2
623.534	0.2
623.868	0.19
624.201	0.19
624.534	0.19
624.868	0.19
625.201	0.19
625.534	0.19
625.867	0.19
626.2	0.2
626.533	0.19
626.865	0.19
627.198	0.18
627.531	0.19
627.864	0.19
628.196	0.18
628.529	0.18
628.862	0.18
629.194	0.18
629.527	0.18
629.859	0.18
630.191	0.18
630.524	0.17
630.856	0.17
631.188	0.17
631.52	0.17
631.852	0.17
632.184	0.17
632.516	0.17
632.848	0.16
633.18	0.17
633.512	0.16
633.844	0.16
634.175	0.16
634.507	0.16
634.839	0.16
635.17	0.16
635.502	0.16
635.833	0.16
636.165	0.16
636.496	0.15
636.827	0.16
637.159	0.15
637.49	0.15
637.821	0.15
638.152	0.15
638.483	0.15
638.814	0.15
639.145	0.15
639.476	0.14
639.807	0.14
640.137	0.14
640.468	0.14
640.799	0.13
641.129	0.13
641.46	0.14
641.791	0.14
642.121	0.13
642.451	0.13
642.782	0.13
643.112	0.13
643.442	0.13
643.773	0.13
644.103	0.13
644.433	0.13
644.763	0.12
645.093	0.13
645.423	0.12
645.753	0.12
646.082	0.12
646.412	0.12
646.742	0.12
647.072	0.12
647.401	0.12
647.731	0.12
648.06	0.12
648.39	0.12
648.719	0.12
649.048	0.12
649.378	0.12
649.707	0.12
650.036	0.12
650.365	0.12
650.694	0.12
651.023	0.12
651.352	0.12
651.681	0.11
652.01	0.11
652.339	0.12
652.668	0.12
652.996	0.11
653.325	0.12
653.654	0.12
653.982	0.11
654.311	0.12
654.639	0.12
654.967	0.12
655.296	0.12
655.624	0.12
655.952	0.12
656.28	0.12
656.609	0.12
656.937	0.12
657.265	0.12
657.593	0.11
657.92	0
658.248	-0
658.576	0
658.904	0
659.231	0.08
659.559	0.12
659.887	0.12
660.214	0.12
660.542	0.12
660.869	0.12
661.196	0.12
661.524	0.12
661.851	0.11
662.178	0.11
662.505	0.11
662.832	0.11
663.159	0.11
663.486	0.11
663.813	0.11
664.14	0.11
664.467	0.11
664.794	0.11
665.12	0.11
665.447	0.11
665.774	0.11
666.1	0.11
666.427	0.11
666.753	0.11
667.079	0.11
667.406	0.11
667.732	0.11
668.058	0.11
668.384	0.11
668.71	0.1
669.036	0.1
669.362	0.1
669.688	0.1
670.014	0.1
670.34	0.1
670.666	0.1
670.991	0.1
671.317	0.1
671.643	0.1
671.968	0.1
672.294	0.1
672.619	0.1
672.945	0.1
673.27	0.1
673.595	0.1
673.92	0.1
674.246	0.1
674.571	0.1
674.896	0.1
675.221	0.1
675.546	0.1
675.87	0.1
676.195	0.1
676.52	0.1
676.845	0.09
677.169	0.09
677.494	0.09
677.819	0.09
678.143	0.09
678.468	0.09
678.792	0.09
679.116	0.09
679.44	0.09
679.765	0.08
680.089	0.08
680.413	0.08
680.737	0.09
681.061	0.08
681.385	0.08
681.709	0.08
682.033	0.08
682.356	0.08
682.68	0.08
683.004	0.08
683.327	0.08
683.651	0.08
683.974	0.08
684.298	0.07
684.621	0.07
684.944	0.07
685.268	0.07
685.591	0.07
685.914	0.07
686.237	0.07
686.56	0.07
686.883	0.07
687.206	0.07
687.529	0.07
687.852	0.07
688.175	0.07
688.497	0.07
688.82	0.07
689.142	0.06
689.465	0.06
689.787	0.06
690.11	0.06
690.432	0.06
690.755	0.06
691.077	0.06
691.399	0.06
691.721	0.06
692.043	0.06
692.365	0.06
692.687	0.06
693.009	0.05
693.331	0.05
693.653	0.05
693.974	0.05
694.296	0.05
694.618	0.05
694.939	0.05
695.261	0.06
695.582	0.05
695.904	0.05
696.225	0.05
696.546	0.05
696.868	0.05
697.189	0.05
697.51	0.05
697.831	0.05
698.152	0.04
698.473	0.05
698.794	0.05
699.114	0.05
699.435	0.05
699.756	0.05
700.077	0.05
700.397	0.05
700.718	0.04
701.038	0.05
701.359	0.04
701.679	0.04
701.999	0.04
702.32	0.04
702.64	0.04
702.96	0.04
703.28	0.04
703.6	0.04
703.92	0.04
704.24	0.04
704.56	0.04
704.879	0.04
705.199	0.04
705.519	0.04
705.838	0.04
706.158	0.04
706.478	0.04
706.797	0.04
707.116	0.05
707.436	0.05
707.755	0.04
708.074	0.04
708.393	0.04
708.712	0.04
709.031	0.04
709.35	0.05
709.669	0.04
709.988	0.04
710.307	0.04
710.626	0.04
710.944	0.04
711.263	0.04
711.582	0.04
711.9	0.04
712.219	0.04
712.537	0.04
712.855	0.04
713.174	0.04
713.492	0.04
713.81	0.04
714.128	0.04
714.446	0.05
714.764	0.04
715.082	0.04
715.4	0.04
715.718	0.04
716.035	0.04
716.353	0.04
716.671	0.04
716.988	0.04
717.306	0.04
717.623	0.04
717.941	0.04
718.258	0.04
718.575	0.04
718.893	0.04
719.21	0.04
719.527	0.04
719.844	0.04
720.161	0.04
720.478	0.04
720.795	0.04
721.112	0.05
721.428	0.05
721.745	0.05
722.062	0.05
722.378	0.05
722.695	0.05
723.011	0.05
723.328	0.05
723.644	0.05
723.96	0.05
724.276	0.05
724.593	0.05
724.909	0.05
725.225	0.05
725.541	0.05
725.857	0.05
726.173	0.05
726.488	0.05
726.804	0.05
727.12	0.05
727.435	0.05
727.751	0.05
728.067	0.05
728.382	0.05
728.697	0.05
729.013	0.05
729.328	0.05
729.643	0.05
729.958	0.05
730.273	0.05
730.588	0.05
730.903	0.05
731.218	0.05
731.533	0.05
731.848	0.05
732.163	0.05
732.477	0.05
732.792	0.04
733.107	0.04
733.421	0.04
733.736	0.04
734.05	0.04
734.364	0.04
734.678	0.04
734.993	0.04
735.307	0.04
735.621	0.04
735.935	0.05
736.249	0.05
736.563	0.05
736.877	0.05
737.19	0.05
737.504	0.05
737.818	0.05
738.131	0.05
738.445	0.05
738.758	0.05
739.072	0.05
739.385	0.05
739.698	0.05
740.012	0.05
740.325	0.04
740.638	0.04
740.951	0.05
741.264	0.05
741.577	0.04
741.89	0.04
742.203	0.04
742.515	0.04
742.828	0.04
743.141	0.04
743.453	0.04
743.766	0.04
744.078	0.04
744.391	0.04
744.703	0.04
745.015	0.04
745.327	0.03
745.639	0.03
745.952	0.03
746.264	0.03
746.575	0.03
746.887	0.03
747.199	0.03
747.511	0.03
747.823	0.03
748.134	0.03
748.446	0.03
748.757	0.03
749.069	0.03
749.38	0.03
749.692	0.03
750.003	0.03
750.314	0.03
750.625	0.03
750.936	0.03
751.248	0.03
751.559	0.04
751.869	0.04
752.18	0.03
752.491	0.03
752.802	0.03
753.112	0.03
753.423	0.03
753.734	0.03
754.044	0.03
754.355	0.03
754.665	0.03
754.975	0.03
755.285	0.03
755.596	0.03
755.906	0.03
756.216	0.03
756.526	0.03
756.836	0.03
757.146	0.03
757.455	0.02
757.765	0.02
758.075	0.02
758.385	0.02
758.694	0.02
759.004	0.02
759.313	0.02
759.622	0.02
759.932	0.02
760.241	0.02
760.55	0.02
760.859	0.02
761.168	0.02
761.477	0.02
761.786	0.02
762.095	0.02
762.404	0.02
762.713	0.03
763.021	0.03
763.33	0.02
763.639	0.02
763.947	0.02
764.256	0.02
764.564	0.02
764.872	0.02
765.181	0.02
765.489	0.02
765.797	0.02
766.105	0.02
766.413	0.02
766.721	0.02
767.029	0.02
767.337	0.01
767.644	0.01
767.952	0.01
768.26	0.01
768.567	0.01
768.875	0.01
769.182	0.01
769.49	0.01
769.797	0.01
770.104	0.01
770.411	0.02
770.718	0.02
771.026	0.02
771.333	0.02
771.639	0.02
771.946	0.01
772.253	0.01
772.56	0.01
772.867	0.01
773.173	0.01
773.48	0.01
773.786	0.01
774.093	0.01
774.399	0.01
774.705	0.01
775.012	0.01
775.318	0.01
775.624	0.01
775.93	0.01
776.236	0.01
776.542	0.01
776.848	0.02
777.154	0.02
777.459	0.01
777.765	0.01
778.071	0.01
778.376	0.01
778.682	0.01
778.987	0.01
779.292	0.01
779.598	0.01
779.903	0.01
780.208	0.01
780.513	0.01
780.818	0.01
781.123	0.01
781.428	0.01
781.733	0.01
782.038	0.01
782.343	0
782.647	0
782.952	0
783.256	0
783.561	0
783.865	0
784.17	0.01
784.474	0.01
784.778	0.01
785.082	0.01
785.386	0
785.69	0
785.994	0
786.298	-0
786.602	-0
786.906	-0
787.209	-0
787.513	-0
787.817	-0
788.12	-0.01
788.424	-0
788.727	-0
789.03	-0
789.333	-0
789.637	-0
789.94	-0
790.243	0
790.546	0
790.849	0
791.152	0
791.454	0
791.757	0
792.06	0
792.362	0
792.665	0
792.967	-0
793.27	-0
793.572	-0.01
793.874	-0
794.177	-0.01
794.479	-0.01
794.781	-0.01
795.083	-0.01
795.385	-0.01
795.687	-0
795.989	-0
796.29	0.01
796.592	0.01
796.894	0
797.195	0
797.497	0
797.798	-0.01
798.1	-0
798.401	-0.01
798.702	-0.01
799.003	-0.01
799.304	-0.01
799.605	-0.01
799.906	-0.01
800.207	-0.01
800.508	-0.02
800.809	-0.01
801.11	-0.02
801.41	-0.01
801.711	-0.01
802.011	-0.01
802.312	-0.01
802.612	-0.01
802.913	-0.01
803.213	-0.01
803.513	-0.01
803.813	-0.01
804.113	-0
804.413	-0.01
804.713	-0.01
805.013	-0.01
805.313	-0.01
805.613	-0.01
805.912	-0.01
806.212	-0.01
806.511	-0.01
806.811	-0.01
807.11	-0.01
807.41	-0
807.709	-0.01
808.008	-0
808.307	-0.01
808.606	-0.01
808.905	-0.01
809.204	-0.01
809.503	-0.02
809.802	-0.01
810.101	-0.01
810.399	-0.01
810.698	-0.01
810.997	-0.01
811.295	-0.02
811.593	-0.02
811.892	-0.02
812.19	-0.02
812.488	-0.02
812.786	-0.01
813.084	-0.01
813.383	-0.02
813.68	-0.01
813.978	-0.01
814.276	-0.02
814.574	-0.01
814.872	-0.01
815.169	-0.01
815.467	-0.01
815.764	-0.01
816.062	-0.02
816.359	-0.02
816.656	-0.02
816.954	-0.02
817.251	-0.02
817.548	-0.02
817.845	-0.03
818.142	-0.02
818.439	-0.02
818.735	-0.02
819.032	-0.01
819.329	-0.02
819.626	-0.02
819.922	-0.02
820.219	-0.02
820.515	-0.02
820.811	-0.03
821.108	-0.02
821.404	-0.02
821.7	-0.03
821.996	-0.03
822.292	-0.03
822.588	-0.03
822.884	-0.02
823.18	-0.03
823.475	-0.03
823.771	-0.02
824.067	-0.03
824.362	-0.03
824.658	-0.03
824.953	-0.03
825.249	-0.03
825.544	-0.02
825.839	-0.03
826.134	-0.03
826.429	-0.03
826.724	-0.04
827.019	-0.03
827.314	-0.03
827.609	-0.02
827.904	-0.02
828.198	-0.03
828.493	-0.02
828.787	-0.02
829.082	-0.02
829.376	-0.02
829.671	-0.02
829.965	-0.02
830.259	-0.02
830.553	-0.03
830.847	-0.03
831.141	-0.03
831.435	-0.03
831.729	-0.03
832.023	-0.04
832.317	-0.03
832.61	-0.03
832.904	-0.04
833.197	-0.03
833.491	-0.03
833.784	-0.03
834.077	-0.04
834.371	-0.04
834.664	-0.03
834.957	-0.03
835.25	-0.04
835.543	-0.03
835.836	-0.04
836.129	-0.03
836.421	-0.04
836.714	-0.04
837.007	-0.04
837.299	-0.04
837.592	-0.03
837.884	-0.03
838.177	-0.04
838.469	-0.04
838.761	-0.04
839.053	-0.03
839.345	-0.02
839.637	-0.03
839.929	-0.03
840.221	-0.04
840.513	-0.03
840.805	-0.04
841.096	-0.04
841.388	-0.03
841.68	-0.02
841.971	-0.04
842.262	-0.03
842.554	-0.04
842.845	-0.04
843.136	-0.04
843.427	-0.03
843.718	-0.04
844.009	-0.04
844.3	-0.03
844.591	-0.03
844.882	-0.04
845.173	-0.04
845.463	-0.05
845.754	-0.05
846.044	-0.04
846.335	-0.04
846.625	-0.04
846.915	-0.04
847.206	-0.02
847.496	-0.04
847.786	-0.05
848.076	-0.03
848.366	-0.04
848.656	-0.04
848.945	-0.05
849.235	-0.03
849.525	-0.04
849.814	-0.03
850.104	-0.03
850.393	-0.03
850.683	-0.04
850.972	-0.03
851.261	-0.03
851.551	-0.03
851.84	-0.02
852.129	-0.04
852.418	-0.04
852.707	-0.03
852.995	-0.05
853.284	-0.04
853.573	-0.03
853.862	-0.02
854.15	-0.04
854.439	-0.04
854.727	-0.03
855.015	-0.03
855.304	-0.02
855.592	-0.03
855.88	-0.02
856.168	-0.03
856.456	-0.03
856.744	-0.03
857.032	-0.04
857.32	-0.02
857.607	-0.02
857.895	-0.04
858.183	-0.03
858.47	-0.04
858.757	-0.03
859.045	-0.04
859.332	-0.04
859.619	-0.03
859.907	-0.03
860.194	-0.03
860.481	-0.01
860.768	-0.04
861.054	-0.04
861.341	-0.04
861.628	-0.03
861.915	-0.01
862.201	-0.04
862.488	-0.03
862.774	-0.03
863.061	-0.03
863.347	-0.05
863.633	-0.03
863.919	-0.03
864.205	-0.04
864.491	-0.04
864.777	-0.04
865.063	-0.04
865.349	-0.04
865.635	-0.02
865.92	-0.03
866.206	-0.03
866.492	-0.04
866.777	-0.05
867.062	-0.03
867.348	-0.05
867.633	-0.04
867.918	-0.02
868.203	-0.05
868.488	-0.01
868.773	-0.02
869.058	-0.05
869.343	-0.04
869.628	-0.06
869.912	-0.09
870.197	-0.07
870.482	-0.06
870.766	-0.01
871.05	-0.05
871.335	0.01
871.619	-0.05
871.903	-0.08
872.187	-0.04
872.471	-0.07
872.755	-0.04
873.039	-0.07
873.323	-0.04
873.607	-0.01
873.89	-0.08
874.174	-0.03
874.458	-0.08
874.741	-0.05
875.024	-0.02
875.308	-0.01
875.591	-0.01
875.874	-0.04
876.157	-0.06
876.44	-0.11
876.723	-0.07
877.006	0.01
877.289	-0.05
877.572	-0.06
877.854	-0
878.137	-0.12
878.42	-0.01
878.702	-0.11
878.984	-0.09
879.267	0.03
879.549	-0.11
879.831	0.03
880.113	-0.07
880.395	0.03
880.677	-0.07
880.959	-0.04
