Data from Rubpy_EV_300_EDTA_Buffered_Absorbance_12-25-32-206.txt Node
Date: Tue Jun 30 12:25:32 BST 2026
User: fpm-admin
Spectrometer: OFX00224
Trigger mode: 0
Integration Time (sec): 7.000000E-2
Scans to average: 3
Nonlinearity correction enabled: false
Boxcar width: 0
Storing dark spectrum: false
XAxis mode: Wavelengths
Number of Pixels in Spectrum: 2136
>>>>>Begin Spectral Data<<<<<
154.91	-0
155.289	-0
155.669	-0
156.048	-0.6
156.428	0.26
156.807	0.03
157.186	0.07
157.566	0.33
157.945	-0
158.325	0.18
158.704	-0.7
159.083	-0
159.462	0.42
159.842	-1.04
160.221	-0.21
160.6	-0.38
160.979	-0
161.359	-1.53
161.738	-1.23
162.117	-0
162.496	-1.04
162.875	-0.36
163.254	-0.95
163.633	0.46
164.012	-0.22
164.391	0.93
164.77	-0.3
165.149	-0
165.528	0.11
165.907	-0
166.286	-0
166.665	0.87
167.044	0.21
167.423	-0
167.802	-0.18
168.181	-0.28
168.559	0.32
168.938	0.11
169.317	-0
169.696	0.43
170.074	-0
170.453	-0.05
170.832	0.26
171.21	-0.24
171.589	-0
171.968	-0
172.346	0.25
172.725	0.3
173.103	1.13
173.482	-0.16
173.861	-0
174.239	-0
174.617	-0
174.996	-0.33
175.374	-0.85
175.753	-0.52
176.131	-0.2
176.51	0.05
176.888	-0
177.266	-0
177.645	0.08
178.023	0.24
178.401	-0.46
178.779	-0.02
179.158	-0.07
179.536	-0
179.914	1.51
180.292	-0.38
180.67	-0
181.048	-0
181.427	-0.07
181.805	-0
182.183	-0.82
182.561	-0.21
182.939	-0.02
183.317	0.19
183.695	0.62
184.073	0.31
184.451	-0
184.829	0.04
185.206	-0.21
185.584	-0.9
185.962	-0
186.34	-0
186.718	-0
187.096	-0
187.473	-0
187.851	-0.25
188.229	-0.18
188.607	0.04
188.984	0.03
189.362	-0.02
189.74	0.18
190.117	0.08
190.495	0.05
190.872	0.09
191.25	-0.1
191.627	0.01
192.005	-0.05
192.382	0.03
192.76	0.18
193.137	0.08
193.515	0.08
193.892	0.14
194.269	-0.04
194.647	0.14
195.024	0.09
195.401	0.06
195.779	0.13
196.156	0.17
196.533	0.14
196.91	0.13
197.288	0.06
197.665	0.14
198.042	0.13
198.419	0.08
198.796	-0.03
199.173	-0.01
199.55	0.15
199.927	0.13
200.304	-0.01
200.681	0.17
201.058	0.01
201.435	0.07
201.812	0.13
202.189	0.16
202.566	0.07
202.943	0.12
203.32	0.18
203.697	0.15
204.073	0.1
204.45	0.1
204.827	0.06
205.204	0.15
205.58	0.09
205.957	0.02
206.334	0.15
206.71	0.19
207.087	0.01
207.464	0.08
207.84	0.04
208.217	0.13
208.593	0.04
208.97	0.12
209.346	0.1
209.723	0.18
210.099	0.13
210.476	0.2
210.852	0.13
211.228	0.15
211.605	0.17
211.981	0.21
212.357	0.12
212.733	0.2
213.11	0.1
213.486	0.02
213.862	0.13
214.238	-0
214.614	0.14
214.991	0.11
215.367	0.04
215.743	0.2
216.119	0.09
216.495	-0.02
216.871	0.1
217.247	0.08
217.623	0.13
217.999	0.1
218.375	0.1
218.751	0.11
219.127	0.03
219.502	0.17
219.878	0.08
220.254	0.15
220.63	0.17
221.006	0.15
221.381	0.05
221.757	0.26
222.133	0.14
222.508	0.07
222.884	0.12
223.26	0.12
223.635	0.08
224.011	0.15
224.386	0.06
224.762	0.07
225.137	0.02
225.513	-0
225.888	0.11
226.264	0.09
226.639	0.1
227.014	0.18
227.39	0.11
227.765	0.12
228.14	0.08
228.516	0.06
228.891	0.12
229.266	0.11
229.641	0.16
230.017	0.04
230.392	0.07
230.767	0.06
231.142	0.08
231.517	0.08
231.892	0.15
232.267	0.08
232.642	0.09
233.017	0.12
233.392	0.07
233.767	0.05
234.142	0.02
234.517	0.11
234.892	-0.01
235.267	0.1
235.641	0.04
236.016	0.05
236.391	0.02
236.766	0.16
237.14	0.05
237.515	0.07
237.89	0.16
238.264	0.15
238.639	0.05
239.014	0.07
239.388	0.13
239.763	0.12
240.137	0.07
240.512	0.07
240.886	-0.01
241.261	0.08
241.635	0.11
242.009	0.05
242.384	0.1
242.758	0.03
243.132	0.17
243.507	0.16
243.881	0.17
244.255	0.15
244.629	0.11
245.004	0.14
245.378	0.17
245.752	0.08
246.126	0.05
246.5	0.2
246.874	0.09
247.248	0.11
247.622	0.11
247.996	0.2
248.37	0.16
248.744	0.1
249.118	0.09
249.492	0.15
249.866	0.08
250.24	0.02
250.613	0.18
250.987	0.07
251.361	0.07
251.735	0.17
252.108	0.17
252.482	0.03
252.856	0.01
253.229	0.07
253.603	0.05
253.977	0.1
254.35	0.07
254.724	0.08
255.097	0.1
255.471	0.08
255.844	0.07
256.218	0.19
256.591	0.06
256.964	0.15
257.338	0.14
257.711	0.12
258.084	0.06
258.458	0.1
258.831	-0.03
259.204	0.04
259.577	0.15
259.95	0.04
260.323	0.15
260.697	0.05
261.07	0.01
261.443	-0.02
261.816	0.18
262.189	0
262.562	0.07
262.935	0.03
263.308	0.02
263.68	0.09
264.053	0.08
264.426	0.08
264.799	0.02
265.172	-0.03
265.545	0.01
265.917	0.03
266.29	0.07
266.663	0.01
267.035	0.08
267.408	0.1
267.781	0.11
268.153	0.04
268.526	0.06
268.898	0.06
269.271	0.06
269.643	0.09
270.016	0.09
270.388	0.06
270.76	0.08
271.133	0.04
271.505	0.09
271.877	-0
272.25	0.06
272.622	0.11
272.994	0.08
273.366	0.08
273.739	0.13
274.111	0.1
274.483	0.06
274.855	0.06
275.227	0.14
275.599	0.14
275.971	0.06
276.343	0.06
276.715	0.06
277.087	0.14
277.459	0.17
277.831	0.13
278.203	0.15
278.574	0.14
278.946	0.06
279.318	0.17
279.69	0.16
280.061	0.07
280.433	0.12
280.805	0.12
281.176	0.08
281.548	0.08
281.92	0.06
282.291	0.1
282.663	0.13
283.034	0.08
283.406	0.16
283.777	0.1
284.148	0.11
284.52	0.1
284.891	0.12
285.262	0.09
285.634	0.11
286.005	0.11
286.376	0.06
286.747	0.15
287.119	0.08
287.49	0.08
287.861	0.11
288.232	0.04
288.603	0.09
288.974	0.08
289.345	0.07
289.716	0.1
290.087	0.1
290.458	0.04
290.829	0.09
291.2	0.09
291.571	0.09
291.941	0.12
292.312	0.14
292.683	0.11
293.054	0.12
293.424	0.12
293.795	0.1
294.166	0.08
294.536	0.08
294.907	0.08
295.277	0.08
295.648	0.11
296.018	0.08
296.389	0.1
296.759	0.09
297.13	0.09
297.5	0.11
297.871	0.11
298.241	0.08
298.611	0.11
298.981	0.06
299.352	0.09
299.722	0.09
300.092	0.11
300.462	0.06
300.832	0.08
301.202	0.08
301.573	0.11
301.943	0.09
302.313	0.08
302.683	0.08
303.053	0.07
303.422	0.08
303.792	0.08
304.162	0.06
304.532	0.07
304.902	0.09
305.272	0.08
305.641	0.1
306.011	0.08
306.381	0.1
306.75	0.09
307.12	0.09
307.49	0.09
307.859	0.08
308.229	0.1
308.598	0.09
308.968	0.09
309.337	0.09
309.707	0.1
310.076	0.1
310.445	0.1
310.815	0.1
311.184	0.1
311.553	0.1
311.923	0.1
312.292	0.1
312.661	0.1
313.03	0.11
313.399	0.11
313.768	0.1
314.137	0.1
314.506	0.11
314.875	0.1
315.244	0.1
315.613	0.1
315.982	0.11
316.351	0.1
316.72	0.1
317.089	0.1
317.458	0.1
317.826	0.1
318.195	0.1
318.564	0.1
318.933	0.1
319.301	0.1
319.67	0.1
320.038	0.1
320.407	0.09
320.775	0.1
321.144	0.1
321.512	0.09
321.881	0.1
322.249	0.09
322.618	0.09
322.986	0.09
323.354	0.09
323.723	0.09
324.091	0.09
324.459	0.09
324.827	0.09
325.195	0.09
325.564	0.08
325.932	0.09
326.3	0.08
326.668	0.09
327.036	0.08
327.404	0.08
327.772	0.08
328.14	0.09
328.508	0.09
328.875	0.08
329.243	0.08
329.611	0.09
329.979	0.08
330.346	0.09
330.714	0.09
331.082	0.09
331.449	0.09
331.817	0.09
332.185	0.09
332.552	0.09
332.92	0.09
333.287	0.09
333.655	0.09
334.022	0.09
334.389	0.09
334.757	0.09
335.124	0.09
335.491	0.09
335.859	0.1
336.226	0.09
336.593	0.1
336.96	0.1
337.327	0.1
337.695	0.1
338.062	0.1
338.429	0.1
338.796	0.11
339.163	0.11
339.53	0.11
339.897	0.1
340.263	0.1
340.63	0.11
340.997	0.11
341.364	0.11
341.731	0.11
342.097	0.12
342.464	0.12
342.831	0.12
343.197	0.11
343.564	0.12
343.931	0.12
344.297	0.12
344.664	0.12
345.03	0.12
345.396	0.13
345.763	0.13
346.129	0.13
346.496	0.14
346.862	0.13
347.228	0.14
347.594	0.14
347.961	0.14
348.327	0.14
348.693	0.14
349.059	0.15
349.425	0.15
349.791	0.15
350.157	0.15
350.523	0.15
350.889	0.15
351.255	0.16
351.621	0.16
351.987	0.17
352.353	0.17
352.719	0.17
353.084	0.17
353.45	0.18
353.816	0.18
354.181	0.18
354.547	0.19
354.913	0.19
355.278	0.19
355.644	0.2
356.009	0.2
356.375	0.21
356.74	0.21
357.106	0.22
357.471	0.22
357.836	0.22
358.202	0.23
358.567	0.23
358.932	0.24
359.297	0.24
359.663	0.24
360.028	0.25
360.393	0.25
360.758	0.25
361.123	0.25
361.488	0.26
361.853	0.26
362.218	0.26
362.583	0.27
362.948	0.27
363.312	0.28
363.677	0.28
364.042	0.28
364.407	0.28
364.772	0.29
365.136	0.3
365.501	0.3
365.865	0.31
366.23	0.32
366.595	0.32
366.959	0.34
367.324	0.33
367.688	0.34
368.052	0.35
368.417	0.35
368.781	0.36
369.145	0.36
369.51	0.36
369.874	0.37
370.238	0.37
370.602	0.36
370.967	0.37
371.331	0.37
371.695	0.36
372.059	0.37
372.423	0.36
372.787	0.37
373.151	0.36
373.515	0.36
373.878	0.36
374.242	0.36
374.606	0.36
374.97	0.36
375.334	0.36
375.697	0.36
376.061	0.37
376.425	0.36
376.788	0.37
377.152	0.37
377.515	0.38
377.879	0.38
378.242	0.38
378.606	0.39
378.969	0.39
379.333	0.4
379.696	0.39
380.059	0.41
380.422	0.42
380.786	0.42
381.149	0.43
381.512	0.44
381.875	0.45
382.238	0.46
382.601	0.47
382.964	0.49
383.327	0.5
383.69	0.51
384.053	0.52
384.416	0.53
384.779	0.55
385.142	0.56
385.504	0.56
385.867	0.58
386.23	0.58
386.593	0.6
386.955	0.59
387.318	0.59
387.68	0.59
388.043	0.59
388.405	0.58
388.768	0.58
389.13	0.57
389.493	0.57
389.855	0.57
390.217	0.57
390.58	0.56
390.942	0.56
391.304	0.56
391.666	0.57
392.028	0.58
392.391	0.6
392.753	0.61
393.115	0.63
393.477	0.65
393.839	0.68
394.201	0.71
394.563	0.73
394.924	0.76
395.286	0.79
395.648	0.82
396.01	0.84
396.371	0.86
396.733	0.88
397.095	0.9
397.456	0.9
397.818	0.91
398.18	0.91
398.541	0.89
398.903	0.88
399.264	0.85
399.625	0.82
399.987	0.79
400.348	0.76
400.709	0.71
401.071	0.68
401.432	0.65
401.793	0.61
402.154	0.56
402.515	0.52
402.876	0.49
403.238	0.46
403.599	0.43
403.96	0.4
404.32	0.38
404.681	0.34
405.042	0.32
405.403	0.3
405.764	0.28
406.125	0.26
406.485	0.24
406.846	0.23
407.207	0.22
407.567	0.2
407.928	0.2
408.288	0.19
408.649	0.17
409.009	0.17
409.37	0.16
409.73	0.15
410.091	0.14
410.451	0.14
410.811	0.13
411.171	0.13
411.532	0.13
411.892	0.12
412.252	0.11
412.612	0.12
412.972	0.11
413.332	0.11
413.692	0.11
414.052	0.1
414.412	0.1
414.772	0.09
415.132	0.09
415.492	0.09
415.851	0.09
416.211	0.09
416.571	0.08
416.931	0.08
417.29	0.09
417.65	0.08
418.009	0.08
418.369	0.07
418.728	0.07
419.088	0.07
419.447	0.08
419.807	0.07
420.166	0.08
420.525	0.07
420.884	0.07
421.244	0.06
421.603	0.07
421.962	0.07
422.321	0.07
422.68	0.06
423.039	0.06
423.398	0.06
423.757	0.06
424.116	0.07
424.475	0.06
424.834	0.06
425.193	0.06
425.551	0.06
425.91	0.06
426.269	0.07
426.628	0.06
426.986	0.06
427.345	0.06
427.703	0.06
428.062	0.06
428.42	0.06
428.779	0.06
429.137	0.06
429.496	0.06
429.854	0.05
430.212	0.06
430.57	0.05
430.929	0.05
431.287	0.05
431.645	0.06
432.003	0.06
432.361	0.05
432.719	0.05
433.077	0.05
433.435	0.05
433.793	0.05
434.151	0.05
434.509	0.06
434.866	0.05
435.224	0.05
435.582	0.05
435.94	0.05
436.297	0.05
436.655	0.05
437.012	0.05
437.37	0.04
437.727	0.05
438.085	0.05
438.442	0.05
438.8	0.04
439.157	0.05
439.514	0.04
439.872	0.05
440.229	0.05
440.586	0.04
440.943	0.05
441.3	0.04
441.657	0.04
442.014	0.04
442.371	0.05
442.728	0.04
443.085	0.04
443.442	0.03
443.799	0.04
444.156	0.05
444.513	0.05
444.869	0.05
445.226	0.04
445.583	0.05
445.939	0.04
446.296	0.04
446.652	0.05
447.009	0.05
447.365	0.03
447.722	0.04
448.078	0.04
448.434	0.03
448.791	0.04
449.147	0.04
449.503	0.03
449.859	0.03
450.215	0.04
450.571	0.04
450.928	0.04
451.284	0.05
451.64	0.03
451.995	0.04
452.351	0.03
452.707	0.04
453.063	0.04
453.419	0.03
453.775	0.03
454.13	0.03
454.486	0.04
454.842	0.04
455.197	0.03
455.553	0.03
455.908	0.02
456.264	0.03
456.619	0.04
456.975	0.03
457.33	0.03
457.685	0.03
458.04	0.03
458.396	0.02
458.751	0.03
459.106	0.03
459.461	0.03
459.816	0.03
460.171	0.03
460.526	0.02
460.881	0.02
461.236	0.03
461.591	0.02
461.946	0.02
462.301	0.02
462.655	0.02
463.01	0.01
463.365	0.02
463.719	0.01
464.074	0.01
464.428	0.01
464.783	0.01
465.137	0.01
465.492	0.01
465.846	0.02
466.201	0.01
466.555	0.01
466.909	0.01
467.263	0.01
467.618	0.01
467.972	0.01
468.326	0.02
468.68	0.01
469.034	0.01
469.388	0.01
469.742	0.01
470.096	0.01
470.45	0.01
470.804	0.01
471.157	0
471.511	0.01
471.865	0.01
472.218	0.01
472.572	0.01
472.926	0.01
473.279	0.01
473.633	0.02
473.986	0.01
474.34	0.01
474.693	0.01
475.046	0.02
475.4	0.02
475.753	0.02
476.106	0.02
476.459	0.03
476.812	0.03
477.165	0.03
477.519	0.03
477.872	0.03
478.224	0.03
478.577	0.03
478.93	0.03
479.283	0.03
479.636	0.03
479.989	0.03
480.341	0.04
480.694	0.04
481.047	0.03
481.399	0.04
481.752	0.03
482.104	0.04
482.457	0.04
482.809	0.04
483.162	0.05
483.514	0.04
483.866	0.04
484.219	0.04
484.571	0.04
484.923	0.04
485.275	0.05
485.627	0.05
485.979	0.05
486.331	0.05
486.683	0.05
487.035	0.05
487.387	0.05
487.739	0.05
488.091	0.05
488.443	0.05
488.794	0.06
489.146	0.05
489.498	0.05
489.849	0.05
490.201	0.06
490.552	0.05
490.904	0.06
491.255	0.06
491.607	0.06
491.958	0.06
492.309	0.06
492.661	0.06
493.012	0.06
493.363	0.06
493.714	0.06
494.065	0.06
494.416	0.06
494.767	0.06
495.118	0.06
495.469	0.06
495.82	0.06
496.171	0.06
496.522	0.06
496.872	0.06
497.223	0.06
497.574	0.06
497.924	0.07
498.275	0.07
498.626	0.07
498.976	0.07
499.327	0.07
499.677	0.07
500.027	0.07
500.378	0.07
500.728	0.07
501.078	0.07
501.428	0.07
501.779	0.08
502.129	0.07
502.479	0.07
502.829	0.07
503.179	0.07
503.529	0.08
503.879	0.08
504.229	0.07
504.578	0.08
504.928	0.08
505.278	0.08
505.628	0.08
505.977	0.09
506.327	0.08
506.676	0.09
507.026	0.08
507.375	0.08
507.725	0.08
508.074	0.08
508.424	0.08
508.773	0.09
509.122	0.08
509.471	0.09
509.82	0.09
510.17	0.09
510.519	0.09
510.868	0.09
511.217	0.09
511.566	0.1
511.915	0.09
512.263	0.1
512.612	0.1
512.961	0.09
513.31	0.1
513.659	0.1
514.007	0.1
514.356	0.1
514.704	0.1
515.053	0.1
515.401	0.1
515.75	0.1
516.098	0.1
516.447	0.1
516.795	0.11
517.143	0.1
517.491	0.11
517.839	0.1
518.188	0.11
518.536	0.11
518.884	0.11
519.232	0.11
519.58	0.11
519.928	0.11
520.275	0.11
520.623	0.11
520.971	0.11
521.319	0.11
521.666	0.11
522.014	0.11
522.362	0.11
522.709	0.12
523.057	0.11
523.404	0.12
523.752	0.11
524.099	0.12
524.446	0.12
524.794	0.12
525.141	0.12
525.488	0.12
525.835	0.12
526.182	0.12
526.529	0.12
526.876	0.13
527.223	0.13
527.57	0.12
527.917	0.13
528.264	0.12
528.611	0.13
528.958	0.13
529.304	0.13
529.651	0.13
529.998	0.13
530.344	0.13
530.691	0.14
531.037	0.13
531.384	0.14
531.73	0.14
532.076	0.14
532.423	0.13
532.769	0.14
533.115	0.14
533.461	0.14
533.807	0.14
534.154	0.14
534.5	0.14
534.846	0.14
535.192	0.14
535.537	0.15
535.883	0.15
536.229	0.15
536.575	0.15
536.921	0.15
537.266	0.15
537.612	0.16
537.957	0.15
538.303	0.15
538.649	0.15
538.994	0.15
539.339	0.16
539.685	0.16
540.03	0.17
540.375	0.16
540.721	0.16
541.066	0.16
541.411	0.16
541.756	0.16
542.101	0.16
542.446	0.17
542.791	0.17
543.136	0.17
543.481	0.17
543.825	0.17
544.17	0.18
544.515	0.18
544.86	0.18
545.204	0.17
545.549	0.17
545.893	0.18
546.238	0.18
546.582	0.18
546.927	0.18
547.271	0.18
547.615	0.19
547.96	0.19
548.304	0.19
548.648	0.19
548.992	0.19
549.336	0.19
549.68	0.19
550.024	0.19
550.368	0.19
550.712	0.19
551.056	0.19
551.4	0.19
551.743	0.2
552.087	0.19
552.431	0.19
552.774	0.2
553.118	0.2
553.462	0.2
553.805	0.2
554.148	0.2
554.492	0.2
554.835	0.2
555.178	0.2
555.522	0.2
555.865	0.2
556.208	0.21
556.551	0.21
556.894	0.21
557.237	0.21
557.58	0.21
557.923	0.21
558.266	0.21
558.609	0.21
558.952	0.21
559.294	0.21
559.637	0.21
559.98	0.21
560.322	0.21
560.665	0.21
561.007	0.21
561.35	0.22
561.692	0.21
562.034	0.22
562.377	0.22
562.719	0.22
563.061	0.21
563.403	0.21
563.745	0.21
564.088	0.22
564.43	0.21
564.772	0.22
565.113	0.21
565.455	0.22
565.797	0.22
566.139	0.22
566.481	0.21
566.822	0.22
567.164	0.22
567.506	0.22
567.847	0.22
568.189	0.22
568.53	0.22
568.872	0.22
569.213	0.22
569.554	0.23
569.895	0.22
570.237	0.23
570.578	0.23
570.919	0.23
571.26	0.23
571.601	0.23
571.942	0.23
572.283	0.23
572.624	0.23
572.965	0.23
573.306	0.23
573.646	0.22
573.987	0.23
574.328	0.22
574.668	0.23
575.009	0.22
575.349	0.22
575.69	0.22
576.03	0.22
576.37	0.22
576.711	0.22
577.051	0.22
577.391	0.22
577.731	0.22
578.072	0.23
578.412	0.23
578.752	0.23
579.092	0.22
579.431	0.22
579.771	0.22
580.111	0.21
580.451	0.21
580.791	0.22
581.13	0.22
581.47	0.23
581.81	0.23
582.149	0.23
582.489	0.23
582.828	0.22
583.167	0.22
583.507	0.19
583.846	0.17
584.185	0.19
584.525	0.21
584.864	0.22
585.203	0.23
585.542	0.23
585.881	0.23
586.22	0.24
586.559	0.23
586.898	0.23
587.236	0.23
587.575	0.22
587.914	0.22
588.252	0.23
588.591	0.24
588.93	0.24
589.268	0.24
589.607	0.24
589.945	0.24
590.283	0.24
590.622	0.24
590.96	0.25
591.298	0.25
591.636	0.25
591.974	0.25
592.313	0.25
592.651	0.25
592.989	0.25
593.326	0.26
593.664	0.26
594.002	0.26
594.34	0.26
594.678	0.26
595.015	0.26
595.353	0.25
595.691	0.26
596.028	0.26
596.366	0.26
596.703	0.27
597.04	0.27
597.378	0.27
597.715	0.27
598.052	0.27
598.389	0.27
598.726	0.27
599.064	0.27
599.401	0.27
599.738	0.27
600.074	0.27
600.411	0.27
600.748	0.27
601.085	0.27
601.422	0.27
601.758	0.27
602.095	0.27
602.432	0.27
602.768	0.27
603.105	0.27
603.441	0.27
603.777	0.28
604.114	0.28
604.45	0.28
604.786	0.28
605.122	0.28
605.459	0.27
605.795	0.27
606.131	0.28
606.467	0.28
606.803	0.28
607.139	0.28
607.474	0.27
607.81	0.28
608.146	0.27
608.482	0.28
608.817	0.28
609.153	0.28
609.488	0.27
609.824	0.27
610.159	0.27
610.495	0.27
610.83	0.27
611.165	0.27
611.5	0.27
611.836	0.27
612.171	0.27
612.506	0.27
612.841	0.27
613.176	0.27
613.511	0.26
613.845	0.27
614.18	0.27
614.515	0.26
614.85	0.27
615.184	0.26
615.519	0.27
615.854	0.26
616.188	0.27
616.523	0.26
616.857	0.26
617.191	0.26
617.526	0.26
617.86	0.26
618.194	0.25
618.528	0.26
618.862	0.26
619.196	0.26
619.53	0.26
619.864	0.25
620.198	0.25
620.532	0.25
620.866	0.25
621.2	0.25
621.533	0.25
621.867	0.25
622.201	0.25
622.534	0.25
622.868	0.25
623.201	0.25
623.534	0.25
623.868	0.25
624.201	0.24
624.534	0.24
624.868	0.24
625.201	0.24
625.534	0.24
625.867	0.24
626.2	0.24
626.533	0.24
626.865	0.24
627.198	0.23
627.531	0.24
627.864	0.23
628.196	0.23
628.529	0.23
628.862	0.23
629.194	0.23
629.527	0.22
629.859	0.23
630.191	0.23
630.524	0.22
630.856	0.22
631.188	0.22
631.52	0.22
631.852	0.22
632.184	0.21
632.516	0.21
632.848	0.21
633.18	0.21
633.512	0.21
633.844	0.21
634.175	0.21
634.507	0.2
634.839	0.2
635.17	0.2
635.502	0.2
635.833	0.2
636.165	0.2
636.496	0.19
636.827	0.2
637.159	0.2
637.49	0.19
637.821	0.19
638.152	0.19
638.483	0.18
638.814	0.19
639.145	0.18
639.476	0.18
639.807	0.18
640.137	0.18
640.468	0.18
640.799	0.17
641.129	0.17
641.46	0.17
641.791	0.17
642.121	0.17
642.451	0.17
642.782	0.17
643.112	0.17
643.442	0.16
643.773	0.16
644.103	0.16
644.433	0.16
644.763	0.16
645.093	0.16
645.423	0.16
645.753	0.16
646.082	0.15
646.412	0.16
646.742	0.16
647.072	0.15
647.401	0.16
647.731	0.16
648.06	0.15
648.39	0.15
648.719	0.15
649.048	0.15
649.378	0.15
649.707	0.15
650.036	0.15
650.365	0.15
650.694	0.15
651.023	0.15
651.352	0.15
651.681	0.15
652.01	0.15
652.339	0.15
652.668	0.15
652.996	0.15
653.325	0.15
653.654	0.15
653.982	0.15
654.311	0.15
654.639	0.15
654.967	0.15
655.296	0.15
655.624	0.15
655.952	0.15
656.28	0.15
656.609	0.15
656.937	0.15
657.265	0.15
657.593	0.14
657.92	0.01
658.248	-0
658.576	-0
658.904	0.02
659.231	0.11
659.559	0.14
659.887	0.15
660.214	0.15
660.542	0.15
660.869	0.15
661.196	0.15
661.524	0.15
661.851	0.15
662.178	0.14
662.505	0.14
662.832	0.14
663.159	0.14
663.486	0.14
663.813	0.14
664.14	0.14
664.467	0.14
664.794	0.14
665.12	0.14
665.447	0.14
665.774	0.14
666.1	0.14
666.427	0.14
666.753	0.14
667.079	0.14
667.406	0.14
667.732	0.14
668.058	0.14
668.384	0.13
668.71	0.14
669.036	0.13
669.362	0.13
669.688	0.13
670.014	0.13
670.34	0.13
670.666	0.13
670.991	0.13
671.317	0.13
671.643	0.13
671.968	0.13
672.294	0.13
672.619	0.13
672.945	0.13
673.27	0.13
673.595	0.13
673.92	0.13
674.246	0.13
674.571	0.13
674.896	0.12
675.221	0.12
675.546	0.12
675.87	0.13
676.195	0.12
676.52	0.13
676.845	0.12
677.169	0.12
677.494	0.12
677.819	0.12
678.143	0.11
678.468	0.11
678.792	0.11
679.116	0.11
679.44	0.11
679.765	0.11
680.089	0.11
680.413	0.1
680.737	0.11
681.061	0.11
681.385	0.11
681.709	0.11
682.033	0.1
682.356	0.1
682.68	0.1
683.004	0.1
683.327	0.1
683.651	0.1
683.974	0.1
684.298	0.1
684.621	0.1
684.944	0.1
685.268	0.1
685.591	0.1
685.914	0.09
686.237	0.09
686.56	0.09
686.883	0.09
687.206	0.09
687.529	0.09
687.852	0.09
688.175	0.09
688.497	0.09
688.82	0.08
689.142	0.08
689.465	0.08
689.787	0.08
690.11	0.08
690.432	0.08
690.755	0.08
691.077	0.08
691.399	0.08
691.721	0.08
692.043	0.07
692.365	0.07
692.687	0.07
693.009	0.07
693.331	0.07
693.653	0.07
693.974	0.07
694.296	0.07
694.618	0.07
694.939	0.07
695.261	0.07
695.582	0.07
695.904	0.07
696.225	0.07
696.546	0.07
696.868	0.06
697.189	0.06
697.51	0.06
697.831	0.06
698.152	0.06
698.473	0.06
698.794	0.06
699.114	0.06
699.435	0.06
699.756	0.06
700.077	0.06
700.397	0.06
700.718	0.06
701.038	0.06
701.359	0.06
701.679	0.06
701.999	0.06
702.32	0.05
702.64	0.05
702.96	0.05
703.28	0.05
703.6	0.05
703.92	0.05
704.24	0.05
704.56	0.06
704.879	0.06
705.199	0.06
705.519	0.05
705.838	0.05
706.158	0.06
706.478	0.06
706.797	0.06
707.116	0.06
707.436	0.06
707.755	0.06
708.074	0.06
708.393	0.06
708.712	0.06
709.031	0.06
709.35	0.06
709.669	0.06
709.988	0.05
710.307	0.05
710.626	0.05
710.944	0.05
711.263	0.05
711.582	0.05
711.9	0.05
712.219	0.05
712.537	0.05
712.855	0.05
713.174	0.05
713.492	0.05
713.81	0.05
714.128	0.06
714.446	0.06
714.764	0.06
715.082	0.05
715.4	0.05
715.718	0.06
716.035	0.05
716.353	0.05
716.671	0.06
716.988	0.05
717.306	0.06
717.623	0.05
717.941	0.05
718.258	0.05
718.575	0.05
718.893	0.05
719.21	0.05
719.527	0.05
719.844	0.05
720.161	0.05
720.478	0.05
720.795	0.06
721.112	0.06
721.428	0.06
721.745	0.06
722.062	0.06
722.378	0.06
722.695	0.06
723.011	0.06
723.328	0.06
723.644	0.06
723.96	0.06
724.276	0.06
724.593	0.06
724.909	0.07
725.225	0.06
725.541	0.06
725.857	0.06
726.173	0.06
726.488	0.06
726.804	0.06
727.12	0.06
727.435	0.06
727.751	0.06
728.067	0.06
728.382	0.06
728.697	0.06
729.013	0.06
729.328	0.06
729.643	0.06
729.958	0.06
730.273	0.06
730.588	0.06
730.903	0.06
731.218	0.06
731.533	0.06
731.848	0.06
732.163	0.06
732.477	0.06
732.792	0.06
733.107	0.06
733.421	0.06
733.736	0.06
734.05	0.05
734.364	0.06
734.678	0.05
734.993	0.05
735.307	0.06
735.621	0.06
735.935	0.06
736.249	0.06
736.563	0.06
736.877	0.06
737.19	0.06
737.504	0.06
737.818	0.06
738.131	0.06
738.445	0.06
738.758	0.06
739.072	0.06
739.385	0.06
739.698	0.06
740.012	0.06
740.325	0.06
740.638	0.06
740.951	0.06
741.264	0.06
741.577	0.06
741.89	0.06
742.203	0.05
742.515	0.05
742.828	0.05
743.141	0.06
743.453	0.06
743.766	0.05
744.078	0.06
744.391	0.06
744.703	0.05
745.015	0.05
745.327	0.05
745.639	0.05
745.952	0.04
746.264	0.04
746.575	0.04
746.887	0.05
747.199	0.05
747.511	0.04
747.823	0.05
748.134	0.04
748.446	0.04
748.757	0.04
749.069	0.04
749.38	0.05
749.692	0.04
750.003	0.05
750.314	0.05
750.625	0.04
750.936	0.05
751.248	0.04
751.559	0.05
751.869	0.04
752.18	0.04
752.491	0.04
752.802	0.04
753.112	0.04
753.423	0.04
753.734	0.04
754.044	0.04
754.355	0.04
754.665	0.04
754.975	0.04
755.285	0.04
755.596	0.04
755.906	0.04
756.216	0.04
756.526	0.04
756.836	0.04
757.146	0.04
757.455	0.03
757.765	0.03
758.075	0.03
758.385	0.03
758.694	0.03
759.004	0.03
759.313	0.03
759.622	0.03
759.932	0.03
760.241	0.03
760.55	0.03
760.859	0.03
761.168	0.03
761.477	0.03
761.786	0.03
762.095	0.03
762.404	0.03
762.713	0.03
763.021	0.03
763.33	0.03
763.639	0.03
763.947	0.03
764.256	0.03
764.564	0.03
764.872	0.03
765.181	0.03
765.489	0.03
765.797	0.02
766.105	0.02
766.413	0.02
766.721	0.02
767.029	0.03
767.337	0.02
767.644	0.02
767.952	0.02
768.26	0.02
768.567	0.02
768.875	0.02
769.182	0.02
769.49	0.02
769.797	0.02
770.104	0.02
770.411	0.03
770.718	0.02
771.026	0.02
771.333	0.02
771.639	0.03
771.946	0.02
772.253	0.02
772.56	0.02
772.867	0.02
773.173	0.02
773.48	0.02
773.786	0.01
774.093	0.02
774.399	0.02
774.705	0.01
775.012	0.02
775.318	0.02
775.624	0.02
775.93	0.02
776.236	0.02
776.542	0.02
776.848	0.02
777.154	0.02
777.459	0.02
777.765	0.02
778.071	0.02
778.376	0.01
778.682	0.01
778.987	0.01
779.292	0.02
779.598	0.01
779.903	0.01
780.208	0.01
780.513	0.01
780.818	0.02
781.123	0.01
781.428	0.02
781.733	0.01
782.038	0.01
782.343	0.01
782.647	0.01
782.952	0.01
783.256	0.01
783.561	0.01
783.865	0.01
784.17	0.01
784.474	0.01
784.778	0.02
785.082	0.01
785.386	0.01
785.69	0.01
785.994	0.01
786.298	0.01
786.602	0
786.906	0.01
787.209	0
787.513	0
787.817	0
788.12	0
788.424	0
788.727	0
789.03	0.01
789.333	0
789.637	0
789.94	0.01
790.243	0.01
790.546	0.01
790.849	0.01
791.152	0.01
791.454	0.01
791.757	0.01
792.06	0.01
792.362	0.01
792.665	0
792.967	0
793.27	0
793.572	-0
793.874	-0
794.177	-0
794.479	-0
794.781	-0
795.083	0
795.385	-0
795.687	0
795.989	0.01
796.29	0.01
796.592	0.01
796.894	0
797.195	0
797.497	0
797.798	-0
798.1	-0
798.401	0
798.702	-0.01
799.003	-0.01
799.304	-0.01
799.605	-0.01
799.906	-0.01
800.207	-0.01
800.508	-0.01
800.809	-0.01
801.11	-0.01
801.41	-0.01
801.711	-0.01
802.011	-0.01
802.312	-0.01
802.612	-0
802.913	-0.01
803.213	-0
803.513	-0
803.813	-0
804.113	-0
804.413	-0
804.713	-0
805.013	-0
805.313	-0
805.613	-0
805.912	-0
806.212	-0
806.511	-0
806.811	-0
807.11	-0
807.41	0
807.709	-0
808.008	0
808.307	0
808.606	0
808.905	-0.01
809.204	-0.01
809.503	-0.01
809.802	-0.01
810.101	-0.01
810.399	-0
810.698	-0.01
810.997	-0.01
811.295	-0.01
811.593	-0.02
811.892	-0.02
812.19	-0.01
812.488	-0.01
812.786	-0.01
813.084	-0.01
813.383	-0.01
813.68	-0.01
813.978	-0.01
814.276	-0.01
814.574	-0.01
814.872	-0.01
815.169	-0.01
815.467	-0.01
815.764	-0.01
816.062	-0.02
816.359	-0.02
816.656	-0.02
816.954	-0.02
817.251	-0.02
817.548	-0.02
817.845	-0.02
818.142	-0.02
818.439	-0.01
818.735	-0.01
819.032	-0.01
819.329	-0.01
819.626	-0.01
819.922	-0.02
820.219	-0.02
820.515	-0.02
820.811	-0.02
821.108	-0.02
821.404	-0.02
821.7	-0.03
821.996	-0.03
822.292	-0.03
822.588	-0.02
822.884	-0.03
823.18	-0.03
823.475	-0.03
823.771	-0.02
824.067	-0.03
824.362	-0.02
824.658	-0.02
824.953	-0.03
825.249	-0.03
825.544	-0.02
825.839	-0.02
826.134	-0.03
826.429	-0.03
826.724	-0.03
827.019	-0.02
827.314	-0.02
827.609	-0.02
827.904	-0.02
828.198	-0.02
828.493	-0.02
828.787	-0.02
829.082	-0.01
829.376	-0.02
829.671	-0.02
829.965	-0.02
830.259	-0.02
830.553	-0.02
830.847	-0.03
831.141	-0.03
831.435	-0.03
831.729	-0.03
832.023	-0.03
832.317	-0.03
832.61	-0.03
832.904	-0.04
833.197	-0.04
833.491	-0.02
833.784	-0.03
834.077	-0.03
834.371	-0.04
834.664	-0.03
834.957	-0.03
835.25	-0.04
835.543	-0.03
835.836	-0.03
836.129	-0.03
836.421	-0.04
836.714	-0.04
837.007	-0.04
837.299	-0.04
837.592	-0.04
837.884	-0.04
838.177	-0.04
838.469	-0.03
838.761	-0.03
839.053	-0.02
839.345	-0.02
839.637	-0.03
839.929	-0.03
840.221	-0.04
840.513	-0.03
840.805	-0.03
841.096	-0.03
841.388	-0.03
841.68	-0.02
841.971	-0.04
842.262	-0.03
842.554	-0.05
842.845	-0.03
843.136	-0.04
843.427	-0.02
843.718	-0.03
844.009	-0.03
844.3	-0.02
844.591	-0.02
844.882	-0.04
845.173	-0.03
845.463	-0.04
845.754	-0.05
846.044	-0.04
846.335	-0.04
846.625	-0.04
846.915	-0.04
847.206	-0.02
847.496	-0.03
847.786	-0.04
848.076	-0.04
848.366	-0.03
848.656	-0.04
848.945	-0.04
849.235	-0.04
849.525	-0.03
849.814	-0.03
850.104	-0.03
850.393	-0.03
850.683	-0.04
850.972	-0.03
851.261	-0.03
851.551	-0.04
851.84	-0.03
852.129	-0.03
852.418	-0.03
852.707	-0.04
852.995	-0.04
853.284	-0.03
853.573	-0.03
853.862	-0.03
854.15	-0.01
854.439	-0.04
854.727	-0.04
855.015	-0.03
855.304	-0.02
855.592	-0.04
855.88	-0.04
856.168	-0.03
856.456	-0.03
856.744	-0.03
857.032	-0.04
857.32	-0.04
857.607	-0.03
857.895	-0.04
858.183	-0.04
858.47	-0.05
858.757	-0.03
859.045	-0.03
859.332	-0.03
859.619	-0.02
859.907	-0.04
860.194	-0.03
860.481	-0.01
860.768	-0.02
861.054	-0.03
861.341	-0.04
861.628	-0.03
861.915	-0.03
862.201	-0.03
862.488	-0.04
862.774	-0.04
863.061	-0.04
863.347	-0.02
863.633	-0.04
863.919	-0.04
864.205	-0.04
864.491	-0.07
864.777	-0.05
865.063	-0.05
865.349	-0.04
865.635	-0.02
865.92	-0.02
866.206	-0.03
866.492	-0.04
866.777	-0.07
867.062	-0.02
867.348	-0.07
867.633	-0.03
867.918	-0.05
868.203	-0.05
868.488	-0.03
868.773	-0.02
869.058	-0.04
869.343	-0.06
869.628	-0.03
869.912	-0.09
870.197	-0.06
870.482	-0.03
870.766	-0
871.05	-0.04
871.335	0.01
871.619	-0.02
871.903	-0.04
872.187	-0.03
872.471	-0.05
872.755	-0.02
873.039	-0.05
873.323	-0.04
873.607	0.05
873.89	-0.06
874.174	-0.04
874.458	-0.07
874.741	-0.03
875.024	-0.03
875.308	-0.03
875.591	-0
875.874	-0.02
876.157	-0.07
876.44	-0.07
876.723	-0.1
877.006	0.06
877.289	-0.08
877.572	0
877.854	-0.01
878.137	-0.1
878.42	0.15
878.702	-0.08
878.984	-0.06
879.267	0.05
879.549	-0.06
879.831	-0
880.113	-0.03
880.395	0.03
880.677	-0.07
880.959	-0.06
