Data from Rubpy_EV_300_EDTA_Buffered_Absorbance_12-35-06-230.txt Node
Date: Tue Jun 30 12:35:06 BST 2026
User: fpm-admin
Spectrometer: OFX00224
Trigger mode: 0
Integration Time (sec): 7.000000E-2
Scans to average: 3
Nonlinearity correction enabled: false
Boxcar width: 0
Storing dark spectrum: false
XAxis mode: Wavelengths
Number of Pixels in Spectrum: 2136
>>>>>Begin Spectral Data<<<<<
154.91	0.4
155.289	-0.25
155.669	-0
156.048	-0.48
156.428	0.12
156.807	0.17
157.186	-0
157.566	0.33
157.945	-0
158.325	0.29
158.704	-1.28
159.083	-0
159.462	0.39
159.842	-0.56
160.221	-0.04
160.6	-0.25
160.979	-0.06
161.359	-1.26
161.738	-0
162.117	-0
162.496	-0
162.875	0.52
163.254	-0
163.633	-0
164.012	0.52
164.391	-0
164.77	-0
165.149	0.44
165.528	-0.2
165.907	0.18
166.286	-0.61
166.665	-0.09
167.044	0.03
167.423	-0.64
167.802	-0.46
168.181	0.11
168.559	-0.13
168.938	0.11
169.317	-0
169.696	0.9
170.074	-0
170.453	0.53
170.832	-0.26
171.21	-0
171.589	-0.19
171.968	-0
172.346	-0
172.725	-0
173.103	0.43
173.482	-0.14
173.861	-0
174.239	-0
174.617	-0
174.996	-0.47
175.374	-0.6
175.753	-0.57
176.131	0.22
176.51	0.1
176.888	0.71
177.266	-0
177.645	0.06
178.023	0.26
178.401	-0.38
178.779	-0.07
179.158	-0.24
179.536	-0.26
179.914	0.3
180.292	-0.22
180.67	-0
181.048	0.95
181.427	-0
181.805	-0
182.183	-0.94
182.561	-0.23
182.939	-0.17
183.317	-0.55
183.695	0.35
184.073	-0.14
184.451	-0
184.829	-0.24
185.206	-0.18
185.584	-0.85
185.962	-0
186.34	-0
186.718	-0
187.096	0.11
187.473	-0.78
187.851	-0.29
188.229	-0.08
188.607	-0.06
188.984	-0.02
189.362	-0.12
189.74	0.06
190.117	0.06
190.495	-0.07
190.872	0.06
191.25	0.01
191.627	0
192.005	-0.01
192.382	-0.06
192.76	0.12
193.137	0.07
193.515	0.03
193.892	0.18
194.269	-0.01
194.647	0.05
195.024	0
195.401	-0.01
195.779	0.09
196.156	0.13
196.533	0.11
196.91	0.12
197.288	0.01
197.665	0.13
198.042	0.25
198.419	0.08
198.796	0.2
199.173	0.04
199.55	0.18
199.927	0.1
200.304	-0.09
200.681	0.07
201.058	-0.01
201.435	0.07
201.812	0.08
202.189	0.05
202.566	0.03
202.943	0.09
203.32	0.09
203.697	0.16
204.073	0.05
204.45	0.13
204.827	0.06
205.204	0.04
205.58	0.11
205.957	-0.02
206.334	0.05
206.71	0.12
207.087	0.03
207.464	0.08
207.84	0.06
208.217	0.07
208.593	0.02
208.97	0.09
209.346	0.15
209.723	0.12
210.099	0.03
210.476	0.06
210.852	0.05
211.228	0.12
211.605	0.08
211.981	0.16
212.357	0.05
212.733	0.09
213.11	0.09
213.486	0.14
213.862	0.12
214.238	0.01
214.614	0.13
214.991	0.12
215.367	-0.07
215.743	0.11
216.119	0.04
216.495	0.07
216.871	0.09
217.247	0.18
217.623	0.13
217.999	0.1
218.375	0.03
218.751	0.14
219.127	0.01
219.502	0.11
219.878	0.09
220.254	0.03
220.63	0.13
221.006	0.05
221.381	0.02
221.757	0.06
222.133	0.06
222.508	0.06
222.884	0.14
223.26	0.06
223.635	0.08
224.011	0.1
224.386	0.02
224.762	0
225.137	0.07
225.513	0.03
225.888	0.1
226.264	0.18
226.639	0.11
227.014	0.2
227.39	0.11
227.765	0.12
228.14	0.06
228.516	-0.01
228.891	0.13
229.266	0.05
229.641	0.08
230.017	0.1
230.392	0
230.767	0.06
231.142	0.11
231.517	0.1
231.892	0.17
232.267	-0.03
232.642	0.03
233.017	0.12
233.392	0.01
233.767	0.05
234.142	-0
234.517	0.06
234.892	-0.01
235.267	0.09
235.641	0.08
236.016	0.07
236.391	-0.02
236.766	0.15
237.14	0.05
237.515	0.13
237.89	0.08
238.264	0.07
238.639	0.18
239.014	0
239.388	0.11
239.763	0.1
240.137	0.03
240.512	0.03
240.886	0.01
241.261	0.11
241.635	0.08
242.009	0.12
242.384	0.08
242.758	-0
243.132	0.11
243.507	0.12
243.881	0.14
244.255	0.06
244.629	0.09
245.004	0.07
245.378	0.05
245.752	0.09
246.126	0.06
246.5	0.09
246.874	0.09
247.248	-0.02
247.622	0.07
247.996	0.12
248.37	0.04
248.744	0.02
249.118	0.04
249.492	0.12
249.866	0.02
250.24	0.03
250.613	0.1
250.987	0.01
251.361	-0.02
251.735	0.09
252.108	0.11
252.482	0.1
252.856	0.1
253.229	0.02
253.603	0.1
253.977	0.06
254.35	-0.01
254.724	0.04
255.097	0.07
255.471	0.09
255.844	0.09
256.218	0.08
256.591	0.08
256.964	0.09
257.338	0.09
257.711	0.08
258.084	0.01
258.458	0.08
258.831	-0.03
259.204	0.06
259.577	0.1
259.95	0.01
260.323	0.1
260.697	0.04
261.07	-0.01
261.443	0.01
261.816	0.12
262.189	-0.02
262.562	0.06
262.935	0.03
263.308	-0.03
263.68	0.06
264.053	0.02
264.426	0.03
264.799	-0.01
265.172	0.03
265.545	0.05
265.917	0.03
266.29	0.03
266.663	0.05
267.035	0.04
267.408	0.09
267.781	0.04
268.153	0.06
268.526	0.04
268.898	0.08
269.271	0.05
269.643	0.01
270.016	0.05
270.388	0.04
270.76	0.07
271.133	0.02
271.505	0.03
271.877	-0
272.25	0.1
272.622	0.02
272.994	0.06
273.366	0.06
273.739	0.1
274.111	0.07
274.483	0.06
274.855	0.01
275.227	0.13
275.599	0.09
275.971	0.11
276.343	0
276.715	0.04
277.087	0.11
277.459	0.04
277.831	0.03
278.203	0.09
278.574	0.14
278.946	0.01
279.318	0.12
279.69	0.09
280.061	0.05
280.433	0.1
280.805	0.09
281.176	0.07
281.548	0.06
281.92	0.04
282.291	0.02
282.663	0.06
283.034	0.06
283.406	0.04
283.777	0.02
284.148	0.07
284.52	0.04
284.891	0.1
285.262	0.07
285.634	0.07
286.005	0.08
286.376	0.03
286.747	0.1
287.119	0.05
287.49	0.08
287.861	0.07
288.232	0.07
288.603	0.04
288.974	0.06
289.345	0.03
289.716	0.07
290.087	0.08
290.458	0.07
290.829	0.1
291.2	0.05
291.571	0.04
291.941	0.08
292.312	0.1
292.683	0.08
293.054	0.07
293.424	0.07
293.795	0.04
294.166	0.04
294.536	0.08
294.907	0.07
295.277	0.02
295.648	0.05
296.018	0.04
296.389	0.09
296.759	0.08
297.13	0.05
297.5	0.07
297.871	0.09
298.241	0.06
298.611	0.08
298.981	0.01
299.352	0.07
299.722	0.08
300.092	0.08
300.462	0.04
300.832	0.08
301.202	0.07
301.573	0.07
301.943	0.06
302.313	0.06
302.683	0.04
303.053	0.05
303.422	0.07
303.792	0.08
304.162	0.05
304.532	0.05
304.902	0.05
305.272	0.05
305.641	0.06
306.011	0.06
306.381	0.07
306.75	0.06
307.12	0.06
307.49	0.06
307.859	0.05
308.229	0.06
308.598	0.07
308.968	0.06
309.337	0.07
309.707	0.07
310.076	0.07
310.445	0.07
310.815	0.07
311.184	0.07
311.553	0.07
311.923	0.06
312.292	0.07
312.661	0.07
313.03	0.07
313.399	0.07
313.768	0.06
314.137	0.07
314.506	0.07
314.875	0.07
315.244	0.06
315.613	0.07
315.982	0.07
316.351	0.07
316.72	0.07
317.089	0.07
317.458	0.07
317.826	0.06
318.195	0.06
318.564	0.06
318.933	0.07
319.301	0.06
319.67	0.06
320.038	0.06
320.407	0.06
320.775	0.06
321.144	0.06
321.512	0.07
321.881	0.06
322.249	0.07
322.618	0.06
322.986	0.06
323.354	0.06
323.723	0.06
324.091	0.06
324.459	0.06
324.827	0.06
325.195	0.06
325.564	0.06
325.932	0.06
326.3	0.06
326.668	0.06
327.036	0.06
327.404	0.06
327.772	0.06
328.14	0.06
328.508	0.06
328.875	0.06
329.243	0.06
329.611	0.06
329.979	0.06
330.346	0.06
330.714	0.06
331.082	0.06
331.449	0.06
331.817	0.06
332.185	0.06
332.552	0.06
332.92	0.06
333.287	0.06
333.655	0.06
334.022	0.06
334.389	0.06
334.757	0.06
335.124	0.06
335.491	0.06
335.859	0.06
336.226	0.06
336.593	0.06
336.96	0.07
337.327	0.07
337.695	0.07
338.062	0.06
338.429	0.06
338.796	0.07
339.163	0.07
339.53	0.06
339.897	0.07
340.263	0.07
340.63	0.07
340.997	0.07
341.364	0.07
341.731	0.07
342.097	0.07
342.464	0.07
342.831	0.07
343.197	0.07
343.564	0.07
343.931	0.08
344.297	0.08
344.664	0.08
345.03	0.08
345.396	0.08
345.763	0.08
346.129	0.08
346.496	0.08
346.862	0.08
347.228	0.09
347.594	0.09
347.961	0.08
348.327	0.09
348.693	0.09
349.059	0.09
349.425	0.1
349.791	0.09
350.157	0.09
350.523	0.09
350.889	0.09
351.255	0.1
351.621	0.1
351.987	0.1
352.353	0.1
352.719	0.11
353.084	0.11
353.45	0.11
353.816	0.11
354.181	0.11
354.547	0.12
354.913	0.11
355.278	0.11
355.644	0.12
356.009	0.12
356.375	0.12
356.74	0.13
357.106	0.13
357.471	0.14
357.836	0.13
358.202	0.14
358.567	0.14
358.932	0.14
359.297	0.14
359.663	0.15
360.028	0.15
360.393	0.15
360.758	0.15
361.123	0.15
361.488	0.15
361.853	0.15
362.218	0.16
362.583	0.16
362.948	0.16
363.312	0.16
363.677	0.16
364.042	0.17
364.407	0.17
364.772	0.17
365.136	0.18
365.501	0.18
365.865	0.18
366.23	0.18
366.595	0.19
366.959	0.2
367.324	0.2
367.688	0.2
368.052	0.2
368.417	0.2
368.781	0.2
369.145	0.21
369.51	0.21
369.874	0.21
370.238	0.21
370.602	0.22
370.967	0.21
371.331	0.21
371.695	0.21
372.059	0.21
372.423	0.21
372.787	0.21
373.151	0.21
373.515	0.2
373.878	0.21
374.242	0.21
374.606	0.21
374.97	0.2
375.334	0.21
375.697	0.21
376.061	0.22
376.425	0.21
376.788	0.22
377.152	0.22
377.515	0.22
377.879	0.23
378.242	0.22
378.606	0.22
378.969	0.23
379.333	0.23
379.696	0.23
380.059	0.24
380.422	0.24
380.786	0.24
381.149	0.25
381.512	0.26
381.875	0.26
382.238	0.27
382.601	0.28
382.964	0.28
383.327	0.29
383.69	0.3
384.053	0.3
384.416	0.31
384.779	0.31
385.142	0.32
385.504	0.33
385.867	0.33
386.23	0.34
386.593	0.34
386.955	0.34
387.318	0.34
387.68	0.34
388.043	0.34
388.405	0.34
388.768	0.34
389.13	0.33
389.493	0.32
389.855	0.33
390.217	0.32
390.58	0.32
390.942	0.33
391.304	0.32
391.666	0.33
392.028	0.33
392.391	0.34
392.753	0.36
393.115	0.36
393.477	0.38
393.839	0.4
394.201	0.4
394.563	0.42
394.924	0.44
395.286	0.46
395.648	0.46
396.01	0.48
396.371	0.49
396.733	0.51
397.095	0.52
397.456	0.52
397.818	0.52
398.18	0.52
398.541	0.51
398.903	0.5
399.264	0.49
399.625	0.47
399.987	0.45
400.348	0.43
400.709	0.42
401.071	0.39
401.432	0.37
401.793	0.35
402.154	0.32
402.515	0.31
402.876	0.29
403.238	0.27
403.599	0.25
403.96	0.23
404.32	0.22
404.681	0.2
405.042	0.19
405.403	0.18
405.764	0.17
406.125	0.15
406.485	0.15
406.846	0.14
407.207	0.13
407.567	0.12
407.928	0.12
408.288	0.11
408.649	0.11
409.009	0.1
409.37	0.1
409.73	0.09
410.091	0.1
410.451	0.09
410.811	0.08
411.171	0.08
411.532	0.08
411.892	0.08
412.252	0.08
412.612	0.07
412.972	0.07
413.332	0.08
413.692	0.07
414.052	0.06
414.412	0.07
414.772	0.06
415.132	0.06
415.492	0.06
415.851	0.06
416.211	0.06
416.571	0.06
416.931	0.05
417.29	0.06
417.65	0.06
418.009	0.05
418.369	0.05
418.728	0.05
419.088	0.05
419.447	0.05
419.807	0.05
420.166	0.05
420.525	0.05
420.884	0.05
421.244	0.04
421.603	0.05
421.962	0.05
422.321	0.04
422.68	0.05
423.039	0.03
423.398	0.04
423.757	0.05
424.116	0.05
424.475	0.04
424.834	0.05
425.193	0.05
425.551	0.04
425.91	0.04
426.269	0.05
426.628	0.04
426.986	0.04
427.345	0.04
427.703	0.04
428.062	0.05
428.42	0.05
428.779	0.04
429.137	0.05
429.496	0.04
429.854	0.04
430.212	0.04
430.57	0.04
430.929	0.04
431.287	0.03
431.645	0.04
432.003	0.05
432.361	0.04
432.719	0.04
433.077	0.04
433.435	0.04
433.793	0.04
434.151	0.04
434.509	0.05
434.866	0.04
435.224	0.03
435.582	0.04
435.94	0.04
436.297	0.04
436.655	0.03
437.012	0.04
437.37	0.03
437.727	0.04
438.085	0.04
438.442	0.04
438.8	0.03
439.157	0.04
439.514	0.04
439.872	0.03
440.229	0.04
440.586	0.03
440.943	0.04
441.3	0.04
441.657	0.03
442.014	0.04
442.371	0.04
442.728	0.03
443.085	0.04
443.442	0.03
443.799	0.03
444.156	0.04
444.513	0.04
444.869	0.03
445.226	0.03
445.583	0.03
445.939	0.03
446.296	0.04
446.652	0.03
447.009	0.04
447.365	0.03
447.722	0.03
448.078	0.03
448.434	0.03
448.791	0.03
449.147	0.03
449.503	0.03
449.859	0.02
450.215	0.03
450.571	0.03
450.928	0.03
451.284	0.03
451.64	0.03
451.995	0.03
452.351	0.04
452.707	0.03
453.063	0.03
453.419	0.02
453.775	0.03
454.13	0.03
454.486	0.03
454.842	0.02
455.197	0.02
455.553	0.02
455.908	0.02
456.264	0.02
456.619	0.02
456.975	0.01
457.33	0.02
457.685	0.02
458.04	0.02
458.396	0.01
458.751	0.02
459.106	0.02
459.461	0.02
459.816	0.01
460.171	0.02
460.526	0.01
460.881	0.01
461.236	0.01
461.591	0.01
461.946	0.01
462.301	0.01
462.655	0.01
463.01	0.01
463.365	0.01
463.719	-0
464.074	0
464.428	0.01
464.783	0
465.137	0.01
465.492	0
465.846	0.01
466.201	-0
466.555	0.01
466.909	0
467.263	0
467.618	0
467.972	0
468.326	0
468.68	0
469.034	0
469.388	-0
469.742	-0
470.096	-0
470.45	-0
470.804	0
471.157	-0
471.511	0
471.865	0
472.218	0.01
472.572	0
472.926	-0.01
473.279	-0
473.633	0
473.986	-0
474.34	0.01
474.693	0.01
475.046	0.01
475.4	0.01
475.753	0.01
476.106	0.01
476.459	0.02
476.812	0.02
477.165	0.02
477.519	0.02
477.872	0.02
478.224	0.02
478.577	0.02
478.93	0.02
479.283	0.02
479.636	0.03
479.989	0.02
480.341	0.03
480.694	0.03
481.047	0.03
481.399	0.03
481.752	0.03
482.104	0.03
482.457	0.03
482.809	0.03
483.162	0.03
483.514	0.03
483.866	0.03
484.219	0.03
484.571	0.03
484.923	0.03
485.275	0.03
485.627	0.03
485.979	0.04
486.331	0.04
486.683	0.03
487.035	0.03
487.387	0.04
487.739	0.04
488.091	0.04
488.443	0.04
488.794	0.04
489.146	0.04
489.498	0.04
489.849	0.04
490.201	0.04
490.552	0.04
490.904	0.04
491.255	0.04
491.607	0.04
491.958	0.04
492.309	0.04
492.661	0.04
493.012	0.04
493.363	0.05
493.714	0.05
494.065	0.04
494.416	0.04
494.767	0.04
495.118	0.04
495.469	0.04
495.82	0.05
496.171	0.04
496.522	0.04
496.872	0.04
497.223	0.05
497.574	0.04
497.924	0.05
498.275	0.05
498.626	0.05
498.976	0.05
499.327	0.05
499.677	0.05
500.027	0.05
500.378	0.05
500.728	0.05
501.078	0.05
501.428	0.05
501.779	0.05
502.129	0.05
502.479	0.05
502.829	0.05
503.179	0.05
503.529	0.05
503.879	0.05
504.229	0.05
504.578	0.05
504.928	0.06
505.278	0.06
505.628	0.06
505.977	0.06
506.327	0.06
506.676	0.06
507.026	0.06
507.375	0.06
507.725	0.05
508.074	0.05
508.424	0.06
508.773	0.06
509.122	0.06
509.471	0.06
509.82	0.06
510.17	0.06
510.519	0.06
510.868	0.06
511.217	0.06
511.566	0.07
511.915	0.06
512.263	0.07
512.612	0.07
512.961	0.06
513.31	0.07
513.659	0.06
514.007	0.07
514.356	0.07
514.704	0.07
515.053	0.07
515.401	0.06
515.75	0.07
516.098	0.07
516.447	0.07
516.795	0.07
517.143	0.07
517.491	0.07
517.839	0.07
518.188	0.07
518.536	0.07
518.884	0.07
519.232	0.07
519.58	0.07
519.928	0.07
520.275	0.07
520.623	0.07
520.971	0.07
521.319	0.07
521.666	0.08
522.014	0.07
522.362	0.07
522.709	0.07
523.057	0.07
523.404	0.07
523.752	0.08
524.099	0.08
524.446	0.08
524.794	0.08
525.141	0.08
525.488	0.08
525.835	0.07
526.182	0.08
526.529	0.08
526.876	0.07
527.223	0.08
527.57	0.08
527.917	0.08
528.264	0.08
528.611	0.08
528.958	0.08
529.304	0.08
529.651	0.08
529.998	0.08
530.344	0.08
530.691	0.08
531.037	0.09
531.384	0.09
531.73	0.08
532.076	0.09
532.423	0.09
532.769	0.09
533.115	0.09
533.461	0.09
533.807	0.09
534.154	0.08
534.5	0.08
534.846	0.09
535.192	0.09
535.537	0.09
535.883	0.09
536.229	0.09
536.575	0.09
536.921	0.1
537.266	0.1
537.612	0.1
537.957	0.09
538.303	0.1
538.649	0.1
538.994	0.1
539.339	0.1
539.685	0.1
540.03	0.1
540.375	0.1
540.721	0.1
541.066	0.1
541.411	0.1
541.756	0.1
542.101	0.1
542.446	0.1
542.791	0.1
543.136	0.1
543.481	0.1
543.825	0.11
544.17	0.11
544.515	0.11
544.86	0.11
545.204	0.1
545.549	0.11
545.893	0.1
546.238	0.1
546.582	0.11
546.927	0.11
547.271	0.11
547.615	0.11
547.96	0.11
548.304	0.11
548.648	0.12
548.992	0.11
549.336	0.12
549.68	0.11
550.024	0.12
550.368	0.12
550.712	0.12
551.056	0.12
551.4	0.12
551.743	0.12
552.087	0.12
552.431	0.12
552.774	0.12
553.118	0.12
553.462	0.12
553.805	0.12
554.148	0.12
554.492	0.12
554.835	0.12
555.178	0.12
555.522	0.12
555.865	0.12
556.208	0.13
556.551	0.12
556.894	0.12
557.237	0.12
557.58	0.13
557.923	0.12
558.266	0.13
558.609	0.13
558.952	0.12
559.294	0.12
559.637	0.13
559.98	0.13
560.322	0.13
560.665	0.13
561.007	0.13
561.35	0.13
561.692	0.13
562.034	0.13
562.377	0.13
562.719	0.13
563.061	0.13
563.403	0.13
563.745	0.13
564.088	0.13
564.43	0.12
564.772	0.13
565.113	0.13
565.455	0.12
565.797	0.13
566.139	0.12
566.481	0.13
566.822	0.13
567.164	0.13
567.506	0.13
567.847	0.13
568.189	0.13
568.53	0.13
568.872	0.13
569.213	0.13
569.554	0.13
569.895	0.13
570.237	0.13
570.578	0.13
570.919	0.13
571.26	0.13
571.601	0.14
571.942	0.14
572.283	0.13
572.624	0.13
572.965	0.13
573.306	0.14
573.646	0.13
573.987	0.13
574.328	0.13
574.668	0.13
575.009	0.13
575.349	0.13
575.69	0.13
576.03	0.13
576.37	0.13
576.711	0.13
577.051	0.13
577.391	0.13
577.731	0.13
578.072	0.13
578.412	0.13
578.752	0.13
579.092	0.13
579.431	0.13
579.771	0.12
580.111	0.11
580.451	0.12
580.791	0.13
581.13	0.13
581.47	0.13
581.81	0.13
582.149	0.13
582.489	0.13
582.828	0.13
583.167	0.12
583.507	0.1
583.846	0.08
584.185	0.09
584.525	0.12
584.864	0.13
585.203	0.13
585.542	0.14
585.881	0.14
586.22	0.14
586.559	0.14
586.898	0.13
587.236	0.13
587.575	0.13
587.914	0.13
588.252	0.13
588.591	0.14
588.93	0.14
589.268	0.14
589.607	0.14
589.945	0.14
590.283	0.14
590.622	0.14
590.96	0.14
591.298	0.15
591.636	0.14
591.974	0.14
592.313	0.15
592.651	0.15
592.989	0.14
593.326	0.15
593.664	0.15
594.002	0.15
594.34	0.15
594.678	0.15
595.015	0.15
595.353	0.14
595.691	0.15
596.028	0.15
596.366	0.15
596.703	0.15
597.04	0.15
597.378	0.15
597.715	0.16
598.052	0.16
598.389	0.16
598.726	0.15
599.064	0.16
599.401	0.16
599.738	0.16
600.074	0.16
600.411	0.16
600.748	0.16
601.085	0.16
601.422	0.15
601.758	0.15
602.095	0.15
602.432	0.16
602.768	0.15
603.105	0.16
603.441	0.16
603.777	0.16
604.114	0.16
604.45	0.16
604.786	0.16
605.122	0.16
605.459	0.15
605.795	0.16
606.131	0.16
606.467	0.16
606.803	0.16
607.139	0.16
607.474	0.16
607.81	0.16
608.146	0.16
608.482	0.16
608.817	0.16
609.153	0.16
609.488	0.16
609.824	0.16
610.159	0.16
610.495	0.16
610.83	0.16
611.165	0.16
611.5	0.16
611.836	0.16
612.171	0.15
612.506	0.15
612.841	0.15
613.176	0.15
613.511	0.15
613.845	0.15
614.18	0.15
614.515	0.15
614.85	0.15
615.184	0.15
615.519	0.15
615.854	0.15
616.188	0.15
616.523	0.15
616.857	0.15
617.191	0.15
617.526	0.15
617.86	0.15
618.194	0.15
618.528	0.15
618.862	0.15
619.196	0.15
619.53	0.15
619.864	0.15
620.198	0.15
620.532	0.15
620.866	0.15
621.2	0.15
621.533	0.15
621.867	0.15
622.201	0.15
622.534	0.14
622.868	0.15
623.201	0.14
623.534	0.15
623.868	0.14
624.201	0.14
624.534	0.14
624.868	0.14
625.201	0.14
625.534	0.14
625.867	0.14
626.2	0.14
626.533	0.14
626.865	0.14
627.198	0.14
627.531	0.14
627.864	0.14
628.196	0.14
628.529	0.13
628.862	0.13
629.194	0.13
629.527	0.13
629.859	0.13
630.191	0.13
630.524	0.13
630.856	0.12
631.188	0.13
631.52	0.13
631.852	0.12
632.184	0.12
632.516	0.12
632.848	0.12
633.18	0.12
633.512	0.12
633.844	0.12
634.175	0.12
634.507	0.12
634.839	0.12
635.17	0.12
635.502	0.11
635.833	0.11
636.165	0.12
636.496	0.11
636.827	0.11
637.159	0.11
637.49	0.11
637.821	0.11
638.152	0.11
638.483	0.11
638.814	0.11
639.145	0.11
639.476	0.11
639.807	0.1
640.137	0.1
640.468	0.1
640.799	0.1
641.129	0.1
641.46	0.1
641.791	0.1
642.121	0.1
642.451	0.1
642.782	0.1
643.112	0.1
643.442	0.09
643.773	0.09
644.103	0.09
644.433	0.09
644.763	0.09
645.093	0.09
645.423	0.09
645.753	0.09
646.082	0.09
646.412	0.09
646.742	0.09
647.072	0.09
647.401	0.09
647.731	0.09
648.06	0.09
648.39	0.09
648.719	0.09
649.048	0.09
649.378	0.09
649.707	0.09
650.036	0.09
650.365	0.09
650.694	0.09
651.023	0.09
651.352	0.09
651.681	0.09
652.01	0.09
652.339	0.09
652.668	0.09
652.996	0.09
653.325	0.09
653.654	0.08
653.982	0.09
654.311	0.09
654.639	0.09
654.967	0.09
655.296	0.09
655.624	0.09
655.952	0.09
656.28	0.09
656.609	0.09
656.937	0.09
657.265	0.09
657.593	0.08
657.92	0
658.248	-0
658.576	-0
658.904	0
659.231	0.05
659.559	0.09
659.887	0.09
660.214	0.09
660.542	0.09
660.869	0.09
661.196	0.09
661.524	0.09
661.851	0.09
662.178	0.09
662.505	0.08
662.832	0.09
663.159	0.08
663.486	0.08
663.813	0.08
664.14	0.08
664.467	0.08
664.794	0.08
665.12	0.09
665.447	0.08
665.774	0.09
666.1	0.09
666.427	0.09
666.753	0.08
667.079	0.08
667.406	0.08
667.732	0.08
668.058	0.08
668.384	0.08
668.71	0.08
669.036	0.08
669.362	0.08
669.688	0.08
670.014	0.08
670.34	0.07
670.666	0.08
670.991	0.08
671.317	0.08
671.643	0.08
671.968	0.08
672.294	0.08
672.619	0.08
672.945	0.08
673.27	0.08
673.595	0.08
673.92	0.07
674.246	0.07
674.571	0.07
674.896	0.07
675.221	0.07
675.546	0.07
675.87	0.07
676.195	0.07
676.52	0.07
676.845	0.07
677.169	0.07
677.494	0.07
677.819	0.07
678.143	0.06
678.468	0.07
678.792	0.07
679.116	0.07
679.44	0.07
679.765	0.06
680.089	0.06
680.413	0.06
680.737	0.06
681.061	0.06
681.385	0.06
681.709	0.06
682.033	0.06
682.356	0.06
682.68	0.06
683.004	0.06
683.327	0.06
683.651	0.06
683.974	0.05
684.298	0.06
684.621	0.06
684.944	0.06
685.268	0.06
685.591	0.06
685.914	0.06
686.237	0.05
686.56	0.06
686.883	0.05
687.206	0.05
687.529	0.05
687.852	0.05
688.175	0.05
688.497	0.05
688.82	0.05
689.142	0.05
689.465	0.05
689.787	0.05
690.11	0.05
690.432	0.05
690.755	0.05
691.077	0.05
691.399	0.05
691.721	0.05
692.043	0.04
692.365	0.04
692.687	0.04
693.009	0.04
693.331	0.04
693.653	0.04
693.974	0.04
694.296	0.05
694.618	0.05
694.939	0.05
695.261	0.05
695.582	0.05
695.904	0.05
696.225	0.05
696.546	0.04
696.868	0.04
697.189	0.04
697.51	0.04
697.831	0.04
698.152	0.04
698.473	0.04
698.794	0.04
699.114	0.04
699.435	0.04
699.756	0.04
700.077	0.04
700.397	0.04
700.718	0.04
701.038	0.04
701.359	0.04
701.679	0.04
701.999	0.04
702.32	0.04
702.64	0.03
702.96	0.03
703.28	0.03
703.6	0.03
703.92	0.03
704.24	0.04
704.56	0.04
704.879	0.04
705.199	0.04
705.519	0.04
705.838	0.04
706.158	0.04
706.478	0.04
706.797	0.04
707.116	0.04
707.436	0.04
707.755	0.04
708.074	0.04
708.393	0.04
708.712	0.04
709.031	0.04
709.35	0.04
709.669	0.04
709.988	0.04
710.307	0.04
710.626	0.04
710.944	0.04
711.263	0.04
711.582	0.04
711.9	0.04
712.219	0.03
712.537	0.03
712.855	0.03
713.174	0.04
713.492	0.04
713.81	0.04
714.128	0.04
714.446	0.04
714.764	0.04
715.082	0.03
715.4	0.04
715.718	0.04
716.035	0.04
716.353	0.04
716.671	0.04
716.988	0.04
717.306	0.04
717.623	0.04
717.941	0.04
718.258	0.04
718.575	0.04
718.893	0.04
719.21	0.04
719.527	0.04
719.844	0.03
720.161	0.04
720.478	0.04
720.795	0.04
721.112	0.04
721.428	0.04
721.745	0.04
722.062	0.04
722.378	0.04
722.695	0.04
723.011	0.04
723.328	0.04
723.644	0.04
723.96	0.04
724.276	0.04
724.593	0.04
724.909	0.04
725.225	0.04
725.541	0.04
725.857	0.04
726.173	0.04
726.488	0.04
726.804	0.04
727.12	0.04
727.435	0.04
727.751	0.04
728.067	0.04
728.382	0.05
728.697	0.04
729.013	0.04
729.328	0.04
729.643	0.04
729.958	0.04
730.273	0.04
730.588	0.04
730.903	0.04
731.218	0.04
731.533	0.04
731.848	0.04
732.163	0.04
732.477	0.04
732.792	0.04
733.107	0.04
733.421	0.04
733.736	0.04
734.05	0.04
734.364	0.04
734.678	0.04
734.993	0.04
735.307	0.04
735.621	0.04
735.935	0.05
736.249	0.05
736.563	0.05
736.877	0.04
737.19	0.04
737.504	0.04
737.818	0.04
738.131	0.04
738.445	0.04
738.758	0.04
739.072	0.04
739.385	0.05
739.698	0.05
740.012	0.04
740.325	0.04
740.638	0.04
740.951	0.04
741.264	0.04
741.577	0.04
741.89	0.04
742.203	0.04
742.515	0.04
742.828	0.04
743.141	0.04
743.453	0.04
743.766	0.04
744.078	0.05
744.391	0.04
744.703	0.04
745.015	0.04
745.327	0.04
745.639	0.04
745.952	0.03
746.264	0.03
746.575	0.03
746.887	0.03
747.199	0.03
747.511	0.03
747.823	0.03
748.134	0.03
748.446	0.03
748.757	0.03
749.069	0.03
749.38	0.03
749.692	0.03
750.003	0.03
750.314	0.03
750.625	0.03
750.936	0.03
751.248	0.03
751.559	0.03
751.869	0.03
752.18	0.03
752.491	0.03
752.802	0.04
753.112	0.04
753.423	0.03
753.734	0.03
754.044	0.03
754.355	0.03
754.665	0.03
754.975	0.03
755.285	0.03
755.596	0.03
755.906	0.03
756.216	0.03
756.526	0.03
756.836	0.03
757.146	0.03
757.455	0.03
757.765	0.03
758.075	0.02
758.385	0.02
758.694	0.02
759.004	0.02
759.313	0.02
759.622	0.02
759.932	0.02
760.241	0.02
760.55	0.02
760.859	0.02
761.168	0.02
761.477	0.02
761.786	0.02
762.095	0.02
762.404	0.02
762.713	0.03
763.021	0.03
763.33	0.03
763.639	0.03
763.947	0.03
764.256	0.02
764.564	0.02
764.872	0.02
765.181	0.02
765.489	0.02
765.797	0.02
766.105	0.02
766.413	0.02
766.721	0.02
767.029	0.02
767.337	0.02
767.644	0.02
767.952	0.02
768.26	0.02
768.567	0.02
768.875	0.02
769.182	0.02
769.49	0.02
769.797	0.02
770.104	0.02
770.411	0.02
770.718	0.02
771.026	0.02
771.333	0.02
771.639	0.02
771.946	0.02
772.253	0.02
772.56	0.02
772.867	0.02
773.173	0.01
773.48	0.01
773.786	0.02
774.093	0.02
774.399	0.02
774.705	0.02
775.012	0.01
775.318	0.02
775.624	0.02
775.93	0.02
776.236	0.02
776.542	0.02
776.848	0.02
777.154	0.02
777.459	0.02
777.765	0.02
778.071	0.02
778.376	0.01
778.682	0.01
778.987	0.01
779.292	0.01
779.598	0.01
779.903	0.01
780.208	0.01
780.513	0.01
780.818	0.01
781.123	0.01
781.428	0.01
781.733	0.01
782.038	0.01
782.343	0.01
782.647	0.01
782.952	0.01
783.256	0.01
783.561	0.01
783.865	0.01
784.17	0.01
784.474	0.01
784.778	0.01
785.082	0.01
785.386	0.01
785.69	0.01
785.994	0.01
786.298	0
786.602	0
786.906	0
787.209	0
787.513	0.01
787.817	0.01
788.12	0
788.424	0.01
788.727	0.01
789.03	0.01
789.333	0
789.637	0
789.94	0.01
790.243	0.01
790.546	0.01
790.849	0.01
791.152	0.01
791.454	0
791.757	0.01
792.06	0
792.362	0
792.665	0
792.967	0
793.27	-0
793.572	-0
793.874	0
794.177	-0
794.479	-0.01
794.781	-0
795.083	0
795.385	-0
795.687	0
795.989	0.01
796.29	0.01
796.592	0.01
796.894	0
797.195	-0
797.497	0
797.798	-0
798.1	-0
798.401	-0
798.702	-0.01
799.003	-0.01
799.304	-0.01
799.605	-0.01
799.906	-0.01
800.207	-0.01
800.508	-0.01
800.809	-0.01
801.11	-0.01
801.41	-0.01
801.711	-0.01
802.011	-0.01
802.312	-0.01
802.612	-0.01
802.913	-0.01
803.213	-0.01
803.513	-0.01
803.813	-0
804.113	-0
804.413	-0
804.713	-0
805.013	-0
805.313	-0.01
805.613	-0
805.912	-0
806.212	-0
806.511	-0
806.811	-0
807.11	-0
807.41	0
807.709	-0
808.008	-0
808.307	0
808.606	-0
808.905	-0
809.204	-0.01
809.503	-0.01
809.802	-0.01
810.101	-0.01
810.399	-0.01
810.698	-0.01
810.997	-0.01
811.295	-0.01
811.593	-0.02
811.892	-0.02
812.19	-0.01
812.488	-0.01
812.786	-0.01
813.084	-0.01
813.383	-0.01
813.68	-0.01
813.978	-0.01
814.276	-0.01
814.574	-0.01
814.872	-0.02
815.169	-0.02
815.467	-0.01
815.764	-0.01
816.062	-0.02
816.359	-0.02
816.656	-0.02
816.954	-0.02
817.251	-0.02
817.548	-0.02
817.845	-0.02
818.142	-0.02
818.439	-0.02
818.735	-0.02
819.032	-0.02
819.329	-0.01
819.626	-0.02
819.922	-0.02
820.219	-0.02
820.515	-0.02
820.811	-0.03
821.108	-0.03
821.404	-0.03
821.7	-0.04
821.996	-0.04
822.292	-0.04
822.588	-0.03
822.884	-0.03
823.18	-0.02
823.475	-0.03
823.771	-0.02
824.067	-0.03
824.362	-0.03
824.658	-0.03
824.953	-0.03
825.249	-0.03
825.544	-0.02
825.839	-0.02
826.134	-0.03
826.429	-0.03
826.724	-0.03
827.019	-0.03
827.314	-0.03
827.609	-0.03
827.904	-0.03
828.198	-0.03
828.493	-0.03
828.787	-0.02
829.082	-0.02
829.376	-0.02
829.671	-0.02
829.965	-0.02
830.259	-0.02
830.553	-0.03
830.847	-0.03
831.141	-0.03
831.435	-0.04
831.729	-0.03
832.023	-0.05
832.317	-0.04
832.61	-0.04
832.904	-0.04
833.197	-0.04
833.491	-0.03
833.784	-0.04
834.077	-0.04
834.371	-0.04
834.664	-0.03
834.957	-0.03
835.25	-0.05
835.543	-0.03
835.836	-0.04
836.129	-0.04
836.421	-0.04
836.714	-0.04
837.007	-0.04
837.299	-0.04
837.592	-0.04
837.884	-0.04
838.177	-0.05
838.469	-0.04
838.761	-0.03
839.053	-0.03
839.345	-0.02
839.637	-0.03
839.929	-0.03
840.221	-0.05
840.513	-0.04
840.805	-0.04
841.096	-0.04
841.388	-0.04
841.68	-0.03
841.971	-0.04
842.262	-0.04
842.554	-0.05
842.845	-0.04
843.136	-0.04
843.427	-0.03
843.718	-0.03
844.009	-0.04
844.3	-0.04
844.591	-0.03
844.882	-0.05
845.173	-0.04
845.463	-0.05
845.754	-0.05
846.044	-0.05
846.335	-0.05
846.625	-0.04
846.915	-0.05
847.206	-0.03
847.496	-0.04
847.786	-0.05
848.076	-0.05
848.366	-0.04
848.656	-0.04
848.945	-0.05
849.235	-0.05
849.525	-0.04
849.814	-0.04
850.104	-0.04
850.393	-0.03
850.683	-0.04
850.972	-0.04
851.261	-0.04
851.551	-0.04
851.84	-0.03
852.129	-0.04
852.418	-0.05
852.707	-0.03
852.995	-0.05
853.284	-0.04
853.573	-0.03
853.862	-0.03
854.15	-0.03
854.439	-0.04
854.727	-0.04
855.015	-0.04
855.304	-0.04
855.592	-0.04
855.88	-0.03
856.168	-0.04
856.456	-0.03
856.744	-0.03
857.032	-0.05
857.32	-0.04
857.607	-0.03
857.895	-0.04
858.183	-0.05
858.47	-0.06
858.757	-0.04
859.045	-0.03
859.332	-0.04
859.619	-0.04
859.907	-0.03
860.194	-0.04
860.481	-0.01
860.768	-0.04
861.054	-0.04
861.341	-0.04
861.628	-0.03
861.915	-0.03
862.201	-0.04
862.488	-0.06
862.774	-0.05
863.061	-0.04
863.347	-0.05
863.633	-0.06
863.919	-0.05
864.205	-0.04
864.491	-0.05
864.777	-0.07
865.063	-0.08
865.349	-0.04
865.635	-0.04
865.92	-0.01
866.206	-0.05
866.492	-0.04
866.777	-0.06
867.062	-0.01
867.348	-0.05
867.633	-0.07
867.918	-0.04
868.203	-0.05
868.488	-0.02
868.773	-0.02
869.058	-0.04
869.343	-0.02
869.628	-0.05
869.912	-0.08
870.197	-0.08
870.482	-0.01
870.766	-0.04
871.05	-0.05
871.335	0.01
871.619	-0.06
871.903	-0.08
872.187	-0.05
872.471	-0.03
872.755	-0.04
873.039	-0.08
873.323	-0.06
873.607	0
873.89	-0.07
874.174	-0.04
874.458	-0.04
874.741	-0.04
875.024	0.01
875.308	-0.05
875.591	-0
875.874	-0.02
876.157	-0.14
876.44	-0.03
876.723	-0.13
877.006	-0.02
877.289	-0.05
877.572	-0.02
877.854	-0.05
878.137	-0.08
878.42	-0.05
878.702	-0.04
878.984	-0.09
879.267	-0
879.549	-0.07
879.831	0.08
880.113	-0.13
880.395	-0.02
880.677	-0
880.959	-0.03
