Data from Rubpy_EV_300_EDTA_Buffered_Absorbance_12-16-49-218.txt Node
Date: Tue Jun 30 12:16:49 BST 2026
User: fpm-admin
Spectrometer: OFX00224
Trigger mode: 0
Integration Time (sec): 7.000000E-2
Scans to average: 3
Nonlinearity correction enabled: false
Boxcar width: 0
Storing dark spectrum: false
XAxis mode: Wavelengths
Number of Pixels in Spectrum: 2136
>>>>>Begin Spectral Data<<<<<
154.91	-0
155.289	-0
155.669	0.95
156.048	-0.45
156.428	0.23
156.807	-0.05
157.186	0.14
157.566	0.05
157.945	0.54
158.325	-0.05
158.704	-0
159.083	-0
159.462	-0.09
159.842	-0.7
160.221	-0.21
160.6	-0.18
160.979	-0
161.359	-0.3
161.738	-0
162.117	-0
162.496	-0
162.875	-0.15
163.254	0.3
163.633	-0
164.012	-0.23
164.391	-0.11
164.77	0.38
165.149	-0.21
165.528	-0.3
165.907	-0.12
166.286	-0
166.665	0.34
167.044	-0.27
167.423	-0
167.802	-0
168.181	-0.48
168.559	1.06
168.938	-0.19
169.317	-0
169.696	0.12
170.074	-0
170.453	-0.12
170.832	-0.4
171.21	-0.26
171.589	-0.14
171.968	-0
172.346	-0.02
172.725	-0
173.103	-0
173.482	-0.05
173.861	-0.24
174.239	-0
174.617	-0
174.996	-0.36
175.374	-0
175.753	-0
176.131	-0.23
176.51	0.18
176.888	0.26
177.266	-0
177.645	0.07
178.023	0.16
178.401	-0.5
178.779	-0.02
179.158	-0
179.536	-0.3
179.914	-0
180.292	-0.47
180.67	-0.52
181.048	-0
181.427	-0
181.805	-0
182.183	-0.56
182.561	0.14
182.939	-0.27
183.317	-0.05
183.695	0.46
184.073	-0.08
184.451	-0
184.829	0.17
185.206	-0.16
185.584	-1.01
185.962	-0
186.34	0.15
186.718	-0
187.096	-0
187.473	-0
187.851	0.14
188.229	0.18
188.607	0.03
188.984	0.05
189.362	0.03
189.74	0.1
190.117	0.08
190.495	0
190.872	0.06
191.25	-0.03
191.627	-0.02
192.005	-0.01
192.382	0.03
192.76	0.09
193.137	0.07
193.515	-0.03
193.892	0.08
194.269	-0.01
194.647	0.08
195.024	0.08
195.401	-0.04
195.779	0.1
196.156	0.13
196.533	0.03
196.91	0.06
197.288	0.04
197.665	0.05
198.042	0.05
198.419	0.07
198.796	0.08
199.173	0.04
199.55	0.14
199.927	0.07
200.304	-0.05
200.681	0.03
201.058	0.03
201.435	0.08
201.812	0.06
202.189	0.1
202.566	0.02
202.943	0.08
203.32	0.05
203.697	0.12
204.073	0.07
204.45	0.04
204.827	0.12
205.204	0.05
205.58	0.08
205.957	-0
206.334	0.09
206.71	0.03
207.087	0.02
207.464	0.06
207.84	0.04
208.217	0.03
208.593	0.05
208.97	0.07
209.346	0.14
209.723	0.11
210.099	0.06
210.476	0.12
210.852	0.03
211.228	0.07
211.605	0.06
211.981	0.09
212.357	0.01
212.733	0.15
213.11	0.01
213.486	0.11
213.862	0.09
214.238	0.06
214.614	0.08
214.991	0.05
215.367	0.03
215.743	0.07
216.119	0.13
216.495	0.05
216.871	0.09
217.247	0.01
217.623	0.07
217.999	0.02
218.375	0.04
218.751	0.09
219.127	0.05
219.502	0.09
219.878	0.11
220.254	0.08
220.63	0.12
221.006	0.06
221.381	0.04
221.757	0.03
222.133	0.12
222.508	0.04
222.884	0.06
223.26	0.07
223.635	0.09
224.011	0.05
224.386	0.04
224.762	-0.01
225.137	0.05
225.513	0.06
225.888	0.09
226.264	-0.01
226.639	0.12
227.014	0.06
227.39	0.03
227.765	0.06
228.14	0.01
228.516	0.07
228.891	0.09
229.266	0.08
229.641	0.12
230.017	-0
230.392	0.03
230.767	0.11
231.142	0.09
231.517	-0
231.892	0.13
232.267	-0.05
232.642	0.05
233.017	0.04
233.392	0.09
233.767	0.03
234.142	0.01
234.517	-0.01
234.892	0.02
235.267	0
235.641	0.07
236.016	0.04
236.391	0.12
236.766	0.13
237.14	0.07
237.515	0.09
237.89	0.07
238.264	0.05
238.639	-0.09
239.014	-0.05
239.388	0.03
239.763	0.12
240.137	0.03
240.512	-0.01
240.886	-0.01
241.261	0.01
241.635	0.05
242.009	0.02
242.384	0.11
242.758	-0.01
243.132	0.14
243.507	0.11
243.881	0.13
244.255	0.14
244.629	0.11
245.004	0.05
245.378	0.04
245.752	0.03
246.126	0.12
246.5	0.11
246.874	0.09
247.248	0.03
247.622	0.05
247.996	0.15
248.37	0.07
248.744	0.08
249.118	0.07
249.492	0.17
249.866	0.13
250.24	-0.01
250.613	0.11
250.987	0.06
251.361	0.06
251.735	0.08
252.108	0.1
252.482	0.07
252.856	-0.03
253.229	0.08
253.603	0.03
253.977	0.01
254.35	0.05
254.724	0.06
255.097	0.07
255.471	0.06
255.844	0.05
256.218	0.02
256.591	0.05
256.964	0.13
257.338	0.09
257.711	0.08
258.084	0.02
258.458	0.07
258.831	0.07
259.204	0.02
259.577	0.09
259.95	-0.01
260.323	0.1
260.697	0.06
261.07	0.02
261.443	-0.01
261.816	0.1
262.189	-0.02
262.562	0.12
262.935	0.02
263.308	0.05
263.68	0.05
264.053	0.05
264.426	0.05
264.799	0.03
265.172	0.05
265.545	-0
265.917	0.05
266.29	0.06
266.663	0.02
267.035	0.03
267.408	0.05
267.781	0.03
268.153	0.05
268.526	0.03
268.898	0.07
269.271	0.12
269.643	0.02
270.016	0.08
270.388	0.07
270.76	0.06
271.133	0.03
271.505	0.05
271.877	-0.03
272.25	0.1
272.622	0.07
272.994	0.03
273.366	0.1
273.739	0.08
274.111	0.05
274.483	0.01
274.855	0.04
275.227	0.18
275.599	0.1
275.971	0.07
276.343	0.02
276.715	0.02
277.087	0.12
277.459	0.06
277.831	0.08
278.203	0.08
278.574	0.07
278.946	0.07
279.318	0.09
279.69	0.12
280.061	0.06
280.433	0.09
280.805	0.1
281.176	0.04
281.548	0.02
281.92	0.05
282.291	0.03
282.663	0.02
283.034	0.01
283.406	0.06
283.777	0.02
284.148	0.04
284.52	0
284.891	0.11
285.262	0.1
285.634	0.05
286.005	0.11
286.376	0.07
286.747	0.15
287.119	0.08
287.49	0.04
287.861	0.09
288.232	0
288.603	0.06
288.974	0.05
289.345	0.04
289.716	0.05
290.087	0.04
290.458	0.07
290.829	0.09
291.2	0.1
291.571	0.05
291.941	0.09
292.312	0.11
292.683	0.08
293.054	0.06
293.424	0.06
293.795	0.09
294.166	0.03
294.536	0.06
294.907	0.07
295.277	0.09
295.648	0.04
296.018	0.06
296.389	0.07
296.759	0.04
297.13	0.05
297.5	0.06
297.871	0.06
298.241	0.07
298.611	0.07
298.981	0.02
299.352	0.05
299.722	0.07
300.092	0.04
300.462	0.01
300.832	0.03
301.202	0.06
301.573	0.08
301.943	0.05
302.313	0.03
302.683	0.04
303.053	0.06
303.422	0.04
303.792	0.05
304.162	0.04
304.532	0.05
304.902	0.04
305.272	0.05
305.641	0.05
306.011	0.04
306.381	0.06
306.75	0.05
307.12	0.05
307.49	0.05
307.859	0.05
308.229	0.05
308.598	0.05
308.968	0.06
309.337	0.05
309.707	0.06
310.076	0.06
310.445	0.06
310.815	0.06
311.184	0.06
311.553	0.05
311.923	0.06
312.292	0.06
312.661	0.06
313.03	0.05
313.399	0.06
313.768	0.06
314.137	0.06
314.506	0.06
314.875	0.06
315.244	0.06
315.613	0.06
315.982	0.05
316.351	0.06
316.72	0.06
317.089	0.06
317.458	0.06
317.826	0.05
318.195	0.06
318.564	0.05
318.933	0.06
319.301	0.06
319.67	0.05
320.038	0.06
320.407	0.06
320.775	0.05
321.144	0.06
321.512	0.06
321.881	0.05
322.249	0.06
322.618	0.05
322.986	0.05
323.354	0.05
323.723	0.05
324.091	0.05
324.459	0.05
324.827	0.05
325.195	0.06
325.564	0.05
325.932	0.05
326.3	0.05
326.668	0.05
327.036	0.05
327.404	0.05
327.772	0.05
328.14	0.05
328.508	0.05
328.875	0.05
329.243	0.05
329.611	0.05
329.979	0.05
330.346	0.05
330.714	0.05
331.082	0.05
331.449	0.05
331.817	0.05
332.185	0.05
332.552	0.05
332.92	0.05
333.287	0.05
333.655	0.05
334.022	0.05
334.389	0.05
334.757	0.05
335.124	0.05
335.491	0.05
335.859	0.05
336.226	0.05
336.593	0.05
336.96	0.06
337.327	0.05
337.695	0.06
338.062	0.05
338.429	0.06
338.796	0.06
339.163	0.06
339.53	0.06
339.897	0.06
340.263	0.06
340.63	0.06
340.997	0.06
341.364	0.06
341.731	0.06
342.097	0.07
342.464	0.06
342.831	0.07
343.197	0.06
343.564	0.07
343.931	0.07
344.297	0.07
344.664	0.07
345.03	0.07
345.396	0.07
345.763	0.07
346.129	0.08
346.496	0.07
346.862	0.07
347.228	0.08
347.594	0.08
347.961	0.08
348.327	0.08
348.693	0.08
349.059	0.08
349.425	0.08
349.791	0.08
350.157	0.08
350.523	0.09
350.889	0.08
351.255	0.09
351.621	0.09
351.987	0.09
352.353	0.09
352.719	0.09
353.084	0.1
353.45	0.1
353.816	0.1
354.181	0.1
354.547	0.1
354.913	0.1
355.278	0.1
355.644	0.11
356.009	0.11
356.375	0.11
356.74	0.12
357.106	0.12
357.471	0.12
357.836	0.12
358.202	0.12
358.567	0.13
358.932	0.13
359.297	0.13
359.663	0.13
360.028	0.14
360.393	0.13
360.758	0.14
361.123	0.13
361.488	0.14
361.853	0.14
362.218	0.14
362.583	0.14
362.948	0.14
363.312	0.15
363.677	0.15
364.042	0.15
364.407	0.15
364.772	0.16
365.136	0.16
365.501	0.16
365.865	0.17
366.23	0.17
366.595	0.18
366.959	0.18
367.324	0.18
367.688	0.18
368.052	0.19
368.417	0.19
368.781	0.19
369.145	0.2
369.51	0.19
369.874	0.2
370.238	0.2
370.602	0.2
370.967	0.2
371.331	0.2
371.695	0.2
372.059	0.2
372.423	0.19
372.787	0.19
373.151	0.2
373.515	0.19
373.878	0.19
374.242	0.19
374.606	0.2
374.97	0.19
375.334	0.2
375.697	0.19
376.061	0.2
376.425	0.19
376.788	0.2
377.152	0.2
377.515	0.2
377.879	0.21
378.242	0.21
378.606	0.21
378.969	0.21
379.333	0.21
379.696	0.21
380.059	0.22
380.422	0.22
380.786	0.22
381.149	0.24
381.512	0.24
381.875	0.24
382.238	0.25
382.601	0.26
382.964	0.26
383.327	0.28
383.69	0.28
384.053	0.29
384.416	0.3
384.779	0.3
385.142	0.31
385.504	0.31
385.867	0.32
386.23	0.32
386.593	0.32
386.955	0.32
387.318	0.32
387.68	0.32
388.043	0.32
388.405	0.32
388.768	0.31
389.13	0.32
389.493	0.3
389.855	0.31
390.217	0.31
390.58	0.3
390.942	0.31
391.304	0.31
391.666	0.32
392.028	0.31
392.391	0.33
392.753	0.34
393.115	0.35
393.477	0.36
393.839	0.37
394.201	0.39
394.563	0.4
394.924	0.42
395.286	0.43
395.648	0.45
396.01	0.46
396.371	0.47
396.733	0.49
397.095	0.49
397.456	0.5
397.818	0.5
398.18	0.49
398.541	0.48
398.903	0.48
399.264	0.46
399.625	0.45
399.987	0.43
400.348	0.41
400.709	0.39
401.071	0.37
401.432	0.35
401.793	0.33
402.154	0.31
402.515	0.29
402.876	0.27
403.238	0.25
403.599	0.23
403.96	0.22
404.32	0.21
404.681	0.19
405.042	0.18
405.403	0.17
405.764	0.16
406.125	0.14
406.485	0.13
406.846	0.13
407.207	0.12
407.567	0.12
407.928	0.11
408.288	0.1
408.649	0.1
409.009	0.09
409.37	0.09
409.73	0.09
410.091	0.09
410.451	0.08
410.811	0.07
411.171	0.08
411.532	0.07
411.892	0.07
412.252	0.06
412.612	0.07
412.972	0.06
413.332	0.07
413.692	0.07
414.052	0.06
414.412	0.06
414.772	0.05
415.132	0.05
415.492	0.05
415.851	0.05
416.211	0.06
416.571	0.05
416.931	0.05
417.29	0.05
417.65	0.05
418.009	0.05
418.369	0.05
418.728	0.04
419.088	0.04
419.447	0.05
419.807	0.05
420.166	0.05
420.525	0.05
420.884	0.05
421.244	0.04
421.603	0.05
421.962	0.04
422.321	0.04
422.68	0.04
423.039	0.04
423.398	0.04
423.757	0.04
424.116	0.04
424.475	0.04
424.834	0.04
425.193	0.04
425.551	0.03
425.91	0.03
426.269	0.04
426.628	0.04
426.986	0.04
427.345	0.03
427.703	0.04
428.062	0.04
428.42	0.03
428.779	0.03
429.137	0.04
429.496	0.04
429.854	0.04
430.212	0.03
430.57	0.03
430.929	0.03
431.287	0.03
431.645	0.04
432.003	0.04
432.361	0.04
432.719	0.03
433.077	0.03
433.435	0.03
433.793	0.03
434.151	0.03
434.509	0.04
434.866	0.03
435.224	0.03
435.582	0.03
435.94	0.03
436.297	0.03
436.655	0.03
437.012	0.03
437.37	0.03
437.727	0.03
438.085	0.03
438.442	0.03
438.8	0.03
439.157	0.03
439.514	0.03
439.872	0.03
440.229	0.03
440.586	0.03
440.943	0.03
441.3	0.03
441.657	0.03
442.014	0.03
442.371	0.03
442.728	0.02
443.085	0.03
443.442	0.03
443.799	0.02
444.156	0.03
444.513	0.03
444.869	0.02
445.226	0.02
445.583	0.03
445.939	0.03
446.296	0.03
446.652	0.03
447.009	0.03
447.365	0.02
447.722	0.03
448.078	0.02
448.434	0.02
448.791	0.02
449.147	0.02
449.503	0.02
449.859	0.02
450.215	0.02
450.571	0.03
450.928	0.02
451.284	0.02
451.64	0.02
451.995	0.02
452.351	0.02
452.707	0.03
453.063	0.03
453.419	0.02
453.775	0.02
454.13	0.01
454.486	0.02
454.842	0.02
455.197	0.02
455.553	0.02
455.908	0.01
456.264	0.02
456.619	0.02
456.975	0.02
457.33	0.02
457.685	0.02
458.04	0.02
458.396	0.01
458.751	0.02
459.106	0.02
459.461	0
459.816	0.01
460.171	0.01
460.526	0.01
460.881	0.01
461.236	0.01
461.591	0.01
461.946	0.01
462.301	0
462.655	0.01
463.01	0.01
463.365	0.01
463.719	-0.01
464.074	-0
464.428	0
464.783	-0
465.137	0
465.492	0
465.846	0
466.201	-0.01
466.555	-0
466.909	-0
467.263	0
467.618	-0
467.972	0
468.326	0
468.68	-0
469.034	-0
469.388	-0
469.742	-0
470.096	-0.01
470.45	0
470.804	-0.01
471.157	-0
471.511	-0.01
471.865	-0
472.218	0.01
472.572	-0.01
472.926	-0.01
473.279	-0.01
473.633	-0.01
473.986	-0.01
474.34	0
474.693	0
475.046	0
475.4	0.01
475.753	0.01
476.106	0.01
476.459	0.01
476.812	0.01
477.165	0.01
477.519	0.01
477.872	0.01
478.224	0.02
478.577	0.02
478.93	0.01
479.283	0.01
479.636	0.02
479.989	0.02
480.341	0.02
480.694	0.02
481.047	0.02
481.399	0.02
481.752	0.02
482.104	0.02
482.457	0.02
482.809	0.02
483.162	0.03
483.514	0.02
483.866	0.02
484.219	0.02
484.571	0.02
484.923	0.02
485.275	0.02
485.627	0.02
485.979	0.02
486.331	0.02
486.683	0.02
487.035	0.03
487.387	0.02
487.739	0.03
488.091	0.03
488.443	0.03
488.794	0.03
489.146	0.03
489.498	0.03
489.849	0.03
490.201	0.03
490.552	0.03
490.904	0.03
491.255	0.03
491.607	0.03
491.958	0.03
492.309	0.03
492.661	0.04
493.012	0.03
493.363	0.04
493.714	0.04
494.065	0.03
494.416	0.03
494.767	0.03
495.118	0.03
495.469	0.03
495.82	0.03
496.171	0.03
496.522	0.03
496.872	0.04
497.223	0.03
497.574	0.03
497.924	0.04
498.275	0.04
498.626	0.04
498.976	0.04
499.327	0.04
499.677	0.04
500.027	0.04
500.378	0.03
500.728	0.04
501.078	0.04
501.428	0.04
501.779	0.04
502.129	0.04
502.479	0.04
502.829	0.04
503.179	0.04
503.529	0.04
503.879	0.04
504.229	0.04
504.578	0.04
504.928	0.05
505.278	0.05
505.628	0.04
505.977	0.05
506.327	0.04
506.676	0.05
507.026	0.05
507.375	0.05
507.725	0.04
508.074	0.04
508.424	0.05
508.773	0.05
509.122	0.05
509.471	0.05
509.82	0.05
510.17	0.05
510.519	0.05
510.868	0.05
511.217	0.05
511.566	0.05
511.915	0.06
512.263	0.05
512.612	0.06
512.961	0.05
513.31	0.06
513.659	0.05
514.007	0.05
514.356	0.05
514.704	0.05
515.053	0.05
515.401	0.05
515.75	0.05
516.098	0.05
516.447	0.05
516.795	0.06
517.143	0.05
517.491	0.06
517.839	0.06
518.188	0.06
518.536	0.06
518.884	0.06
519.232	0.06
519.58	0.06
519.928	0.06
520.275	0.06
520.623	0.06
520.971	0.06
521.319	0.06
521.666	0.06
522.014	0.06
522.362	0.06
522.709	0.06
523.057	0.06
523.404	0.06
523.752	0.06
524.099	0.06
524.446	0.07
524.794	0.07
525.141	0.06
525.488	0.06
525.835	0.06
526.182	0.06
526.529	0.06
526.876	0.06
527.223	0.07
527.57	0.07
527.917	0.07
528.264	0.06
528.611	0.06
528.958	0.07
529.304	0.06
529.651	0.06
529.998	0.07
530.344	0.07
530.691	0.07
531.037	0.07
531.384	0.07
531.73	0.07
532.076	0.07
532.423	0.07
532.769	0.07
533.115	0.08
533.461	0.07
533.807	0.08
534.154	0.07
534.5	0.07
534.846	0.07
535.192	0.08
535.537	0.08
535.883	0.08
536.229	0.08
536.575	0.08
536.921	0.08
537.266	0.08
537.612	0.08
537.957	0.08
538.303	0.08
538.649	0.08
538.994	0.08
539.339	0.08
539.685	0.08
540.03	0.09
540.375	0.08
540.721	0.09
541.066	0.09
541.411	0.08
541.756	0.09
542.101	0.09
542.446	0.09
542.791	0.09
543.136	0.09
543.481	0.09
543.825	0.09
544.17	0.09
544.515	0.1
544.86	0.09
545.204	0.09
545.549	0.09
545.893	0.09
546.238	0.09
546.582	0.1
546.927	0.09
547.271	0.09
547.615	0.1
547.96	0.1
548.304	0.1
548.648	0.1
548.992	0.1
549.336	0.1
549.68	0.1
550.024	0.1
550.368	0.1
550.712	0.1
551.056	0.1
551.4	0.1
551.743	0.1
552.087	0.1
552.431	0.1
552.774	0.1
553.118	0.11
553.462	0.1
553.805	0.1
554.148	0.1
554.492	0.1
554.835	0.11
555.178	0.1
555.522	0.1
555.865	0.1
556.208	0.11
556.551	0.11
556.894	0.11
557.237	0.11
557.58	0.11
557.923	0.11
558.266	0.11
558.609	0.11
558.952	0.11
559.294	0.11
559.637	0.11
559.98	0.11
560.322	0.11
560.665	0.11
561.007	0.11
561.35	0.11
561.692	0.11
562.034	0.11
562.377	0.11
562.719	0.11
563.061	0.11
563.403	0.11
563.745	0.11
564.088	0.11
564.43	0.11
564.772	0.11
565.113	0.11
565.455	0.11
565.797	0.11
566.139	0.11
566.481	0.11
566.822	0.11
567.164	0.11
567.506	0.11
567.847	0.12
568.189	0.12
568.53	0.11
568.872	0.12
569.213	0.11
569.554	0.12
569.895	0.12
570.237	0.12
570.578	0.12
570.919	0.12
571.26	0.12
571.601	0.12
571.942	0.12
572.283	0.12
572.624	0.12
572.965	0.12
573.306	0.12
573.646	0.12
573.987	0.12
574.328	0.12
574.668	0.12
575.009	0.12
575.349	0.12
575.69	0.12
576.03	0.12
576.37	0.12
576.711	0.11
577.051	0.12
577.391	0.12
577.731	0.12
578.072	0.12
578.412	0.12
578.752	0.12
579.092	0.12
579.431	0.11
579.771	0.11
580.111	0.1
580.451	0.1
580.791	0.11
581.13	0.12
581.47	0.12
581.81	0.12
582.149	0.12
582.489	0.12
582.828	0.12
583.167	0.11
583.507	0.08
583.846	0.06
584.185	0.08
584.525	0.1
584.864	0.11
585.203	0.12
585.542	0.12
585.881	0.12
586.22	0.12
586.559	0.12
586.898	0.12
587.236	0.12
587.575	0.11
587.914	0.11
588.252	0.12
588.591	0.12
588.93	0.12
589.268	0.12
589.607	0.12
589.945	0.12
590.283	0.12
590.622	0.13
590.96	0.13
591.298	0.13
591.636	0.13
591.974	0.13
592.313	0.13
592.651	0.13
592.989	0.13
593.326	0.13
593.664	0.13
594.002	0.13
594.34	0.13
594.678	0.13
595.015	0.13
595.353	0.13
595.691	0.13
596.028	0.13
596.366	0.14
596.703	0.14
597.04	0.14
597.378	0.14
597.715	0.14
598.052	0.14
598.389	0.14
598.726	0.14
599.064	0.14
599.401	0.14
599.738	0.14
600.074	0.14
600.411	0.14
600.748	0.14
601.085	0.14
601.422	0.14
601.758	0.14
602.095	0.14
602.432	0.14
602.768	0.14
603.105	0.14
603.441	0.14
603.777	0.14
604.114	0.15
604.45	0.14
604.786	0.14
605.122	0.14
605.459	0.14
605.795	0.14
606.131	0.14
606.467	0.14
606.803	0.14
607.139	0.14
607.474	0.14
607.81	0.14
608.146	0.14
608.482	0.14
608.817	0.14
609.153	0.14
609.488	0.14
609.824	0.14
610.159	0.14
610.495	0.14
610.83	0.14
611.165	0.14
611.5	0.14
611.836	0.14
612.171	0.14
612.506	0.13
612.841	0.14
613.176	0.14
613.511	0.14
613.845	0.14
614.18	0.14
614.515	0.14
614.85	0.14
615.184	0.14
615.519	0.14
615.854	0.14
616.188	0.13
616.523	0.13
616.857	0.13
617.191	0.14
617.526	0.13
617.86	0.13
618.194	0.13
618.528	0.13
618.862	0.13
619.196	0.13
619.53	0.13
619.864	0.13
620.198	0.13
620.532	0.13
620.866	0.13
621.2	0.13
621.533	0.13
621.867	0.13
622.201	0.13
622.534	0.13
622.868	0.13
623.201	0.13
623.534	0.13
623.868	0.12
624.201	0.13
624.534	0.12
624.868	0.13
625.201	0.12
625.534	0.12
625.867	0.13
626.2	0.13
626.533	0.12
626.865	0.12
627.198	0.12
627.531	0.12
627.864	0.12
628.196	0.12
628.529	0.12
628.862	0.12
629.194	0.12
629.527	0.11
629.859	0.11
630.191	0.11
630.524	0.11
630.856	0.11
631.188	0.11
631.52	0.11
631.852	0.1
632.184	0.11
632.516	0.11
632.848	0.1
633.18	0.11
633.512	0.1
633.844	0.1
634.175	0.1
634.507	0.1
634.839	0.1
635.17	0.1
635.502	0.1
635.833	0.1
636.165	0.1
636.496	0.1
636.827	0.1
637.159	0.1
637.49	0.1
637.821	0.09
638.152	0.09
638.483	0.09
638.814	0.09
639.145	0.09
639.476	0.09
639.807	0.09
640.137	0.09
640.468	0.09
640.799	0.09
641.129	0.08
641.46	0.08
641.791	0.09
642.121	0.08
642.451	0.08
642.782	0.08
643.112	0.08
643.442	0.08
643.773	0.08
644.103	0.08
644.433	0.08
644.763	0.07
645.093	0.08
645.423	0.08
645.753	0.07
646.082	0.07
646.412	0.07
646.742	0.08
647.072	0.08
647.401	0.08
647.731	0.08
648.06	0.07
648.39	0.07
648.719	0.08
649.048	0.07
649.378	0.07
649.707	0.07
650.036	0.07
650.365	0.08
650.694	0.07
651.023	0.07
651.352	0.07
651.681	0.07
652.01	0.07
652.339	0.07
652.668	0.07
652.996	0.07
653.325	0.07
653.654	0.07
653.982	0.07
654.311	0.07
654.639	0.07
654.967	0.07
655.296	0.08
655.624	0.07
655.952	0.07
656.28	0.07
656.609	0.07
656.937	0.07
657.265	0.07
657.593	0.06
657.92	0
658.248	-0
658.576	0
658.904	0
659.231	0.05
659.559	0.08
659.887	0.08
660.214	0.07
660.542	0.08
660.869	0.07
661.196	0.07
661.524	0.07
661.851	0.07
662.178	0.07
662.505	0.07
662.832	0.07
663.159	0.07
663.486	0.07
663.813	0.07
664.14	0.07
664.467	0.07
664.794	0.07
665.12	0.07
665.447	0.07
665.774	0.07
666.1	0.07
666.427	0.07
666.753	0.07
667.079	0.07
667.406	0.06
667.732	0.06
668.058	0.07
668.384	0.07
668.71	0.06
669.036	0.06
669.362	0.06
669.688	0.06
670.014	0.06
670.34	0.06
670.666	0.06
670.991	0.06
671.317	0.07
671.643	0.06
671.968	0.06
672.294	0.06
672.619	0.06
672.945	0.06
673.27	0.06
673.595	0.06
673.92	0.06
674.246	0.06
674.571	0.06
674.896	0.06
675.221	0.06
675.546	0.06
675.87	0.06
676.195	0.06
676.52	0.06
676.845	0.06
677.169	0.06
677.494	0.06
677.819	0.06
678.143	0.05
678.468	0.06
678.792	0.05
679.116	0.05
679.44	0.05
679.765	0.05
680.089	0.05
680.413	0.05
680.737	0.05
681.061	0.05
681.385	0.05
681.709	0.05
682.033	0.05
682.356	0.05
682.68	0.05
683.004	0.05
683.327	0.05
683.651	0.05
683.974	0.05
684.298	0.05
684.621	0.05
684.944	0.04
685.268	0.04
685.591	0.04
685.914	0.04
686.237	0.04
686.56	0.04
686.883	0.04
687.206	0.04
687.529	0.04
687.852	0.04
688.175	0.04
688.497	0.04
688.82	0.04
689.142	0.04
689.465	0.04
689.787	0.04
690.11	0.04
690.432	0.04
690.755	0.04
691.077	0.04
691.399	0.03
691.721	0.03
692.043	0.03
692.365	0.03
692.687	0.03
693.009	0.03
693.331	0.03
693.653	0.03
693.974	0.03
694.296	0.03
694.618	0.03
694.939	0.03
695.261	0.03
695.582	0.03
695.904	0.03
696.225	0.03
696.546	0.03
696.868	0.03
697.189	0.03
697.51	0.02
697.831	0.02
698.152	0.02
698.473	0.03
698.794	0.02
699.114	0.03
699.435	0.03
699.756	0.03
700.077	0.03
700.397	0.03
700.718	0.02
701.038	0.02
701.359	0.03
701.679	0.02
701.999	0.02
702.32	0.02
702.64	0.02
702.96	0.02
703.28	0.02
703.6	0.02
703.92	0.02
704.24	0.02
704.56	0.02
704.879	0.03
705.199	0.02
705.519	0.02
705.838	0.02
706.158	0.02
706.478	0.03
706.797	0.03
707.116	0.03
707.436	0.03
707.755	0.02
708.074	0.02
708.393	0.02
708.712	0.03
709.031	0.02
709.35	0.03
709.669	0.03
709.988	0.03
710.307	0.02
710.626	0.02
710.944	0.02
711.263	0.02
711.582	0.02
711.9	0.02
712.219	0.02
712.537	0.02
712.855	0.02
713.174	0.02
713.492	0.02
713.81	0.02
714.128	0.03
714.446	0.03
714.764	0.03
715.082	0.02
715.4	0.02
715.718	0.02
716.035	0.02
716.353	0.02
716.671	0.03
716.988	0.03
717.306	0.02
717.623	0.02
717.941	0.02
718.258	0.02
718.575	0.02
718.893	0.02
719.21	0.02
719.527	0.02
719.844	0.02
720.161	0.02
720.478	0.02
720.795	0.03
721.112	0.03
721.428	0.03
721.745	0.03
722.062	0.03
722.378	0.03
722.695	0.03
723.011	0.03
723.328	0.03
723.644	0.03
723.96	0.03
724.276	0.03
724.593	0.03
724.909	0.03
725.225	0.03
725.541	0.03
725.857	0.03
726.173	0.03
726.488	0.03
726.804	0.03
727.12	0.03
727.435	0.03
727.751	0.03
728.067	0.03
728.382	0.03
728.697	0.03
729.013	0.03
729.328	0.03
729.643	0.03
729.958	0.03
730.273	0.03
730.588	0.03
730.903	0.03
731.218	0.03
731.533	0.03
731.848	0.03
732.163	0.03
732.477	0.02
732.792	0.02
733.107	0.02
733.421	0.02
733.736	0.02
734.05	0.02
734.364	0.02
734.678	0.02
734.993	0.02
735.307	0.02
735.621	0.02
735.935	0.02
736.249	0.02
736.563	0.03
736.877	0.03
737.19	0.03
737.504	0.02
737.818	0.03
738.131	0.03
738.445	0.03
738.758	0.03
739.072	0.03
739.385	0.03
739.698	0.03
740.012	0.03
740.325	0.02
740.638	0.03
740.951	0.03
741.264	0.02
741.577	0.02
741.89	0.02
742.203	0.02
742.515	0.02
742.828	0.02
743.141	0.02
743.453	0.02
743.766	0.02
744.078	0.02
744.391	0.02
744.703	0.02
745.015	0.02
745.327	0.01
745.639	0.02
745.952	0.01
746.264	0.01
746.575	0.01
746.887	0.01
747.199	0.01
747.511	0.02
747.823	0.01
748.134	0.01
748.446	0.01
748.757	0.02
749.069	0.02
749.38	0.02
749.692	0.02
750.003	0.02
750.314	0.02
750.625	0.02
750.936	0.02
751.248	0.02
751.559	0.02
751.869	0.02
752.18	0.02
752.491	0.02
752.802	0.02
753.112	0.02
753.423	0.01
753.734	0.02
754.044	0.02
754.355	0.02
754.665	0.02
754.975	0.02
755.285	0.02
755.596	0.02
755.906	0.02
756.216	0.02
756.526	0.02
756.836	0.01
757.146	0.01
757.455	0.01
757.765	0.01
758.075	0
758.385	0
758.694	0
759.004	0.01
759.313	0
759.622	0.01
759.932	0.01
760.241	0.01
760.55	0.01
760.859	0.01
761.168	0.01
761.477	0.01
761.786	0.01
762.095	0.01
762.404	0.01
762.713	0.01
763.021	0.01
763.33	0.01
763.639	0.01
763.947	0.01
764.256	0.01
764.564	0.01
764.872	0.01
765.181	0.01
765.489	0.01
765.797	0
766.105	0
766.413	0.01
766.721	0
767.029	0
767.337	0
767.644	0
767.952	0
768.26	0
768.567	0
768.875	0
769.182	0
769.49	0
769.797	0
770.104	0
770.411	0.01
770.718	0
771.026	0.01
771.333	0.01
771.639	0.01
771.946	0
772.253	0
772.56	-0
772.867	0
773.173	-0
773.48	-0.01
773.786	-0
774.093	-0
774.399	-0
774.705	-0
775.012	-0
775.318	0
775.624	0
775.93	0
776.236	0
776.542	0
776.848	0.01
777.154	0
777.459	0.01
777.765	0
778.071	-0
778.376	-0
778.682	-0
778.987	-0
779.292	-0
779.598	-0
779.903	-0
780.208	-0
780.513	-0
780.818	-0
781.123	-0
781.428	-0
781.733	-0
782.038	-0
782.343	-0
782.647	-0
782.952	-0
783.256	-0
783.561	-0
783.865	-0
784.17	-0
784.474	-0
784.778	-0
785.082	-0
785.386	-0.01
785.69	-0
785.994	-0.01
786.298	-0.01
786.602	-0.01
786.906	-0.01
787.209	-0.01
787.513	-0.01
787.817	-0.01
788.12	-0.02
788.424	-0.01
788.727	-0.01
789.03	-0.01
789.333	-0.01
789.637	-0.01
789.94	-0.01
790.243	-0
790.546	-0
790.849	-0
791.152	-0
791.454	-0.01
791.757	-0
792.06	-0.01
792.362	-0.01
792.665	-0.01
792.967	-0.01
793.27	-0.01
793.572	-0.01
793.874	-0.01
794.177	-0.01
794.479	-0.02
794.781	-0.02
795.083	-0.01
795.385	-0.01
795.687	-0.01
795.989	-0.01
796.29	0
796.592	-0
796.894	-0
797.195	-0.01
797.497	-0.01
797.798	-0.01
798.1	-0.01
798.401	-0.01
798.702	-0.02
799.003	-0.02
799.304	-0.02
799.605	-0.02
799.906	-0.02
800.207	-0.02
800.508	-0.02
800.809	-0.02
801.11	-0.02
801.41	-0.02
801.711	-0.02
802.011	-0.02
802.312	-0.02
802.612	-0.02
802.913	-0.01
803.213	-0.02
803.513	-0.01
803.813	-0.01
804.113	-0.01
804.413	-0.01
804.713	-0.02
805.013	-0.01
805.313	-0.02
805.613	-0.01
805.912	-0.02
806.212	-0.01
806.511	-0.01
806.811	-0.01
807.11	-0.01
807.41	-0.01
807.709	-0.01
808.008	-0.01
808.307	-0.01
808.606	-0.02
808.905	-0.02
809.204	-0.02
809.503	-0.02
809.802	-0.02
810.101	-0.01
810.399	-0.02
810.698	-0.02
810.997	-0.02
811.295	-0.02
811.593	-0.02
811.892	-0.02
812.19	-0.02
812.488	-0.02
812.786	-0.02
813.084	-0.02
813.383	-0.02
813.68	-0.02
813.978	-0.02
814.276	-0.02
814.574	-0.01
814.872	-0.02
815.169	-0.02
815.467	-0.02
815.764	-0.02
816.062	-0.02
816.359	-0.03
816.656	-0.03
816.954	-0.03
817.251	-0.03
817.548	-0.03
817.845	-0.03
818.142	-0.03
818.439	-0.02
818.735	-0.02
819.032	-0.02
819.329	-0.02
819.626	-0.02
819.922	-0.02
820.219	-0.02
820.515	-0.03
820.811	-0.03
821.108	-0.03
821.404	-0.02
821.7	-0.03
821.996	-0.03
822.292	-0.03
822.588	-0.03
822.884	-0.03
823.18	-0.03
823.475	-0.03
823.771	-0.03
824.067	-0.03
824.362	-0.04
824.658	-0.03
824.953	-0.04
825.249	-0.03
825.544	-0.03
825.839	-0.03
826.134	-0.04
826.429	-0.04
826.724	-0.03
827.019	-0.03
827.314	-0.03
827.609	-0.03
827.904	-0.03
828.198	-0.03
828.493	-0.03
828.787	-0.03
829.082	-0.02
829.376	-0.02
829.671	-0.02
829.965	-0.02
830.259	-0.02
830.553	-0.03
830.847	-0.03
831.141	-0.03
831.435	-0.03
831.729	-0.03
832.023	-0.04
832.317	-0.03
832.61	-0.03
832.904	-0.04
833.197	-0.04
833.491	-0.03
833.784	-0.04
834.077	-0.04
834.371	-0.05
834.664	-0.03
834.957	-0.04
835.25	-0.05
835.543	-0.04
835.836	-0.04
836.129	-0.05
836.421	-0.04
836.714	-0.05
837.007	-0.04
837.299	-0.04
837.592	-0.04
837.884	-0.04
838.177	-0.04
838.469	-0.04
838.761	-0.03
839.053	-0.03
839.345	-0.03
839.637	-0.04
839.929	-0.04
840.221	-0.04
840.513	-0.04
840.805	-0.03
841.096	-0.03
841.388	-0.04
841.68	-0.02
841.971	-0.04
842.262	-0.03
842.554	-0.04
842.845	-0.04
843.136	-0.04
843.427	-0.03
843.718	-0.04
844.009	-0.03
844.3	-0.04
844.591	-0.04
844.882	-0.04
845.173	-0.03
845.463	-0.05
845.754	-0.04
846.044	-0.04
846.335	-0.04
846.625	-0.05
846.915	-0.04
847.206	-0.03
847.496	-0.03
847.786	-0.04
848.076	-0.04
848.366	-0.03
848.656	-0.04
848.945	-0.04
849.235	-0.04
849.525	-0.04
849.814	-0.03
850.104	-0.04
850.393	-0.03
850.683	-0.03
850.972	-0.03
851.261	-0.03
851.551	-0.03
851.84	-0.02
852.129	-0.03
852.418	-0.03
852.707	-0.04
852.995	-0.03
853.284	-0.03
853.573	-0.04
853.862	-0.02
854.15	-0.02
854.439	-0.04
854.727	-0.02
855.015	-0.01
855.304	-0.02
855.592	-0.02
855.88	-0.03
856.168	-0.03
856.456	-0.02
856.744	-0.02
857.032	-0.04
857.32	-0.02
857.607	-0.02
857.895	-0.03
858.183	-0.03
858.47	-0.04
858.757	-0.03
859.045	-0.03
859.332	-0.04
859.619	-0.03
859.907	-0.02
860.194	-0.02
860.481	0
860.768	-0.03
861.054	-0.03
861.341	-0.02
861.628	-0.02
861.915	-0.02
862.201	-0.04
862.488	-0.05
862.774	-0.03
863.061	-0.04
863.347	-0.03
863.633	-0.01
863.919	-0.04
864.205	-0.03
864.491	-0.03
864.777	-0.05
865.063	-0.05
865.349	-0.04
865.635	-0.01
865.92	0.01
866.206	-0.03
866.492	-0.03
866.777	-0.06
867.062	-0.01
867.348	-0.06
867.633	-0.06
867.918	-0.04
868.203	-0.02
868.488	-0
868.773	0
869.058	-0.05
869.343	-0.04
869.628	-0.01
869.912	-0.08
870.197	-0.04
870.482	-0.05
870.766	-0.02
871.05	-0.02
871.335	-0.02
871.619	-0.02
871.903	-0.05
872.187	-0
872.471	-0.04
872.755	-0.03
873.039	-0.08
873.323	-0.01
873.607	-0.02
873.89	-0.06
874.174	-0.06
874.458	-0.07
874.741	-0.05
875.024	-0.03
875.308	-0.05
875.591	-0.04
875.874	0.01
876.157	-0.07
876.44	-0
876.723	-0.04
877.006	0.01
877.289	-0.01
877.572	0.03
877.854	0.04
878.137	-0.06
878.42	0.04
878.702	-0.04
878.984	-0
879.267	0.05
879.549	-0.08
879.831	0.06
880.113	-0.07
880.395	0.03
880.677	-0.04
880.959	-0
