Data from Rubpy_EV_300_EDTA_Buffered_Absorbance_12-15-38-283.txt Node
Date: Tue Jun 30 12:15:38 BST 2026
User: fpm-admin
Spectrometer: OFX00224
Trigger mode: 0
Integration Time (sec): 7.000000E-2
Scans to average: 3
Nonlinearity correction enabled: false
Boxcar width: 0
Storing dark spectrum: false
XAxis mode: Wavelengths
Number of Pixels in Spectrum: 2136
>>>>>Begin Spectral Data<<<<<
154.91	-0
155.289	0.64
155.669	-0
156.048	-0.5
156.428	0.46
156.807	1.53
157.186	0.3
157.566	0.05
157.945	-0
158.325	0.53
158.704	-0
159.083	0.18
159.462	-0.1
159.842	-0.73
160.221	-0.48
160.6	0.12
160.979	-0
161.359	-1.04
161.738	-0
162.117	-0
162.496	-0
162.875	-0.77
163.254	-0
163.633	1.03
164.012	0.7
164.391	-0.05
164.77	-0
165.149	-0.39
165.528	-0.24
165.907	-0
166.286	0.11
166.665	0.26
167.044	-0
167.423	-0
167.802	-0.08
168.181	-0.56
168.559	-0
168.938	-0.03
169.317	-0
169.696	-0
170.074	-0
170.453	0.13
170.832	-0
171.21	-0.39
171.589	-0
171.968	-0
172.346	-0.1
172.725	-0
173.103	0.69
173.482	0.52
173.861	-0.35
174.239	-0
174.617	-0
174.996	-0.37
175.374	-1.46
175.753	-0
176.131	-0
176.51	-0.2
176.888	0.17
177.266	-0
177.645	0.09
178.023	0.16
178.401	-0.41
178.779	-0.08
179.158	0.1
179.536	0.52
179.914	0.11
180.292	-0.39
180.67	-0
181.048	-0
181.427	0.23
181.805	-0
182.183	-0
182.561	-0.05
182.939	-0.35
183.317	-0.39
183.695	0.21
184.073	0.04
184.451	0.52
184.829	-0.18
185.206	-0.24
185.584	-1.09
185.962	-0.8
186.34	-0
186.718	-0
187.096	-0.02
187.473	-1.11
187.851	-0.46
188.229	-0
188.607	-0.03
188.984	-0.02
189.362	0.02
189.74	0.04
190.117	0.03
190.495	-0.03
190.872	-0.04
191.25	0.02
191.627	-0.06
192.005	-0.09
192.382	-0.02
192.76	-0
193.137	0.04
193.515	-0.01
193.892	-0.02
194.269	-0.09
194.647	-0.03
195.024	-0.1
195.401	-0.03
195.779	-0.02
196.156	0.02
196.533	-0
196.91	0.14
197.288	-0
197.665	-0.01
198.042	-0.03
198.419	0.05
198.796	-0.01
199.173	0
199.55	0.03
199.927	0.16
200.304	-0.13
200.681	0.08
201.058	0.04
201.435	-0
201.812	0.04
202.189	0.04
202.566	-0.01
202.943	0
203.32	0.08
203.697	0.1
204.073	0.02
204.45	0.09
204.827	0.12
205.204	0.04
205.58	0.06
205.957	0.04
206.334	-0.01
206.71	-0.02
207.087	0.06
207.464	0.02
207.84	-0.06
208.217	-0.01
208.593	-0.06
208.97	0.01
209.346	0.02
209.723	0.01
210.099	0.01
210.476	-0.02
210.852	0.03
211.228	0.11
211.605	0.01
211.981	0.14
212.357	0.02
212.733	0.06
213.11	0.06
213.486	-0.03
213.862	0.01
214.238	-0.08
214.614	0.04
214.991	-0.01
215.367	-0.03
215.743	0.09
216.119	0.02
216.495	0.03
216.871	0.1
217.247	-0.02
217.623	0.03
217.999	-0
218.375	0.01
218.751	0.07
219.127	-0.01
219.502	0.14
219.878	0.09
220.254	0.02
220.63	0.14
221.006	0.13
221.381	-0.05
221.757	0.01
222.133	0.04
222.508	0.03
222.884	0.04
223.26	0.02
223.635	0.04
224.011	0
224.386	-0.01
224.762	-0.11
225.137	-0.03
225.513	-0
225.888	0.08
226.264	0.02
226.639	0.04
227.014	0.11
227.39	0.01
227.765	0.07
228.14	-0.01
228.516	-0.04
228.891	0.04
229.266	-0.02
229.641	0.02
230.017	-0.04
230.392	0.01
230.767	0.02
231.142	-0
231.517	-0.04
231.892	0.1
232.267	-0.07
232.642	0.01
233.017	0.02
233.392	0.04
233.767	0
234.142	-0.08
234.517	-0.01
234.892	-0.07
235.267	0.03
235.641	0.04
236.016	-0.01
236.391	0.01
236.766	0.07
237.14	0
237.515	0.01
237.89	0.02
238.264	0.01
238.639	-0.04
239.014	-0.06
239.388	0.02
239.763	0.03
240.137	0.03
240.512	-0.09
240.886	0.01
241.261	0.05
241.635	0.01
242.009	0.07
242.384	0.03
242.758	0.02
243.132	0.05
243.507	0.05
243.881	0.08
244.255	0.1
244.629	0.05
245.004	0.08
245.378	0.04
245.752	0.05
246.126	-0.01
246.5	0.06
246.874	0.04
247.248	-0.03
247.622	0.03
247.996	0.09
248.37	-0.03
248.744	0.05
249.118	0.04
249.492	0.1
249.866	0.02
250.24	-0.03
250.613	0.05
250.987	-0.02
251.361	-0.06
251.735	0.03
252.108	0.07
252.482	0.05
252.856	0.02
253.229	0.04
253.603	0.01
253.977	-0
254.35	0.02
254.724	0.05
255.097	0.04
255.471	0.03
255.844	0.04
256.218	0.05
256.591	0.01
256.964	0.01
257.338	0.05
257.711	0
258.084	-0
258.458	0.02
258.831	-0.03
259.204	0.03
259.577	0.09
259.95	0.03
260.323	0.08
260.697	-0.03
261.07	-0.11
261.443	-0.01
261.816	0.15
262.189	-0.06
262.562	0.02
262.935	0.03
263.308	-0.07
263.68	0.04
264.053	0.04
264.426	0.04
264.799	-0.01
265.172	0
265.545	0.01
265.917	0.04
266.29	0.04
266.663	-0.03
267.035	0.03
267.408	0.05
267.781	0.04
268.153	-0
268.526	-0.01
268.898	0.05
269.271	0.03
269.643	0.02
270.016	0.04
270.388	0.04
270.76	0.09
271.133	0.06
271.505	0.01
271.877	-0.04
272.25	0.03
272.622	0.01
272.994	-0
273.366	-0.01
273.739	0.09
274.111	0.04
274.483	0.05
274.855	-0.05
275.227	0.04
275.599	0.01
275.971	0.05
276.343	0.01
276.715	-0.01
277.087	0.04
277.459	0.02
277.831	0.06
278.203	0.04
278.574	0.03
278.946	0.04
279.318	0.07
279.69	0.05
280.061	-0
280.433	0.01
280.805	0.07
281.176	0.05
281.548	-0.01
281.92	-0.01
282.291	0.01
282.663	0.02
283.034	-0
283.406	0.09
283.777	0.01
284.148	0.02
284.52	-0.03
284.891	0.08
285.262	0.08
285.634	-0
286.005	0.03
286.376	0.05
286.747	0.14
287.119	0.03
287.49	0.01
287.861	0.01
288.232	0.02
288.603	0.02
288.974	0.07
289.345	0.01
289.716	0.03
290.087	0.05
290.458	0.01
290.829	0.04
291.2	0.03
291.571	0.03
291.941	0.08
292.312	0.08
292.683	-0
293.054	0.03
293.424	0.07
293.795	0.03
294.166	0.02
294.536	0.01
294.907	0.04
295.277	0.06
295.648	0.03
296.018	0.04
296.389	0.07
296.759	0.03
297.13	0.05
297.5	0.01
297.871	0.05
298.241	0.02
298.611	0.05
298.981	-0.02
299.352	0.03
299.722	0.06
300.092	0.05
300.462	0.02
300.832	0.02
301.202	0.04
301.573	0.05
301.943	0.03
302.313	0.05
302.683	0.04
303.053	0.04
303.422	0.03
303.792	0.03
304.162	0.03
304.532	0.03
304.902	0.03
305.272	0.04
305.641	0.05
306.011	0.04
306.381	0.04
306.75	0.04
307.12	0.04
307.49	0.04
307.859	0.04
308.229	0.04
308.598	0.05
308.968	0.05
309.337	0.04
309.707	0.06
310.076	0.05
310.445	0.05
310.815	0.04
311.184	0.04
311.553	0.05
311.923	0.05
312.292	0.05
312.661	0.05
313.03	0.05
313.399	0.06
313.768	0.05
314.137	0.05
314.506	0.05
314.875	0.05
315.244	0.05
315.613	0.05
315.982	0.05
316.351	0.05
316.72	0.05
317.089	0.05
317.458	0.06
317.826	0.04
318.195	0.05
318.564	0.05
318.933	0.06
319.301	0.05
319.67	0.04
320.038	0.05
320.407	0.05
320.775	0.05
321.144	0.05
321.512	0.05
321.881	0.04
322.249	0.05
322.618	0.04
322.986	0.05
323.354	0.04
323.723	0.04
324.091	0.05
324.459	0.05
324.827	0.04
325.195	0.05
325.564	0.04
325.932	0.04
326.3	0.04
326.668	0.04
327.036	0.04
327.404	0.04
327.772	0.04
328.14	0.04
328.508	0.04
328.875	0.04
329.243	0.05
329.611	0.04
329.979	0.04
330.346	0.04
330.714	0.04
331.082	0.04
331.449	0.04
331.817	0.04
332.185	0.05
332.552	0.05
332.92	0.05
333.287	0.05
333.655	0.04
334.022	0.04
334.389	0.05
334.757	0.05
335.124	0.04
335.491	0.04
335.859	0.05
336.226	0.04
336.593	0.04
336.96	0.05
337.327	0.05
337.695	0.05
338.062	0.05
338.429	0.05
338.796	0.05
339.163	0.05
339.53	0.05
339.897	0.05
340.263	0.05
340.63	0.05
340.997	0.05
341.364	0.05
341.731	0.05
342.097	0.05
342.464	0.06
342.831	0.05
343.197	0.05
343.564	0.05
343.931	0.05
344.297	0.06
344.664	0.06
345.03	0.06
345.396	0.06
345.763	0.06
346.129	0.06
346.496	0.06
346.862	0.06
347.228	0.06
347.594	0.06
347.961	0.06
348.327	0.06
348.693	0.07
349.059	0.07
349.425	0.07
349.791	0.07
350.157	0.07
350.523	0.07
350.889	0.07
351.255	0.07
351.621	0.07
351.987	0.08
352.353	0.07
352.719	0.08
353.084	0.08
353.45	0.08
353.816	0.08
354.181	0.08
354.547	0.09
354.913	0.09
355.278	0.09
355.644	0.09
356.009	0.09
356.375	0.1
356.74	0.09
357.106	0.1
357.471	0.1
357.836	0.1
358.202	0.11
358.567	0.1
358.932	0.11
359.297	0.1
359.663	0.11
360.028	0.12
360.393	0.11
360.758	0.11
361.123	0.12
361.488	0.12
361.853	0.12
362.218	0.12
362.583	0.12
362.948	0.12
363.312	0.12
363.677	0.13
364.042	0.13
364.407	0.13
364.772	0.13
365.136	0.13
365.501	0.14
365.865	0.14
366.23	0.14
366.595	0.14
366.959	0.15
367.324	0.15
367.688	0.16
368.052	0.16
368.417	0.15
368.781	0.16
369.145	0.17
369.51	0.16
369.874	0.16
370.238	0.16
370.602	0.16
370.967	0.16
371.331	0.17
371.695	0.17
372.059	0.16
372.423	0.16
372.787	0.16
373.151	0.16
373.515	0.16
373.878	0.15
374.242	0.16
374.606	0.16
374.97	0.16
375.334	0.16
375.697	0.16
376.061	0.17
376.425	0.16
376.788	0.17
377.152	0.17
377.515	0.17
377.879	0.18
378.242	0.17
378.606	0.17
378.969	0.18
379.333	0.18
379.696	0.18
380.059	0.18
380.422	0.19
380.786	0.19
381.149	0.2
381.512	0.2
381.875	0.2
382.238	0.21
382.601	0.22
382.964	0.22
383.327	0.23
383.69	0.24
384.053	0.24
384.416	0.24
384.779	0.25
385.142	0.26
385.504	0.26
385.867	0.26
386.23	0.27
386.593	0.27
386.955	0.27
387.318	0.27
387.68	0.27
388.043	0.27
388.405	0.27
388.768	0.27
389.13	0.26
389.493	0.25
389.855	0.26
390.217	0.26
390.58	0.26
390.942	0.26
391.304	0.25
391.666	0.26
392.028	0.26
392.391	0.27
392.753	0.28
393.115	0.29
393.477	0.3
393.839	0.31
394.201	0.32
394.563	0.33
394.924	0.34
395.286	0.36
395.648	0.37
396.01	0.39
396.371	0.39
396.733	0.4
397.095	0.41
397.456	0.41
397.818	0.42
398.18	0.41
398.541	0.4
398.903	0.4
399.264	0.39
399.625	0.37
399.987	0.36
400.348	0.34
400.709	0.33
401.071	0.31
401.432	0.3
401.793	0.28
402.154	0.26
402.515	0.24
402.876	0.22
403.238	0.21
403.599	0.2
403.96	0.18
404.32	0.18
404.681	0.16
405.042	0.15
405.403	0.14
405.764	0.13
406.125	0.12
406.485	0.12
406.846	0.11
407.207	0.1
407.567	0.1
407.928	0.09
408.288	0.09
408.649	0.08
409.009	0.08
409.37	0.08
409.73	0.08
410.091	0.07
410.451	0.07
410.811	0.06
411.171	0.06
411.532	0.06
411.892	0.06
412.252	0.06
412.612	0.06
412.972	0.05
413.332	0.06
413.692	0.05
414.052	0.05
414.412	0.05
414.772	0.05
415.132	0.04
415.492	0.05
415.851	0.04
416.211	0.05
416.571	0.04
416.931	0.05
417.29	0.05
417.65	0.04
418.009	0.04
418.369	0.04
418.728	0.04
419.088	0.03
419.447	0.04
419.807	0.04
420.166	0.04
420.525	0.04
420.884	0.04
421.244	0.04
421.603	0.04
421.962	0.04
422.321	0.03
422.68	0.04
423.039	0.03
423.398	0.03
423.757	0.03
424.116	0.04
424.475	0.04
424.834	0.04
425.193	0.04
425.551	0.03
425.91	0.03
426.269	0.04
426.628	0.03
426.986	0.04
427.345	0.03
427.703	0.03
428.062	0.04
428.42	0.03
428.779	0.03
429.137	0.03
429.496	0.04
429.854	0.03
430.212	0.03
430.57	0.03
430.929	0.03
431.287	0.03
431.645	0.03
432.003	0.03
432.361	0.03
432.719	0.03
433.077	0.03
433.435	0.03
433.793	0.03
434.151	0.03
434.509	0.03
434.866	0.03
435.224	0.03
435.582	0.03
435.94	0.03
436.297	0.02
436.655	0.03
437.012	0.03
437.37	0.03
437.727	0.03
438.085	0.03
438.442	0.02
438.8	0.02
439.157	0.04
439.514	0.03
439.872	0.03
440.229	0.03
440.586	0.02
440.943	0.03
441.3	0.03
441.657	0.02
442.014	0.02
442.371	0.02
442.728	0.02
443.085	0.03
443.442	0.03
443.799	0.02
444.156	0.03
444.513	0.02
444.869	0.03
445.226	0.02
445.583	0.02
445.939	0.03
446.296	0.02
446.652	0.02
447.009	0.03
447.365	0.02
447.722	0.02
448.078	0.02
448.434	0.02
448.791	0.02
449.147	0.02
449.503	0.01
449.859	0.01
450.215	0.02
450.571	0.03
450.928	0.03
451.284	0.02
451.64	0.01
451.995	0.02
452.351	0.02
452.707	0.02
453.063	0.02
453.419	0.02
453.775	0.02
454.13	0.02
454.486	0.02
454.842	0.02
455.197	0.01
455.553	0.02
455.908	0.01
456.264	0.02
456.619	0.02
456.975	0.01
457.33	0.02
457.685	0.02
458.04	0.01
458.396	0.01
458.751	0.01
459.106	0.02
459.461	0.01
459.816	0
460.171	0.01
460.526	0
460.881	0.01
461.236	0.02
461.591	0
461.946	0.01
462.301	0.01
462.655	0.01
463.01	0
463.365	0
463.719	-0
464.074	0
464.428	0
464.783	-0
465.137	0
465.492	0.01
465.846	0
466.201	-0.01
466.555	0
466.909	-0.01
467.263	-0
467.618	-0
467.972	-0
468.326	-0
468.68	-0
469.034	-0
469.388	-0
469.742	-0
470.096	-0.01
470.45	-0
470.804	-0
471.157	-0
471.511	-0.01
471.865	-0.01
472.218	-0
472.572	-0.01
472.926	-0.01
473.279	-0.01
473.633	-0
473.986	-0
474.34	-0
474.693	-0
475.046	0
475.4	0
475.753	0
476.106	0
476.459	0.01
476.812	0.01
477.165	0.01
477.519	0.01
477.872	0.01
478.224	0.01
478.577	0.01
478.93	0.01
479.283	0.01
479.636	0.01
479.989	0.01
480.341	0.01
480.694	0.01
481.047	0.02
481.399	0.01
481.752	0.01
482.104	0.02
482.457	0.02
482.809	0.02
483.162	0.02
483.514	0.02
483.866	0.02
484.219	0.02
484.571	0.02
484.923	0.01
485.275	0.02
485.627	0.02
485.979	0.02
486.331	0.02
486.683	0.02
487.035	0.02
487.387	0.02
487.739	0.02
488.091	0.02
488.443	0.02
488.794	0.03
489.146	0.02
489.498	0.03
489.849	0.03
490.201	0.03
490.552	0.02
490.904	0.02
491.255	0.03
491.607	0.03
491.958	0.02
492.309	0.02
492.661	0.03
493.012	0.02
493.363	0.03
493.714	0.03
494.065	0.03
494.416	0.02
494.767	0.03
495.118	0.02
495.469	0.03
495.82	0.03
496.171	0.03
496.522	0.02
496.872	0.03
497.223	0.03
497.574	0.03
497.924	0.03
498.275	0.03
498.626	0.03
498.976	0.03
499.327	0.03
499.677	0.03
500.027	0.03
500.378	0.03
500.728	0.03
501.078	0.03
501.428	0.03
501.779	0.04
502.129	0.03
502.479	0.03
502.829	0.03
503.179	0.03
503.529	0.04
503.879	0.04
504.229	0.04
504.578	0.04
504.928	0.04
505.278	0.04
505.628	0.04
505.977	0.04
506.327	0.04
506.676	0.04
507.026	0.04
507.375	0.04
507.725	0.04
508.074	0.04
508.424	0.04
508.773	0.04
509.122	0.04
509.471	0.04
509.82	0.04
510.17	0.04
510.519	0.04
510.868	0.04
511.217	0.04
511.566	0.04
511.915	0.04
512.263	0.05
512.612	0.05
512.961	0.04
513.31	0.05
513.659	0.05
514.007	0.05
514.356	0.05
514.704	0.05
515.053	0.05
515.401	0.04
515.75	0.04
516.098	0.04
516.447	0.04
516.795	0.05
517.143	0.05
517.491	0.05
517.839	0.05
518.188	0.05
518.536	0.04
518.884	0.05
519.232	0.05
519.58	0.05
519.928	0.05
520.275	0.04
520.623	0.05
520.971	0.05
521.319	0.05
521.666	0.05
522.014	0.05
522.362	0.05
522.709	0.05
523.057	0.05
523.404	0.05
523.752	0.05
524.099	0.05
524.446	0.06
524.794	0.05
525.141	0.05
525.488	0.05
525.835	0.05
526.182	0.05
526.529	0.06
526.876	0.05
527.223	0.05
527.57	0.06
527.917	0.05
528.264	0.05
528.611	0.05
528.958	0.05
529.304	0.05
529.651	0.06
529.998	0.06
530.344	0.06
530.691	0.06
531.037	0.06
531.384	0.06
531.73	0.06
532.076	0.06
532.423	0.06
532.769	0.06
533.115	0.06
533.461	0.06
533.807	0.06
534.154	0.06
534.5	0.06
534.846	0.06
535.192	0.06
535.537	0.07
535.883	0.07
536.229	0.07
536.575	0.07
536.921	0.07
537.266	0.07
537.612	0.07
537.957	0.07
538.303	0.07
538.649	0.07
538.994	0.07
539.339	0.07
539.685	0.07
540.03	0.07
540.375	0.07
540.721	0.07
541.066	0.07
541.411	0.07
541.756	0.07
542.101	0.07
542.446	0.07
542.791	0.08
543.136	0.08
543.481	0.07
543.825	0.08
544.17	0.08
544.515	0.08
544.86	0.07
545.204	0.07
545.549	0.07
545.893	0.08
546.238	0.07
546.582	0.08
546.927	0.07
547.271	0.08
547.615	0.08
547.96	0.08
548.304	0.08
548.648	0.08
548.992	0.08
549.336	0.08
549.68	0.08
550.024	0.08
550.368	0.09
550.712	0.08
551.056	0.08
551.4	0.08
551.743	0.09
552.087	0.08
552.431	0.08
552.774	0.08
553.118	0.08
553.462	0.08
553.805	0.08
554.148	0.09
554.492	0.09
554.835	0.09
555.178	0.08
555.522	0.08
555.865	0.09
556.208	0.09
556.551	0.09
556.894	0.09
557.237	0.09
557.58	0.09
557.923	0.09
558.266	0.09
558.609	0.09
558.952	0.09
559.294	0.09
559.637	0.09
559.98	0.09
560.322	0.09
560.665	0.09
561.007	0.09
561.35	0.09
561.692	0.09
562.034	0.09
562.377	0.09
562.719	0.09
563.061	0.09
563.403	0.09
563.745	0.09
564.088	0.09
564.43	0.09
564.772	0.09
565.113	0.09
565.455	0.09
565.797	0.09
566.139	0.09
566.481	0.09
566.822	0.09
567.164	0.09
567.506	0.09
567.847	0.09
568.189	0.09
568.53	0.1
568.872	0.1
569.213	0.1
569.554	0.1
569.895	0.1
570.237	0.1
570.578	0.1
570.919	0.1
571.26	0.1
571.601	0.1
571.942	0.1
572.283	0.1
572.624	0.1
572.965	0.1
573.306	0.1
573.646	0.1
573.987	0.1
574.328	0.1
574.668	0.1
575.009	0.1
575.349	0.1
575.69	0.1
576.03	0.1
576.37	0.09
576.711	0.09
577.051	0.1
577.391	0.1
577.731	0.1
578.072	0.1
578.412	0.1
578.752	0.1
579.092	0.09
579.431	0.09
579.771	0.09
580.111	0.08
580.451	0.08
580.791	0.09
581.13	0.1
581.47	0.1
581.81	0.1
582.149	0.1
582.489	0.1
582.828	0.09
583.167	0.09
583.507	0.06
583.846	0.04
584.185	0.06
584.525	0.08
584.864	0.09
585.203	0.1
585.542	0.1
585.881	0.1
586.22	0.1
586.559	0.1
586.898	0.09
587.236	0.09
587.575	0.09
587.914	0.09
588.252	0.1
588.591	0.1
588.93	0.1
589.268	0.1
589.607	0.1
589.945	0.1
590.283	0.1
590.622	0.1
590.96	0.11
591.298	0.11
591.636	0.11
591.974	0.11
592.313	0.11
592.651	0.11
592.989	0.1
593.326	0.11
593.664	0.11
594.002	0.11
594.34	0.11
594.678	0.11
595.015	0.11
595.353	0.1
595.691	0.11
596.028	0.11
596.366	0.11
596.703	0.11
597.04	0.12
597.378	0.12
597.715	0.12
598.052	0.12
598.389	0.11
598.726	0.11
599.064	0.11
599.401	0.12
599.738	0.11
600.074	0.12
600.411	0.11
600.748	0.11
601.085	0.11
601.422	0.11
601.758	0.11
602.095	0.11
602.432	0.11
602.768	0.11
603.105	0.12
603.441	0.12
603.777	0.12
604.114	0.12
604.45	0.12
604.786	0.12
605.122	0.12
605.459	0.11
605.795	0.11
606.131	0.12
606.467	0.12
606.803	0.12
607.139	0.12
607.474	0.12
607.81	0.12
608.146	0.11
608.482	0.12
608.817	0.12
609.153	0.12
609.488	0.12
609.824	0.12
610.159	0.11
610.495	0.12
610.83	0.11
611.165	0.12
611.5	0.12
611.836	0.11
612.171	0.11
612.506	0.11
612.841	0.11
613.176	0.11
613.511	0.11
613.845	0.11
614.18	0.11
614.515	0.11
614.85	0.11
615.184	0.11
615.519	0.11
615.854	0.11
616.188	0.11
616.523	0.11
616.857	0.11
617.191	0.11
617.526	0.11
617.86	0.11
618.194	0.11
618.528	0.11
618.862	0.11
619.196	0.11
619.53	0.11
619.864	0.11
620.198	0.1
620.532	0.11
620.866	0.11
621.2	0.11
621.533	0.11
621.867	0.11
622.201	0.11
622.534	0.11
622.868	0.1
623.201	0.1
623.534	0.11
623.868	0.1
624.201	0.1
624.534	0.1
624.868	0.1
625.201	0.1
625.534	0.1
625.867	0.1
626.2	0.11
626.533	0.1
626.865	0.1
627.198	0.09
627.531	0.1
627.864	0.1
628.196	0.1
628.529	0.09
628.862	0.09
629.194	0.1
629.527	0.09
629.859	0.1
630.191	0.09
630.524	0.09
630.856	0.09
631.188	0.09
631.52	0.09
631.852	0.08
632.184	0.09
632.516	0.09
632.848	0.08
633.18	0.08
633.512	0.08
633.844	0.08
634.175	0.08
634.507	0.08
634.839	0.08
635.17	0.08
635.502	0.08
635.833	0.08
636.165	0.08
636.496	0.08
636.827	0.08
637.159	0.08
637.49	0.07
637.821	0.07
638.152	0.07
638.483	0.07
638.814	0.08
639.145	0.08
639.476	0.07
639.807	0.07
640.137	0.07
640.468	0.07
640.799	0.07
641.129	0.07
641.46	0.07
641.791	0.07
642.121	0.07
642.451	0.06
642.782	0.06
643.112	0.06
643.442	0.06
643.773	0.06
644.103	0.06
644.433	0.06
644.763	0.06
645.093	0.07
645.423	0.06
645.753	0.06
646.082	0.06
646.412	0.06
646.742	0.06
647.072	0.06
647.401	0.06
647.731	0.06
648.06	0.06
648.39	0.06
648.719	0.06
649.048	0.06
649.378	0.06
649.707	0.06
650.036	0.06
650.365	0.06
650.694	0.06
651.023	0.06
651.352	0.06
651.681	0.06
652.01	0.06
652.339	0.06
652.668	0.06
652.996	0.06
653.325	0.06
653.654	0.06
653.982	0.06
654.311	0.06
654.639	0.06
654.967	0.06
655.296	0.06
655.624	0.06
655.952	0.06
656.28	0.06
656.609	0.06
656.937	0.06
657.265	0.06
657.593	0.05
657.92	0
658.248	0
658.576	-0
658.904	-0
659.231	0.03
659.559	0.06
659.887	0.06
660.214	0.06
660.542	0.06
660.869	0.06
661.196	0.06
661.524	0.06
661.851	0.06
662.178	0.06
662.505	0.06
662.832	0.06
663.159	0.06
663.486	0.06
663.813	0.06
664.14	0.06
664.467	0.05
664.794	0.06
665.12	0.06
665.447	0.06
665.774	0.06
666.1	0.05
666.427	0.05
666.753	0.05
667.079	0.05
667.406	0.05
667.732	0.05
668.058	0.05
668.384	0.05
668.71	0.05
669.036	0.05
669.362	0.05
669.688	0.05
670.014	0.05
670.34	0.05
670.666	0.05
670.991	0.05
671.317	0.05
671.643	0.05
671.968	0.05
672.294	0.05
672.619	0.05
672.945	0.05
673.27	0.05
673.595	0.05
673.92	0.05
674.246	0.05
674.571	0.05
674.896	0.05
675.221	0.05
675.546	0.05
675.87	0.05
676.195	0.05
676.52	0.05
676.845	0.05
677.169	0.05
677.494	0.04
677.819	0.04
678.143	0.04
678.468	0.04
678.792	0.04
679.116	0.04
679.44	0.04
679.765	0.04
680.089	0.04
680.413	0.04
680.737	0.04
681.061	0.04
681.385	0.04
681.709	0.04
682.033	0.04
682.356	0.04
682.68	0.04
683.004	0.04
683.327	0.04
683.651	0.04
683.974	0.04
684.298	0.04
684.621	0.04
684.944	0.03
685.268	0.04
685.591	0.03
685.914	0.03
686.237	0.03
686.56	0.03
686.883	0.03
687.206	0.03
687.529	0.03
687.852	0.03
688.175	0.03
688.497	0.03
688.82	0.03
689.142	0.03
689.465	0.03
689.787	0.03
690.11	0.03
690.432	0.03
690.755	0.03
691.077	0.02
691.399	0.03
691.721	0.03
692.043	0.03
692.365	0.02
692.687	0.02
693.009	0.02
693.331	0.02
693.653	0.02
693.974	0.02
694.296	0.02
694.618	0.02
694.939	0.02
695.261	0.03
695.582	0.02
695.904	0.02
696.225	0.02
696.546	0.02
696.868	0.02
697.189	0.02
697.51	0.02
697.831	0.02
698.152	0.02
698.473	0.02
698.794	0.02
699.114	0.02
699.435	0.02
699.756	0.02
700.077	0.02
700.397	0.02
700.718	0.02
701.038	0.02
701.359	0.02
701.679	0.02
701.999	0.02
702.32	0.01
702.64	0.01
702.96	0.01
703.28	0.01
703.6	0.01
703.92	0.01
704.24	0.02
704.56	0.02
704.879	0.02
705.199	0.02
705.519	0.02
705.838	0.02
706.158	0.02
706.478	0.02
706.797	0.02
707.116	0.02
707.436	0.02
707.755	0.02
708.074	0.02
708.393	0.02
708.712	0.02
709.031	0.02
709.35	0.02
709.669	0.02
709.988	0.02
710.307	0.02
710.626	0.02
710.944	0.02
711.263	0.02
711.582	0.02
711.9	0.01
712.219	0.01
712.537	0.02
712.855	0.01
713.174	0.02
713.492	0.02
713.81	0.02
714.128	0.02
714.446	0.02
714.764	0.02
715.082	0.02
715.4	0.02
715.718	0.02
716.035	0.02
716.353	0.02
716.671	0.02
716.988	0.02
717.306	0.02
717.623	0.02
717.941	0.02
718.258	0.01
718.575	0.02
718.893	0.02
719.21	0.02
719.527	0.02
719.844	0.02
720.161	0.02
720.478	0.02
720.795	0.02
721.112	0.02
721.428	0.03
721.745	0.03
722.062	0.03
722.378	0.02
722.695	0.03
723.011	0.02
723.328	0.02
723.644	0.03
723.96	0.02
724.276	0.02
724.593	0.02
724.909	0.02
725.225	0.02
725.541	0.02
725.857	0.02
726.173	0.02
726.488	0.02
726.804	0.02
727.12	0.02
727.435	0.02
727.751	0.02
728.067	0.02
728.382	0.03
728.697	0.03
729.013	0.03
729.328	0.02
729.643	0.02
729.958	0.02
730.273	0.02
730.588	0.02
730.903	0.02
731.218	0.02
731.533	0.02
731.848	0.02
732.163	0.02
732.477	0.02
732.792	0.02
733.107	0.02
733.421	0.02
733.736	0.02
734.05	0.01
734.364	0.02
734.678	0.01
734.993	0.02
735.307	0.02
735.621	0.02
735.935	0.02
736.249	0.02
736.563	0.02
736.877	0.02
737.19	0.02
737.504	0.02
737.818	0.02
738.131	0.02
738.445	0.02
738.758	0.03
739.072	0.02
739.385	0.03
739.698	0.02
740.012	0.02
740.325	0.02
740.638	0.02
740.951	0.02
741.264	0.02
741.577	0.02
741.89	0.02
742.203	0.02
742.515	0.01
742.828	0.02
743.141	0.02
743.453	0.02
743.766	0.02
744.078	0.02
744.391	0.02
744.703	0.01
745.015	0.01
745.327	0.01
745.639	0.01
745.952	0.01
746.264	0.01
746.575	0.01
746.887	0.01
747.199	0.01
747.511	0.01
747.823	0.01
748.134	0.01
748.446	0.01
748.757	0.01
749.069	0.01
749.38	0.01
749.692	0.01
750.003	0.01
750.314	0.01
750.625	0.01
750.936	0.02
751.248	0.02
751.559	0.02
751.869	0.01
752.18	0.01
752.491	0.01
752.802	0.01
753.112	0.01
753.423	0.01
753.734	0.01
754.044	0.01
754.355	0.01
754.665	0.02
754.975	0.01
755.285	0.01
755.596	0.02
755.906	0.01
756.216	0.01
756.526	0.02
756.836	0.01
757.146	0.01
757.455	0.01
757.765	0.01
758.075	0
758.385	0
758.694	0
759.004	0
759.313	0
759.622	0
759.932	0
760.241	0.01
760.55	0
760.859	0
761.168	0.01
761.477	0.01
761.786	0
762.095	0.01
762.404	0.01
762.713	0.01
763.021	0.01
763.33	0.01
763.639	0.01
763.947	0.01
764.256	0.01
764.564	0.01
764.872	0
765.181	0
765.489	0
765.797	0
766.105	0
766.413	0
766.721	0
767.029	0
767.337	0
767.644	0
767.952	-0
768.26	0
768.567	-0
768.875	-0
769.182	-0
769.49	-0
769.797	-0
770.104	0
770.411	0
770.718	0
771.026	0
771.333	0
771.639	0
771.946	-0
772.253	-0
772.56	-0
772.867	-0
773.173	-0.01
773.48	-0.01
773.786	-0.01
774.093	-0
774.399	-0.01
774.705	-0
775.012	-0
775.318	-0
775.624	-0
775.93	0
776.236	-0
776.542	0
776.848	0
777.154	0
777.459	0
777.765	0
778.071	-0
778.376	-0.01
778.682	-0.01
778.987	-0.01
779.292	-0
779.598	-0
779.903	-0
780.208	-0
780.513	-0
780.818	-0
781.123	-0
781.428	-0
781.733	-0
782.038	-0.01
782.343	-0.01
782.647	-0.01
782.952	-0.01
783.256	-0.01
783.561	-0.01
783.865	-0.01
784.17	-0.01
784.474	-0
784.778	-0.01
785.082	-0
785.386	-0.01
785.69	-0
785.994	-0
786.298	-0.01
786.602	-0.01
786.906	-0.01
787.209	-0.01
787.513	-0.01
787.817	-0.01
788.12	-0.01
788.424	-0.01
788.727	-0.01
789.03	-0.01
789.333	-0.01
789.637	-0.01
789.94	-0.01
790.243	-0
790.546	-0
790.849	-0
791.152	-0.01
791.454	-0.01
791.757	-0.01
792.06	-0.01
792.362	-0.01
792.665	-0.01
792.967	-0.01
793.27	-0.01
793.572	-0.01
793.874	-0.01
794.177	-0.02
794.479	-0.02
794.781	-0.02
795.083	-0.02
795.385	-0.02
795.687	-0.01
795.989	-0.01
796.29	-0
796.592	0
796.894	-0
797.195	-0.01
797.497	-0.01
797.798	-0.01
798.1	-0.01
798.401	-0.01
798.702	-0.02
799.003	-0.02
799.304	-0.02
799.605	-0.02
799.906	-0.02
800.207	-0.02
800.508	-0.02
800.809	-0.03
801.11	-0.02
801.41	-0.02
801.711	-0.02
802.011	-0.02
802.312	-0.02
802.612	-0.02
802.913	-0.02
803.213	-0.02
803.513	-0.02
803.813	-0.02
804.113	-0.02
804.413	-0.02
804.713	-0.02
805.013	-0.02
805.313	-0.02
805.613	-0.02
805.912	-0.02
806.212	-0.02
806.511	-0.01
806.811	-0.01
807.11	-0.01
807.41	-0.02
807.709	-0.01
808.008	-0.01
808.307	-0.01
808.606	-0.02
808.905	-0.02
809.204	-0.02
809.503	-0.02
809.802	-0.02
810.101	-0.02
810.399	-0.02
810.698	-0.02
810.997	-0.02
811.295	-0.03
811.593	-0.02
811.892	-0.03
812.19	-0.02
812.488	-0.02
812.786	-0.02
813.084	-0.02
813.383	-0.02
813.68	-0.02
813.978	-0.03
814.276	-0.02
814.574	-0.02
814.872	-0.02
815.169	-0.02
815.467	-0.02
815.764	-0.02
816.062	-0.03
816.359	-0.03
816.656	-0.03
816.954	-0.03
817.251	-0.03
817.548	-0.03
817.845	-0.04
818.142	-0.03
818.439	-0.03
818.735	-0.03
819.032	-0.02
819.329	-0.02
819.626	-0.02
819.922	-0.02
820.219	-0.02
820.515	-0.02
820.811	-0.03
821.108	-0.03
821.404	-0.02
821.7	-0.03
821.996	-0.03
822.292	-0.04
822.588	-0.03
822.884	-0.03
823.18	-0.03
823.475	-0.03
823.771	-0.02
824.067	-0.03
824.362	-0.03
824.658	-0.03
824.953	-0.04
825.249	-0.04
825.544	-0.03
825.839	-0.03
826.134	-0.04
826.429	-0.04
826.724	-0.04
827.019	-0.04
827.314	-0.04
827.609	-0.03
827.904	-0.03
828.198	-0.03
828.493	-0.03
828.787	-0.03
829.082	-0.02
829.376	-0.02
829.671	-0.02
829.965	-0.03
830.259	-0.03
830.553	-0.03
830.847	-0.04
831.141	-0.04
831.435	-0.04
831.729	-0.04
832.023	-0.04
832.317	-0.04
832.61	-0.04
832.904	-0.04
833.197	-0.04
833.491	-0.04
833.784	-0.04
834.077	-0.04
834.371	-0.04
834.664	-0.03
834.957	-0.04
835.25	-0.04
835.543	-0.04
835.836	-0.04
836.129	-0.04
836.421	-0.05
836.714	-0.04
837.007	-0.04
837.299	-0.04
837.592	-0.04
837.884	-0.05
838.177	-0.05
838.469	-0.05
838.761	-0.04
839.053	-0.04
839.345	-0.03
839.637	-0.04
839.929	-0.04
840.221	-0.05
840.513	-0.04
840.805	-0.04
841.096	-0.04
841.388	-0.04
841.68	-0.02
841.971	-0.04
842.262	-0.03
842.554	-0.05
842.845	-0.04
843.136	-0.04
843.427	-0.03
843.718	-0.04
844.009	-0.03
844.3	-0.03
844.591	-0.04
844.882	-0.04
845.173	-0.04
845.463	-0.06
845.754	-0.04
846.044	-0.04
846.335	-0.04
846.625	-0.05
846.915	-0.05
847.206	-0.03
847.496	-0.04
847.786	-0.05
848.076	-0.04
848.366	-0.04
848.656	-0.03
848.945	-0.04
849.235	-0.04
849.525	-0.04
849.814	-0.03
850.104	-0.03
850.393	-0.02
850.683	-0.03
850.972	-0.03
851.261	-0.03
851.551	-0.03
851.84	-0.03
852.129	-0.03
852.418	-0.04
852.707	-0.04
852.995	-0.04
853.284	-0.03
853.573	-0.03
853.862	-0.02
854.15	-0.03
854.439	-0.04
854.727	-0.03
855.015	-0.03
855.304	-0.03
855.592	-0.04
855.88	-0.03
856.168	-0.02
856.456	-0.02
856.744	-0.03
857.032	-0.03
857.32	-0.03
857.607	-0.02
857.895	-0.03
858.183	-0.04
858.47	-0.05
858.757	-0.03
859.045	-0.04
859.332	-0.05
859.619	-0.03
859.907	-0.03
860.194	-0.02
860.481	-0.01
860.768	-0.03
861.054	-0.04
861.341	-0.04
861.628	-0.03
861.915	-0.02
862.201	-0.03
862.488	-0.05
862.774	-0.05
863.061	-0.03
863.347	-0.05
863.633	-0.05
863.919	-0.05
864.205	-0.05
864.491	-0.05
864.777	-0.06
865.063	-0.05
865.349	-0.04
865.635	-0.02
865.92	-0.05
866.206	-0.02
866.492	-0.05
866.777	-0.09
867.062	-0.02
867.348	-0.05
867.633	-0.06
867.918	-0.04
868.203	-0.05
868.488	-0.04
868.773	-0.03
869.058	-0.03
869.343	-0.05
869.628	-0.02
869.912	-0.06
870.197	-0.04
870.482	-0.06
870.766	-0.04
871.05	-0.02
871.335	0.01
871.619	-0.04
871.903	-0.07
872.187	-0.04
872.471	-0.03
872.755	-0.01
873.039	-0.02
873.323	-0.02
873.607	-0
873.89	-0.08
874.174	-0.02
874.458	-0.1
874.741	-0.04
875.024	-0.02
875.308	-0.05
875.591	0.02
875.874	-0
876.157	-0.03
876.44	-0.07
876.723	-0.07
877.006	-0.01
877.289	-0.02
877.572	-0.01
877.854	-0.03
878.137	-0.13
878.42	0.02
878.702	-0.04
878.984	-0.1
879.267	0.05
879.549	-0.13
879.831	0.01
880.113	-0.21
880.395	-0.11
880.677	-0.04
880.959	-0.05
