Data from Rubpy_EV_300_EDTA_Buffered_Absorbance_12-40-18-185.txt Node
Date: Tue Jun 30 12:40:18 BST 2026
User: fpm-admin
Spectrometer: OFX00224
Trigger mode: 0
Integration Time (sec): 7.000000E-2
Scans to average: 3
Nonlinearity correction enabled: false
Boxcar width: 0
Storing dark spectrum: false
XAxis mode: Wavelengths
Number of Pixels in Spectrum: 2136
>>>>>Begin Spectral Data<<<<<
154.91	-0
155.289	-0
155.669	-0
156.048	-0.75
156.428	0.41
156.807	-0
157.186	0.01
157.566	-0
157.945	-0
158.325	-0
158.704	-0
159.083	-0.38
159.462	-0.25
159.842	-1.1
160.221	-0.74
160.6	-0.48
160.979	-0
161.359	-1.6
161.738	-0
162.117	-0
162.496	-1.42
162.875	-0.77
163.254	-0
163.633	-0
164.012	-0
164.391	-0.27
164.77	-0
165.149	-0.53
165.528	-0.31
165.907	-0
166.286	0.18
166.665	-0.27
167.044	-0
167.423	-0
167.802	-0
168.181	-0.61
168.559	-0
168.938	-0.19
169.317	-0
169.696	-0
170.074	-0
170.453	-0.3
170.832	-0
171.21	-0.6
171.589	-0
171.968	-0
172.346	-0.14
172.725	-0
173.103	-0
173.482	0.25
173.861	-0
174.239	-0
174.617	-0
174.996	-0.53
175.374	-1.66
175.753	-0.64
176.131	-0
176.51	-0
176.888	-0
177.266	-0
177.645	0.16
178.023	-0.08
178.401	-0.47
178.779	-0.11
179.158	-0.38
179.536	-0
179.914	-0
180.292	-0.38
180.67	-0
181.048	-0
181.427	-0.18
181.805	-0
182.183	-0.73
182.561	-0.16
182.939	-0.3
183.317	-0.36
183.695	0.18
184.073	-0.13
184.451	0.52
184.829	-0.12
185.206	-0.67
185.584	-1.07
185.962	-1.05
186.34	-0
186.718	-0
187.096	-0.34
187.473	-1.2
187.851	-0.45
188.229	-0.4
188.607	-0.11
188.984	-0
189.362	-0.08
189.74	0.03
190.117	0.07
190.495	0
190.872	0.04
191.25	-0.05
191.627	-0.1
192.005	-0.05
192.382	0.02
192.76	-0
193.137	-0.01
193.515	-0.05
193.892	0.06
194.269	-0.18
194.647	0.04
195.024	-0.04
195.401	-0.06
195.779	0.03
196.156	0.03
196.533	0.1
196.91	0.06
197.288	-0.02
197.665	-0
198.042	0.07
198.419	0.01
198.796	-0
199.173	-0.09
199.55	-0.01
199.927	0
200.304	-0.14
200.681	0.04
201.058	-0.05
201.435	-0.03
201.812	0.06
202.189	0
202.566	-0.08
202.943	-0.01
203.32	0.07
203.697	0.06
204.073	-0.03
204.45	-0.04
204.827	0.07
205.204	-0.02
205.58	0
205.957	-0.01
206.334	-0.02
206.71	-0
207.087	-0.02
207.464	0.03
207.84	-0.05
208.217	-0.02
208.593	-0.06
208.97	0.01
209.346	0.04
209.723	0.02
210.099	-0.06
210.476	0
210.852	0.07
211.228	0.09
211.605	-0.02
211.981	0.07
212.357	0.02
212.733	-0.02
213.11	0.03
213.486	-0.09
213.862	0.12
214.238	0.03
214.614	-0.03
214.991	0.02
215.367	0.06
215.743	0.04
216.119	-0.01
216.495	0.01
216.871	0.13
217.247	-0.03
217.623	0.04
217.999	0.05
218.375	-0.09
218.751	0.04
219.127	0
219.502	0.13
219.878	0.1
220.254	-0.01
220.63	0.08
221.006	0.06
221.381	-0.01
221.757	0.06
222.133	0.02
222.508	0.07
222.884	0.02
223.26	-0
223.635	-0.02
224.011	-0.02
224.386	-0.05
224.762	-0.05
225.137	-0.02
225.513	-0.03
225.888	0.09
226.264	-0.02
226.639	0.03
227.014	0.11
227.39	-0.01
227.765	0.08
228.14	-0.01
228.516	-0.02
228.891	0.1
229.266	-0.02
229.641	0.14
230.017	-0.04
230.392	-0
230.767	0.08
231.142	0.02
231.517	-0.03
231.892	0.09
232.267	-0.09
232.642	0.09
233.017	0.06
233.392	0.03
233.767	0.03
234.142	-0.06
234.517	-0.01
234.892	-0.1
235.267	0.01
235.641	0.05
236.016	-0.07
236.391	-0
236.766	0.1
237.14	-0.04
237.515	0.04
237.89	0.01
238.264	-0.04
238.639	-0.1
239.014	-0.03
239.388	0.02
239.763	0.06
240.137	-0.01
240.512	-0.03
240.886	0.01
241.261	0.04
241.635	-0.04
242.009	0.11
242.384	0.03
242.758	-0.15
243.132	0.07
243.507	0.09
243.881	0.04
244.255	0.07
244.629	0.1
245.004	0.03
245.378	0.01
245.752	0.05
246.126	-0
246.5	0.01
246.874	0.11
247.248	-0.08
247.622	0
247.996	0.08
248.37	0.03
248.744	-0.05
249.118	-0.06
249.492	0.1
249.866	-0.02
250.24	-0
250.613	0.05
250.987	-0.07
251.361	-0.03
251.735	0.08
252.108	0.04
252.482	0.04
252.856	-0.04
253.229	0.04
253.603	-0.03
253.977	-0.02
254.35	0.03
254.724	-0.02
255.097	-0.01
255.471	0.05
255.844	0.07
256.218	0.02
256.591	-0.03
256.964	0.02
257.338	0.05
257.711	0.02
258.084	-0.01
258.458	0.03
258.831	-0.03
259.204	0.02
259.577	0.07
259.95	-0.06
260.323	0.08
260.697	-0
261.07	0.01
261.443	-0.04
261.816	0.06
262.189	-0.07
262.562	0.02
262.935	-0.04
263.308	-0.02
263.68	0.04
264.053	0.02
264.426	0.08
264.799	0.01
265.172	-0.03
265.545	0.01
265.917	0.04
266.29	0.03
266.663	-0.03
267.035	0.04
267.408	0.03
267.781	0.08
268.153	0.02
268.526	0.03
268.898	0.03
269.271	0.05
269.643	-0
270.016	0.01
270.388	0.06
270.76	0.04
271.133	0.02
271.505	0.03
271.877	-0.02
272.25	0.04
272.622	0.02
272.994	0.04
273.366	0.01
273.739	0.03
274.111	0.04
274.483	-0
274.855	0
275.227	0.06
275.599	0.09
275.971	0.05
276.343	-0.02
276.715	0.03
277.087	0.08
277.459	0.04
277.831	0.06
278.203	0.03
278.574	0.02
278.946	-0.01
279.318	0.14
279.69	0.04
280.061	-0.02
280.433	0.01
280.805	0.07
281.176	-0.01
281.548	0.04
281.92	0.03
282.291	-0
282.663	0.06
283.034	-0.03
283.406	0.08
283.777	0.04
284.148	0.03
284.52	-0.01
284.891	0.07
285.262	0.05
285.634	0.01
286.005	0.06
286.376	0.01
286.747	0.1
287.119	0.01
287.49	0.04
287.861	0.01
288.232	0.04
288.603	0.03
288.974	0.02
289.345	0
289.716	0.01
290.087	0.02
290.458	0.02
290.829	0.05
291.2	0.03
291.571	0.03
291.941	0.04
292.312	0.08
292.683	0.01
293.054	0.03
293.424	0.04
293.795	0.04
294.166	0.04
294.536	0.03
294.907	0.05
295.277	0.04
295.648	0.02
296.018	0.05
296.389	0.01
296.759	0.01
297.13	0.04
297.5	-0
297.871	0.04
298.241	0.02
298.611	0.09
298.981	-0
299.352	0.07
299.722	0.07
300.092	0.05
300.462	0.01
300.832	0.05
301.202	0.04
301.573	0.06
301.943	0.07
302.313	0.04
302.683	0.03
303.053	0.04
303.422	0.05
303.792	0.04
304.162	0.04
304.532	0.04
304.902	0.04
305.272	0.04
305.641	0.07
306.011	0.05
306.381	0.06
306.75	0.06
307.12	0.06
307.49	0.06
307.859	0.04
308.229	0.05
308.598	0.05
308.968	0.05
309.337	0.05
309.707	0.06
310.076	0.05
310.445	0.06
310.815	0.05
311.184	0.06
311.553	0.06
311.923	0.05
312.292	0.06
312.661	0.06
313.03	0.06
313.399	0.07
313.768	0.05
314.137	0.05
314.506	0.06
314.875	0.06
315.244	0.06
315.613	0.06
315.982	0.06
316.351	0.06
316.72	0.06
317.089	0.06
317.458	0.06
317.826	0.05
318.195	0.06
318.564	0.06
318.933	0.06
319.301	0.06
319.67	0.05
320.038	0.05
320.407	0.05
320.775	0.05
321.144	0.05
321.512	0.06
321.881	0.05
322.249	0.06
322.618	0.05
322.986	0.05
323.354	0.05
323.723	0.05
324.091	0.05
324.459	0.05
324.827	0.04
325.195	0.05
325.564	0.05
325.932	0.05
326.3	0.05
326.668	0.05
327.036	0.04
327.404	0.05
327.772	0.05
328.14	0.05
328.508	0.05
328.875	0.05
329.243	0.05
329.611	0.05
329.979	0.05
330.346	0.05
330.714	0.05
331.082	0.05
331.449	0.05
331.817	0.05
332.185	0.05
332.552	0.05
332.92	0.06
333.287	0.05
333.655	0.05
334.022	0.05
334.389	0.05
334.757	0.05
335.124	0.05
335.491	0.05
335.859	0.05
336.226	0.05
336.593	0.05
336.96	0.05
337.327	0.05
337.695	0.05
338.062	0.05
338.429	0.06
338.796	0.06
339.163	0.06
339.53	0.06
339.897	0.05
340.263	0.05
340.63	0.05
340.997	0.06
341.364	0.06
341.731	0.06
342.097	0.06
342.464	0.06
342.831	0.06
343.197	0.06
343.564	0.06
343.931	0.06
344.297	0.07
344.664	0.07
345.03	0.07
345.396	0.07
345.763	0.07
346.129	0.07
346.496	0.07
346.862	0.07
347.228	0.07
347.594	0.07
347.961	0.07
348.327	0.07
348.693	0.07
349.059	0.07
349.425	0.08
349.791	0.07
350.157	0.07
350.523	0.08
350.889	0.08
351.255	0.08
351.621	0.08
351.987	0.08
352.353	0.08
352.719	0.09
353.084	0.08
353.45	0.09
353.816	0.09
354.181	0.09
354.547	0.09
354.913	0.09
355.278	0.09
355.644	0.09
356.009	0.1
356.375	0.1
356.74	0.1
357.106	0.1
357.471	0.1
357.836	0.1
358.202	0.11
358.567	0.11
358.932	0.11
359.297	0.11
359.663	0.11
360.028	0.12
360.393	0.11
360.758	0.12
361.123	0.12
361.488	0.12
361.853	0.12
362.218	0.12
362.583	0.12
362.948	0.12
363.312	0.13
363.677	0.13
364.042	0.13
364.407	0.13
364.772	0.13
365.136	0.14
365.501	0.14
365.865	0.14
366.23	0.14
366.595	0.15
366.959	0.15
367.324	0.15
367.688	0.15
368.052	0.16
368.417	0.16
368.781	0.15
369.145	0.16
369.51	0.16
369.874	0.16
370.238	0.16
370.602	0.16
370.967	0.16
371.331	0.16
371.695	0.16
372.059	0.16
372.423	0.16
372.787	0.16
373.151	0.16
373.515	0.16
373.878	0.15
374.242	0.16
374.606	0.16
374.97	0.16
375.334	0.16
375.697	0.16
376.061	0.16
376.425	0.16
376.788	0.17
377.152	0.16
377.515	0.17
377.879	0.17
378.242	0.17
378.606	0.17
378.969	0.17
379.333	0.17
379.696	0.17
380.059	0.18
380.422	0.18
380.786	0.18
381.149	0.2
381.512	0.19
381.875	0.2
382.238	0.2
382.601	0.21
382.964	0.21
383.327	0.22
383.69	0.22
384.053	0.23
384.416	0.23
384.779	0.24
385.142	0.24
385.504	0.24
385.867	0.25
386.23	0.26
386.593	0.26
386.955	0.25
387.318	0.25
387.68	0.25
388.043	0.25
388.405	0.25
388.768	0.25
389.13	0.25
389.493	0.24
389.855	0.24
390.217	0.24
390.58	0.24
390.942	0.24
391.304	0.24
391.666	0.25
392.028	0.25
392.391	0.26
392.753	0.26
393.115	0.28
393.477	0.28
393.839	0.29
394.201	0.3
394.563	0.31
394.924	0.32
395.286	0.34
395.648	0.35
396.01	0.36
396.371	0.37
396.733	0.38
397.095	0.38
397.456	0.38
397.818	0.39
398.18	0.38
398.541	0.38
398.903	0.37
399.264	0.36
399.625	0.35
399.987	0.34
400.348	0.32
400.709	0.31
401.071	0.29
401.432	0.28
401.793	0.26
402.154	0.25
402.515	0.23
402.876	0.21
403.238	0.2
403.599	0.19
403.96	0.18
404.32	0.17
404.681	0.15
405.042	0.15
405.403	0.13
405.764	0.13
406.125	0.12
406.485	0.11
406.846	0.11
407.207	0.1
407.567	0.09
407.928	0.09
408.288	0.09
408.649	0.09
409.009	0.08
409.37	0.08
409.73	0.08
410.091	0.07
410.451	0.07
410.811	0.06
411.171	0.07
411.532	0.06
411.892	0.07
412.252	0.06
412.612	0.06
412.972	0.06
413.332	0.06
413.692	0.06
414.052	0.05
414.412	0.06
414.772	0.05
415.132	0.05
415.492	0.05
415.851	0.05
416.211	0.05
416.571	0.05
416.931	0.05
417.29	0.05
417.65	0.05
418.009	0.04
418.369	0.04
418.728	0.04
419.088	0.04
419.447	0.05
419.807	0.04
420.166	0.05
420.525	0.04
420.884	0.04
421.244	0.03
421.603	0.04
421.962	0.05
422.321	0.04
422.68	0.04
423.039	0.03
423.398	0.04
423.757	0.04
424.116	0.04
424.475	0.05
424.834	0.04
425.193	0.04
425.551	0.03
425.91	0.04
426.269	0.04
426.628	0.04
426.986	0.04
427.345	0.03
427.703	0.04
428.062	0.04
428.42	0.04
428.779	0.04
429.137	0.04
429.496	0.03
429.854	0.03
430.212	0.04
430.57	0.03
430.929	0.04
431.287	0.04
431.645	0.04
432.003	0.03
432.361	0.03
432.719	0.03
433.077	0.03
433.435	0.04
433.793	0.03
434.151	0.04
434.509	0.04
434.866	0.04
435.224	0.04
435.582	0.03
435.94	0.03
436.297	0.03
436.655	0.03
437.012	0.03
437.37	0.03
437.727	0.04
438.085	0.04
438.442	0.04
438.8	0.02
439.157	0.04
439.514	0.03
439.872	0.03
440.229	0.04
440.586	0.03
440.943	0.03
441.3	0.03
441.657	0.03
442.014	0.03
442.371	0.03
442.728	0.02
443.085	0.03
443.442	0.03
443.799	0.02
444.156	0.03
444.513	0.03
444.869	0.03
445.226	0.03
445.583	0.03
445.939	0.03
446.296	0.03
446.652	0.03
447.009	0.03
447.365	0.03
447.722	0.02
448.078	0.03
448.434	0.02
448.791	0.03
449.147	0.02
449.503	0.01
449.859	0.02
450.215	0.03
450.571	0.03
450.928	0.03
451.284	0.02
451.64	0.01
451.995	0.02
452.351	0.03
452.707	0.03
453.063	0.03
453.419	0.03
453.775	0.02
454.13	0.02
454.486	0.02
454.842	0.02
455.197	0.02
455.553	0.02
455.908	0.01
456.264	0.02
456.619	0.02
456.975	0.01
457.33	0.02
457.685	0.02
458.04	0.02
458.396	0.01
458.751	0.01
459.106	0.01
459.461	0.01
459.816	0.01
460.171	0.01
460.526	0.01
460.881	0
461.236	0.01
461.591	0.01
461.946	0.01
462.301	0.01
462.655	0.01
463.01	-0
463.365	0.01
463.719	-0
464.074	0
464.428	-0
464.783	-0
465.137	-0
465.492	0
465.846	-0
466.201	-0
466.555	-0
466.909	0
467.263	0
467.618	0
467.972	-0
468.326	0
468.68	-0
469.034	-0
469.388	-0
469.742	-0.01
470.096	-0.01
470.45	-0
470.804	-0
471.157	-0
471.511	-0
471.865	-0
472.218	0
472.572	-0
472.926	-0.01
473.279	-0
473.633	0
473.986	-0
474.34	0
474.693	-0
475.046	0.01
475.4	0.01
475.753	0.01
476.106	0.01
476.459	0.02
476.812	0.01
477.165	0.02
477.519	0.02
477.872	0.02
478.224	0.02
478.577	0.02
478.93	0.02
479.283	0.02
479.636	0.02
479.989	0.02
480.341	0.02
480.694	0.02
481.047	0.02
481.399	0.03
481.752	0.02
482.104	0.02
482.457	0.03
482.809	0.03
483.162	0.03
483.514	0.03
483.866	0.03
484.219	0.03
484.571	0.03
484.923	0.03
485.275	0.03
485.627	0.03
485.979	0.03
486.331	0.03
486.683	0.03
487.035	0.03
487.387	0.02
487.739	0.03
488.091	0.03
488.443	0.03
488.794	0.04
489.146	0.04
489.498	0.04
489.849	0.03
490.201	0.04
490.552	0.03
490.904	0.03
491.255	0.04
491.607	0.03
491.958	0.03
492.309	0.04
492.661	0.04
493.012	0.04
493.363	0.04
493.714	0.04
494.065	0.04
494.416	0.03
494.767	0.04
495.118	0.03
495.469	0.04
495.82	0.04
496.171	0.04
496.522	0.03
496.872	0.04
497.223	0.04
497.574	0.04
497.924	0.04
498.275	0.04
498.626	0.04
498.976	0.04
499.327	0.04
499.677	0.05
500.027	0.04
500.378	0.04
500.728	0.05
501.078	0.05
501.428	0.04
501.779	0.05
502.129	0.04
502.479	0.04
502.829	0.04
503.179	0.04
503.529	0.05
503.879	0.05
504.229	0.05
504.578	0.05
504.928	0.05
505.278	0.05
505.628	0.05
505.977	0.05
506.327	0.05
506.676	0.05
507.026	0.05
507.375	0.05
507.725	0.04
508.074	0.04
508.424	0.05
508.773	0.05
509.122	0.05
509.471	0.05
509.82	0.05
510.17	0.05
510.519	0.05
510.868	0.05
511.217	0.05
511.566	0.06
511.915	0.06
512.263	0.06
512.612	0.05
512.961	0.05
513.31	0.06
513.659	0.05
514.007	0.06
514.356	0.05
514.704	0.05
515.053	0.05
515.401	0.05
515.75	0.05
516.098	0.05
516.447	0.06
516.795	0.06
517.143	0.05
517.491	0.06
517.839	0.06
518.188	0.06
518.536	0.06
518.884	0.05
519.232	0.06
519.58	0.06
519.928	0.06
520.275	0.06
520.623	0.06
520.971	0.06
521.319	0.06
521.666	0.06
522.014	0.06
522.362	0.06
522.709	0.06
523.057	0.05
523.404	0.06
523.752	0.06
524.099	0.06
524.446	0.06
524.794	0.06
525.141	0.06
525.488	0.06
525.835	0.06
526.182	0.06
526.529	0.06
526.876	0.06
527.223	0.07
527.57	0.06
527.917	0.06
528.264	0.06
528.611	0.07
528.958	0.07
529.304	0.06
529.651	0.06
529.998	0.06
530.344	0.07
530.691	0.07
531.037	0.07
531.384	0.07
531.73	0.07
532.076	0.07
532.423	0.07
532.769	0.07
533.115	0.07
533.461	0.07
533.807	0.07
534.154	0.07
534.5	0.07
534.846	0.07
535.192	0.07
535.537	0.07
535.883	0.07
536.229	0.07
536.575	0.08
536.921	0.08
537.266	0.08
537.612	0.08
537.957	0.07
538.303	0.08
538.649	0.07
538.994	0.08
539.339	0.08
539.685	0.08
540.03	0.08
540.375	0.08
540.721	0.08
541.066	0.08
541.411	0.08
541.756	0.08
542.101	0.08
542.446	0.08
542.791	0.08
543.136	0.08
543.481	0.08
543.825	0.08
544.17	0.09
544.515	0.08
544.86	0.09
545.204	0.08
545.549	0.08
545.893	0.08
546.238	0.08
546.582	0.09
546.927	0.08
547.271	0.09
547.615	0.09
547.96	0.09
548.304	0.09
548.648	0.09
548.992	0.09
549.336	0.09
549.68	0.09
550.024	0.09
550.368	0.09
550.712	0.09
551.056	0.09
551.4	0.09
551.743	0.09
552.087	0.09
552.431	0.09
552.774	0.09
553.118	0.09
553.462	0.09
553.805	0.09
554.148	0.09
554.492	0.09
554.835	0.09
555.178	0.09
555.522	0.09
555.865	0.09
556.208	0.09
556.551	0.09
556.894	0.1
557.237	0.09
557.58	0.1
557.923	0.1
558.266	0.1
558.609	0.1
558.952	0.1
559.294	0.1
559.637	0.1
559.98	0.1
560.322	0.1
560.665	0.1
561.007	0.1
561.35	0.1
561.692	0.1
562.034	0.1
562.377	0.1
562.719	0.1
563.061	0.1
563.403	0.1
563.745	0.1
564.088	0.1
564.43	0.09
564.772	0.1
565.113	0.1
565.455	0.09
565.797	0.1
566.139	0.1
566.481	0.1
566.822	0.1
567.164	0.1
567.506	0.1
567.847	0.1
568.189	0.1
568.53	0.1
568.872	0.1
569.213	0.1
569.554	0.1
569.895	0.1
570.237	0.1
570.578	0.1
570.919	0.11
571.26	0.1
571.601	0.1
571.942	0.11
572.283	0.1
572.624	0.1
572.965	0.1
573.306	0.1
573.646	0.1
573.987	0.1
574.328	0.1
574.668	0.1
575.009	0.1
575.349	0.1
575.69	0.1
576.03	0.1
576.37	0.1
576.711	0.1
577.051	0.1
577.391	0.1
577.731	0.1
578.072	0.1
578.412	0.1
578.752	0.1
579.092	0.1
579.431	0.1
579.771	0.09
580.111	0.09
580.451	0.09
580.791	0.1
581.13	0.1
581.47	0.1
581.81	0.1
582.149	0.1
582.489	0.1
582.828	0.1
583.167	0.09
583.507	0.07
583.846	0.05
584.185	0.06
584.525	0.09
584.864	0.1
585.203	0.1
585.542	0.1
585.881	0.1
586.22	0.1
586.559	0.1
586.898	0.1
587.236	0.1
587.575	0.1
587.914	0.1
588.252	0.1
588.591	0.1
588.93	0.1
589.268	0.1
589.607	0.1
589.945	0.1
590.283	0.11
590.622	0.11
590.96	0.11
591.298	0.11
591.636	0.11
591.974	0.11
592.313	0.11
592.651	0.11
592.989	0.11
593.326	0.11
593.664	0.11
594.002	0.11
594.34	0.11
594.678	0.11
595.015	0.11
595.353	0.11
595.691	0.11
596.028	0.12
596.366	0.11
596.703	0.12
597.04	0.12
597.378	0.12
597.715	0.12
598.052	0.12
598.389	0.12
598.726	0.12
599.064	0.11
599.401	0.12
599.738	0.12
600.074	0.12
600.411	0.12
600.748	0.12
601.085	0.12
601.422	0.11
601.758	0.12
602.095	0.12
602.432	0.12
602.768	0.12
603.105	0.12
603.441	0.12
603.777	0.12
604.114	0.12
604.45	0.12
604.786	0.12
605.122	0.12
605.459	0.12
605.795	0.12
606.131	0.12
606.467	0.12
606.803	0.12
607.139	0.12
607.474	0.12
607.81	0.12
608.146	0.12
608.482	0.12
608.817	0.12
609.153	0.12
609.488	0.12
609.824	0.12
610.159	0.12
610.495	0.12
610.83	0.12
611.165	0.12
611.5	0.12
611.836	0.12
612.171	0.12
612.506	0.11
612.841	0.12
613.176	0.11
613.511	0.12
613.845	0.12
614.18	0.12
614.515	0.12
614.85	0.12
615.184	0.12
615.519	0.12
615.854	0.11
616.188	0.11
616.523	0.11
616.857	0.11
617.191	0.11
617.526	0.11
617.86	0.11
618.194	0.11
618.528	0.11
618.862	0.11
619.196	0.11
619.53	0.11
619.864	0.11
620.198	0.11
620.532	0.11
620.866	0.11
621.2	0.11
621.533	0.11
621.867	0.11
622.201	0.11
622.534	0.11
622.868	0.11
623.201	0.11
623.534	0.11
623.868	0.11
624.201	0.11
624.534	0.1
624.868	0.11
625.201	0.1
625.534	0.1
625.867	0.11
626.2	0.11
626.533	0.1
626.865	0.11
627.198	0.1
627.531	0.1
627.864	0.1
628.196	0.1
628.529	0.1
628.862	0.1
629.194	0.1
629.527	0.1
629.859	0.1
630.191	0.1
630.524	0.1
630.856	0.09
631.188	0.1
631.52	0.1
631.852	0.1
632.184	0.09
632.516	0.09
632.848	0.09
633.18	0.1
633.512	0.09
633.844	0.09
634.175	0.09
634.507	0.09
634.839	0.09
635.17	0.09
635.502	0.09
635.833	0.09
636.165	0.09
636.496	0.09
636.827	0.09
637.159	0.09
637.49	0.08
637.821	0.08
638.152	0.08
638.483	0.08
638.814	0.08
639.145	0.08
639.476	0.08
639.807	0.08
640.137	0.08
640.468	0.08
640.799	0.07
641.129	0.07
641.46	0.08
641.791	0.08
642.121	0.08
642.451	0.08
642.782	0.08
643.112	0.08
643.442	0.07
643.773	0.07
644.103	0.07
644.433	0.07
644.763	0.07
645.093	0.07
645.423	0.07
645.753	0.07
646.082	0.07
646.412	0.07
646.742	0.07
647.072	0.07
647.401	0.07
647.731	0.07
648.06	0.07
648.39	0.07
648.719	0.07
649.048	0.07
649.378	0.07
649.707	0.07
650.036	0.07
650.365	0.07
650.694	0.07
651.023	0.07
651.352	0.07
651.681	0.07
652.01	0.07
652.339	0.07
652.668	0.07
652.996	0.07
653.325	0.07
653.654	0.07
653.982	0.07
654.311	0.07
654.639	0.07
654.967	0.07
655.296	0.07
655.624	0.07
655.952	0.07
656.28	0.07
656.609	0.07
656.937	0.07
657.265	0.07
657.593	0.06
657.92	0
658.248	-0
658.576	-0
658.904	-0
659.231	0.04
659.559	0.07
659.887	0.07
660.214	0.07
660.542	0.07
660.869	0.07
661.196	0.07
661.524	0.07
661.851	0.07
662.178	0.07
662.505	0.06
662.832	0.06
663.159	0.06
663.486	0.06
663.813	0.07
664.14	0.07
664.467	0.06
664.794	0.07
665.12	0.07
665.447	0.07
665.774	0.07
666.1	0.07
666.427	0.07
666.753	0.07
667.079	0.07
667.406	0.07
667.732	0.06
668.058	0.06
668.384	0.06
668.71	0.06
669.036	0.06
669.362	0.06
669.688	0.06
670.014	0.06
670.34	0.06
670.666	0.06
670.991	0.06
671.317	0.06
671.643	0.06
671.968	0.06
672.294	0.06
672.619	0.06
672.945	0.06
673.27	0.06
673.595	0.06
673.92	0.06
674.246	0.06
674.571	0.06
674.896	0.05
675.221	0.05
675.546	0.05
675.87	0.06
676.195	0.06
676.52	0.06
676.845	0.05
677.169	0.05
677.494	0.05
677.819	0.05
678.143	0.05
678.468	0.05
678.792	0.05
679.116	0.05
679.44	0.05
679.765	0.05
680.089	0.05
680.413	0.05
680.737	0.05
681.061	0.05
681.385	0.05
681.709	0.05
682.033	0.05
682.356	0.05
682.68	0.05
683.004	0.05
683.327	0.05
683.651	0.04
683.974	0.04
684.298	0.05
684.621	0.05
684.944	0.05
685.268	0.05
685.591	0.05
685.914	0.04
686.237	0.04
686.56	0.04
686.883	0.04
687.206	0.04
687.529	0.04
687.852	0.04
688.175	0.04
688.497	0.04
688.82	0.04
689.142	0.04
689.465	0.04
689.787	0.04
690.11	0.04
690.432	0.04
690.755	0.04
691.077	0.04
691.399	0.04
691.721	0.04
692.043	0.04
692.365	0.03
692.687	0.03
693.009	0.03
693.331	0.04
693.653	0.04
693.974	0.04
694.296	0.04
694.618	0.04
694.939	0.04
695.261	0.04
695.582	0.04
695.904	0.04
696.225	0.04
696.546	0.04
696.868	0.03
697.189	0.03
697.51	0.03
697.831	0.03
698.152	0.03
698.473	0.03
698.794	0.03
699.114	0.03
699.435	0.03
699.756	0.03
700.077	0.04
700.397	0.03
700.718	0.03
701.038	0.03
701.359	0.03
701.679	0.03
701.999	0.03
702.32	0.03
702.64	0.03
702.96	0.03
703.28	0.03
703.6	0.03
703.92	0.03
704.24	0.03
704.56	0.03
704.879	0.03
705.199	0.03
705.519	0.03
705.838	0.03
706.158	0.03
706.478	0.04
706.797	0.04
707.116	0.04
707.436	0.04
707.755	0.04
708.074	0.04
708.393	0.04
708.712	0.04
709.031	0.04
709.35	0.04
709.669	0.04
709.988	0.03
710.307	0.03
710.626	0.03
710.944	0.03
711.263	0.03
711.582	0.03
711.9	0.03
712.219	0.03
712.537	0.03
712.855	0.03
713.174	0.03
713.492	0.03
713.81	0.03
714.128	0.04
714.446	0.04
714.764	0.03
715.082	0.03
715.4	0.03
715.718	0.03
716.035	0.03
716.353	0.03
716.671	0.04
716.988	0.03
717.306	0.04
717.623	0.04
717.941	0.04
718.258	0.03
718.575	0.03
718.893	0.03
719.21	0.03
719.527	0.03
719.844	0.03
720.161	0.03
720.478	0.03
720.795	0.03
721.112	0.03
721.428	0.04
721.745	0.04
722.062	0.04
722.378	0.03
722.695	0.04
723.011	0.04
723.328	0.04
723.644	0.04
723.96	0.04
724.276	0.04
724.593	0.04
724.909	0.04
725.225	0.04
725.541	0.04
725.857	0.04
726.173	0.04
726.488	0.04
726.804	0.03
727.12	0.04
727.435	0.04
727.751	0.04
728.067	0.04
728.382	0.04
728.697	0.04
729.013	0.04
729.328	0.04
729.643	0.04
729.958	0.04
730.273	0.04
730.588	0.03
730.903	0.03
731.218	0.03
731.533	0.03
731.848	0.03
732.163	0.03
732.477	0.03
732.792	0.03
733.107	0.03
733.421	0.03
733.736	0.03
734.05	0.03
734.364	0.03
734.678	0.03
734.993	0.03
735.307	0.04
735.621	0.04
735.935	0.04
736.249	0.04
736.563	0.04
736.877	0.04
737.19	0.04
737.504	0.04
737.818	0.04
738.131	0.04
738.445	0.04
738.758	0.04
739.072	0.04
739.385	0.04
739.698	0.04
740.012	0.04
740.325	0.03
740.638	0.03
740.951	0.04
741.264	0.04
741.577	0.04
741.89	0.04
742.203	0.03
742.515	0.03
742.828	0.03
743.141	0.04
743.453	0.04
743.766	0.04
744.078	0.04
744.391	0.04
744.703	0.04
745.015	0.03
745.327	0.03
745.639	0.03
745.952	0.03
746.264	0.03
746.575	0.03
746.887	0.03
747.199	0.03
747.511	0.03
747.823	0.03
748.134	0.03
748.446	0.03
748.757	0.03
749.069	0.03
749.38	0.03
749.692	0.03
750.003	0.03
750.314	0.03
750.625	0.03
750.936	0.03
751.248	0.03
751.559	0.03
751.869	0.03
752.18	0.03
752.491	0.03
752.802	0.03
753.112	0.03
753.423	0.03
753.734	0.03
754.044	0.03
754.355	0.03
754.665	0.03
754.975	0.03
755.285	0.03
755.596	0.03
755.906	0.03
756.216	0.03
756.526	0.03
756.836	0.03
757.146	0.03
757.455	0.03
757.765	0.03
758.075	0.02
758.385	0.02
758.694	0.02
759.004	0.02
759.313	0.02
759.622	0.02
759.932	0.02
760.241	0.02
760.55	0.02
760.859	0.02
761.168	0.02
761.477	0.02
761.786	0.02
762.095	0.02
762.404	0.02
762.713	0.03
763.021	0.03
763.33	0.03
763.639	0.03
763.947	0.03
764.256	0.02
764.564	0.02
764.872	0.02
765.181	0.02
765.489	0.02
765.797	0.02
766.105	0.02
766.413	0.02
766.721	0.02
767.029	0.02
767.337	0.02
767.644	0.02
767.952	0.02
768.26	0.02
768.567	0.02
768.875	0.02
769.182	0.02
769.49	0.02
769.797	0.02
770.104	0.02
770.411	0.02
770.718	0.02
771.026	0.02
771.333	0.02
771.639	0.02
771.946	0.02
772.253	0.02
772.56	0.02
772.867	0.02
773.173	0.02
773.48	0.01
773.786	0.01
774.093	0.02
774.399	0.02
774.705	0.02
775.012	0.02
775.318	0.02
775.624	0.02
775.93	0.02
776.236	0.02
776.542	0.02
776.848	0.02
777.154	0.02
777.459	0.02
777.765	0.02
778.071	0.02
778.376	0.02
778.682	0.01
778.987	0.01
779.292	0.02
779.598	0.01
779.903	0.01
780.208	0.01
780.513	0.02
780.818	0.02
781.123	0.01
781.428	0.02
781.733	0.02
782.038	0.02
782.343	0.01
782.647	0.01
782.952	0.01
783.256	0.01
783.561	0.01
783.865	0.01
784.17	0.01
784.474	0.02
784.778	0.01
785.082	0.01
785.386	0.01
785.69	0.01
785.994	0.01
786.298	0.01
786.602	0.01
786.906	0.01
787.209	0.01
787.513	0
787.817	0.01
788.12	0.01
788.424	0.01
788.727	0.01
789.03	0.01
789.333	0.01
789.637	0
789.94	0.01
790.243	0.01
790.546	0.01
790.849	0.01
791.152	0.01
791.454	0.01
791.757	0.01
792.06	0.01
792.362	0
792.665	0
792.967	0
793.27	0
793.572	-0
793.874	-0
794.177	-0
794.479	-0
794.781	-0
795.083	-0
795.385	-0
795.687	0
795.989	0.01
796.29	0.01
796.592	0.01
796.894	0
797.195	0
797.497	0
797.798	-0
798.1	-0
798.401	-0
798.702	-0.01
799.003	-0.01
799.304	-0
799.605	-0.01
799.906	-0
800.207	-0.01
800.508	-0.01
800.809	-0.01
801.11	-0.01
801.41	-0
801.711	-0.01
802.011	-0.01
802.312	-0.01
802.612	-0
802.913	-0.01
803.213	-0.01
803.513	-0
803.813	-0
804.113	-0
804.413	-0
804.713	-0
805.013	-0
805.313	-0
805.613	0
805.912	-0
806.212	-0
806.511	-0
806.811	-0
807.11	-0
807.41	0
807.709	0
808.008	0
808.307	0
808.606	-0
808.905	-0
809.204	-0
809.503	-0.01
809.802	-0.01
810.101	-0
810.399	-0
810.698	-0.01
810.997	-0.01
811.295	-0.01
811.593	-0.01
811.892	-0.01
812.19	-0.01
812.488	-0.01
812.786	-0.01
813.084	-0.01
813.383	-0.01
813.68	-0.01
813.978	-0.01
814.276	-0.01
814.574	-0.01
814.872	-0.02
815.169	-0.01
815.467	-0.01
815.764	-0.01
816.062	-0.01
816.359	-0.02
816.656	-0.01
816.954	-0.02
817.251	-0.02
817.548	-0.02
817.845	-0.02
818.142	-0.02
818.439	-0.02
818.735	-0.02
819.032	-0.02
819.329	-0.01
819.626	-0.02
819.922	-0.02
820.219	-0.02
820.515	-0.02
820.811	-0.03
821.108	-0.03
821.404	-0.02
821.7	-0.03
821.996	-0.03
822.292	-0.03
822.588	-0.03
822.884	-0.03
823.18	-0.03
823.475	-0.03
823.771	-0.03
824.067	-0.03
824.362	-0.03
824.658	-0.03
824.953	-0.03
825.249	-0.03
825.544	-0.03
825.839	-0.03
826.134	-0.03
826.429	-0.03
826.724	-0.03
827.019	-0.04
827.314	-0.03
827.609	-0.03
827.904	-0.02
828.198	-0.04
828.493	-0.03
828.787	-0.03
829.082	-0.02
829.376	-0.02
829.671	-0.02
829.965	-0.02
830.259	-0.02
830.553	-0.03
830.847	-0.03
831.141	-0.03
831.435	-0.04
831.729	-0.04
832.023	-0.04
832.317	-0.04
832.61	-0.04
832.904	-0.04
833.197	-0.04
833.491	-0.04
833.784	-0.04
834.077	-0.04
834.371	-0.04
834.664	-0.03
834.957	-0.03
835.25	-0.04
835.543	-0.04
835.836	-0.04
836.129	-0.04
836.421	-0.04
836.714	-0.05
837.007	-0.04
837.299	-0.04
837.592	-0.04
837.884	-0.04
838.177	-0.05
838.469	-0.04
838.761	-0.04
839.053	-0.03
839.345	-0.02
839.637	-0.03
839.929	-0.03
840.221	-0.04
840.513	-0.04
840.805	-0.04
841.096	-0.04
841.388	-0.04
841.68	-0.03
841.971	-0.05
842.262	-0.03
842.554	-0.05
842.845	-0.05
843.136	-0.04
843.427	-0.03
843.718	-0.03
844.009	-0.03
844.3	-0.04
844.591	-0.03
844.882	-0.05
845.173	-0.04
845.463	-0.06
845.754	-0.06
846.044	-0.04
846.335	-0.05
846.625	-0.04
846.915	-0.05
847.206	-0.03
847.496	-0.04
847.786	-0.05
848.076	-0.05
848.366	-0.04
848.656	-0.04
848.945	-0.04
849.235	-0.05
849.525	-0.05
849.814	-0.04
850.104	-0.04
850.393	-0.03
850.683	-0.04
850.972	-0.04
851.261	-0.04
851.551	-0.04
851.84	-0.04
852.129	-0.04
852.418	-0.04
852.707	-0.04
852.995	-0.04
853.284	-0.03
853.573	-0.05
853.862	-0.02
854.15	-0.03
854.439	-0.05
854.727	-0.05
855.015	-0.04
855.304	-0.04
855.592	-0.04
855.88	-0.04
856.168	-0.05
856.456	-0.04
856.744	-0.04
857.032	-0.03
857.32	-0.04
857.607	-0.04
857.895	-0.06
858.183	-0.05
858.47	-0.06
858.757	-0.04
859.045	-0.05
859.332	-0.05
859.619	-0.05
859.907	-0.02
860.194	-0.04
860.481	-0.03
860.768	-0.05
861.054	-0.05
861.341	-0.04
861.628	-0.05
861.915	-0.03
862.201	-0.03
862.488	-0.07
862.774	-0.04
863.061	-0.05
863.347	-0.06
863.633	-0.06
863.919	-0.05
864.205	-0.05
864.491	-0.08
864.777	-0.07
865.063	-0.07
865.349	-0.06
865.635	-0.03
865.92	-0.02
866.206	-0.03
866.492	-0.05
866.777	-0.06
867.062	-0.02
867.348	-0.09
867.633	-0.05
867.918	-0.04
868.203	-0.04
868.488	-0.05
868.773	-0.05
869.058	-0.03
869.343	-0.05
869.628	-0.05
869.912	-0.1
870.197	-0.1
870.482	-0.05
870.766	-0.06
871.05	-0.06
871.335	-0.04
871.619	-0.06
871.903	-0.09
872.187	-0.04
872.471	-0.11
872.755	-0.08
873.039	-0.08
873.323	-0.09
873.607	-0.06
873.89	-0.15
874.174	-0.1
874.458	-0.1
874.741	-0.05
875.024	-0.04
875.308	-0.09
875.591	-0.04
875.874	-0.05
876.157	-0.09
876.44	-0.1
876.723	-0.15
877.006	-0.02
877.289	-0.06
877.572	-0.01
877.854	-0.07
878.137	-0.1
878.42	-0.06
878.702	-0.05
878.984	-0.08
879.267	-0.01
879.549	-0.1
879.831	-0.04
880.113	-0.12
880.395	0.02
880.677	-0.06
880.959	-0.03
