Data from Rubpy_EV_300_EDTA_Buffered_Absorbance_12-24-13-208.txt Node
Date: Tue Jun 30 12:24:13 BST 2026
User: fpm-admin
Spectrometer: OFX00224
Trigger mode: 0
Integration Time (sec): 7.000000E-2
Scans to average: 3
Nonlinearity correction enabled: false
Boxcar width: 0
Storing dark spectrum: false
XAxis mode: Wavelengths
Number of Pixels in Spectrum: 2136
>>>>>Begin Spectral Data<<<<<
154.91	0.7
155.289	-0
155.669	-0
156.048	-0.34
156.428	0.49
156.807	0.21
157.186	-0
157.566	0.41
157.945	-0
158.325	-0
158.704	-0
159.083	0.57
159.462	0.75
159.842	-0
160.221	-0.34
160.6	-0.28
160.979	-0
161.359	-0
161.738	-0
162.117	-0
162.496	-0
162.875	-0.59
163.254	-0
163.633	0.06
164.012	0.46
164.391	-0.04
164.77	-0
165.149	0.09
165.528	-0.16
165.907	-0
166.286	-0
166.665	0.39
167.044	-0
167.423	-0
167.802	-0
168.181	-0.19
168.559	0.76
168.938	-0
169.317	-0
169.696	0.06
170.074	-0
170.453	0.43
170.832	-0.09
171.21	-0.21
171.589	-0
171.968	-0
172.346	0.11
172.725	-0
173.103	0.75
173.482	-0
173.861	-0.18
174.239	-0
174.617	-0
174.996	-0.33
175.374	-1.43
175.753	-0.55
176.131	-0
176.51	0.1
176.888	-0
177.266	-0
177.645	0.08
178.023	0.09
178.401	-0.43
178.779	-0.13
179.158	-0.16
179.536	-0
179.914	0.14
180.292	-0.02
180.67	0.64
181.048	-0
181.427	0.75
181.805	-0
182.183	-0
182.561	0.04
182.939	-0.09
183.317	-0.09
183.695	-0
184.073	0.27
184.451	0.48
184.829	-0.12
185.206	-0.19
185.584	-0.85
185.962	-0
186.34	-0
186.718	-0
187.096	-0.18
187.473	-0
187.851	-0.02
188.229	-0.15
188.607	0.06
188.984	0.08
189.362	0.06
189.74	0.11
190.117	0.05
190.495	0.1
190.872	0.08
191.25	0.03
191.627	0.08
192.005	0.03
192.382	0.01
192.76	0.13
193.137	0.08
193.515	0.05
193.892	0.09
194.269	0.09
194.647	0.04
195.024	-0.02
195.401	0.07
195.779	0.12
196.156	0.21
196.533	0.02
196.91	0.14
197.288	0.05
197.665	0.07
198.042	0.11
198.419	0.05
198.796	0.04
199.173	0.09
199.55	0.13
199.927	0.08
200.304	-0.09
200.681	0.17
201.058	0.05
201.435	0.11
201.812	0.05
202.189	0.12
202.566	0.02
202.943	0.15
203.32	0.09
203.697	0.13
204.073	0.06
204.45	0.1
204.827	0.1
205.204	0.03
205.58	0.09
205.957	0.01
206.334	0.04
206.71	0.15
207.087	0.01
207.464	0.11
207.84	0.03
208.217	0.09
208.593	-0.02
208.97	0.12
209.346	0.04
209.723	0.12
210.099	0.12
210.476	0.11
210.852	0.14
211.228	0.17
211.605	0.07
211.981	0.12
212.357	0.06
212.733	0.1
213.11	0.15
213.486	0.05
213.862	0.1
214.238	0.08
214.614	0.05
214.991	0.06
215.367	-0.02
215.743	0.09
216.119	0.11
216.495	0.06
216.871	0.15
217.247	0.08
217.623	0.1
217.999	0.17
218.375	0.02
218.751	0.08
219.127	0.05
219.502	0.16
219.878	0.14
220.254	0.03
220.63	0.12
221.006	0.08
221.381	0.07
221.757	0.04
222.133	0.19
222.508	0.08
222.884	0.12
223.26	0.04
223.635	0.11
224.011	0.12
224.386	0.11
224.762	0.06
225.137	0.03
225.513	0.08
225.888	0.08
226.264	0.19
226.639	0.13
227.014	0.16
227.39	0.13
227.765	0.06
228.14	0.05
228.516	0.02
228.891	0.13
229.266	0.13
229.641	0.12
230.017	0.05
230.392	0.07
230.767	0.14
231.142	0.07
231.517	-0
231.892	0.16
232.267	0.14
232.642	0.06
233.017	0.14
233.392	0.08
233.767	0.06
234.142	0.05
234.517	0.09
234.892	-0.04
235.267	0.06
235.641	0.11
236.016	0.09
236.391	0.07
236.766	0.27
237.14	0.14
237.515	0.11
237.89	0.15
238.264	0.09
238.639	0.05
239.014	0.05
239.388	0.07
239.763	0.11
240.137	-0.01
240.512	0.01
240.886	0.05
241.261	0.09
241.635	0.09
242.009	0.12
242.384	0.08
242.758	0.01
243.132	0.17
243.507	0.16
243.881	0.11
244.255	0.11
244.629	0.1
245.004	0.14
245.378	0.06
245.752	0.1
246.126	0.1
246.5	0.13
246.874	0.14
247.248	0.1
247.622	0.1
247.996	0.11
248.37	0.13
248.744	0.02
249.118	0.09
249.492	0.22
249.866	0.09
250.24	0.07
250.613	0.08
250.987	0.03
251.361	0.01
251.735	0.12
252.108	0.14
252.482	0.12
252.856	0.07
253.229	0.08
253.603	0.04
253.977	0.11
254.35	-0
254.724	0.1
255.097	0.09
255.471	0.14
255.844	0.09
256.218	0.07
256.591	0.04
256.964	0.17
257.338	0.15
257.711	0.01
258.084	0.1
258.458	0.11
258.831	-0
259.204	0.06
259.577	0.09
259.95	0.05
260.323	0.11
260.697	0.11
261.07	0.04
261.443	-0.01
261.816	0.09
262.189	-0
262.562	0.08
262.935	0.02
263.308	-0.04
263.68	0.04
264.053	0.09
264.426	0.02
264.799	-0.01
265.172	0.02
265.545	0.05
265.917	0.06
266.29	0.11
266.663	0.01
267.035	0.04
267.408	0.08
267.781	0.02
268.153	0.05
268.526	0.02
268.898	0.07
269.271	0.07
269.643	0
270.016	0.05
270.388	0.02
270.76	0.06
271.133	0.04
271.505	0.05
271.877	0.02
272.25	0.08
272.622	0.12
272.994	0.08
273.366	0.09
273.739	0.15
274.111	0.14
274.483	0.09
274.855	0.02
275.227	0.14
275.599	0.1
275.971	0.08
276.343	0.09
276.715	0.08
277.087	0.11
277.459	0.13
277.831	0.15
278.203	0.12
278.574	0.1
278.946	0.09
279.318	0.13
279.69	0.1
280.061	0.1
280.433	0.15
280.805	0.1
281.176	0.04
281.548	0.1
281.92	0.07
282.291	0.08
282.663	0.06
283.034	0.1
283.406	0.09
283.777	0.05
284.148	0.05
284.52	0.02
284.891	0.15
285.262	0.08
285.634	0.1
286.005	0.09
286.376	0.13
286.747	0.14
287.119	0.12
287.49	0.08
287.861	0.11
288.232	0.09
288.603	0.12
288.974	0.08
289.345	0.1
289.716	0.06
290.087	0.08
290.458	0.03
290.829	0.04
291.2	0.06
291.571	0.1
291.941	0.11
292.312	0.16
292.683	0.1
293.054	0.09
293.424	0.14
293.795	0.09
294.166	0.09
294.536	0.1
294.907	0.09
295.277	0.11
295.648	0.08
296.018	0.11
296.389	0.09
296.759	0.04
297.13	0.11
297.5	0.09
297.871	0.11
298.241	0.08
298.611	0.09
298.981	0.09
299.352	0.08
299.722	0.11
300.092	0.09
300.462	0.04
300.832	0.08
301.202	0.08
301.573	0.08
301.943	0.07
302.313	0.09
302.683	0.07
303.053	0.07
303.422	0.09
303.792	0.09
304.162	0.08
304.532	0.08
304.902	0.08
305.272	0.07
305.641	0.09
306.011	0.08
306.381	0.1
306.75	0.09
307.12	0.1
307.49	0.09
307.859	0.09
308.229	0.09
308.598	0.09
308.968	0.09
309.337	0.08
309.707	0.09
310.076	0.1
310.445	0.1
310.815	0.1
311.184	0.1
311.553	0.09
311.923	0.1
312.292	0.1
312.661	0.1
313.03	0.1
313.399	0.1
313.768	0.1
314.137	0.1
314.506	0.1
314.875	0.1
315.244	0.1
315.613	0.1
315.982	0.1
316.351	0.1
316.72	0.1
317.089	0.1
317.458	0.1
317.826	0.09
318.195	0.1
318.564	0.09
318.933	0.1
319.301	0.09
319.67	0.09
320.038	0.1
320.407	0.09
320.775	0.09
321.144	0.09
321.512	0.09
321.881	0.09
322.249	0.09
322.618	0.09
322.986	0.09
323.354	0.08
323.723	0.09
324.091	0.08
324.459	0.09
324.827	0.08
325.195	0.08
325.564	0.08
325.932	0.08
326.3	0.08
326.668	0.08
327.036	0.08
327.404	0.08
327.772	0.08
328.14	0.09
328.508	0.08
328.875	0.08
329.243	0.08
329.611	0.09
329.979	0.08
330.346	0.08
330.714	0.08
331.082	0.08
331.449	0.08
331.817	0.08
332.185	0.09
332.552	0.09
332.92	0.09
333.287	0.08
333.655	0.09
334.022	0.09
334.389	0.09
334.757	0.09
335.124	0.09
335.491	0.08
335.859	0.09
336.226	0.09
336.593	0.09
336.96	0.09
337.327	0.1
337.695	0.1
338.062	0.09
338.429	0.1
338.796	0.1
339.163	0.1
339.53	0.1
339.897	0.1
340.263	0.1
340.63	0.1
340.997	0.11
341.364	0.11
341.731	0.11
342.097	0.11
342.464	0.11
342.831	0.11
343.197	0.11
343.564	0.11
343.931	0.11
344.297	0.12
344.664	0.12
345.03	0.12
345.396	0.12
345.763	0.13
346.129	0.13
346.496	0.13
346.862	0.13
347.228	0.13
347.594	0.14
347.961	0.13
348.327	0.13
348.693	0.14
349.059	0.14
349.425	0.14
349.791	0.14
350.157	0.14
350.523	0.15
350.889	0.15
351.255	0.15
351.621	0.16
351.987	0.16
352.353	0.16
352.719	0.17
353.084	0.17
353.45	0.17
353.816	0.18
354.181	0.18
354.547	0.18
354.913	0.18
355.278	0.19
355.644	0.19
356.009	0.19
356.375	0.2
356.74	0.2
357.106	0.21
357.471	0.21
357.836	0.21
358.202	0.22
358.567	0.22
358.932	0.23
359.297	0.23
359.663	0.24
360.028	0.24
360.393	0.24
360.758	0.24
361.123	0.25
361.488	0.25
361.853	0.25
362.218	0.25
362.583	0.26
362.948	0.26
363.312	0.26
363.677	0.27
364.042	0.27
364.407	0.28
364.772	0.28
365.136	0.29
365.501	0.29
365.865	0.3
366.23	0.3
366.595	0.31
366.959	0.32
367.324	0.33
367.688	0.33
368.052	0.34
368.417	0.34
368.781	0.34
369.145	0.35
369.51	0.35
369.874	0.35
370.238	0.35
370.602	0.35
370.967	0.35
371.331	0.35
371.695	0.35
372.059	0.35
372.423	0.35
372.787	0.35
373.151	0.35
373.515	0.34
373.878	0.34
374.242	0.35
374.606	0.35
374.97	0.34
375.334	0.35
375.697	0.35
376.061	0.35
376.425	0.35
376.788	0.36
377.152	0.36
377.515	0.36
377.879	0.37
378.242	0.37
378.606	0.38
378.969	0.38
379.333	0.38
379.696	0.39
380.059	0.39
380.422	0.4
380.786	0.4
381.149	0.42
381.512	0.43
381.875	0.43
382.238	0.45
382.601	0.46
382.964	0.46
383.327	0.48
383.69	0.49
384.053	0.5
384.416	0.52
384.779	0.53
385.142	0.54
385.504	0.55
385.867	0.56
386.23	0.56
386.593	0.57
386.955	0.57
387.318	0.57
387.68	0.57
388.043	0.57
388.405	0.56
388.768	0.56
389.13	0.55
389.493	0.55
389.855	0.55
390.217	0.55
390.58	0.54
390.942	0.54
391.304	0.55
391.666	0.55
392.028	0.56
392.391	0.58
392.753	0.6
393.115	0.61
393.477	0.63
393.839	0.65
394.201	0.68
394.563	0.71
394.924	0.74
395.286	0.76
395.648	0.79
396.01	0.81
396.371	0.83
396.733	0.85
397.095	0.87
397.456	0.88
397.818	0.88
398.18	0.86
398.541	0.86
398.903	0.85
399.264	0.82
399.625	0.8
399.987	0.76
400.348	0.73
400.709	0.7
401.071	0.66
401.432	0.62
401.793	0.58
402.154	0.55
402.515	0.52
402.876	0.47
403.238	0.44
403.599	0.41
403.96	0.39
404.32	0.36
404.681	0.34
405.042	0.31
405.403	0.29
405.764	0.27
406.125	0.26
406.485	0.24
406.846	0.23
407.207	0.21
407.567	0.2
407.928	0.19
408.288	0.18
408.649	0.17
409.009	0.16
409.37	0.15
409.73	0.14
410.091	0.14
410.451	0.14
410.811	0.13
411.171	0.12
411.532	0.12
411.892	0.12
412.252	0.11
412.612	0.11
412.972	0.11
413.332	0.11
413.692	0.1
414.052	0.09
414.412	0.1
414.772	0.09
415.132	0.09
415.492	0.09
415.851	0.09
416.211	0.09
416.571	0.08
416.931	0.08
417.29	0.08
417.65	0.08
418.009	0.08
418.369	0.08
418.728	0.07
419.088	0.07
419.447	0.07
419.807	0.07
420.166	0.07
420.525	0.07
420.884	0.07
421.244	0.06
421.603	0.07
421.962	0.07
422.321	0.07
422.68	0.06
423.039	0.05
423.398	0.06
423.757	0.07
424.116	0.06
424.475	0.06
424.834	0.06
425.193	0.06
425.551	0.05
425.91	0.06
426.269	0.06
426.628	0.06
426.986	0.06
427.345	0.05
427.703	0.06
428.062	0.06
428.42	0.05
428.779	0.06
429.137	0.06
429.496	0.05
429.854	0.05
430.212	0.05
430.57	0.05
430.929	0.05
431.287	0.05
431.645	0.05
432.003	0.05
432.361	0.05
432.719	0.05
433.077	0.05
433.435	0.05
433.793	0.05
434.151	0.05
434.509	0.06
434.866	0.05
435.224	0.05
435.582	0.05
435.94	0.05
436.297	0.05
436.655	0.05
437.012	0.05
437.37	0.04
437.727	0.05
438.085	0.05
438.442	0.05
438.8	0.04
439.157	0.05
439.514	0.04
439.872	0.05
440.229	0.04
440.586	0.04
440.943	0.04
441.3	0.04
441.657	0.04
442.014	0.04
442.371	0.05
442.728	0.04
443.085	0.05
443.442	0.04
443.799	0.04
444.156	0.04
444.513	0.04
444.869	0.04
445.226	0.04
445.583	0.04
445.939	0.04
446.296	0.04
446.652	0.04
447.009	0.05
447.365	0.04
447.722	0.04
448.078	0.04
448.434	0.03
448.791	0.04
449.147	0.03
449.503	0.03
449.859	0.03
450.215	0.04
450.571	0.04
450.928	0.04
451.284	0.04
451.64	0.03
451.995	0.03
452.351	0.03
452.707	0.03
453.063	0.03
453.419	0.04
453.775	0.03
454.13	0.03
454.486	0.03
454.842	0.03
455.197	0.03
455.553	0.03
455.908	0.03
456.264	0.03
456.619	0.03
456.975	0.02
457.33	0.03
457.685	0.04
458.04	0.02
458.396	0.02
458.751	0.03
459.106	0.03
459.461	0.02
459.816	0.02
460.171	0.02
460.526	0.02
460.881	0.02
461.236	0.02
461.591	0.01
461.946	0.02
462.301	0.02
462.655	0.02
463.01	0.01
463.365	0.01
463.719	0.01
464.074	0.01
464.428	0.01
464.783	0
465.137	0.01
465.492	0.01
465.846	0.02
466.201	0.01
466.555	0.01
466.909	0.01
467.263	0.01
467.618	0.01
467.972	0.01
468.326	0.01
468.68	0.01
469.034	0.01
469.388	0.01
469.742	0.01
470.096	0
470.45	0.01
470.804	0.01
471.157	0
471.511	0.01
471.865	0.01
472.218	0.01
472.572	0.01
472.926	0.01
473.279	0.01
473.633	0.01
473.986	0.01
474.34	0.01
474.693	0.01
475.046	0.02
475.4	0.02
475.753	0.02
476.106	0.02
476.459	0.02
476.812	0.03
477.165	0.03
477.519	0.02
477.872	0.03
478.224	0.03
478.577	0.03
478.93	0.03
479.283	0.03
479.636	0.03
479.989	0.04
480.341	0.04
480.694	0.03
481.047	0.03
481.399	0.04
481.752	0.03
482.104	0.04
482.457	0.04
482.809	0.04
483.162	0.05
483.514	0.04
483.866	0.04
484.219	0.04
484.571	0.04
484.923	0.04
485.275	0.04
485.627	0.04
485.979	0.05
486.331	0.05
486.683	0.04
487.035	0.04
487.387	0.05
487.739	0.05
488.091	0.05
488.443	0.05
488.794	0.06
489.146	0.05
489.498	0.05
489.849	0.05
490.201	0.05
490.552	0.05
490.904	0.05
491.255	0.06
491.607	0.05
491.958	0.05
492.309	0.05
492.661	0.05
493.012	0.05
493.363	0.06
493.714	0.06
494.065	0.06
494.416	0.05
494.767	0.06
495.118	0.05
495.469	0.06
495.82	0.06
496.171	0.06
496.522	0.05
496.872	0.06
497.223	0.06
497.574	0.06
497.924	0.07
498.275	0.07
498.626	0.07
498.976	0.07
499.327	0.07
499.677	0.07
500.027	0.07
500.378	0.07
500.728	0.07
501.078	0.07
501.428	0.07
501.779	0.07
502.129	0.07
502.479	0.07
502.829	0.07
503.179	0.07
503.529	0.07
503.879	0.08
504.229	0.07
504.578	0.07
504.928	0.08
505.278	0.08
505.628	0.08
505.977	0.08
506.327	0.08
506.676	0.08
507.026	0.08
507.375	0.08
507.725	0.08
508.074	0.08
508.424	0.08
508.773	0.08
509.122	0.08
509.471	0.08
509.82	0.09
510.17	0.08
510.519	0.09
510.868	0.09
511.217	0.09
511.566	0.09
511.915	0.09
512.263	0.09
512.612	0.09
512.961	0.09
513.31	0.09
513.659	0.1
514.007	0.09
514.356	0.09
514.704	0.09
515.053	0.1
515.401	0.09
515.75	0.1
516.098	0.1
516.447	0.1
516.795	0.1
517.143	0.1
517.491	0.1
517.839	0.1
518.188	0.11
518.536	0.11
518.884	0.11
519.232	0.11
519.58	0.1
519.928	0.1
520.275	0.1
520.623	0.11
520.971	0.11
521.319	0.11
521.666	0.11
522.014	0.11
522.362	0.11
522.709	0.11
523.057	0.11
523.404	0.11
523.752	0.12
524.099	0.11
524.446	0.12
524.794	0.11
525.141	0.12
525.488	0.12
525.835	0.11
526.182	0.12
526.529	0.12
526.876	0.12
527.223	0.12
527.57	0.12
527.917	0.12
528.264	0.12
528.611	0.12
528.958	0.12
529.304	0.12
529.651	0.12
529.998	0.12
530.344	0.13
530.691	0.13
531.037	0.13
531.384	0.13
531.73	0.13
532.076	0.13
532.423	0.13
532.769	0.13
533.115	0.14
533.461	0.14
533.807	0.14
534.154	0.14
534.5	0.14
534.846	0.14
535.192	0.14
535.537	0.14
535.883	0.14
536.229	0.14
536.575	0.14
536.921	0.15
537.266	0.15
537.612	0.15
537.957	0.15
538.303	0.15
538.649	0.15
538.994	0.15
539.339	0.15
539.685	0.15
540.03	0.16
540.375	0.16
540.721	0.16
541.066	0.15
541.411	0.16
541.756	0.16
542.101	0.16
542.446	0.16
542.791	0.16
543.136	0.16
543.481	0.16
543.825	0.17
544.17	0.17
544.515	0.17
544.86	0.17
545.204	0.17
545.549	0.17
545.893	0.17
546.238	0.17
546.582	0.17
546.927	0.17
547.271	0.17
547.615	0.18
547.96	0.18
548.304	0.18
548.648	0.18
548.992	0.18
549.336	0.18
549.68	0.18
550.024	0.19
550.368	0.18
550.712	0.18
551.056	0.19
551.4	0.19
551.743	0.19
552.087	0.19
552.431	0.19
552.774	0.19
553.118	0.19
553.462	0.19
553.805	0.19
554.148	0.19
554.492	0.19
554.835	0.2
555.178	0.19
555.522	0.2
555.865	0.2
556.208	0.2
556.551	0.2
556.894	0.2
557.237	0.2
557.58	0.2
557.923	0.2
558.266	0.2
558.609	0.2
558.952	0.2
559.294	0.2
559.637	0.2
559.98	0.2
560.322	0.2
560.665	0.2
561.007	0.2
561.35	0.21
561.692	0.21
562.034	0.21
562.377	0.21
562.719	0.21
563.061	0.21
563.403	0.21
563.745	0.21
564.088	0.21
564.43	0.2
564.772	0.21
565.113	0.21
565.455	0.21
565.797	0.21
566.139	0.2
566.481	0.21
566.822	0.21
567.164	0.21
567.506	0.21
567.847	0.21
568.189	0.21
568.53	0.21
568.872	0.21
569.213	0.21
569.554	0.22
569.895	0.22
570.237	0.22
570.578	0.21
570.919	0.22
571.26	0.22
571.601	0.22
571.942	0.22
572.283	0.22
572.624	0.22
572.965	0.22
573.306	0.22
573.646	0.22
573.987	0.22
574.328	0.21
574.668	0.22
575.009	0.22
575.349	0.22
575.69	0.21
576.03	0.22
576.37	0.21
576.711	0.21
577.051	0.21
577.391	0.21
577.731	0.22
578.072	0.21
578.412	0.22
578.752	0.22
579.092	0.22
579.431	0.21
579.771	0.21
580.111	0.2
580.451	0.2
580.791	0.21
581.13	0.21
581.47	0.22
581.81	0.22
582.149	0.22
582.489	0.22
582.828	0.22
583.167	0.21
583.507	0.18
583.846	0.16
584.185	0.17
584.525	0.2
584.864	0.21
585.203	0.22
585.542	0.22
585.881	0.23
586.22	0.23
586.559	0.22
586.898	0.22
587.236	0.22
587.575	0.21
587.914	0.22
588.252	0.22
588.591	0.23
588.93	0.23
589.268	0.23
589.607	0.23
589.945	0.23
590.283	0.23
590.622	0.23
590.96	0.24
591.298	0.24
591.636	0.24
591.974	0.24
592.313	0.24
592.651	0.24
592.989	0.24
593.326	0.24
593.664	0.25
594.002	0.25
594.34	0.25
594.678	0.25
595.015	0.24
595.353	0.24
595.691	0.24
596.028	0.25
596.366	0.25
596.703	0.26
597.04	0.26
597.378	0.26
597.715	0.26
598.052	0.26
598.389	0.26
598.726	0.26
599.064	0.26
599.401	0.26
599.738	0.26
600.074	0.26
600.411	0.26
600.748	0.26
601.085	0.26
601.422	0.26
601.758	0.26
602.095	0.26
602.432	0.26
602.768	0.26
603.105	0.26
603.441	0.27
603.777	0.27
604.114	0.27
604.45	0.26
604.786	0.27
605.122	0.27
605.459	0.26
605.795	0.26
606.131	0.27
606.467	0.26
606.803	0.27
607.139	0.26
607.474	0.26
607.81	0.26
608.146	0.26
608.482	0.26
608.817	0.26
609.153	0.27
609.488	0.26
609.824	0.26
610.159	0.26
610.495	0.26
610.83	0.26
611.165	0.26
611.5	0.26
611.836	0.26
612.171	0.26
612.506	0.26
612.841	0.26
613.176	0.25
613.511	0.26
613.845	0.26
614.18	0.25
614.515	0.26
614.85	0.25
615.184	0.25
615.519	0.25
615.854	0.26
616.188	0.25
616.523	0.25
616.857	0.25
617.191	0.25
617.526	0.25
617.86	0.25
618.194	0.24
618.528	0.24
618.862	0.24
619.196	0.24
619.53	0.24
619.864	0.24
620.198	0.24
620.532	0.24
620.866	0.24
621.2	0.24
621.533	0.24
621.867	0.24
622.201	0.24
622.534	0.24
622.868	0.24
623.201	0.24
623.534	0.24
623.868	0.24
624.201	0.23
624.534	0.23
624.868	0.23
625.201	0.23
625.534	0.23
625.867	0.23
626.2	0.23
626.533	0.23
626.865	0.23
627.198	0.22
627.531	0.23
627.864	0.22
628.196	0.22
628.529	0.22
628.862	0.22
629.194	0.22
629.527	0.22
629.859	0.22
630.191	0.22
630.524	0.21
630.856	0.21
631.188	0.21
631.52	0.21
631.852	0.21
632.184	0.21
632.516	0.21
632.848	0.2
633.18	0.2
633.512	0.2
633.844	0.2
634.175	0.2
634.507	0.19
634.839	0.19
635.17	0.2
635.502	0.19
635.833	0.19
636.165	0.19
636.496	0.19
636.827	0.19
637.159	0.19
637.49	0.18
637.821	0.18
638.152	0.18
638.483	0.18
638.814	0.18
639.145	0.18
639.476	0.17
639.807	0.17
640.137	0.17
640.468	0.17
640.799	0.17
641.129	0.16
641.46	0.16
641.791	0.16
642.121	0.16
642.451	0.16
642.782	0.16
643.112	0.16
643.442	0.16
643.773	0.16
644.103	0.15
644.433	0.15
644.763	0.15
645.093	0.15
645.423	0.15
645.753	0.15
646.082	0.15
646.412	0.15
646.742	0.15
647.072	0.15
647.401	0.15
647.731	0.15
648.06	0.15
648.39	0.15
648.719	0.15
649.048	0.15
649.378	0.14
649.707	0.14
650.036	0.14
650.365	0.14
650.694	0.14
651.023	0.14
651.352	0.14
651.681	0.14
652.01	0.14
652.339	0.14
652.668	0.14
652.996	0.14
653.325	0.14
653.654	0.14
653.982	0.14
654.311	0.14
654.639	0.14
654.967	0.14
655.296	0.14
655.624	0.14
655.952	0.15
656.28	0.14
656.609	0.14
656.937	0.14
657.265	0.15
657.593	0.14
657.92	0.01
658.248	-0
658.576	-0
658.904	0.01
659.231	0.1
659.559	0.14
659.887	0.14
660.214	0.14
660.542	0.14
660.869	0.14
661.196	0.14
661.524	0.14
661.851	0.14
662.178	0.14
662.505	0.14
662.832	0.14
663.159	0.14
663.486	0.14
663.813	0.14
664.14	0.14
664.467	0.13
664.794	0.14
665.12	0.14
665.447	0.13
665.774	0.14
666.1	0.14
666.427	0.14
666.753	0.13
667.079	0.13
667.406	0.13
667.732	0.13
668.058	0.13
668.384	0.13
668.71	0.13
669.036	0.13
669.362	0.12
669.688	0.13
670.014	0.13
670.34	0.12
670.666	0.12
670.991	0.13
671.317	0.13
671.643	0.13
671.968	0.12
672.294	0.13
672.619	0.12
672.945	0.12
673.27	0.13
673.595	0.12
673.92	0.12
674.246	0.12
674.571	0.12
674.896	0.12
675.221	0.12
675.546	0.12
675.87	0.12
676.195	0.11
676.52	0.12
676.845	0.11
677.169	0.11
677.494	0.11
677.819	0.11
678.143	0.11
678.468	0.11
678.792	0.11
679.116	0.11
679.44	0.1
679.765	0.1
680.089	0.1
680.413	0.1
680.737	0.1
681.061	0.1
681.385	0.1
681.709	0.1
682.033	0.1
682.356	0.1
682.68	0.1
683.004	0.1
683.327	0.1
683.651	0.09
683.974	0.09
684.298	0.09
684.621	0.09
684.944	0.09
685.268	0.09
685.591	0.09
685.914	0.09
686.237	0.09
686.56	0.09
686.883	0.08
687.206	0.08
687.529	0.08
687.852	0.08
688.175	0.08
688.497	0.08
688.82	0.08
689.142	0.08
689.465	0.08
689.787	0.08
690.11	0.08
690.432	0.08
690.755	0.07
691.077	0.07
691.399	0.07
691.721	0.07
692.043	0.07
692.365	0.07
692.687	0.07
693.009	0.06
693.331	0.07
693.653	0.07
693.974	0.07
694.296	0.07
694.618	0.07
694.939	0.07
695.261	0.07
695.582	0.07
695.904	0.06
696.225	0.06
696.546	0.06
696.868	0.06
697.189	0.06
697.51	0.06
697.831	0.06
698.152	0.06
698.473	0.06
698.794	0.06
699.114	0.06
699.435	0.06
699.756	0.06
700.077	0.06
700.397	0.06
700.718	0.05
701.038	0.05
701.359	0.05
701.679	0.05
701.999	0.05
702.32	0.05
702.64	0.05
702.96	0.05
703.28	0.05
703.6	0.05
703.92	0.05
704.24	0.05
704.56	0.05
704.879	0.05
705.199	0.05
705.519	0.05
705.838	0.05
706.158	0.05
706.478	0.05
706.797	0.06
707.116	0.06
707.436	0.06
707.755	0.05
708.074	0.05
708.393	0.05
708.712	0.06
709.031	0.05
709.35	0.06
709.669	0.05
709.988	0.05
710.307	0.05
710.626	0.05
710.944	0.05
711.263	0.05
711.582	0.05
711.9	0.05
712.219	0.05
712.537	0.05
712.855	0.05
713.174	0.05
713.492	0.05
713.81	0.05
714.128	0.05
714.446	0.05
714.764	0.05
715.082	0.05
715.4	0.05
715.718	0.05
716.035	0.05
716.353	0.05
716.671	0.05
716.988	0.05
717.306	0.05
717.623	0.05
717.941	0.05
718.258	0.05
718.575	0.05
718.893	0.05
719.21	0.05
719.527	0.05
719.844	0.05
720.161	0.05
720.478	0.05
720.795	0.05
721.112	0.06
721.428	0.06
721.745	0.06
722.062	0.06
722.378	0.06
722.695	0.06
723.011	0.06
723.328	0.06
723.644	0.06
723.96	0.06
724.276	0.06
724.593	0.06
724.909	0.06
725.225	0.06
725.541	0.06
725.857	0.06
726.173	0.06
726.488	0.06
726.804	0.06
727.12	0.06
727.435	0.06
727.751	0.06
728.067	0.06
728.382	0.06
728.697	0.06
729.013	0.06
729.328	0.06
729.643	0.06
729.958	0.06
730.273	0.06
730.588	0.06
730.903	0.06
731.218	0.06
731.533	0.06
731.848	0.06
732.163	0.06
732.477	0.06
732.792	0.06
733.107	0.05
733.421	0.05
733.736	0.05
734.05	0.05
734.364	0.05
734.678	0.05
734.993	0.05
735.307	0.05
735.621	0.06
735.935	0.06
736.249	0.06
736.563	0.06
736.877	0.06
737.19	0.06
737.504	0.06
737.818	0.06
738.131	0.06
738.445	0.06
738.758	0.06
739.072	0.06
739.385	0.06
739.698	0.06
740.012	0.06
740.325	0.05
740.638	0.05
740.951	0.06
741.264	0.06
741.577	0.05
741.89	0.05
742.203	0.05
742.515	0.05
742.828	0.05
743.141	0.05
743.453	0.05
743.766	0.05
744.078	0.05
744.391	0.05
744.703	0.05
745.015	0.04
745.327	0.05
745.639	0.05
745.952	0.04
746.264	0.04
746.575	0.04
746.887	0.04
747.199	0.04
747.511	0.04
747.823	0.04
748.134	0.04
748.446	0.04
748.757	0.04
749.069	0.04
749.38	0.04
749.692	0.04
750.003	0.04
750.314	0.04
750.625	0.04
750.936	0.04
751.248	0.04
751.559	0.04
751.869	0.04
752.18	0.04
752.491	0.04
752.802	0.04
753.112	0.04
753.423	0.04
753.734	0.04
754.044	0.04
754.355	0.04
754.665	0.04
754.975	0.03
755.285	0.03
755.596	0.04
755.906	0.04
756.216	0.04
756.526	0.04
756.836	0.04
757.146	0.03
757.455	0.03
757.765	0.03
758.075	0.03
758.385	0.03
758.694	0.03
759.004	0.03
759.313	0.02
759.622	0.02
759.932	0.02
760.241	0.02
760.55	0.03
760.859	0.02
761.168	0.03
761.477	0.03
761.786	0.03
762.095	0.03
762.404	0.03
762.713	0.03
763.021	0.03
763.33	0.03
763.639	0.03
763.947	0.03
764.256	0.03
764.564	0.02
764.872	0.02
765.181	0.02
765.489	0.02
765.797	0.02
766.105	0.02
766.413	0.02
766.721	0.02
767.029	0.02
767.337	0.02
767.644	0.02
767.952	0.02
768.26	0.02
768.567	0.02
768.875	0.02
769.182	0.02
769.49	0.02
769.797	0.02
770.104	0.02
770.411	0.02
770.718	0.02
771.026	0.02
771.333	0.02
771.639	0.02
771.946	0.02
772.253	0.02
772.56	0.02
772.867	0.02
773.173	0.01
773.48	0.01
773.786	0.01
774.093	0.01
774.399	0.01
774.705	0.02
775.012	0.01
775.318	0.02
775.624	0.02
775.93	0.02
776.236	0.02
776.542	0.02
776.848	0.02
777.154	0.02
777.459	0.02
777.765	0.02
778.071	0.01
778.376	0.01
778.682	0.01
778.987	0.01
779.292	0.01
779.598	0.01
779.903	0.01
780.208	0.01
780.513	0.01
780.818	0.01
781.123	0.01
781.428	0.01
781.733	0.01
782.038	0.01
782.343	0.01
782.647	0.01
782.952	0.01
783.256	0.01
783.561	0.01
783.865	0.01
784.17	0.01
784.474	0.01
784.778	0.01
785.082	0.01
785.386	0.01
785.69	0.01
785.994	0
786.298	0
786.602	0
786.906	0
787.209	-0
787.513	-0
787.817	-0
788.12	-0
788.424	0
788.727	0
789.03	0
789.333	-0
789.637	0
789.94	0
790.243	0.01
790.546	0.01
790.849	0.01
791.152	0
791.454	0.01
791.757	0.01
792.06	0
792.362	0
792.665	0
792.967	-0
793.27	-0
793.572	-0
793.874	-0
794.177	-0
794.479	-0.01
794.781	-0
795.083	-0
795.385	-0
795.687	-0
795.989	0
796.29	0.01
796.592	0.01
796.894	0
797.195	-0
797.497	-0
797.798	-0
798.1	-0
798.401	-0.01
798.702	-0.01
799.003	-0.01
799.304	-0.01
799.605	-0.01
799.906	-0.01
800.207	-0.01
800.508	-0.01
800.809	-0.01
801.11	-0.01
801.41	-0.01
801.711	-0.01
802.011	-0.01
802.312	-0.01
802.612	-0.01
802.913	-0.01
803.213	-0.01
803.513	-0.01
803.813	-0.01
804.113	-0.01
804.413	-0
804.713	-0
805.013	-0.01
805.313	-0.01
805.613	-0
805.912	-0.01
806.212	-0
806.511	-0.01
806.811	-0
807.11	-0
807.41	-0
807.709	-0
808.008	-0
808.307	-0
808.606	-0.01
808.905	-0.01
809.204	-0.01
809.503	-0.01
809.802	-0.01
810.101	-0
810.399	-0.01
810.698	-0.01
810.997	-0.01
811.295	-0.01
811.593	-0.02
811.892	-0.02
812.19	-0.02
812.488	-0.02
812.786	-0.01
813.084	-0.01
813.383	-0.01
813.68	-0.01
813.978	-0.01
814.276	-0.02
814.574	-0.01
814.872	-0.01
815.169	-0.01
815.467	-0.01
815.764	-0.01
816.062	-0.02
816.359	-0.02
816.656	-0.02
816.954	-0.02
817.251	-0.02
817.548	-0.02
817.845	-0.02
818.142	-0.02
818.439	-0.01
818.735	-0.02
819.032	-0.01
819.329	-0.02
819.626	-0.02
819.922	-0.02
820.219	-0.02
820.515	-0.02
820.811	-0.03
821.108	-0.02
821.404	-0.02
821.7	-0.03
821.996	-0.03
822.292	-0.03
822.588	-0.03
822.884	-0.03
823.18	-0.03
823.475	-0.03
823.771	-0.03
824.067	-0.03
824.362	-0.03
824.658	-0.03
824.953	-0.03
825.249	-0.03
825.544	-0.02
825.839	-0.02
826.134	-0.03
826.429	-0.03
826.724	-0.03
827.019	-0.03
827.314	-0.03
827.609	-0.02
827.904	-0.03
828.198	-0.02
828.493	-0.02
828.787	-0.02
829.082	-0.02
829.376	-0.02
829.671	-0.02
829.965	-0.02
830.259	-0.03
830.553	-0.03
830.847	-0.03
831.141	-0.03
831.435	-0.03
831.729	-0.03
832.023	-0.04
832.317	-0.04
832.61	-0.04
832.904	-0.04
833.197	-0.03
833.491	-0.03
833.784	-0.03
834.077	-0.04
834.371	-0.03
834.664	-0.02
834.957	-0.03
835.25	-0.04
835.543	-0.04
835.836	-0.04
836.129	-0.04
836.421	-0.04
836.714	-0.04
837.007	-0.04
837.299	-0.04
837.592	-0.04
837.884	-0.04
838.177	-0.04
838.469	-0.04
838.761	-0.03
839.053	-0.02
839.345	-0.02
839.637	-0.03
839.929	-0.04
840.221	-0.04
840.513	-0.03
840.805	-0.04
841.096	-0.03
841.388	-0.04
841.68	-0.03
841.971	-0.05
842.262	-0.03
842.554	-0.05
842.845	-0.04
843.136	-0.03
843.427	-0.03
843.718	-0.03
844.009	-0.03
844.3	-0.03
844.591	-0.03
844.882	-0.04
845.173	-0.04
845.463	-0.04
845.754	-0.04
846.044	-0.04
846.335	-0.04
846.625	-0.04
846.915	-0.04
847.206	-0.03
847.496	-0.03
847.786	-0.03
848.076	-0.04
848.366	-0.04
848.656	-0.04
848.945	-0.04
849.235	-0.04
849.525	-0.04
849.814	-0.04
850.104	-0.03
850.393	-0.03
850.683	-0.03
850.972	-0.03
851.261	-0.04
851.551	-0.03
851.84	-0.03
852.129	-0.04
852.418	-0.04
852.707	-0.04
852.995	-0.05
853.284	-0.02
853.573	-0.03
853.862	-0.03
854.15	-0.03
854.439	-0.04
854.727	-0.04
855.015	-0.04
855.304	-0.02
855.592	-0.03
855.88	-0.03
856.168	-0.03
856.456	-0.03
856.744	-0.04
857.032	-0.04
857.32	-0.02
857.607	-0.03
857.895	-0.03
858.183	-0.04
858.47	-0.03
858.757	-0.04
859.045	-0.04
859.332	-0.04
859.619	-0.02
859.907	-0.02
860.194	-0.03
860.481	-0.01
860.768	-0.02
861.054	-0.02
861.341	-0.02
861.628	-0.03
861.915	-0.03
862.201	-0.05
862.488	-0.03
862.774	-0.03
863.061	-0.03
863.347	-0.06
863.633	-0.04
863.919	-0.05
864.205	-0.04
864.491	-0.06
864.777	-0.07
865.063	-0.06
865.349	-0.03
865.635	-0.02
865.92	-0.01
866.206	-0.04
866.492	-0.04
866.777	-0.05
867.062	-0.03
867.348	-0.05
867.633	-0.03
867.918	-0.02
868.203	-0.04
868.488	-0.04
868.773	-0.03
869.058	-0.06
869.343	-0.05
869.628	-0.04
869.912	-0.07
870.197	-0.06
870.482	-0.01
870.766	-0.03
871.05	-0.04
871.335	-0.02
871.619	-0.04
871.903	-0.07
872.187	-0.05
872.471	-0.08
872.755	-0.04
873.039	-0.06
873.323	-0.05
873.607	0.01
873.89	-0.03
874.174	-0.08
874.458	-0.08
874.741	-0.03
875.024	-0.02
875.308	-0.05
875.591	-0.04
875.874	-0.02
876.157	-0.06
876.44	-0.1
876.723	-0.17
877.006	0.06
877.289	-0.02
877.572	-0.02
877.854	-0.01
878.137	-0.13
878.42	-0.03
878.702	-0.07
878.984	-0.08
879.267	-0.01
879.549	-0.07
879.831	0.05
880.113	-0.12
880.395	0.03
880.677	-0.1
880.959	0.06
