Data from Rubpy_EV_300_EDTA_Buffered_Absorbance_12-14-40-261.txt Node
Date: Tue Jun 30 12:14:40 BST 2026
User: fpm-admin
Spectrometer: OFX00224
Trigger mode: 0
Integration Time (sec): 7.000000E-2
Scans to average: 3
Nonlinearity correction enabled: false
Boxcar width: 0
Storing dark spectrum: false
XAxis mode: Wavelengths
Number of Pixels in Spectrum: 2136
>>>>>Begin Spectral Data<<<<<
154.91	-0
155.289	-0.23
155.669	-0
156.048	-0.39
156.428	0.14
156.807	0.08
157.186	-0.01
157.566	-0
157.945	-0
158.325	0.07
158.704	-1.18
159.083	-0
159.462	-0.09
159.842	-0.56
160.221	-0
160.6	-0.27
160.979	-0
161.359	-0
161.738	-0
162.117	-0
162.496	-0.65
162.875	-0.49
163.254	-0
163.633	0.9
164.012	0.82
164.391	-0.05
164.77	-0
165.149	-0
165.528	0.12
165.907	0.05
166.286	-0.28
166.665	-0.09
167.044	-0
167.423	-0.52
167.802	-0.73
168.181	-0
168.559	-0
168.938	-0.23
169.317	-0
169.696	-0
170.074	-0
170.453	-0.23
170.832	0.14
171.21	-0.45
171.589	-0
171.968	-0
172.346	0.66
172.725	-0
173.103	0.4
173.482	-0.22
173.861	-0.4
174.239	-0
174.617	-0
174.996	-0.33
175.374	-1.57
175.753	-0
176.131	0.52
176.51	0.62
176.888	-0.08
177.266	-0
177.645	0.02
178.023	-0.03
178.401	-0.33
178.779	0.02
179.158	-0.1
179.536	-0
179.914	0.9
180.292	-0.23
180.67	-0
181.048	-0
181.427	-0
181.805	-0
182.183	-1.1
182.561	-0.05
182.939	-0
183.317	-0
183.695	0.86
184.073	0.67
184.451	-0
184.829	-0
185.206	-0.42
185.584	-0.52
185.962	-0
186.34	-0
186.718	0.14
187.096	-0
187.473	-0
187.851	-0.13
188.229	-0.17
188.607	0.02
188.984	-0.04
189.362	-0.03
189.74	-0.01
190.117	0.03
190.495	-0.04
190.872	0.02
191.25	-0.02
191.627	-0.03
192.005	-0.02
192.382	0.04
192.76	0.04
193.137	0.03
193.515	0.01
193.892	0.18
194.269	-0.06
194.647	0.07
195.024	0.05
195.401	-0.04
195.779	0.09
196.156	0.05
196.533	0.02
196.91	-0
197.288	0
197.665	0.08
198.042	0.07
198.419	0.05
198.796	0.08
199.173	0.04
199.55	0.05
199.927	0.04
200.304	-0.12
200.681	0.04
201.058	0.04
201.435	0.04
201.812	0.05
202.189	0.01
202.566	-0.01
202.943	-0.03
203.32	0.05
203.697	0.09
204.073	-0.01
204.45	0.06
204.827	0.06
205.204	-0.02
205.58	0.09
205.957	-0.04
206.334	-0.02
206.71	0.04
207.087	0.04
207.464	0.05
207.84	-0.05
208.217	0.11
208.593	-0.09
208.97	0.03
209.346	0.17
209.723	0.05
210.099	0.03
210.476	0
210.852	0.01
211.228	0.04
211.605	0.03
211.981	0.01
212.357	0.01
212.733	0.06
213.11	-0
213.486	-0.02
213.862	0.02
214.238	0.07
214.614	0.02
214.991	0.01
215.367	-0.05
215.743	0.01
216.119	0.09
216.495	-0.01
216.871	0.09
217.247	0.01
217.623	0.09
217.999	0.04
218.375	0.01
218.751	0.08
219.127	0.04
219.502	0.16
219.878	0.05
220.254	-0.03
220.63	0.14
221.006	0.08
221.381	-0.01
221.757	0.07
222.133	0.15
222.508	0.07
222.884	0.07
223.26	0.07
223.635	0.02
224.011	0.06
224.386	0.01
224.762	0.1
225.137	-0.03
225.513	-0.04
225.888	0.1
226.264	0.04
226.639	0.08
227.014	0.13
227.39	0.07
227.765	0.03
228.14	0.03
228.516	-0.03
228.891	0.1
229.266	0.03
229.641	0.09
230.017	-0.02
230.392	-0.01
230.767	0.07
231.142	0.01
231.517	0
231.892	0.15
232.267	-0.04
232.642	0.07
233.017	0.09
233.392	0.05
233.767	0.05
234.142	-0.03
234.517	-0.01
234.892	-0.02
235.267	0.06
235.641	0.06
236.016	-0.02
236.391	0.11
236.766	0.13
237.14	-0.02
237.515	0.04
237.89	0.04
238.264	0.08
238.639	-0.07
239.014	0.01
239.388	0.05
239.763	0.1
240.137	0.02
240.512	-0.03
240.886	0.01
241.261	0.07
241.635	-0.01
242.009	-0
242.384	0.07
242.758	-0.1
243.132	0.02
243.507	0.15
243.881	0.05
244.255	0.05
244.629	0.06
245.004	0.09
245.378	0.09
245.752	0.06
246.126	0.02
246.5	0.1
246.874	0.1
247.248	-0.04
247.622	0.05
247.996	0.05
248.37	0.16
248.744	-0.02
249.118	0.02
249.492	0.12
249.866	0.05
250.24	0.04
250.613	0.04
250.987	-0.04
251.361	-0.01
251.735	0.09
252.108	0.1
252.482	0.07
252.856	0.02
253.229	0.03
253.603	0.03
253.977	-0
254.35	0.01
254.724	0.05
255.097	0.05
255.471	0.08
255.844	0.13
256.218	0.05
256.591	0.03
256.964	0.06
257.338	0.01
257.711	0.06
258.084	-0
258.458	0.08
258.831	-0.05
259.204	-0.04
259.577	0.09
259.95	-0.03
260.323	0.05
260.697	0.01
261.07	-0.03
261.443	-0.02
261.816	0.09
262.189	-0.07
262.562	0.06
262.935	0.04
263.308	-0.03
263.68	0.05
264.053	0.07
264.426	0.04
264.799	0.01
265.172	-0.01
265.545	0.03
265.917	0.01
266.29	0.06
266.663	-0.02
267.035	0.02
267.408	0.06
267.781	0.03
268.153	-0
268.526	-0.02
268.898	0.07
269.271	0.07
269.643	0
270.016	0.01
270.388	0
270.76	0.1
271.133	0.02
271.505	-0.01
271.877	-0.05
272.25	0.01
272.622	0.05
272.994	0.07
273.366	0.02
273.739	0.08
274.111	0.05
274.483	0.03
274.855	0.06
275.227	0.06
275.599	0.06
275.971	0.06
276.343	-0.04
276.715	-0
277.087	0.09
277.459	0.05
277.831	0.02
278.203	0.03
278.574	0.06
278.946	0.01
279.318	0.13
279.69	0.09
280.061	0.04
280.433	0.04
280.805	0.06
281.176	0.03
281.548	-0
281.92	0.01
282.291	0.03
282.663	0.03
283.034	0.03
283.406	0.07
283.777	0.04
284.148	0.03
284.52	0.01
284.891	0.08
285.262	0.04
285.634	0.05
286.005	0.04
286.376	0.05
286.747	0.12
287.119	0.05
287.49	0.01
287.861	0.05
288.232	0.04
288.603	0.01
288.974	0.04
289.345	-0.01
289.716	0.02
290.087	0.06
290.458	0.01
290.829	0.04
291.2	0.03
291.571	0.02
291.941	0.07
292.312	0.08
292.683	0.06
293.054	-0.01
293.424	0
293.795	0.05
294.166	0.02
294.536	0.01
294.907	-0.02
295.277	0.02
295.648	0.03
296.018	0.04
296.389	0.02
296.759	0.02
297.13	0.05
297.5	-0
297.871	0.04
298.241	0.03
298.611	0.05
298.981	0
299.352	0.03
299.722	0.07
300.092	0.03
300.462	0.01
300.832	0.03
301.202	0.04
301.573	0.05
301.943	0.04
302.313	0.03
302.683	0.04
303.053	0.04
303.422	0.04
303.792	0.04
304.162	0.03
304.532	0.03
304.902	0.03
305.272	0.03
305.641	0.05
306.011	0.04
306.381	0.05
306.75	0.04
307.12	0.04
307.49	0.04
307.859	0.03
308.229	0.05
308.598	0.04
308.968	0.04
309.337	0.03
309.707	0.05
310.076	0.04
310.445	0.05
310.815	0.04
311.184	0.04
311.553	0.04
311.923	0.04
312.292	0.05
312.661	0.04
313.03	0.04
313.399	0.05
313.768	0.04
314.137	0.05
314.506	0.05
314.875	0.05
315.244	0.04
315.613	0.04
315.982	0.05
316.351	0.04
316.72	0.05
317.089	0.04
317.458	0.05
317.826	0.04
318.195	0.05
318.564	0.04
318.933	0.05
319.301	0.04
319.67	0.04
320.038	0.04
320.407	0.04
320.775	0.04
321.144	0.04
321.512	0.04
321.881	0.04
322.249	0.04
322.618	0.04
322.986	0.04
323.354	0.04
323.723	0.04
324.091	0.04
324.459	0.04
324.827	0.04
325.195	0.04
325.564	0.04
325.932	0.04
326.3	0.03
326.668	0.04
327.036	0.04
327.404	0.04
327.772	0.04
328.14	0.04
328.508	0.04
328.875	0.04
329.243	0.04
329.611	0.04
329.979	0.04
330.346	0.04
330.714	0.04
331.082	0.04
331.449	0.04
331.817	0.04
332.185	0.04
332.552	0.04
332.92	0.04
333.287	0.04
333.655	0.04
334.022	0.04
334.389	0.04
334.757	0.04
335.124	0.04
335.491	0.04
335.859	0.04
336.226	0.04
336.593	0.04
336.96	0.04
337.327	0.04
337.695	0.04
338.062	0.04
338.429	0.04
338.796	0.04
339.163	0.04
339.53	0.04
339.897	0.04
340.263	0.05
340.63	0.04
340.997	0.05
341.364	0.05
341.731	0.05
342.097	0.05
342.464	0.04
342.831	0.05
343.197	0.05
343.564	0.05
343.931	0.05
344.297	0.05
344.664	0.05
345.03	0.05
345.396	0.06
345.763	0.05
346.129	0.06
346.496	0.05
346.862	0.06
347.228	0.06
347.594	0.06
347.961	0.06
348.327	0.05
348.693	0.06
349.059	0.06
349.425	0.06
349.791	0.06
350.157	0.06
350.523	0.06
350.889	0.06
351.255	0.06
351.621	0.07
351.987	0.07
352.353	0.07
352.719	0.07
353.084	0.07
353.45	0.07
353.816	0.07
354.181	0.07
354.547	0.07
354.913	0.08
355.278	0.08
355.644	0.08
356.009	0.08
356.375	0.08
356.74	0.08
357.106	0.08
357.471	0.08
357.836	0.09
358.202	0.09
358.567	0.09
358.932	0.09
359.297	0.09
359.663	0.1
360.028	0.1
360.393	0.1
360.758	0.1
361.123	0.1
361.488	0.1
361.853	0.1
362.218	0.11
362.583	0.1
362.948	0.1
363.312	0.11
363.677	0.11
364.042	0.11
364.407	0.11
364.772	0.11
365.136	0.12
365.501	0.12
365.865	0.12
366.23	0.12
366.595	0.13
366.959	0.13
367.324	0.13
367.688	0.13
368.052	0.14
368.417	0.13
368.781	0.14
369.145	0.14
369.51	0.14
369.874	0.14
370.238	0.14
370.602	0.14
370.967	0.14
371.331	0.14
371.695	0.14
372.059	0.14
372.423	0.14
372.787	0.14
373.151	0.14
373.515	0.14
373.878	0.14
374.242	0.14
374.606	0.15
374.97	0.14
375.334	0.14
375.697	0.14
376.061	0.14
376.425	0.14
376.788	0.15
377.152	0.15
377.515	0.14
377.879	0.15
378.242	0.15
378.606	0.15
378.969	0.16
379.333	0.16
379.696	0.16
380.059	0.16
380.422	0.16
380.786	0.16
381.149	0.17
381.512	0.17
381.875	0.18
382.238	0.18
382.601	0.19
382.964	0.19
383.327	0.2
383.69	0.2
384.053	0.2
384.416	0.21
384.779	0.22
385.142	0.22
385.504	0.22
385.867	0.22
386.23	0.23
386.593	0.23
386.955	0.23
387.318	0.23
387.68	0.23
388.043	0.23
388.405	0.23
388.768	0.23
389.13	0.23
389.493	0.22
389.855	0.22
390.217	0.22
390.58	0.22
390.942	0.22
391.304	0.22
391.666	0.23
392.028	0.23
392.391	0.23
392.753	0.24
393.115	0.25
393.477	0.26
393.839	0.27
394.201	0.28
394.563	0.28
394.924	0.3
395.286	0.31
395.648	0.32
396.01	0.33
396.371	0.34
396.733	0.35
397.095	0.35
397.456	0.36
397.818	0.35
398.18	0.35
398.541	0.35
398.903	0.34
399.264	0.33
399.625	0.32
399.987	0.31
400.348	0.3
400.709	0.28
401.071	0.27
401.432	0.25
401.793	0.24
402.154	0.22
402.515	0.2
402.876	0.19
403.238	0.18
403.599	0.17
403.96	0.16
404.32	0.15
404.681	0.14
405.042	0.13
405.403	0.12
405.764	0.11
406.125	0.11
406.485	0.1
406.846	0.09
407.207	0.09
407.567	0.08
407.928	0.08
408.288	0.08
408.649	0.07
409.009	0.07
409.37	0.07
409.73	0.07
410.091	0.06
410.451	0.06
410.811	0.05
411.171	0.06
411.532	0.06
411.892	0.05
412.252	0.05
412.612	0.05
412.972	0.04
413.332	0.05
413.692	0.05
414.052	0.04
414.412	0.05
414.772	0.05
415.132	0.04
415.492	0.04
415.851	0.04
416.211	0.04
416.571	0.04
416.931	0.03
417.29	0.04
417.65	0.04
418.009	0.04
418.369	0.04
418.728	0.03
419.088	0.03
419.447	0.04
419.807	0.03
420.166	0.04
420.525	0.04
420.884	0.04
421.244	0.03
421.603	0.03
421.962	0.03
422.321	0.03
422.68	0.03
423.039	0.03
423.398	0.03
423.757	0.03
424.116	0.03
424.475	0.04
424.834	0.04
425.193	0.04
425.551	0.02
425.91	0.03
426.269	0.03
426.628	0.03
426.986	0.03
427.345	0.03
427.703	0.03
428.062	0.03
428.42	0.03
428.779	0.03
429.137	0.04
429.496	0.03
429.854	0.02
430.212	0.03
430.57	0.02
430.929	0.03
431.287	0.03
431.645	0.03
432.003	0.03
432.361	0.03
432.719	0.02
433.077	0.02
433.435	0.03
433.793	0.03
434.151	0.03
434.509	0.03
434.866	0.03
435.224	0.03
435.582	0.02
435.94	0.03
436.297	0.02
436.655	0.02
437.012	0.03
437.37	0.03
437.727	0.03
438.085	0.03
438.442	0.02
438.8	0.03
439.157	0.03
439.514	0.03
439.872	0.03
440.229	0.02
440.586	0.02
440.943	0.03
441.3	0.02
441.657	0.02
442.014	0.03
442.371	0.03
442.728	0.02
443.085	0.03
443.442	0.02
443.799	0.02
444.156	0.03
444.513	0.02
444.869	0.02
445.226	0.01
445.583	0.02
445.939	0.03
446.296	0.03
446.652	0.03
447.009	0.03
447.365	0.02
447.722	0.02
448.078	0.02
448.434	0.02
448.791	0.02
449.147	0.02
449.503	0.01
449.859	0.01
450.215	0.02
450.571	0.02
450.928	0.02
451.284	0.01
451.64	0.02
451.995	0.02
452.351	0.02
452.707	0.02
453.063	0.02
453.419	0.02
453.775	0.02
454.13	0.01
454.486	0.02
454.842	0.01
455.197	0.01
455.553	0.01
455.908	0.01
456.264	0.01
456.619	0.02
456.975	0.01
457.33	0.02
457.685	0.02
458.04	0.01
458.396	0.01
458.751	0.01
459.106	0.01
459.461	0.01
459.816	0.01
460.171	0.01
460.526	0
460.881	0
461.236	0.01
461.591	0.01
461.946	0.01
462.301	0
462.655	0.01
463.01	0
463.365	0
463.719	-0.01
464.074	-0
464.428	-0
464.783	0
465.137	-0.01
465.492	0
465.846	0
466.201	-0.01
466.555	-0
466.909	-0.01
467.263	-0.01
467.618	-0.01
467.972	-0
468.326	-0
468.68	0
469.034	-0.01
469.388	-0.01
469.742	-0
470.096	-0.01
470.45	-0
470.804	-0.01
471.157	-0.01
471.511	-0
471.865	-0.01
472.218	-0.01
472.572	-0.01
472.926	-0.01
473.279	-0.01
473.633	-0
473.986	-0.01
474.34	-0
474.693	-0.01
475.046	0
475.4	0
475.753	-0
476.106	-0
476.459	0.01
476.812	0
477.165	0
477.519	0.01
477.872	0.01
478.224	0.01
478.577	0.01
478.93	0.01
479.283	0
479.636	0.01
479.989	0.01
480.341	0.01
480.694	0.01
481.047	0.01
481.399	0.02
481.752	0.01
482.104	0.01
482.457	0.02
482.809	0.01
483.162	0.02
483.514	0.02
483.866	0.01
484.219	0.01
484.571	0.02
484.923	0.01
485.275	0.02
485.627	0.02
485.979	0.02
486.331	0.02
486.683	0.02
487.035	0.02
487.387	0.02
487.739	0.02
488.091	0.02
488.443	0.02
488.794	0.03
489.146	0.02
489.498	0.03
489.849	0.03
490.201	0.02
490.552	0.02
490.904	0.02
491.255	0.02
491.607	0.02
491.958	0.02
492.309	0.02
492.661	0.02
493.012	0.02
493.363	0.02
493.714	0.03
494.065	0.02
494.416	0.02
494.767	0.02
495.118	0.02
495.469	0.03
495.82	0.02
496.171	0.02
496.522	0.02
496.872	0.03
497.223	0.03
497.574	0.02
497.924	0.03
498.275	0.03
498.626	0.03
498.976	0.03
499.327	0.03
499.677	0.03
500.027	0.03
500.378	0.03
500.728	0.03
501.078	0.03
501.428	0.03
501.779	0.03
502.129	0.02
502.479	0.03
502.829	0.03
503.179	0.03
503.529	0.03
503.879	0.03
504.229	0.03
504.578	0.03
504.928	0.04
505.278	0.03
505.628	0.04
505.977	0.04
506.327	0.03
506.676	0.03
507.026	0.03
507.375	0.03
507.725	0.03
508.074	0.03
508.424	0.03
508.773	0.03
509.122	0.04
509.471	0.03
509.82	0.04
510.17	0.03
510.519	0.04
510.868	0.03
511.217	0.04
511.566	0.04
511.915	0.04
512.263	0.04
512.612	0.04
512.961	0.04
513.31	0.04
513.659	0.04
514.007	0.04
514.356	0.04
514.704	0.04
515.053	0.04
515.401	0.04
515.75	0.04
516.098	0.04
516.447	0.04
516.795	0.04
517.143	0.04
517.491	0.04
517.839	0.04
518.188	0.04
518.536	0.04
518.884	0.04
519.232	0.04
519.58	0.04
519.928	0.04
520.275	0.04
520.623	0.04
520.971	0.04
521.319	0.04
521.666	0.04
522.014	0.04
522.362	0.04
522.709	0.04
523.057	0.04
523.404	0.04
523.752	0.05
524.099	0.05
524.446	0.05
524.794	0.05
525.141	0.04
525.488	0.05
525.835	0.04
526.182	0.04
526.529	0.05
526.876	0.04
527.223	0.05
527.57	0.04
527.917	0.05
528.264	0.04
528.611	0.05
528.958	0.04
529.304	0.05
529.651	0.05
529.998	0.05
530.344	0.05
530.691	0.05
531.037	0.05
531.384	0.06
531.73	0.05
532.076	0.05
532.423	0.05
532.769	0.05
533.115	0.06
533.461	0.05
533.807	0.06
534.154	0.05
534.5	0.05
534.846	0.05
535.192	0.05
535.537	0.05
535.883	0.06
536.229	0.06
536.575	0.06
536.921	0.06
537.266	0.06
537.612	0.06
537.957	0.06
538.303	0.06
538.649	0.06
538.994	0.06
539.339	0.06
539.685	0.06
540.03	0.06
540.375	0.06
540.721	0.06
541.066	0.06
541.411	0.06
541.756	0.06
542.101	0.06
542.446	0.06
542.791	0.06
543.136	0.06
543.481	0.06
543.825	0.07
544.17	0.07
544.515	0.06
544.86	0.07
545.204	0.06
545.549	0.06
545.893	0.06
546.238	0.06
546.582	0.07
546.927	0.06
547.271	0.06
547.615	0.07
547.96	0.07
548.304	0.07
548.648	0.07
548.992	0.07
549.336	0.07
549.68	0.07
550.024	0.07
550.368	0.07
550.712	0.07
551.056	0.07
551.4	0.07
551.743	0.07
552.087	0.07
552.431	0.07
552.774	0.07
553.118	0.07
553.462	0.07
553.805	0.07
554.148	0.07
554.492	0.07
554.835	0.07
555.178	0.07
555.522	0.07
555.865	0.07
556.208	0.08
556.551	0.07
556.894	0.08
557.237	0.07
557.58	0.07
557.923	0.08
558.266	0.08
558.609	0.08
558.952	0.08
559.294	0.08
559.637	0.08
559.98	0.08
560.322	0.08
560.665	0.08
561.007	0.07
561.35	0.08
561.692	0.08
562.034	0.08
562.377	0.08
562.719	0.08
563.061	0.07
563.403	0.08
563.745	0.08
564.088	0.08
564.43	0.07
564.772	0.08
565.113	0.08
565.455	0.08
565.797	0.08
566.139	0.08
566.481	0.08
566.822	0.08
567.164	0.08
567.506	0.08
567.847	0.08
568.189	0.08
568.53	0.08
568.872	0.08
569.213	0.08
569.554	0.08
569.895	0.08
570.237	0.08
570.578	0.08
570.919	0.08
571.26	0.08
571.601	0.08
571.942	0.09
572.283	0.08
572.624	0.08
572.965	0.08
573.306	0.08
573.646	0.08
573.987	0.08
574.328	0.08
574.668	0.08
575.009	0.08
575.349	0.08
575.69	0.08
576.03	0.08
576.37	0.08
576.711	0.08
577.051	0.08
577.391	0.08
577.731	0.08
578.072	0.08
578.412	0.08
578.752	0.08
579.092	0.08
579.431	0.08
579.771	0.08
580.111	0.07
580.451	0.07
580.791	0.08
581.13	0.08
581.47	0.08
581.81	0.08
582.149	0.08
582.489	0.08
582.828	0.08
583.167	0.07
583.507	0.05
583.846	0.03
584.185	0.05
584.525	0.07
584.864	0.08
585.203	0.09
585.542	0.09
585.881	0.08
586.22	0.08
586.559	0.08
586.898	0.08
587.236	0.08
587.575	0.08
587.914	0.08
588.252	0.08
588.591	0.09
588.93	0.09
589.268	0.09
589.607	0.08
589.945	0.09
590.283	0.09
590.622	0.09
590.96	0.09
591.298	0.09
591.636	0.09
591.974	0.09
592.313	0.09
592.651	0.09
592.989	0.09
593.326	0.09
593.664	0.09
594.002	0.09
594.34	0.09
594.678	0.09
595.015	0.09
595.353	0.09
595.691	0.09
596.028	0.09
596.366	0.09
596.703	0.1
597.04	0.1
597.378	0.1
597.715	0.1
598.052	0.1
598.389	0.1
598.726	0.1
599.064	0.1
599.401	0.1
599.738	0.1
600.074	0.1
600.411	0.1
600.748	0.1
601.085	0.1
601.422	0.09
601.758	0.1
602.095	0.09
602.432	0.1
602.768	0.09
603.105	0.1
603.441	0.1
603.777	0.1
604.114	0.1
604.45	0.1
604.786	0.1
605.122	0.1
605.459	0.09
605.795	0.1
606.131	0.1
606.467	0.1
606.803	0.1
607.139	0.1
607.474	0.1
607.81	0.1
608.146	0.1
608.482	0.1
608.817	0.1
609.153	0.1
609.488	0.1
609.824	0.1
610.159	0.1
610.495	0.1
610.83	0.1
611.165	0.1
611.5	0.1
611.836	0.1
612.171	0.1
612.506	0.09
612.841	0.1
613.176	0.09
613.511	0.1
613.845	0.1
614.18	0.1
614.515	0.1
614.85	0.09
615.184	0.09
615.519	0.1
615.854	0.09
616.188	0.09
616.523	0.09
616.857	0.09
617.191	0.09
617.526	0.09
617.86	0.09
618.194	0.09
618.528	0.09
618.862	0.09
619.196	0.09
619.53	0.09
619.864	0.09
620.198	0.09
620.532	0.09
620.866	0.09
621.2	0.09
621.533	0.09
621.867	0.09
622.201	0.09
622.534	0.09
622.868	0.09
623.201	0.09
623.534	0.09
623.868	0.09
624.201	0.09
624.534	0.08
624.868	0.09
625.201	0.08
625.534	0.09
625.867	0.09
626.2	0.09
626.533	0.08
626.865	0.08
627.198	0.08
627.531	0.08
627.864	0.08
628.196	0.08
628.529	0.08
628.862	0.08
629.194	0.08
629.527	0.08
629.859	0.08
630.191	0.08
630.524	0.08
630.856	0.07
631.188	0.08
631.52	0.07
631.852	0.07
632.184	0.07
632.516	0.07
632.848	0.07
633.18	0.07
633.512	0.07
633.844	0.07
634.175	0.07
634.507	0.06
634.839	0.07
635.17	0.07
635.502	0.07
635.833	0.07
636.165	0.07
636.496	0.07
636.827	0.07
637.159	0.07
637.49	0.06
637.821	0.06
638.152	0.06
638.483	0.06
638.814	0.07
639.145	0.06
639.476	0.06
639.807	0.06
640.137	0.06
640.468	0.06
640.799	0.06
641.129	0.06
641.46	0.06
641.791	0.06
642.121	0.05
642.451	0.05
642.782	0.05
643.112	0.05
643.442	0.05
643.773	0.05
644.103	0.05
644.433	0.05
644.763	0.05
645.093	0.05
645.423	0.05
645.753	0.05
646.082	0.05
646.412	0.05
646.742	0.05
647.072	0.05
647.401	0.05
647.731	0.05
648.06	0.05
648.39	0.05
648.719	0.05
649.048	0.05
649.378	0.05
649.707	0.05
650.036	0.05
650.365	0.05
650.694	0.05
651.023	0.05
651.352	0.05
651.681	0.05
652.01	0.05
652.339	0.04
652.668	0.04
652.996	0.05
653.325	0.05
653.654	0.05
653.982	0.05
654.311	0.05
654.639	0.05
654.967	0.05
655.296	0.05
655.624	0.05
655.952	0.05
656.28	0.05
656.609	0.05
656.937	0.05
657.265	0.05
657.593	0.04
657.92	0
658.248	-0
658.576	-0
658.904	-0
659.231	0.03
659.559	0.05
659.887	0.05
660.214	0.05
660.542	0.05
660.869	0.05
661.196	0.05
661.524	0.05
661.851	0.05
662.178	0.05
662.505	0.04
662.832	0.05
663.159	0.05
663.486	0.05
663.813	0.05
664.14	0.05
664.467	0.04
664.794	0.05
665.12	0.05
665.447	0.04
665.774	0.04
666.1	0.04
666.427	0.04
666.753	0.04
667.079	0.04
667.406	0.04
667.732	0.04
668.058	0.04
668.384	0.04
668.71	0.04
669.036	0.04
669.362	0.04
669.688	0.04
670.014	0.04
670.34	0.03
670.666	0.04
670.991	0.04
671.317	0.04
671.643	0.04
671.968	0.04
672.294	0.04
672.619	0.04
672.945	0.04
673.27	0.04
673.595	0.04
673.92	0.04
674.246	0.04
674.571	0.04
674.896	0.04
675.221	0.04
675.546	0.04
675.87	0.04
676.195	0.04
676.52	0.04
676.845	0.04
677.169	0.04
677.494	0.04
677.819	0.04
678.143	0.03
678.468	0.03
678.792	0.04
679.116	0.03
679.44	0.03
679.765	0.03
680.089	0.03
680.413	0.03
680.737	0.03
681.061	0.03
681.385	0.03
681.709	0.03
682.033	0.03
682.356	0.03
682.68	0.03
683.004	0.03
683.327	0.03
683.651	0.03
683.974	0.03
684.298	0.03
684.621	0.03
684.944	0.03
685.268	0.03
685.591	0.03
685.914	0.03
686.237	0.03
686.56	0.02
686.883	0.02
687.206	0.02
687.529	0.02
687.852	0.02
688.175	0.02
688.497	0.02
688.82	0.03
689.142	0.02
689.465	0.02
689.787	0.02
690.11	0.02
690.432	0.02
690.755	0.02
691.077	0.02
691.399	0.02
691.721	0.02
692.043	0.02
692.365	0.02
692.687	0.02
693.009	0.02
693.331	0.02
693.653	0.02
693.974	0.02
694.296	0.02
694.618	0.02
694.939	0.02
695.261	0.02
695.582	0.02
695.904	0.01
696.225	0.01
696.546	0.01
696.868	0.01
697.189	0.01
697.51	0.01
697.831	0.01
698.152	0.01
698.473	0.01
698.794	0.01
699.114	0.01
699.435	0.01
699.756	0.02
700.077	0.02
700.397	0.02
700.718	0.01
701.038	0.01
701.359	0.01
701.679	0.01
701.999	0.01
702.32	0.01
702.64	0.01
702.96	0.01
703.28	0.01
703.6	0.01
703.92	0.01
704.24	0.01
704.56	0.01
704.879	0.01
705.199	0.01
705.519	0.01
705.838	0.01
706.158	0.01
706.478	0.02
706.797	0.02
707.116	0.02
707.436	0.02
707.755	0.01
708.074	0.01
708.393	0.01
708.712	0.02
709.031	0.01
709.35	0.02
709.669	0.02
709.988	0.02
710.307	0.01
710.626	0.01
710.944	0.01
711.263	0.02
711.582	0.02
711.9	0.01
712.219	0.01
712.537	0.01
712.855	0.01
713.174	0.01
713.492	0.02
713.81	0.01
714.128	0.02
714.446	0.02
714.764	0.02
715.082	0.01
715.4	0.01
715.718	0.01
716.035	0.01
716.353	0.01
716.671	0.02
716.988	0.02
717.306	0.02
717.623	0.01
717.941	0.01
718.258	0.01
718.575	0.01
718.893	0.01
719.21	0.01
719.527	0.01
719.844	0.01
720.161	0.01
720.478	0.01
720.795	0.02
721.112	0.02
721.428	0.02
721.745	0.02
722.062	0.02
722.378	0.02
722.695	0.02
723.011	0.02
723.328	0.02
723.644	0.02
723.96	0.02
724.276	0.02
724.593	0.02
724.909	0.02
725.225	0.02
725.541	0.02
725.857	0.02
726.173	0.02
726.488	0.02
726.804	0.02
727.12	0.02
727.435	0.02
727.751	0.02
728.067	0.02
728.382	0.02
728.697	0.02
729.013	0.02
729.328	0.02
729.643	0.02
729.958	0.02
730.273	0.02
730.588	0.02
730.903	0.02
731.218	0.02
731.533	0.01
731.848	0.02
732.163	0.01
732.477	0.01
732.792	0.02
733.107	0.01
733.421	0.01
733.736	0.01
734.05	0.01
734.364	0.01
734.678	0.01
734.993	0.01
735.307	0.01
735.621	0.01
735.935	0.01
736.249	0.02
736.563	0.02
736.877	0.01
737.19	0.02
737.504	0.01
737.818	0.02
738.131	0.02
738.445	0.02
738.758	0.02
739.072	0.02
739.385	0.02
739.698	0.02
740.012	0.02
740.325	0.02
740.638	0.02
740.951	0.02
741.264	0.02
741.577	0.01
741.89	0.01
742.203	0.01
742.515	0.01
742.828	0.01
743.141	0.01
743.453	0.01
743.766	0.01
744.078	0.01
744.391	0.01
744.703	0.01
745.015	0.01
745.327	0.01
745.639	0.01
745.952	0
746.264	0
746.575	0
746.887	0
747.199	0.01
747.511	0.01
747.823	0.01
748.134	0
748.446	0
748.757	0.01
749.069	0.01
749.38	0.01
749.692	0.01
750.003	0.01
750.314	0.01
750.625	0.01
750.936	0.01
751.248	0.01
751.559	0.01
751.869	0.01
752.18	0.01
752.491	0.01
752.802	0.01
753.112	0.01
753.423	0.01
753.734	0.01
754.044	0.01
754.355	0.01
754.665	0.01
754.975	0.01
755.285	0.01
755.596	0.01
755.906	0.01
756.216	0.01
756.526	0.01
756.836	0.01
757.146	0
757.455	0
757.765	0
758.075	-0
758.385	-0
758.694	-0
759.004	-0
759.313	-0
759.622	-0
759.932	0
760.241	0
760.55	0
760.859	-0
761.168	0
761.477	0
761.786	0
762.095	0
762.404	0
762.713	0.01
763.021	0.01
763.33	0.01
763.639	0.01
763.947	0
764.256	0
764.564	0
764.872	0
765.181	-0
765.489	-0
765.797	-0
766.105	-0
766.413	-0
766.721	-0
767.029	-0
767.337	-0
767.644	-0
767.952	-0
768.26	-0
768.567	-0
768.875	-0
769.182	-0
769.49	-0
769.797	-0
770.104	0
770.411	0
770.718	0
771.026	0
771.333	0
771.639	0
771.946	-0
772.253	-0
772.56	-0
772.867	-0
773.173	-0.01
773.48	-0.01
773.786	-0.01
774.093	-0.01
774.399	-0.01
774.705	-0
775.012	-0
775.318	-0
775.624	-0
775.93	0
776.236	-0
776.542	-0
776.848	0
777.154	0
777.459	-0
777.765	-0
778.071	-0
778.376	-0.01
778.682	-0.01
778.987	-0.01
779.292	-0.01
779.598	-0.01
779.903	-0.01
780.208	-0.01
780.513	-0.01
780.818	-0
781.123	-0
781.428	-0
781.733	-0.01
782.038	-0
782.343	-0.01
782.647	-0.01
782.952	-0.01
783.256	-0.01
783.561	-0.01
783.865	-0.01
784.17	-0.01
784.474	-0.01
784.778	-0.01
785.082	-0.01
785.386	-0.01
785.69	-0.01
785.994	-0.01
786.298	-0.02
786.602	-0.01
786.906	-0.01
787.209	-0.01
787.513	-0.01
787.817	-0.02
788.12	-0.02
788.424	-0.02
788.727	-0.02
789.03	-0.01
789.333	-0.02
789.637	-0.01
789.94	-0.01
790.243	-0.01
790.546	-0.01
790.849	-0.01
791.152	-0.01
791.454	-0.01
791.757	-0.01
792.06	-0.01
792.362	-0.01
792.665	-0.01
792.967	-0.01
793.27	-0.01
793.572	-0.02
793.874	-0.01
794.177	-0.01
794.479	-0.02
794.781	-0.01
795.083	-0.02
795.385	-0.02
795.687	-0.02
795.989	-0.01
796.29	-0.01
796.592	-0.01
796.894	-0.01
797.195	-0.01
797.497	-0.01
797.798	-0.01
798.1	-0.01
798.401	-0.02
798.702	-0.02
799.003	-0.02
799.304	-0.02
799.605	-0.02
799.906	-0.02
800.207	-0.02
800.508	-0.03
800.809	-0.03
801.11	-0.03
801.41	-0.03
801.711	-0.02
802.011	-0.02
802.312	-0.02
802.612	-0.02
802.913	-0.02
803.213	-0.02
803.513	-0.02
803.813	-0.02
804.113	-0.02
804.413	-0.02
804.713	-0.02
805.013	-0.02
805.313	-0.02
805.613	-0.02
805.912	-0.02
806.212	-0.02
806.511	-0.02
806.811	-0.01
807.11	-0.02
807.41	-0.02
807.709	-0.02
808.008	-0.02
808.307	-0.01
808.606	-0.02
808.905	-0.02
809.204	-0.02
809.503	-0.03
809.802	-0.02
810.101	-0.02
810.399	-0.02
810.698	-0.02
810.997	-0.02
811.295	-0.02
811.593	-0.03
811.892	-0.03
812.19	-0.03
812.488	-0.03
812.786	-0.03
813.084	-0.02
813.383	-0.03
813.68	-0.03
813.978	-0.03
814.276	-0.02
814.574	-0.02
814.872	-0.02
815.169	-0.02
815.467	-0.02
815.764	-0.02
816.062	-0.03
816.359	-0.03
816.656	-0.03
816.954	-0.03
817.251	-0.03
817.548	-0.04
817.845	-0.04
818.142	-0.03
818.439	-0.02
818.735	-0.03
819.032	-0.02
819.329	-0.02
819.626	-0.02
819.922	-0.03
820.219	-0.02
820.515	-0.03
820.811	-0.03
821.108	-0.03
821.404	-0.03
821.7	-0.03
821.996	-0.03
822.292	-0.04
822.588	-0.04
822.884	-0.03
823.18	-0.03
823.475	-0.03
823.771	-0.03
824.067	-0.03
824.362	-0.04
824.658	-0.04
824.953	-0.04
825.249	-0.04
825.544	-0.03
825.839	-0.04
826.134	-0.04
826.429	-0.04
826.724	-0.04
827.019	-0.03
827.314	-0.04
827.609	-0.03
827.904	-0.03
828.198	-0.03
828.493	-0.03
828.787	-0.02
829.082	-0.02
829.376	-0.02
829.671	-0.02
829.965	-0.03
830.259	-0.02
830.553	-0.03
830.847	-0.03
831.141	-0.03
831.435	-0.04
831.729	-0.03
832.023	-0.04
832.317	-0.04
832.61	-0.04
832.904	-0.04
833.197	-0.04
833.491	-0.03
833.784	-0.04
834.077	-0.04
834.371	-0.04
834.664	-0.03
834.957	-0.04
835.25	-0.05
835.543	-0.03
835.836	-0.04
836.129	-0.04
836.421	-0.05
836.714	-0.05
837.007	-0.04
837.299	-0.04
837.592	-0.04
837.884	-0.05
838.177	-0.04
838.469	-0.04
838.761	-0.03
839.053	-0.03
839.345	-0.03
839.637	-0.04
839.929	-0.04
840.221	-0.04
840.513	-0.04
840.805	-0.04
841.096	-0.03
841.388	-0.05
841.68	-0.03
841.971	-0.05
842.262	-0.03
842.554	-0.05
842.845	-0.04
843.136	-0.04
843.427	-0.04
843.718	-0.04
844.009	-0.04
844.3	-0.03
844.591	-0.03
844.882	-0.04
845.173	-0.04
845.463	-0.06
845.754	-0.04
846.044	-0.04
846.335	-0.04
846.625	-0.04
846.915	-0.04
847.206	-0.03
847.496	-0.03
847.786	-0.04
848.076	-0.04
848.366	-0.04
848.656	-0.03
848.945	-0.04
849.235	-0.04
849.525	-0.02
849.814	-0.02
850.104	-0.03
850.393	-0.02
850.683	-0.04
850.972	-0.03
851.261	-0.03
851.551	-0.03
851.84	-0.02
852.129	-0.03
852.418	-0.03
852.707	-0.03
852.995	-0.05
853.284	-0.04
853.573	-0.04
853.862	-0.03
854.15	-0.03
854.439	-0.03
854.727	-0.03
855.015	-0.03
855.304	-0.03
855.592	-0.04
855.88	-0.03
856.168	-0.03
856.456	-0.03
856.744	-0.02
857.032	-0.04
857.32	-0.02
857.607	-0.02
857.895	-0.03
858.183	-0.04
858.47	-0.05
858.757	-0.02
859.045	-0.04
859.332	-0.04
859.619	-0.03
859.907	-0.01
860.194	-0.02
860.481	-0.02
860.768	-0.03
861.054	-0.03
861.341	-0.03
861.628	-0.03
861.915	-0.02
862.201	-0.03
862.488	-0.02
862.774	-0.04
863.061	-0.02
863.347	-0.04
863.633	-0.04
863.919	-0.04
864.205	-0.03
864.491	-0.03
864.777	-0.05
865.063	-0.04
865.349	-0.03
865.635	-0.02
865.92	0
866.206	0
866.492	-0.04
866.777	-0.05
867.062	-0.01
867.348	-0.04
867.633	-0.05
867.918	-0.03
868.203	-0.04
868.488	-0.03
868.773	-0.02
869.058	-0.05
869.343	-0.02
869.628	-0.03
869.912	-0.08
870.197	-0.06
870.482	-0.04
870.766	-0.02
871.05	-0.02
871.335	0.01
871.619	-0.04
871.903	-0.04
872.187	-0.03
872.471	-0.06
872.755	-0.02
873.039	-0.03
873.323	-0.03
873.607	0.02
873.89	-0.07
874.174	-0.02
874.458	-0.08
874.741	0.04
875.024	0.01
875.308	-0.07
875.591	-0.08
875.874	-0.02
876.157	-0.07
876.44	-0.02
876.723	-0.1
877.006	0
877.289	0.03
877.572	0.04
877.854	-0.02
878.137	-0.08
878.42	0.12
878.702	0
878.984	-0.04
879.267	-0
879.549	-0.1
879.831	0.09
880.113	-0.12
880.395	0.03
880.677	-0.02
880.959	-0.05
