Data from Rubpy_EV_300_EDTA_Buffered_Absorbance_12-31-17-137.txt Node
Date: Tue Jun 30 12:31:17 BST 2026
User: fpm-admin
Spectrometer: OFX00224
Trigger mode: 0
Integration Time (sec): 7.000000E-2
Scans to average: 3
Nonlinearity correction enabled: false
Boxcar width: 0
Storing dark spectrum: false
XAxis mode: Wavelengths
Number of Pixels in Spectrum: 2136
>>>>>Begin Spectral Data<<<<<
154.91	0.54
155.289	-0
155.669	0.18
156.048	-0.51
156.428	0.88
156.807	-0.05
157.186	0.03
157.566	0.6
157.945	-0
158.325	-0
158.704	-0
159.083	-0.02
159.462	-0.02
159.842	-1.01
160.221	-0.3
160.6	-0.15
160.979	-0
161.359	-0.6
161.738	-0
162.117	-0
162.496	-0
162.875	-0.34
163.254	0.3
163.633	0.66
164.012	-0
164.391	-0.14
164.77	0.6
165.149	-0.13
165.528	-0.07
165.907	0.48
166.286	0.48
166.665	-0.24
167.044	-0
167.423	-0
167.802	-0.71
168.181	-0.6
168.559	-0
168.938	0.03
169.317	-0
169.696	-0
170.074	0.16
170.453	-0.2
170.832	0.26
171.21	-0.29
171.589	-0.23
171.968	-0
172.346	0.07
172.725	-0
173.103	0.72
173.482	-0.09
173.861	-0
174.239	-0
174.617	-0
174.996	0.7
175.374	-1.56
175.753	-0.37
176.131	0.15
176.51	0.86
176.888	-0
177.266	-0
177.645	0.04
178.023	0.16
178.401	-0.36
178.779	-0.21
179.158	-0.41
179.536	-0.28
179.914	-0
180.292	-0.25
180.67	-0.14
181.048	-0
181.427	-0
181.805	0.56
182.183	-0.6
182.561	0.31
182.939	-0.13
183.317	0.08
183.695	0.08
184.073	0.19
184.451	-0
184.829	0.14
185.206	-0.34
185.584	-1.08
185.962	-0
186.34	-0
186.718	-0
187.096	-0.16
187.473	-1.2
187.851	-0.42
188.229	0.28
188.607	-0.01
188.984	0.01
189.362	0
189.74	0.14
190.117	0.04
190.495	-0
190.872	0.08
191.25	0.02
191.627	-0.07
192.005	0.01
192.382	0.07
192.76	0
193.137	0.02
193.515	0.03
193.892	0.11
194.269	-0.11
194.647	0.03
195.024	-0.04
195.401	0.06
195.779	0.14
196.156	0.08
196.533	0.09
196.91	0.13
197.288	0.04
197.665	0.08
198.042	0.1
198.419	-0.01
198.796	0.11
199.173	0.06
199.55	0.12
199.927	0.09
200.304	-0.1
200.681	0.1
201.058	0.06
201.435	0.06
201.812	0.04
202.189	0.09
202.566	0.03
202.943	0.09
203.32	0.13
203.697	0.06
204.073	0.09
204.45	0.03
204.827	0.16
205.204	0.04
205.58	0.13
205.957	-0.02
206.334	-0.01
206.71	0.05
207.087	0.08
207.464	0.08
207.84	0.05
208.217	0.03
208.593	0
208.97	0.09
209.346	0.1
209.723	0.13
210.099	0.03
210.476	0.15
210.852	0.07
211.228	0.12
211.605	0.06
211.981	0.09
212.357	-0
212.733	0.08
213.11	0.1
213.486	0.03
213.862	0.04
214.238	0.03
214.614	0.08
214.991	0.08
215.367	0.03
215.743	0.12
216.119	0.04
216.495	0.07
216.871	0.09
217.247	-0.01
217.623	0.1
217.999	0.06
218.375	0.03
218.751	0.13
219.127	0.03
219.502	0.09
219.878	0.06
220.254	0.11
220.63	0.16
221.006	-0.02
221.381	0.1
221.757	0.09
222.133	0.22
222.508	0.13
222.884	0.05
223.26	0.08
223.635	0.11
224.011	0.05
224.386	0.01
224.762	-0.01
225.137	-0.01
225.513	0.07
225.888	0.15
226.264	0.1
226.639	0.11
227.014	0.13
227.39	0.01
227.765	0.07
228.14	0.03
228.516	0.01
228.891	0.04
229.266	0.1
229.641	0.12
230.017	0.12
230.392	0.1
230.767	0.08
231.142	0.06
231.517	0.05
231.892	0.16
232.267	-0.01
232.642	0.11
233.017	0.13
233.392	0.12
233.767	0.06
234.142	0.01
234.517	0.05
234.892	0.03
235.267	0.06
235.641	0.05
236.016	0.03
236.391	0.06
236.766	0.12
237.14	-0.03
237.515	0.06
237.89	-0.01
238.264	0.14
238.639	-0.09
239.014	-0.01
239.388	0.05
239.763	0.11
240.137	0.04
240.512	-0
240.886	0.01
241.261	0.08
241.635	0.09
242.009	0.04
242.384	0.1
242.758	-0.06
243.132	0.1
243.507	0.15
243.881	0.04
244.255	0.11
244.629	0.12
245.004	0.08
245.378	0.06
245.752	0.09
246.126	0.11
246.5	0.12
246.874	0.2
247.248	0.06
247.622	0.07
247.996	0.15
248.37	0.13
248.744	0
249.118	0.1
249.492	0.11
249.866	0.05
250.24	0.02
250.613	0.12
250.987	-0.04
251.361	0.03
251.735	0.11
252.108	0.11
252.482	0.07
252.856	0.02
253.229	0.02
253.603	0.04
253.977	0.03
254.35	0.07
254.724	0.06
255.097	0.03
255.471	0.12
255.844	0.05
256.218	0.09
256.591	0.06
256.964	0.14
257.338	0.08
257.711	0.09
258.084	0.01
258.458	0.09
258.831	0.01
259.204	0.06
259.577	0.13
259.95	0
260.323	0.13
260.697	0.06
261.07	0.09
261.443	0.02
261.816	0.11
262.189	-0
262.562	0
262.935	0.02
263.308	-0.01
263.68	0.11
264.053	0.07
264.426	0.06
264.799	-0.04
265.172	-0
265.545	-0.01
265.917	-0
266.29	0.08
266.663	0.01
267.035	0.05
267.408	0.13
267.781	0.07
268.153	0.08
268.526	0.01
268.898	0.09
269.271	0.07
269.643	0.05
270.016	0.04
270.388	-0.01
270.76	0.12
271.133	0.05
271.505	0.07
271.877	-0.04
272.25	0.09
272.622	0.13
272.994	0.07
273.366	0.11
273.739	0.09
274.111	0.1
274.483	0.09
274.855	0.01
275.227	0.11
275.599	0.12
275.971	0.06
276.343	0.06
276.715	0.05
277.087	0.07
277.459	0.06
277.831	0.12
278.203	0.06
278.574	0.08
278.946	0.06
279.318	0.11
279.69	0.11
280.061	0.11
280.433	0.11
280.805	0.13
281.176	0.08
281.548	0.07
281.92	0.07
282.291	0.05
282.663	0.09
283.034	0.05
283.406	0.1
283.777	0.07
284.148	0.06
284.52	0.08
284.891	0.12
285.262	0.06
285.634	0.07
286.005	0.06
286.376	0.06
286.747	0.11
287.119	0.13
287.49	0.03
287.861	0.06
288.232	0.04
288.603	0.03
288.974	0.08
289.345	0.06
289.716	0.1
290.087	0.08
290.458	0.07
290.829	0.06
291.2	0.02
291.571	0.05
291.941	0.06
292.312	0.1
292.683	0.11
293.054	0.13
293.424	0.13
293.795	0.05
294.166	0.08
294.536	0.06
294.907	0.06
295.277	0.06
295.648	0.09
296.018	0.09
296.389	0.07
296.759	0.07
297.13	0.09
297.5	0.07
297.871	0.08
298.241	0.05
298.611	0.06
298.981	0.03
299.352	0.06
299.722	0.07
300.092	0.08
300.462	0.04
300.832	0.08
301.202	0.07
301.573	0.08
301.943	0.06
302.313	0.06
302.683	0.05
303.053	0.08
303.422	0.07
303.792	0.06
304.162	0.06
304.532	0.06
304.902	0.08
305.272	0.06
305.641	0.07
306.011	0.05
306.381	0.07
306.75	0.07
307.12	0.07
307.49	0.07
307.859	0.05
308.229	0.07
308.598	0.07
308.968	0.07
309.337	0.07
309.707	0.08
310.076	0.08
310.445	0.07
310.815	0.07
311.184	0.07
311.553	0.07
311.923	0.07
312.292	0.08
312.661	0.07
313.03	0.08
313.399	0.08
313.768	0.07
314.137	0.08
314.506	0.08
314.875	0.07
315.244	0.08
315.613	0.08
315.982	0.07
316.351	0.08
316.72	0.08
317.089	0.07
317.458	0.08
317.826	0.07
318.195	0.08
318.564	0.07
318.933	0.08
319.301	0.08
319.67	0.07
320.038	0.07
320.407	0.07
320.775	0.07
321.144	0.07
321.512	0.07
321.881	0.07
322.249	0.07
322.618	0.07
322.986	0.07
323.354	0.07
323.723	0.07
324.091	0.07
324.459	0.07
324.827	0.06
325.195	0.06
325.564	0.06
325.932	0.07
326.3	0.06
326.668	0.06
327.036	0.06
327.404	0.06
327.772	0.07
328.14	0.07
328.508	0.06
328.875	0.06
329.243	0.06
329.611	0.07
329.979	0.07
330.346	0.06
330.714	0.07
331.082	0.06
331.449	0.06
331.817	0.07
332.185	0.07
332.552	0.07
332.92	0.07
333.287	0.07
333.655	0.07
334.022	0.07
334.389	0.07
334.757	0.07
335.124	0.07
335.491	0.07
335.859	0.07
336.226	0.07
336.593	0.07
336.96	0.07
337.327	0.07
337.695	0.08
338.062	0.07
338.429	0.08
338.796	0.08
339.163	0.08
339.53	0.08
339.897	0.08
340.263	0.08
340.63	0.08
340.997	0.08
341.364	0.08
341.731	0.09
342.097	0.09
342.464	0.09
342.831	0.09
343.197	0.08
343.564	0.09
343.931	0.09
344.297	0.09
344.664	0.09
345.03	0.09
345.396	0.09
345.763	0.1
346.129	0.1
346.496	0.1
346.862	0.1
347.228	0.1
347.594	0.1
347.961	0.1
348.327	0.1
348.693	0.11
349.059	0.11
349.425	0.11
349.791	0.11
350.157	0.11
350.523	0.11
350.889	0.12
351.255	0.11
351.621	0.12
351.987	0.12
352.353	0.12
352.719	0.12
353.084	0.13
353.45	0.13
353.816	0.13
354.181	0.13
354.547	0.13
354.913	0.14
355.278	0.14
355.644	0.14
356.009	0.14
356.375	0.15
356.74	0.15
357.106	0.16
357.471	0.16
357.836	0.16
358.202	0.16
358.567	0.16
358.932	0.17
359.297	0.17
359.663	0.17
360.028	0.18
360.393	0.18
360.758	0.18
361.123	0.18
361.488	0.18
361.853	0.18
362.218	0.19
362.583	0.19
362.948	0.19
363.312	0.2
363.677	0.19
364.042	0.2
364.407	0.2
364.772	0.21
365.136	0.21
365.501	0.21
365.865	0.22
366.23	0.22
366.595	0.23
366.959	0.23
367.324	0.23
367.688	0.24
368.052	0.24
368.417	0.25
368.781	0.24
369.145	0.26
369.51	0.25
369.874	0.26
370.238	0.26
370.602	0.26
370.967	0.26
371.331	0.26
371.695	0.26
372.059	0.26
372.423	0.25
372.787	0.25
373.151	0.25
373.515	0.25
373.878	0.25
374.242	0.25
374.606	0.25
374.97	0.25
375.334	0.25
375.697	0.25
376.061	0.26
376.425	0.25
376.788	0.26
377.152	0.26
377.515	0.26
377.879	0.27
378.242	0.28
378.606	0.27
378.969	0.28
379.333	0.28
379.696	0.28
380.059	0.29
380.422	0.29
380.786	0.3
381.149	0.31
381.512	0.31
381.875	0.31
382.238	0.33
382.601	0.33
382.964	0.34
383.327	0.35
383.69	0.36
384.053	0.36
384.416	0.38
384.779	0.39
385.142	0.39
385.504	0.4
385.867	0.41
386.23	0.41
386.593	0.42
386.955	0.41
387.318	0.41
387.68	0.41
388.043	0.42
388.405	0.4
388.768	0.4
389.13	0.4
389.493	0.39
389.855	0.4
390.217	0.4
390.58	0.39
390.942	0.4
391.304	0.4
391.666	0.4
392.028	0.41
392.391	0.42
392.753	0.43
393.115	0.45
393.477	0.46
393.839	0.48
394.201	0.5
394.563	0.52
394.924	0.54
395.286	0.55
395.648	0.57
396.01	0.59
396.371	0.61
396.733	0.62
397.095	0.63
397.456	0.63
397.818	0.64
398.18	0.63
398.541	0.62
398.903	0.61
399.264	0.59
399.625	0.58
399.987	0.55
400.348	0.53
400.709	0.51
401.071	0.48
401.432	0.45
401.793	0.43
402.154	0.4
402.515	0.37
402.876	0.34
403.238	0.33
403.599	0.3
403.96	0.28
404.32	0.27
404.681	0.24
405.042	0.23
405.403	0.21
405.764	0.21
406.125	0.19
406.485	0.18
406.846	0.17
407.207	0.16
407.567	0.15
407.928	0.14
408.288	0.14
408.649	0.13
409.009	0.12
409.37	0.12
409.73	0.11
410.091	0.11
410.451	0.11
410.811	0.1
411.171	0.1
411.532	0.1
411.892	0.09
412.252	0.09
412.612	0.08
412.972	0.08
413.332	0.08
413.692	0.08
414.052	0.08
414.412	0.07
414.772	0.07
415.132	0.07
415.492	0.07
415.851	0.07
416.211	0.07
416.571	0.07
416.931	0.06
417.29	0.07
417.65	0.06
418.009	0.06
418.369	0.05
418.728	0.06
419.088	0.06
419.447	0.06
419.807	0.06
420.166	0.06
420.525	0.05
420.884	0.06
421.244	0.05
421.603	0.06
421.962	0.06
422.321	0.05
422.68	0.05
423.039	0.04
423.398	0.04
423.757	0.05
424.116	0.05
424.475	0.06
424.834	0.05
425.193	0.05
425.551	0.05
425.91	0.05
426.269	0.05
426.628	0.05
426.986	0.05
427.345	0.05
427.703	0.04
428.062	0.05
428.42	0.05
428.779	0.04
429.137	0.04
429.496	0.05
429.854	0.04
430.212	0.05
430.57	0.04
430.929	0.05
431.287	0.04
431.645	0.04
432.003	0.05
432.361	0.05
432.719	0.04
433.077	0.04
433.435	0.05
433.793	0.04
434.151	0.04
434.509	0.05
434.866	0.05
435.224	0.04
435.582	0.04
435.94	0.04
436.297	0.04
436.655	0.04
437.012	0.04
437.37	0.04
437.727	0.04
438.085	0.04
438.442	0.04
438.8	0.03
439.157	0.04
439.514	0.04
439.872	0.04
440.229	0.04
440.586	0.04
440.943	0.05
441.3	0.04
441.657	0.04
442.014	0.03
442.371	0.04
442.728	0.04
443.085	0.04
443.442	0.04
443.799	0.03
444.156	0.04
444.513	0.03
444.869	0.03
445.226	0.03
445.583	0.04
445.939	0.04
446.296	0.03
446.652	0.03
447.009	0.04
447.365	0.03
447.722	0.03
448.078	0.04
448.434	0.03
448.791	0.03
449.147	0.03
449.503	0.03
449.859	0.03
450.215	0.03
450.571	0.03
450.928	0.03
451.284	0.03
451.64	0.03
451.995	0.03
452.351	0.03
452.707	0.03
453.063	0.03
453.419	0.03
453.775	0.03
454.13	0.03
454.486	0.03
454.842	0.03
455.197	0.03
455.553	0.03
455.908	0.02
456.264	0.03
456.619	0.03
456.975	0.02
457.33	0.03
457.685	0.02
458.04	0.02
458.396	0.02
458.751	0.02
459.106	0.02
459.461	0.02
459.816	0.01
460.171	0.01
460.526	0.02
460.881	0.02
461.236	0.02
461.591	0.01
461.946	0.01
462.301	0.02
462.655	0.01
463.01	0.01
463.365	0.02
463.719	0
464.074	0
464.428	0.01
464.783	0
465.137	0.01
465.492	0.01
465.846	0.01
466.201	0
466.555	0.01
466.909	0
467.263	0
467.618	0
467.972	0.01
468.326	0
468.68	0.01
469.034	0
469.388	-0
469.742	0.01
470.096	0
470.45	0
470.804	0
471.157	-0
471.511	0.01
471.865	0.01
472.218	0.01
472.572	0.01
472.926	0
473.279	0
473.633	0.01
473.986	0
474.34	0
474.693	0.01
475.046	0.02
475.4	0.01
475.753	0.01
476.106	0.02
476.459	0.02
476.812	0.02
477.165	0.03
477.519	0.02
477.872	0.02
478.224	0.02
478.577	0.03
478.93	0.03
479.283	0.03
479.636	0.03
479.989	0.03
480.341	0.03
480.694	0.03
481.047	0.03
481.399	0.03
481.752	0.03
482.104	0.03
482.457	0.03
482.809	0.03
483.162	0.04
483.514	0.03
483.866	0.03
484.219	0.03
484.571	0.03
484.923	0.03
485.275	0.04
485.627	0.03
485.979	0.04
486.331	0.04
486.683	0.04
487.035	0.04
487.387	0.04
487.739	0.04
488.091	0.04
488.443	0.04
488.794	0.05
489.146	0.04
489.498	0.04
489.849	0.04
490.201	0.05
490.552	0.04
490.904	0.04
491.255	0.05
491.607	0.05
491.958	0.05
492.309	0.04
492.661	0.05
493.012	0.05
493.363	0.05
493.714	0.05
494.065	0.05
494.416	0.04
494.767	0.04
495.118	0.05
495.469	0.05
495.82	0.05
496.171	0.05
496.522	0.04
496.872	0.05
497.223	0.05
497.574	0.05
497.924	0.06
498.275	0.05
498.626	0.06
498.976	0.06
499.327	0.06
499.677	0.05
500.027	0.05
500.378	0.05
500.728	0.06
501.078	0.06
501.428	0.06
501.779	0.06
502.129	0.05
502.479	0.06
502.829	0.06
503.179	0.05
503.529	0.06
503.879	0.06
504.229	0.06
504.578	0.06
504.928	0.07
505.278	0.06
505.628	0.07
505.977	0.07
506.327	0.06
506.676	0.07
507.026	0.06
507.375	0.07
507.725	0.06
508.074	0.06
508.424	0.06
508.773	0.07
509.122	0.07
509.471	0.07
509.82	0.07
510.17	0.07
510.519	0.07
510.868	0.07
511.217	0.07
511.566	0.07
511.915	0.08
512.263	0.07
512.612	0.08
512.961	0.07
513.31	0.08
513.659	0.07
514.007	0.07
514.356	0.07
514.704	0.07
515.053	0.07
515.401	0.07
515.75	0.08
516.098	0.08
516.447	0.08
516.795	0.08
517.143	0.08
517.491	0.08
517.839	0.08
518.188	0.08
518.536	0.08
518.884	0.08
519.232	0.08
519.58	0.08
519.928	0.08
520.275	0.08
520.623	0.08
520.971	0.09
521.319	0.08
521.666	0.09
522.014	0.08
522.362	0.08
522.709	0.09
523.057	0.08
523.404	0.08
523.752	0.09
524.099	0.09
524.446	0.09
524.794	0.09
525.141	0.09
525.488	0.09
525.835	0.09
526.182	0.09
526.529	0.09
526.876	0.09
527.223	0.09
527.57	0.09
527.917	0.1
528.264	0.09
528.611	0.09
528.958	0.09
529.304	0.09
529.651	0.1
529.998	0.1
530.344	0.1
530.691	0.1
531.037	0.1
531.384	0.1
531.73	0.1
532.076	0.1
532.423	0.1
532.769	0.1
533.115	0.11
533.461	0.1
533.807	0.11
534.154	0.1
534.5	0.1
534.846	0.1
535.192	0.1
535.537	0.1
535.883	0.11
536.229	0.11
536.575	0.11
536.921	0.11
537.266	0.12
537.612	0.11
537.957	0.11
538.303	0.12
538.649	0.11
538.994	0.11
539.339	0.12
539.685	0.12
540.03	0.12
540.375	0.12
540.721	0.12
541.066	0.12
541.411	0.12
541.756	0.12
542.101	0.12
542.446	0.12
542.791	0.12
543.136	0.13
543.481	0.13
543.825	0.13
544.17	0.13
544.515	0.13
544.86	0.13
545.204	0.13
545.549	0.13
545.893	0.13
546.238	0.13
546.582	0.13
546.927	0.13
547.271	0.13
547.615	0.13
547.96	0.14
548.304	0.13
548.648	0.14
548.992	0.13
549.336	0.14
549.68	0.14
550.024	0.14
550.368	0.14
550.712	0.14
551.056	0.14
551.4	0.14
551.743	0.14
552.087	0.14
552.431	0.14
552.774	0.14
553.118	0.14
553.462	0.14
553.805	0.14
554.148	0.14
554.492	0.14
554.835	0.15
555.178	0.14
555.522	0.14
555.865	0.15
556.208	0.15
556.551	0.15
556.894	0.15
557.237	0.15
557.58	0.15
557.923	0.15
558.266	0.15
558.609	0.15
558.952	0.15
559.294	0.15
559.637	0.15
559.98	0.15
560.322	0.16
560.665	0.15
561.007	0.15
561.35	0.15
561.692	0.15
562.034	0.15
562.377	0.15
562.719	0.15
563.061	0.15
563.403	0.15
563.745	0.16
564.088	0.16
564.43	0.15
564.772	0.15
565.113	0.15
565.455	0.15
565.797	0.16
566.139	0.15
566.481	0.15
566.822	0.15
567.164	0.16
567.506	0.15
567.847	0.16
568.189	0.16
568.53	0.16
568.872	0.16
569.213	0.16
569.554	0.16
569.895	0.16
570.237	0.16
570.578	0.16
570.919	0.16
571.26	0.16
571.601	0.16
571.942	0.16
572.283	0.16
572.624	0.16
572.965	0.16
573.306	0.16
573.646	0.16
573.987	0.16
574.328	0.16
574.668	0.16
575.009	0.16
575.349	0.16
575.69	0.16
576.03	0.16
576.37	0.16
576.711	0.15
577.051	0.16
577.391	0.16
577.731	0.16
578.072	0.16
578.412	0.16
578.752	0.16
579.092	0.16
579.431	0.16
579.771	0.15
580.111	0.14
580.451	0.15
580.791	0.16
581.13	0.16
581.47	0.16
581.81	0.16
582.149	0.16
582.489	0.16
582.828	0.16
583.167	0.15
583.507	0.12
583.846	0.1
584.185	0.12
584.525	0.14
584.864	0.16
585.203	0.16
585.542	0.17
585.881	0.17
586.22	0.17
586.559	0.16
586.898	0.16
587.236	0.16
587.575	0.16
587.914	0.16
588.252	0.16
588.591	0.16
588.93	0.17
589.268	0.16
589.607	0.17
589.945	0.17
590.283	0.17
590.622	0.17
590.96	0.17
591.298	0.18
591.636	0.18
591.974	0.18
592.313	0.18
592.651	0.18
592.989	0.18
593.326	0.18
593.664	0.18
594.002	0.18
594.34	0.18
594.678	0.18
595.015	0.18
595.353	0.17
595.691	0.18
596.028	0.19
596.366	0.18
596.703	0.19
597.04	0.19
597.378	0.19
597.715	0.19
598.052	0.19
598.389	0.19
598.726	0.19
599.064	0.19
599.401	0.19
599.738	0.19
600.074	0.19
600.411	0.19
600.748	0.19
601.085	0.19
601.422	0.19
601.758	0.19
602.095	0.19
602.432	0.19
602.768	0.19
603.105	0.19
603.441	0.19
603.777	0.19
604.114	0.2
604.45	0.19
604.786	0.19
605.122	0.19
605.459	0.19
605.795	0.19
606.131	0.19
606.467	0.2
606.803	0.2
607.139	0.2
607.474	0.19
607.81	0.19
608.146	0.19
608.482	0.2
608.817	0.2
609.153	0.19
609.488	0.19
609.824	0.19
610.159	0.19
610.495	0.19
610.83	0.19
611.165	0.19
611.5	0.19
611.836	0.19
612.171	0.19
612.506	0.19
612.841	0.19
613.176	0.19
613.511	0.19
613.845	0.19
614.18	0.19
614.515	0.19
614.85	0.19
615.184	0.19
615.519	0.19
615.854	0.18
616.188	0.19
616.523	0.18
616.857	0.18
617.191	0.18
617.526	0.18
617.86	0.18
618.194	0.18
618.528	0.18
618.862	0.18
619.196	0.18
619.53	0.18
619.864	0.18
620.198	0.18
620.532	0.18
620.866	0.18
621.2	0.18
621.533	0.18
621.867	0.18
622.201	0.18
622.534	0.18
622.868	0.18
623.201	0.18
623.534	0.18
623.868	0.18
624.201	0.17
624.534	0.17
624.868	0.17
625.201	0.17
625.534	0.17
625.867	0.17
626.2	0.17
626.533	0.17
626.865	0.17
627.198	0.16
627.531	0.17
627.864	0.16
628.196	0.16
628.529	0.16
628.862	0.16
629.194	0.16
629.527	0.16
629.859	0.16
630.191	0.16
630.524	0.15
630.856	0.15
631.188	0.15
631.52	0.16
631.852	0.15
632.184	0.15
632.516	0.15
632.848	0.15
633.18	0.15
633.512	0.15
633.844	0.15
634.175	0.15
634.507	0.14
634.839	0.14
635.17	0.14
635.502	0.14
635.833	0.14
636.165	0.14
636.496	0.14
636.827	0.14
637.159	0.14
637.49	0.13
637.821	0.13
638.152	0.13
638.483	0.13
638.814	0.13
639.145	0.13
639.476	0.13
639.807	0.13
640.137	0.13
640.468	0.13
640.799	0.12
641.129	0.12
641.46	0.12
641.791	0.12
642.121	0.12
642.451	0.12
642.782	0.12
643.112	0.12
643.442	0.12
643.773	0.11
644.103	0.11
644.433	0.11
644.763	0.11
645.093	0.12
645.423	0.11
645.753	0.11
646.082	0.11
646.412	0.11
646.742	0.11
647.072	0.11
647.401	0.11
647.731	0.11
648.06	0.11
648.39	0.11
648.719	0.11
649.048	0.11
649.378	0.11
649.707	0.11
650.036	0.11
650.365	0.11
650.694	0.11
651.023	0.11
651.352	0.11
651.681	0.1
652.01	0.1
652.339	0.11
652.668	0.1
652.996	0.1
653.325	0.1
653.654	0.11
653.982	0.1
654.311	0.11
654.639	0.11
654.967	0.11
655.296	0.11
655.624	0.11
655.952	0.11
656.28	0.11
656.609	0.11
656.937	0.11
657.265	0.11
657.593	0.1
657.92	0
658.248	-0
658.576	0
658.904	0
659.231	0.07
659.559	0.11
659.887	0.11
660.214	0.11
660.542	0.11
660.869	0.11
661.196	0.11
661.524	0.11
661.851	0.1
662.178	0.1
662.505	0.1
662.832	0.1
663.159	0.1
663.486	0.1
663.813	0.1
664.14	0.1
664.467	0.1
664.794	0.1
665.12	0.1
665.447	0.1
665.774	0.1
666.1	0.1
666.427	0.1
666.753	0.1
667.079	0.1
667.406	0.1
667.732	0.1
668.058	0.1
668.384	0.1
668.71	0.1
669.036	0.1
669.362	0.09
669.688	0.09
670.014	0.1
670.34	0.09
670.666	0.09
670.991	0.1
671.317	0.1
671.643	0.09
671.968	0.09
672.294	0.09
672.619	0.09
672.945	0.09
673.27	0.09
673.595	0.09
673.92	0.09
674.246	0.09
674.571	0.09
674.896	0.09
675.221	0.09
675.546	0.09
675.87	0.09
676.195	0.09
676.52	0.09
676.845	0.08
677.169	0.09
677.494	0.08
677.819	0.08
678.143	0.08
678.468	0.08
678.792	0.08
679.116	0.08
679.44	0.08
679.765	0.08
680.089	0.08
680.413	0.07
680.737	0.08
681.061	0.08
681.385	0.08
681.709	0.08
682.033	0.07
682.356	0.08
682.68	0.08
683.004	0.07
683.327	0.07
683.651	0.07
683.974	0.07
684.298	0.07
684.621	0.07
684.944	0.07
685.268	0.07
685.591	0.07
685.914	0.07
686.237	0.07
686.56	0.06
686.883	0.06
687.206	0.06
687.529	0.06
687.852	0.06
688.175	0.06
688.497	0.06
688.82	0.06
689.142	0.06
689.465	0.06
689.787	0.06
690.11	0.06
690.432	0.06
690.755	0.06
691.077	0.06
691.399	0.06
691.721	0.05
692.043	0.05
692.365	0.05
692.687	0.05
693.009	0.05
693.331	0.05
693.653	0.05
693.974	0.05
694.296	0.05
694.618	0.05
694.939	0.06
695.261	0.06
695.582	0.05
695.904	0.06
696.225	0.05
696.546	0.05
696.868	0.05
697.189	0.05
697.51	0.05
697.831	0.04
698.152	0.05
698.473	0.05
698.794	0.04
699.114	0.04
699.435	0.04
699.756	0.05
700.077	0.05
700.397	0.05
700.718	0.04
701.038	0.04
701.359	0.04
701.679	0.04
701.999	0.04
702.32	0.04
702.64	0.04
702.96	0.04
703.28	0.04
703.6	0.04
703.92	0.04
704.24	0.04
704.56	0.04
704.879	0.04
705.199	0.04
705.519	0.04
705.838	0.04
706.158	0.04
706.478	0.05
706.797	0.05
707.116	0.05
707.436	0.05
707.755	0.05
708.074	0.05
708.393	0.05
708.712	0.05
709.031	0.04
709.35	0.05
709.669	0.04
709.988	0.04
710.307	0.04
710.626	0.04
710.944	0.04
711.263	0.04
711.582	0.04
711.9	0.04
712.219	0.04
712.537	0.04
712.855	0.04
713.174	0.04
713.492	0.04
713.81	0.04
714.128	0.04
714.446	0.05
714.764	0.05
715.082	0.04
715.4	0.04
715.718	0.05
716.035	0.04
716.353	0.04
716.671	0.04
716.988	0.04
717.306	0.04
717.623	0.04
717.941	0.04
718.258	0.04
718.575	0.04
718.893	0.04
719.21	0.04
719.527	0.04
719.844	0.04
720.161	0.04
720.478	0.04
720.795	0.05
721.112	0.05
721.428	0.05
721.745	0.05
722.062	0.05
722.378	0.05
722.695	0.05
723.011	0.05
723.328	0.05
723.644	0.05
723.96	0.05
724.276	0.05
724.593	0.05
724.909	0.05
725.225	0.05
725.541	0.05
725.857	0.05
726.173	0.05
726.488	0.05
726.804	0.05
727.12	0.05
727.435	0.05
727.751	0.05
728.067	0.05
728.382	0.05
728.697	0.05
729.013	0.05
729.328	0.05
729.643	0.05
729.958	0.05
730.273	0.05
730.588	0.05
730.903	0.05
731.218	0.05
731.533	0.05
731.848	0.05
732.163	0.05
732.477	0.04
732.792	0.05
733.107	0.04
733.421	0.04
733.736	0.04
734.05	0.04
734.364	0.05
734.678	0.04
734.993	0.04
735.307	0.05
735.621	0.05
735.935	0.05
736.249	0.05
736.563	0.05
736.877	0.05
737.19	0.05
737.504	0.05
737.818	0.05
738.131	0.05
738.445	0.05
738.758	0.05
739.072	0.05
739.385	0.05
739.698	0.05
740.012	0.05
740.325	0.04
740.638	0.05
740.951	0.05
741.264	0.04
741.577	0.05
741.89	0.04
742.203	0.04
742.515	0.04
742.828	0.04
743.141	0.05
743.453	0.04
743.766	0.04
744.078	0.05
744.391	0.05
744.703	0.04
745.015	0.04
745.327	0.04
745.639	0.04
745.952	0.04
746.264	0.04
746.575	0.04
746.887	0.04
747.199	0.04
747.511	0.04
747.823	0.04
748.134	0.03
748.446	0.03
748.757	0.03
749.069	0.04
749.38	0.04
749.692	0.04
750.003	0.04
750.314	0.04
750.625	0.04
750.936	0.04
751.248	0.04
751.559	0.04
751.869	0.04
752.18	0.04
752.491	0.04
752.802	0.04
753.112	0.04
753.423	0.04
753.734	0.03
754.044	0.03
754.355	0.04
754.665	0.04
754.975	0.03
755.285	0.03
755.596	0.03
755.906	0.03
756.216	0.03
756.526	0.03
756.836	0.03
757.146	0.03
757.455	0.03
757.765	0.03
758.075	0.03
758.385	0.02
758.694	0.02
759.004	0.02
759.313	0.02
759.622	0.02
759.932	0.02
760.241	0.02
760.55	0.02
760.859	0.02
761.168	0.02
761.477	0.02
761.786	0.02
762.095	0.03
762.404	0.03
762.713	0.03
763.021	0.03
763.33	0.03
763.639	0.03
763.947	0.03
764.256	0.03
764.564	0.03
764.872	0.02
765.181	0.02
765.489	0.02
765.797	0.02
766.105	0.02
766.413	0.02
766.721	0.02
767.029	0.02
767.337	0.02
767.644	0.02
767.952	0.02
768.26	0.02
768.567	0.02
768.875	0.02
769.182	0.02
769.49	0.02
769.797	0.02
770.104	0.02
770.411	0.02
770.718	0.02
771.026	0.02
771.333	0.02
771.639	0.03
771.946	0.02
772.253	0.02
772.56	0.02
772.867	0.02
773.173	0.02
773.48	0.02
773.786	0.02
774.093	0.02
774.399	0.02
774.705	0.02
775.012	0.02
775.318	0.02
775.624	0.02
775.93	0.02
776.236	0.02
776.542	0.02
776.848	0.02
777.154	0.02
777.459	0.02
777.765	0.02
778.071	0.02
778.376	0.02
778.682	0.01
778.987	0.01
779.292	0.01
779.598	0.01
779.903	0.01
780.208	0.01
780.513	0.01
780.818	0.02
781.123	0.02
781.428	0.02
781.733	0.02
782.038	0.01
782.343	0.01
782.647	0.01
782.952	0.01
783.256	0.01
783.561	0.01
783.865	0.01
784.17	0.01
784.474	0.01
784.778	0.02
785.082	0.01
785.386	0.01
785.69	0.01
785.994	0.01
786.298	0.01
786.602	0.01
786.906	0.01
787.209	0
787.513	0.01
787.817	0.01
788.12	0
788.424	0
788.727	0
789.03	0
789.333	0
789.637	0
789.94	0.01
790.243	0.01
790.546	0.01
790.849	0.01
791.152	0.01
791.454	0.01
791.757	0.01
792.06	0.01
792.362	0
792.665	0
792.967	-0
793.27	-0
793.572	-0
793.874	-0
794.177	-0.01
794.479	-0.01
794.781	-0
795.083	0
795.385	0
795.687	0
795.989	0.01
796.29	0.01
796.592	0.01
796.894	0
797.195	0
797.497	0
797.798	-0
798.1	0
798.401	-0
798.702	-0
799.003	-0.01
799.304	-0
799.605	-0.01
799.906	-0.01
800.207	-0.01
800.508	-0.01
800.809	-0.01
801.11	-0.01
801.41	-0.01
801.711	-0
802.011	-0.01
802.312	-0.01
802.612	-0
802.913	-0
803.213	-0
803.513	-0
803.813	-0
804.113	0
804.413	0
804.713	-0
805.013	-0
805.313	-0.01
805.613	0
805.912	-0.01
806.212	-0
806.511	0
806.811	-0
807.11	-0
807.41	-0
807.709	-0
808.008	0
808.307	0
808.606	0
808.905	-0
809.204	-0.01
809.503	-0.01
809.802	-0.01
810.101	-0.01
810.399	-0
810.698	-0.01
810.997	-0.01
811.295	-0.01
811.593	-0.01
811.892	-0.01
812.19	-0.01
812.488	-0.01
812.786	-0
813.084	-0
813.383	-0.01
813.68	-0.01
813.978	-0.01
814.276	-0.01
814.574	-0.01
814.872	-0.01
815.169	-0.01
815.467	-0.01
815.764	-0.01
816.062	-0.01
816.359	-0.02
816.656	-0.01
816.954	-0.01
817.251	-0.02
817.548	-0.02
817.845	-0.02
818.142	-0.02
818.439	-0.02
818.735	-0.01
819.032	-0.01
819.329	-0.01
819.626	-0.02
819.922	-0.02
820.219	-0.02
820.515	-0.02
820.811	-0.03
821.108	-0.03
821.404	-0.02
821.7	-0.03
821.996	-0.03
822.292	-0.03
822.588	-0.02
822.884	-0.02
823.18	-0.03
823.475	-0.03
823.771	-0.03
824.067	-0.03
824.362	-0.03
824.658	-0.03
824.953	-0.03
825.249	-0.03
825.544	-0.02
825.839	-0.02
826.134	-0.03
826.429	-0.03
826.724	-0.03
827.019	-0.03
827.314	-0.03
827.609	-0.03
827.904	-0.03
828.198	-0.03
828.493	-0.02
828.787	-0.02
829.082	-0.02
829.376	-0.02
829.671	-0.02
829.965	-0.02
830.259	-0.02
830.553	-0.02
830.847	-0.03
831.141	-0.03
831.435	-0.03
831.729	-0.03
832.023	-0.04
832.317	-0.04
832.61	-0.04
832.904	-0.04
833.197	-0.04
833.491	-0.03
833.784	-0.03
834.077	-0.03
834.371	-0.04
834.664	-0.03
834.957	-0.03
835.25	-0.05
835.543	-0.03
835.836	-0.04
836.129	-0.03
836.421	-0.04
836.714	-0.04
837.007	-0.04
837.299	-0.04
837.592	-0.04
837.884	-0.04
838.177	-0.04
838.469	-0.04
838.761	-0.03
839.053	-0.03
839.345	-0.02
839.637	-0.03
839.929	-0.03
840.221	-0.03
840.513	-0.04
840.805	-0.04
841.096	-0.03
841.388	-0.04
841.68	-0.03
841.971	-0.04
842.262	-0.03
842.554	-0.04
842.845	-0.04
843.136	-0.03
843.427	-0.03
843.718	-0.04
844.009	-0.03
844.3	-0.03
844.591	-0.03
844.882	-0.04
845.173	-0.04
845.463	-0.05
845.754	-0.05
846.044	-0.04
846.335	-0.03
846.625	-0.05
846.915	-0.04
847.206	-0.03
847.496	-0.03
847.786	-0.05
848.076	-0.04
848.366	-0.04
848.656	-0.04
848.945	-0.04
849.235	-0.04
849.525	-0.03
849.814	-0.03
850.104	-0.04
850.393	-0.04
850.683	-0.04
850.972	-0.03
851.261	-0.04
851.551	-0.03
851.84	-0.03
852.129	-0.03
852.418	-0.04
852.707	-0.04
852.995	-0.04
853.284	-0.04
853.573	-0.04
853.862	-0.03
854.15	-0.03
854.439	-0.04
854.727	-0.04
855.015	-0.04
855.304	-0.03
855.592	-0.04
855.88	-0.04
856.168	-0.03
856.456	-0.03
856.744	-0.04
857.032	-0.04
857.32	-0.04
857.607	-0.04
857.895	-0.04
858.183	-0.04
858.47	-0.04
858.757	-0.04
859.045	-0.04
859.332	-0.03
859.619	-0.03
859.907	-0.03
860.194	-0.04
860.481	-0.03
860.768	-0.03
861.054	-0.04
861.341	-0.03
861.628	-0.04
861.915	-0.02
862.201	-0.04
862.488	-0.05
862.774	-0.05
863.061	-0.04
863.347	-0.03
863.633	-0.04
863.919	-0.05
864.205	-0.05
864.491	-0.04
864.777	-0.04
865.063	-0.07
865.349	-0.04
865.635	-0.04
865.92	-0.02
866.206	-0.04
866.492	-0.06
866.777	-0.07
867.062	-0.02
867.348	-0.05
867.633	-0.07
867.918	-0.07
868.203	-0.05
868.488	-0.05
868.773	-0.04
869.058	-0.05
869.343	-0.04
869.628	-0.04
869.912	-0.1
870.197	-0.08
870.482	-0.06
870.766	-0.02
871.05	-0.06
871.335	-0.02
871.619	-0.06
871.903	-0.07
872.187	-0.05
872.471	-0.08
872.755	-0.01
873.039	-0.05
873.323	-0.05
873.607	-0
873.89	-0.1
874.174	-0.07
874.458	-0.1
874.741	-0.01
875.024	-0.02
875.308	-0.11
875.591	-0
875.874	-0.03
876.157	-0.04
876.44	-0.07
876.723	-0.1
877.006	0.01
877.289	-0.03
877.572	0.02
877.854	0.03
878.137	-0.11
878.42	-0.03
878.702	-0.05
878.984	-0.06
879.267	0.01
879.549	-0.03
879.831	0.01
880.113	-0.17
880.395	0.03
880.677	-0.05
880.959	0.05
