Data from Rubpy_EV_300_EDTA_Buffered_Absorbance_12-18-56-218.txt Node
Date: Tue Jun 30 12:18:56 BST 2026
User: fpm-admin
Spectrometer: OFX00224
Trigger mode: 0
Integration Time (sec): 7.000000E-2
Scans to average: 3
Nonlinearity correction enabled: false
Boxcar width: 0
Storing dark spectrum: false
XAxis mode: Wavelengths
Number of Pixels in Spectrum: 2136
>>>>>Begin Spectral Data<<<<<
154.91	-0
155.289	-0
155.669	0.48
156.048	-0.8
156.428	0.17
156.807	0.93
157.186	-0
157.566	-0
157.945	-0
158.325	-0
158.704	-0
159.083	0.21
159.462	-0.13
159.842	-1
160.221	-0.53
160.6	-0.2
160.979	-0
161.359	-1.45
161.738	-0
162.117	-0
162.496	-1.08
162.875	-0.83
163.254	-0.72
163.633	-0
164.012	-0
164.391	-0.18
164.77	-0
165.149	-0.19
165.528	0.02
165.907	-0
166.286	-0.7
166.665	-0.12
167.044	-0
167.423	-0
167.802	-0
168.181	-0.25
168.559	-0
168.938	-0.21
169.317	-0
169.696	-0
170.074	-0
170.453	0.02
170.832	-0
171.21	-0.61
171.589	0.81
171.968	-0
172.346	0.02
172.725	-0
173.103	0.75
173.482	0.02
173.861	-0.85
174.239	-0
174.617	-0
174.996	-0.49
175.374	-1.58
175.753	-0.67
176.131	-0
176.51	0.35
176.888	-0
177.266	-0
177.645	0.03
178.023	0.1
178.401	-0.41
178.779	0.21
179.158	-0.29
179.536	-0
179.914	1.2
180.292	-0.49
180.67	-0
181.048	-0
181.427	0.33
181.805	0.78
182.183	-0.88
182.561	-0.21
182.939	0.53
183.317	-0.07
183.695	-0
184.073	-0.18
184.451	-0
184.829	-0.36
185.206	-0.26
185.584	-1.21
185.962	-0.92
186.34	-0
186.718	-0
187.096	-0.18
187.473	-0
187.851	-0.44
188.229	0.62
188.607	0.01
188.984	-0.02
189.362	-0.02
189.74	0.05
190.117	0.03
190.495	-0
190.872	0.05
191.25	0.01
191.627	-0.05
192.005	-0.03
192.382	0.02
192.76	0.01
193.137	0.08
193.515	0.03
193.892	0.02
194.269	-0.04
194.647	0.01
195.024	-0.05
195.401	0.06
195.779	0.09
196.156	0.09
196.533	0.07
196.91	0.05
197.288	0.01
197.665	-0.01
198.042	0.16
198.419	0.02
198.796	0.25
199.173	-0
199.55	0.05
199.927	0.08
200.304	-0.12
200.681	0.08
201.058	0.04
201.435	0.12
201.812	0.02
202.189	0.06
202.566	0.02
202.943	0.07
203.32	0.09
203.697	0.1
204.073	-0.03
204.45	0.13
204.827	0.13
205.204	0.01
205.58	0.1
205.957	-0.01
206.334	0.04
206.71	0.07
207.087	0.05
207.464	0.05
207.84	-0.01
208.217	0.03
208.593	0.02
208.97	0.03
209.346	0.08
209.723	0.02
210.099	0.03
210.476	0.14
210.852	0.03
211.228	0.1
211.605	0.08
211.981	0.09
212.357	-0.05
212.733	0.07
213.11	0.13
213.486	0.13
213.862	0.11
214.238	-0.02
214.614	0.03
214.991	0.05
215.367	-0.02
215.743	0.13
216.119	-0.01
216.495	0.06
216.871	0.06
217.247	0.04
217.623	0.05
217.999	0.06
218.375	0.06
218.751	0.13
219.127	0.02
219.502	0.15
219.878	0.14
220.254	0.12
220.63	0.13
221.006	0.08
221.381	0.09
221.757	0.08
222.133	0.11
222.508	0.05
222.884	0.09
223.26	0.14
223.635	0.1
224.011	0.06
224.386	0.06
224.762	0.05
225.137	-0.03
225.513	0.01
225.888	0.11
226.264	0.01
226.639	0.09
227.014	0.09
227.39	0.04
227.765	0.1
228.14	0.04
228.516	-0.01
228.891	0.01
229.266	0.02
229.641	0.08
230.017	0.04
230.392	0.01
230.767	0.1
231.142	-0.01
231.517	-0.03
231.892	0.1
232.267	-0.04
232.642	0.11
233.017	0.19
233.392	0.06
233.767	0.11
234.142	-0.01
234.517	0.08
234.892	0.04
235.267	0.05
235.641	0.08
236.016	0.09
236.391	0.09
236.766	0.09
237.14	-0.01
237.515	0.08
237.89	0.12
238.264	0.06
238.639	-0.01
239.014	0
239.388	-0.02
239.763	0.04
240.137	0
240.512	-0.02
240.886	-0.02
241.261	0.09
241.635	0.04
242.009	0.1
242.384	0.02
242.758	-0.03
243.132	0.15
243.507	0.1
243.881	0.1
244.255	0.04
244.629	0.04
245.004	0.12
245.378	0.04
245.752	0.09
246.126	0.06
246.5	0.11
246.874	0.1
247.248	0.01
247.622	0.06
247.996	0.11
248.37	0.07
248.744	0.02
249.118	0.06
249.492	0.1
249.866	0.02
250.24	0.04
250.613	0.08
250.987	-0
251.361	-0.01
251.735	0.07
252.108	0.08
252.482	0.12
252.856	0.04
253.229	0.05
253.603	0.03
253.977	0.18
254.35	0.06
254.724	0.06
255.097	0.04
255.471	0.1
255.844	0.08
256.218	0.12
256.591	0
256.964	0.12
257.338	0.05
257.711	0.07
258.084	0.06
258.458	0.06
258.831	0.04
259.204	0.01
259.577	0.07
259.95	0.02
260.323	0.14
260.697	0.02
261.07	0.01
261.443	-0.03
261.816	0.11
262.189	-0.03
262.562	0.07
262.935	0.05
263.308	0
263.68	0.08
264.053	0.06
264.426	0.02
264.799	0.01
265.172	-0.01
265.545	0.03
265.917	0.05
266.29	0.06
266.663	0.02
267.035	0.04
267.408	0.03
267.781	0.07
268.153	0.01
268.526	0.03
268.898	0.04
269.271	0.09
269.643	0.01
270.016	0.02
270.388	0.03
270.76	0.08
271.133	0.04
271.505	0.01
271.877	-0.01
272.25	0.08
272.622	0.06
272.994	0.1
273.366	0.08
273.739	0.08
274.111	0.04
274.483	0.05
274.855	0.04
275.227	0.09
275.599	0.06
275.971	0.04
276.343	0.04
276.715	0.04
277.087	0.07
277.459	0.05
277.831	0.08
278.203	0.08
278.574	0.07
278.946	0.05
279.318	0.12
279.69	0.09
280.061	0.07
280.433	0.08
280.805	0.07
281.176	0.09
281.548	0.03
281.92	0.08
282.291	0.06
282.663	0.02
283.034	0.06
283.406	0.09
283.777	0.07
284.148	0.02
284.52	0.06
284.891	0.1
285.262	0.07
285.634	0.06
286.005	0.08
286.376	0.05
286.747	0.09
287.119	0.09
287.49	0.03
287.861	0.08
288.232	0.04
288.603	0.06
288.974	0.07
289.345	0.07
289.716	0.02
290.087	0.08
290.458	0.04
290.829	0.12
291.2	0.04
291.571	0.06
291.941	0.08
292.312	0.05
292.683	0.04
293.054	0.05
293.424	0.03
293.795	0.05
294.166	0.05
294.536	0.08
294.907	0.1
295.277	0.08
295.648	0.06
296.018	0.07
296.389	0.07
296.759	0.07
297.13	0.07
297.5	0.08
297.871	0.07
298.241	0.05
298.611	0.07
298.981	0.02
299.352	0.06
299.722	0.08
300.092	0.08
300.462	0.03
300.832	0.05
301.202	0.07
301.573	0.06
301.943	0.05
302.313	0.05
302.683	0.04
303.053	0.06
303.422	0.05
303.792	0.07
304.162	0.06
304.532	0.06
304.902	0.06
305.272	0.05
305.641	0.07
306.011	0.05
306.381	0.07
306.75	0.06
307.12	0.06
307.49	0.07
307.859	0.06
308.229	0.06
308.598	0.07
308.968	0.07
309.337	0.07
309.707	0.08
310.076	0.07
310.445	0.07
310.815	0.07
311.184	0.07
311.553	0.07
311.923	0.07
312.292	0.08
312.661	0.08
313.03	0.07
313.399	0.08
313.768	0.07
314.137	0.07
314.506	0.07
314.875	0.07
315.244	0.07
315.613	0.08
315.982	0.07
316.351	0.08
316.72	0.08
317.089	0.08
317.458	0.07
317.826	0.07
318.195	0.07
318.564	0.07
318.933	0.08
319.301	0.07
319.67	0.07
320.038	0.07
320.407	0.07
320.775	0.07
321.144	0.07
321.512	0.07
321.881	0.07
322.249	0.07
322.618	0.07
322.986	0.06
323.354	0.06
323.723	0.06
324.091	0.07
324.459	0.07
324.827	0.06
325.195	0.06
325.564	0.06
325.932	0.07
326.3	0.06
326.668	0.06
327.036	0.06
327.404	0.06
327.772	0.06
328.14	0.06
328.508	0.06
328.875	0.06
329.243	0.06
329.611	0.06
329.979	0.06
330.346	0.06
330.714	0.06
331.082	0.06
331.449	0.06
331.817	0.07
332.185	0.07
332.552	0.07
332.92	0.06
333.287	0.07
333.655	0.06
334.022	0.06
334.389	0.07
334.757	0.07
335.124	0.06
335.491	0.07
335.859	0.07
336.226	0.06
336.593	0.07
336.96	0.07
337.327	0.07
337.695	0.07
338.062	0.07
338.429	0.07
338.796	0.07
339.163	0.07
339.53	0.08
339.897	0.07
340.263	0.07
340.63	0.07
340.997	0.08
341.364	0.08
341.731	0.08
342.097	0.08
342.464	0.08
342.831	0.08
343.197	0.08
343.564	0.08
343.931	0.08
344.297	0.08
344.664	0.09
345.03	0.09
345.396	0.09
345.763	0.09
346.129	0.09
346.496	0.09
346.862	0.09
347.228	0.1
347.594	0.1
347.961	0.1
348.327	0.09
348.693	0.1
349.059	0.1
349.425	0.11
349.791	0.1
350.157	0.1
350.523	0.11
350.889	0.11
351.255	0.11
351.621	0.11
351.987	0.12
352.353	0.12
352.719	0.12
353.084	0.12
353.45	0.12
353.816	0.13
354.181	0.13
354.547	0.13
354.913	0.13
355.278	0.14
355.644	0.14
356.009	0.14
356.375	0.15
356.74	0.15
357.106	0.15
357.471	0.15
357.836	0.15
358.202	0.15
358.567	0.16
358.932	0.16
359.297	0.16
359.663	0.17
360.028	0.17
360.393	0.17
360.758	0.18
361.123	0.18
361.488	0.18
361.853	0.18
362.218	0.18
362.583	0.18
362.948	0.19
363.312	0.19
363.677	0.19
364.042	0.19
364.407	0.2
364.772	0.2
365.136	0.2
365.501	0.21
365.865	0.22
366.23	0.22
366.595	0.23
366.959	0.23
367.324	0.23
367.688	0.24
368.052	0.24
368.417	0.24
368.781	0.24
369.145	0.25
369.51	0.25
369.874	0.25
370.238	0.25
370.602	0.25
370.967	0.25
371.331	0.25
371.695	0.25
372.059	0.25
372.423	0.25
372.787	0.25
373.151	0.25
373.515	0.25
373.878	0.25
374.242	0.25
374.606	0.25
374.97	0.24
375.334	0.25
375.697	0.25
376.061	0.25
376.425	0.25
376.788	0.26
377.152	0.26
377.515	0.26
377.879	0.26
378.242	0.27
378.606	0.27
378.969	0.27
379.333	0.27
379.696	0.27
380.059	0.28
380.422	0.29
380.786	0.29
381.149	0.3
381.512	0.31
381.875	0.31
382.238	0.32
382.601	0.33
382.964	0.34
383.327	0.35
383.69	0.36
384.053	0.37
384.416	0.37
384.779	0.38
385.142	0.39
385.504	0.4
385.867	0.4
386.23	0.41
386.593	0.41
386.955	0.41
387.318	0.41
387.68	0.41
388.043	0.41
388.405	0.4
388.768	0.4
389.13	0.4
389.493	0.39
389.855	0.39
390.217	0.39
390.58	0.39
390.942	0.4
391.304	0.4
391.666	0.4
392.028	0.41
392.391	0.41
392.753	0.43
393.115	0.44
393.477	0.46
393.839	0.47
394.201	0.49
394.563	0.51
394.924	0.53
395.286	0.55
395.648	0.57
396.01	0.59
396.371	0.61
396.733	0.62
397.095	0.63
397.456	0.63
397.818	0.64
398.18	0.63
398.541	0.62
398.903	0.61
399.264	0.6
399.625	0.58
399.987	0.55
400.348	0.52
400.709	0.5
401.071	0.48
401.432	0.45
401.793	0.42
402.154	0.4
402.515	0.37
402.876	0.34
403.238	0.32
403.599	0.3
403.96	0.28
404.32	0.26
404.681	0.24
405.042	0.23
405.403	0.21
405.764	0.19
406.125	0.18
406.485	0.17
406.846	0.16
407.207	0.15
407.567	0.14
407.928	0.14
408.288	0.13
408.649	0.13
409.009	0.12
409.37	0.11
409.73	0.11
410.091	0.1
410.451	0.1
410.811	0.09
411.171	0.1
411.532	0.09
411.892	0.09
412.252	0.08
412.612	0.08
412.972	0.08
413.332	0.08
413.692	0.08
414.052	0.07
414.412	0.08
414.772	0.07
415.132	0.06
415.492	0.07
415.851	0.07
416.211	0.06
416.571	0.06
416.931	0.06
417.29	0.06
417.65	0.06
418.009	0.06
418.369	0.05
418.728	0.05
419.088	0.05
419.447	0.06
419.807	0.05
420.166	0.06
420.525	0.05
420.884	0.05
421.244	0.05
421.603	0.06
421.962	0.05
422.321	0.05
422.68	0.05
423.039	0.04
423.398	0.04
423.757	0.05
424.116	0.05
424.475	0.05
424.834	0.05
425.193	0.05
425.551	0.04
425.91	0.05
426.269	0.05
426.628	0.05
426.986	0.05
427.345	0.04
427.703	0.05
428.062	0.04
428.42	0.05
428.779	0.05
429.137	0.05
429.496	0.04
429.854	0.04
430.212	0.05
430.57	0.04
430.929	0.04
431.287	0.04
431.645	0.04
432.003	0.04
432.361	0.04
432.719	0.04
433.077	0.04
433.435	0.04
433.793	0.04
434.151	0.03
434.509	0.05
434.866	0.04
435.224	0.04
435.582	0.04
435.94	0.04
436.297	0.04
436.655	0.04
437.012	0.04
437.37	0.04
437.727	0.04
438.085	0.04
438.442	0.04
438.8	0.03
439.157	0.04
439.514	0.04
439.872	0.05
440.229	0.04
440.586	0.03
440.943	0.04
441.3	0.03
441.657	0.02
442.014	0.03
442.371	0.04
442.728	0.04
443.085	0.04
443.442	0.04
443.799	0.04
444.156	0.03
444.513	0.04
444.869	0.03
445.226	0.03
445.583	0.03
445.939	0.03
446.296	0.03
446.652	0.04
447.009	0.04
447.365	0.03
447.722	0.03
448.078	0.03
448.434	0.03
448.791	0.03
449.147	0.03
449.503	0.03
449.859	0.02
450.215	0.03
450.571	0.03
450.928	0.03
451.284	0.03
451.64	0.02
451.995	0.03
452.351	0.02
452.707	0.03
453.063	0.03
453.419	0.03
453.775	0.03
454.13	0.03
454.486	0.03
454.842	0.02
455.197	0.02
455.553	0.02
455.908	0.02
456.264	0.02
456.619	0.02
456.975	0.02
457.33	0.03
457.685	0.03
458.04	0.02
458.396	0.02
458.751	0.02
459.106	0.02
459.461	0.01
459.816	0.01
460.171	0.01
460.526	0.02
460.881	0.01
461.236	0.01
461.591	0.01
461.946	0.01
462.301	0.01
462.655	0.01
463.01	0.01
463.365	0.01
463.719	0
464.074	0
464.428	0
464.783	0
465.137	0.01
465.492	0
465.846	0.01
466.201	-0
466.555	0
466.909	0
467.263	0
467.618	0
467.972	0
468.326	0
468.68	0
469.034	0.01
469.388	0
469.742	0.01
470.096	-0
470.45	0.01
470.804	-0
471.157	-0
471.511	0.01
471.865	0
472.218	0.01
472.572	-0
472.926	-0
473.279	0
473.633	0
473.986	0
474.34	0.01
474.693	0
475.046	0.01
475.4	0.01
475.753	0.01
476.106	0.01
476.459	0.02
476.812	0.01
477.165	0.02
477.519	0.02
477.872	0.02
478.224	0.02
478.577	0.02
478.93	0.02
479.283	0.02
479.636	0.02
479.989	0.02
480.341	0.02
480.694	0.02
481.047	0.03
481.399	0.03
481.752	0.02
482.104	0.03
482.457	0.03
482.809	0.03
483.162	0.03
483.514	0.03
483.866	0.03
484.219	0.03
484.571	0.03
484.923	0.03
485.275	0.03
485.627	0.03
485.979	0.04
486.331	0.04
486.683	0.03
487.035	0.03
487.387	0.04
487.739	0.04
488.091	0.04
488.443	0.04
488.794	0.04
489.146	0.03
489.498	0.04
489.849	0.04
490.201	0.04
490.552	0.04
490.904	0.04
491.255	0.04
491.607	0.04
491.958	0.04
492.309	0.04
492.661	0.04
493.012	0.04
493.363	0.04
493.714	0.04
494.065	0.04
494.416	0.04
494.767	0.04
495.118	0.04
495.469	0.04
495.82	0.04
496.171	0.04
496.522	0.04
496.872	0.05
497.223	0.05
497.574	0.04
497.924	0.05
498.275	0.05
498.626	0.05
498.976	0.05
499.327	0.05
499.677	0.04
500.027	0.05
500.378	0.05
500.728	0.05
501.078	0.05
501.428	0.05
501.779	0.05
502.129	0.05
502.479	0.05
502.829	0.05
503.179	0.05
503.529	0.05
503.879	0.05
504.229	0.05
504.578	0.05
504.928	0.06
505.278	0.06
505.628	0.06
505.977	0.06
506.327	0.06
506.676	0.06
507.026	0.06
507.375	0.06
507.725	0.06
508.074	0.06
508.424	0.06
508.773	0.06
509.122	0.06
509.471	0.06
509.82	0.07
510.17	0.06
510.519	0.06
510.868	0.06
511.217	0.06
511.566	0.07
511.915	0.07
512.263	0.07
512.612	0.07
512.961	0.07
513.31	0.07
513.659	0.07
514.007	0.07
514.356	0.07
514.704	0.07
515.053	0.07
515.401	0.07
515.75	0.07
516.098	0.07
516.447	0.07
516.795	0.07
517.143	0.07
517.491	0.07
517.839	0.07
518.188	0.07
518.536	0.08
518.884	0.08
519.232	0.08
519.58	0.08
519.928	0.07
520.275	0.07
520.623	0.07
520.971	0.08
521.319	0.08
521.666	0.08
522.014	0.08
522.362	0.08
522.709	0.08
523.057	0.08
523.404	0.08
523.752	0.08
524.099	0.08
524.446	0.08
524.794	0.08
525.141	0.08
525.488	0.08
525.835	0.08
526.182	0.08
526.529	0.09
526.876	0.08
527.223	0.09
527.57	0.09
527.917	0.09
528.264	0.08
528.611	0.09
528.958	0.08
529.304	0.09
529.651	0.09
529.998	0.09
530.344	0.09
530.691	0.09
531.037	0.09
531.384	0.09
531.73	0.09
532.076	0.09
532.423	0.09
532.769	0.09
533.115	0.1
533.461	0.09
533.807	0.1
534.154	0.1
534.5	0.1
534.846	0.1
535.192	0.1
535.537	0.1
535.883	0.1
536.229	0.1
536.575	0.1
536.921	0.11
537.266	0.11
537.612	0.11
537.957	0.11
538.303	0.11
538.649	0.11
538.994	0.11
539.339	0.11
539.685	0.11
540.03	0.11
540.375	0.11
540.721	0.11
541.066	0.11
541.411	0.11
541.756	0.11
542.101	0.12
542.446	0.12
542.791	0.12
543.136	0.12
543.481	0.12
543.825	0.12
544.17	0.12
544.515	0.12
544.86	0.12
545.204	0.12
545.549	0.12
545.893	0.12
546.238	0.12
546.582	0.12
546.927	0.12
547.271	0.12
547.615	0.13
547.96	0.13
548.304	0.12
548.648	0.13
548.992	0.13
549.336	0.13
549.68	0.13
550.024	0.13
550.368	0.13
550.712	0.13
551.056	0.13
551.4	0.13
551.743	0.13
552.087	0.13
552.431	0.13
552.774	0.13
553.118	0.13
553.462	0.13
553.805	0.14
554.148	0.14
554.492	0.14
554.835	0.14
555.178	0.13
555.522	0.14
555.865	0.14
556.208	0.14
556.551	0.14
556.894	0.14
557.237	0.14
557.58	0.14
557.923	0.14
558.266	0.14
558.609	0.14
558.952	0.14
559.294	0.14
559.637	0.14
559.98	0.14
560.322	0.14
560.665	0.14
561.007	0.14
561.35	0.15
561.692	0.15
562.034	0.15
562.377	0.15
562.719	0.15
563.061	0.15
563.403	0.15
563.745	0.15
564.088	0.15
564.43	0.15
564.772	0.15
565.113	0.15
565.455	0.15
565.797	0.15
566.139	0.15
566.481	0.14
566.822	0.15
567.164	0.15
567.506	0.15
567.847	0.15
568.189	0.15
568.53	0.15
568.872	0.15
569.213	0.15
569.554	0.15
569.895	0.15
570.237	0.15
570.578	0.15
570.919	0.16
571.26	0.15
571.601	0.15
571.942	0.16
572.283	0.15
572.624	0.15
572.965	0.15
573.306	0.16
573.646	0.15
573.987	0.16
574.328	0.15
574.668	0.15
575.009	0.15
575.349	0.15
575.69	0.15
576.03	0.15
576.37	0.15
576.711	0.15
577.051	0.15
577.391	0.15
577.731	0.15
578.072	0.15
578.412	0.15
578.752	0.15
579.092	0.15
579.431	0.15
579.771	0.15
580.111	0.13
580.451	0.14
580.791	0.15
581.13	0.15
581.47	0.15
581.81	0.15
582.149	0.15
582.489	0.15
582.828	0.15
583.167	0.14
583.507	0.12
583.846	0.09
584.185	0.11
584.525	0.14
584.864	0.15
585.203	0.16
585.542	0.16
585.881	0.16
586.22	0.16
586.559	0.16
586.898	0.15
587.236	0.15
587.575	0.15
587.914	0.15
588.252	0.16
588.591	0.16
588.93	0.16
589.268	0.16
589.607	0.16
589.945	0.16
590.283	0.16
590.622	0.16
590.96	0.17
591.298	0.17
591.636	0.17
591.974	0.17
592.313	0.17
592.651	0.17
592.989	0.17
593.326	0.17
593.664	0.17
594.002	0.17
594.34	0.17
594.678	0.17
595.015	0.17
595.353	0.17
595.691	0.17
596.028	0.18
596.366	0.18
596.703	0.18
597.04	0.19
597.378	0.18
597.715	0.18
598.052	0.18
598.389	0.18
598.726	0.18
599.064	0.18
599.401	0.18
599.738	0.19
600.074	0.19
600.411	0.19
600.748	0.19
601.085	0.18
601.422	0.18
601.758	0.18
602.095	0.18
602.432	0.18
602.768	0.18
603.105	0.19
603.441	0.19
603.777	0.19
604.114	0.19
604.45	0.19
604.786	0.19
605.122	0.19
605.459	0.19
605.795	0.19
606.131	0.19
606.467	0.19
606.803	0.19
607.139	0.19
607.474	0.19
607.81	0.19
608.146	0.19
608.482	0.19
608.817	0.19
609.153	0.19
609.488	0.19
609.824	0.18
610.159	0.19
610.495	0.18
610.83	0.18
611.165	0.18
611.5	0.18
611.836	0.18
612.171	0.18
612.506	0.18
612.841	0.18
613.176	0.18
613.511	0.18
613.845	0.18
614.18	0.18
614.515	0.18
614.85	0.18
615.184	0.18
615.519	0.18
615.854	0.18
616.188	0.18
616.523	0.18
616.857	0.18
617.191	0.18
617.526	0.17
617.86	0.18
618.194	0.17
618.528	0.17
618.862	0.17
619.196	0.17
619.53	0.18
619.864	0.17
620.198	0.17
620.532	0.17
620.866	0.17
621.2	0.17
621.533	0.17
621.867	0.17
622.201	0.17
622.534	0.17
622.868	0.17
623.201	0.17
623.534	0.17
623.868	0.17
624.201	0.17
624.534	0.16
624.868	0.16
625.201	0.16
625.534	0.16
625.867	0.16
626.2	0.17
626.533	0.16
626.865	0.16
627.198	0.15
627.531	0.16
627.864	0.16
628.196	0.16
628.529	0.15
628.862	0.16
629.194	0.16
629.527	0.15
629.859	0.15
630.191	0.15
630.524	0.15
630.856	0.14
631.188	0.14
631.52	0.15
631.852	0.14
632.184	0.14
632.516	0.14
632.848	0.14
633.18	0.14
633.512	0.14
633.844	0.14
634.175	0.14
634.507	0.13
634.839	0.13
635.17	0.14
635.502	0.13
635.833	0.13
636.165	0.14
636.496	0.13
636.827	0.13
637.159	0.13
637.49	0.13
637.821	0.13
638.152	0.12
638.483	0.12
638.814	0.12
639.145	0.13
639.476	0.12
639.807	0.12
640.137	0.12
640.468	0.12
640.799	0.11
641.129	0.11
641.46	0.11
641.791	0.12
642.121	0.12
642.451	0.11
642.782	0.11
643.112	0.11
643.442	0.11
643.773	0.1
644.103	0.1
644.433	0.1
644.763	0.1
645.093	0.11
645.423	0.1
645.753	0.1
646.082	0.1
646.412	0.1
646.742	0.1
647.072	0.1
647.401	0.11
647.731	0.1
648.06	0.1
648.39	0.1
648.719	0.1
649.048	0.1
649.378	0.1
649.707	0.1
650.036	0.1
650.365	0.1
650.694	0.1
651.023	0.1
651.352	0.1
651.681	0.1
652.01	0.1
652.339	0.1
652.668	0.1
652.996	0.1
653.325	0.1
653.654	0.1
653.982	0.1
654.311	0.1
654.639	0.1
654.967	0.1
655.296	0.1
655.624	0.1
655.952	0.1
656.28	0.1
656.609	0.1
656.937	0.1
657.265	0.1
657.593	0.09
657.92	0
658.248	-0
658.576	0
658.904	0
659.231	0.07
659.559	0.1
659.887	0.1
660.214	0.1
660.542	0.1
660.869	0.1
661.196	0.1
661.524	0.1
661.851	0.1
662.178	0.09
662.505	0.09
662.832	0.1
663.159	0.1
663.486	0.1
663.813	0.1
664.14	0.09
664.467	0.09
664.794	0.1
665.12	0.1
665.447	0.09
665.774	0.1
666.1	0.09
666.427	0.09
666.753	0.1
667.079	0.09
667.406	0.09
667.732	0.09
668.058	0.09
668.384	0.09
668.71	0.09
669.036	0.08
669.362	0.08
669.688	0.08
670.014	0.08
670.34	0.08
670.666	0.08
670.991	0.09
671.317	0.09
671.643	0.09
671.968	0.08
672.294	0.09
672.619	0.08
672.945	0.09
673.27	0.09
673.595	0.08
673.92	0.09
674.246	0.08
674.571	0.08
674.896	0.08
675.221	0.08
675.546	0.08
675.87	0.09
676.195	0.08
676.52	0.08
676.845	0.08
677.169	0.08
677.494	0.08
677.819	0.08
678.143	0.07
678.468	0.07
678.792	0.07
679.116	0.07
679.44	0.07
679.765	0.07
680.089	0.07
680.413	0.07
680.737	0.07
681.061	0.07
681.385	0.07
681.709	0.07
682.033	0.07
682.356	0.07
682.68	0.07
683.004	0.07
683.327	0.07
683.651	0.06
683.974	0.06
684.298	0.06
684.621	0.06
684.944	0.06
685.268	0.06
685.591	0.06
685.914	0.06
686.237	0.06
686.56	0.06
686.883	0.06
687.206	0.05
687.529	0.06
687.852	0.06
688.175	0.06
688.497	0.06
688.82	0.06
689.142	0.05
689.465	0.05
689.787	0.05
690.11	0.05
690.432	0.05
690.755	0.05
691.077	0.05
691.399	0.05
691.721	0.05
692.043	0.05
692.365	0.05
692.687	0.04
693.009	0.04
693.331	0.04
693.653	0.04
693.974	0.05
694.296	0.04
694.618	0.04
694.939	0.05
695.261	0.05
695.582	0.04
695.904	0.04
696.225	0.04
696.546	0.04
696.868	0.04
697.189	0.04
697.51	0.04
697.831	0.04
698.152	0.04
698.473	0.04
698.794	0.04
699.114	0.04
699.435	0.04
699.756	0.04
700.077	0.04
700.397	0.04
700.718	0.04
701.038	0.04
701.359	0.04
701.679	0.04
701.999	0.04
702.32	0.04
702.64	0.03
702.96	0.03
703.28	0.03
703.6	0.03
703.92	0.03
704.24	0.03
704.56	0.04
704.879	0.04
705.199	0.04
705.519	0.03
705.838	0.03
706.158	0.03
706.478	0.04
706.797	0.04
707.116	0.04
707.436	0.04
707.755	0.03
708.074	0.04
708.393	0.04
708.712	0.04
709.031	0.04
709.35	0.04
709.669	0.04
709.988	0.04
710.307	0.03
710.626	0.03
710.944	0.03
711.263	0.03
711.582	0.03
711.9	0.03
712.219	0.03
712.537	0.03
712.855	0.03
713.174	0.03
713.492	0.03
713.81	0.03
714.128	0.04
714.446	0.04
714.764	0.04
715.082	0.03
715.4	0.03
715.718	0.04
716.035	0.03
716.353	0.03
716.671	0.04
716.988	0.04
717.306	0.03
717.623	0.03
717.941	0.03
718.258	0.03
718.575	0.03
718.893	0.03
719.21	0.03
719.527	0.03
719.844	0.03
720.161	0.03
720.478	0.03
720.795	0.04
721.112	0.04
721.428	0.04
721.745	0.05
722.062	0.04
722.378	0.04
722.695	0.04
723.011	0.04
723.328	0.04
723.644	0.04
723.96	0.04
724.276	0.04
724.593	0.04
724.909	0.04
725.225	0.04
725.541	0.04
725.857	0.04
726.173	0.04
726.488	0.04
726.804	0.04
727.12	0.04
727.435	0.04
727.751	0.04
728.067	0.04
728.382	0.05
728.697	0.04
729.013	0.04
729.328	0.04
729.643	0.04
729.958	0.04
730.273	0.04
730.588	0.04
730.903	0.04
731.218	0.04
731.533	0.04
731.848	0.04
732.163	0.04
732.477	0.04
732.792	0.04
733.107	0.04
733.421	0.04
733.736	0.03
734.05	0.03
734.364	0.04
734.678	0.04
734.993	0.03
735.307	0.03
735.621	0.04
735.935	0.04
736.249	0.04
736.563	0.04
736.877	0.04
737.19	0.04
737.504	0.04
737.818	0.04
738.131	0.04
738.445	0.04
738.758	0.04
739.072	0.04
739.385	0.04
739.698	0.04
740.012	0.04
740.325	0.04
740.638	0.04
740.951	0.04
741.264	0.04
741.577	0.03
741.89	0.04
742.203	0.04
742.515	0.04
742.828	0.04
743.141	0.04
743.453	0.04
743.766	0.03
744.078	0.04
744.391	0.04
744.703	0.03
745.015	0.03
745.327	0.03
745.639	0.03
745.952	0.03
746.264	0.03
746.575	0.03
746.887	0.03
747.199	0.03
747.511	0.03
747.823	0.03
748.134	0.03
748.446	0.03
748.757	0.03
749.069	0.03
749.38	0.03
749.692	0.03
750.003	0.03
750.314	0.03
750.625	0.03
750.936	0.03
751.248	0.03
751.559	0.03
751.869	0.03
752.18	0.03
752.491	0.03
752.802	0.03
753.112	0.03
753.423	0.03
753.734	0.03
754.044	0.02
754.355	0.03
754.665	0.03
754.975	0.02
755.285	0.03
755.596	0.03
755.906	0.03
756.216	0.03
756.526	0.03
756.836	0.02
757.146	0.02
757.455	0.02
757.765	0.02
758.075	0.01
758.385	0.01
758.694	0.02
759.004	0.02
759.313	0.01
759.622	0.01
759.932	0.01
760.241	0.01
760.55	0.02
760.859	0.02
761.168	0.02
761.477	0.02
761.786	0.02
762.095	0.02
762.404	0.02
762.713	0.02
763.021	0.02
763.33	0.02
763.639	0.02
763.947	0.02
764.256	0.02
764.564	0.02
764.872	0.02
765.181	0.01
765.489	0.01
765.797	0.01
766.105	0.01
766.413	0.01
766.721	0.01
767.029	0.01
767.337	0.01
767.644	0.01
767.952	0.01
768.26	0.01
768.567	0.01
768.875	0.01
769.182	0.01
769.49	0.01
769.797	0.01
770.104	0.01
770.411	0.01
770.718	0.01
771.026	0.01
771.333	0.01
771.639	0.01
771.946	0.01
772.253	0.01
772.56	0.01
772.867	0.01
773.173	0.01
773.48	0
773.786	0
774.093	0.01
774.399	0.01
774.705	0.01
775.012	0.01
775.318	0.01
775.624	0.01
775.93	0.01
776.236	0.01
776.542	0.01
776.848	0.01
777.154	0.01
777.459	0.01
777.765	0.01
778.071	0.01
778.376	0.01
778.682	0
778.987	0.01
779.292	0.01
779.598	0.01
779.903	0
780.208	0.01
780.513	0
780.818	0.01
781.123	0.01
781.428	0.01
781.733	0
782.038	0.01
782.343	0
782.647	0
782.952	0
783.256	0
783.561	0
783.865	0
784.17	0.01
784.474	0.01
784.778	0.01
785.082	0.01
785.386	-0
785.69	0
785.994	-0
786.298	-0.01
786.602	-0
786.906	-0
787.209	-0
787.513	-0.01
787.817	-0.01
788.12	-0.01
788.424	-0.01
788.727	-0.01
789.03	-0.01
789.333	-0
789.637	-0.01
789.94	-0
790.243	0
790.546	0
790.849	0
791.152	0
791.454	0
791.757	0
792.06	0
792.362	-0
792.665	-0
792.967	-0.01
793.27	-0.01
793.572	-0.01
793.874	-0.01
794.177	-0.01
794.479	-0.01
794.781	-0.01
795.083	-0.01
795.385	-0.01
795.687	-0
795.989	-0
796.29	0.01
796.592	0
796.894	-0
797.195	-0
797.497	-0
797.798	-0.01
798.1	-0.01
798.401	-0
798.702	-0.01
799.003	-0.01
799.304	-0.01
799.605	-0.01
799.906	-0.01
800.207	-0.01
800.508	-0.02
800.809	-0.02
801.11	-0.02
801.41	-0.02
801.711	-0.01
802.011	-0.02
802.312	-0.02
802.612	-0.01
802.913	-0.01
803.213	-0.01
803.513	-0.01
803.813	-0.01
804.113	-0.01
804.413	-0.01
804.713	-0.01
805.013	-0.01
805.313	-0.01
805.613	-0.01
805.912	-0.01
806.212	-0.01
806.511	-0.01
806.811	-0.01
807.11	-0.01
807.41	-0.01
807.709	-0.01
808.008	-0.01
808.307	-0.01
808.606	-0.01
808.905	-0.01
809.204	-0.02
809.503	-0.02
809.802	-0.02
810.101	-0.02
810.399	-0.01
810.698	-0.02
810.997	-0.02
811.295	-0.02
811.593	-0.02
811.892	-0.02
812.19	-0.02
812.488	-0.02
812.786	-0.01
813.084	-0.01
813.383	-0.02
813.68	-0.01
813.978	-0.02
814.276	-0.02
814.574	-0.01
814.872	-0.02
815.169	-0.02
815.467	-0.02
815.764	-0.02
816.062	-0.02
816.359	-0.03
816.656	-0.03
816.954	-0.03
817.251	-0.03
817.548	-0.03
817.845	-0.03
818.142	-0.03
818.439	-0.02
818.735	-0.02
819.032	-0.02
819.329	-0.02
819.626	-0.02
819.922	-0.02
820.219	-0.02
820.515	-0.02
820.811	-0.03
821.108	-0.02
821.404	-0.02
821.7	-0.03
821.996	-0.03
822.292	-0.03
822.588	-0.03
822.884	-0.02
823.18	-0.02
823.475	-0.03
823.771	-0.02
824.067	-0.03
824.362	-0.03
824.658	-0.03
824.953	-0.03
825.249	-0.03
825.544	-0.02
825.839	-0.03
826.134	-0.03
826.429	-0.04
826.724	-0.04
827.019	-0.03
827.314	-0.03
827.609	-0.03
827.904	-0.03
828.198	-0.03
828.493	-0.02
828.787	-0.02
829.082	-0.02
829.376	-0.02
829.671	-0.02
829.965	-0.03
830.259	-0.03
830.553	-0.03
830.847	-0.03
831.141	-0.03
831.435	-0.03
831.729	-0.03
832.023	-0.04
832.317	-0.03
832.61	-0.04
832.904	-0.04
833.197	-0.04
833.491	-0.03
833.784	-0.03
834.077	-0.04
834.371	-0.04
834.664	-0.03
834.957	-0.03
835.25	-0.04
835.543	-0.03
835.836	-0.04
836.129	-0.04
836.421	-0.04
836.714	-0.04
837.007	-0.04
837.299	-0.04
837.592	-0.04
837.884	-0.04
838.177	-0.04
838.469	-0.04
838.761	-0.03
839.053	-0.03
839.345	-0.02
839.637	-0.04
839.929	-0.04
840.221	-0.04
840.513	-0.04
840.805	-0.04
841.096	-0.04
841.388	-0.05
841.68	-0.03
841.971	-0.05
842.262	-0.03
842.554	-0.05
842.845	-0.04
843.136	-0.04
843.427	-0.03
843.718	-0.03
844.009	-0.03
844.3	-0.03
844.591	-0.03
844.882	-0.04
845.173	-0.04
845.463	-0.06
845.754	-0.05
846.044	-0.04
846.335	-0.04
846.625	-0.04
846.915	-0.04
847.206	-0.03
847.496	-0.04
847.786	-0.04
848.076	-0.03
848.366	-0.03
848.656	-0.03
848.945	-0.04
849.235	-0.04
849.525	-0.03
849.814	-0.03
850.104	-0.04
850.393	-0.03
850.683	-0.04
850.972	-0.04
851.261	-0.03
851.551	-0.03
851.84	-0.04
852.129	-0.04
852.418	-0.03
852.707	-0.03
852.995	-0.04
853.284	-0.03
853.573	-0.04
853.862	-0.03
854.15	-0.03
854.439	-0.03
854.727	-0.04
855.015	-0.03
855.304	-0.03
855.592	-0.04
855.88	-0.03
856.168	-0.03
856.456	-0.02
856.744	-0.03
857.032	-0.03
857.32	-0.04
857.607	-0.03
857.895	-0.03
858.183	-0.04
858.47	-0.04
858.757	-0.03
859.045	-0.04
859.332	-0.05
859.619	-0.03
859.907	-0.03
860.194	-0.02
860.481	-0.01
860.768	-0.03
861.054	-0.04
861.341	-0.03
861.628	-0.04
861.915	-0.04
862.201	-0.04
862.488	-0.05
862.774	-0.02
863.061	-0.04
863.347	-0.03
863.633	-0.04
863.919	-0.05
864.205	-0.03
864.491	-0.08
864.777	-0.04
865.063	-0.05
865.349	-0.03
865.635	-0.02
865.92	-0.02
866.206	-0.02
866.492	-0.05
866.777	-0.06
867.062	-0.03
867.348	-0.06
867.633	-0.07
867.918	-0.03
868.203	-0.03
868.488	-0.03
868.773	-0
869.058	-0.01
869.343	-0.01
869.628	-0.04
869.912	-0.07
870.197	-0.05
870.482	-0.02
870.766	-0.03
871.05	-0.05
871.335	0.01
871.619	-0.02
871.903	-0.02
872.187	-0.02
872.471	-0.07
872.755	-0.06
873.039	-0.05
873.323	-0.03
873.607	0
873.89	-0.11
874.174	-0.04
874.458	-0.09
874.741	-0.03
875.024	-0.03
875.308	-0.09
875.591	0.09
875.874	-0.04
876.157	-0.08
876.44	-0.07
876.723	-0.13
877.006	0
877.289	0.03
877.572	-0.02
877.854	-0.02
878.137	-0.08
878.42	-0.02
878.702	-0.01
878.984	-0.1
879.267	0.02
879.549	-0.05
879.831	0.03
880.113	-0.06
880.395	-0.05
880.677	-0.01
880.959	-0.09
