Data from Rubpy_EV_300_EDTA_Buffered_Absorbance_12-13-41-229.txt Node
Date: Tue Jun 30 12:13:41 BST 2026
User: fpm-admin
Spectrometer: OFX00224
Trigger mode: 0
Integration Time (sec): 7.000000E-2
Scans to average: 3
Nonlinearity correction enabled: false
Boxcar width: 0
Storing dark spectrum: false
XAxis mode: Wavelengths
Number of Pixels in Spectrum: 2136
>>>>>Begin Spectral Data<<<<<
154.91	-0
155.289	0.14
155.669	-0
156.048	-0.69
156.428	0.08
156.807	-0.25
157.186	0.66
157.566	1.45
157.945	-0
158.325	-0.15
158.704	-1.38
159.083	-0
159.462	-0.18
159.842	-0
160.221	-0
160.6	-0.3
160.979	-0.13
161.359	-0.6
161.738	-0
162.117	-0.04
162.496	-0
162.875	-0.34
163.254	-0.44
163.633	0.36
164.012	0.6
164.391	0.1
164.77	-0
165.149	-0
165.528	-0.09
165.907	-0
166.286	-0.05
166.665	-0.26
167.044	0.64
167.423	-0.56
167.802	-0.7
168.181	-0
168.559	-0
168.938	0.16
169.317	-0
169.696	-0
170.074	-0
170.453	0.02
170.832	-0
171.21	0.48
171.589	0.07
171.968	-0
172.346	0.62
172.725	0.3
173.103	0.55
173.482	-0.44
173.861	-0.85
174.239	-0
174.617	0.9
174.996	-0.33
175.374	-1.38
175.753	-0.48
176.131	0.1
176.51	0.51
176.888	0.17
177.266	-0
177.645	0.05
178.023	0.02
178.401	-0.21
178.779	-0.09
179.158	0.9
179.536	-0
179.914	1.2
180.292	-0.4
180.67	0.21
181.048	-0
181.427	-0
181.805	-0.11
182.183	-0
182.561	-0.22
182.939	-0
183.317	-0.2
183.695	0.1
184.073	0.33
184.451	-0
184.829	-0.1
185.206	-0.03
185.584	-1.01
185.962	-0
186.34	-0
186.718	-0
187.096	-0
187.473	-0.7
187.851	0.21
188.229	-0.15
188.607	0.06
188.984	-0.02
189.362	-0
189.74	0.04
190.117	0.05
190.495	0.04
190.872	0.03
191.25	-0.06
191.627	-0.08
192.005	-0.07
192.382	-0.02
192.76	0.02
193.137	0.01
193.515	-0.05
193.892	0.02
194.269	-0.02
194.647	0.04
195.024	-0.03
195.401	0
195.779	0.11
196.156	0.03
196.533	0.07
196.91	0.04
197.288	-0.02
197.665	0.07
198.042	0.03
198.419	-0.05
198.796	0.06
199.173	0.03
199.55	0.08
199.927	0.11
200.304	-0.14
200.681	0.04
201.058	0.04
201.435	0.08
201.812	0.05
202.189	0.03
202.566	-0.01
202.943	-0.02
203.32	0.06
203.697	0.09
204.073	0.01
204.45	-0
204.827	0.02
205.204	0.07
205.58	0.09
205.957	0.01
206.334	-0.02
206.71	0.04
207.087	0.02
207.464	0.06
207.84	0.02
208.217	0.05
208.593	-0.03
208.97	-0.02
209.346	0.1
209.723	0.03
210.099	0.03
210.476	-0.02
210.852	-0.01
211.228	0.07
211.605	0.11
211.981	0.06
212.357	-0
212.733	0.03
213.11	0.02
213.486	0.06
213.862	0.04
214.238	-0.02
214.614	-0.04
214.991	-0.01
215.367	0.02
215.743	0.03
216.119	-0.02
216.495	0.08
216.871	0
217.247	0.03
217.623	0.04
217.999	0.02
218.375	-0.01
218.751	0.02
219.127	-0.08
219.502	0.1
219.878	0.03
220.254	-0.01
220.63	0.15
221.006	0.11
221.381	-0.06
221.757	-0.03
222.133	-0.01
222.508	-0.01
222.884	0.01
223.26	0.02
223.635	0.1
224.011	0
224.386	-0.04
224.762	-0.07
225.137	-0.02
225.513	0.03
225.888	0.12
226.264	0.05
226.639	-0.07
227.014	0.06
227.39	-0.05
227.765	-0.01
228.14	0.06
228.516	-0.06
228.891	-0
229.266	-0.01
229.641	0.05
230.017	-0.04
230.392	-0.01
230.767	0.06
231.142	-0.01
231.517	-0.04
231.892	0.14
232.267	-0.03
232.642	0.05
233.017	0.03
233.392	0.03
233.767	-0.01
234.142	0
234.517	0.04
234.892	0.01
235.267	-0.03
235.641	0.03
236.016	0.01
236.391	0.01
236.766	0.04
237.14	0.05
237.515	0.03
237.89	-0.07
238.264	0.05
238.639	-0.09
239.014	-0.05
239.388	0.09
239.763	0.06
240.137	-0
240.512	-0
240.886	-0.01
241.261	0.06
241.635	0.04
242.009	0.02
242.384	0.04
242.758	-0.06
243.132	0.04
243.507	0.03
243.881	0.03
244.255	0.04
244.629	0.1
245.004	0.05
245.378	0.06
245.752	-0
246.126	0.07
246.5	0.04
246.874	0.05
247.248	0.02
247.622	-0.02
247.996	0.1
248.37	0.03
248.744	-0.01
249.118	0.06
249.492	0.05
249.866	0.02
250.24	-0.05
250.613	0.04
250.987	-0.01
251.361	-0.07
251.735	0.06
252.108	0.04
252.482	0.03
252.856	0
253.229	0.03
253.603	0.01
253.977	-0.02
254.35	-0.08
254.724	0.05
255.097	0.08
255.471	0.01
255.844	0.02
256.218	0.07
256.591	-0.01
256.964	0.08
257.338	0
257.711	0.03
258.084	0.03
258.458	-0.02
258.831	-0.01
259.204	-0.09
259.577	0.1
259.95	-0.04
260.323	0.06
260.697	0.05
261.07	-0.02
261.443	-0.07
261.816	0.08
262.189	0.01
262.562	0.05
262.935	-0.01
263.308	-0.06
263.68	0.01
264.053	0.07
264.426	-0.01
264.799	-0.04
265.172	-0.04
265.545	-0.02
265.917	-0.01
266.29	0.03
266.663	-0.04
267.035	0.02
267.408	0.04
267.781	0.04
268.153	-0
268.526	0.02
268.898	0.08
269.271	0.04
269.643	-0.01
270.016	0.01
270.388	0.01
270.76	-0.01
271.133	0.02
271.505	0.01
271.877	-0.02
272.25	0.02
272.622	0.03
272.994	0.06
273.366	0.01
273.739	0.04
274.111	0.06
274.483	0.03
274.855	0.01
275.227	0.06
275.599	0.07
275.971	0.04
276.343	0.06
276.715	0.04
277.087	0.02
277.459	0.05
277.831	0.05
278.203	0.02
278.574	0.03
278.946	0.03
279.318	0.07
279.69	0.02
280.061	-0.02
280.433	0.03
280.805	0.03
281.176	0.06
281.548	0.01
281.92	0.01
282.291	0.02
282.663	0.02
283.034	0.01
283.406	0.07
283.777	0.03
284.148	0.03
284.52	0.01
284.891	0.12
285.262	0.07
285.634	-0.02
286.005	0.03
286.376	0.02
286.747	0.07
287.119	0.04
287.49	-0.01
287.861	0.02
288.232	0.03
288.603	-0.01
288.974	0.04
289.345	0.02
289.716	0.05
290.087	0.03
290.458	0.05
290.829	0.02
291.2	-0.01
291.571	-0.01
291.941	0.07
292.312	0.06
292.683	0.06
293.054	0.01
293.424	0.03
293.795	0.02
294.166	0.02
294.536	0.03
294.907	0.02
295.277	0.02
295.648	0.03
296.018	0.01
296.389	0.05
296.759	0.02
297.13	0.03
297.5	0.02
297.871	0.05
298.241	0.03
298.611	0.06
298.981	0
299.352	0.02
299.722	0.04
300.092	0.03
300.462	0.02
300.832	0.03
301.202	0.03
301.573	0.04
301.943	0.05
302.313	0.03
302.683	0.03
303.053	0.03
303.422	0.02
303.792	0.03
304.162	0.03
304.532	0.03
304.902	0.02
305.272	0.03
305.641	0.03
306.011	0.02
306.381	0.04
306.75	0.03
307.12	0.03
307.49	0.04
307.859	0.03
308.229	0.03
308.598	0.03
308.968	0.04
309.337	0.04
309.707	0.04
310.076	0.04
310.445	0.04
310.815	0.03
311.184	0.04
311.553	0.03
311.923	0.03
312.292	0.04
312.661	0.03
313.03	0.04
313.399	0.04
313.768	0.04
314.137	0.04
314.506	0.04
314.875	0.03
315.244	0.04
315.613	0.04
315.982	0.04
316.351	0.04
316.72	0.04
317.089	0.04
317.458	0.05
317.826	0.03
318.195	0.04
318.564	0.03
318.933	0.04
319.301	0.04
319.67	0.04
320.038	0.04
320.407	0.04
320.775	0.04
321.144	0.04
321.512	0.04
321.881	0.04
322.249	0.04
322.618	0.03
322.986	0.03
323.354	0.04
323.723	0.04
324.091	0.03
324.459	0.04
324.827	0.03
325.195	0.03
325.564	0.03
325.932	0.04
326.3	0.02
326.668	0.03
327.036	0.03
327.404	0.03
327.772	0.03
328.14	0.04
328.508	0.03
328.875	0.03
329.243	0.03
329.611	0.04
329.979	0.04
330.346	0.03
330.714	0.04
331.082	0.03
331.449	0.04
331.817	0.03
332.185	0.04
332.552	0.03
332.92	0.04
333.287	0.03
333.655	0.03
334.022	0.03
334.389	0.03
334.757	0.04
335.124	0.03
335.491	0.03
335.859	0.04
336.226	0.03
336.593	0.04
336.96	0.04
337.327	0.04
337.695	0.04
338.062	0.03
338.429	0.04
338.796	0.04
339.163	0.04
339.53	0.03
339.897	0.04
340.263	0.04
340.63	0.04
340.997	0.04
341.364	0.04
341.731	0.04
342.097	0.04
342.464	0.04
342.831	0.04
343.197	0.04
343.564	0.04
343.931	0.04
344.297	0.05
344.664	0.05
345.03	0.05
345.396	0.05
345.763	0.05
346.129	0.05
346.496	0.04
346.862	0.05
347.228	0.05
347.594	0.05
347.961	0.05
348.327	0.05
348.693	0.05
349.059	0.05
349.425	0.05
349.791	0.05
350.157	0.05
350.523	0.05
350.889	0.05
351.255	0.05
351.621	0.06
351.987	0.06
352.353	0.06
352.719	0.06
353.084	0.06
353.45	0.06
353.816	0.06
354.181	0.06
354.547	0.06
354.913	0.06
355.278	0.06
355.644	0.07
356.009	0.07
356.375	0.07
356.74	0.07
357.106	0.07
357.471	0.07
357.836	0.07
358.202	0.07
358.567	0.08
358.932	0.08
359.297	0.08
359.663	0.08
360.028	0.08
360.393	0.08
360.758	0.08
361.123	0.08
361.488	0.08
361.853	0.09
362.218	0.09
362.583	0.09
362.948	0.09
363.312	0.08
363.677	0.09
364.042	0.09
364.407	0.09
364.772	0.1
365.136	0.1
365.501	0.1
365.865	0.1
366.23	0.1
366.595	0.11
366.959	0.11
367.324	0.11
367.688	0.11
368.052	0.11
368.417	0.11
368.781	0.11
369.145	0.12
369.51	0.12
369.874	0.12
370.238	0.12
370.602	0.12
370.967	0.12
371.331	0.12
371.695	0.12
372.059	0.12
372.423	0.12
372.787	0.12
373.151	0.12
373.515	0.12
373.878	0.11
374.242	0.12
374.606	0.12
374.97	0.11
375.334	0.12
375.697	0.12
376.061	0.12
376.425	0.12
376.788	0.12
377.152	0.12
377.515	0.12
377.879	0.13
378.242	0.13
378.606	0.12
378.969	0.13
379.333	0.13
379.696	0.13
380.059	0.13
380.422	0.13
380.786	0.13
381.149	0.15
381.512	0.15
381.875	0.14
382.238	0.15
382.601	0.15
382.964	0.16
383.327	0.16
383.69	0.17
384.053	0.17
384.416	0.18
384.779	0.18
385.142	0.18
385.504	0.19
385.867	0.19
386.23	0.19
386.593	0.19
386.955	0.19
387.318	0.19
387.68	0.2
388.043	0.19
388.405	0.19
388.768	0.19
389.13	0.19
389.493	0.18
389.855	0.18
390.217	0.19
390.58	0.18
390.942	0.18
391.304	0.19
391.666	0.19
392.028	0.19
392.391	0.19
392.753	0.2
393.115	0.2
393.477	0.22
393.839	0.22
394.201	0.23
394.563	0.24
394.924	0.25
395.286	0.26
395.648	0.27
396.01	0.27
396.371	0.29
396.733	0.29
397.095	0.3
397.456	0.3
397.818	0.3
398.18	0.29
398.541	0.29
398.903	0.28
399.264	0.28
399.625	0.27
399.987	0.26
400.348	0.25
400.709	0.24
401.071	0.22
401.432	0.21
401.793	0.2
402.154	0.19
402.515	0.17
402.876	0.16
403.238	0.15
403.599	0.14
403.96	0.13
404.32	0.13
404.681	0.11
405.042	0.11
405.403	0.1
405.764	0.1
406.125	0.09
406.485	0.08
406.846	0.08
407.207	0.07
407.567	0.07
407.928	0.07
408.288	0.06
408.649	0.06
409.009	0.06
409.37	0.06
409.73	0.06
410.091	0.05
410.451	0.06
410.811	0.05
411.171	0.05
411.532	0.05
411.892	0.04
412.252	0.04
412.612	0.04
412.972	0.04
413.332	0.04
413.692	0.04
414.052	0.03
414.412	0.04
414.772	0.04
415.132	0.03
415.492	0.04
415.851	0.03
416.211	0.04
416.571	0.03
416.931	0.04
417.29	0.04
417.65	0.03
418.009	0.04
418.369	0.03
418.728	0.03
419.088	0.02
419.447	0.03
419.807	0.03
420.166	0.03
420.525	0.03
420.884	0.03
421.244	0.03
421.603	0.03
421.962	0.03
422.321	0.03
422.68	0.03
423.039	0.02
423.398	0.03
423.757	0.03
424.116	0.03
424.475	0.03
424.834	0.03
425.193	0.03
425.551	0.02
425.91	0.02
426.269	0.03
426.628	0.03
426.986	0.03
427.345	0.02
427.703	0.03
428.062	0.03
428.42	0.03
428.779	0.02
429.137	0.03
429.496	0.02
429.854	0.02
430.212	0.03
430.57	0.02
430.929	0.02
431.287	0.02
431.645	0.03
432.003	0.03
432.361	0.03
432.719	0.02
433.077	0.02
433.435	0.03
433.793	0.02
434.151	0.03
434.509	0.03
434.866	0.03
435.224	0.03
435.582	0.02
435.94	0.03
436.297	0.02
436.655	0.02
437.012	0.02
437.37	0.02
437.727	0.02
438.085	0.02
438.442	0.02
438.8	0.02
439.157	0.03
439.514	0.02
439.872	0.03
440.229	0.02
440.586	0.02
440.943	0.02
441.3	0.02
441.657	0.02
442.014	0.02
442.371	0.02
442.728	0.02
443.085	0.02
443.442	0.02
443.799	0.02
444.156	0.02
444.513	0.02
444.869	0.01
445.226	0.02
445.583	0.02
445.939	0.02
446.296	0.02
446.652	0.02
447.009	0.03
447.365	0.01
447.722	0.02
448.078	0.02
448.434	0.01
448.791	0.02
449.147	0.02
449.503	0.02
449.859	0.02
450.215	0.02
450.571	0.02
450.928	0.02
451.284	0.02
451.64	0.01
451.995	0.02
452.351	0.02
452.707	0.02
453.063	0.02
453.419	0.01
453.775	0.02
454.13	0.01
454.486	0.01
454.842	0.02
455.197	0.01
455.553	0.01
455.908	0.01
456.264	0.01
456.619	0.01
456.975	0
457.33	0.01
457.685	0.01
458.04	0.01
458.396	0.01
458.751	0.01
459.106	0.01
459.461	0
459.816	0.01
460.171	0.01
460.526	0
460.881	0
461.236	0.01
461.591	0
461.946	0
462.301	-0
462.655	0
463.01	0
463.365	0
463.719	-0.01
464.074	-0.01
464.428	-0.01
464.783	-0
465.137	-0
465.492	-0
465.846	-0
466.201	-0.01
466.555	-0.01
466.909	-0.01
467.263	-0.01
467.618	-0
467.972	-0.01
468.326	-0
468.68	-0.01
469.034	-0.01
469.388	-0
469.742	-0.01
470.096	-0.01
470.45	-0.01
470.804	-0.01
471.157	-0.01
471.511	-0.01
471.865	-0.01
472.218	-0
472.572	-0.01
472.926	-0.02
473.279	-0.01
473.633	-0
473.986	-0.02
474.34	-0.01
474.693	-0.01
475.046	0
475.4	-0
475.753	0
476.106	-0
476.459	0.01
476.812	0
477.165	0.01
477.519	0
477.872	0.01
478.224	0
478.577	0.01
478.93	0.01
479.283	0
479.636	0.01
479.989	0.01
480.341	0.01
480.694	0.01
481.047	0.01
481.399	0.01
481.752	0.01
482.104	0.01
482.457	0.01
482.809	0.01
483.162	0.02
483.514	0.01
483.866	0.01
484.219	0.02
484.571	0.02
484.923	0.01
485.275	0.01
485.627	0.01
485.979	0.01
486.331	0.02
486.683	0.01
487.035	0.01
487.387	0.01
487.739	0.02
488.091	0.01
488.443	0.02
488.794	0.02
489.146	0.02
489.498	0.02
489.849	0.02
490.201	0.02
490.552	0.02
490.904	0.02
491.255	0.02
491.607	0.02
491.958	0.02
492.309	0.02
492.661	0.02
493.012	0.02
493.363	0.02
493.714	0.02
494.065	0.02
494.416	0.02
494.767	0.02
495.118	0.02
495.469	0.02
495.82	0.02
496.171	0.02
496.522	0.02
496.872	0.02
497.223	0.02
497.574	0.02
497.924	0.03
498.275	0.02
498.626	0.03
498.976	0.03
499.327	0.03
499.677	0.03
500.027	0.03
500.378	0.02
500.728	0.03
501.078	0.03
501.428	0.02
501.779	0.03
502.129	0.02
502.479	0.02
502.829	0.02
503.179	0.02
503.529	0.03
503.879	0.03
504.229	0.03
504.578	0.03
504.928	0.03
505.278	0.03
505.628	0.03
505.977	0.04
506.327	0.03
506.676	0.03
507.026	0.03
507.375	0.03
507.725	0.02
508.074	0.03
508.424	0.03
508.773	0.03
509.122	0.03
509.471	0.03
509.82	0.03
510.17	0.03
510.519	0.03
510.868	0.03
511.217	0.03
511.566	0.03
511.915	0.03
512.263	0.04
512.612	0.03
512.961	0.03
513.31	0.03
513.659	0.03
514.007	0.03
514.356	0.03
514.704	0.03
515.053	0.03
515.401	0.03
515.75	0.03
516.098	0.03
516.447	0.03
516.795	0.04
517.143	0.03
517.491	0.03
517.839	0.04
518.188	0.03
518.536	0.03
518.884	0.04
519.232	0.04
519.58	0.03
519.928	0.04
520.275	0.03
520.623	0.04
520.971	0.04
521.319	0.03
521.666	0.04
522.014	0.04
522.362	0.04
522.709	0.04
523.057	0.03
523.404	0.04
523.752	0.04
524.099	0.04
524.446	0.04
524.794	0.04
525.141	0.04
525.488	0.04
525.835	0.03
526.182	0.04
526.529	0.04
526.876	0.04
527.223	0.04
527.57	0.04
527.917	0.04
528.264	0.03
528.611	0.04
528.958	0.04
529.304	0.04
529.651	0.04
529.998	0.04
530.344	0.04
530.691	0.05
531.037	0.04
531.384	0.04
531.73	0.04
532.076	0.04
532.423	0.04
532.769	0.04
533.115	0.05
533.461	0.04
533.807	0.05
534.154	0.04
534.5	0.04
534.846	0.04
535.192	0.04
535.537	0.05
535.883	0.05
536.229	0.05
536.575	0.05
536.921	0.05
537.266	0.05
537.612	0.05
537.957	0.05
538.303	0.05
538.649	0.05
538.994	0.05
539.339	0.05
539.685	0.05
540.03	0.05
540.375	0.05
540.721	0.05
541.066	0.05
541.411	0.05
541.756	0.05
542.101	0.05
542.446	0.06
542.791	0.05
543.136	0.05
543.481	0.05
543.825	0.05
544.17	0.06
544.515	0.05
544.86	0.06
545.204	0.05
545.549	0.05
545.893	0.05
546.238	0.05
546.582	0.05
546.927	0.05
547.271	0.05
547.615	0.05
547.96	0.06
548.304	0.06
548.648	0.06
548.992	0.05
549.336	0.06
549.68	0.06
550.024	0.06
550.368	0.06
550.712	0.06
551.056	0.06
551.4	0.06
551.743	0.06
552.087	0.06
552.431	0.06
552.774	0.06
553.118	0.06
553.462	0.06
553.805	0.06
554.148	0.06
554.492	0.06
554.835	0.06
555.178	0.06
555.522	0.06
555.865	0.06
556.208	0.06
556.551	0.06
556.894	0.06
557.237	0.06
557.58	0.06
557.923	0.06
558.266	0.06
558.609	0.06
558.952	0.06
559.294	0.06
559.637	0.06
559.98	0.06
560.322	0.07
560.665	0.06
561.007	0.06
561.35	0.06
561.692	0.06
562.034	0.06
562.377	0.06
562.719	0.06
563.061	0.06
563.403	0.06
563.745	0.06
564.088	0.06
564.43	0.06
564.772	0.06
565.113	0.06
565.455	0.06
565.797	0.06
566.139	0.06
566.481	0.06
566.822	0.06
567.164	0.06
567.506	0.06
567.847	0.07
568.189	0.06
568.53	0.06
568.872	0.07
569.213	0.07
569.554	0.06
569.895	0.07
570.237	0.07
570.578	0.07
570.919	0.07
571.26	0.07
571.601	0.07
571.942	0.07
572.283	0.07
572.624	0.07
572.965	0.07
573.306	0.07
573.646	0.07
573.987	0.07
574.328	0.07
574.668	0.07
575.009	0.07
575.349	0.07
575.69	0.07
576.03	0.07
576.37	0.06
576.711	0.07
577.051	0.07
577.391	0.07
577.731	0.07
578.072	0.07
578.412	0.07
578.752	0.07
579.092	0.07
579.431	0.07
579.771	0.06
580.111	0.06
580.451	0.06
580.791	0.06
581.13	0.07
581.47	0.07
581.81	0.07
582.149	0.07
582.489	0.07
582.828	0.06
583.167	0.06
583.507	0.04
583.846	0.02
584.185	0.03
584.525	0.05
584.864	0.06
585.203	0.07
585.542	0.07
585.881	0.07
586.22	0.07
586.559	0.07
586.898	0.06
587.236	0.06
587.575	0.06
587.914	0.06
588.252	0.07
588.591	0.07
588.93	0.07
589.268	0.07
589.607	0.07
589.945	0.07
590.283	0.07
590.622	0.07
590.96	0.07
591.298	0.08
591.636	0.07
591.974	0.07
592.313	0.08
592.651	0.07
592.989	0.07
593.326	0.07
593.664	0.07
594.002	0.08
594.34	0.08
594.678	0.07
595.015	0.07
595.353	0.07
595.691	0.07
596.028	0.08
596.366	0.08
596.703	0.08
597.04	0.08
597.378	0.08
597.715	0.08
598.052	0.08
598.389	0.08
598.726	0.08
599.064	0.08
599.401	0.08
599.738	0.08
600.074	0.08
600.411	0.08
600.748	0.08
601.085	0.08
601.422	0.08
601.758	0.08
602.095	0.08
602.432	0.08
602.768	0.08
603.105	0.08
603.441	0.08
603.777	0.08
604.114	0.08
604.45	0.08
604.786	0.08
605.122	0.08
605.459	0.08
605.795	0.08
606.131	0.08
606.467	0.08
606.803	0.08
607.139	0.08
607.474	0.08
607.81	0.08
608.146	0.08
608.482	0.08
608.817	0.08
609.153	0.08
609.488	0.08
609.824	0.08
610.159	0.08
610.495	0.08
610.83	0.08
611.165	0.08
611.5	0.08
611.836	0.08
612.171	0.08
612.506	0.08
612.841	0.08
613.176	0.08
613.511	0.08
613.845	0.08
614.18	0.08
614.515	0.08
614.85	0.08
615.184	0.08
615.519	0.08
615.854	0.08
616.188	0.08
616.523	0.07
616.857	0.07
617.191	0.08
617.526	0.07
617.86	0.07
618.194	0.08
618.528	0.07
618.862	0.07
619.196	0.07
619.53	0.07
619.864	0.07
620.198	0.07
620.532	0.07
620.866	0.07
621.2	0.07
621.533	0.07
621.867	0.07
622.201	0.07
622.534	0.07
622.868	0.07
623.201	0.07
623.534	0.07
623.868	0.07
624.201	0.07
624.534	0.07
624.868	0.07
625.201	0.07
625.534	0.07
625.867	0.07
626.2	0.07
626.533	0.07
626.865	0.07
627.198	0.06
627.531	0.07
627.864	0.06
628.196	0.06
628.529	0.06
628.862	0.07
629.194	0.06
629.527	0.06
629.859	0.06
630.191	0.06
630.524	0.06
630.856	0.06
631.188	0.06
631.52	0.06
631.852	0.06
632.184	0.06
632.516	0.06
632.848	0.05
633.18	0.06
633.512	0.05
633.844	0.05
634.175	0.05
634.507	0.05
634.839	0.05
635.17	0.05
635.502	0.05
635.833	0.05
636.165	0.05
636.496	0.05
636.827	0.06
637.159	0.05
637.49	0.05
637.821	0.05
638.152	0.05
638.483	0.05
638.814	0.05
639.145	0.05
639.476	0.05
639.807	0.05
640.137	0.05
640.468	0.05
640.799	0.04
641.129	0.04
641.46	0.04
641.791	0.04
642.121	0.04
642.451	0.04
642.782	0.04
643.112	0.04
643.442	0.04
643.773	0.04
644.103	0.04
644.433	0.04
644.763	0.04
645.093	0.04
645.423	0.04
645.753	0.04
646.082	0.04
646.412	0.04
646.742	0.04
647.072	0.04
647.401	0.04
647.731	0.04
648.06	0.04
648.39	0.04
648.719	0.04
649.048	0.04
649.378	0.04
649.707	0.04
650.036	0.04
650.365	0.04
650.694	0.04
651.023	0.04
651.352	0.04
651.681	0.04
652.01	0.04
652.339	0.04
652.668	0.04
652.996	0.04
653.325	0.03
653.654	0.03
653.982	0.03
654.311	0.04
654.639	0.04
654.967	0.04
655.296	0.04
655.624	0.04
655.952	0.04
656.28	0.04
656.609	0.04
656.937	0.04
657.265	0.04
657.593	0.03
657.92	0
658.248	-0
658.576	-0
658.904	0
659.231	0.02
659.559	0.05
659.887	0.04
660.214	0.04
660.542	0.04
660.869	0.04
661.196	0.04
661.524	0.04
661.851	0.03
662.178	0.03
662.505	0.03
662.832	0.04
663.159	0.04
663.486	0.04
663.813	0.04
664.14	0.04
664.467	0.03
664.794	0.03
665.12	0.04
665.447	0.03
665.774	0.04
666.1	0.04
666.427	0.03
666.753	0.03
667.079	0.03
667.406	0.03
667.732	0.03
668.058	0.03
668.384	0.03
668.71	0.03
669.036	0.03
669.362	0.03
669.688	0.03
670.014	0.03
670.34	0.02
670.666	0.03
670.991	0.03
671.317	0.03
671.643	0.03
671.968	0.03
672.294	0.03
672.619	0.03
672.945	0.03
673.27	0.03
673.595	0.03
673.92	0.03
674.246	0.03
674.571	0.03
674.896	0.03
675.221	0.03
675.546	0.03
675.87	0.03
676.195	0.03
676.52	0.03
676.845	0.03
677.169	0.03
677.494	0.03
677.819	0.03
678.143	0.03
678.468	0.03
678.792	0.03
679.116	0.03
679.44	0.02
679.765	0.02
680.089	0.02
680.413	0.02
680.737	0.03
681.061	0.03
681.385	0.03
681.709	0.02
682.033	0.03
682.356	0.03
682.68	0.03
683.004	0.03
683.327	0.03
683.651	0.02
683.974	0.02
684.298	0.02
684.621	0.02
684.944	0.02
685.268	0.02
685.591	0.02
685.914	0.02
686.237	0.02
686.56	0.02
686.883	0.02
687.206	0.02
687.529	0.02
687.852	0.02
688.175	0.02
688.497	0.02
688.82	0.02
689.142	0.02
689.465	0.02
689.787	0.02
690.11	0.02
690.432	0.01
690.755	0.01
691.077	0.01
691.399	0.01
691.721	0.01
692.043	0.01
692.365	0.01
692.687	0.01
693.009	0.01
693.331	0.01
693.653	0.01
693.974	0.01
694.296	0.01
694.618	0.01
694.939	0.02
695.261	0.02
695.582	0.01
695.904	0.01
696.225	0.01
696.546	0.01
696.868	0.01
697.189	0.01
697.51	0.01
697.831	0.01
698.152	0.01
698.473	0.01
698.794	0.01
699.114	0.01
699.435	0.01
699.756	0.01
700.077	0.01
700.397	0.01
700.718	0.01
701.038	0.01
701.359	0.01
701.679	0.01
701.999	0.01
702.32	0
702.64	0.01
702.96	0
703.28	0
703.6	0
703.92	0
704.24	0.01
704.56	0.01
704.879	0.01
705.199	0.01
705.519	0.01
705.838	0.01
706.158	0.01
706.478	0.01
706.797	0.01
707.116	0.01
707.436	0.01
707.755	0.01
708.074	0.01
708.393	0.01
708.712	0.01
709.031	0.01
709.35	0.01
709.669	0.01
709.988	0.01
710.307	0.01
710.626	0.01
710.944	0.01
711.263	0.01
711.582	0.01
711.9	0.01
712.219	0.01
712.537	0.01
712.855	0.01
713.174	0.01
713.492	0.01
713.81	0.01
714.128	0.01
714.446	0.01
714.764	0.01
715.082	0.01
715.4	0.01
715.718	0.01
716.035	0.01
716.353	0.01
716.671	0.01
716.988	0.01
717.306	0.01
717.623	0.01
717.941	0.01
718.258	0.01
718.575	0.01
718.893	0.01
719.21	0.01
719.527	0.01
719.844	0
720.161	0.01
720.478	0.01
720.795	0.01
721.112	0.01
721.428	0.02
721.745	0.02
722.062	0.02
722.378	0.01
722.695	0.01
723.011	0.01
723.328	0.01
723.644	0.02
723.96	0.02
724.276	0.02
724.593	0.01
724.909	0.01
725.225	0.01
725.541	0.01
725.857	0.01
726.173	0.01
726.488	0.01
726.804	0.01
727.12	0.01
727.435	0.01
727.751	0.01
728.067	0.02
728.382	0.02
728.697	0.02
729.013	0.02
729.328	0.02
729.643	0.01
729.958	0.01
730.273	0.02
730.588	0.01
730.903	0.01
731.218	0.01
731.533	0.01
731.848	0.01
732.163	0.01
732.477	0.01
732.792	0.01
733.107	0.01
733.421	0.01
733.736	0.01
734.05	0.01
734.364	0.01
734.678	0.01
734.993	0.01
735.307	0.01
735.621	0.01
735.935	0.01
736.249	0.01
736.563	0.01
736.877	0.01
737.19	0.01
737.504	0.01
737.818	0.01
738.131	0.02
738.445	0.02
738.758	0.02
739.072	0.02
739.385	0.02
739.698	0.02
740.012	0.02
740.325	0.01
740.638	0.01
740.951	0.01
741.264	0.01
741.577	0.01
741.89	0.01
742.203	0.01
742.515	0.01
742.828	0
743.141	0.01
743.453	0.01
743.766	0.01
744.078	0.01
744.391	0.01
744.703	0.01
745.015	0
745.327	0
745.639	0
745.952	0
746.264	0
746.575	-0
746.887	0
747.199	0.01
747.511	0
747.823	0
748.134	0
748.446	-0
748.757	0
749.069	0.01
749.38	0
749.692	0
750.003	0.01
750.314	0.01
750.625	0.01
750.936	0.01
751.248	0.01
751.559	0.01
751.869	0.01
752.18	0.01
752.491	0
752.802	0
753.112	0.01
753.423	0.01
753.734	0
754.044	0.01
754.355	0.01
754.665	0.01
754.975	0.01
755.285	0.01
755.596	0.01
755.906	0.01
756.216	0.01
756.526	0.01
756.836	0.01
757.146	0
757.455	-0
757.765	-0
758.075	-0.01
758.385	-0.01
758.694	-0
759.004	-0
759.313	-0.01
759.622	-0
759.932	-0
760.241	-0
760.55	-0
760.859	-0
761.168	0
761.477	-0
761.786	-0
762.095	0
762.404	-0
762.713	0
763.021	0
763.33	0
763.639	0
763.947	0
764.256	0
764.564	-0
764.872	-0
765.181	-0
765.489	-0
765.797	-0
766.105	-0
766.413	-0
766.721	-0
767.029	-0
767.337	-0
767.644	-0.01
767.952	-0
768.26	-0
768.567	-0.01
768.875	-0.01
769.182	-0
769.49	-0.01
769.797	-0.01
770.104	-0
770.411	0
770.718	-0
771.026	-0
771.333	-0
771.639	-0
771.946	-0.01
772.253	-0.01
772.56	-0.01
772.867	-0.01
773.173	-0.01
773.48	-0.01
773.786	-0.01
774.093	-0.01
774.399	-0.01
774.705	-0
775.012	-0.01
775.318	-0
775.624	-0
775.93	-0
776.236	-0.01
776.542	-0
776.848	-0
777.154	-0
777.459	-0
777.765	-0.01
778.071	-0
778.376	-0.01
778.682	-0.01
778.987	-0.01
779.292	-0.01
779.598	-0.01
779.903	-0.01
780.208	-0.01
780.513	-0.01
780.818	-0.01
781.123	-0.01
781.428	-0.01
781.733	-0.01
782.038	-0.01
782.343	-0.01
782.647	-0.01
782.952	-0.01
783.256	-0.01
783.561	-0.01
783.865	-0.01
784.17	-0.01
784.474	-0.01
784.778	-0.01
785.082	-0.01
785.386	-0.01
785.69	-0.01
785.994	-0.01
786.298	-0.01
786.602	-0.01
786.906	-0.01
787.209	-0.02
787.513	-0.02
787.817	-0.02
788.12	-0.02
788.424	-0.02
788.727	-0.02
789.03	-0.02
789.333	-0.02
789.637	-0.02
789.94	-0.01
790.243	-0.01
790.546	-0.01
790.849	-0.01
791.152	-0.01
791.454	-0.01
791.757	-0.01
792.06	-0.01
792.362	-0.01
792.665	-0.01
792.967	-0.02
793.27	-0.02
793.572	-0.02
793.874	-0.01
794.177	-0.02
794.479	-0.02
794.781	-0.02
795.083	-0.02
795.385	-0.02
795.687	-0.02
795.989	-0.01
796.29	-0.01
796.592	-0.01
796.894	-0.01
797.195	-0.01
797.497	-0.01
797.798	-0.02
798.1	-0.02
798.401	-0.02
798.702	-0.02
799.003	-0.02
799.304	-0.02
799.605	-0.02
799.906	-0.02
800.207	-0.02
800.508	-0.03
800.809	-0.03
801.11	-0.03
801.41	-0.02
801.711	-0.02
802.011	-0.03
802.312	-0.02
802.612	-0.02
802.913	-0.02
803.213	-0.02
803.513	-0.02
803.813	-0.02
804.113	-0.02
804.413	-0.02
804.713	-0.02
805.013	-0.02
805.313	-0.02
805.613	-0.02
805.912	-0.03
806.212	-0.02
806.511	-0.02
806.811	-0.02
807.11	-0.02
807.41	-0.02
807.709	-0.02
808.008	-0.02
808.307	-0.02
808.606	-0.02
808.905	-0.02
809.204	-0.03
809.503	-0.03
809.802	-0.02
810.101	-0.02
810.399	-0.02
810.698	-0.03
810.997	-0.02
811.295	-0.03
811.593	-0.03
811.892	-0.03
812.19	-0.03
812.488	-0.03
812.786	-0.03
813.084	-0.03
813.383	-0.03
813.68	-0.03
813.978	-0.03
814.276	-0.03
814.574	-0.02
814.872	-0.02
815.169	-0.03
815.467	-0.02
815.764	-0.02
816.062	-0.03
816.359	-0.03
816.656	-0.03
816.954	-0.03
817.251	-0.03
817.548	-0.03
817.845	-0.03
818.142	-0.03
818.439	-0.03
818.735	-0.03
819.032	-0.02
819.329	-0.02
819.626	-0.02
819.922	-0.03
820.219	-0.03
820.515	-0.03
820.811	-0.03
821.108	-0.03
821.404	-0.03
821.7	-0.03
821.996	-0.03
822.292	-0.04
822.588	-0.04
822.884	-0.03
823.18	-0.03
823.475	-0.03
823.771	-0.03
824.067	-0.04
824.362	-0.04
824.658	-0.04
824.953	-0.04
825.249	-0.04
825.544	-0.03
825.839	-0.03
826.134	-0.04
826.429	-0.04
826.724	-0.04
827.019	-0.03
827.314	-0.03
827.609	-0.04
827.904	-0.03
828.198	-0.03
828.493	-0.03
828.787	-0.03
829.082	-0.02
829.376	-0.02
829.671	-0.02
829.965	-0.03
830.259	-0.03
830.553	-0.03
830.847	-0.04
831.141	-0.03
831.435	-0.04
831.729	-0.04
832.023	-0.05
832.317	-0.04
832.61	-0.04
832.904	-0.04
833.197	-0.04
833.491	-0.04
833.784	-0.04
834.077	-0.04
834.371	-0.05
834.664	-0.03
834.957	-0.04
835.25	-0.04
835.543	-0.04
835.836	-0.04
836.129	-0.04
836.421	-0.05
836.714	-0.05
837.007	-0.05
837.299	-0.04
837.592	-0.04
837.884	-0.05
838.177	-0.04
838.469	-0.04
838.761	-0.04
839.053	-0.04
839.345	-0.03
839.637	-0.04
839.929	-0.04
840.221	-0.04
840.513	-0.04
840.805	-0.04
841.096	-0.04
841.388	-0.04
841.68	-0.03
841.971	-0.05
842.262	-0.04
842.554	-0.05
842.845	-0.04
843.136	-0.04
843.427	-0.03
843.718	-0.04
844.009	-0.03
844.3	-0.03
844.591	-0.04
844.882	-0.05
845.173	-0.04
845.463	-0.05
845.754	-0.05
846.044	-0.04
846.335	-0.04
846.625	-0.04
846.915	-0.04
847.206	-0.02
847.496	-0.04
847.786	-0.04
848.076	-0.03
848.366	-0.03
848.656	-0.03
848.945	-0.04
849.235	-0.03
849.525	-0.04
849.814	-0.03
850.104	-0.03
850.393	-0.03
850.683	-0.03
850.972	-0.03
851.261	-0.03
851.551	-0.03
851.84	-0.03
852.129	-0.03
852.418	-0.03
852.707	-0.04
852.995	-0.04
853.284	-0.04
853.573	-0.04
853.862	-0.02
854.15	-0.03
854.439	-0.04
854.727	-0.02
855.015	-0.02
855.304	-0.02
855.592	-0.03
855.88	-0.03
856.168	-0.03
856.456	-0.02
856.744	-0.02
857.032	-0.04
857.32	-0.02
857.607	-0.03
857.895	-0.03
858.183	-0.03
858.47	-0.05
858.757	-0.02
859.045	-0.01
859.332	-0.04
859.619	-0.03
859.907	-0.03
860.194	-0.02
860.481	-0.02
860.768	-0.02
861.054	-0.03
861.341	-0.02
861.628	-0.03
861.915	-0.01
862.201	-0.03
862.488	-0.06
862.774	-0.04
863.061	-0.02
863.347	-0.05
863.633	-0.02
863.919	-0.04
864.205	-0.03
864.491	-0.05
864.777	-0.03
865.063	-0.05
865.349	-0.04
865.635	-0.03
865.92	-0.03
866.206	-0.02
866.492	-0.03
866.777	-0.06
867.062	-0
867.348	-0.06
867.633	-0.06
867.918	-0.05
868.203	0
868.488	-0.03
868.773	-0.02
869.058	-0.04
869.343	-0.03
869.628	-0.05
869.912	-0.06
870.197	-0.04
870.482	-0.02
870.766	-0.02
871.05	-0.02
871.335	0.01
871.619	-0.02
871.903	-0.03
872.187	0
872.471	-0.05
872.755	-0.01
873.039	-0.08
873.323	0
873.607	-0.03
873.89	-0.02
874.174	-0.01
874.458	-0.04
874.741	0.06
875.024	-0.03
875.308	-0.1
875.591	0.03
875.874	0.06
876.157	-0.09
876.44	-0.04
876.723	-0.11
877.006	0
877.289	-0.03
877.572	-0.05
877.854	0.02
878.137	-0.08
878.42	-0.01
878.702	-0.05
878.984	-0.02
879.267	0.08
879.549	-0.09
879.831	0.03
880.113	-0.1
880.395	0.03
880.677	-0.01
880.959	-0.04
