Data from Rubpy_EV_300_EDTA_Buffered_Absorbance_12-14-23-195.txt Node
Date: Tue Jun 30 12:14:23 BST 2026
User: fpm-admin
Spectrometer: OFX00224
Trigger mode: 0
Integration Time (sec): 7.000000E-2
Scans to average: 3
Nonlinearity correction enabled: false
Boxcar width: 0
Storing dark spectrum: false
XAxis mode: Wavelengths
Number of Pixels in Spectrum: 2136
>>>>>Begin Spectral Data<<<<<
154.91	0.22
155.289	0.87
155.669	-0
156.048	-0.61
156.428	-0
156.807	-0.22
157.186	0.04
157.566	-0
157.945	-0
158.325	-0
158.704	-0
159.083	-0.09
159.462	-0.27
159.842	-1.12
160.221	-0.77
160.6	-0.4
160.979	-0
161.359	-1.36
161.738	-0
162.117	-0
162.496	-0.48
162.875	-0.71
163.254	-0
163.633	0.51
164.012	0.7
164.391	-0.01
164.77	-0
165.149	-0.6
165.528	-0.34
165.907	-0
166.286	-0.25
166.665	-0.06
167.044	-0
167.423	-0
167.802	-0.23
168.181	-0
168.559	-0
168.938	-0
169.317	-0
169.696	-0
170.074	-0
170.453	0.05
170.832	0.11
171.21	-0.31
171.589	-0
171.968	-0
172.346	0.11
172.725	-0.45
173.103	0.45
173.482	0.08
173.861	-0.81
174.239	-0
174.617	-0
174.996	-0.37
175.374	-1.23
175.753	-0.18
176.131	-0
176.51	0.46
176.888	0.65
177.266	0.95
177.645	0.07
178.023	-0.01
178.401	-0.28
178.779	0.17
179.158	-0.19
179.536	-0
179.914	-0
180.292	-0.22
180.67	1.11
181.048	-0
181.427	-0
181.805	-0
182.183	-0.82
182.561	-0.13
182.939	0.33
183.317	-0.11
183.695	0.35
184.073	0.05
184.451	-0
184.829	-0.36
185.206	-0.41
185.584	-1
185.962	-0
186.34	-0
186.718	-0
187.096	0.05
187.473	-0
187.851	0.46
188.229	-0.36
188.607	-0.05
188.984	-0.03
189.362	-0.09
189.74	0.03
190.117	-0.08
190.495	0.06
190.872	0.06
191.25	-0.03
191.627	-0.05
192.005	-0.06
192.382	-0.02
192.76	0.06
193.137	0.11
193.515	-0
193.892	0.05
194.269	-0.08
194.647	0.08
195.024	-0.07
195.401	-0.04
195.779	-0.02
196.156	0.03
196.533	0.03
196.91	0.07
197.288	0.01
197.665	0.07
198.042	0.03
198.419	0.01
198.796	0.01
199.173	-0.02
199.55	-0.01
199.927	0.05
200.304	-0.12
200.681	0.03
201.058	-0.03
201.435	-0.05
201.812	-0.03
202.189	0.1
202.566	-0.01
202.943	-0.04
203.32	0.03
203.697	0.05
204.073	0.01
204.45	0.02
204.827	0.02
205.204	-0.02
205.58	-0.02
205.957	-0.07
206.334	0
206.71	-0
207.087	0.03
207.464	-0.02
207.84	-0.07
208.217	-0.02
208.593	-0.06
208.97	-0.02
209.346	0.1
209.723	-0.06
210.099	-0
210.476	0.09
210.852	0.02
211.228	0.06
211.605	0.05
211.981	0.09
212.357	-0.03
212.733	-0
213.11	0
213.486	-0.03
213.862	0.03
214.238	-0.06
214.614	-0.03
214.991	0.01
215.367	-0.02
215.743	0.05
216.119	0.01
216.495	0.01
216.871	-0
217.247	0
217.623	0.08
217.999	-0.06
218.375	-0.03
218.751	0.08
219.127	-0.03
219.502	0.09
219.878	0.02
220.254	-0
220.63	0.07
221.006	0.04
221.381	-0.07
221.757	0.08
222.133	-0.01
222.508	0.03
222.884	0.07
223.26	0.06
223.635	0.04
224.011	0.07
224.386	0.02
224.762	-0.07
225.137	-0.07
225.513	-0.04
225.888	0.14
226.264	0.01
226.639	-0.02
227.014	0.06
227.39	0.01
227.765	0.05
228.14	0.03
228.516	-0.06
228.891	0.06
229.266	-0.02
229.641	0.14
230.017	-0.04
230.392	-0
230.767	0.02
231.142	-0.03
231.517	-0.02
231.892	0.07
232.267	-0.13
232.642	0.01
233.017	0.06
233.392	0.05
233.767	0.03
234.142	-0.06
234.517	-0.03
234.892	-0.06
235.267	0.04
235.641	0.08
236.016	-0.01
236.391	0.09
236.766	0.07
237.14	-0.01
237.515	-0.01
237.89	-0.01
238.264	0.04
238.639	-0.06
239.014	0.01
239.388	-0.01
239.763	0.02
240.137	-0.04
240.512	0.02
240.886	-0.07
241.261	0.07
241.635	0.01
242.009	0.02
242.384	0.01
242.758	-0.08
243.132	0.04
243.507	0.05
243.881	0.03
244.255	0.07
244.629	0.11
245.004	0.09
245.378	0.01
245.752	0.02
246.126	-0.02
246.5	0.01
246.874	0.08
247.248	-0.05
247.622	-0.05
247.996	-0.01
248.37	0.09
248.744	-0.04
249.118	-0.02
249.492	0.06
249.866	0.01
250.24	-0.06
250.613	0.07
250.987	0.01
251.361	-0.04
251.735	0.08
252.108	0.05
252.482	0.01
252.856	0
253.229	-0.01
253.603	-0.04
253.977	0.03
254.35	-0
254.724	-0
255.097	0.01
255.471	0
255.844	0.04
256.218	0.01
256.591	0.01
256.964	0.04
257.338	0.02
257.711	0.03
258.084	0
258.458	-0
258.831	-0.03
259.204	0.01
259.577	0.06
259.95	-0.09
260.323	0.03
260.697	-0.02
261.07	-0.05
261.443	-0.03
261.816	0.07
262.189	-0.02
262.562	0.03
262.935	-0.04
263.308	0
263.68	0.05
264.053	0.04
264.426	-0.01
264.799	0.01
265.172	-0.02
265.545	-0.01
265.917	0
266.29	0.02
266.663	-0
267.035	0.02
267.408	0.02
267.781	0.03
268.153	-0.01
268.526	-0.05
268.898	0.02
269.271	0.04
269.643	-0.05
270.016	0.03
270.388	0.02
270.76	0.06
271.133	0.03
271.505	0.04
271.877	-0.04
272.25	-0.01
272.622	0.03
272.994	0.05
273.366	0.04
273.739	0.03
274.111	-0.01
274.483	0.02
274.855	-0.02
275.227	0.03
275.599	0.05
275.971	0.04
276.343	-0.02
276.715	-0.04
277.087	0.1
277.459	0.03
277.831	0.05
278.203	-0.02
278.574	0.05
278.946	0.02
279.318	0.02
279.69	0.06
280.061	0.01
280.433	0.02
280.805	0.06
281.176	0.01
281.548	0.02
281.92	0.04
282.291	0.02
282.663	0.01
283.034	-0.01
283.406	0.03
283.777	-0.03
284.148	0.04
284.52	-0.02
284.891	0.04
285.262	0.04
285.634	0.04
286.005	0.06
286.376	0.03
286.747	0.07
287.119	0.04
287.49	-0.03
287.861	-0
288.232	-0.02
288.603	0.02
288.974	0.01
289.345	0.03
289.716	-0.01
290.087	0.03
290.458	0.01
290.829	0
291.2	-0.01
291.571	0.03
291.941	0.01
292.312	0.11
292.683	-0.02
293.054	0.03
293.424	0
293.795	-0.01
294.166	0.01
294.536	0.02
294.907	0.04
295.277	0.03
295.648	0.04
296.018	0.01
296.389	0.04
296.759	0.04
297.13	0.04
297.5	0.05
297.871	0.03
298.241	0.05
298.611	0.05
298.981	-0.01
299.352	0.01
299.722	0.05
300.092	0.04
300.462	-0
300.832	0.03
301.202	0.03
301.573	0.02
301.943	0.03
302.313	0.02
302.683	0.03
303.053	0.04
303.422	0.03
303.792	0.03
304.162	0.03
304.532	0.03
304.902	0.03
305.272	0.03
305.641	0.04
306.011	0.02
306.381	0.04
306.75	0.04
307.12	0.04
307.49	0.03
307.859	0.03
308.229	0.04
308.598	0.05
308.968	0.04
309.337	0.03
309.707	0.04
310.076	0.04
310.445	0.04
310.815	0.04
311.184	0.04
311.553	0.04
311.923	0.04
312.292	0.04
312.661	0.04
313.03	0.04
313.399	0.04
313.768	0.04
314.137	0.04
314.506	0.05
314.875	0.04
315.244	0.04
315.613	0.04
315.982	0.04
316.351	0.05
316.72	0.05
317.089	0.04
317.458	0.04
317.826	0.03
318.195	0.05
318.564	0.04
318.933	0.04
319.301	0.04
319.67	0.04
320.038	0.04
320.407	0.04
320.775	0.04
321.144	0.04
321.512	0.04
321.881	0.04
322.249	0.04
322.618	0.04
322.986	0.04
323.354	0.04
323.723	0.04
324.091	0.04
324.459	0.04
324.827	0.04
325.195	0.04
325.564	0.03
325.932	0.04
326.3	0.03
326.668	0.04
327.036	0.03
327.404	0.03
327.772	0.03
328.14	0.04
328.508	0.04
328.875	0.03
329.243	0.04
329.611	0.04
329.979	0.04
330.346	0.04
330.714	0.04
331.082	0.04
331.449	0.04
331.817	0.04
332.185	0.04
332.552	0.04
332.92	0.04
333.287	0.03
333.655	0.03
334.022	0.04
334.389	0.04
334.757	0.04
335.124	0.04
335.491	0.04
335.859	0.04
336.226	0.04
336.593	0.04
336.96	0.04
337.327	0.04
337.695	0.04
338.062	0.04
338.429	0.04
338.796	0.04
339.163	0.04
339.53	0.04
339.897	0.04
340.263	0.04
340.63	0.04
340.997	0.05
341.364	0.05
341.731	0.04
342.097	0.05
342.464	0.05
342.831	0.04
343.197	0.05
343.564	0.04
343.931	0.05
344.297	0.05
344.664	0.05
345.03	0.05
345.396	0.05
345.763	0.05
346.129	0.05
346.496	0.05
346.862	0.05
347.228	0.06
347.594	0.05
347.961	0.05
348.327	0.05
348.693	0.06
349.059	0.06
349.425	0.06
349.791	0.05
350.157	0.05
350.523	0.06
350.889	0.06
351.255	0.06
351.621	0.06
351.987	0.07
352.353	0.06
352.719	0.06
353.084	0.07
353.45	0.07
353.816	0.07
354.181	0.07
354.547	0.07
354.913	0.07
355.278	0.07
355.644	0.07
356.009	0.08
356.375	0.08
356.74	0.08
357.106	0.08
357.471	0.08
357.836	0.08
358.202	0.08
358.567	0.09
358.932	0.09
359.297	0.09
359.663	0.09
360.028	0.09
360.393	0.09
360.758	0.09
361.123	0.09
361.488	0.09
361.853	0.1
362.218	0.1
362.583	0.1
362.948	0.1
363.312	0.1
363.677	0.1
364.042	0.11
364.407	0.11
364.772	0.11
365.136	0.11
365.501	0.11
365.865	0.12
366.23	0.12
366.595	0.12
366.959	0.12
367.324	0.12
367.688	0.13
368.052	0.13
368.417	0.13
368.781	0.13
369.145	0.14
369.51	0.14
369.874	0.14
370.238	0.14
370.602	0.14
370.967	0.14
371.331	0.14
371.695	0.14
372.059	0.14
372.423	0.14
372.787	0.13
373.151	0.14
373.515	0.13
373.878	0.13
374.242	0.13
374.606	0.14
374.97	0.13
375.334	0.13
375.697	0.13
376.061	0.14
376.425	0.13
376.788	0.14
377.152	0.14
377.515	0.14
377.879	0.15
378.242	0.14
378.606	0.14
378.969	0.15
379.333	0.15
379.696	0.15
380.059	0.15
380.422	0.15
380.786	0.16
381.149	0.17
381.512	0.17
381.875	0.17
382.238	0.18
382.601	0.18
382.964	0.18
383.327	0.19
383.69	0.19
384.053	0.2
384.416	0.2
384.779	0.21
385.142	0.21
385.504	0.22
385.867	0.22
386.23	0.22
386.593	0.22
386.955	0.22
387.318	0.22
387.68	0.22
388.043	0.22
388.405	0.22
388.768	0.22
389.13	0.22
389.493	0.21
389.855	0.21
390.217	0.21
390.58	0.21
390.942	0.21
391.304	0.21
391.666	0.22
392.028	0.22
392.391	0.22
392.753	0.23
393.115	0.24
393.477	0.25
393.839	0.25
394.201	0.26
394.563	0.27
394.924	0.29
395.286	0.3
395.648	0.3
396.01	0.31
396.371	0.33
396.733	0.33
397.095	0.34
397.456	0.34
397.818	0.34
398.18	0.33
398.541	0.33
398.903	0.32
399.264	0.32
399.625	0.31
399.987	0.3
400.348	0.28
400.709	0.27
401.071	0.25
401.432	0.24
401.793	0.23
402.154	0.21
402.515	0.2
402.876	0.18
403.238	0.18
403.599	0.17
403.96	0.15
404.32	0.14
404.681	0.13
405.042	0.12
405.403	0.12
405.764	0.11
406.125	0.1
406.485	0.09
406.846	0.09
407.207	0.08
407.567	0.08
407.928	0.08
408.288	0.07
408.649	0.07
409.009	0.07
409.37	0.06
409.73	0.06
410.091	0.06
410.451	0.06
410.811	0.05
411.171	0.06
411.532	0.05
411.892	0.05
412.252	0.05
412.612	0.05
412.972	0.04
413.332	0.05
413.692	0.05
414.052	0.04
414.412	0.05
414.772	0.04
415.132	0.04
415.492	0.04
415.851	0.04
416.211	0.04
416.571	0.04
416.931	0.04
417.29	0.04
417.65	0.03
418.009	0.03
418.369	0.03
418.728	0.03
419.088	0.03
419.447	0.04
419.807	0.03
420.166	0.04
420.525	0.04
420.884	0.04
421.244	0.03
421.603	0.04
421.962	0.03
422.321	0.03
422.68	0.03
423.039	0.03
423.398	0.03
423.757	0.03
424.116	0.03
424.475	0.03
424.834	0.03
425.193	0.03
425.551	0.03
425.91	0.03
426.269	0.04
426.628	0.03
426.986	0.03
427.345	0.03
427.703	0.03
428.062	0.03
428.42	0.03
428.779	0.03
429.137	0.03
429.496	0.03
429.854	0.03
430.212	0.03
430.57	0.02
430.929	0.02
431.287	0.02
431.645	0.03
432.003	0.02
432.361	0.03
432.719	0.02
433.077	0.03
433.435	0.03
433.793	0.03
434.151	0.03
434.509	0.03
434.866	0.03
435.224	0.03
435.582	0.02
435.94	0.03
436.297	0.02
436.655	0.02
437.012	0.03
437.37	0.02
437.727	0.03
438.085	0.03
438.442	0.03
438.8	0.02
439.157	0.03
439.514	0.03
439.872	0.03
440.229	0.02
440.586	0.02
440.943	0.03
441.3	0.02
441.657	0.02
442.014	0.02
442.371	0.02
442.728	0.02
443.085	0.03
443.442	0.03
443.799	0.02
444.156	0.02
444.513	0.02
444.869	0.02
445.226	0.02
445.583	0.02
445.939	0.02
446.296	0.03
446.652	0.02
447.009	0.03
447.365	0.02
447.722	0.02
448.078	0.02
448.434	0.01
448.791	0.02
449.147	0.02
449.503	0.01
449.859	0.02
450.215	0.02
450.571	0.02
450.928	0.02
451.284	0.02
451.64	0.02
451.995	0.02
452.351	0.01
452.707	0.02
453.063	0.02
453.419	0.01
453.775	0.01
454.13	0.02
454.486	0.01
454.842	0.01
455.197	0.02
455.553	0.02
455.908	0.01
456.264	0.01
456.619	0.01
456.975	0.01
457.33	0.01
457.685	0.01
458.04	0.01
458.396	0.01
458.751	0.01
459.106	0.01
459.461	0
459.816	0.01
460.171	0.01
460.526	0
460.881	0
461.236	0.01
461.591	0
461.946	0.01
462.301	0
462.655	-0
463.01	-0
463.365	0.01
463.719	-0.01
464.074	-0
464.428	-0
464.783	-0.01
465.137	-0
465.492	-0
465.846	0
466.201	-0.01
466.555	0
466.909	-0.01
467.263	-0.01
467.618	-0.01
467.972	-0.01
468.326	-0
468.68	-0.01
469.034	-0.01
469.388	-0
469.742	-0.01
470.096	-0.01
470.45	-0.01
470.804	-0
471.157	-0.01
471.511	-0.01
471.865	-0
472.218	-0
472.572	-0.01
472.926	-0.01
473.279	-0.01
473.633	-0
473.986	-0.01
474.34	-0
474.693	-0.01
475.046	-0
475.4	0
475.753	-0
476.106	0
476.459	0.01
476.812	0.01
477.165	0
477.519	0
477.872	0.01
478.224	0.01
478.577	0.01
478.93	0.01
479.283	0.01
479.636	0.01
479.989	0.01
480.341	0.01
480.694	0.01
481.047	0.01
481.399	0.01
481.752	0.01
482.104	0.01
482.457	0.01
482.809	0.01
483.162	0.02
483.514	0.01
483.866	0.01
484.219	0.01
484.571	0.01
484.923	0.01
485.275	0.02
485.627	0.01
485.979	0.02
486.331	0.02
486.683	0.02
487.035	0.02
487.387	0.01
487.739	0.02
488.091	0.02
488.443	0.02
488.794	0.03
489.146	0.02
489.498	0.02
489.849	0.02
490.201	0.02
490.552	0.02
490.904	0.02
491.255	0.02
491.607	0.02
491.958	0.02
492.309	0.02
492.661	0.02
493.012	0.02
493.363	0.02
493.714	0.02
494.065	0.02
494.416	0.02
494.767	0.02
495.118	0.02
495.469	0.03
495.82	0.02
496.171	0.02
496.522	0.02
496.872	0.02
497.223	0.03
497.574	0.03
497.924	0.03
498.275	0.03
498.626	0.03
498.976	0.03
499.327	0.03
499.677	0.03
500.027	0.03
500.378	0.03
500.728	0.03
501.078	0.03
501.428	0.03
501.779	0.03
502.129	0.03
502.479	0.02
502.829	0.03
503.179	0.03
503.529	0.03
503.879	0.03
504.229	0.03
504.578	0.03
504.928	0.03
505.278	0.03
505.628	0.03
505.977	0.04
506.327	0.03
506.676	0.03
507.026	0.03
507.375	0.03
507.725	0.03
508.074	0.03
508.424	0.03
508.773	0.03
509.122	0.03
509.471	0.04
509.82	0.03
510.17	0.03
510.519	0.04
510.868	0.04
511.217	0.04
511.566	0.04
511.915	0.04
512.263	0.04
512.612	0.04
512.961	0.04
513.31	0.04
513.659	0.04
514.007	0.04
514.356	0.04
514.704	0.04
515.053	0.04
515.401	0.04
515.75	0.04
516.098	0.04
516.447	0.03
516.795	0.04
517.143	0.04
517.491	0.04
517.839	0.04
518.188	0.04
518.536	0.04
518.884	0.04
519.232	0.04
519.58	0.04
519.928	0.04
520.275	0.04
520.623	0.04
520.971	0.04
521.319	0.04
521.666	0.04
522.014	0.04
522.362	0.04
522.709	0.04
523.057	0.04
523.404	0.04
523.752	0.04
524.099	0.04
524.446	0.05
524.794	0.04
525.141	0.05
525.488	0.04
525.835	0.04
526.182	0.04
526.529	0.04
526.876	0.05
527.223	0.05
527.57	0.04
527.917	0.05
528.264	0.04
528.611	0.04
528.958	0.04
529.304	0.04
529.651	0.04
529.998	0.05
530.344	0.05
530.691	0.05
531.037	0.05
531.384	0.05
531.73	0.05
532.076	0.05
532.423	0.05
532.769	0.05
533.115	0.05
533.461	0.05
533.807	0.05
534.154	0.05
534.5	0.05
534.846	0.05
535.192	0.05
535.537	0.05
535.883	0.05
536.229	0.05
536.575	0.06
536.921	0.06
537.266	0.06
537.612	0.06
537.957	0.05
538.303	0.05
538.649	0.06
538.994	0.05
539.339	0.06
539.685	0.06
540.03	0.06
540.375	0.06
540.721	0.06
541.066	0.06
541.411	0.06
541.756	0.06
542.101	0.06
542.446	0.06
542.791	0.06
543.136	0.06
543.481	0.06
543.825	0.06
544.17	0.06
544.515	0.06
544.86	0.06
545.204	0.06
545.549	0.06
545.893	0.06
546.238	0.06
546.582	0.06
546.927	0.06
547.271	0.06
547.615	0.07
547.96	0.06
548.304	0.06
548.648	0.07
548.992	0.06
549.336	0.07
549.68	0.07
550.024	0.07
550.368	0.07
550.712	0.07
551.056	0.07
551.4	0.07
551.743	0.07
552.087	0.07
552.431	0.07
552.774	0.07
553.118	0.07
553.462	0.07
553.805	0.07
554.148	0.07
554.492	0.07
554.835	0.07
555.178	0.07
555.522	0.07
555.865	0.07
556.208	0.07
556.551	0.07
556.894	0.07
557.237	0.07
557.58	0.07
557.923	0.07
558.266	0.07
558.609	0.07
558.952	0.07
559.294	0.07
559.637	0.07
559.98	0.07
560.322	0.07
560.665	0.07
561.007	0.07
561.35	0.07
561.692	0.07
562.034	0.07
562.377	0.07
562.719	0.07
563.061	0.07
563.403	0.08
563.745	0.08
564.088	0.08
564.43	0.07
564.772	0.07
565.113	0.07
565.455	0.07
565.797	0.07
566.139	0.07
566.481	0.07
566.822	0.07
567.164	0.08
567.506	0.07
567.847	0.07
568.189	0.07
568.53	0.07
568.872	0.08
569.213	0.08
569.554	0.08
569.895	0.08
570.237	0.08
570.578	0.08
570.919	0.08
571.26	0.08
571.601	0.08
571.942	0.08
572.283	0.08
572.624	0.08
572.965	0.08
573.306	0.08
573.646	0.08
573.987	0.08
574.328	0.08
574.668	0.08
575.009	0.08
575.349	0.08
575.69	0.08
576.03	0.08
576.37	0.08
576.711	0.08
577.051	0.08
577.391	0.08
577.731	0.08
578.072	0.08
578.412	0.08
578.752	0.08
579.092	0.08
579.431	0.08
579.771	0.07
580.111	0.06
580.451	0.07
580.791	0.08
581.13	0.08
581.47	0.08
581.81	0.08
582.149	0.08
582.489	0.08
582.828	0.08
583.167	0.07
583.507	0.04
583.846	0.03
584.185	0.04
584.525	0.06
584.864	0.07
585.203	0.08
585.542	0.08
585.881	0.08
586.22	0.08
586.559	0.08
586.898	0.07
587.236	0.08
587.575	0.07
587.914	0.07
588.252	0.08
588.591	0.08
588.93	0.08
589.268	0.08
589.607	0.08
589.945	0.08
590.283	0.08
590.622	0.08
590.96	0.08
591.298	0.09
591.636	0.09
591.974	0.09
592.313	0.09
592.651	0.09
592.989	0.08
593.326	0.09
593.664	0.09
594.002	0.09
594.34	0.09
594.678	0.08
595.015	0.08
595.353	0.08
595.691	0.09
596.028	0.09
596.366	0.09
596.703	0.09
597.04	0.09
597.378	0.09
597.715	0.1
598.052	0.09
598.389	0.09
598.726	0.09
599.064	0.09
599.401	0.09
599.738	0.09
600.074	0.09
600.411	0.09
600.748	0.09
601.085	0.09
601.422	0.09
601.758	0.09
602.095	0.09
602.432	0.09
602.768	0.09
603.105	0.09
603.441	0.1
603.777	0.1
604.114	0.1
604.45	0.09
604.786	0.09
605.122	0.09
605.459	0.09
605.795	0.09
606.131	0.09
606.467	0.1
606.803	0.1
607.139	0.09
607.474	0.09
607.81	0.09
608.146	0.09
608.482	0.09
608.817	0.09
609.153	0.1
609.488	0.09
609.824	0.09
610.159	0.09
610.495	0.09
610.83	0.09
611.165	0.09
611.5	0.09
611.836	0.09
612.171	0.09
612.506	0.09
612.841	0.09
613.176	0.09
613.511	0.09
613.845	0.09
614.18	0.09
614.515	0.09
614.85	0.09
615.184	0.09
615.519	0.09
615.854	0.09
616.188	0.09
616.523	0.09
616.857	0.09
617.191	0.09
617.526	0.08
617.86	0.09
618.194	0.09
618.528	0.09
618.862	0.09
619.196	0.09
619.53	0.09
619.864	0.08
620.198	0.08
620.532	0.08
620.866	0.09
621.2	0.08
621.533	0.08
621.867	0.09
622.201	0.08
622.534	0.09
622.868	0.08
623.201	0.08
623.534	0.08
623.868	0.08
624.201	0.08
624.534	0.08
624.868	0.08
625.201	0.08
625.534	0.08
625.867	0.08
626.2	0.08
626.533	0.08
626.865	0.08
627.198	0.08
627.531	0.08
627.864	0.08
628.196	0.08
628.529	0.08
628.862	0.07
629.194	0.08
629.527	0.07
629.859	0.08
630.191	0.07
630.524	0.07
630.856	0.07
631.188	0.07
631.52	0.07
631.852	0.07
632.184	0.07
632.516	0.07
632.848	0.06
633.18	0.07
633.512	0.06
633.844	0.06
634.175	0.06
634.507	0.06
634.839	0.06
635.17	0.06
635.502	0.06
635.833	0.07
636.165	0.07
636.496	0.06
636.827	0.07
637.159	0.06
637.49	0.06
637.821	0.06
638.152	0.06
638.483	0.06
638.814	0.06
639.145	0.06
639.476	0.06
639.807	0.06
640.137	0.06
640.468	0.06
640.799	0.05
641.129	0.05
641.46	0.05
641.791	0.05
642.121	0.05
642.451	0.05
642.782	0.05
643.112	0.05
643.442	0.05
643.773	0.04
644.103	0.05
644.433	0.05
644.763	0.04
645.093	0.05
645.423	0.05
645.753	0.05
646.082	0.05
646.412	0.05
646.742	0.05
647.072	0.05
647.401	0.05
647.731	0.05
648.06	0.05
648.39	0.05
648.719	0.05
649.048	0.05
649.378	0.05
649.707	0.04
650.036	0.05
650.365	0.05
650.694	0.04
651.023	0.05
651.352	0.05
651.681	0.04
652.01	0.04
652.339	0.04
652.668	0.04
652.996	0.04
653.325	0.04
653.654	0.04
653.982	0.04
654.311	0.04
654.639	0.05
654.967	0.04
655.296	0.04
655.624	0.04
655.952	0.05
656.28	0.05
656.609	0.05
656.937	0.04
657.265	0.04
657.593	0.04
657.92	0
658.248	-0
658.576	0
658.904	0
659.231	0.03
659.559	0.05
659.887	0.05
660.214	0.05
660.542	0.05
660.869	0.05
661.196	0.05
661.524	0.04
661.851	0.04
662.178	0.04
662.505	0.04
662.832	0.04
663.159	0.04
663.486	0.05
663.813	0.04
664.14	0.04
664.467	0.04
664.794	0.04
665.12	0.04
665.447	0.04
665.774	0.04
666.1	0.04
666.427	0.04
666.753	0.04
667.079	0.04
667.406	0.04
667.732	0.04
668.058	0.04
668.384	0.04
668.71	0.04
669.036	0.04
669.362	0.03
669.688	0.03
670.014	0.03
670.34	0.03
670.666	0.03
670.991	0.04
671.317	0.04
671.643	0.04
671.968	0.04
672.294	0.04
672.619	0.04
672.945	0.04
673.27	0.04
673.595	0.04
673.92	0.04
674.246	0.04
674.571	0.04
674.896	0.04
675.221	0.04
675.546	0.04
675.87	0.04
676.195	0.04
676.52	0.04
676.845	0.04
677.169	0.04
677.494	0.03
677.819	0.03
678.143	0.03
678.468	0.03
678.792	0.03
679.116	0.03
679.44	0.03
679.765	0.03
680.089	0.03
680.413	0.03
680.737	0.03
681.061	0.03
681.385	0.03
681.709	0.03
682.033	0.03
682.356	0.03
682.68	0.03
683.004	0.03
683.327	0.03
683.651	0.03
683.974	0.03
684.298	0.03
684.621	0.03
684.944	0.03
685.268	0.03
685.591	0.02
685.914	0.03
686.237	0.03
686.56	0.02
686.883	0.02
687.206	0.02
687.529	0.02
687.852	0.02
688.175	0.02
688.497	0.02
688.82	0.02
689.142	0.02
689.465	0.02
689.787	0.02
690.11	0.02
690.432	0.02
690.755	0.02
691.077	0.02
691.399	0.02
691.721	0.02
692.043	0.02
692.365	0.02
692.687	0.02
693.009	0.01
693.331	0.02
693.653	0.01
693.974	0.01
694.296	0.02
694.618	0.02
694.939	0.02
695.261	0.02
695.582	0.02
695.904	0.01
696.225	0.01
696.546	0.01
696.868	0.01
697.189	0.01
697.51	0.01
697.831	0.01
698.152	0.01
698.473	0.01
698.794	0.01
699.114	0.01
699.435	0.01
699.756	0.01
700.077	0.02
700.397	0.01
700.718	0.01
701.038	0.01
701.359	0.01
701.679	0.01
701.999	0.01
702.32	0.01
702.64	0.01
702.96	0.01
703.28	0.01
703.6	0.01
703.92	0.01
704.24	0.01
704.56	0.01
704.879	0.01
705.199	0.01
705.519	0.01
705.838	0.01
706.158	0.01
706.478	0.01
706.797	0.01
707.116	0.02
707.436	0.01
707.755	0.01
708.074	0.01
708.393	0.01
708.712	0.01
709.031	0.01
709.35	0.02
709.669	0.02
709.988	0.02
710.307	0.01
710.626	0.01
710.944	0.01
711.263	0.01
711.582	0.01
711.9	0.01
712.219	0.01
712.537	0.01
712.855	0.01
713.174	0.01
713.492	0.01
713.81	0.01
714.128	0.02
714.446	0.02
714.764	0.02
715.082	0.01
715.4	0.01
715.718	0.01
716.035	0.01
716.353	0.01
716.671	0.01
716.988	0.01
717.306	0.01
717.623	0.01
717.941	0.01
718.258	0.01
718.575	0.01
718.893	0.01
719.21	0.01
719.527	0.01
719.844	0.01
720.161	0.01
720.478	0.01
720.795	0.01
721.112	0.02
721.428	0.02
721.745	0.02
722.062	0.02
722.378	0.02
722.695	0.02
723.011	0.02
723.328	0.02
723.644	0.02
723.96	0.02
724.276	0.02
724.593	0.02
724.909	0.02
725.225	0.02
725.541	0.02
725.857	0.02
726.173	0.01
726.488	0.02
726.804	0.01
727.12	0.01
727.435	0.02
727.751	0.02
728.067	0.02
728.382	0.02
728.697	0.02
729.013	0.02
729.328	0.02
729.643	0.02
729.958	0.02
730.273	0.02
730.588	0.01
730.903	0.02
731.218	0.02
731.533	0.01
731.848	0.01
732.163	0.01
732.477	0.01
732.792	0.01
733.107	0.01
733.421	0.01
733.736	0.01
734.05	0.01
734.364	0.01
734.678	0.01
734.993	0.01
735.307	0.01
735.621	0.01
735.935	0.01
736.249	0.01
736.563	0.01
736.877	0.01
737.19	0.01
737.504	0.01
737.818	0.02
738.131	0.02
738.445	0.02
738.758	0.02
739.072	0.02
739.385	0.02
739.698	0.02
740.012	0.02
740.325	0.01
740.638	0.01
740.951	0.02
741.264	0.01
741.577	0.01
741.89	0.01
742.203	0.01
742.515	0.01
742.828	0.01
743.141	0.01
743.453	0.01
743.766	0.01
744.078	0.01
744.391	0.01
744.703	0.01
745.015	0.01
745.327	0.01
745.639	0.01
745.952	0
746.264	0
746.575	0
746.887	0
747.199	0.01
747.511	0.01
747.823	0.01
748.134	0
748.446	0
748.757	0.01
749.069	0.01
749.38	0.01
749.692	0.01
750.003	0.01
750.314	0.01
750.625	0.01
750.936	0.01
751.248	0.01
751.559	0.01
751.869	0.01
752.18	0.01
752.491	0.01
752.802	0.01
753.112	0.01
753.423	0.01
753.734	0.01
754.044	0.01
754.355	0.01
754.665	0.01
754.975	0.01
755.285	0.01
755.596	0.01
755.906	0.01
756.216	0.01
756.526	0.01
756.836	0
757.146	0
757.455	0
757.765	0
758.075	-0
758.385	-0
758.694	-0
759.004	-0
759.313	-0
759.622	-0
759.932	0
760.241	0
760.55	0
760.859	-0
761.168	0
761.477	0
761.786	0
762.095	0
762.404	0
762.713	0.01
763.021	0.01
763.33	0.01
763.639	0.01
763.947	0
764.256	0
764.564	0
764.872	0
765.181	-0
765.489	-0
765.797	-0
766.105	-0
766.413	-0
766.721	-0
767.029	-0
767.337	-0
767.644	-0
767.952	-0
768.26	-0
768.567	-0.01
768.875	-0
769.182	-0.01
769.49	-0
769.797	-0
770.104	-0
770.411	0
770.718	-0
771.026	0
771.333	0
771.639	0
771.946	-0
772.253	-0
772.56	-0
772.867	-0.01
773.173	-0.01
773.48	-0.01
773.786	-0.01
774.093	-0
774.399	-0.01
774.705	-0
775.012	-0.01
775.318	-0
775.624	-0
775.93	-0
776.236	-0.01
776.542	-0
776.848	-0
777.154	-0
777.459	-0
777.765	-0
778.071	-0.01
778.376	-0.01
778.682	-0.01
778.987	-0.01
779.292	-0.01
779.598	-0.01
779.903	-0.01
780.208	-0.01
780.513	-0.01
780.818	-0
781.123	-0.01
781.428	-0.01
781.733	-0.01
782.038	-0.01
782.343	-0.01
782.647	-0.01
782.952	-0.01
783.256	-0.01
783.561	-0.01
783.865	-0.01
784.17	-0.01
784.474	-0.01
784.778	-0.01
785.082	-0.01
785.386	-0.01
785.69	-0.01
785.994	-0.01
786.298	-0.01
786.602	-0.02
786.906	-0.01
787.209	-0.01
787.513	-0.01
787.817	-0.02
788.12	-0.02
788.424	-0.02
788.727	-0.02
789.03	-0.02
789.333	-0.01
789.637	-0.01
789.94	-0.01
790.243	-0.01
790.546	-0.01
790.849	-0.01
791.152	-0.01
791.454	-0.01
791.757	-0.01
792.06	-0.01
792.362	-0.01
792.665	-0.01
792.967	-0.02
793.27	-0.02
793.572	-0.02
793.874	-0.01
794.177	-0.02
794.479	-0.02
794.781	-0.02
795.083	-0.02
795.385	-0.02
795.687	-0.02
795.989	-0.01
796.29	-0.01
796.592	-0.01
796.894	-0.01
797.195	-0.01
797.497	-0.01
797.798	-0.01
798.1	-0.01
798.401	-0.02
798.702	-0.02
799.003	-0.02
799.304	-0.02
799.605	-0.02
799.906	-0.02
800.207	-0.02
800.508	-0.02
800.809	-0.03
801.11	-0.03
801.41	-0.02
801.711	-0.02
802.011	-0.02
802.312	-0.02
802.612	-0.02
802.913	-0.02
803.213	-0.02
803.513	-0.02
803.813	-0.02
804.113	-0.02
804.413	-0.02
804.713	-0.02
805.013	-0.02
805.313	-0.02
805.613	-0.02
805.912	-0.02
806.212	-0.02
806.511	-0.02
806.811	-0.02
807.11	-0.01
807.41	-0.01
807.709	-0.02
808.008	-0.02
808.307	-0.02
808.606	-0.02
808.905	-0.02
809.204	-0.02
809.503	-0.03
809.802	-0.02
810.101	-0.02
810.399	-0.02
810.698	-0.02
810.997	-0.03
811.295	-0.03
811.593	-0.03
811.892	-0.03
812.19	-0.03
812.488	-0.03
812.786	-0.03
813.084	-0.03
813.383	-0.03
813.68	-0.03
813.978	-0.03
814.276	-0.02
814.574	-0.03
814.872	-0.02
815.169	-0.02
815.467	-0.02
815.764	-0.03
816.062	-0.03
816.359	-0.03
816.656	-0.03
816.954	-0.03
817.251	-0.03
817.548	-0.03
817.845	-0.04
818.142	-0.03
818.439	-0.03
818.735	-0.03
819.032	-0.02
819.329	-0.02
819.626	-0.02
819.922	-0.02
820.219	-0.02
820.515	-0.03
820.811	-0.03
821.108	-0.03
821.404	-0.03
821.7	-0.03
821.996	-0.03
822.292	-0.04
822.588	-0.03
822.884	-0.03
823.18	-0.03
823.475	-0.03
823.771	-0.03
824.067	-0.04
824.362	-0.03
824.658	-0.04
824.953	-0.04
825.249	-0.03
825.544	-0.03
825.839	-0.04
826.134	-0.03
826.429	-0.04
826.724	-0.04
827.019	-0.04
827.314	-0.03
827.609	-0.03
827.904	-0.03
828.198	-0.03
828.493	-0.03
828.787	-0.02
829.082	-0.02
829.376	-0.02
829.671	-0.03
829.965	-0.03
830.259	-0.03
830.553	-0.03
830.847	-0.04
831.141	-0.04
831.435	-0.04
831.729	-0.04
832.023	-0.04
832.317	-0.04
832.61	-0.04
832.904	-0.04
833.197	-0.04
833.491	-0.04
833.784	-0.04
834.077	-0.04
834.371	-0.05
834.664	-0.03
834.957	-0.04
835.25	-0.04
835.543	-0.04
835.836	-0.05
836.129	-0.04
836.421	-0.05
836.714	-0.05
837.007	-0.04
837.299	-0.04
837.592	-0.04
837.884	-0.04
838.177	-0.05
838.469	-0.04
838.761	-0.03
839.053	-0.03
839.345	-0.03
839.637	-0.04
839.929	-0.04
840.221	-0.04
840.513	-0.04
840.805	-0.04
841.096	-0.04
841.388	-0.04
841.68	-0.02
841.971	-0.05
842.262	-0.03
842.554	-0.05
842.845	-0.04
843.136	-0.04
843.427	-0.04
843.718	-0.03
844.009	-0.04
844.3	-0.04
844.591	-0.03
844.882	-0.04
845.173	-0.05
845.463	-0.05
845.754	-0.05
846.044	-0.04
846.335	-0.04
846.625	-0.03
846.915	-0.04
847.206	-0.03
847.496	-0.03
847.786	-0.05
848.076	-0.04
848.366	-0.03
848.656	-0.03
848.945	-0.04
849.235	-0.03
849.525	-0.04
849.814	-0.02
850.104	-0.03
850.393	-0.03
850.683	-0.03
850.972	-0.02
851.261	-0.03
851.551	-0.02
851.84	-0.04
852.129	-0.03
852.418	-0.03
852.707	-0.04
852.995	-0.04
853.284	-0.03
853.573	-0.03
853.862	-0.02
854.15	-0.02
854.439	-0.03
854.727	-0.03
855.015	-0.02
855.304	-0.03
855.592	-0.01
855.88	-0.03
856.168	-0.03
856.456	-0.03
856.744	-0.02
857.032	-0.04
857.32	-0.03
857.607	-0.03
857.895	-0.03
858.183	-0.05
858.47	-0.03
858.757	-0.04
859.045	-0.04
859.332	-0.05
859.619	-0.02
859.907	-0.03
860.194	-0.03
860.481	-0.02
860.768	-0.04
861.054	-0.03
861.341	-0.03
861.628	-0.04
861.915	-0.02
862.201	-0.04
862.488	-0.04
862.774	-0.05
863.061	-0.04
863.347	-0.04
863.633	-0.04
863.919	-0.05
864.205	-0.02
864.491	-0.04
864.777	-0.05
865.063	-0.05
865.349	-0.04
865.635	-0.03
865.92	-0
866.206	-0.02
866.492	-0.05
866.777	-0.06
867.062	-0.01
867.348	-0.05
867.633	-0.05
867.918	-0.05
868.203	-0.04
868.488	-0.05
868.773	-0.02
869.058	-0.05
869.343	-0.03
869.628	-0.03
869.912	-0.06
870.197	-0.08
870.482	-0.03
870.766	-0.02
871.05	-0.03
871.335	-0.03
871.619	-0.04
871.903	-0.11
872.187	-0.04
872.471	-0.04
872.755	-0.03
873.039	0.01
873.323	-0.03
873.607	-0.02
873.89	-0.09
874.174	-0.02
874.458	-0.07
874.741	-0.03
875.024	-0.02
875.308	-0.08
875.591	0.01
875.874	-0.01
876.157	-0.11
876.44	-0.06
876.723	-0.07
877.006	0.01
877.289	-0.01
877.572	-0.02
877.854	0.01
878.137	-0.05
878.42	0.02
878.702	-0.01
878.984	-0.06
879.267	0.05
879.549	-0.09
879.831	-0.07
880.113	-0.15
880.395	0.05
880.677	-0.08
880.959	-0.01
