Data from Rubpy_EV_300_EDTA_Buffered_Absorbance_12-36-58-201.txt Node
Date: Tue Jun 30 12:36:58 BST 2026
User: fpm-admin
Spectrometer: OFX00224
Trigger mode: 0
Integration Time (sec): 7.000000E-2
Scans to average: 3
Nonlinearity correction enabled: false
Boxcar width: 0
Storing dark spectrum: false
XAxis mode: Wavelengths
Number of Pixels in Spectrum: 2136
>>>>>Begin Spectral Data<<<<<
154.91	-0
155.289	-0
155.669	-0
156.048	-0.81
156.428	0.76
156.807	1.23
157.186	0.55
157.566	0.3
157.945	-0
158.325	-0
158.704	-0
159.083	-0.23
159.462	0.25
159.842	-0.92
160.221	-0.21
160.6	-0.11
160.979	-0.18
161.359	-1.43
161.738	-0
162.117	-0
162.496	-0.93
162.875	-0.62
163.254	-0.54
163.633	-0
164.012	-0
164.391	-0.18
164.77	-0
165.149	-0.16
165.528	0.06
165.907	-0
166.286	-0.63
166.665	0.17
167.044	-0
167.423	-0
167.802	-0.51
168.181	-0
168.559	-0
168.938	-0
169.317	-0.09
169.696	-0
170.074	-0
170.453	-0.15
170.832	-0.24
171.21	-0.25
171.589	-0
171.968	-0
172.346	-0.05
172.725	-0.18
173.103	1.36
173.482	-0.19
173.861	-0
174.239	-0
174.617	-0
174.996	-0.43
175.374	-1.11
175.753	-0.67
176.131	-0
176.51	0.23
176.888	0.06
177.266	-0
177.645	0.01
178.023	0.16
178.401	-0.44
178.779	0.07
179.158	0.06
179.536	0.22
179.914	-0
180.292	0.05
180.67	-0
181.048	-0
181.427	0.45
181.805	-0
182.183	-0.7
182.561	-0.21
182.939	-0.11
183.317	-0.26
183.695	-0
184.073	0.06
184.451	0.15
184.829	-0.32
185.206	0.03
185.584	-0.75
185.962	-0
186.34	-0
186.718	0.74
187.096	0.14
187.473	-0.48
187.851	-0.15
188.229	1.02
188.607	0.01
188.984	-0.02
189.362	-0.09
189.74	0.06
190.117	0.03
190.495	-0.02
190.872	0.06
191.25	0.01
191.627	0
192.005	0.06
192.382	0.07
192.76	0.04
193.137	0.05
193.515	-0.03
193.892	0.05
194.269	-0.09
194.647	0.11
195.024	-0.03
195.401	0.04
195.779	0.05
196.156	0.09
196.533	0.05
196.91	0.05
197.288	0.04
197.665	0.01
198.042	-0.01
198.419	0.02
198.796	-0.04
199.173	0
199.55	0.05
199.927	0.11
200.304	-0.04
200.681	0.06
201.058	-0.02
201.435	0.02
201.812	-0.03
202.189	0.06
202.566	0.08
202.943	0.04
203.32	0.13
203.697	0.07
204.073	0.02
204.45	0.01
204.827	0.1
205.204	0.05
205.58	0.07
205.957	0.02
206.334	0.03
206.71	0.07
207.087	-0.06
207.464	0.05
207.84	-0.01
208.217	-0
208.593	-0.02
208.97	0.04
209.346	0.13
209.723	0.05
210.099	0
210.476	0.04
210.852	0.1
211.228	0.11
211.605	0.02
211.981	0.09
212.357	0.06
212.733	0.01
213.11	0.06
213.486	0.11
213.862	0.07
214.238	0.05
214.614	0.14
214.991	0.03
215.367	-0.01
215.743	0.09
216.119	0.1
216.495	0.09
216.871	0.06
217.247	0.02
217.623	0.01
217.999	0.09
218.375	0.09
218.751	0.1
219.127	0.03
219.502	0.1
219.878	0.13
220.254	0.05
220.63	0.07
221.006	0.1
221.381	0.1
221.757	0.1
222.133	0.03
222.508	0.04
222.884	0.08
223.26	0.04
223.635	0.02
224.011	0.06
224.386	-0
224.762	0.01
225.137	0.03
225.513	0.02
225.888	0.05
226.264	0.07
226.639	0.03
227.014	0.05
227.39	-0.06
227.765	0.06
228.14	0.1
228.516	-0.02
228.891	0
229.266	0.08
229.641	0.16
230.017	-0.03
230.392	0.02
230.767	0.09
231.142	0.01
231.517	-0.03
231.892	0.14
232.267	-0.07
232.642	0.03
233.017	0.06
233.392	0.06
233.767	0
234.142	-0.01
234.517	0.07
234.892	0.03
235.267	0.05
235.641	0.04
236.016	0.04
236.391	0.04
236.766	0.15
237.14	0.01
237.515	0.06
237.89	-0
238.264	0.02
238.639	-0.01
239.014	0.01
239.388	0.07
239.763	0.09
240.137	0.03
240.512	0.06
240.886	0.02
241.261	0.04
241.635	0.06
242.009	0.05
242.384	0.11
242.758	0
243.132	0.09
243.507	0.13
243.881	0.1
244.255	0.09
244.629	0.06
245.004	0.1
245.378	0.13
245.752	0.04
246.126	-0.03
246.5	0.07
246.874	0.05
247.248	0.01
247.622	0.05
247.996	0.08
248.37	0.04
248.744	0.02
249.118	0.22
249.492	0.14
249.866	0.01
250.24	0.03
250.613	0.08
250.987	-0.04
251.361	-0.03
251.735	0.11
252.108	0.08
252.482	0.1
252.856	0.08
253.229	0.09
253.603	0.05
253.977	0.04
254.35	0.04
254.724	0.02
255.097	0.08
255.471	0
255.844	0.05
256.218	0.05
256.591	0.03
256.964	0.09
257.338	0.08
257.711	0.03
258.084	0.09
258.458	0.11
258.831	-0.01
259.204	0.06
259.577	0.09
259.95	-0.07
260.323	0.12
260.697	-0
261.07	0.04
261.443	-0.01
261.816	0.14
262.189	-0.03
262.562	0.03
262.935	0.03
263.308	-0.03
263.68	0.11
264.053	0.11
264.426	-0.01
264.799	0.09
265.172	0.03
265.545	0
265.917	0.01
266.29	0.09
266.663	-0
267.035	0.04
267.408	0.03
267.781	0.09
268.153	0.05
268.526	0.04
268.898	0.04
269.271	0.06
269.643	0
270.016	0.06
270.388	0.04
270.76	0.08
271.133	0.07
271.505	0.05
271.877	-0.01
272.25	0.02
272.622	0.05
272.994	0.07
273.366	0.02
273.739	0.06
274.111	0.03
274.483	0.04
274.855	0.01
275.227	0.05
275.599	0.04
275.971	0.03
276.343	0.05
276.715	0.04
277.087	0.08
277.459	0.09
277.831	0.06
278.203	0.08
278.574	0.07
278.946	0.04
279.318	0.12
279.69	0.08
280.061	0.05
280.433	0.06
280.805	0.1
281.176	0.06
281.548	0.03
281.92	0.05
282.291	0.08
282.663	0.06
283.034	-0
283.406	0.1
283.777	0.01
284.148	0.07
284.52	0.05
284.891	0.08
285.262	0.07
285.634	0.05
286.005	0.09
286.376	0.07
286.747	0.09
287.119	0.06
287.49	0.01
287.861	0.12
288.232	0.06
288.603	0.04
288.974	0.08
289.345	0.02
289.716	0.05
290.087	0.06
290.458	0.06
290.829	0.07
291.2	0.04
291.571	0.07
291.941	0.06
292.312	0.06
292.683	0.03
293.054	0.04
293.424	0.06
293.795	0.03
294.166	0.07
294.536	0.07
294.907	0.08
295.277	0.05
295.648	0.09
296.018	0.05
296.389	0.04
296.759	0.07
297.13	0.08
297.5	0.04
297.871	0.08
298.241	0.06
298.611	0.06
298.981	0.04
299.352	0.07
299.722	0.06
300.092	0.05
300.462	0.08
300.832	0.05
301.202	0.03
301.573	0.08
301.943	0.06
302.313	0.06
302.683	0.05
303.053	0.04
303.422	0.05
303.792	0.05
304.162	0.05
304.532	0.06
304.902	0.06
305.272	0.05
305.641	0.06
306.011	0.06
306.381	0.07
306.75	0.06
307.12	0.06
307.49	0.06
307.859	0.05
308.229	0.05
308.598	0.06
308.968	0.07
309.337	0.06
309.707	0.07
310.076	0.07
310.445	0.07
310.815	0.06
311.184	0.06
311.553	0.06
311.923	0.07
312.292	0.07
312.661	0.06
313.03	0.06
313.399	0.07
313.768	0.06
314.137	0.07
314.506	0.07
314.875	0.06
315.244	0.07
315.613	0.07
315.982	0.07
316.351	0.07
316.72	0.07
317.089	0.06
317.458	0.07
317.826	0.06
318.195	0.07
318.564	0.06
318.933	0.07
319.301	0.07
319.67	0.06
320.038	0.06
320.407	0.06
320.775	0.06
321.144	0.06
321.512	0.06
321.881	0.06
322.249	0.06
322.618	0.06
322.986	0.06
323.354	0.06
323.723	0.05
324.091	0.06
324.459	0.06
324.827	0.06
325.195	0.06
325.564	0.06
325.932	0.06
326.3	0.05
326.668	0.06
327.036	0.05
327.404	0.05
327.772	0.05
328.14	0.06
328.508	0.06
328.875	0.06
329.243	0.06
329.611	0.06
329.979	0.06
330.346	0.06
330.714	0.05
331.082	0.05
331.449	0.05
331.817	0.06
332.185	0.06
332.552	0.06
332.92	0.06
333.287	0.06
333.655	0.06
334.022	0.06
334.389	0.06
334.757	0.06
335.124	0.06
335.491	0.06
335.859	0.06
336.226	0.05
336.593	0.06
336.96	0.06
337.327	0.06
337.695	0.06
338.062	0.06
338.429	0.06
338.796	0.07
339.163	0.07
339.53	0.06
339.897	0.06
340.263	0.06
340.63	0.06
340.997	0.07
341.364	0.07
341.731	0.07
342.097	0.07
342.464	0.07
342.831	0.07
343.197	0.07
343.564	0.07
343.931	0.07
344.297	0.08
344.664	0.08
345.03	0.08
345.396	0.08
345.763	0.08
346.129	0.08
346.496	0.08
346.862	0.08
347.228	0.08
347.594	0.09
347.961	0.08
348.327	0.08
348.693	0.08
349.059	0.08
349.425	0.09
349.791	0.08
350.157	0.09
350.523	0.09
350.889	0.09
351.255	0.09
351.621	0.09
351.987	0.1
352.353	0.09
352.719	0.1
353.084	0.1
353.45	0.1
353.816	0.1
354.181	0.1
354.547	0.11
354.913	0.11
355.278	0.11
355.644	0.11
356.009	0.12
356.375	0.11
356.74	0.12
357.106	0.12
357.471	0.12
357.836	0.13
358.202	0.12
358.567	0.13
358.932	0.13
359.297	0.13
359.663	0.14
360.028	0.14
360.393	0.14
360.758	0.14
361.123	0.14
361.488	0.14
361.853	0.14
362.218	0.15
362.583	0.15
362.948	0.14
363.312	0.15
363.677	0.16
364.042	0.15
364.407	0.15
364.772	0.16
365.136	0.16
365.501	0.16
365.865	0.17
366.23	0.17
366.595	0.17
366.959	0.18
367.324	0.18
367.688	0.18
368.052	0.19
368.417	0.19
368.781	0.19
369.145	0.19
369.51	0.2
369.874	0.19
370.238	0.2
370.602	0.2
370.967	0.2
371.331	0.2
371.695	0.2
372.059	0.2
372.423	0.19
372.787	0.2
373.151	0.19
373.515	0.19
373.878	0.19
374.242	0.19
374.606	0.19
374.97	0.19
375.334	0.19
375.697	0.19
376.061	0.2
376.425	0.19
376.788	0.2
377.152	0.2
377.515	0.2
377.879	0.21
378.242	0.21
378.606	0.21
378.969	0.21
379.333	0.21
379.696	0.21
380.059	0.22
380.422	0.22
380.786	0.22
381.149	0.23
381.512	0.24
381.875	0.24
382.238	0.24
382.601	0.25
382.964	0.26
383.327	0.26
383.69	0.27
384.053	0.28
384.416	0.28
384.779	0.29
385.142	0.3
385.504	0.3
385.867	0.31
386.23	0.31
386.593	0.31
386.955	0.31
387.318	0.31
387.68	0.31
388.043	0.31
388.405	0.31
388.768	0.31
389.13	0.3
389.493	0.29
389.855	0.3
390.217	0.3
390.58	0.29
390.942	0.3
391.304	0.3
391.666	0.3
392.028	0.31
392.391	0.32
392.753	0.32
393.115	0.33
393.477	0.35
393.839	0.36
394.201	0.37
394.563	0.38
394.924	0.4
395.286	0.42
395.648	0.43
396.01	0.44
396.371	0.46
396.733	0.46
397.095	0.47
397.456	0.47
397.818	0.48
398.18	0.47
398.541	0.46
398.903	0.45
399.264	0.45
399.625	0.44
399.987	0.42
400.348	0.4
400.709	0.38
401.071	0.36
401.432	0.34
401.793	0.32
402.154	0.3
402.515	0.28
402.876	0.26
403.238	0.25
403.599	0.23
403.96	0.22
404.32	0.2
404.681	0.19
405.042	0.18
405.403	0.16
405.764	0.16
406.125	0.15
406.485	0.14
406.846	0.13
407.207	0.12
407.567	0.12
407.928	0.11
408.288	0.11
408.649	0.1
409.009	0.1
409.37	0.1
409.73	0.09
410.091	0.09
410.451	0.09
410.811	0.08
411.171	0.08
411.532	0.08
411.892	0.07
412.252	0.07
412.612	0.07
412.972	0.07
413.332	0.07
413.692	0.07
414.052	0.06
414.412	0.06
414.772	0.06
415.132	0.06
415.492	0.06
415.851	0.06
416.211	0.05
416.571	0.06
416.931	0.05
417.29	0.06
417.65	0.05
418.009	0.05
418.369	0.05
418.728	0.04
419.088	0.04
419.447	0.05
419.807	0.05
420.166	0.05
420.525	0.05
420.884	0.05
421.244	0.04
421.603	0.05
421.962	0.04
422.321	0.04
422.68	0.04
423.039	0.04
423.398	0.04
423.757	0.05
424.116	0.04
424.475	0.04
424.834	0.04
425.193	0.05
425.551	0.04
425.91	0.04
426.269	0.05
426.628	0.04
426.986	0.04
427.345	0.05
427.703	0.04
428.062	0.04
428.42	0.05
428.779	0.04
429.137	0.04
429.496	0.05
429.854	0.04
430.212	0.04
430.57	0.03
430.929	0.04
431.287	0.04
431.645	0.04
432.003	0.04
432.361	0.04
432.719	0.04
433.077	0.04
433.435	0.04
433.793	0.04
434.151	0.04
434.509	0.04
434.866	0.04
435.224	0.04
435.582	0.04
435.94	0.04
436.297	0.03
436.655	0.04
437.012	0.04
437.37	0.04
437.727	0.03
438.085	0.04
438.442	0.03
438.8	0.03
439.157	0.04
439.514	0.04
439.872	0.04
440.229	0.03
440.586	0.03
440.943	0.04
441.3	0.03
441.657	0.02
442.014	0.03
442.371	0.03
442.728	0.03
443.085	0.04
443.442	0.03
443.799	0.04
444.156	0.04
444.513	0.04
444.869	0.04
445.226	0.02
445.583	0.03
445.939	0.03
446.296	0.03
446.652	0.03
447.009	0.04
447.365	0.02
447.722	0.03
448.078	0.03
448.434	0.02
448.791	0.03
449.147	0.02
449.503	0.02
449.859	0.02
450.215	0.03
450.571	0.04
450.928	0.03
451.284	0.02
451.64	0.02
451.995	0.03
452.351	0.03
452.707	0.03
453.063	0.03
453.419	0.02
453.775	0.02
454.13	0.02
454.486	0.02
454.842	0.02
455.197	0.02
455.553	0.02
455.908	0.02
456.264	0.02
456.619	0.03
456.975	0.02
457.33	0.02
457.685	0.03
458.04	0.02
458.396	0.01
458.751	0.02
459.106	0.02
459.461	0.01
459.816	0.01
460.171	0.01
460.526	0.01
460.881	0.01
461.236	0.01
461.591	0.01
461.946	0.01
462.301	0.01
462.655	0.01
463.01	0.01
463.365	0
463.719	0
464.074	0
464.428	-0
464.783	-0
465.137	0
465.492	0
465.846	0.01
466.201	-0
466.555	0.01
466.909	-0
467.263	-0
467.618	0
467.972	0
468.326	0
468.68	-0
469.034	-0
469.388	-0
469.742	0
470.096	-0
470.45	0
470.804	0
471.157	-0
471.511	-0
471.865	-0.01
472.218	0
472.572	-0
472.926	-0
473.279	-0
473.633	0.01
473.986	-0
474.34	0
474.693	0
475.046	0.01
475.4	0.01
475.753	0.01
476.106	0.01
476.459	0.02
476.812	0.02
477.165	0.02
477.519	0.02
477.872	0.02
478.224	0.02
478.577	0.02
478.93	0.02
479.283	0.02
479.636	0.02
479.989	0.03
480.341	0.02
480.694	0.02
481.047	0.02
481.399	0.03
481.752	0.02
482.104	0.03
482.457	0.03
482.809	0.03
483.162	0.03
483.514	0.03
483.866	0.03
484.219	0.03
484.571	0.03
484.923	0.03
485.275	0.03
485.627	0.03
485.979	0.04
486.331	0.04
486.683	0.03
487.035	0.03
487.387	0.03
487.739	0.04
488.091	0.04
488.443	0.04
488.794	0.04
489.146	0.04
489.498	0.04
489.849	0.04
490.201	0.04
490.552	0.04
490.904	0.04
491.255	0.04
491.607	0.04
491.958	0.04
492.309	0.04
492.661	0.04
493.012	0.04
493.363	0.05
493.714	0.04
494.065	0.04
494.416	0.04
494.767	0.04
495.118	0.04
495.469	0.04
495.82	0.04
496.171	0.04
496.522	0.04
496.872	0.05
497.223	0.04
497.574	0.04
497.924	0.05
498.275	0.05
498.626	0.04
498.976	0.05
499.327	0.05
499.677	0.05
500.027	0.05
500.378	0.04
500.728	0.05
501.078	0.05
501.428	0.05
501.779	0.05
502.129	0.05
502.479	0.05
502.829	0.05
503.179	0.05
503.529	0.05
503.879	0.05
504.229	0.05
504.578	0.05
504.928	0.05
505.278	0.05
505.628	0.06
505.977	0.06
506.327	0.05
506.676	0.06
507.026	0.06
507.375	0.05
507.725	0.05
508.074	0.05
508.424	0.06
508.773	0.06
509.122	0.06
509.471	0.06
509.82	0.06
510.17	0.06
510.519	0.06
510.868	0.05
511.217	0.06
511.566	0.06
511.915	0.06
512.263	0.06
512.612	0.06
512.961	0.06
513.31	0.07
513.659	0.06
514.007	0.06
514.356	0.06
514.704	0.06
515.053	0.06
515.401	0.06
515.75	0.06
516.098	0.06
516.447	0.06
516.795	0.06
517.143	0.06
517.491	0.07
517.839	0.07
518.188	0.07
518.536	0.06
518.884	0.07
519.232	0.07
519.58	0.06
519.928	0.06
520.275	0.07
520.623	0.07
520.971	0.07
521.319	0.07
521.666	0.07
522.014	0.07
522.362	0.07
522.709	0.07
523.057	0.07
523.404	0.07
523.752	0.07
524.099	0.07
524.446	0.07
524.794	0.07
525.141	0.07
525.488	0.07
525.835	0.07
526.182	0.07
526.529	0.08
526.876	0.07
527.223	0.08
527.57	0.08
527.917	0.08
528.264	0.07
528.611	0.07
528.958	0.07
529.304	0.07
529.651	0.08
529.998	0.07
530.344	0.08
530.691	0.08
531.037	0.08
531.384	0.08
531.73	0.08
532.076	0.08
532.423	0.08
532.769	0.08
533.115	0.08
533.461	0.08
533.807	0.09
534.154	0.08
534.5	0.08
534.846	0.09
535.192	0.09
535.537	0.08
535.883	0.09
536.229	0.08
536.575	0.09
536.921	0.09
537.266	0.09
537.612	0.09
537.957	0.09
538.303	0.09
538.649	0.09
538.994	0.09
539.339	0.09
539.685	0.09
540.03	0.09
540.375	0.09
540.721	0.09
541.066	0.09
541.411	0.09
541.756	0.09
542.101	0.09
542.446	0.1
542.791	0.1
543.136	0.1
543.481	0.1
543.825	0.1
544.17	0.1
544.515	0.1
544.86	0.1
545.204	0.1
545.549	0.1
545.893	0.1
546.238	0.1
546.582	0.1
546.927	0.1
547.271	0.1
547.615	0.11
547.96	0.11
548.304	0.11
548.648	0.11
548.992	0.1
549.336	0.11
549.68	0.11
550.024	0.11
550.368	0.11
550.712	0.11
551.056	0.11
551.4	0.11
551.743	0.11
552.087	0.11
552.431	0.11
552.774	0.11
553.118	0.11
553.462	0.11
553.805	0.11
554.148	0.11
554.492	0.11
554.835	0.11
555.178	0.11
555.522	0.11
555.865	0.11
556.208	0.11
556.551	0.11
556.894	0.11
557.237	0.11
557.58	0.11
557.923	0.12
558.266	0.11
558.609	0.12
558.952	0.12
559.294	0.12
559.637	0.12
559.98	0.12
560.322	0.12
560.665	0.11
561.007	0.11
561.35	0.12
561.692	0.12
562.034	0.12
562.377	0.12
562.719	0.12
563.061	0.12
563.403	0.12
563.745	0.12
564.088	0.12
564.43	0.12
564.772	0.12
565.113	0.12
565.455	0.12
565.797	0.12
566.139	0.12
566.481	0.12
566.822	0.12
567.164	0.12
567.506	0.12
567.847	0.12
568.189	0.12
568.53	0.12
568.872	0.12
569.213	0.12
569.554	0.12
569.895	0.12
570.237	0.12
570.578	0.13
570.919	0.12
571.26	0.12
571.601	0.13
571.942	0.13
572.283	0.13
572.624	0.12
572.965	0.13
573.306	0.13
573.646	0.12
573.987	0.12
574.328	0.12
574.668	0.12
575.009	0.12
575.349	0.12
575.69	0.12
576.03	0.12
576.37	0.12
576.711	0.12
577.051	0.12
577.391	0.12
577.731	0.12
578.072	0.12
578.412	0.12
578.752	0.12
579.092	0.12
579.431	0.12
579.771	0.11
580.111	0.11
580.451	0.11
580.791	0.12
581.13	0.12
581.47	0.12
581.81	0.12
582.149	0.12
582.489	0.12
582.828	0.12
583.167	0.11
583.507	0.09
583.846	0.07
584.185	0.08
584.525	0.11
584.864	0.12
585.203	0.13
585.542	0.13
585.881	0.13
586.22	0.13
586.559	0.12
586.898	0.12
587.236	0.12
587.575	0.12
587.914	0.12
588.252	0.12
588.591	0.13
588.93	0.13
589.268	0.13
589.607	0.12
589.945	0.13
590.283	0.13
590.622	0.13
590.96	0.13
591.298	0.14
591.636	0.13
591.974	0.14
592.313	0.14
592.651	0.14
592.989	0.13
593.326	0.13
593.664	0.14
594.002	0.14
594.34	0.14
594.678	0.14
595.015	0.13
595.353	0.13
595.691	0.14
596.028	0.14
596.366	0.14
596.703	0.14
597.04	0.14
597.378	0.14
597.715	0.15
598.052	0.14
598.389	0.14
598.726	0.15
599.064	0.14
599.401	0.14
599.738	0.15
600.074	0.14
600.411	0.14
600.748	0.14
601.085	0.14
601.422	0.14
601.758	0.14
602.095	0.14
602.432	0.14
602.768	0.14
603.105	0.14
603.441	0.15
603.777	0.15
604.114	0.15
604.45	0.15
604.786	0.15
605.122	0.15
605.459	0.14
605.795	0.14
606.131	0.15
606.467	0.15
606.803	0.15
607.139	0.15
607.474	0.14
607.81	0.15
608.146	0.15
608.482	0.15
608.817	0.15
609.153	0.15
609.488	0.15
609.824	0.15
610.159	0.15
610.495	0.15
610.83	0.14
611.165	0.14
611.5	0.15
611.836	0.14
612.171	0.14
612.506	0.14
612.841	0.14
613.176	0.14
613.511	0.14
613.845	0.14
614.18	0.14
614.515	0.14
614.85	0.14
615.184	0.14
615.519	0.14
615.854	0.14
616.188	0.14
616.523	0.14
616.857	0.14
617.191	0.14
617.526	0.14
617.86	0.14
618.194	0.13
618.528	0.14
618.862	0.14
619.196	0.14
619.53	0.14
619.864	0.14
620.198	0.14
620.532	0.14
620.866	0.14
621.2	0.13
621.533	0.13
621.867	0.14
622.201	0.14
622.534	0.14
622.868	0.14
623.201	0.13
623.534	0.14
623.868	0.13
624.201	0.13
624.534	0.13
624.868	0.13
625.201	0.13
625.534	0.13
625.867	0.13
626.2	0.13
626.533	0.13
626.865	0.13
627.198	0.13
627.531	0.13
627.864	0.13
628.196	0.13
628.529	0.12
628.862	0.12
629.194	0.12
629.527	0.12
629.859	0.12
630.191	0.12
630.524	0.12
630.856	0.11
631.188	0.12
631.52	0.12
631.852	0.12
632.184	0.11
632.516	0.11
632.848	0.11
633.18	0.12
633.512	0.11
633.844	0.11
634.175	0.11
634.507	0.11
634.839	0.11
635.17	0.11
635.502	0.11
635.833	0.11
636.165	0.11
636.496	0.11
636.827	0.11
637.159	0.1
637.49	0.1
637.821	0.1
638.152	0.1
638.483	0.1
638.814	0.1
639.145	0.1
639.476	0.1
639.807	0.1
640.137	0.1
640.468	0.1
640.799	0.09
641.129	0.09
641.46	0.09
641.791	0.09
642.121	0.09
642.451	0.09
642.782	0.09
643.112	0.09
643.442	0.09
643.773	0.09
644.103	0.09
644.433	0.09
644.763	0.08
645.093	0.09
645.423	0.09
645.753	0.09
646.082	0.09
646.412	0.09
646.742	0.09
647.072	0.08
647.401	0.09
647.731	0.08
648.06	0.08
648.39	0.08
648.719	0.08
649.048	0.08
649.378	0.08
649.707	0.08
650.036	0.08
650.365	0.08
650.694	0.08
651.023	0.08
651.352	0.08
651.681	0.08
652.01	0.08
652.339	0.08
652.668	0.08
652.996	0.08
653.325	0.08
653.654	0.08
653.982	0.08
654.311	0.08
654.639	0.08
654.967	0.08
655.296	0.08
655.624	0.09
655.952	0.09
656.28	0.09
656.609	0.08
656.937	0.08
657.265	0.08
657.593	0.07
657.92	0
658.248	-0
658.576	-0
658.904	0
659.231	0.05
659.559	0.08
659.887	0.08
660.214	0.08
660.542	0.09
660.869	0.09
661.196	0.08
661.524	0.08
661.851	0.08
662.178	0.08
662.505	0.08
662.832	0.08
663.159	0.08
663.486	0.08
663.813	0.08
664.14	0.08
664.467	0.08
664.794	0.08
665.12	0.08
665.447	0.08
665.774	0.08
666.1	0.08
666.427	0.08
666.753	0.08
667.079	0.08
667.406	0.08
667.732	0.08
668.058	0.08
668.384	0.07
668.71	0.07
669.036	0.07
669.362	0.07
669.688	0.07
670.014	0.07
670.34	0.07
670.666	0.07
670.991	0.07
671.317	0.08
671.643	0.07
671.968	0.07
672.294	0.07
672.619	0.07
672.945	0.07
673.27	0.07
673.595	0.07
673.92	0.07
674.246	0.07
674.571	0.07
674.896	0.06
675.221	0.07
675.546	0.07
675.87	0.07
676.195	0.07
676.52	0.07
676.845	0.06
677.169	0.07
677.494	0.06
677.819	0.07
678.143	0.06
678.468	0.06
678.792	0.06
679.116	0.06
679.44	0.06
679.765	0.06
680.089	0.06
680.413	0.06
680.737	0.06
681.061	0.06
681.385	0.06
681.709	0.06
682.033	0.06
682.356	0.06
682.68	0.06
683.004	0.06
683.327	0.06
683.651	0.05
683.974	0.05
684.298	0.06
684.621	0.06
684.944	0.05
685.268	0.06
685.591	0.06
685.914	0.05
686.237	0.05
686.56	0.05
686.883	0.05
687.206	0.05
687.529	0.05
687.852	0.05
688.175	0.05
688.497	0.05
688.82	0.05
689.142	0.05
689.465	0.05
689.787	0.05
690.11	0.05
690.432	0.05
690.755	0.05
691.077	0.05
691.399	0.05
691.721	0.04
692.043	0.04
692.365	0.04
692.687	0.04
693.009	0.04
693.331	0.04
693.653	0.04
693.974	0.04
694.296	0.04
694.618	0.05
694.939	0.05
695.261	0.05
695.582	0.05
695.904	0.04
696.225	0.04
696.546	0.04
696.868	0.04
697.189	0.04
697.51	0.04
697.831	0.04
698.152	0.04
698.473	0.04
698.794	0.04
699.114	0.04
699.435	0.04
699.756	0.04
700.077	0.04
700.397	0.04
700.718	0.04
701.038	0.04
701.359	0.04
701.679	0.04
701.999	0.04
702.32	0.03
702.64	0.03
702.96	0.03
703.28	0.03
703.6	0.03
703.92	0.03
704.24	0.03
704.56	0.04
704.879	0.04
705.199	0.04
705.519	0.03
705.838	0.04
706.158	0.04
706.478	0.04
706.797	0.04
707.116	0.04
707.436	0.04
707.755	0.04
708.074	0.04
708.393	0.04
708.712	0.04
709.031	0.04
709.35	0.04
709.669	0.04
709.988	0.04
710.307	0.03
710.626	0.04
710.944	0.03
711.263	0.04
711.582	0.04
711.9	0.03
712.219	0.03
712.537	0.03
712.855	0.03
713.174	0.04
713.492	0.04
713.81	0.04
714.128	0.04
714.446	0.04
714.764	0.04
715.082	0.04
715.4	0.04
715.718	0.04
716.035	0.04
716.353	0.04
716.671	0.04
716.988	0.04
717.306	0.04
717.623	0.04
717.941	0.04
718.258	0.04
718.575	0.04
718.893	0.04
719.21	0.04
719.527	0.03
719.844	0.03
720.161	0.04
720.478	0.04
720.795	0.04
721.112	0.04
721.428	0.04
721.745	0.04
722.062	0.04
722.378	0.04
722.695	0.04
723.011	0.04
723.328	0.04
723.644	0.04
723.96	0.04
724.276	0.04
724.593	0.04
724.909	0.04
725.225	0.04
725.541	0.04
725.857	0.04
726.173	0.04
726.488	0.04
726.804	0.04
727.12	0.04
727.435	0.04
727.751	0.04
728.067	0.04
728.382	0.04
728.697	0.04
729.013	0.04
729.328	0.04
729.643	0.04
729.958	0.04
730.273	0.04
730.588	0.04
730.903	0.04
731.218	0.04
731.533	0.04
731.848	0.04
732.163	0.04
732.477	0.04
732.792	0.04
733.107	0.04
733.421	0.04
733.736	0.04
734.05	0.04
734.364	0.04
734.678	0.04
734.993	0.04
735.307	0.04
735.621	0.04
735.935	0.04
736.249	0.05
736.563	0.04
736.877	0.04
737.19	0.04
737.504	0.04
737.818	0.04
738.131	0.04
738.445	0.04
738.758	0.04
739.072	0.04
739.385	0.04
739.698	0.04
740.012	0.04
740.325	0.04
740.638	0.04
740.951	0.04
741.264	0.04
741.577	0.04
741.89	0.04
742.203	0.04
742.515	0.04
742.828	0.04
743.141	0.04
743.453	0.04
743.766	0.04
744.078	0.05
744.391	0.04
744.703	0.04
745.015	0.04
745.327	0.04
745.639	0.04
745.952	0.03
746.264	0.03
746.575	0.03
746.887	0.03
747.199	0.03
747.511	0.04
747.823	0.03
748.134	0.03
748.446	0.03
748.757	0.03
749.069	0.03
749.38	0.03
749.692	0.03
750.003	0.03
750.314	0.03
750.625	0.04
750.936	0.04
751.248	0.03
751.559	0.03
751.869	0.03
752.18	0.03
752.491	0.03
752.802	0.03
753.112	0.04
753.423	0.03
753.734	0.03
754.044	0.03
754.355	0.03
754.665	0.03
754.975	0.03
755.285	0.03
755.596	0.03
755.906	0.03
756.216	0.03
756.526	0.03
756.836	0.03
757.146	0.03
757.455	0.03
757.765	0.03
758.075	0.02
758.385	0.02
758.694	0.02
759.004	0.02
759.313	0.02
759.622	0.02
759.932	0.02
760.241	0.02
760.55	0.02
760.859	0.02
761.168	0.02
761.477	0.02
761.786	0.02
762.095	0.02
762.404	0.03
762.713	0.03
763.021	0.03
763.33	0.03
763.639	0.03
763.947	0.03
764.256	0.02
764.564	0.03
764.872	0.03
765.181	0.03
765.489	0.03
765.797	0.02
766.105	0.02
766.413	0.02
766.721	0.02
767.029	0.02
767.337	0.02
767.644	0.02
767.952	0.02
768.26	0.02
768.567	0.02
768.875	0.02
769.182	0.02
769.49	0.02
769.797	0.02
770.104	0.02
770.411	0.02
770.718	0.02
771.026	0.02
771.333	0.02
771.639	0.02
771.946	0.02
772.253	0.02
772.56	0.02
772.867	0.02
773.173	0.02
773.48	0.02
773.786	0.02
774.093	0.02
774.399	0.02
774.705	0.02
775.012	0.02
775.318	0.02
775.624	0.02
775.93	0.02
776.236	0.02
776.542	0.02
776.848	0.02
777.154	0.02
777.459	0.02
777.765	0.02
778.071	0.01
778.376	0.02
778.682	0.01
778.987	0.01
779.292	0.01
779.598	0.01
779.903	0.01
780.208	0.01
780.513	0.01
780.818	0.02
781.123	0.01
781.428	0.01
781.733	0.01
782.038	0.02
782.343	0.01
782.647	0.01
782.952	0.01
783.256	0.01
783.561	0.02
783.865	0.01
784.17	0.02
784.474	0.02
784.778	0.02
785.082	0.02
785.386	0.01
785.69	0.01
785.994	0.01
786.298	0.01
786.602	0.01
786.906	0.01
787.209	0.01
787.513	0.01
787.817	0.01
788.12	0
788.424	0.01
788.727	0.01
789.03	0.01
789.333	0.01
789.637	0.01
789.94	0.01
790.243	0.01
790.546	0.01
790.849	0.01
791.152	0.01
791.454	0.01
791.757	0.01
792.06	0.01
792.362	0.01
792.665	0.01
792.967	0
793.27	0
793.572	0
793.874	0
794.177	-0
794.479	-0
794.781	-0
795.083	0
795.385	0
795.687	0.01
795.989	0.01
796.29	0.01
796.592	0.01
796.894	0
797.195	0
797.497	0
797.798	-0
798.1	-0
798.401	-0.01
798.702	-0.01
799.003	-0.01
799.304	-0.01
799.605	-0.01
799.906	-0.01
800.207	-0.01
800.508	-0.01
800.809	-0.01
801.11	-0.01
801.41	-0.01
801.711	-0.01
802.011	-0.01
802.312	-0.01
802.612	-0
802.913	-0.01
803.213	-0.01
803.513	-0
803.813	-0
804.113	-0
804.413	0
804.713	-0
805.013	-0
805.313	-0
805.613	-0
805.912	-0.01
806.212	-0
806.511	-0
806.811	0
807.11	0
807.41	0
807.709	0
808.008	0
808.307	0
808.606	0
808.905	-0
809.204	-0
809.503	-0.01
809.802	-0
810.101	-0
810.399	-0
810.698	-0.01
810.997	-0.01
811.295	-0.01
811.593	-0.01
811.892	-0.01
812.19	-0.01
812.488	-0.01
812.786	-0.01
813.084	-0.01
813.383	-0.02
813.68	-0.01
813.978	-0.01
814.276	-0.01
814.574	-0.01
814.872	-0.01
815.169	-0.01
815.467	-0
815.764	-0.01
816.062	-0.01
816.359	-0.02
816.656	-0.01
816.954	-0.02
817.251	-0.02
817.548	-0.02
817.845	-0.02
818.142	-0.02
818.439	-0.01
818.735	-0.02
819.032	-0.01
819.329	-0.01
819.626	-0.01
819.922	-0.02
820.219	-0.02
820.515	-0.03
820.811	-0.03
821.108	-0.03
821.404	-0.02
821.7	-0.03
821.996	-0.04
822.292	-0.04
822.588	-0.03
822.884	-0.03
823.18	-0.03
823.475	-0.03
823.771	-0.03
824.067	-0.03
824.362	-0.03
824.658	-0.03
824.953	-0.03
825.249	-0.03
825.544	-0.02
825.839	-0.03
826.134	-0.03
826.429	-0.03
826.724	-0.03
827.019	-0.03
827.314	-0.03
827.609	-0.03
827.904	-0.03
828.198	-0.03
828.493	-0.03
828.787	-0.03
829.082	-0.02
829.376	-0.02
829.671	-0.02
829.965	-0.02
830.259	-0.03
830.553	-0.03
830.847	-0.03
831.141	-0.03
831.435	-0.03
831.729	-0.03
832.023	-0.04
832.317	-0.04
832.61	-0.05
832.904	-0.04
833.197	-0.05
833.491	-0.04
833.784	-0.04
834.077	-0.04
834.371	-0.04
834.664	-0.03
834.957	-0.04
835.25	-0.04
835.543	-0.03
835.836	-0.05
836.129	-0.04
836.421	-0.05
836.714	-0.05
837.007	-0.04
837.299	-0.04
837.592	-0.04
837.884	-0.04
838.177	-0.04
838.469	-0.04
838.761	-0.03
839.053	-0.03
839.345	-0.03
839.637	-0.03
839.929	-0.03
840.221	-0.04
840.513	-0.03
840.805	-0.04
841.096	-0.03
841.388	-0.04
841.68	-0.03
841.971	-0.05
842.262	-0.03
842.554	-0.04
842.845	-0.04
843.136	-0.04
843.427	-0.03
843.718	-0.04
844.009	-0.04
844.3	-0.03
844.591	-0.03
844.882	-0.04
845.173	-0.04
845.463	-0.06
845.754	-0.05
846.044	-0.05
846.335	-0.04
846.625	-0.05
846.915	-0.04
847.206	-0.03
847.496	-0.03
847.786	-0.05
848.076	-0.04
848.366	-0.05
848.656	-0.03
848.945	-0.04
849.235	-0.05
849.525	-0.04
849.814	-0.04
850.104	-0.04
850.393	-0.04
850.683	-0.05
850.972	-0.04
851.261	-0.03
851.551	-0.03
851.84	-0.04
852.129	-0.04
852.418	-0.04
852.707	-0.05
852.995	-0.05
853.284	-0.04
853.573	-0.05
853.862	-0.03
854.15	-0.03
854.439	-0.05
854.727	-0.04
855.015	-0.03
855.304	-0.03
855.592	-0.05
855.88	-0.04
856.168	-0.05
856.456	-0.03
856.744	-0.04
857.032	-0.04
857.32	-0.03
857.607	-0.05
857.895	-0.04
858.183	-0.04
858.47	-0.05
858.757	-0.04
859.045	-0.06
859.332	-0.05
859.619	-0.03
859.907	-0.03
860.194	-0.04
860.481	-0.02
860.768	-0.03
861.054	-0.03
861.341	-0.04
861.628	-0.05
861.915	-0.05
862.201	-0.03
862.488	-0.07
862.774	-0.04
863.061	-0.04
863.347	-0.05
863.633	-0.04
863.919	-0.06
864.205	-0.04
864.491	-0.06
864.777	-0.06
865.063	-0.05
865.349	-0.05
865.635	-0.03
865.92	-0.01
866.206	-0.03
866.492	-0.07
866.777	-0.06
867.062	-0.04
867.348	-0.06
867.633	-0.08
867.918	-0.05
868.203	-0.03
868.488	-0.03
868.773	-0.05
869.058	-0.06
869.343	-0.05
869.628	-0.01
869.912	-0.09
870.197	-0.06
870.482	-0.05
870.766	-0.04
871.05	-0.05
871.335	-0.02
871.619	-0.04
871.903	-0.05
872.187	-0.05
872.471	-0.08
872.755	-0.04
873.039	-0.11
873.323	-0.04
873.607	-0.02
873.89	-0.04
874.174	-0.04
874.458	-0.12
874.741	-0.04
875.024	-0.04
875.308	-0.12
875.591	-0.01
875.874	-0.05
876.157	-0.11
876.44	-0.02
876.723	-0.08
877.006	-0
877.289	-0.04
877.572	-0.04
877.854	-0.05
878.137	-0.12
878.42	0.03
878.702	-0.06
878.984	-0.11
879.267	-0.02
879.549	-0.12
879.831	-0.01
880.113	-0.1
880.395	-0
880.677	-0.1
880.959	0.11
