Data from Rubpy_BV_1500_EDTA_Buffered_Absorbance_14-25-37-533.txt Node
Date: Wed Jul 01 14:25:37 BST 2026
User: fpm-admin
Spectrometer: OFX00224
Trigger mode: 0
Integration Time (sec): 7.000000E-2
Scans to average: 3
Nonlinearity correction enabled: false
Boxcar width: 0
Storing dark spectrum: false
XAxis mode: Wavelengths
Number of Pixels in Spectrum: 2136
>>>>>Begin Spectral Data<<<<<
154.91	0.23
155.289	0.28
155.669	-1.15
156.048	0.34
156.428	1.15
156.807	-0
157.186	-0.24
157.566	-0
157.945	-0
158.325	-0.32
158.704	-0
159.083	-0
159.462	0.66
159.842	0.21
160.221	0.14
160.6	-0
160.979	-0.14
161.359	0.97
161.738	-0
162.117	0.75
162.496	-0.34
162.875	0.23
163.254	-0.03
163.633	0.06
164.012	-0.22
164.391	0.49
164.77	0.16
165.149	0.34
165.528	-0.26
165.907	-0
166.286	-0.67
166.665	-0.12
167.044	-0
167.423	-0
167.802	-0
168.181	-0.02
168.559	-0.03
168.938	-0.1
169.317	0.55
169.696	-0
170.074	-0.63
170.453	-0.19
170.832	0.36
171.21	0.37
171.589	0.58
171.968	-0.6
172.346	0.74
172.725	-0
173.103	-0
173.482	-0.78
173.861	0.3
174.239	-1.11
174.617	0.13
174.996	-0.17
175.374	-0.06
175.753	-0.15
176.131	-0
176.51	-0
176.888	-0
177.266	-0
177.645	0.03
178.023	0.55
178.401	-0.16
178.779	0.01
179.158	0.34
179.536	-0.33
179.914	0.92
180.292	0.37
180.67	-0
181.048	0.35
181.427	-0.1
181.805	0.48
182.183	-0.22
182.561	0.32
182.939	-0
183.317	-0.16
183.695	0.36
184.073	-0
184.451	0.26
184.829	0.83
185.206	-0.4
185.584	0.24
185.962	-0
186.34	-0
186.718	-1.08
187.096	-0.37
187.473	0.02
187.851	-0
188.229	0.24
188.607	0.23
188.984	0.18
189.362	0.51
189.74	0.11
190.117	0.15
190.495	0.17
190.872	0.14
191.25	0.3
191.627	0.05
192.005	0.16
192.382	0.23
192.76	0.24
193.137	0.29
193.515	0.11
193.892	0.08
194.269	0.07
194.647	0.32
195.024	0.26
195.401	0.12
195.779	0.12
196.156	0.24
196.533	0.34
196.91	0.18
197.288	0.22
197.665	0.17
198.042	0.27
198.419	0.26
198.796	0.2
199.173	0.32
199.55	0.13
199.927	0.29
200.304	0.31
200.681	0.3
201.058	0.19
201.435	0.23
201.812	0.45
202.189	0.2
202.566	0.23
202.943	0.2
203.32	0.17
203.697	0.28
204.073	0.1
204.45	0.29
204.827	0.44
205.204	0.21
205.58	0.18
205.957	0.22
206.334	0.25
206.71	0.17
207.087	0.25
207.464	0.17
207.84	0.2
208.217	0.26
208.593	0.2
208.97	0.19
209.346	0.32
209.723	0.16
210.099	0.13
210.476	0.23
210.852	0.17
211.228	0.21
211.605	0.19
211.981	0.22
212.357	0.13
212.733	0.08
213.11	0.22
213.486	0.2
213.862	0.17
214.238	0.21
214.614	0.22
214.991	0.25
215.367	0.22
215.743	0.14
216.119	0.31
216.495	0.22
216.871	0.28
217.247	0.13
217.623	0.16
217.999	0.09
218.375	0.2
218.751	0.17
219.127	0.24
219.502	0.33
219.878	0.22
220.254	0.22
220.63	0.23
221.006	0.17
221.381	0.24
221.757	0.45
222.133	0.19
222.508	0.31
222.884	0.31
223.26	0.21
223.635	0.2
224.011	0.34
224.386	0.29
224.762	0.29
225.137	0.21
225.513	0.27
225.888	0.25
226.264	0.32
226.639	0.2
227.014	0.38
227.39	0.21
227.765	0.2
228.14	0.18
228.516	0.17
228.891	0.31
229.266	0.36
229.641	0.23
230.017	0.24
230.392	0.22
230.767	0.15
231.142	0.17
231.517	0.15
231.892	0.34
232.267	0.26
232.642	0.26
233.017	0.31
233.392	0.23
233.767	0.29
234.142	0.22
234.517	0.35
234.892	0.16
235.267	0.33
235.641	0.2
236.016	0.29
236.391	0.31
236.766	0.27
237.14	0.21
237.515	0.17
237.89	0.41
238.264	0.25
238.639	0.24
239.014	0.18
239.388	0.16
239.763	0.23
240.137	0.14
240.512	0.21
240.886	0.35
241.261	0.26
241.635	0.27
242.009	0.25
242.384	0.32
242.758	0.28
243.132	0.16
243.507	0.27
243.881	0.18
244.255	0.21
244.629	0.13
245.004	0.16
245.378	0.21
245.752	0.16
246.126	0.24
246.5	0.34
246.874	0.1
247.248	0.3
247.622	0.13
247.996	0.18
248.37	0.18
248.744	0.26
249.118	0.13
249.492	0.21
249.866	0.18
250.24	0.32
250.613	0.2
250.987	0.23
251.361	0.24
251.735	0.29
252.108	0.24
252.482	0.25
252.856	0.21
253.229	0.27
253.603	0.34
253.977	0.25
254.35	0.24
254.724	0.19
255.097	0.21
255.471	0.22
255.844	0.21
256.218	0.17
256.591	0.39
256.964	0.16
257.338	0.23
257.711	0.28
258.084	0.27
258.458	0.21
258.831	0.25
259.204	0.26
259.577	0.31
259.95	0.22
260.323	0.19
260.697	0.23
261.07	0.35
261.443	0.25
261.816	0.24
262.189	0.28
262.562	0.21
262.935	0.21
263.308	0.21
263.68	0.13
264.053	0.32
264.426	0.32
264.799	0.25
265.172	0.36
265.545	0.24
265.917	0.18
266.29	0.25
266.663	0.27
267.035	0.21
267.408	0.31
267.781	0.21
268.153	0.23
268.526	0.28
268.898	0.29
269.271	0.23
269.643	0.29
270.016	0.24
270.388	0.35
270.76	0.25
271.133	0.24
271.505	0.32
271.877	0.25
272.25	0.25
272.622	0.4
272.994	0.24
273.366	0.17
273.739	0.19
274.111	0.23
274.483	0.19
274.855	0.26
275.227	0.29
275.599	0.16
275.971	0.29
276.343	0.23
276.715	0.23
277.087	0.29
277.459	0.33
277.831	0.22
278.203	0.21
278.574	0.23
278.946	0.14
279.318	0.28
279.69	0.21
280.061	0.21
280.433	0.25
280.805	0.17
281.176	0.31
281.548	0.26
281.92	0.24
282.291	0.28
282.663	0.28
283.034	0.17
283.406	0.2
283.777	0.24
284.148	0.27
284.52	0.38
284.891	0.19
285.262	0.26
285.634	0.17
286.005	0.28
286.376	0.32
286.747	0.26
287.119	0.18
287.49	0.29
287.861	0.26
288.232	0.29
288.603	0.28
288.974	0.33
289.345	0.35
289.716	0.23
290.087	0.31
290.458	0.31
290.829	0.15
291.2	0.31
291.571	0.29
291.941	0.25
292.312	0.31
292.683	0.31
293.054	0.24
293.424	0.24
293.795	0.24
294.166	0.33
294.536	0.23
294.907	0.32
295.277	0.25
295.648	0.38
296.018	0.29
296.389	0.23
296.759	0.26
297.13	0.29
297.5	0.3
297.871	0.35
298.241	0.22
298.611	0.33
298.981	0.31
299.352	0.28
299.722	0.27
300.092	0.31
300.462	0.24
300.832	0.25
301.202	0.32
301.573	0.24
301.943	0.23
302.313	0.27
302.683	0.3
303.053	0.24
303.422	0.26
303.792	0.26
304.162	0.25
304.532	0.19
304.902	0.18
305.272	0.26
305.641	0.23
306.011	0.22
306.381	0.2
306.75	0.18
307.12	0.2
307.49	0.25
307.859	0.21
308.229	0.2
308.598	0.22
308.968	0.21
309.337	0.2
309.707	0.18
310.076	0.21
310.445	0.21
310.815	0.16
311.184	0.18
311.553	0.15
311.923	0.19
312.292	0.19
312.661	0.19
313.03	0.2
313.399	0.18
313.768	0.2
314.137	0.19
314.506	0.18
314.875	0.19
315.244	0.21
315.613	0.22
315.982	0.22
316.351	0.2
316.72	0.22
317.089	0.22
317.458	0.22
317.826	0.21
318.195	0.22
318.564	0.22
318.933	0.24
319.301	0.23
319.67	0.24
320.038	0.23
320.407	0.25
320.775	0.24
321.144	0.25
321.512	0.26
321.881	0.26
322.249	0.25
322.618	0.25
322.986	0.27
323.354	0.27
323.723	0.28
324.091	0.28
324.459	0.28
324.827	0.28
325.195	0.29
325.564	0.3
325.932	0.29
326.3	0.3
326.668	0.32
327.036	0.31
327.404	0.31
327.772	0.32
328.14	0.33
328.508	0.33
328.875	0.33
329.243	0.34
329.611	0.35
329.979	0.35
330.346	0.36
330.714	0.36
331.082	0.36
331.449	0.36
331.817	0.38
332.185	0.38
332.552	0.39
332.92	0.4
333.287	0.41
333.655	0.42
334.022	0.43
334.389	0.43
334.757	0.44
335.124	0.44
335.491	0.46
335.859	0.46
336.226	0.48
336.593	0.48
336.96	0.49
337.327	0.49
337.695	0.51
338.062	0.52
338.429	0.52
338.796	0.53
339.163	0.54
339.53	0.54
339.897	0.56
340.263	0.57
340.63	0.58
340.997	0.59
341.364	0.61
341.731	0.62
342.097	0.62
342.464	0.63
342.831	0.64
343.197	0.65
343.564	0.67
343.931	0.67
344.297	0.68
344.664	0.69
345.03	0.71
345.396	0.71
345.763	0.73
346.129	0.74
346.496	0.74
346.862	0.75
347.228	0.76
347.594	0.78
347.961	0.78
348.327	0.79
348.693	0.82
349.059	0.82
349.425	0.82
349.791	0.83
350.157	0.85
350.523	0.85
350.889	0.87
351.255	0.87
351.621	0.88
351.987	0.89
352.353	0.91
352.719	0.92
353.084	0.93
353.45	0.93
353.816	0.96
354.181	0.96
354.547	0.96
354.913	0.98
355.278	0.99
355.644	1.01
356.009	1.02
356.375	1.02
356.74	1.05
357.106	1.04
357.471	1.06
357.836	1.08
358.202	1.09
358.567	1.11
358.932	1.12
359.297	1.12
359.663	1.15
360.028	1.16
360.393	1.16
360.758	1.19
361.123	1.19
361.488	1.23
361.853	1.23
362.218	1.24
362.583	1.25
362.948	1.27
363.312	1.28
363.677	1.3
364.042	1.32
364.407	1.34
364.772	1.35
365.136	1.35
365.501	1.36
365.865	1.39
366.23	1.39
366.595	1.39
366.959	1.4
367.324	1.41
367.688	1.41
368.052	1.44
368.417	1.43
368.781	1.47
369.145	1.45
369.51	1.47
369.874	1.46
370.238	1.49
370.602	1.5
370.967	1.46
371.331	1.51
371.695	1.51
372.059	1.51
372.423	1.51
372.787	1.5
373.151	1.49
373.515	1.51
373.878	1.48
374.242	1.49
374.606	1.5
374.97	1.47
375.334	1.44
375.697	1.46
376.061	1.43
376.425	1.43
376.788	1.43
377.152	1.41
377.515	1.4
377.879	1.38
378.242	1.35
378.606	1.35
378.969	1.31
379.333	1.31
379.696	1.29
380.059	1.29
380.422	1.26
380.786	1.25
381.149	1.25
381.512	1.24
381.875	1.2
382.238	1.19
382.601	1.18
382.964	1.17
383.327	1.16
383.69	1.14
384.053	1.13
384.416	1.11
384.779	1.09
385.142	1.09
385.504	1.08
385.867	1.07
386.23	1.07
386.593	1.05
386.955	1.04
387.318	1.05
387.68	1.04
388.043	1.05
388.405	1.03
388.768	1.03
389.13	1.03
389.493	1.01
389.855	1
390.217	0.99
390.58	0.98
390.942	0.98
391.304	0.96
391.666	0.96
392.028	0.94
392.391	0.93
392.753	0.91
393.115	0.9
393.477	0.89
393.839	0.88
394.201	0.86
394.563	0.87
394.924	0.87
395.286	0.86
395.648	0.86
396.01	0.87
396.371	0.87
396.733	0.89
397.095	0.9
397.456	0.91
397.818	0.92
398.18	0.95
398.541	0.97
398.903	0.98
399.264	1
399.625	1.02
399.987	1.05
400.348	1.06
400.709	1.07
401.071	1.09
401.432	1.09
401.793	1.08
402.154	1.07
402.515	1.06
402.876	1.05
403.238	1.03
403.599	1.01
403.96	0.97
404.32	0.94
404.681	0.91
405.042	0.88
405.403	0.83
405.764	0.8
406.125	0.76
406.485	0.72
406.846	0.69
407.207	0.66
407.567	0.62
407.928	0.58
408.288	0.56
408.649	0.52
409.009	0.5
409.37	0.48
409.73	0.44
410.091	0.42
410.451	0.41
410.811	0.37
411.171	0.36
411.532	0.34
411.892	0.33
412.252	0.32
412.612	0.3
412.972	0.28
413.332	0.28
413.692	0.27
414.052	0.25
414.412	0.25
414.772	0.23
415.132	0.23
415.492	0.22
415.851	0.22
416.211	0.21
416.571	0.2
416.931	0.19
417.29	0.19
417.65	0.19
418.009	0.18
418.369	0.18
418.728	0.16
419.088	0.17
419.447	0.16
419.807	0.16
420.166	0.15
420.525	0.16
420.884	0.15
421.244	0.15
421.603	0.15
421.962	0.15
422.321	0.14
422.68	0.14
423.039	0.13
423.398	0.13
423.757	0.14
424.116	0.14
424.475	0.13
424.834	0.13
425.193	0.12
425.551	0.12
425.91	0.12
426.269	0.12
426.628	0.12
426.986	0.12
427.345	0.12
427.703	0.12
428.062	0.12
428.42	0.12
428.779	0.12
429.137	0.11
429.496	0.11
429.854	0.12
430.212	0.12
430.57	0.11
430.929	0.11
431.287	0.1
431.645	0.11
432.003	0.11
432.361	0.1
432.719	0.11
433.077	0.11
433.435	0.1
433.793	0.11
434.151	0.11
434.509	0.11
434.866	0.11
435.224	0.11
435.582	0.1
435.94	0.12
436.297	0.11
436.655	0.11
437.012	0.11
437.37	0.11
437.727	0.11
438.085	0.11
438.442	0.1
438.8	0.11
439.157	0.09
439.514	0.11
439.872	0.11
440.229	0.11
440.586	0.11
440.943	0.11
441.3	0.11
441.657	0.11
442.014	0.12
442.371	0.12
442.728	0.11
443.085	0.12
443.442	0.11
443.799	0.11
444.156	0.11
444.513	0.11
444.869	0.11
445.226	0.11
445.583	0.12
445.939	0.12
446.296	0.12
446.652	0.12
447.009	0.12
447.365	0.12
447.722	0.12
448.078	0.12
448.434	0.12
448.791	0.13
449.147	0.12
449.503	0.12
449.859	0.12
450.215	0.12
450.571	0.13
450.928	0.12
451.284	0.12
451.64	0.12
451.995	0.13
452.351	0.14
452.707	0.14
453.063	0.13
453.419	0.13
453.775	0.13
454.13	0.13
454.486	0.14
454.842	0.14
455.197	0.13
455.553	0.15
455.908	0.14
456.264	0.14
456.619	0.15
456.975	0.13
457.33	0.14
457.685	0.14
458.04	0.14
458.396	0.15
458.751	0.15
459.106	0.15
459.461	0.16
459.816	0.15
460.171	0.15
460.526	0.16
460.881	0.16
461.236	0.15
461.591	0.16
461.946	0.15
462.301	0.16
462.655	0.16
463.01	0.17
463.365	0.17
463.719	0.16
464.074	0.16
464.428	0.16
464.783	0.16
465.137	0.17
465.492	0.17
465.846	0.17
466.201	0.17
466.555	0.17
466.909	0.17
467.263	0.17
467.618	0.17
467.972	0.19
468.326	0.18
468.68	0.18
469.034	0.18
469.388	0.19
469.742	0.18
470.096	0.19
470.45	0.19
470.804	0.2
471.157	0.2
471.511	0.2
471.865	0.21
472.218	0.21
472.572	0.2
472.926	0.21
473.279	0.21
473.633	0.21
473.986	0.22
474.34	0.22
474.693	0.22
475.046	0.23
475.4	0.23
475.753	0.24
476.106	0.24
476.459	0.24
476.812	0.24
477.165	0.25
477.519	0.24
477.872	0.25
478.224	0.25
478.577	0.25
478.93	0.26
479.283	0.27
479.636	0.27
479.989	0.28
480.341	0.27
480.694	0.27
481.047	0.28
481.399	0.28
481.752	0.29
482.104	0.29
482.457	0.3
482.809	0.3
483.162	0.3
483.514	0.3
483.866	0.31
484.219	0.3
484.571	0.31
484.923	0.32
485.275	0.32
485.627	0.32
485.979	0.32
486.331	0.32
486.683	0.33
487.035	0.33
487.387	0.33
487.739	0.33
488.091	0.34
488.443	0.34
488.794	0.35
489.146	0.35
489.498	0.35
489.849	0.35
490.201	0.36
490.552	0.36
490.904	0.36
491.255	0.37
491.607	0.36
491.958	0.37
492.309	0.37
492.661	0.37
493.012	0.37
493.363	0.38
493.714	0.38
494.065	0.39
494.416	0.39
494.767	0.39
495.118	0.4
495.469	0.4
495.82	0.4
496.171	0.4
496.522	0.41
496.872	0.41
497.223	0.41
497.574	0.42
497.924	0.42
498.275	0.43
498.626	0.42
498.976	0.42
499.327	0.43
499.677	0.44
500.027	0.44
500.378	0.44
500.728	0.45
501.078	0.45
501.428	0.45
501.779	0.45
502.129	0.46
502.479	0.46
502.829	0.46
503.179	0.47
503.529	0.46
503.879	0.47
504.229	0.47
504.578	0.48
504.928	0.48
505.278	0.48
505.628	0.48
505.977	0.48
506.327	0.49
506.676	0.49
507.026	0.5
507.375	0.5
507.725	0.5
508.074	0.51
508.424	0.51
508.773	0.51
509.122	0.51
509.471	0.51
509.82	0.51
510.17	0.51
510.519	0.52
510.868	0.53
511.217	0.53
511.566	0.54
511.915	0.53
512.263	0.54
512.612	0.54
512.961	0.54
513.31	0.55
513.659	0.55
514.007	0.55
514.356	0.55
514.704	0.56
515.053	0.56
515.401	0.56
515.75	0.57
516.098	0.57
516.447	0.57
516.795	0.58
517.143	0.58
517.491	0.58
517.839	0.58
518.188	0.58
518.536	0.58
518.884	0.58
519.232	0.58
519.58	0.59
519.928	0.59
520.275	0.59
520.623	0.6
520.971	0.6
521.319	0.6
521.666	0.6
522.014	0.6
522.362	0.6
522.709	0.6
523.057	0.61
523.404	0.61
523.752	0.62
524.099	0.62
524.446	0.61
524.794	0.62
525.141	0.62
525.488	0.62
525.835	0.63
526.182	0.64
526.529	0.63
526.876	0.63
527.223	0.63
527.57	0.64
527.917	0.63
528.264	0.64
528.611	0.64
528.958	0.63
529.304	0.64
529.651	0.65
529.998	0.65
530.344	0.65
530.691	0.64
531.037	0.65
531.384	0.65
531.73	0.65
532.076	0.66
532.423	0.66
532.769	0.66
533.115	0.66
533.461	0.66
533.807	0.66
534.154	0.67
534.5	0.66
534.846	0.66
535.192	0.67
535.537	0.67
535.883	0.66
536.229	0.67
536.575	0.67
536.921	0.67
537.266	0.67
537.612	0.68
537.957	0.67
538.303	0.67
538.649	0.67
538.994	0.68
539.339	0.68
539.685	0.68
540.03	0.68
540.375	0.68
540.721	0.68
541.066	0.68
541.411	0.68
541.756	0.68
542.101	0.69
542.446	0.69
542.791	0.68
543.136	0.69
543.481	0.69
543.825	0.69
544.17	0.69
544.515	0.69
544.86	0.69
545.204	0.7
545.549	0.69
545.893	0.69
546.238	0.69
546.582	0.69
546.927	0.69
547.271	0.69
547.615	0.69
547.96	0.69
548.304	0.7
548.648	0.7
548.992	0.69
549.336	0.7
549.68	0.7
550.024	0.7
550.368	0.7
550.712	0.7
551.056	0.7
551.4	0.7
551.743	0.7
552.087	0.7
552.431	0.7
552.774	0.69
553.118	0.69
553.462	0.69
553.805	0.69
554.148	0.7
554.492	0.69
554.835	0.69
555.178	0.7
555.522	0.69
555.865	0.69
556.208	0.69
556.551	0.69
556.894	0.69
557.237	0.69
557.58	0.7
557.923	0.69
558.266	0.69
558.609	0.69
558.952	0.69
559.294	0.69
559.637	0.69
559.98	0.69
560.322	0.69
560.665	0.69
561.007	0.69
561.35	0.69
561.692	0.69
562.034	0.68
562.377	0.69
562.719	0.68
563.061	0.68
563.403	0.68
563.745	0.69
564.088	0.68
564.43	0.68
564.772	0.68
565.113	0.68
565.455	0.67
565.797	0.67
566.139	0.67
566.481	0.67
566.822	0.67
567.164	0.67
567.506	0.67
567.847	0.67
568.189	0.67
568.53	0.67
568.872	0.67
569.213	0.66
569.554	0.66
569.895	0.66
570.237	0.66
570.578	0.66
570.919	0.66
571.26	0.66
571.601	0.65
571.942	0.65
572.283	0.65
572.624	0.65
572.965	0.65
573.306	0.64
573.646	0.64
573.987	0.64
574.328	0.64
574.668	0.64
575.009	0.64
575.349	0.63
575.69	0.63
576.03	0.63
576.37	0.63
576.711	0.62
577.051	0.62
577.391	0.62
577.731	0.63
578.072	0.63
578.412	0.62
578.752	0.62
579.092	0.62
579.431	0.61
579.771	0.59
580.111	0.58
580.451	0.59
580.791	0.61
581.13	0.61
581.47	0.61
581.81	0.61
582.149	0.61
582.489	0.61
582.828	0.6
583.167	0.57
583.507	0.53
583.846	0.52
584.185	0.55
584.525	0.57
584.864	0.59
585.203	0.6
585.542	0.6
585.881	0.6
586.22	0.6
586.559	0.59
586.898	0.58
587.236	0.57
587.575	0.57
587.914	0.58
588.252	0.59
588.591	0.59
588.93	0.59
589.268	0.59
589.607	0.59
589.945	0.59
590.283	0.59
590.622	0.59
590.96	0.59
591.298	0.59
591.636	0.59
591.974	0.59
592.313	0.6
592.651	0.59
592.989	0.59
593.326	0.59
593.664	0.59
594.002	0.59
594.34	0.59
594.678	0.58
595.015	0.58
595.353	0.57
595.691	0.58
596.028	0.59
596.366	0.58
596.703	0.59
597.04	0.59
597.378	0.59
597.715	0.59
598.052	0.59
598.389	0.59
598.726	0.59
599.064	0.59
599.401	0.59
599.738	0.59
600.074	0.58
600.411	0.58
600.748	0.58
601.085	0.57
601.422	0.57
601.758	0.57
602.095	0.57
602.432	0.56
602.768	0.56
603.105	0.57
603.441	0.57
603.777	0.57
604.114	0.57
604.45	0.57
604.786	0.57
605.122	0.57
605.459	0.57
605.795	0.57
606.131	0.56
606.467	0.56
606.803	0.56
607.139	0.56
607.474	0.56
607.81	0.55
608.146	0.55
608.482	0.55
608.817	0.55
609.153	0.55
609.488	0.55
609.824	0.54
610.159	0.54
610.495	0.54
610.83	0.55
611.165	0.54
611.5	0.54
611.836	0.54
612.171	0.54
612.506	0.53
612.841	0.54
613.176	0.53
613.511	0.53
613.845	0.53
614.18	0.53
614.515	0.53
614.85	0.52
615.184	0.52
615.519	0.52
615.854	0.52
616.188	0.52
616.523	0.51
616.857	0.51
617.191	0.51
617.526	0.51
617.86	0.51
618.194	0.51
618.528	0.51
618.862	0.51
619.196	0.51
619.53	0.5
619.864	0.5
620.198	0.5
620.532	0.5
620.866	0.5
621.2	0.49
621.533	0.49
621.867	0.49
622.201	0.49
622.534	0.49
622.868	0.49
623.201	0.49
623.534	0.48
623.868	0.48
624.201	0.48
624.534	0.48
624.868	0.47
625.201	0.47
625.534	0.47
625.867	0.47
626.2	0.46
626.533	0.46
626.865	0.46
627.198	0.46
627.531	0.46
627.864	0.45
628.196	0.45
628.529	0.45
628.862	0.45
629.194	0.45
629.527	0.44
629.859	0.44
630.191	0.44
630.524	0.44
630.856	0.43
631.188	0.43
631.52	0.43
631.852	0.43
632.184	0.42
632.516	0.42
632.848	0.42
633.18	0.42
633.512	0.41
633.844	0.41
634.175	0.41
634.507	0.41
634.839	0.41
635.17	0.4
635.502	0.4
635.833	0.39
636.165	0.39
636.496	0.39
636.827	0.39
637.159	0.39
637.49	0.38
637.821	0.38
638.152	0.38
638.483	0.38
638.814	0.37
639.145	0.37
639.476	0.37
639.807	0.36
640.137	0.36
640.468	0.36
640.799	0.36
641.129	0.35
641.46	0.35
641.791	0.35
642.121	0.35
642.451	0.35
642.782	0.34
643.112	0.34
643.442	0.34
643.773	0.34
644.103	0.34
644.433	0.33
644.763	0.33
645.093	0.33
645.423	0.33
645.753	0.33
646.082	0.32
646.412	0.32
646.742	0.32
647.072	0.32
647.401	0.32
647.731	0.32
648.06	0.31
648.39	0.32
648.719	0.31
649.048	0.31
649.378	0.31
649.707	0.31
650.036	0.31
650.365	0.3
650.694	0.3
651.023	0.3
651.352	0.3
651.681	0.3
652.01	0.3
652.339	0.3
652.668	0.3
652.996	0.3
653.325	0.3
653.654	0.3
653.982	0.29
654.311	0.29
654.639	0.29
654.967	0.29
655.296	0.29
655.624	0.29
655.952	0.29
656.28	0.29
656.609	0.29
656.937	0.28
657.265	0.28
657.593	0.17
657.92	0.07
658.248	0.03
658.576	0.05
658.904	0.14
659.231	0.22
659.559	0.27
659.887	0.27
660.214	0.27
660.542	0.27
660.869	0.27
661.196	0.27
661.524	0.27
661.851	0.26
662.178	0.26
662.505	0.26
662.832	0.26
663.159	0.26
663.486	0.26
663.813	0.26
664.14	0.26
664.467	0.26
664.794	0.26
665.12	0.26
665.447	0.26
665.774	0.26
666.1	0.25
666.427	0.25
666.753	0.25
667.079	0.25
667.406	0.25
667.732	0.25
668.058	0.25
668.384	0.25
668.71	0.24
669.036	0.24
669.362	0.24
669.688	0.24
670.014	0.24
670.34	0.24
670.666	0.23
670.991	0.23
671.317	0.23
671.643	0.23
671.968	0.23
672.294	0.23
672.619	0.22
672.945	0.22
673.27	0.22
673.595	0.22
673.92	0.22
674.246	0.21
674.571	0.22
674.896	0.21
675.221	0.21
675.546	0.21
675.87	0.21
676.195	0.21
676.52	0.21
676.845	0.21
677.169	0.2
677.494	0.2
677.819	0.2
678.143	0.2
678.468	0.19
678.792	0.19
679.116	0.19
679.44	0.19
679.765	0.18
680.089	0.18
680.413	0.18
680.737	0.18
681.061	0.18
681.385	0.18
681.709	0.17
682.033	0.17
682.356	0.17
682.68	0.17
683.004	0.17
683.327	0.17
683.651	0.16
683.974	0.16
684.298	0.16
684.621	0.16
684.944	0.16
685.268	0.16
685.591	0.16
685.914	0.15
686.237	0.15
686.56	0.15
686.883	0.14
687.206	0.14
687.529	0.14
687.852	0.14
688.175	0.14
688.497	0.14
688.82	0.14
689.142	0.13
689.465	0.13
689.787	0.13
690.11	0.13
690.432	0.13
690.755	0.13
691.077	0.12
691.399	0.13
691.721	0.12
692.043	0.12
692.365	0.12
692.687	0.12
693.009	0.12
693.331	0.12
693.653	0.11
693.974	0.12
694.296	0.11
694.618	0.11
694.939	0.11
695.261	0.11
695.582	0.11
695.904	0.11
696.225	0.11
696.546	0.11
696.868	0.1
697.189	0.1
697.51	0.1
697.831	0.1
698.152	0.1
698.473	0.1
698.794	0.09
699.114	0.09
699.435	0.08
699.756	0.08
700.077	0.09
700.397	0.09
700.718	0.09
701.038	0.09
701.359	0.09
701.679	0.09
701.999	0.09
702.32	0.09
702.64	0.09
702.96	0.09
703.28	0.09
703.6	0.09
703.92	0.08
704.24	0.08
704.56	0.08
704.879	0.08
705.199	0.08
705.519	0.08
705.838	0.08
706.158	0.09
706.478	0.09
706.797	0.09
707.116	0.09
707.436	0.08
707.755	0.09
708.074	0.08
708.393	0.08
708.712	0.07
709.031	0.06
709.35	0.07
709.669	0.06
709.988	0.06
710.307	0.07
710.626	0.07
710.944	0.08
711.263	0.07
711.582	0.08
711.9	0.08
712.219	0.07
712.537	0.08
712.855	0.08
713.174	0.08
713.492	0.08
713.81	0.08
714.128	0.08
714.446	0.08
714.764	0.07
715.082	0.07
715.4	0.07
715.718	0.07
716.035	0.07
716.353	0.08
716.671	0.07
716.988	0.08
717.306	0.07
717.623	0.08
717.941	0.08
718.258	0.08
718.575	0.08
718.893	0.08
719.21	0.08
719.527	0.08
719.844	0.08
720.161	0.08
720.478	0.08
720.795	0.08
721.112	0.08
721.428	0.08
721.745	0.08
722.062	0.08
722.378	0.08
722.695	0.08
723.011	0.08
723.328	0.08
723.644	0.08
723.96	0.08
724.276	0.08
724.593	0.08
724.909	0.08
725.225	0.09
725.541	0.09
725.857	0.08
726.173	0.08
726.488	0.09
726.804	0.08
727.12	0.08
727.435	0.08
727.751	0.08
728.067	0.09
728.382	0.09
728.697	0.08
729.013	0.09
729.328	0.08
729.643	0.09
729.958	0.08
730.273	0.08
730.588	0.08
730.903	0.08
731.218	0.08
731.533	0.08
731.848	0.08
732.163	0.08
732.477	0.08
732.792	0.08
733.107	0.07
733.421	0.08
733.736	0.08
734.05	0.08
734.364	0.08
734.678	0.08
734.993	0.08
735.307	0.08
735.621	0.08
735.935	0.08
736.249	0.08
736.563	0.08
736.877	0.08
737.19	0.08
737.504	0.08
737.818	0.07
738.131	0.07
738.445	0.08
738.758	0.08
739.072	0.08
739.385	0.08
739.698	0.07
740.012	0.08
740.325	0.08
740.638	0.07
740.951	0.07
741.264	0.07
741.577	0.07
741.89	0.07
742.203	0.07
742.515	0.07
742.828	0.07
743.141	0.07
743.453	0.07
743.766	0.07
744.078	0.07
744.391	0.07
744.703	0.07
745.015	0.07
745.327	0.07
745.639	0.07
745.952	0.07
746.264	0.06
746.575	0.06
746.887	0.06
747.199	0.06
747.511	0.06
747.823	0.06
748.134	0.06
748.446	0.06
748.757	0.06
749.069	0.06
749.38	0.06
749.692	0.06
750.003	0.06
750.314	0.06
750.625	0.06
750.936	0.06
751.248	0.06
751.559	0.06
751.869	0.06
752.18	0.06
752.491	0.06
752.802	0.06
753.112	0.06
753.423	0.06
753.734	0.06
754.044	0.05
754.355	0.06
754.665	0.05
754.975	0.05
755.285	0.05
755.596	0.05
755.906	0.05
756.216	0.05
756.526	0.05
756.836	0.05
757.146	0.05
757.455	0.05
757.765	0.04
758.075	0.04
758.385	0.04
758.694	0.04
759.004	0.04
759.313	0.04
759.622	0.04
759.932	0.04
760.241	0.05
760.55	0.04
760.859	0.04
761.168	0.04
761.477	0.04
761.786	0.04
762.095	0.04
762.404	0.04
762.713	0.04
763.021	0.04
763.33	0.04
763.639	0.05
763.947	0.04
764.256	0.04
764.564	0.04
764.872	0.04
765.181	0.04
765.489	0.04
765.797	0.04
766.105	0.04
766.413	0.04
766.721	0.04
767.029	0.04
767.337	0.04
767.644	0.05
767.952	0.04
768.26	0.04
768.567	0.04
768.875	0.04
769.182	0.04
769.49	0.04
769.797	0.04
770.104	0.04
770.411	0.04
770.718	0.04
771.026	0.04
771.333	0.04
771.639	0.05
771.946	0.04
772.253	0.04
772.56	0.04
772.867	0.04
773.173	0.04
773.48	0.04
773.786	0.04
774.093	0.04
774.399	0.04
774.705	0.04
775.012	0.04
775.318	0.04
775.624	0.04
775.93	0.04
776.236	0.05
776.542	0.05
776.848	0.04
777.154	0.04
777.459	0.04
777.765	0.04
778.071	0.04
778.376	0.04
778.682	0.04
778.987	0.04
779.292	0.04
779.598	0.04
779.903	0.04
780.208	0.05
780.513	0.04
780.818	0.04
781.123	0.04
781.428	0.04
781.733	0.04
782.038	0.04
782.343	0.04
782.647	0.04
782.952	0.04
783.256	0.04
783.561	0.04
783.865	0.04
784.17	0.05
784.474	0.05
784.778	0.05
785.082	0.05
785.386	0.05
785.69	0.05
785.994	0.05
786.298	0.05
786.602	0.05
786.906	0.05
787.209	0.05
787.513	0.05
787.817	0.05
788.12	0.05
788.424	0.05
788.727	0.05
789.03	0.05
789.333	0.05
789.637	0.05
789.94	0.05
790.243	0.05
790.546	0.05
790.849	0.05
791.152	0.05
791.454	0.05
791.757	0.05
792.06	0.05
792.362	0.05
792.665	0.05
792.967	0.05
793.27	0.05
793.572	0.05
793.874	0.05
794.177	0.05
794.479	0.05
794.781	0.05
795.083	0.05
795.385	0.05
795.687	0.05
795.989	0.05
796.29	0.05
796.592	0.05
796.894	0.05
797.195	0.06
797.497	0.06
797.798	0.06
798.1	0.06
798.401	0.06
798.702	0.05
799.003	0.06
799.304	0.05
799.605	0.05
799.906	0.06
800.207	0.05
800.508	0.06
800.809	0.05
801.11	0.05
801.41	0.05
801.711	0.06
802.011	0.05
802.312	0.06
802.612	0.06
802.913	0.06
803.213	0.06
803.513	0.06
803.813	0.06
804.113	0.05
804.413	0.05
804.713	0.05
805.013	0.05
805.313	0.05
805.613	0.06
805.912	0.05
806.212	0.05
806.511	0.06
806.811	0.06
807.11	0.06
807.41	0.06
807.709	0.06
808.008	0.06
808.307	0.06
808.606	0.06
808.905	0.06
809.204	0.07
809.503	0.07
809.802	0.07
810.101	0.06
810.399	0.07
810.698	0.07
810.997	0.06
811.295	0.06
811.593	0.07
811.892	0.06
812.19	0.06
812.488	0.06
812.786	0.06
813.084	0.06
813.383	0.07
813.68	0.06
813.978	0.06
814.276	0.07
814.574	0.07
814.872	0.07
815.169	0.07
815.467	0.07
815.764	0.07
816.062	0.07
816.359	0.07
816.656	0.08
816.954	0.07
817.251	0.07
817.548	0.07
817.845	0.07
818.142	0.07
818.439	0.07
818.735	0.07
819.032	0.07
819.329	0.07
819.626	0.07
819.922	0.07
820.219	0.08
820.515	0.08
820.811	0.08
821.108	0.08
821.404	0.08
821.7	0.07
821.996	0.08
822.292	0.07
822.588	0.08
822.884	0.08
823.18	0.08
823.475	0.08
823.771	0.08
824.067	0.08
824.362	0.08
824.658	0.08
824.953	0.08
825.249	0.08
825.544	0.08
825.839	0.08
826.134	0.08
826.429	0.08
826.724	0.08
827.019	0.08
827.314	0.08
827.609	0.08
827.904	0.09
828.198	0.08
828.493	0.08
828.787	0.08
829.082	0.08
829.376	0.08
829.671	0.08
829.965	0.09
830.259	0.09
830.553	0.09
830.847	0.09
831.141	0.09
831.435	0.09
831.729	0.09
832.023	0.09
832.317	0.09
832.61	0.09
832.904	0.09
833.197	0.1
833.491	0.09
833.784	0.09
834.077	0.09
834.371	0.08
834.664	0.09
834.957	0.1
835.25	0.09
835.543	0.08
835.836	0.09
836.129	0.09
836.421	0.08
836.714	0.09
837.007	0.08
837.299	0.09
837.592	0.09
837.884	0.09
838.177	0.09
838.469	0.09
838.761	0.09
839.053	0.08
839.345	0.09
839.637	0.09
839.929	0.09
840.221	0.1
840.513	0.1
840.805	0.1
841.096	0.09
841.388	0.09
841.68	0.1
841.971	0.09
842.262	0.09
842.554	0.1
842.845	0.09
843.136	0.09
843.427	0.1
843.718	0.1
844.009	0.09
844.3	0.1
844.591	0.1
844.882	0.09
845.173	0.1
845.463	0.09
845.754	0.1
846.044	0.1
846.335	0.1
846.625	0.11
846.915	0.11
847.206	0.1
847.496	0.11
847.786	0.11
848.076	0.11
848.366	0.11
848.656	0.1
848.945	0.1
849.235	0.11
849.525	0.1
849.814	0.1
850.104	0.11
850.393	0.11
850.683	0.1
850.972	0.1
851.261	0.11
851.551	0.11
851.84	0.1
852.129	0.1
852.418	0.1
852.707	0.11
852.995	0.1
853.284	0.11
853.573	0.1
853.862	0.1
854.15	0.1
854.439	0.11
854.727	0.11
855.015	0.1
855.304	0.1
855.592	0.12
855.88	0.11
856.168	0.1
856.456	0.11
856.744	0.12
857.032	0.12
857.32	0.12
857.607	0.11
857.895	0.12
858.183	0.12
858.47	0.11
858.757	0.13
859.045	0.14
859.332	0.14
859.619	0.12
859.907	0.14
860.194	0.12
860.481	0.11
860.768	0.12
861.054	0.12
861.341	0.12
861.628	0.12
861.915	0.12
862.201	0.13
862.488	0.13
862.774	0.12
863.061	0.14
863.347	0.11
863.633	0.13
863.919	0.1
864.205	0.09
864.491	0.12
864.777	0.11
865.063	0.1
865.349	0.11
865.635	0.13
865.92	0.13
866.206	0.11
866.492	0.12
866.777	0.13
867.062	0.11
867.348	0.11
867.633	0.08
867.918	0.12
868.203	0.12
868.488	0.12
868.773	0.1
869.058	0.1
869.343	0.11
869.628	0.1
869.912	0.13
870.197	0.12
870.482	0.14
870.766	0.12
871.05	0.11
871.335	0.12
871.619	0.11
871.903	0.17
872.187	0.09
872.471	0.13
872.755	0.08
873.039	0.09
873.323	0.15
873.607	0.11
873.89	0.15
874.174	0.11
874.458	0.1
874.741	0.2
875.024	0.12
875.308	0.1
875.591	0.1
875.874	0.11
876.157	0.12
876.44	0.15
876.723	0.1
877.006	0.07
877.289	0.07
877.572	0.1
877.854	0.08
878.137	0.07
878.42	0.15
878.702	0.13
878.984	0.07
879.267	0.11
879.549	0.13
879.831	0.09
880.113	0.1
880.395	0.11
880.677	0.05
880.959	0.09
