Data from Rubpy_BV_1500_EDTA_Buffered_Absorbance_14-26-03-634.txt Node
Date: Wed Jul 01 14:26:03 BST 2026
User: fpm-admin
Spectrometer: OFX00224
Trigger mode: 0
Integration Time (sec): 7.000000E-2
Scans to average: 3
Nonlinearity correction enabled: false
Boxcar width: 0
Storing dark spectrum: false
XAxis mode: Wavelengths
Number of Pixels in Spectrum: 2136
>>>>>Begin Spectral Data<<<<<
154.91	-0.54
155.289	-0
155.669	-1.32
156.048	-0
156.428	-0
156.807	-0
157.186	-0.56
157.566	0.64
157.945	-0
158.325	0.74
158.704	-0
159.083	0.03
159.462	-0
159.842	0.09
160.221	-0.04
160.6	-0
160.979	-0
161.359	-0.15
161.738	-0
162.117	-0
162.496	0.09
162.875	-0.2
163.254	-0
163.633	-0
164.012	-0.2
164.391	-0
164.77	0.94
165.149	1.54
165.528	-0
165.907	-0
166.286	-0.3
166.665	0.1
167.044	-0
167.423	-0.02
167.802	-0
168.181	-0
168.559	0.28
168.938	0.08
169.317	-0.02
169.696	-0
170.074	-0
170.453	0.21
170.832	-0
171.21	-0
171.589	0.06
171.968	-0.72
172.346	1.39
172.725	-0.42
173.103	-0
173.482	-1.24
173.861	0.2
174.239	-0
174.617	-0
174.996	0.18
175.374	0.26
175.753	0.3
176.131	-0
176.51	0.15
176.888	-0
177.266	-0
177.645	0.06
178.023	-0
178.401	-0.28
178.779	0.27
179.158	1.74
179.536	0.03
179.914	0.12
180.292	0.25
180.67	-1.18
181.048	0.59
181.427	-0
181.805	0.18
182.183	-0.64
182.561	-0
182.939	-0
183.317	-0
183.695	0.46
184.073	-0
184.451	-0.49
184.829	-0
185.206	-0
185.584	0.24
185.962	-0
186.34	-0
186.718	-0.54
187.096	-0.65
187.473	-0.42
187.851	-0
188.229	0.1
188.607	0.12
188.984	0.33
189.362	0.23
189.74	0.19
190.117	0.18
190.495	0.1
190.872	0.14
191.25	0.23
191.627	0.2
192.005	0.2
192.382	0.26
192.76	0.19
193.137	0.18
193.515	0.14
193.892	0.19
194.269	0.11
194.647	0.33
195.024	0.19
195.401	0.21
195.779	0.13
196.156	0.3
196.533	0.31
196.91	0.27
197.288	0.2
197.665	0.27
198.042	0.37
198.419	0.21
198.796	0.12
199.173	0.2
199.55	0.18
199.927	0.23
200.304	0.25
200.681	0.18
201.058	0.11
201.435	0.19
201.812	0.28
202.189	0.3
202.566	0.12
202.943	0.15
203.32	0.16
203.697	0.11
204.073	0.16
204.45	0.2
204.827	0.36
205.204	0.16
205.58	0.14
205.957	0.15
206.334	0.12
206.71	0.23
207.087	0.29
207.464	0.21
207.84	0.14
208.217	0.16
208.593	0.25
208.97	0.27
209.346	0.21
209.723	0.25
210.099	0.19
210.476	0.22
210.852	0.18
211.228	0.17
211.605	0.29
211.981	0.15
212.357	0.17
212.733	0.11
213.11	0.16
213.486	0.11
213.862	0.18
214.238	0.31
214.614	0.24
214.991	0.1
215.367	0.16
215.743	0.13
216.119	0.18
216.495	0.22
216.871	0.27
217.247	0.14
217.623	0.11
217.999	0.14
218.375	0.14
218.751	0.11
219.127	0.18
219.502	0.22
219.878	0.2
220.254	0.17
220.63	0.14
221.006	0.13
221.381	0.23
221.757	0.31
222.133	0.21
222.508	0.28
222.884	0.28
223.26	0.19
223.635	0.24
224.011	0.33
224.386	0.22
224.762	0.27
225.137	0.34
225.513	0.2
225.888	0.38
226.264	0.38
226.639	0.28
227.014	0.23
227.39	0.25
227.765	0.3
228.14	0.21
228.516	0.24
228.891	0.24
229.266	0.32
229.641	0.26
230.017	0.28
230.392	0.19
230.767	0.35
231.142	0.14
231.517	0.16
231.892	0.25
232.267	0.25
232.642	0.23
233.017	0.26
233.392	0.2
233.767	0.12
234.142	0.31
234.517	0.33
234.892	0.17
235.267	0.23
235.641	0.24
236.016	0.17
236.391	0.32
236.766	0.32
237.14	0.3
237.515	0.14
237.89	0.32
238.264	0.3
238.639	0.23
239.014	0.27
239.388	0.16
239.763	0.24
240.137	0.2
240.512	0.27
240.886	0.26
241.261	0.28
241.635	0.17
242.009	0.3
242.384	0.22
242.758	0.18
243.132	0.2
243.507	0.24
243.881	0.14
244.255	0.18
244.629	0.23
245.004	0.25
245.378	0.25
245.752	0.15
246.126	0.31
246.5	0.25
246.874	0.2
247.248	0.22
247.622	0.17
247.996	0.32
248.37	0.29
248.744	0.23
249.118	0.33
249.492	0.16
249.866	0.3
250.24	0.25
250.613	0.2
250.987	0.28
251.361	0.2
251.735	0.26
252.108	0.19
252.482	0.19
252.856	0.28
253.229	0.39
253.603	0.25
253.977	0.23
254.35	0.36
254.724	0.21
255.097	0.11
255.471	0.26
255.844	0.37
256.218	0.19
256.591	0.27
256.964	0.18
257.338	0.2
257.711	0.24
258.084	0.3
258.458	0.15
258.831	0.26
259.204	0.22
259.577	0.29
259.95	0.21
260.323	0.17
260.697	0.28
261.07	0.23
261.443	0.29
261.816	0.23
262.189	0.25
262.562	0.23
262.935	0.33
263.308	0.3
263.68	0.13
264.053	0.25
264.426	0.24
264.799	0.21
265.172	0.23
265.545	0.32
265.917	0.16
266.29	0.26
266.663	0.24
267.035	0.25
267.408	0.21
267.781	0.24
268.153	0.28
268.526	0.26
268.898	0.26
269.271	0.22
269.643	0.26
270.016	0.22
270.388	0.31
270.76	0.23
271.133	0.21
271.505	0.29
271.877	0.29
272.25	0.36
272.622	0.38
272.994	0.25
273.366	0.25
273.739	0.18
274.111	0.2
274.483	0.25
274.855	0.25
275.227	0.22
275.599	0.18
275.971	0.25
276.343	0.21
276.715	0.23
277.087	0.22
277.459	0.19
277.831	0.27
278.203	0.3
278.574	0.2
278.946	0.21
279.318	0.37
279.69	0.12
280.061	0.22
280.433	0.26
280.805	0.17
281.176	0.22
281.548	0.3
281.92	0.29
282.291	0.21
282.663	0.28
283.034	0.23
283.406	0.22
283.777	0.26
284.148	0.19
284.52	0.25
284.891	0.26
285.262	0.27
285.634	0.28
286.005	0.32
286.376	0.28
286.747	0.26
287.119	0.2
287.49	0.31
287.861	0.2
288.232	0.28
288.603	0.3
288.974	0.26
289.345	0.33
289.716	0.18
290.087	0.25
290.458	0.31
290.829	0.15
291.2	0.27
291.571	0.27
291.941	0.2
292.312	0.23
292.683	0.35
293.054	0.24
293.424	0.28
293.795	0.2
294.166	0.23
294.536	0.23
294.907	0.32
295.277	0.32
295.648	0.28
296.018	0.28
296.389	0.23
296.759	0.32
297.13	0.23
297.5	0.38
297.871	0.27
298.241	0.23
298.611	0.34
298.981	0.3
299.352	0.37
299.722	0.29
300.092	0.22
300.462	0.18
300.832	0.2
301.202	0.26
301.573	0.25
301.943	0.25
302.313	0.27
302.683	0.27
303.053	0.32
303.422	0.24
303.792	0.29
304.162	0.24
304.532	0.28
304.902	0.2
305.272	0.23
305.641	0.23
306.011	0.25
306.381	0.21
306.75	0.26
307.12	0.22
307.49	0.23
307.859	0.2
308.229	0.19
308.598	0.24
308.968	0.2
309.337	0.21
309.707	0.19
310.076	0.21
310.445	0.2
310.815	0.18
311.184	0.19
311.553	0.2
311.923	0.18
312.292	0.19
312.661	0.19
313.03	0.22
313.399	0.21
313.768	0.21
314.137	0.2
314.506	0.21
314.875	0.21
315.244	0.22
315.613	0.21
315.982	0.23
316.351	0.21
316.72	0.23
317.089	0.23
317.458	0.24
317.826	0.23
318.195	0.24
318.564	0.24
318.933	0.24
319.301	0.25
319.67	0.25
320.038	0.25
320.407	0.26
320.775	0.27
321.144	0.27
321.512	0.27
321.881	0.28
322.249	0.28
322.618	0.27
322.986	0.28
323.354	0.29
323.723	0.29
324.091	0.29
324.459	0.3
324.827	0.3
325.195	0.32
325.564	0.32
325.932	0.32
326.3	0.32
326.668	0.33
327.036	0.34
327.404	0.34
327.772	0.34
328.14	0.35
328.508	0.35
328.875	0.35
329.243	0.37
329.611	0.37
329.979	0.38
330.346	0.38
330.714	0.38
331.082	0.39
331.449	0.4
331.817	0.41
332.185	0.41
332.552	0.42
332.92	0.43
333.287	0.44
333.655	0.44
334.022	0.45
334.389	0.45
334.757	0.46
335.124	0.47
335.491	0.49
335.859	0.49
336.226	0.5
336.593	0.51
336.96	0.51
337.327	0.53
337.695	0.54
338.062	0.54
338.429	0.56
338.796	0.56
339.163	0.58
339.53	0.59
339.897	0.59
340.263	0.61
340.63	0.62
340.997	0.64
341.364	0.64
341.731	0.65
342.097	0.66
342.464	0.67
342.831	0.68
343.197	0.69
343.564	0.71
343.931	0.72
344.297	0.72
344.664	0.73
345.03	0.75
345.396	0.76
345.763	0.77
346.129	0.78
346.496	0.8
346.862	0.8
347.228	0.81
347.594	0.82
347.961	0.84
348.327	0.85
348.693	0.85
349.059	0.86
349.425	0.88
349.791	0.89
350.157	0.9
350.523	0.91
350.889	0.92
351.255	0.93
351.621	0.95
351.987	0.95
352.353	0.96
352.719	0.96
353.084	0.99
353.45	0.99
353.816	1.01
354.181	1
354.547	1.02
354.913	1.04
355.278	1.05
355.644	1.05
356.009	1.08
356.375	1.08
356.74	1.1
357.106	1.11
357.471	1.12
357.836	1.13
358.202	1.16
358.567	1.16
358.932	1.18
359.297	1.2
359.663	1.22
360.028	1.24
360.393	1.23
360.758	1.26
361.123	1.28
361.488	1.3
361.853	1.3
362.218	1.33
362.583	1.34
362.948	1.32
363.312	1.36
363.677	1.4
364.042	1.38
364.407	1.41
364.772	1.41
365.136	1.43
365.501	1.45
365.865	1.45
366.23	1.45
366.595	1.46
366.959	1.47
367.324	1.48
367.688	1.49
368.052	1.51
368.417	1.52
368.781	1.49
369.145	1.53
369.51	1.55
369.874	1.55
370.238	1.6
370.602	1.58
370.967	1.58
371.331	1.57
371.695	1.57
372.059	1.55
372.423	1.6
372.787	1.58
373.151	1.6
373.515	1.59
373.878	1.58
374.242	1.53
374.606	1.56
374.97	1.55
375.334	1.52
375.697	1.53
376.061	1.53
376.425	1.51
376.788	1.49
377.152	1.46
377.515	1.48
377.879	1.46
378.242	1.44
378.606	1.42
378.969	1.39
379.333	1.4
379.696	1.38
380.059	1.37
380.422	1.33
380.786	1.33
381.149	1.31
381.512	1.29
381.875	1.3
382.238	1.27
382.601	1.25
382.964	1.25
383.327	1.22
383.69	1.2
384.053	1.2
384.416	1.18
384.779	1.17
385.142	1.17
385.504	1.14
385.867	1.14
386.23	1.13
386.593	1.12
386.955	1.12
387.318	1.12
387.68	1.1
388.043	1.1
388.405	1.09
388.768	1.09
389.13	1.09
389.493	1.08
389.855	1.07
390.217	1.06
390.58	1.06
390.942	1.04
391.304	1.04
391.666	1.01
392.028	1
392.391	0.98
392.753	0.97
393.115	0.97
393.477	0.94
393.839	0.94
394.201	0.92
394.563	0.92
394.924	0.91
395.286	0.92
395.648	0.92
396.01	0.92
396.371	0.94
396.733	0.94
397.095	0.96
397.456	0.96
397.818	0.98
398.18	1
398.541	1.03
398.903	1.04
399.264	1.07
399.625	1.1
399.987	1.11
400.348	1.12
400.709	1.14
401.071	1.16
401.432	1.16
401.793	1.15
402.154	1.14
402.515	1.14
402.876	1.12
403.238	1.1
403.599	1.06
403.96	1.02
404.32	0.99
404.681	0.96
405.042	0.94
405.403	0.89
405.764	0.85
406.125	0.81
406.485	0.77
406.846	0.73
407.207	0.7
407.567	0.66
407.928	0.63
408.288	0.59
408.649	0.56
409.009	0.54
409.37	0.51
409.73	0.47
410.091	0.45
410.451	0.43
410.811	0.4
411.171	0.39
411.532	0.36
411.892	0.35
412.252	0.34
412.612	0.32
412.972	0.31
413.332	0.29
413.692	0.28
414.052	0.27
414.412	0.26
414.772	0.25
415.132	0.24
415.492	0.24
415.851	0.23
416.211	0.23
416.571	0.21
416.931	0.21
417.29	0.2
417.65	0.2
418.009	0.2
418.369	0.19
418.728	0.18
419.088	0.18
419.447	0.17
419.807	0.17
420.166	0.17
420.525	0.16
420.884	0.16
421.244	0.16
421.603	0.16
421.962	0.15
422.321	0.14
422.68	0.15
423.039	0.14
423.398	0.14
423.757	0.14
424.116	0.14
424.475	0.14
424.834	0.14
425.193	0.13
425.551	0.13
425.91	0.13
426.269	0.13
426.628	0.13
426.986	0.13
427.345	0.13
427.703	0.12
428.062	0.13
428.42	0.12
428.779	0.13
429.137	0.12
429.496	0.12
429.854	0.11
430.212	0.13
430.57	0.13
430.929	0.12
431.287	0.12
431.645	0.11
432.003	0.12
432.361	0.11
432.719	0.13
433.077	0.12
433.435	0.12
433.793	0.11
434.151	0.12
434.509	0.12
434.866	0.12
435.224	0.12
435.582	0.12
435.94	0.12
436.297	0.11
436.655	0.11
437.012	0.12
437.37	0.11
437.727	0.11
438.085	0.12
438.442	0.12
438.8	0.11
439.157	0.12
439.514	0.12
439.872	0.11
440.229	0.12
440.586	0.11
440.943	0.12
441.3	0.12
441.657	0.12
442.014	0.11
442.371	0.12
442.728	0.12
443.085	0.12
443.442	0.12
443.799	0.11
444.156	0.12
444.513	0.12
444.869	0.12
445.226	0.13
445.583	0.13
445.939	0.12
446.296	0.13
446.652	0.12
447.009	0.12
447.365	0.12
447.722	0.13
448.078	0.13
448.434	0.13
448.791	0.14
449.147	0.13
449.503	0.13
449.859	0.14
450.215	0.13
450.571	0.13
450.928	0.13
451.284	0.14
451.64	0.13
451.995	0.13
452.351	0.14
452.707	0.15
453.063	0.13
453.419	0.14
453.775	0.14
454.13	0.14
454.486	0.15
454.842	0.15
455.197	0.15
455.553	0.15
455.908	0.15
456.264	0.15
456.619	0.15
456.975	0.15
457.33	0.15
457.685	0.16
458.04	0.15
458.396	0.16
458.751	0.15
459.106	0.16
459.461	0.16
459.816	0.16
460.171	0.17
460.526	0.16
460.881	0.17
461.236	0.16
461.591	0.16
461.946	0.17
462.301	0.17
462.655	0.17
463.01	0.18
463.365	0.17
463.719	0.16
464.074	0.17
464.428	0.18
464.783	0.17
465.137	0.19
465.492	0.18
465.846	0.18
466.201	0.18
466.555	0.18
466.909	0.18
467.263	0.19
467.618	0.18
467.972	0.19
468.326	0.19
468.68	0.19
469.034	0.2
469.388	0.21
469.742	0.2
470.096	0.2
470.45	0.2
470.804	0.22
471.157	0.21
471.511	0.21
471.865	0.22
472.218	0.23
472.572	0.22
472.926	0.22
473.279	0.22
473.633	0.23
473.986	0.24
474.34	0.24
474.693	0.24
475.046	0.25
475.4	0.25
475.753	0.25
476.106	0.25
476.459	0.25
476.812	0.25
477.165	0.26
477.519	0.26
477.872	0.26
478.224	0.27
478.577	0.28
478.93	0.28
479.283	0.28
479.636	0.29
479.989	0.29
480.341	0.29
480.694	0.29
481.047	0.3
481.399	0.3
481.752	0.3
482.104	0.3
482.457	0.31
482.809	0.32
483.162	0.32
483.514	0.32
483.866	0.33
484.219	0.33
484.571	0.33
484.923	0.33
485.275	0.33
485.627	0.34
485.979	0.34
486.331	0.34
486.683	0.35
487.035	0.35
487.387	0.35
487.739	0.36
488.091	0.36
488.443	0.36
488.794	0.36
489.146	0.36
489.498	0.37
489.849	0.38
490.201	0.38
490.552	0.39
490.904	0.38
491.255	0.39
491.607	0.39
491.958	0.39
492.309	0.39
492.661	0.4
493.012	0.4
493.363	0.41
493.714	0.41
494.065	0.41
494.416	0.42
494.767	0.42
495.118	0.43
495.469	0.43
495.82	0.43
496.171	0.44
496.522	0.43
496.872	0.44
497.223	0.44
497.574	0.44
497.924	0.45
498.275	0.45
498.626	0.45
498.976	0.45
499.327	0.46
499.677	0.46
500.027	0.47
500.378	0.47
500.728	0.47
501.078	0.48
501.428	0.48
501.779	0.48
502.129	0.49
502.479	0.48
502.829	0.49
503.179	0.5
503.529	0.49
503.879	0.5
504.229	0.5
504.578	0.51
504.928	0.51
505.278	0.51
505.628	0.52
505.977	0.52
506.327	0.53
506.676	0.52
507.026	0.53
507.375	0.53
507.725	0.54
508.074	0.54
508.424	0.54
508.773	0.54
509.122	0.55
509.471	0.55
509.82	0.55
510.17	0.55
510.519	0.56
510.868	0.57
511.217	0.57
511.566	0.57
511.915	0.57
512.263	0.57
512.612	0.58
512.961	0.58
513.31	0.58
513.659	0.59
514.007	0.58
514.356	0.59
514.704	0.59
515.053	0.6
515.401	0.6
515.75	0.6
516.098	0.6
516.447	0.61
516.795	0.61
517.143	0.61
517.491	0.61
517.839	0.61
518.188	0.62
518.536	0.62
518.884	0.62
519.232	0.62
519.58	0.63
519.928	0.63
520.275	0.63
520.623	0.63
520.971	0.64
521.319	0.64
521.666	0.64
522.014	0.64
522.362	0.64
522.709	0.65
523.057	0.64
523.404	0.65
523.752	0.65
524.099	0.65
524.446	0.66
524.794	0.66
525.141	0.66
525.488	0.66
525.835	0.67
526.182	0.67
526.529	0.66
526.876	0.68
527.223	0.67
527.57	0.67
527.917	0.67
528.264	0.68
528.611	0.68
528.958	0.68
529.304	0.68
529.651	0.68
529.998	0.69
530.344	0.69
530.691	0.69
531.037	0.69
531.384	0.7
531.73	0.69
532.076	0.7
532.423	0.7
532.769	0.7
533.115	0.69
533.461	0.7
533.807	0.7
534.154	0.7
534.5	0.71
534.846	0.71
535.192	0.71
535.537	0.7
535.883	0.71
536.229	0.72
536.575	0.71
536.921	0.71
537.266	0.72
537.612	0.72
537.957	0.71
538.303	0.72
538.649	0.73
538.994	0.72
539.339	0.72
539.685	0.72
540.03	0.72
540.375	0.73
540.721	0.73
541.066	0.73
541.411	0.73
541.756	0.73
542.101	0.73
542.446	0.72
542.791	0.72
543.136	0.73
543.481	0.73
543.825	0.74
544.17	0.73
544.515	0.74
544.86	0.73
545.204	0.74
545.549	0.74
545.893	0.74
546.238	0.74
546.582	0.74
546.927	0.74
547.271	0.74
547.615	0.74
547.96	0.74
548.304	0.74
548.648	0.74
548.992	0.74
549.336	0.75
549.68	0.74
550.024	0.74
550.368	0.75
550.712	0.75
551.056	0.74
551.4	0.74
551.743	0.74
552.087	0.74
552.431	0.74
552.774	0.74
553.118	0.74
553.462	0.74
553.805	0.74
554.148	0.74
554.492	0.74
554.835	0.74
555.178	0.74
555.522	0.74
555.865	0.74
556.208	0.74
556.551	0.74
556.894	0.74
557.237	0.74
557.58	0.74
557.923	0.74
558.266	0.73
558.609	0.74
558.952	0.73
559.294	0.74
559.637	0.73
559.98	0.74
560.322	0.74
560.665	0.73
561.007	0.73
561.35	0.73
561.692	0.73
562.034	0.73
562.377	0.73
562.719	0.73
563.061	0.73
563.403	0.73
563.745	0.73
564.088	0.72
564.43	0.72
564.772	0.73
565.113	0.72
565.455	0.72
565.797	0.72
566.139	0.72
566.481	0.72
566.822	0.72
567.164	0.71
567.506	0.72
567.847	0.72
568.189	0.71
568.53	0.71
568.872	0.71
569.213	0.71
569.554	0.71
569.895	0.7
570.237	0.7
570.578	0.7
570.919	0.7
571.26	0.7
571.601	0.7
571.942	0.7
572.283	0.69
572.624	0.69
572.965	0.69
573.306	0.69
573.646	0.69
573.987	0.68
574.328	0.68
574.668	0.68
575.009	0.68
575.349	0.67
575.69	0.67
576.03	0.67
576.37	0.67
576.711	0.66
577.051	0.67
577.391	0.67
577.731	0.67
578.072	0.67
578.412	0.66
578.752	0.67
579.092	0.66
579.431	0.65
579.771	0.63
580.111	0.62
580.451	0.63
580.791	0.65
581.13	0.65
581.47	0.65
581.81	0.65
582.149	0.65
582.489	0.65
582.828	0.64
583.167	0.61
583.507	0.57
583.846	0.56
584.185	0.59
584.525	0.61
584.864	0.63
585.203	0.64
585.542	0.64
585.881	0.64
586.22	0.64
586.559	0.63
586.898	0.62
587.236	0.61
587.575	0.61
587.914	0.62
588.252	0.63
588.591	0.63
588.93	0.63
589.268	0.63
589.607	0.63
589.945	0.63
590.283	0.63
590.622	0.63
590.96	0.63
591.298	0.63
591.636	0.63
591.974	0.63
592.313	0.63
592.651	0.63
592.989	0.63
593.326	0.63
593.664	0.63
594.002	0.63
594.34	0.62
594.678	0.62
595.015	0.62
595.353	0.61
595.691	0.62
596.028	0.62
596.366	0.62
596.703	0.62
597.04	0.63
597.378	0.62
597.715	0.63
598.052	0.63
598.389	0.63
598.726	0.63
599.064	0.62
599.401	0.62
599.738	0.62
600.074	0.62
600.411	0.62
600.748	0.61
601.085	0.61
601.422	0.6
601.758	0.6
602.095	0.6
602.432	0.61
602.768	0.6
603.105	0.61
603.441	0.61
603.777	0.61
604.114	0.61
604.45	0.61
604.786	0.61
605.122	0.61
605.459	0.6
605.795	0.6
606.131	0.6
606.467	0.6
606.803	0.6
607.139	0.6
607.474	0.6
607.81	0.59
608.146	0.6
608.482	0.59
608.817	0.59
609.153	0.59
609.488	0.58
609.824	0.58
610.159	0.58
610.495	0.58
610.83	0.58
611.165	0.58
611.5	0.58
611.836	0.57
612.171	0.58
612.506	0.57
612.841	0.57
613.176	0.57
613.511	0.57
613.845	0.56
614.18	0.56
614.515	0.56
614.85	0.56
615.184	0.56
615.519	0.56
615.854	0.56
616.188	0.55
616.523	0.55
616.857	0.55
617.191	0.55
617.526	0.54
617.86	0.54
618.194	0.54
618.528	0.54
618.862	0.54
619.196	0.54
619.53	0.54
619.864	0.53
620.198	0.54
620.532	0.53
620.866	0.53
621.2	0.53
621.533	0.53
621.867	0.52
622.201	0.52
622.534	0.52
622.868	0.52
623.201	0.52
623.534	0.51
623.868	0.51
624.201	0.51
624.534	0.51
624.868	0.51
625.201	0.5
625.534	0.5
625.867	0.5
626.2	0.5
626.533	0.5
626.865	0.49
627.198	0.49
627.531	0.49
627.864	0.48
628.196	0.48
628.529	0.48
628.862	0.48
629.194	0.47
629.527	0.47
629.859	0.47
630.191	0.46
630.524	0.47
630.856	0.46
631.188	0.46
631.52	0.46
631.852	0.45
632.184	0.45
632.516	0.45
632.848	0.44
633.18	0.45
633.512	0.44
633.844	0.44
634.175	0.44
634.507	0.43
634.839	0.43
635.17	0.43
635.502	0.43
635.833	0.42
636.165	0.42
636.496	0.42
636.827	0.41
637.159	0.41
637.49	0.41
637.821	0.4
638.152	0.4
638.483	0.4
638.814	0.39
639.145	0.39
639.476	0.39
639.807	0.39
640.137	0.39
640.468	0.39
640.799	0.39
641.129	0.38
641.46	0.38
641.791	0.37
642.121	0.37
642.451	0.37
642.782	0.36
643.112	0.36
643.442	0.36
643.773	0.36
644.103	0.36
644.433	0.36
644.763	0.35
645.093	0.35
645.423	0.35
645.753	0.35
646.082	0.35
646.412	0.35
646.742	0.34
647.072	0.34
647.401	0.34
647.731	0.34
648.06	0.33
648.39	0.33
648.719	0.33
649.048	0.33
649.378	0.33
649.707	0.33
650.036	0.33
650.365	0.33
650.694	0.32
651.023	0.33
651.352	0.32
651.681	0.32
652.01	0.32
652.339	0.32
652.668	0.32
652.996	0.32
653.325	0.32
653.654	0.32
653.982	0.31
654.311	0.32
654.639	0.31
654.967	0.31
655.296	0.31
655.624	0.31
655.952	0.31
656.28	0.31
656.609	0.31
656.937	0.31
657.265	0.3
657.593	0.18
657.92	0.08
658.248	0.04
658.576	0.07
658.904	0.16
659.231	0.24
659.559	0.29
659.887	0.29
660.214	0.29
660.542	0.29
660.869	0.29
661.196	0.28
661.524	0.28
661.851	0.28
662.178	0.28
662.505	0.28
662.832	0.28
663.159	0.28
663.486	0.28
663.813	0.28
664.14	0.28
664.467	0.28
664.794	0.28
665.12	0.27
665.447	0.27
665.774	0.27
666.1	0.27
666.427	0.27
666.753	0.27
667.079	0.27
667.406	0.26
667.732	0.27
668.058	0.26
668.384	0.26
668.71	0.26
669.036	0.26
669.362	0.26
669.688	0.26
670.014	0.25
670.34	0.25
670.666	0.25
670.991	0.25
671.317	0.25
671.643	0.25
671.968	0.25
672.294	0.25
672.619	0.24
672.945	0.24
673.27	0.24
673.595	0.23
673.92	0.23
674.246	0.23
674.571	0.23
674.896	0.23
675.221	0.23
675.546	0.22
675.87	0.23
676.195	0.22
676.52	0.22
676.845	0.22
677.169	0.22
677.494	0.21
677.819	0.21
678.143	0.21
678.468	0.21
678.792	0.21
679.116	0.2
679.44	0.2
679.765	0.2
680.089	0.2
680.413	0.2
680.737	0.2
681.061	0.19
681.385	0.19
681.709	0.19
682.033	0.18
682.356	0.18
682.68	0.18
683.004	0.19
683.327	0.18
683.651	0.17
683.974	0.17
684.298	0.17
684.621	0.17
684.944	0.17
685.268	0.17
685.591	0.16
685.914	0.16
686.237	0.16
686.56	0.16
686.883	0.15
687.206	0.15
687.529	0.15
687.852	0.15
688.175	0.15
688.497	0.15
688.82	0.15
689.142	0.15
689.465	0.14
689.787	0.14
690.11	0.14
690.432	0.13
690.755	0.13
691.077	0.13
691.399	0.13
691.721	0.13
692.043	0.13
692.365	0.13
692.687	0.13
693.009	0.13
693.331	0.12
693.653	0.12
693.974	0.12
694.296	0.12
694.618	0.12
694.939	0.12
695.261	0.12
695.582	0.11
695.904	0.12
696.225	0.11
696.546	0.11
696.868	0.11
697.189	0.11
697.51	0.11
697.831	0.11
698.152	0.11
698.473	0.1
698.794	0.1
699.114	0.1
699.435	0.09
699.756	0.09
700.077	0.1
700.397	0.1
700.718	0.1
701.038	0.1
701.359	0.1
701.679	0.1
701.999	0.1
702.32	0.1
702.64	0.09
702.96	0.09
703.28	0.09
703.6	0.09
703.92	0.09
704.24	0.09
704.56	0.08
704.879	0.09
705.199	0.09
705.519	0.09
705.838	0.09
706.158	0.09
706.478	0.09
706.797	0.09
707.116	0.09
707.436	0.09
707.755	0.09
708.074	0.09
708.393	0.09
708.712	0.08
709.031	0.07
709.35	0.07
709.669	0.07
709.988	0.07
710.307	0.07
710.626	0.08
710.944	0.08
711.263	0.08
711.582	0.08
711.9	0.08
712.219	0.08
712.537	0.08
712.855	0.08
713.174	0.08
713.492	0.08
713.81	0.09
714.128	0.08
714.446	0.08
714.764	0.08
715.082	0.07
715.4	0.08
715.718	0.08
716.035	0.08
716.353	0.08
716.671	0.08
716.988	0.08
717.306	0.08
717.623	0.08
717.941	0.09
718.258	0.09
718.575	0.09
718.893	0.09
719.21	0.09
719.527	0.09
719.844	0.08
720.161	0.08
720.478	0.09
720.795	0.09
721.112	0.09
721.428	0.09
721.745	0.09
722.062	0.09
722.378	0.09
722.695	0.09
723.011	0.09
723.328	0.09
723.644	0.09
723.96	0.09
724.276	0.09
724.593	0.09
724.909	0.09
725.225	0.09
725.541	0.09
725.857	0.09
726.173	0.09
726.488	0.09
726.804	0.09
727.12	0.09
727.435	0.09
727.751	0.09
728.067	0.09
728.382	0.09
728.697	0.09
729.013	0.09
729.328	0.09
729.643	0.09
729.958	0.09
730.273	0.09
730.588	0.09
730.903	0.09
731.218	0.09
731.533	0.09
731.848	0.09
732.163	0.09
732.477	0.09
732.792	0.09
733.107	0.08
733.421	0.08
733.736	0.08
734.05	0.09
734.364	0.08
734.678	0.09
734.993	0.08
735.307	0.09
735.621	0.08
735.935	0.08
736.249	0.08
736.563	0.08
736.877	0.08
737.19	0.08
737.504	0.08
737.818	0.08
738.131	0.08
738.445	0.09
738.758	0.08
739.072	0.08
739.385	0.08
739.698	0.08
740.012	0.08
740.325	0.08
740.638	0.08
740.951	0.08
741.264	0.08
741.577	0.08
741.89	0.08
742.203	0.08
742.515	0.08
742.828	0.08
743.141	0.08
743.453	0.08
743.766	0.08
744.078	0.08
744.391	0.07
744.703	0.07
745.015	0.07
745.327	0.07
745.639	0.07
745.952	0.07
746.264	0.07
746.575	0.07
746.887	0.07
747.199	0.07
747.511	0.07
747.823	0.07
748.134	0.07
748.446	0.07
748.757	0.07
749.069	0.06
749.38	0.06
749.692	0.06
750.003	0.06
750.314	0.06
750.625	0.06
750.936	0.06
751.248	0.06
751.559	0.07
751.869	0.06
752.18	0.06
752.491	0.06
752.802	0.06
753.112	0.06
753.423	0.06
753.734	0.06
754.044	0.06
754.355	0.06
754.665	0.06
754.975	0.05
755.285	0.05
755.596	0.05
755.906	0.05
756.216	0.05
756.526	0.05
756.836	0.05
757.146	0.05
757.455	0.05
757.765	0.05
758.075	0.05
758.385	0.05
758.694	0.05
759.004	0.04
759.313	0.04
759.622	0.05
759.932	0.05
760.241	0.05
760.55	0.05
760.859	0.05
761.168	0.05
761.477	0.04
761.786	0.04
762.095	0.04
762.404	0.04
762.713	0.04
763.021	0.05
763.33	0.05
763.639	0.05
763.947	0.05
764.256	0.05
764.564	0.05
764.872	0.04
765.181	0.05
765.489	0.04
765.797	0.04
766.105	0.04
766.413	0.04
766.721	0.04
767.029	0.04
767.337	0.05
767.644	0.05
767.952	0.05
768.26	0.05
768.567	0.05
768.875	0.05
769.182	0.04
769.49	0.04
769.797	0.04
770.104	0.04
770.411	0.04
770.718	0.04
771.026	0.04
771.333	0.04
771.639	0.05
771.946	0.05
772.253	0.05
772.56	0.05
772.867	0.04
773.173	0.04
773.48	0.05
773.786	0.04
774.093	0.05
774.399	0.04
774.705	0.04
775.012	0.04
775.318	0.05
775.624	0.04
775.93	0.05
776.236	0.05
776.542	0.05
776.848	0.05
777.154	0.04
777.459	0.04
777.765	0.04
778.071	0.04
778.376	0.04
778.682	0.04
778.987	0.04
779.292	0.04
779.598	0.04
779.903	0.05
780.208	0.05
780.513	0.04
780.818	0.04
781.123	0.04
781.428	0.04
781.733	0.04
782.038	0.04
782.343	0.04
782.647	0.04
782.952	0.04
783.256	0.04
783.561	0.04
783.865	0.05
784.17	0.05
784.474	0.05
784.778	0.05
785.082	0.05
785.386	0.05
785.69	0.05
785.994	0.05
786.298	0.05
786.602	0.05
786.906	0.05
787.209	0.05
787.513	0.06
787.817	0.05
788.12	0.05
788.424	0.05
788.727	0.05
789.03	0.05
789.333	0.05
789.637	0.05
789.94	0.06
790.243	0.06
790.546	0.06
790.849	0.05
791.152	0.05
791.454	0.05
791.757	0.06
792.06	0.06
792.362	0.06
792.665	0.06
792.967	0.06
793.27	0.06
793.572	0.06
793.874	0.06
794.177	0.06
794.479	0.06
794.781	0.05
795.083	0.05
795.385	0.05
795.687	0.05
795.989	0.05
796.29	0.06
796.592	0.06
796.894	0.06
797.195	0.06
797.497	0.06
797.798	0.06
798.1	0.06
798.401	0.06
798.702	0.06
799.003	0.06
799.304	0.06
799.605	0.06
799.906	0.06
800.207	0.06
800.508	0.06
800.809	0.06
801.11	0.05
801.41	0.06
801.711	0.06
802.011	0.06
802.312	0.06
802.612	0.06
802.913	0.06
803.213	0.06
803.513	0.06
803.813	0.06
804.113	0.06
804.413	0.05
804.713	0.06
805.013	0.06
805.313	0.06
805.613	0.06
805.912	0.06
806.212	0.06
806.511	0.06
806.811	0.06
807.11	0.06
807.41	0.06
807.709	0.06
808.008	0.07
808.307	0.07
808.606	0.07
808.905	0.07
809.204	0.07
809.503	0.07
809.802	0.07
810.101	0.07
810.399	0.07
810.698	0.07
810.997	0.07
811.295	0.07
811.593	0.07
811.892	0.07
812.19	0.07
812.488	0.06
812.786	0.06
813.084	0.06
813.383	0.06
813.68	0.06
813.978	0.06
814.276	0.07
814.574	0.07
814.872	0.08
815.169	0.07
815.467	0.08
815.764	0.08
816.062	0.08
816.359	0.08
816.656	0.08
816.954	0.08
817.251	0.08
817.548	0.08
817.845	0.08
818.142	0.07
818.439	0.08
818.735	0.08
819.032	0.08
819.329	0.08
819.626	0.08
819.922	0.08
820.219	0.08
820.515	0.08
820.811	0.08
821.108	0.08
821.404	0.08
821.7	0.08
821.996	0.09
822.292	0.08
822.588	0.08
822.884	0.09
823.18	0.09
823.475	0.08
823.771	0.09
824.067	0.09
824.362	0.08
824.658	0.08
824.953	0.08
825.249	0.08
825.544	0.09
825.839	0.08
826.134	0.09
826.429	0.09
826.724	0.08
827.019	0.08
827.314	0.09
827.609	0.09
827.904	0.09
828.198	0.09
828.493	0.08
828.787	0.09
829.082	0.09
829.376	0.09
829.671	0.09
829.965	0.09
830.259	0.1
830.553	0.1
830.847	0.09
831.141	0.09
831.435	0.1
831.729	0.1
832.023	0.09
832.317	0.1
832.61	0.1
832.904	0.1
833.197	0.1
833.491	0.1
833.784	0.09
834.077	0.09
834.371	0.09
834.664	0.09
834.957	0.1
835.25	0.09
835.543	0.09
835.836	0.09
836.129	0.09
836.421	0.09
836.714	0.09
837.007	0.09
837.299	0.1
837.592	0.09
837.884	0.09
838.177	0.1
838.469	0.09
838.761	0.09
839.053	0.09
839.345	0.1
839.637	0.09
839.929	0.1
840.221	0.1
840.513	0.1
840.805	0.1
841.096	0.09
841.388	0.09
841.68	0.1
841.971	0.1
842.262	0.1
842.554	0.1
842.845	0.1
843.136	0.1
843.427	0.11
843.718	0.1
844.009	0.1
844.3	0.11
844.591	0.11
844.882	0.1
845.173	0.11
845.463	0.11
845.754	0.1
846.044	0.11
846.335	0.11
846.625	0.12
846.915	0.12
847.206	0.11
847.496	0.12
847.786	0.11
848.076	0.11
848.366	0.12
848.656	0.11
848.945	0.11
849.235	0.11
849.525	0.1
849.814	0.11
850.104	0.11
850.393	0.12
850.683	0.11
850.972	0.12
851.261	0.12
851.551	0.12
851.84	0.12
852.129	0.11
852.418	0.11
852.707	0.12
852.995	0.11
853.284	0.12
853.573	0.12
853.862	0.11
854.15	0.1
854.439	0.11
854.727	0.12
855.015	0.12
855.304	0.11
855.592	0.13
855.88	0.12
856.168	0.12
856.456	0.12
856.744	0.12
857.032	0.13
857.32	0.12
857.607	0.13
857.895	0.14
858.183	0.13
858.47	0.12
858.757	0.13
859.045	0.13
859.332	0.12
859.619	0.12
859.907	0.14
860.194	0.13
860.481	0.11
860.768	0.13
861.054	0.14
861.341	0.12
861.628	0.14
861.915	0.14
862.201	0.13
862.488	0.14
862.774	0.13
863.061	0.13
863.347	0.11
863.633	0.13
863.919	0.13
864.205	0.12
864.491	0.11
864.777	0.1
865.063	0.14
865.349	0.12
865.635	0.13
865.92	0.12
866.206	0.13
866.492	0.15
866.777	0.15
867.062	0.15
867.348	0.13
867.633	0.15
867.918	0.14
868.203	0.11
868.488	0.11
868.773	0.12
869.058	0.11
869.343	0.14
869.628	0.12
869.912	0.11
870.197	0.12
870.482	0.14
870.766	0.13
871.05	0.12
871.335	0.15
871.619	0.09
871.903	0.18
872.187	0.12
872.471	0.13
872.755	0.1
873.039	0.12
873.323	0.09
873.607	0.1
873.89	0.14
874.174	0.12
874.458	0.12
874.741	0.16
875.024	0.1
875.308	0.08
875.591	0.11
875.874	0.14
876.157	0.14
876.44	0.12
876.723	0.08
877.006	0.11
877.289	0.09
877.572	0.12
877.854	0.13
878.137	0.07
878.42	0.07
878.702	0.18
878.984	0.13
879.267	0.11
879.549	0.15
879.831	0.11
880.113	0.11
880.395	0.08
880.677	0.09
880.959	0.14
