Data from Rubpy_BV_1500_EDTA_Buffered_Absorbance_14-31-05-734.txt Node
Date: Wed Jul 01 14:31:05 BST 2026
User: fpm-admin
Spectrometer: OFX00224
Trigger mode: 0
Integration Time (sec): 7.000000E-2
Scans to average: 3
Nonlinearity correction enabled: false
Boxcar width: 0
Storing dark spectrum: false
XAxis mode: Wavelengths
Number of Pixels in Spectrum: 2136
>>>>>Begin Spectral Data<<<<<
154.91	-0
155.289	0.29
155.669	-0
156.048	-0
156.428	-0
156.807	0.27
157.186	-0.51
157.566	0.64
157.945	0.27
158.325	-0.32
158.704	-0.4
159.083	-0.25
159.462	1.2
159.842	-0.01
160.221	-0.65
160.6	-1.3
160.979	-0.3
161.359	0.24
161.738	-0
162.117	-0.22
162.496	-0.04
162.875	-0.1
163.254	0.03
163.633	-0
164.012	0.33
164.391	0.27
164.77	0.21
165.149	0.18
165.528	-0
165.907	-0
166.286	-0.4
166.665	0.22
167.044	-0
167.423	-0
167.802	-0
168.181	0.4
168.559	0.12
168.938	-0.29
169.317	0.22
169.696	0.52
170.074	0.6
170.453	0.19
170.832	-0
171.21	-0.14
171.589	0.13
171.968	-0
172.346	0.99
172.725	-0
173.103	-0
173.482	-0.93
173.861	-0
174.239	-0.85
174.617	-0.07
174.996	0.26
175.374	0.11
175.753	-0.32
176.131	-0
176.51	-0
176.888	-0
177.266	-0
177.645	0.06
178.023	1.47
178.401	-0.14
178.779	0.01
179.158	0.22
179.536	-0
179.914	-0
180.292	0.46
180.67	-0
181.048	0.73
181.427	0.09
181.805	0.08
182.183	-0
182.561	0.63
182.939	-0
183.317	-0.19
183.695	-0.19
184.073	0.38
184.451	-0.13
184.829	-0
185.206	0.12
185.584	-0
185.962	-0
186.34	-0
186.718	-0
187.096	-0.74
187.473	-0.28
187.851	-0
188.229	0.16
188.607	0.27
188.984	0.45
189.362	0.28
189.74	0.22
190.117	0.39
190.495	0.24
190.872	0.24
191.25	0.28
191.627	0.13
192.005	0.21
192.382	0.51
192.76	0.34
193.137	0.39
193.515	0.38
193.892	0.21
194.269	0.16
194.647	0.34
195.024	0.53
195.401	0.29
195.779	0.31
196.156	0.32
196.533	0.27
196.91	0.29
197.288	0.42
197.665	0.35
198.042	0.28
198.419	0.41
198.796	0.18
199.173	0.28
199.55	0.21
199.927	0.26
200.304	0.3
200.681	0.25
201.058	0.28
201.435	0.24
201.812	0.4
202.189	0.26
202.566	0.31
202.943	0.16
203.32	0.24
203.697	0.26
204.073	0.32
204.45	0.27
204.827	0.54
205.204	0.22
205.58	0.36
205.957	0.24
206.334	0.4
206.71	0.26
207.087	0.62
207.464	0.23
207.84	0.38
208.217	0.25
208.593	0.37
208.97	0.35
209.346	0.32
209.723	0.27
210.099	0.3
210.476	0.27
210.852	0.35
211.228	0.39
211.605	0.47
211.981	0.28
212.357	0.35
212.733	0.21
213.11	0.3
213.486	0.29
213.862	0.22
214.238	0.28
214.614	0.23
214.991	0.28
215.367	0.21
215.743	0.18
216.119	0.37
216.495	0.31
216.871	0.38
217.247	0.28
217.623	0.31
217.999	0.29
218.375	0.24
218.751	0.29
219.127	0.44
219.502	0.26
219.878	0.42
220.254	0.3
220.63	0.43
221.006	0.24
221.381	0.39
221.757	0.4
222.133	0.23
222.508	0.34
222.884	0.45
223.26	0.25
223.635	0.37
224.011	0.53
224.386	0.48
224.762	0.32
225.137	0.38
225.513	0.42
225.888	0.63
226.264	0.43
226.639	0.27
227.014	0.46
227.39	0.33
227.765	0.4
228.14	0.22
228.516	0.25
228.891	0.4
229.266	0.33
229.641	0.42
230.017	0.39
230.392	0.34
230.767	0.29
231.142	0.26
231.517	0.22
231.892	0.48
232.267	0.39
232.642	0.5
233.017	0.26
233.392	0.3
233.767	0.31
234.142	0.36
234.517	0.33
234.892	0.38
235.267	0.36
235.641	0.28
236.016	0.48
236.391	0.3
236.766	0.33
237.14	0.32
237.515	0.34
237.89	0.33
238.264	0.34
238.639	0.29
239.014	0.19
239.388	0.22
239.763	0.26
240.137	0.35
240.512	0.34
240.886	0.39
241.261	0.25
241.635	0.26
242.009	0.36
242.384	0.32
242.758	0.32
243.132	0.25
243.507	0.24
243.881	0.26
244.255	0.35
244.629	0.33
245.004	0.27
245.378	0.41
245.752	0.33
246.126	0.48
246.5	0.36
246.874	0.34
247.248	0.4
247.622	0.21
247.996	0.26
248.37	0.31
248.744	0.25
249.118	0.39
249.492	0.36
249.866	0.26
250.24	0.33
250.613	0.31
250.987	0.32
251.361	0.27
251.735	0.42
252.108	0.32
252.482	0.39
252.856	0.32
253.229	0.29
253.603	0.43
253.977	0.34
254.35	0.37
254.724	0.24
255.097	0.25
255.471	0.36
255.844	0.31
256.218	0.38
256.591	0.51
256.964	0.29
257.338	0.38
257.711	0.33
258.084	0.31
258.458	0.37
258.831	0.5
259.204	0.47
259.577	0.31
259.95	0.28
260.323	0.32
260.697	0.38
261.07	0.36
261.443	0.35
261.816	0.33
262.189	0.39
262.562	0.32
262.935	0.37
263.308	0.35
263.68	0.25
264.053	0.45
264.426	0.42
264.799	0.34
265.172	0.38
265.545	0.51
265.917	0.36
266.29	0.29
266.663	0.31
267.035	0.29
267.408	0.25
267.781	0.38
268.153	0.33
268.526	0.4
268.898	0.43
269.271	0.52
269.643	0.3
270.016	0.44
270.388	0.36
270.76	0.31
271.133	0.29
271.505	0.27
271.877	0.31
272.25	0.48
272.622	0.42
272.994	0.31
273.366	0.29
273.739	0.34
274.111	0.4
274.483	0.44
274.855	0.31
275.227	0.43
275.599	0.35
275.971	0.36
276.343	0.35
276.715	0.29
277.087	0.48
277.459	0.34
277.831	0.39
278.203	0.38
278.574	0.37
278.946	0.21
279.318	0.44
279.69	0.29
280.061	0.31
280.433	0.31
280.805	0.22
281.176	0.38
281.548	0.43
281.92	0.31
282.291	0.4
282.663	0.36
283.034	0.27
283.406	0.28
283.777	0.37
284.148	0.35
284.52	0.4
284.891	0.43
285.262	0.41
285.634	0.29
286.005	0.39
286.376	0.39
286.747	0.39
287.119	0.33
287.49	0.35
287.861	0.33
288.232	0.38
288.603	0.32
288.974	0.35
289.345	0.33
289.716	0.3
290.087	0.36
290.458	0.43
290.829	0.23
291.2	0.34
291.571	0.39
291.941	0.42
292.312	0.38
292.683	0.35
293.054	0.34
293.424	0.33
293.795	0.34
294.166	0.3
294.536	0.35
294.907	0.35
295.277	0.45
295.648	0.32
296.018	0.34
296.389	0.32
296.759	0.4
297.13	0.29
297.5	0.37
297.871	0.38
298.241	0.3
298.611	0.42
298.981	0.38
299.352	0.38
299.722	0.44
300.092	0.38
300.462	0.33
300.832	0.37
301.202	0.41
301.573	0.29
301.943	0.31
302.313	0.37
302.683	0.38
303.053	0.4
303.422	0.42
303.792	0.35
304.162	0.26
304.532	0.31
304.902	0.33
305.272	0.29
305.641	0.28
306.011	0.3
306.381	0.27
306.75	0.29
307.12	0.31
307.49	0.28
307.859	0.28
308.229	0.3
308.598	0.33
308.968	0.29
309.337	0.24
309.707	0.26
310.076	0.27
310.445	0.28
310.815	0.28
311.184	0.24
311.553	0.28
311.923	0.25
312.292	0.27
312.661	0.31
313.03	0.32
313.399	0.29
313.768	0.29
314.137	0.27
314.506	0.28
314.875	0.28
315.244	0.31
315.613	0.31
315.982	0.34
316.351	0.3
316.72	0.3
317.089	0.34
317.458	0.33
317.826	0.33
318.195	0.33
318.564	0.34
318.933	0.36
319.301	0.35
319.67	0.36
320.038	0.36
320.407	0.37
320.775	0.37
321.144	0.37
321.512	0.38
321.881	0.39
322.249	0.39
322.618	0.4
322.986	0.41
323.354	0.41
323.723	0.42
324.091	0.42
324.459	0.43
324.827	0.43
325.195	0.44
325.564	0.45
325.932	0.45
326.3	0.46
326.668	0.46
327.036	0.47
327.404	0.49
327.772	0.47
328.14	0.48
328.508	0.51
328.875	0.5
329.243	0.53
329.611	0.51
329.979	0.53
330.346	0.54
330.714	0.55
331.082	0.56
331.449	0.55
331.817	0.57
332.185	0.57
332.552	0.6
332.92	0.61
333.287	0.62
333.655	0.63
334.022	0.64
334.389	0.66
334.757	0.67
335.124	0.68
335.491	0.69
335.859	0.69
336.226	0.71
336.593	0.73
336.96	0.74
337.327	0.76
337.695	0.77
338.062	0.78
338.429	0.8
338.796	0.81
339.163	0.82
339.53	0.84
339.897	0.85
340.263	0.86
340.63	0.9
340.997	0.9
341.364	0.91
341.731	0.92
342.097	0.94
342.464	0.96
342.831	0.99
343.197	0.98
343.564	1.01
343.931	1.02
344.297	1.02
344.664	1.06
345.03	1.06
345.396	1.08
345.763	1.1
346.129	1.11
346.496	1.12
346.862	1.14
347.228	1.16
347.594	1.17
347.961	1.18
348.327	1.21
348.693	1.22
349.059	1.25
349.425	1.23
349.791	1.27
350.157	1.27
350.523	1.28
350.889	1.3
351.255	1.32
351.621	1.32
351.987	1.33
352.353	1.35
352.719	1.37
353.084	1.41
353.45	1.39
353.816	1.42
354.181	1.42
354.547	1.47
354.913	1.46
355.278	1.48
355.644	1.48
356.009	1.52
356.375	1.54
356.74	1.57
357.106	1.57
357.471	1.54
357.836	1.6
358.202	1.6
358.567	1.62
358.932	1.67
359.297	1.68
359.663	1.7
360.028	1.71
360.393	1.7
360.758	1.73
361.123	1.76
361.488	1.78
361.853	1.76
362.218	1.81
362.583	1.81
362.948	1.76
363.312	1.79
363.677	1.87
364.042	1.85
364.407	1.92
364.772	1.87
365.136	1.92
365.501	1.95
365.865	1.97
366.23	1.93
366.595	1.93
366.959	1.98
367.324	1.94
367.688	1.96
368.052	1.98
368.417	2.02
368.781	1.97
369.145	2.01
369.51	2.02
369.874	1.97
370.238	2.1
370.602	2.03
370.967	2.01
371.331	1.98
371.695	2
372.059	2.09
372.423	2.06
372.787	2.05
373.151	2.04
373.515	2.02
373.878	2.06
374.242	1.99
374.606	2
374.97	2.04
375.334	1.95
375.697	2
376.061	1.97
376.425	1.95
376.788	1.99
377.152	1.98
377.515	1.89
377.879	1.89
378.242	1.94
378.606	1.93
378.969	1.86
379.333	1.93
379.696	1.87
380.059	1.83
380.422	1.83
380.786	1.81
381.149	1.81
381.512	1.76
381.875	1.74
382.238	1.73
382.601	1.73
382.964	1.69
383.327	1.66
383.69	1.64
384.053	1.67
384.416	1.62
384.779	1.61
385.142	1.58
385.504	1.55
385.867	1.57
386.23	1.57
386.593	1.54
386.955	1.52
387.318	1.52
387.68	1.51
388.043	1.5
388.405	1.49
388.768	1.5
389.13	1.47
389.493	1.46
389.855	1.45
390.217	1.43
390.58	1.41
390.942	1.4
391.304	1.4
391.666	1.38
392.028	1.35
392.391	1.33
392.753	1.31
393.115	1.3
393.477	1.27
393.839	1.27
394.201	1.24
394.563	1.23
394.924	1.24
395.286	1.24
395.648	1.24
396.01	1.23
396.371	1.25
396.733	1.26
397.095	1.26
397.456	1.3
397.818	1.31
398.18	1.33
398.541	1.34
398.903	1.37
399.264	1.41
399.625	1.43
399.987	1.47
400.348	1.48
400.709	1.49
401.071	1.51
401.432	1.5
401.793	1.5
402.154	1.49
402.515	1.48
402.876	1.45
403.238	1.43
403.599	1.39
403.96	1.37
404.32	1.32
404.681	1.28
405.042	1.23
405.403	1.18
405.764	1.13
406.125	1.07
406.485	1.02
406.846	0.97
407.207	0.93
407.567	0.88
407.928	0.83
408.288	0.8
408.649	0.74
409.009	0.72
409.37	0.67
409.73	0.64
410.091	0.61
410.451	0.57
410.811	0.54
411.171	0.52
411.532	0.49
411.892	0.48
412.252	0.45
412.612	0.44
412.972	0.41
413.332	0.4
413.692	0.38
414.052	0.37
414.412	0.35
414.772	0.34
415.132	0.33
415.492	0.32
415.851	0.31
416.211	0.31
416.571	0.29
416.931	0.28
417.29	0.27
417.65	0.27
418.009	0.27
418.369	0.26
418.728	0.25
419.088	0.25
419.447	0.24
419.807	0.23
420.166	0.23
420.525	0.22
420.884	0.21
421.244	0.22
421.603	0.21
421.962	0.21
422.321	0.21
422.68	0.2
423.039	0.2
423.398	0.2
423.757	0.19
424.116	0.2
424.475	0.2
424.834	0.19
425.193	0.18
425.551	0.19
425.91	0.18
426.269	0.18
426.628	0.18
426.986	0.18
427.345	0.17
427.703	0.18
428.062	0.18
428.42	0.17
428.779	0.17
429.137	0.17
429.496	0.17
429.854	0.17
430.212	0.17
430.57	0.16
430.929	0.16
431.287	0.16
431.645	0.15
432.003	0.17
432.361	0.16
432.719	0.17
433.077	0.17
433.435	0.16
433.793	0.16
434.151	0.16
434.509	0.16
434.866	0.17
435.224	0.17
435.582	0.16
435.94	0.17
436.297	0.16
436.655	0.15
437.012	0.16
437.37	0.17
437.727	0.17
438.085	0.16
438.442	0.16
438.8	0.16
439.157	0.17
439.514	0.18
439.872	0.16
440.229	0.16
440.586	0.16
440.943	0.18
441.3	0.17
441.657	0.17
442.014	0.16
442.371	0.17
442.728	0.17
443.085	0.18
443.442	0.17
443.799	0.17
444.156	0.17
444.513	0.17
444.869	0.17
445.226	0.17
445.583	0.18
445.939	0.17
446.296	0.18
446.652	0.18
447.009	0.17
447.365	0.18
447.722	0.18
448.078	0.19
448.434	0.18
448.791	0.19
449.147	0.19
449.503	0.19
449.859	0.19
450.215	0.19
450.571	0.19
450.928	0.2
451.284	0.19
451.64	0.2
451.995	0.19
452.351	0.21
452.707	0.21
453.063	0.2
453.419	0.2
453.775	0.21
454.13	0.21
454.486	0.22
454.842	0.21
455.197	0.2
455.553	0.22
455.908	0.22
456.264	0.22
456.619	0.22
456.975	0.21
457.33	0.22
457.685	0.22
458.04	0.23
458.396	0.22
458.751	0.22
459.106	0.23
459.461	0.23
459.816	0.24
460.171	0.24
460.526	0.24
460.881	0.25
461.236	0.24
461.591	0.24
461.946	0.24
462.301	0.25
462.655	0.25
463.01	0.26
463.365	0.26
463.719	0.25
464.074	0.24
464.428	0.25
464.783	0.26
465.137	0.27
465.492	0.26
465.846	0.26
466.201	0.26
466.555	0.27
466.909	0.27
467.263	0.27
467.618	0.28
467.972	0.29
468.326	0.29
468.68	0.29
469.034	0.29
469.388	0.29
469.742	0.29
470.096	0.29
470.45	0.31
470.804	0.3
471.157	0.31
471.511	0.32
471.865	0.32
472.218	0.33
472.572	0.32
472.926	0.33
473.279	0.33
473.633	0.33
473.986	0.35
474.34	0.35
474.693	0.35
475.046	0.35
475.4	0.36
475.753	0.36
476.106	0.37
476.459	0.38
476.812	0.38
477.165	0.39
477.519	0.38
477.872	0.39
478.224	0.4
478.577	0.4
478.93	0.4
479.283	0.41
479.636	0.42
479.989	0.42
480.341	0.42
480.694	0.42
481.047	0.43
481.399	0.43
481.752	0.44
482.104	0.44
482.457	0.45
482.809	0.45
483.162	0.46
483.514	0.46
483.866	0.47
484.219	0.47
484.571	0.48
484.923	0.48
485.275	0.49
485.627	0.49
485.979	0.49
486.331	0.5
486.683	0.51
487.035	0.51
487.387	0.51
487.739	0.52
488.091	0.53
488.443	0.53
488.794	0.53
489.146	0.53
489.498	0.54
489.849	0.54
490.201	0.55
490.552	0.55
490.904	0.56
491.255	0.56
491.607	0.56
491.958	0.57
492.309	0.58
492.661	0.58
493.012	0.57
493.363	0.59
493.714	0.59
494.065	0.6
494.416	0.6
494.767	0.61
495.118	0.61
495.469	0.62
495.82	0.62
496.171	0.62
496.522	0.63
496.872	0.63
497.223	0.63
497.574	0.64
497.924	0.65
498.275	0.65
498.626	0.65
498.976	0.66
499.327	0.66
499.677	0.67
500.027	0.67
500.378	0.68
500.728	0.68
501.078	0.69
501.428	0.69
501.779	0.7
502.129	0.71
502.479	0.7
502.829	0.71
503.179	0.71
503.529	0.71
503.879	0.72
504.229	0.73
504.578	0.73
504.928	0.74
505.278	0.74
505.628	0.74
505.977	0.75
506.327	0.75
506.676	0.76
507.026	0.76
507.375	0.76
507.725	0.77
508.074	0.78
508.424	0.79
508.773	0.78
509.122	0.79
509.471	0.79
509.82	0.79
510.17	0.79
510.519	0.8
510.868	0.81
511.217	0.8
511.566	0.82
511.915	0.82
512.263	0.82
512.612	0.83
512.961	0.83
513.31	0.84
513.659	0.84
514.007	0.85
514.356	0.84
514.704	0.85
515.053	0.86
515.401	0.86
515.75	0.88
516.098	0.86
516.447	0.88
516.795	0.87
517.143	0.87
517.491	0.88
517.839	0.88
518.188	0.88
518.536	0.9
518.884	0.9
519.232	0.9
519.58	0.9
519.928	0.9
520.275	0.91
520.623	0.91
520.971	0.92
521.319	0.91
521.666	0.92
522.014	0.92
522.362	0.92
522.709	0.93
523.057	0.93
523.404	0.93
523.752	0.93
524.099	0.94
524.446	0.95
524.794	0.96
525.141	0.95
525.488	0.96
525.835	0.95
526.182	0.95
526.529	0.96
526.876	0.96
527.223	0.96
527.57	0.97
527.917	0.96
528.264	0.98
528.611	0.96
528.958	0.97
529.304	0.97
529.651	0.98
529.998	0.98
530.344	0.98
530.691	0.98
531.037	0.98
531.384	0.99
531.73	0.99
532.076	0.99
532.423	0.99
532.769	1
533.115	1
533.461	1.01
533.807	1
534.154	1
534.5	1.01
534.846	1
535.192	1.01
535.537	1.02
535.883	1.01
536.229	1.02
536.575	1.01
536.921	1.02
537.266	1.03
537.612	1.02
537.957	1.03
538.303	1.02
538.649	1.03
538.994	1.03
539.339	1.03
539.685	1.04
540.03	1.03
540.375	1.04
540.721	1.03
541.066	1.04
541.411	1.03
541.756	1.04
542.101	1.04
542.446	1.04
542.791	1.04
543.136	1.04
543.481	1.05
543.825	1.05
544.17	1.04
544.515	1.05
544.86	1.05
545.204	1.05
545.549	1.04
545.893	1.05
546.238	1.05
546.582	1.05
546.927	1.05
547.271	1.05
547.615	1.05
547.96	1.05
548.304	1.06
548.648	1.06
548.992	1.06
549.336	1.06
549.68	1.06
550.024	1.07
550.368	1.05
550.712	1.06
551.056	1.05
551.4	1.06
551.743	1.05
552.087	1.06
552.431	1.05
552.774	1.05
553.118	1.05
553.462	1.05
553.805	1.05
554.148	1.06
554.492	1.05
554.835	1.04
555.178	1.05
555.522	1.05
555.865	1.05
556.208	1.04
556.551	1.05
556.894	1.05
557.237	1.05
557.58	1.05
557.923	1.04
558.266	1.05
558.609	1.04
558.952	1.04
559.294	1.04
559.637	1.04
559.98	1.04
560.322	1.04
560.665	1.03
561.007	1.03
561.35	1.03
561.692	1.04
562.034	1.03
562.377	1.03
562.719	1.03
563.061	1.03
563.403	1.02
563.745	1.03
564.088	1.03
564.43	1.03
564.772	1.03
565.113	1.02
565.455	1.02
565.797	1
566.139	1.01
566.481	1.01
566.822	1.01
567.164	1.01
567.506	1.01
567.847	1.01
568.189	1
568.53	1.01
568.872	1.01
569.213	1
569.554	1
569.895	0.99
570.237	0.99
570.578	0.99
570.919	0.99
571.26	0.98
571.601	0.98
571.942	0.99
572.283	0.99
572.624	0.98
572.965	0.97
573.306	0.97
573.646	0.96
573.987	0.97
574.328	0.96
574.668	0.97
575.009	0.96
575.349	0.95
575.69	0.95
576.03	0.96
576.37	0.95
576.711	0.94
577.051	0.95
577.391	0.94
577.731	0.95
578.072	0.94
578.412	0.95
578.752	0.94
579.092	0.93
579.431	0.92
579.771	0.91
580.111	0.9
580.451	0.9
580.791	0.92
581.13	0.92
581.47	0.92
581.81	0.92
582.149	0.92
582.489	0.92
582.828	0.91
583.167	0.88
583.507	0.84
583.846	0.82
584.185	0.86
584.525	0.87
584.864	0.89
585.203	0.9
585.542	0.9
585.881	0.9
586.22	0.9
586.559	0.89
586.898	0.88
587.236	0.88
587.575	0.87
587.914	0.87
588.252	0.89
588.591	0.89
588.93	0.89
589.268	0.88
589.607	0.88
589.945	0.88
590.283	0.89
590.622	0.89
590.96	0.89
591.298	0.89
591.636	0.88
591.974	0.89
592.313	0.89
592.651	0.89
592.989	0.88
593.326	0.88
593.664	0.88
594.002	0.88
594.34	0.88
594.678	0.87
595.015	0.87
595.353	0.86
595.691	0.87
596.028	0.87
596.366	0.87
596.703	0.87
597.04	0.87
597.378	0.88
597.715	0.88
598.052	0.88
598.389	0.88
598.726	0.88
599.064	0.87
599.401	0.87
599.738	0.87
600.074	0.87
600.411	0.86
600.748	0.86
601.085	0.86
601.422	0.85
601.758	0.85
602.095	0.85
602.432	0.85
602.768	0.85
603.105	0.85
603.441	0.85
603.777	0.85
604.114	0.85
604.45	0.85
604.786	0.85
605.122	0.84
605.459	0.84
605.795	0.84
606.131	0.84
606.467	0.84
606.803	0.84
607.139	0.83
607.474	0.83
607.81	0.82
608.146	0.82
608.482	0.82
608.817	0.82
609.153	0.82
609.488	0.82
609.824	0.81
610.159	0.81
610.495	0.81
610.83	0.81
611.165	0.8
611.5	0.81
611.836	0.8
612.171	0.8
612.506	0.8
612.841	0.8
613.176	0.79
613.511	0.79
613.845	0.79
614.18	0.79
614.515	0.78
614.85	0.78
615.184	0.77
615.519	0.77
615.854	0.77
616.188	0.77
616.523	0.77
616.857	0.76
617.191	0.76
617.526	0.76
617.86	0.75
618.194	0.75
618.528	0.75
618.862	0.75
619.196	0.74
619.53	0.74
619.864	0.74
620.198	0.74
620.532	0.73
620.866	0.73
621.2	0.73
621.533	0.72
621.867	0.73
622.201	0.72
622.534	0.72
622.868	0.72
623.201	0.72
623.534	0.71
623.868	0.71
624.201	0.7
624.534	0.7
624.868	0.7
625.201	0.69
625.534	0.7
625.867	0.69
626.2	0.68
626.533	0.68
626.865	0.68
627.198	0.68
627.531	0.67
627.864	0.67
628.196	0.67
628.529	0.66
628.862	0.66
629.194	0.65
629.527	0.65
629.859	0.65
630.191	0.64
630.524	0.64
630.856	0.64
631.188	0.63
631.52	0.63
631.852	0.63
632.184	0.62
632.516	0.62
632.848	0.61
633.18	0.62
633.512	0.61
633.844	0.61
634.175	0.6
634.507	0.6
634.839	0.6
635.17	0.59
635.502	0.59
635.833	0.59
636.165	0.58
636.496	0.57
636.827	0.57
637.159	0.57
637.49	0.57
637.821	0.56
638.152	0.55
638.483	0.55
638.814	0.55
639.145	0.55
639.476	0.54
639.807	0.54
640.137	0.54
640.468	0.53
640.799	0.53
641.129	0.53
641.46	0.52
641.791	0.52
642.121	0.52
642.451	0.51
642.782	0.51
643.112	0.51
643.442	0.5
643.773	0.5
644.103	0.49
644.433	0.5
644.763	0.49
645.093	0.49
645.423	0.49
645.753	0.49
646.082	0.48
646.412	0.48
646.742	0.47
647.072	0.47
647.401	0.47
647.731	0.47
648.06	0.46
648.39	0.46
648.719	0.46
649.048	0.46
649.378	0.46
649.707	0.45
650.036	0.45
650.365	0.45
650.694	0.45
651.023	0.45
651.352	0.44
651.681	0.44
652.01	0.44
652.339	0.44
652.668	0.44
652.996	0.44
653.325	0.44
653.654	0.44
653.982	0.43
654.311	0.43
654.639	0.43
654.967	0.43
655.296	0.43
655.624	0.43
655.952	0.42
656.28	0.42
656.609	0.42
656.937	0.42
657.265	0.41
657.593	0.3
657.92	0.19
658.248	0.15
658.576	0.17
658.904	0.27
659.231	0.35
659.559	0.4
659.887	0.4
660.214	0.4
660.542	0.4
660.869	0.4
661.196	0.4
661.524	0.39
661.851	0.39
662.178	0.39
662.505	0.39
662.832	0.39
663.159	0.39
663.486	0.38
663.813	0.38
664.14	0.38
664.467	0.38
664.794	0.38
665.12	0.38
665.447	0.38
665.774	0.38
666.1	0.37
666.427	0.37
666.753	0.37
667.079	0.37
667.406	0.37
667.732	0.36
668.058	0.36
668.384	0.36
668.71	0.36
669.036	0.35
669.362	0.36
669.688	0.35
670.014	0.35
670.34	0.35
670.666	0.34
670.991	0.34
671.317	0.34
671.643	0.34
671.968	0.34
672.294	0.34
672.619	0.33
672.945	0.33
673.27	0.32
673.595	0.32
673.92	0.32
674.246	0.31
674.571	0.32
674.896	0.31
675.221	0.31
675.546	0.31
675.87	0.31
676.195	0.31
676.52	0.31
676.845	0.3
677.169	0.3
677.494	0.3
677.819	0.3
678.143	0.29
678.468	0.29
678.792	0.29
679.116	0.28
679.44	0.28
679.765	0.28
680.089	0.27
680.413	0.27
680.737	0.27
681.061	0.26
681.385	0.26
681.709	0.26
682.033	0.25
682.356	0.25
682.68	0.25
683.004	0.26
683.327	0.25
683.651	0.24
683.974	0.24
684.298	0.24
684.621	0.24
684.944	0.23
685.268	0.23
685.591	0.23
685.914	0.23
686.237	0.23
686.56	0.22
686.883	0.21
687.206	0.21
687.529	0.21
687.852	0.21
688.175	0.21
688.497	0.21
688.82	0.2
689.142	0.2
689.465	0.2
689.787	0.2
690.11	0.19
690.432	0.19
690.755	0.19
691.077	0.19
691.399	0.18
691.721	0.18
692.043	0.19
692.365	0.18
692.687	0.18
693.009	0.18
693.331	0.17
693.653	0.17
693.974	0.17
694.296	0.17
694.618	0.16
694.939	0.16
695.261	0.16
695.582	0.16
695.904	0.16
696.225	0.16
696.546	0.16
696.868	0.15
697.189	0.15
697.51	0.15
697.831	0.15
698.152	0.15
698.473	0.15
698.794	0.14
699.114	0.14
699.435	0.12
699.756	0.13
700.077	0.14
700.397	0.14
700.718	0.14
701.038	0.14
701.359	0.14
701.679	0.14
701.999	0.14
702.32	0.13
702.64	0.13
702.96	0.13
703.28	0.13
703.6	0.13
703.92	0.13
704.24	0.13
704.56	0.12
704.879	0.12
705.199	0.12
705.519	0.12
705.838	0.13
706.158	0.13
706.478	0.13
706.797	0.13
707.116	0.13
707.436	0.13
707.755	0.13
708.074	0.12
708.393	0.12
708.712	0.12
709.031	0.1
709.35	0.1
709.669	0.1
709.988	0.1
710.307	0.11
710.626	0.11
710.944	0.11
711.263	0.12
711.582	0.12
711.9	0.12
712.219	0.11
712.537	0.12
712.855	0.12
713.174	0.12
713.492	0.12
713.81	0.12
714.128	0.12
714.446	0.12
714.764	0.11
715.082	0.11
715.4	0.12
715.718	0.11
716.035	0.11
716.353	0.11
716.671	0.11
716.988	0.12
717.306	0.11
717.623	0.12
717.941	0.12
718.258	0.12
718.575	0.12
718.893	0.13
719.21	0.12
719.527	0.12
719.844	0.12
720.161	0.12
720.478	0.12
720.795	0.12
721.112	0.12
721.428	0.12
721.745	0.12
722.062	0.12
722.378	0.12
722.695	0.12
723.011	0.12
723.328	0.12
723.644	0.12
723.96	0.12
724.276	0.13
724.593	0.12
724.909	0.13
725.225	0.13
725.541	0.13
725.857	0.13
726.173	0.13
726.488	0.13
726.804	0.12
727.12	0.12
727.435	0.12
727.751	0.13
728.067	0.13
728.382	0.13
728.697	0.12
729.013	0.13
729.328	0.12
729.643	0.13
729.958	0.12
730.273	0.12
730.588	0.12
730.903	0.12
731.218	0.12
731.533	0.13
731.848	0.12
732.163	0.12
732.477	0.12
732.792	0.12
733.107	0.11
733.421	0.12
733.736	0.12
734.05	0.12
734.364	0.12
734.678	0.12
734.993	0.11
735.307	0.12
735.621	0.12
735.935	0.12
736.249	0.12
736.563	0.12
736.877	0.12
737.19	0.12
737.504	0.11
737.818	0.11
738.131	0.11
738.445	0.12
738.758	0.11
739.072	0.11
739.385	0.11
739.698	0.11
740.012	0.11
740.325	0.11
740.638	0.11
740.951	0.11
741.264	0.11
741.577	0.11
741.89	0.11
742.203	0.11
742.515	0.11
742.828	0.11
743.141	0.11
743.453	0.11
743.766	0.1
744.078	0.1
744.391	0.1
744.703	0.1
745.015	0.1
745.327	0.1
745.639	0.1
745.952	0.1
746.264	0.09
746.575	0.09
746.887	0.09
747.199	0.09
747.511	0.1
747.823	0.09
748.134	0.09
748.446	0.09
748.757	0.09
749.069	0.09
749.38	0.08
749.692	0.09
750.003	0.09
750.314	0.09
750.625	0.09
750.936	0.09
751.248	0.09
751.559	0.09
751.869	0.09
752.18	0.09
752.491	0.08
752.802	0.08
753.112	0.08
753.423	0.08
753.734	0.08
754.044	0.08
754.355	0.08
754.665	0.08
754.975	0.08
755.285	0.08
755.596	0.07
755.906	0.08
756.216	0.08
756.526	0.08
756.836	0.08
757.146	0.07
757.455	0.07
757.765	0.07
758.075	0.07
758.385	0.07
758.694	0.07
759.004	0.07
759.313	0.06
759.622	0.06
759.932	0.07
760.241	0.07
760.55	0.07
760.859	0.07
761.168	0.07
761.477	0.07
761.786	0.07
762.095	0.06
762.404	0.06
762.713	0.06
763.021	0.06
763.33	0.07
763.639	0.07
763.947	0.07
764.256	0.06
764.564	0.07
764.872	0.06
765.181	0.07
765.489	0.06
765.797	0.06
766.105	0.06
766.413	0.06
766.721	0.06
767.029	0.06
767.337	0.07
767.644	0.07
767.952	0.06
768.26	0.06
768.567	0.07
768.875	0.06
769.182	0.06
769.49	0.06
769.797	0.06
770.104	0.06
770.411	0.06
770.718	0.06
771.026	0.06
771.333	0.06
771.639	0.07
771.946	0.07
772.253	0.07
772.56	0.06
772.867	0.07
773.173	0.06
773.48	0.06
773.786	0.06
774.093	0.06
774.399	0.06
774.705	0.06
775.012	0.06
775.318	0.06
775.624	0.06
775.93	0.07
776.236	0.07
776.542	0.07
776.848	0.07
777.154	0.06
777.459	0.06
777.765	0.06
778.071	0.06
778.376	0.06
778.682	0.06
778.987	0.06
779.292	0.07
779.598	0.07
779.903	0.07
780.208	0.07
780.513	0.07
780.818	0.07
781.123	0.06
781.428	0.06
781.733	0.06
782.038	0.06
782.343	0.06
782.647	0.06
782.952	0.06
783.256	0.06
783.561	0.07
783.865	0.07
784.17	0.07
784.474	0.07
784.778	0.07
785.082	0.07
785.386	0.07
785.69	0.07
785.994	0.07
786.298	0.07
786.602	0.07
786.906	0.07
787.209	0.07
787.513	0.08
787.817	0.08
788.12	0.08
788.424	0.08
788.727	0.08
789.03	0.07
789.333	0.07
789.637	0.08
789.94	0.08
790.243	0.08
790.546	0.08
790.849	0.08
791.152	0.08
791.454	0.08
791.757	0.08
792.06	0.08
792.362	0.08
792.665	0.08
792.967	0.08
793.27	0.08
793.572	0.08
793.874	0.08
794.177	0.08
794.479	0.08
794.781	0.08
795.083	0.08
795.385	0.08
795.687	0.08
795.989	0.08
796.29	0.08
796.592	0.08
796.894	0.08
797.195	0.08
797.497	0.09
797.798	0.09
798.1	0.09
798.401	0.09
798.702	0.09
799.003	0.09
799.304	0.08
799.605	0.08
799.906	0.09
800.207	0.09
800.508	0.09
800.809	0.09
801.11	0.08
801.41	0.09
801.711	0.09
802.011	0.09
802.312	0.09
802.612	0.09
802.913	0.09
803.213	0.09
803.513	0.09
803.813	0.09
804.113	0.09
804.413	0.08
804.713	0.08
805.013	0.08
805.313	0.09
805.613	0.09
805.912	0.09
806.212	0.09
806.511	0.09
806.811	0.09
807.11	0.09
807.41	0.1
807.709	0.09
808.008	0.1
808.307	0.1
808.606	0.1
808.905	0.1
809.204	0.1
809.503	0.1
809.802	0.1
810.101	0.1
810.399	0.1
810.698	0.1
810.997	0.1
811.295	0.1
811.593	0.1
811.892	0.1
812.19	0.1
812.488	0.1
812.786	0.1
813.084	0.09
813.383	0.1
813.68	0.1
813.978	0.1
814.276	0.11
814.574	0.11
814.872	0.11
815.169	0.11
815.467	0.1
815.764	0.11
816.062	0.11
816.359	0.11
816.656	0.12
816.954	0.11
817.251	0.11
817.548	0.11
817.845	0.12
818.142	0.12
818.439	0.11
818.735	0.11
819.032	0.11
819.329	0.11
819.626	0.11
819.922	0.12
820.219	0.12
820.515	0.12
820.811	0.12
821.108	0.12
821.404	0.12
821.7	0.12
821.996	0.12
822.292	0.12
822.588	0.12
822.884	0.12
823.18	0.13
823.475	0.12
823.771	0.13
824.067	0.13
824.362	0.12
824.658	0.12
824.953	0.13
825.249	0.12
825.544	0.12
825.839	0.12
826.134	0.13
826.429	0.12
826.724	0.12
827.019	0.13
827.314	0.13
827.609	0.13
827.904	0.13
828.198	0.13
828.493	0.12
828.787	0.13
829.082	0.12
829.376	0.13
829.671	0.13
829.965	0.13
830.259	0.14
830.553	0.14
830.847	0.14
831.141	0.14
831.435	0.14
831.729	0.14
832.023	0.13
832.317	0.14
832.61	0.14
832.904	0.15
833.197	0.14
833.491	0.14
833.784	0.14
834.077	0.14
834.371	0.14
834.664	0.14
834.957	0.14
835.25	0.14
835.543	0.13
835.836	0.13
836.129	0.13
836.421	0.14
836.714	0.14
837.007	0.13
837.299	0.15
837.592	0.14
837.884	0.14
838.177	0.15
838.469	0.14
838.761	0.14
839.053	0.14
839.345	0.14
839.637	0.14
839.929	0.15
840.221	0.16
840.513	0.15
840.805	0.14
841.096	0.15
841.388	0.14
841.68	0.15
841.971	0.15
842.262	0.15
842.554	0.16
842.845	0.14
843.136	0.15
843.427	0.16
843.718	0.15
844.009	0.16
844.3	0.15
844.591	0.16
844.882	0.14
845.173	0.16
845.463	0.16
845.754	0.16
846.044	0.16
846.335	0.16
846.625	0.17
846.915	0.17
847.206	0.17
847.496	0.17
847.786	0.16
848.076	0.16
848.366	0.15
848.656	0.16
848.945	0.16
849.235	0.16
849.525	0.16
849.814	0.15
850.104	0.17
850.393	0.17
850.683	0.16
850.972	0.17
851.261	0.17
851.551	0.17
851.84	0.16
852.129	0.16
852.418	0.17
852.707	0.17
852.995	0.16
853.284	0.17
853.573	0.17
853.862	0.17
854.15	0.17
854.439	0.16
854.727	0.17
855.015	0.17
855.304	0.18
855.592	0.18
855.88	0.17
856.168	0.18
856.456	0.19
856.744	0.18
857.032	0.18
857.32	0.18
857.607	0.19
857.895	0.19
858.183	0.18
858.47	0.17
858.757	0.2
859.045	0.18
859.332	0.2
859.619	0.16
859.907	0.19
860.194	0.2
860.481	0.18
860.768	0.19
861.054	0.19
861.341	0.18
861.628	0.2
861.915	0.2
862.201	0.19
862.488	0.2
862.774	0.19
863.061	0.19
863.347	0.16
863.633	0.2
863.919	0.18
864.205	0.18
864.491	0.18
864.777	0.2
865.063	0.19
865.349	0.21
865.635	0.22
865.92	0.2
866.206	0.19
866.492	0.24
866.777	0.19
867.062	0.16
867.348	0.17
867.633	0.17
867.918	0.17
868.203	0.2
868.488	0.22
868.773	0.18
869.058	0.18
869.343	0.18
869.628	0.2
869.912	0.17
870.197	0.2
870.482	0.17
870.766	0.19
871.05	0.17
871.335	0.23
871.619	0.19
871.903	0.21
872.187	0.17
872.471	0.16
872.755	0.15
873.039	0.19
873.323	0.2
873.607	0.2
873.89	0.24
874.174	0.27
874.458	0.16
874.741	0.24
875.024	0.22
875.308	0.19
875.591	0.16
875.874	0.15
876.157	0.24
876.44	0.19
876.723	0.2
877.006	0.14
877.289	0.19
877.572	0.32
877.854	0.19
878.137	0.12
878.42	0.15
878.702	0.22
878.984	0.17
879.267	0.14
879.549	0.17
879.831	0.22
880.113	0.3
880.395	0.12
880.677	0.25
880.959	0.16
