Data from Rubpy_BV_1500_EDTA_Buffered_Absorbance_14-13-21-612.txt Node
Date: Wed Jul 01 14:13:21 BST 2026
User: fpm-admin
Spectrometer: OFX00224
Trigger mode: 0
Integration Time (sec): 7.000000E-2
Scans to average: 3
Nonlinearity correction enabled: false
Boxcar width: 0
Storing dark spectrum: false
XAxis mode: Wavelengths
Number of Pixels in Spectrum: 2136
>>>>>Begin Spectral Data<<<<<
154.91	-0
155.289	0.62
155.669	-0
156.048	-0.03
156.428	-0
156.807	-0
157.186	0.6
157.566	-0.28
157.945	-0
158.325	-0
158.704	-0
159.083	-0
159.462	0.36
159.842	0.48
160.221	-0.04
160.6	-0
160.979	-0.23
161.359	-0.2
161.738	-0
162.117	-0.05
162.496	-0.54
162.875	-0.58
163.254	0.29
163.633	-0
164.012	-0
164.391	0.31
164.77	0.2
165.149	0.37
165.528	-0
165.907	-0
166.286	-0.46
166.665	0.28
167.044	-0
167.423	-0
167.802	-0
168.181	0.1
168.559	0.01
168.938	0.15
169.317	1.4
169.696	0.1
170.074	-0.42
170.453	-0.11
170.832	1.05
171.21	0.14
171.589	-0.09
171.968	-0.95
172.346	-0
172.725	-0
173.103	-0
173.482	-0.85
173.861	0.74
174.239	-0.6
174.617	-0
174.996	0.65
175.374	-0.08
175.753	-0.72
176.131	-0
176.51	-0.35
176.888	-0
177.266	0.58
177.645	-0.03
178.023	0.38
178.401	0.15
178.779	-0.12
179.158	-0.07
179.536	-0.15
179.914	-0.05
180.292	0.05
180.67	-0
181.048	0.02
181.427	-0.46
181.805	-0.26
182.183	-0
182.561	0.13
182.939	-0
183.317	0.03
183.695	0.28
184.073	0.8
184.451	-0
184.829	-0
185.206	-0.65
185.584	0.04
185.962	-0
186.34	-0
186.718	-0
187.096	-0
187.473	-0.36
187.851	0.35
188.229	0.74
188.607	0.03
188.984	0.02
189.362	0.02
189.74	0.08
190.117	-0.02
190.495	-0.08
190.872	0.05
191.25	0.03
191.627	-0.14
192.005	-0.01
192.382	-0.03
192.76	0.06
193.137	0.03
193.515	0
193.892	-0.03
194.269	-0.1
194.647	0.08
195.024	0.01
195.401	0.06
195.779	0.01
196.156	0.09
196.533	0.03
196.91	-0.02
197.288	0.12
197.665	0
198.042	0.01
198.419	0.07
198.796	-0.01
199.173	0.07
199.55	-0.01
199.927	0.05
200.304	0.12
200.681	0.08
201.058	0.04
201.435	0.05
201.812	0.06
202.189	0.06
202.566	0.05
202.943	-0.01
203.32	0.01
203.697	-0.07
204.073	0.05
204.45	0.05
204.827	0.16
205.204	-0.02
205.58	-0.01
205.957	0.02
206.334	-0.01
206.71	0.05
207.087	0.06
207.464	-0.02
207.84	0.07
208.217	0.01
208.593	-0.03
208.97	0.06
209.346	0.12
209.723	0.03
210.099	-0
210.476	0.12
210.852	0.06
211.228	-0.03
211.605	0.1
211.981	0.03
212.357	0
212.733	-0.02
213.11	0.11
213.486	-0.08
213.862	-0.01
214.238	-0.05
214.614	0.08
214.991	0.01
215.367	0.03
215.743	0
216.119	0.06
216.495	0.01
216.871	0.09
217.247	0.01
217.623	-0.07
217.999	-0
218.375	0.02
218.751	0.08
219.127	0.04
219.502	0
219.878	0.03
220.254	0.05
220.63	0.06
221.006	0.01
221.381	0.06
221.757	0.15
222.133	-0.01
222.508	0.08
222.884	0.11
223.26	-0.02
223.635	0.04
224.011	0.15
224.386	0.12
224.762	-0
225.137	0.11
225.513	0.08
225.888	-0
226.264	0.02
226.639	0.06
227.014	0.04
227.39	-0.02
227.765	0.15
228.14	0.03
228.516	0.02
228.891	0.12
229.266	0.13
229.641	0.06
230.017	0.03
230.392	0.08
230.767	-0.03
231.142	0.01
231.517	-0
231.892	0.11
232.267	0
232.642	0.02
233.017	0.06
233.392	0.06
233.767	0.03
234.142	0.06
234.517	0.09
234.892	0.08
235.267	0.02
235.641	-0.03
236.016	-0.04
236.391	0.11
236.766	0.2
237.14	-0.02
237.515	0.09
237.89	0.02
238.264	0.11
238.639	0.05
239.014	0.01
239.388	0.02
239.763	0.05
240.137	-0.03
240.512	0.07
240.886	0.08
241.261	0
241.635	-0
242.009	0.02
242.384	0.03
242.758	0.04
243.132	-0.01
243.507	0.03
243.881	0.01
244.255	-0.03
244.629	0.03
245.004	0.05
245.378	0.07
245.752	0.05
246.126	0.09
246.5	0.03
246.874	-0.04
247.248	-0.01
247.622	-0.02
247.996	-0.01
248.37	0.04
248.744	-0.03
249.118	0.11
249.492	0.04
249.866	0.04
250.24	0.06
250.613	0.02
250.987	0.07
251.361	0.06
251.735	0.04
252.108	0.09
252.482	0.01
252.856	0.14
253.229	0.02
253.603	0.04
253.977	-0.01
254.35	0.04
254.724	0.03
255.097	-0
255.471	0.09
255.844	0.08
256.218	0.05
256.591	0.1
256.964	-0.04
257.338	0.02
257.711	0.04
258.084	0.07
258.458	0.01
258.831	0.01
259.204	0.11
259.577	0.1
259.95	0.03
260.323	0.02
260.697	0.07
261.07	-0.02
261.443	0.07
261.816	0.11
262.189	0.04
262.562	-0.01
262.935	0.04
263.308	0.02
263.68	-0
264.053	0.08
264.426	0.03
264.799	0.02
265.172	0.07
265.545	0.09
265.917	0.04
266.29	0.03
266.663	0.09
267.035	0.03
267.408	-0.01
267.781	0.04
268.153	0.05
268.526	0.02
268.898	0
269.271	0.01
269.643	0.06
270.016	0.03
270.388	0.03
270.76	0.03
271.133	0.02
271.505	0.07
271.877	0.08
272.25	0.08
272.622	0.08
272.994	0.08
273.366	0.02
273.739	0.1
274.111	0.03
274.483	0.04
274.855	0.1
275.227	0.06
275.599	-0.03
275.971	0.09
276.343	-0.01
276.715	0.09
277.087	0.07
277.459	0.02
277.831	0.09
278.203	0.08
278.574	0.1
278.946	0
279.318	0.01
279.69	0.03
280.061	0.02
280.433	0.02
280.805	0.04
281.176	0.08
281.548	0.08
281.92	0.06
282.291	0.02
282.663	0.07
283.034	0.02
283.406	-0.04
283.777	0.03
284.148	0.06
284.52	0.07
284.891	0
285.262	0.12
285.634	-0.01
286.005	0.05
286.376	0.09
286.747	0.02
287.119	0.01
287.49	0.01
287.861	0.06
288.232	0.06
288.603	0.05
288.974	0.04
289.345	0.01
289.716	-0
290.087	0.12
290.458	0.11
290.829	0
291.2	0.06
291.571	0.05
291.941	0.06
292.312	0.06
292.683	0.08
293.054	0.07
293.424	0.03
293.795	0.02
294.166	0.01
294.536	0.06
294.907	0.1
295.277	0.09
295.648	0.11
296.018	0.04
296.389	0.03
296.759	0.03
297.13	0.02
297.5	0.04
297.871	0.06
298.241	-0
298.611	0.15
298.981	0.06
299.352	0.04
299.722	0.09
300.092	0.06
300.462	0.02
300.832	0.1
301.202	0.05
301.573	0.07
301.943	0.02
302.313	0.04
302.683	0.13
303.053	0.1
303.422	0.07
303.792	0.04
304.162	0.04
304.532	0.1
304.902	-0.02
305.272	0.07
305.641	0.04
306.011	0.07
306.381	0.06
306.75	0.06
307.12	0.03
307.49	0.03
307.859	0.05
308.229	0.05
308.598	0.06
308.968	0
309.337	0.05
309.707	0.03
310.076	0.04
310.445	0.05
310.815	0.03
311.184	0.04
311.553	0.01
311.923	0.01
312.292	0.01
312.661	0.03
313.03	0.04
313.399	0.03
313.768	0.02
314.137	0.03
314.506	0.03
314.875	0.04
315.244	0.05
315.613	0.04
315.982	0.04
316.351	0.03
316.72	0.04
317.089	0.04
317.458	0.03
317.826	0.03
318.195	0.04
318.564	0.03
318.933	0.04
319.301	0.04
319.67	0.04
320.038	0.03
320.407	0.03
320.775	0.04
321.144	0.04
321.512	0.06
321.881	0.05
322.249	0.05
322.618	0.04
322.986	0.05
323.354	0.04
323.723	0.04
324.091	0.04
324.459	0.04
324.827	0.04
325.195	0.05
325.564	0.05
325.932	0.05
326.3	0.04
326.668	0.04
327.036	0.04
327.404	0.05
327.772	0.04
328.14	0.05
328.508	0.05
328.875	0.04
329.243	0.06
329.611	0.06
329.979	0.05
330.346	0.04
330.714	0.05
331.082	0.05
331.449	0.05
331.817	0.06
332.185	0.05
332.552	0.05
332.92	0.06
333.287	0.06
333.655	0.06
334.022	0.06
334.389	0.06
334.757	0.06
335.124	0.06
335.491	0.06
335.859	0.06
336.226	0.06
336.593	0.07
336.96	0.07
337.327	0.07
337.695	0.07
338.062	0.07
338.429	0.07
338.796	0.07
339.163	0.07
339.53	0.07
339.897	0.08
340.263	0.08
340.63	0.08
340.997	0.08
341.364	0.08
341.731	0.08
342.097	0.08
342.464	0.08
342.831	0.09
343.197	0.09
343.564	0.09
343.931	0.09
344.297	0.09
344.664	0.09
345.03	0.09
345.396	0.1
345.763	0.1
346.129	0.1
346.496	0.1
346.862	0.1
347.228	0.11
347.594	0.1
347.961	0.11
348.327	0.11
348.693	0.11
349.059	0.11
349.425	0.11
349.791	0.11
350.157	0.11
350.523	0.12
350.889	0.12
351.255	0.12
351.621	0.12
351.987	0.12
352.353	0.12
352.719	0.12
353.084	0.12
353.45	0.12
353.816	0.13
354.181	0.13
354.547	0.13
354.913	0.13
355.278	0.14
355.644	0.14
356.009	0.14
356.375	0.14
356.74	0.15
357.106	0.15
357.471	0.14
357.836	0.15
358.202	0.16
358.567	0.15
358.932	0.16
359.297	0.16
359.663	0.16
360.028	0.17
360.393	0.17
360.758	0.17
361.123	0.17
361.488	0.17
361.853	0.18
362.218	0.18
362.583	0.18
362.948	0.18
363.312	0.18
363.677	0.19
364.042	0.19
364.407	0.2
364.772	0.2
365.136	0.2
365.501	0.2
365.865	0.2
366.23	0.2
366.595	0.2
366.959	0.21
367.324	0.21
367.688	0.21
368.052	0.21
368.417	0.22
368.781	0.22
369.145	0.22
369.51	0.22
369.874	0.23
370.238	0.23
370.602	0.23
370.967	0.23
371.331	0.24
371.695	0.23
372.059	0.24
372.423	0.24
372.787	0.24
373.151	0.23
373.515	0.24
373.878	0.24
374.242	0.24
374.606	0.24
374.97	0.23
375.334	0.23
375.697	0.23
376.061	0.23
376.425	0.23
376.788	0.23
377.152	0.22
377.515	0.23
377.879	0.22
378.242	0.22
378.606	0.22
378.969	0.21
379.333	0.21
379.696	0.21
380.059	0.21
380.422	0.21
380.786	0.21
381.149	0.21
381.512	0.2
381.875	0.21
382.238	0.21
382.601	0.2
382.964	0.2
383.327	0.2
383.69	0.21
384.053	0.2
384.416	0.2
384.779	0.2
385.142	0.2
385.504	0.2
385.867	0.21
386.23	0.21
386.593	0.21
386.955	0.21
387.318	0.21
387.68	0.21
388.043	0.22
388.405	0.22
388.768	0.22
389.13	0.22
389.493	0.22
389.855	0.22
390.217	0.22
390.58	0.22
390.942	0.22
391.304	0.22
391.666	0.22
392.028	0.21
392.391	0.22
392.753	0.21
393.115	0.21
393.477	0.21
393.839	0.2
394.201	0.21
394.563	0.2
394.924	0.21
395.286	0.21
395.648	0.21
396.01	0.21
396.371	0.22
396.733	0.22
397.095	0.23
397.456	0.23
397.818	0.24
398.18	0.24
398.541	0.25
398.903	0.26
399.264	0.27
399.625	0.28
399.987	0.28
400.348	0.28
400.709	0.29
401.071	0.3
401.432	0.31
401.793	0.3
402.154	0.3
402.515	0.29
402.876	0.29
403.238	0.28
403.599	0.28
403.96	0.27
404.32	0.26
404.681	0.25
405.042	0.24
405.403	0.23
405.764	0.22
406.125	0.2
406.485	0.19
406.846	0.18
407.207	0.17
407.567	0.16
407.928	0.16
408.288	0.14
408.649	0.14
409.009	0.13
409.37	0.12
409.73	0.11
410.091	0.11
410.451	0.11
410.811	0.1
411.171	0.09
411.532	0.08
411.892	0.09
412.252	0.08
412.612	0.07
412.972	0.07
413.332	0.06
413.692	0.06
414.052	0.06
414.412	0.06
414.772	0.06
415.132	0.05
415.492	0.05
415.851	0.05
416.211	0.06
416.571	0.05
416.931	0.04
417.29	0.04
417.65	0.04
418.009	0.05
418.369	0.04
418.728	0.04
419.088	0.04
419.447	0.03
419.807	0.04
420.166	0.04
420.525	0.04
420.884	0.03
421.244	0.04
421.603	0.03
421.962	0.04
422.321	0.03
422.68	0.03
423.039	0.03
423.398	0.03
423.757	0.03
424.116	0.03
424.475	0.03
424.834	0.03
425.193	0.03
425.551	0.03
425.91	0.02
426.269	0.03
426.628	0.02
426.986	0.02
427.345	0.03
427.703	0.02
428.062	0.02
428.42	0.02
428.779	0.03
429.137	0.03
429.496	0.02
429.854	0.02
430.212	0.03
430.57	0.02
430.929	0.02
431.287	0.01
431.645	0.01
432.003	0.03
432.361	0.02
432.719	0.02
433.077	0.02
433.435	0.02
433.793	0.02
434.151	0.03
434.509	0.03
434.866	0.02
435.224	0.02
435.582	0.02
435.94	0.02
436.297	0.01
436.655	0.01
437.012	0.02
437.37	0.02
437.727	0.02
438.085	0.02
438.442	0.01
438.8	0.01
439.157	0.01
439.514	0.02
439.872	0.01
440.229	0.03
440.586	0.01
440.943	0.03
441.3	0.01
441.657	0.02
442.014	0.02
442.371	0.02
442.728	0.02
443.085	0.03
443.442	0.02
443.799	0.01
444.156	0.01
444.513	0.02
444.869	0.02
445.226	0.02
445.583	0.02
445.939	0.02
446.296	0.02
446.652	0.03
447.009	0.01
447.365	0.01
447.722	0.01
448.078	0.02
448.434	0.02
448.791	0.01
449.147	0.01
449.503	0.02
449.859	0.02
450.215	0.02
450.571	0.02
450.928	0.02
451.284	0.02
451.64	0.02
451.995	0.01
452.351	0.03
452.707	0.02
453.063	0.01
453.419	0.02
453.775	0.01
454.13	0.02
454.486	0.02
454.842	0.01
455.197	0.01
455.553	0.01
455.908	0.02
456.264	0.01
456.619	0.02
456.975	0.01
457.33	0.01
457.685	0.01
458.04	0.01
458.396	0.01
458.751	0.01
459.106	0.01
459.461	0.02
459.816	0.01
460.171	0.02
460.526	0.01
460.881	0.01
461.236	0.01
461.591	0.02
461.946	0.01
462.301	0.01
462.655	0.01
463.01	0.01
463.365	0.01
463.719	0.01
464.074	0.01
464.428	0.01
464.783	0
465.137	0.01
465.492	0.01
465.846	0.01
466.201	0.01
466.555	0
466.909	-0
467.263	0
467.618	0
467.972	0.01
468.326	0.01
468.68	0.01
469.034	0.01
469.388	0.01
469.742	0.01
470.096	0
470.45	0.01
470.804	0.01
471.157	0.01
471.511	0.01
471.865	0.01
472.218	0.01
472.572	0.01
472.926	0.01
473.279	0.01
473.633	0.01
473.986	0.02
474.34	0.02
474.693	0.02
475.046	0.02
475.4	0.02
475.753	0.02
476.106	0.02
476.459	0.02
476.812	0.02
477.165	0.02
477.519	0.02
477.872	0.01
478.224	0.02
478.577	0.03
478.93	0.02
479.283	0.02
479.636	0.03
479.989	0.03
480.341	0.02
480.694	0.03
481.047	0.03
481.399	0.03
481.752	0.03
482.104	0.03
482.457	0.03
482.809	0.03
483.162	0.03
483.514	0.03
483.866	0.03
484.219	0.03
484.571	0.03
484.923	0.03
485.275	0.04
485.627	0.04
485.979	0.04
486.331	0.04
486.683	0.04
487.035	0.04
487.387	0.04
487.739	0.04
488.091	0.04
488.443	0.04
488.794	0.04
489.146	0.04
489.498	0.04
489.849	0.04
490.201	0.04
490.552	0.04
490.904	0.05
491.255	0.05
491.607	0.04
491.958	0.05
492.309	0.05
492.661	0.04
493.012	0.04
493.363	0.04
493.714	0.04
494.065	0.05
494.416	0.05
494.767	0.05
495.118	0.05
495.469	0.05
495.82	0.05
496.171	0.05
496.522	0.05
496.872	0.05
497.223	0.05
497.574	0.05
497.924	0.05
498.275	0.06
498.626	0.05
498.976	0.05
499.327	0.06
499.677	0.05
500.027	0.05
500.378	0.05
500.728	0.06
501.078	0.06
501.428	0.05
501.779	0.06
502.129	0.06
502.479	0.06
502.829	0.06
503.179	0.06
503.529	0.06
503.879	0.06
504.229	0.06
504.578	0.06
504.928	0.06
505.278	0.06
505.628	0.06
505.977	0.06
506.327	0.06
506.676	0.06
507.026	0.07
507.375	0.07
507.725	0.07
508.074	0.07
508.424	0.07
508.773	0.07
509.122	0.06
509.471	0.07
509.82	0.07
510.17	0.06
510.519	0.07
510.868	0.07
511.217	0.08
511.566	0.07
511.915	0.07
512.263	0.07
512.612	0.07
512.961	0.07
513.31	0.07
513.659	0.07
514.007	0.08
514.356	0.07
514.704	0.07
515.053	0.08
515.401	0.08
515.75	0.08
516.098	0.08
516.447	0.08
516.795	0.08
517.143	0.08
517.491	0.07
517.839	0.08
518.188	0.08
518.536	0.08
518.884	0.08
519.232	0.08
519.58	0.08
519.928	0.08
520.275	0.08
520.623	0.08
520.971	0.09
521.319	0.08
521.666	0.08
522.014	0.08
522.362	0.08
522.709	0.09
523.057	0.08
523.404	0.09
523.752	0.09
524.099	0.09
524.446	0.09
524.794	0.09
525.141	0.09
525.488	0.09
525.835	0.09
526.182	0.09
526.529	0.09
526.876	0.09
527.223	0.09
527.57	0.09
527.917	0.09
528.264	0.09
528.611	0.09
528.958	0.09
529.304	0.09
529.651	0.09
529.998	0.09
530.344	0.09
530.691	0.1
531.037	0.09
531.384	0.09
531.73	0.09
532.076	0.1
532.423	0.09
532.769	0.1
533.115	0.09
533.461	0.09
533.807	0.09
534.154	0.1
534.5	0.1
534.846	0.09
535.192	0.1
535.537	0.1
535.883	0.09
536.229	0.1
536.575	0.1
536.921	0.1
537.266	0.1
537.612	0.1
537.957	0.1
538.303	0.1
538.649	0.1
538.994	0.1
539.339	0.1
539.685	0.1
540.03	0.1
540.375	0.1
540.721	0.11
541.066	0.1
541.411	0.1
541.756	0.1
542.101	0.1
542.446	0.1
542.791	0.1
543.136	0.11
543.481	0.1
543.825	0.11
544.17	0.11
544.515	0.11
544.86	0.11
545.204	0.11
545.549	0.11
545.893	0.11
546.238	0.11
546.582	0.11
546.927	0.11
547.271	0.11
547.615	0.11
547.96	0.11
548.304	0.11
548.648	0.11
548.992	0.11
549.336	0.11
549.68	0.11
550.024	0.11
550.368	0.11
550.712	0.11
551.056	0.11
551.4	0.11
551.743	0.11
552.087	0.11
552.431	0.11
552.774	0.11
553.118	0.11
553.462	0.11
553.805	0.11
554.148	0.11
554.492	0.11
554.835	0.11
555.178	0.11
555.522	0.11
555.865	0.11
556.208	0.12
556.551	0.11
556.894	0.11
557.237	0.11
557.58	0.11
557.923	0.11
558.266	0.12
558.609	0.11
558.952	0.11
559.294	0.11
559.637	0.11
559.98	0.11
560.322	0.11
560.665	0.12
561.007	0.11
561.35	0.12
561.692	0.11
562.034	0.11
562.377	0.11
562.719	0.11
563.061	0.11
563.403	0.11
563.745	0.12
564.088	0.12
564.43	0.12
564.772	0.12
565.113	0.12
565.455	0.11
565.797	0.11
566.139	0.11
566.481	0.11
566.822	0.12
567.164	0.11
567.506	0.11
567.847	0.11
568.189	0.11
568.53	0.11
568.872	0.11
569.213	0.11
569.554	0.11
569.895	0.11
570.237	0.11
570.578	0.11
570.919	0.11
571.26	0.11
571.601	0.11
571.942	0.11
572.283	0.11
572.624	0.11
572.965	0.11
573.306	0.11
573.646	0.11
573.987	0.11
574.328	0.11
574.668	0.11
575.009	0.11
575.349	0.11
575.69	0.1
576.03	0.11
576.37	0.1
576.711	0.1
577.051	0.1
577.391	0.1
577.731	0.11
578.072	0.11
578.412	0.1
578.752	0.1
579.092	0.1
579.431	0.09
579.771	0.08
580.111	0.07
580.451	0.08
580.791	0.1
581.13	0.1
581.47	0.1
581.81	0.1
582.149	0.1
582.489	0.1
582.828	0.1
583.167	0.07
583.507	0.04
583.846	0.03
584.185	0.06
584.525	0.08
584.864	0.09
585.203	0.1
585.542	0.11
585.881	0.1
586.22	0.11
586.559	0.1
586.898	0.09
587.236	0.08
587.575	0.08
587.914	0.09
588.252	0.1
588.591	0.1
588.93	0.1
589.268	0.1
589.607	0.1
589.945	0.1
590.283	0.1
590.622	0.1
590.96	0.11
591.298	0.11
591.636	0.11
591.974	0.11
592.313	0.11
592.651	0.11
592.989	0.11
593.326	0.11
593.664	0.11
594.002	0.11
594.34	0.11
594.678	0.1
595.015	0.1
595.353	0.1
595.691	0.1
596.028	0.11
596.366	0.11
596.703	0.11
597.04	0.11
597.378	0.11
597.715	0.11
598.052	0.11
598.389	0.11
598.726	0.11
599.064	0.11
599.401	0.11
599.738	0.11
600.074	0.11
600.411	0.11
600.748	0.11
601.085	0.1
601.422	0.1
601.758	0.1
602.095	0.1
602.432	0.11
602.768	0.1
603.105	0.11
603.441	0.11
603.777	0.11
604.114	0.11
604.45	0.11
604.786	0.11
605.122	0.11
605.459	0.11
605.795	0.11
606.131	0.11
606.467	0.11
606.803	0.11
607.139	0.11
607.474	0.11
607.81	0.11
608.146	0.11
608.482	0.11
608.817	0.11
609.153	0.11
609.488	0.11
609.824	0.1
610.159	0.11
610.495	0.11
610.83	0.11
611.165	0.11
611.5	0.11
611.836	0.11
612.171	0.11
612.506	0.11
612.841	0.11
613.176	0.11
613.511	0.11
613.845	0.11
614.18	0.11
614.515	0.11
614.85	0.11
615.184	0.11
615.519	0.11
615.854	0.11
616.188	0.11
616.523	0.11
616.857	0.1
617.191	0.1
617.526	0.1
617.86	0.11
618.194	0.1
618.528	0.1
618.862	0.1
619.196	0.1
619.53	0.1
619.864	0.1
620.198	0.11
620.532	0.1
620.866	0.1
621.2	0.1
621.533	0.1
621.867	0.1
622.201	0.1
622.534	0.1
622.868	0.1
623.201	0.1
623.534	0.1
623.868	0.1
624.201	0.1
624.534	0.1
624.868	0.1
625.201	0.1
625.534	0.1
625.867	0.1
626.2	0.1
626.533	0.1
626.865	0.1
627.198	0.1
627.531	0.1
627.864	0.09
628.196	0.09
628.529	0.1
628.862	0.09
629.194	0.09
629.527	0.09
629.859	0.09
630.191	0.09
630.524	0.09
630.856	0.09
631.188	0.09
631.52	0.09
631.852	0.09
632.184	0.09
632.516	0.09
632.848	0.09
633.18	0.09
633.512	0.09
633.844	0.09
634.175	0.09
634.507	0.08
634.839	0.08
635.17	0.08
635.502	0.08
635.833	0.08
636.165	0.08
636.496	0.08
636.827	0.08
637.159	0.08
637.49	0.08
637.821	0.08
638.152	0.08
638.483	0.08
638.814	0.08
639.145	0.08
639.476	0.07
639.807	0.08
640.137	0.08
640.468	0.08
640.799	0.08
641.129	0.07
641.46	0.08
641.791	0.08
642.121	0.07
642.451	0.07
642.782	0.07
643.112	0.07
643.442	0.07
643.773	0.07
644.103	0.07
644.433	0.07
644.763	0.07
645.093	0.07
645.423	0.07
645.753	0.07
646.082	0.07
646.412	0.07
646.742	0.06
647.072	0.06
647.401	0.07
647.731	0.06
648.06	0.06
648.39	0.07
648.719	0.06
649.048	0.06
649.378	0.06
649.707	0.06
650.036	0.06
650.365	0.06
650.694	0.06
651.023	0.06
651.352	0.06
651.681	0.06
652.01	0.06
652.339	0.06
652.668	0.06
652.996	0.06
653.325	0.06
653.654	0.06
653.982	0.06
654.311	0.06
654.639	0.06
654.967	0.06
655.296	0.06
655.624	0.06
655.952	0.06
656.28	0.06
656.609	0.06
656.937	0.06
657.265	0.06
657.593	0
657.92	0
658.248	-0
658.576	0
658.904	0
659.231	0.02
659.559	0.06
659.887	0.06
660.214	0.06
660.542	0.06
660.869	0.06
661.196	0.06
661.524	0.06
661.851	0.06
662.178	0.06
662.505	0.06
662.832	0.06
663.159	0.06
663.486	0.06
663.813	0.06
664.14	0.06
664.467	0.06
664.794	0.06
665.12	0.06
665.447	0.06
665.774	0.06
666.1	0.06
666.427	0.06
666.753	0.05
667.079	0.05
667.406	0.05
667.732	0.05
668.058	0.05
668.384	0.05
668.71	0.05
669.036	0.05
669.362	0.05
669.688	0.05
670.014	0.05
670.34	0.05
670.666	0.05
670.991	0.05
671.317	0.05
671.643	0.05
671.968	0.05
672.294	0.05
672.619	0.05
672.945	0.05
673.27	0.05
673.595	0.05
673.92	0.05
674.246	0.05
674.571	0.05
674.896	0.05
675.221	0.05
675.546	0.05
675.87	0.05
676.195	0.05
676.52	0.04
676.845	0.05
677.169	0.04
677.494	0.04
677.819	0.04
678.143	0.04
678.468	0.04
678.792	0.04
679.116	0.04
679.44	0.04
679.765	0.04
680.089	0.04
680.413	0.04
680.737	0.04
681.061	0.04
681.385	0.04
681.709	0.04
682.033	0.04
682.356	0.04
682.68	0.04
683.004	0.04
683.327	0.03
683.651	0.03
683.974	0.04
684.298	0.03
684.621	0.04
684.944	0.03
685.268	0.04
685.591	0.03
685.914	0.03
686.237	0.03
686.56	0.03
686.883	0.03
687.206	0.03
687.529	0.03
687.852	0.03
688.175	0.03
688.497	0.03
688.82	0.03
689.142	0.03
689.465	0.03
689.787	0.03
690.11	0.03
690.432	0.03
690.755	0.02
691.077	0.03
691.399	0.03
691.721	0.03
692.043	0.03
692.365	0.03
692.687	0.02
693.009	0.02
693.331	0.02
693.653	0.02
693.974	0.02
694.296	0.02
694.618	0.02
694.939	0.02
695.261	0.02
695.582	0.02
695.904	0.02
696.225	0.02
696.546	0.02
696.868	0.02
697.189	0.02
697.51	0.02
697.831	0.02
698.152	0.02
698.473	0.02
698.794	0.01
699.114	0.02
699.435	0.01
699.756	0.01
700.077	0.01
700.397	0.02
700.718	0.02
701.038	0.02
701.359	0.02
701.679	0.02
701.999	0.02
702.32	0.02
702.64	0.02
702.96	0.02
703.28	0.02
703.6	0.02
703.92	0.02
704.24	0.01
704.56	0.01
704.879	0.01
705.199	0.01
705.519	0.01
705.838	0.02
706.158	0.02
706.478	0.01
706.797	0.02
707.116	0.02
707.436	0.02
707.755	0.02
708.074	0.01
708.393	0.01
708.712	0.01
709.031	0.01
709.35	0.01
709.669	0.01
709.988	0.01
710.307	0.01
710.626	0.01
710.944	0.01
711.263	0.01
711.582	0.01
711.9	0.02
712.219	0.01
712.537	0.01
712.855	0.01
713.174	0.01
713.492	0.01
713.81	0.01
714.128	0.01
714.446	0.01
714.764	0.01
715.082	0.01
715.4	0.01
715.718	0.01
716.035	0.01
716.353	0.01
716.671	0.01
716.988	0.01
717.306	0.01
717.623	0.01
717.941	0.02
718.258	0.02
718.575	0.02
718.893	0.02
719.21	0.02
719.527	0.01
719.844	0.01
720.161	0.01
720.478	0.02
720.795	0.02
721.112	0.02
721.428	0.02
721.745	0.02
722.062	0.02
722.378	0.02
722.695	0.02
723.011	0.02
723.328	0.02
723.644	0.02
723.96	0.02
724.276	0.02
724.593	0.02
724.909	0.02
725.225	0.02
725.541	0.02
725.857	0.02
726.173	0.02
726.488	0.02
726.804	0.02
727.12	0.02
727.435	0.02
727.751	0.02
728.067	0.02
728.382	0.02
728.697	0.02
729.013	0.02
729.328	0.02
729.643	0.02
729.958	0.02
730.273	0.02
730.588	0.02
730.903	0.02
731.218	0.02
731.533	0.02
731.848	0.02
732.163	0.02
732.477	0.02
732.792	0.02
733.107	0.01
733.421	0.02
733.736	0.02
734.05	0.02
734.364	0.02
734.678	0.02
734.993	0.02
735.307	0.02
735.621	0.02
735.935	0.02
736.249	0.02
736.563	0.02
736.877	0.02
737.19	0.02
737.504	0.02
737.818	0.02
738.131	0.02
738.445	0.02
738.758	0.02
739.072	0.02
739.385	0.02
739.698	0.02
740.012	0.02
740.325	0.02
740.638	0.02
740.951	0.02
741.264	0.01
741.577	0.01
741.89	0.01
742.203	0.01
742.515	0.01
742.828	0.01
743.141	0.01
743.453	0.01
743.766	0.01
744.078	0.01
744.391	0.01
744.703	0.02
745.015	0.02
745.327	0.02
745.639	0.02
745.952	0.02
746.264	0.01
746.575	0.02
746.887	0.02
747.199	0.02
747.511	0.02
747.823	0.02
748.134	0.02
748.446	0.01
748.757	0.02
749.069	0.01
749.38	0.01
749.692	0.01
750.003	0.01
750.314	0.01
750.625	0.01
750.936	0.01
751.248	0.01
751.559	0.01
751.869	0.01
752.18	0.01
752.491	0.01
752.802	0.01
753.112	0.01
753.423	0.01
753.734	0.01
754.044	0.01
754.355	0.01
754.665	0.01
754.975	0.01
755.285	0.01
755.596	0.01
755.906	0.01
756.216	0.01
756.526	0.01
756.836	0.01
757.146	0.01
757.455	0.01
757.765	0.01
758.075	0.01
758.385	0.01
758.694	0
759.004	0
759.313	0.01
759.622	0.01
759.932	0.01
760.241	0.01
760.55	0
760.859	0
761.168	0.01
761.477	0
761.786	0
762.095	0
762.404	0
762.713	0
763.021	0
763.33	0
763.639	0
763.947	0
764.256	0.01
764.564	0.01
764.872	0
765.181	0.01
765.489	0.01
765.797	0.01
766.105	0.01
766.413	0.01
766.721	0.01
767.029	0.01
767.337	0.01
767.644	0
767.952	0
768.26	0
768.567	0
768.875	0
769.182	0
769.49	0
769.797	0
770.104	0
770.411	0
770.718	0
771.026	0.01
771.333	0.01
771.639	0.01
771.946	0.01
772.253	0.01
772.56	0.01
772.867	0.01
773.173	0.01
773.48	0.01
773.786	0.01
774.093	0.01
774.399	0.01
774.705	0.01
775.012	0.01
775.318	0.01
775.624	0
775.93	0.01
776.236	0.01
776.542	0.01
776.848	0.01
777.154	0.01
777.459	0.01
777.765	0.01
778.071	0.01
778.376	0.01
778.682	0.01
778.987	0.01
779.292	0.01
779.598	0
779.903	0.01
780.208	0.01
780.513	0.01
780.818	0.01
781.123	0.01
781.428	0
781.733	0.01
782.038	0.01
782.343	0.01
782.647	0.01
782.952	0.01
783.256	0.01
783.561	0.01
783.865	0.01
784.17	0.01
784.474	0.01
784.778	0.01
785.082	0.01
785.386	0.01
785.69	0.01
785.994	0.01
786.298	0.01
786.602	0.01
786.906	0.01
787.209	0.01
787.513	0.01
787.817	0.01
788.12	0.01
788.424	0.01
788.727	0
789.03	0
789.333	0.01
789.637	0
789.94	0.01
790.243	0.01
790.546	0.01
790.849	0
791.152	0
791.454	0
791.757	0
792.06	0
792.362	0
792.665	0
792.967	0
793.27	0
793.572	0
793.874	0
794.177	0
794.479	0.01
794.781	0
795.083	-0
795.385	0
795.687	0
795.989	0
796.29	0
796.592	0
796.894	0
797.195	0
797.497	0
797.798	0.01
798.1	0.01
798.401	0.01
798.702	0.01
799.003	0.01
799.304	0
799.605	0.01
799.906	0.01
800.207	0
800.508	0.01
800.809	0
801.11	0
801.41	0
801.711	0
802.011	0
802.312	0
802.612	0.01
802.913	0.01
803.213	0.01
803.513	0.01
803.813	0.01
804.113	0
804.413	0
804.713	0
805.013	0
805.313	0
805.613	0.01
805.912	0.01
806.212	0
806.511	0
806.811	0
807.11	0
807.41	0.01
807.709	0
808.008	0
808.307	0.01
808.606	0.01
808.905	0.01
809.204	0.01
809.503	0.01
809.802	0.01
810.101	0.01
810.399	0.01
810.698	0.01
810.997	0.01
811.295	0.01
811.593	0.01
811.892	0.01
812.19	0.01
812.488	0
812.786	0.01
813.084	0
813.383	0.01
813.68	0
813.978	0
814.276	0
814.574	0
814.872	0.01
815.169	0
815.467	0
815.764	0
816.062	0.01
816.359	0.01
816.656	0.01
816.954	0
817.251	0
817.548	0.01
817.845	0.01
818.142	0.01
818.439	0
818.735	0
819.032	0
819.329	0.01
819.626	0
819.922	0.01
820.219	0.01
820.515	0
820.811	0.01
821.108	0.01
821.404	0.01
821.7	0.01
821.996	0.01
822.292	0.01
822.588	0.01
822.884	0.01
823.18	0.01
823.475	0.01
823.771	0.01
824.067	0.01
824.362	0.01
824.658	0.01
824.953	0.01
825.249	0
825.544	0.01
825.839	0.01
826.134	0.01
826.429	0.01
826.724	0.01
827.019	0.01
827.314	0.01
827.609	0.01
827.904	0.01
828.198	0.01
828.493	0.01
828.787	0.01
829.082	0
829.376	0.01
829.671	0.01
829.965	0
830.259	0.01
830.553	0.01
830.847	0.01
831.141	0.01
831.435	0.01
831.729	0.01
832.023	0.01
832.317	0.01
832.61	0
832.904	0.01
833.197	0.01
833.491	0.01
833.784	0.01
834.077	0.01
834.371	0.01
834.664	0.01
834.957	0.01
835.25	0.01
835.543	0
835.836	0
836.129	-0
836.421	0
836.714	0
837.007	0
837.299	0.01
837.592	0.01
837.884	0.01
838.177	0.01
838.469	0.01
838.761	0.01
839.053	0.01
839.345	0.01
839.637	0
839.929	0.02
840.221	0.01
840.513	0.01
840.805	0.01
841.096	0
841.388	0.01
841.68	0.01
841.971	0.01
842.262	0.01
842.554	0.01
842.845	0.01
843.136	0.01
843.427	0.01
843.718	0.02
844.009	0.01
844.3	0.01
844.591	0.01
844.882	0.01
845.173	0.01
845.463	0.01
845.754	0.02
846.044	0.02
846.335	0.02
846.625	0.01
846.915	0.01
847.206	0.01
847.496	0.01
847.786	0.01
848.076	0.01
848.366	0.01
848.656	0.01
848.945	0.01
849.235	0.01
849.525	0.01
849.814	0.01
850.104	0.01
850.393	0.01
850.683	0.01
850.972	0.01
851.261	0.01
851.551	0.01
851.84	0.01
852.129	0
852.418	0
852.707	0.01
852.995	0.01
853.284	0.01
853.573	0.02
853.862	0
854.15	-0
854.439	0
854.727	0.01
855.015	0
855.304	0.01
855.592	0.01
855.88	0.02
856.168	0.02
856.456	0.01
856.744	0.02
857.032	0.02
857.32	0.01
857.607	0.02
857.895	0.02
858.183	0.01
858.47	0.01
858.757	0.02
859.045	0.02
859.332	0.02
859.619	0.01
859.907	0.01
860.194	0.03
860.481	0.03
860.768	0.01
861.054	0.02
861.341	0.02
861.628	0.02
861.915	0.03
862.201	0.03
862.488	0.02
862.774	0.02
863.061	0.01
863.347	-0.01
863.633	0.02
863.919	0.02
864.205	-0
864.491	0.01
864.777	0
865.063	0.01
865.349	0.01
865.635	0.03
865.92	-0
866.206	0.01
866.492	0.02
866.777	0.01
867.062	0.01
867.348	0
867.633	-0.01
867.918	0.01
868.203	0.02
868.488	0.02
868.773	-0.01
869.058	0.01
869.343	0.01
869.628	-0.01
869.912	0
870.197	0.01
870.482	0.01
870.766	0.03
871.05	-0.01
871.335	0.01
871.619	0
871.903	0.03
872.187	0.04
872.471	-0.02
872.755	-0
873.039	-0.02
873.323	0.01
873.607	0.03
873.89	0.04
874.174	0.01
874.458	-0
874.741	0.04
875.024	-0.01
875.308	-0.01
875.591	-0
875.874	0.04
876.157	0.12
876.44	0.06
876.723	0.03
877.006	0
877.289	0.04
877.572	0.01
877.854	-0.01
878.137	-0.08
878.42	0.01
878.702	0.05
878.984	-0
879.267	0.03
879.549	-0.04
879.831	0
880.113	0.08
880.395	-0.02
880.677	0.01
880.959	0.03
