Data from Rubpy_BV_1500_EDTA_Buffered_Absorbance_14-28-21-736.txt Node
Date: Wed Jul 01 14:28:21 BST 2026
User: fpm-admin
Spectrometer: OFX00224
Trigger mode: 0
Integration Time (sec): 7.000000E-2
Scans to average: 3
Nonlinearity correction enabled: false
Boxcar width: 0
Storing dark spectrum: false
XAxis mode: Wavelengths
Number of Pixels in Spectrum: 2136
>>>>>Begin Spectral Data<<<<<
154.91	-0.32
155.289	0.54
155.669	-0
156.048	-0
156.428	-0
156.807	-0
157.186	0.2
157.566	-0.21
157.945	0.48
158.325	-0
158.704	-0
159.083	-0
159.462	-0
159.842	0.34
160.221	-0.54
160.6	-0
160.979	-0.06
161.359	-0
161.738	0.57
162.117	0.03
162.496	-0.6
162.875	0.3
163.254	-0
163.633	-0
164.012	0.06
164.391	0.17
164.77	0.25
165.149	1.54
165.528	-0.68
165.907	0.06
166.286	1
166.665	0.49
167.044	-0
167.423	-0
167.802	-0
168.181	-0.08
168.559	-0.04
168.938	0.69
169.317	0.7
169.696	0.13
170.074	-0.3
170.453	0.02
170.832	-0
171.21	0.07
171.589	0.66
171.968	-0.4
172.346	0.51
172.725	-0.24
173.103	-0
173.482	-0.74
173.861	0.14
174.239	-0
174.617	0.18
174.996	0.14
175.374	0.11
175.753	-0.36
176.131	-0
176.51	0.15
176.888	-0
177.266	-0
177.645	0.04
178.023	0.95
178.401	-0.1
178.779	-0
179.158	0.02
179.536	0.03
179.914	-0.08
180.292	0.06
180.67	-0
181.048	-0.2
181.427	0.14
181.805	0.48
182.183	-0.56
182.561	0.58
182.939	-0
183.317	-0.19
183.695	-0.21
184.073	-0
184.451	0.34
184.829	1.43
185.206	-0.35
185.584	0.32
185.962	-0
186.34	-0
186.718	-0
187.096	-0.5
187.473	-0.36
187.851	-0
188.229	0.74
188.607	0.23
188.984	0.37
189.362	0.42
189.74	0.25
190.117	0.18
190.495	0.16
190.872	0.23
191.25	0.39
191.627	0.13
192.005	0.14
192.382	0.31
192.76	0.18
193.137	0.17
193.515	0.12
193.892	0.33
194.269	0.1
194.647	0.44
195.024	0.23
195.401	0.23
195.779	0.21
196.156	0.27
196.533	0.38
196.91	0.24
197.288	0.27
197.665	0.23
198.042	0.25
198.419	0.42
198.796	0.31
199.173	0.24
199.55	0.23
199.927	0.23
200.304	0.39
200.681	0.25
201.058	0.32
201.435	0.26
201.812	0.23
202.189	0.31
202.566	0.26
202.943	0.22
203.32	0.2
203.697	0.2
204.073	0.2
204.45	0.18
204.827	0.51
205.204	0.28
205.58	0.24
205.957	0.26
206.334	0.24
206.71	0.32
207.087	0.43
207.464	0.13
207.84	0.2
208.217	0.28
208.593	0.43
208.97	0.31
209.346	0.42
209.723	0.24
210.099	0.27
210.476	0.39
210.852	0.3
211.228	0.29
211.605	0.22
211.981	0.11
212.357	0.32
212.733	0.13
213.11	0.22
213.486	0.23
213.862	0.21
214.238	0.38
214.614	0.22
214.991	0.27
215.367	0.14
215.743	0.27
216.119	0.31
216.495	0.26
216.871	0.27
217.247	0.18
217.623	0.2
217.999	0.34
218.375	0.38
218.751	0.32
219.127	0.38
219.502	0.28
219.878	0.29
220.254	0.18
220.63	0.45
221.006	0.24
221.381	0.34
221.757	0.38
222.133	0.28
222.508	0.31
222.884	0.33
223.26	0.23
223.635	0.31
224.011	0.44
224.386	0.39
224.762	0.3
225.137	0.3
225.513	0.39
225.888	0.53
226.264	0.31
226.639	0.34
227.014	0.32
227.39	0.2
227.765	0.32
228.14	0.32
228.516	0.34
228.891	0.35
229.266	0.29
229.641	0.39
230.017	0.33
230.392	0.21
230.767	0.21
231.142	0.21
231.517	0.14
231.892	0.24
232.267	0.23
232.642	0.32
233.017	0.36
233.392	0.18
233.767	0.22
234.142	0.33
234.517	0.3
234.892	0.27
235.267	0.35
235.641	0.09
236.016	0.25
236.391	0.34
236.766	0.34
237.14	0.18
237.515	0.3
237.89	0.28
238.264	0.26
238.639	0.23
239.014	0.25
239.388	0.26
239.763	0.26
240.137	0.16
240.512	0.24
240.886	0.28
241.261	0.28
241.635	0.3
242.009	0.36
242.384	0.41
242.758	0.19
243.132	0.18
243.507	0.28
243.881	0.23
244.255	0.3
244.629	0.22
245.004	0.25
245.378	0.23
245.752	0.27
246.126	0.36
246.5	0.27
246.874	0.36
247.248	0.24
247.622	0.09
247.996	0.21
248.37	0.27
248.744	0.29
249.118	0.36
249.492	0.36
249.866	0.24
250.24	0.27
250.613	0.31
250.987	0.42
251.361	0.29
251.735	0.31
252.108	0.22
252.482	0.24
252.856	0.26
253.229	0.29
253.603	0.22
253.977	0.41
254.35	0.42
254.724	0.28
255.097	0.24
255.471	0.28
255.844	0.33
256.218	0.38
256.591	0.41
256.964	0.26
257.338	0.2
257.711	0.34
258.084	0.34
258.458	0.31
258.831	0.3
259.204	0.34
259.577	0.24
259.95	0.27
260.323	0.2
260.697	0.24
261.07	0.27
261.443	0.35
261.816	0.27
262.189	0.23
262.562	0.3
262.935	0.39
263.308	0.33
263.68	0.19
264.053	0.28
264.426	0.29
264.799	0.28
265.172	0.29
265.545	0.41
265.917	0.36
266.29	0.28
266.663	0.35
267.035	0.23
267.408	0.3
267.781	0.31
268.153	0.36
268.526	0.28
268.898	0.38
269.271	0.33
269.643	0.2
270.016	0.36
270.388	0.28
270.76	0.3
271.133	0.31
271.505	0.3
271.877	0.29
272.25	0.34
272.622	0.34
272.994	0.31
273.366	0.31
273.739	0.32
274.111	0.26
274.483	0.25
274.855	0.32
275.227	0.3
275.599	0.24
275.971	0.39
276.343	0.23
276.715	0.31
277.087	0.31
277.459	0.3
277.831	0.33
278.203	0.31
278.574	0.28
278.946	0.24
279.318	0.3
279.69	0.26
280.061	0.29
280.433	0.28
280.805	0.18
281.176	0.4
281.548	0.36
281.92	0.32
282.291	0.25
282.663	0.32
283.034	0.3
283.406	0.23
283.777	0.29
284.148	0.28
284.52	0.33
284.891	0.28
285.262	0.33
285.634	0.29
286.005	0.34
286.376	0.31
286.747	0.31
287.119	0.26
287.49	0.3
287.861	0.25
288.232	0.29
288.603	0.26
288.974	0.36
289.345	0.28
289.716	0.29
290.087	0.42
290.458	0.37
290.829	0.31
291.2	0.29
291.571	0.21
291.941	0.33
292.312	0.33
292.683	0.34
293.054	0.31
293.424	0.3
293.795	0.21
294.166	0.31
294.536	0.27
294.907	0.37
295.277	0.31
295.648	0.32
296.018	0.28
296.389	0.3
296.759	0.29
297.13	0.33
297.5	0.42
297.871	0.34
298.241	0.26
298.611	0.31
298.981	0.32
299.352	0.29
299.722	0.34
300.092	0.29
300.462	0.3
300.832	0.36
301.202	0.37
301.573	0.32
301.943	0.27
302.313	0.37
302.683	0.39
303.053	0.32
303.422	0.37
303.792	0.31
304.162	0.3
304.532	0.31
304.902	0.22
305.272	0.26
305.641	0.29
306.011	0.3
306.381	0.26
306.75	0.26
307.12	0.27
307.49	0.31
307.859	0.29
308.229	0.25
308.598	0.3
308.968	0.24
309.337	0.23
309.707	0.25
310.076	0.23
310.445	0.26
310.815	0.23
311.184	0.25
311.553	0.21
311.923	0.23
312.292	0.24
312.661	0.25
313.03	0.28
313.399	0.25
313.768	0.25
314.137	0.25
314.506	0.25
314.875	0.26
315.244	0.27
315.613	0.26
315.982	0.29
316.351	0.25
316.72	0.28
317.089	0.29
317.458	0.3
317.826	0.28
318.195	0.3
318.564	0.29
318.933	0.32
319.301	0.31
319.67	0.32
320.038	0.31
320.407	0.32
320.775	0.32
321.144	0.33
321.512	0.34
321.881	0.35
322.249	0.34
322.618	0.34
322.986	0.35
323.354	0.37
323.723	0.37
324.091	0.37
324.459	0.38
324.827	0.37
325.195	0.4
325.564	0.39
325.932	0.39
326.3	0.41
326.668	0.41
327.036	0.41
327.404	0.43
327.772	0.41
328.14	0.43
328.508	0.44
328.875	0.44
329.243	0.47
329.611	0.45
329.979	0.47
330.346	0.47
330.714	0.47
331.082	0.49
331.449	0.48
331.817	0.49
332.185	0.5
332.552	0.52
332.92	0.54
333.287	0.54
333.655	0.55
334.022	0.56
334.389	0.57
334.757	0.58
335.124	0.58
335.491	0.6
335.859	0.62
336.226	0.63
336.593	0.63
336.96	0.65
337.327	0.66
337.695	0.67
338.062	0.67
338.429	0.7
338.796	0.71
339.163	0.72
339.53	0.73
339.897	0.73
340.263	0.76
340.63	0.78
340.997	0.79
341.364	0.8
341.731	0.81
342.097	0.82
342.464	0.83
342.831	0.85
343.197	0.86
343.564	0.88
343.931	0.89
344.297	0.9
344.664	0.92
345.03	0.94
345.396	0.95
345.763	0.96
346.129	0.97
346.496	0.98
346.862	1.01
347.228	1.01
347.594	1.03
347.961	1.04
348.327	1.06
348.693	1.07
349.059	1.08
349.425	1.09
349.791	1.1
350.157	1.12
350.523	1.14
350.889	1.15
351.255	1.14
351.621	1.17
351.987	1.18
352.353	1.18
352.719	1.2
353.084	1.21
353.45	1.22
353.816	1.25
354.181	1.26
354.547	1.27
354.913	1.3
355.278	1.29
355.644	1.3
356.009	1.34
356.375	1.36
356.74	1.37
357.106	1.37
357.471	1.4
357.836	1.39
358.202	1.44
358.567	1.44
358.932	1.46
359.297	1.46
359.663	1.5
360.028	1.52
360.393	1.52
360.758	1.56
361.123	1.55
361.488	1.58
361.853	1.6
362.218	1.61
362.583	1.61
362.948	1.61
363.312	1.67
363.677	1.67
364.042	1.67
364.407	1.71
364.772	1.73
365.136	1.73
365.501	1.7
365.865	1.75
366.23	1.74
366.595	1.73
366.959	1.77
367.324	1.76
367.688	1.82
368.052	1.8
368.417	1.82
368.781	1.8
369.145	1.83
369.51	1.89
369.874	1.81
370.238	1.88
370.602	1.84
370.967	1.82
371.331	1.89
371.695	1.83
372.059	1.91
372.423	1.87
372.787	1.9
373.151	1.86
373.515	1.83
373.878	1.86
374.242	1.83
374.606	1.84
374.97	1.84
375.334	1.81
375.697	1.8
376.061	1.8
376.425	1.79
376.788	1.79
377.152	1.77
377.515	1.73
377.879	1.74
378.242	1.77
378.606	1.75
378.969	1.71
379.333	1.67
379.696	1.68
380.059	1.66
380.422	1.63
380.786	1.61
381.149	1.6
381.512	1.58
381.875	1.57
382.238	1.54
382.601	1.51
382.964	1.49
383.327	1.48
383.69	1.47
384.053	1.46
384.416	1.44
384.779	1.42
385.142	1.42
385.504	1.4
385.867	1.4
386.23	1.39
386.593	1.35
386.955	1.36
387.318	1.36
387.68	1.36
388.043	1.34
388.405	1.33
388.768	1.32
389.13	1.31
389.493	1.3
389.855	1.3
390.217	1.29
390.58	1.29
390.942	1.27
391.304	1.25
391.666	1.23
392.028	1.2
392.391	1.19
392.753	1.18
393.115	1.17
393.477	1.15
393.839	1.13
394.201	1.13
394.563	1.12
394.924	1.12
395.286	1.11
395.648	1.11
396.01	1.11
396.371	1.13
396.733	1.14
397.095	1.14
397.456	1.16
397.818	1.18
398.18	1.21
398.541	1.23
398.903	1.25
399.264	1.27
399.625	1.3
399.987	1.33
400.348	1.34
400.709	1.37
401.071	1.37
401.432	1.37
401.793	1.38
402.154	1.36
402.515	1.35
402.876	1.35
403.238	1.29
403.599	1.27
403.96	1.24
404.32	1.19
404.681	1.15
405.042	1.12
405.403	1.06
405.764	1.02
406.125	0.99
406.485	0.93
406.846	0.88
407.207	0.84
407.567	0.8
407.928	0.75
408.288	0.72
408.649	0.67
409.009	0.64
409.37	0.61
409.73	0.57
410.091	0.55
410.451	0.52
410.811	0.49
411.171	0.46
411.532	0.44
411.892	0.43
412.252	0.41
412.612	0.39
412.972	0.37
413.332	0.35
413.692	0.35
414.052	0.33
414.412	0.32
414.772	0.31
415.132	0.3
415.492	0.29
415.851	0.28
416.211	0.27
416.571	0.25
416.931	0.25
417.29	0.25
417.65	0.23
418.009	0.24
418.369	0.23
418.728	0.23
419.088	0.22
419.447	0.21
419.807	0.21
420.166	0.2
420.525	0.2
420.884	0.19
421.244	0.2
421.603	0.18
421.962	0.19
422.321	0.19
422.68	0.17
423.039	0.17
423.398	0.17
423.757	0.17
424.116	0.17
424.475	0.17
424.834	0.17
425.193	0.17
425.551	0.17
425.91	0.16
426.269	0.16
426.628	0.16
426.986	0.15
427.345	0.16
427.703	0.16
428.062	0.16
428.42	0.16
428.779	0.16
429.137	0.15
429.496	0.15
429.854	0.15
430.212	0.15
430.57	0.15
430.929	0.14
431.287	0.15
431.645	0.14
432.003	0.15
432.361	0.14
432.719	0.15
433.077	0.14
433.435	0.14
433.793	0.14
434.151	0.15
434.509	0.14
434.866	0.14
435.224	0.14
435.582	0.14
435.94	0.15
436.297	0.14
436.655	0.13
437.012	0.15
437.37	0.14
437.727	0.13
438.085	0.15
438.442	0.14
438.8	0.14
439.157	0.14
439.514	0.15
439.872	0.14
440.229	0.15
440.586	0.14
440.943	0.15
441.3	0.15
441.657	0.15
442.014	0.15
442.371	0.15
442.728	0.15
443.085	0.15
443.442	0.15
443.799	0.15
444.156	0.15
444.513	0.15
444.869	0.15
445.226	0.15
445.583	0.16
445.939	0.16
446.296	0.16
446.652	0.16
447.009	0.16
447.365	0.15
447.722	0.16
448.078	0.16
448.434	0.16
448.791	0.17
449.147	0.16
449.503	0.17
449.859	0.16
450.215	0.17
450.571	0.16
450.928	0.17
451.284	0.17
451.64	0.18
451.995	0.17
452.351	0.18
452.707	0.19
453.063	0.17
453.419	0.17
453.775	0.17
454.13	0.18
454.486	0.19
454.842	0.18
455.197	0.18
455.553	0.19
455.908	0.18
456.264	0.19
456.619	0.19
456.975	0.19
457.33	0.19
457.685	0.2
458.04	0.2
458.396	0.2
458.751	0.19
459.106	0.2
459.461	0.21
459.816	0.2
460.171	0.2
460.526	0.21
460.881	0.21
461.236	0.2
461.591	0.22
461.946	0.21
462.301	0.21
462.655	0.22
463.01	0.22
463.365	0.22
463.719	0.22
464.074	0.22
464.428	0.22
464.783	0.23
465.137	0.23
465.492	0.23
465.846	0.23
466.201	0.23
466.555	0.23
466.909	0.24
467.263	0.24
467.618	0.24
467.972	0.25
468.326	0.25
468.68	0.25
469.034	0.25
469.388	0.26
469.742	0.25
470.096	0.25
470.45	0.26
470.804	0.27
471.157	0.27
471.511	0.26
471.865	0.28
472.218	0.28
472.572	0.28
472.926	0.29
473.279	0.28
473.633	0.3
473.986	0.3
474.34	0.3
474.693	0.3
475.046	0.31
475.4	0.31
475.753	0.31
476.106	0.32
476.459	0.33
476.812	0.33
477.165	0.33
477.519	0.34
477.872	0.34
478.224	0.34
478.577	0.35
478.93	0.35
479.283	0.36
479.636	0.36
479.989	0.37
480.341	0.36
480.694	0.37
481.047	0.38
481.399	0.38
481.752	0.38
482.104	0.38
482.457	0.39
482.809	0.39
483.162	0.4
483.514	0.41
483.866	0.41
484.219	0.41
484.571	0.41
484.923	0.42
485.275	0.43
485.627	0.42
485.979	0.43
486.331	0.43
486.683	0.44
487.035	0.44
487.387	0.45
487.739	0.45
488.091	0.45
488.443	0.46
488.794	0.46
489.146	0.46
489.498	0.46
489.849	0.47
490.201	0.48
490.552	0.48
490.904	0.49
491.255	0.49
491.607	0.48
491.958	0.49
492.309	0.5
492.661	0.5
493.012	0.5
493.363	0.51
493.714	0.5
494.065	0.52
494.416	0.52
494.767	0.53
495.118	0.54
495.469	0.54
495.82	0.53
496.171	0.54
496.522	0.54
496.872	0.55
497.223	0.55
497.574	0.56
497.924	0.56
498.275	0.57
498.626	0.57
498.976	0.57
499.327	0.58
499.677	0.58
500.027	0.59
500.378	0.59
500.728	0.59
501.078	0.6
501.428	0.6
501.779	0.6
502.129	0.61
502.479	0.61
502.829	0.61
503.179	0.62
503.529	0.62
503.879	0.63
504.229	0.63
504.578	0.64
504.928	0.63
505.278	0.64
505.628	0.65
505.977	0.65
506.327	0.65
506.676	0.66
507.026	0.67
507.375	0.67
507.725	0.67
508.074	0.68
508.424	0.68
508.773	0.68
509.122	0.68
509.471	0.69
509.82	0.69
510.17	0.69
510.519	0.7
510.868	0.7
511.217	0.71
511.566	0.71
511.915	0.71
512.263	0.71
512.612	0.72
512.961	0.71
513.31	0.73
513.659	0.73
514.007	0.73
514.356	0.74
514.704	0.74
515.053	0.75
515.401	0.75
515.75	0.75
516.098	0.75
516.447	0.76
516.795	0.75
517.143	0.76
517.491	0.77
517.839	0.77
518.188	0.77
518.536	0.78
518.884	0.78
519.232	0.78
519.58	0.79
519.928	0.79
520.275	0.78
520.623	0.8
520.971	0.79
521.319	0.8
521.666	0.8
522.014	0.8
522.362	0.8
522.709	0.81
523.057	0.81
523.404	0.82
523.752	0.81
524.099	0.82
524.446	0.82
524.794	0.82
525.141	0.83
525.488	0.83
525.835	0.84
526.182	0.84
526.529	0.84
526.876	0.84
527.223	0.85
527.57	0.84
527.917	0.84
528.264	0.85
528.611	0.84
528.958	0.85
529.304	0.86
529.651	0.85
529.998	0.85
530.344	0.86
530.691	0.86
531.037	0.86
531.384	0.87
531.73	0.86
532.076	0.87
532.423	0.87
532.769	0.87
533.115	0.88
533.461	0.87
533.807	0.88
534.154	0.87
534.5	0.88
534.846	0.88
535.192	0.88
535.537	0.89
535.883	0.88
536.229	0.89
536.575	0.89
536.921	0.89
537.266	0.9
537.612	0.89
537.957	0.9
538.303	0.89
538.649	0.9
538.994	0.9
539.339	0.9
539.685	0.9
540.03	0.9
540.375	0.91
540.721	0.9
541.066	0.9
541.411	0.91
541.756	0.91
542.101	0.91
542.446	0.91
542.791	0.91
543.136	0.91
543.481	0.91
543.825	0.92
544.17	0.91
544.515	0.91
544.86	0.91
545.204	0.92
545.549	0.92
545.893	0.92
546.238	0.92
546.582	0.92
546.927	0.92
547.271	0.92
547.615	0.92
547.96	0.93
548.304	0.93
548.648	0.92
548.992	0.92
549.336	0.92
549.68	0.93
550.024	0.93
550.368	0.93
550.712	0.93
551.056	0.92
551.4	0.92
551.743	0.92
552.087	0.92
552.431	0.92
552.774	0.92
553.118	0.92
553.462	0.92
553.805	0.93
554.148	0.92
554.492	0.92
554.835	0.92
555.178	0.92
555.522	0.92
555.865	0.92
556.208	0.92
556.551	0.92
556.894	0.92
557.237	0.92
557.58	0.92
557.923	0.91
558.266	0.91
558.609	0.91
558.952	0.91
559.294	0.92
559.637	0.91
559.98	0.91
560.322	0.91
560.665	0.91
561.007	0.91
561.35	0.91
561.692	0.91
562.034	0.91
562.377	0.9
562.719	0.9
563.061	0.91
563.403	0.9
563.745	0.9
564.088	0.91
564.43	0.9
564.772	0.9
565.113	0.89
565.455	0.9
565.797	0.9
566.139	0.9
566.481	0.89
566.822	0.89
567.164	0.89
567.506	0.89
567.847	0.88
568.189	0.88
568.53	0.89
568.872	0.88
569.213	0.88
569.554	0.88
569.895	0.87
570.237	0.87
570.578	0.87
570.919	0.87
571.26	0.87
571.601	0.87
571.942	0.87
572.283	0.86
572.624	0.86
572.965	0.86
573.306	0.86
573.646	0.85
573.987	0.85
574.328	0.84
574.668	0.85
575.009	0.85
575.349	0.84
575.69	0.84
576.03	0.84
576.37	0.83
576.711	0.83
577.051	0.83
577.391	0.83
577.731	0.83
578.072	0.83
578.412	0.83
578.752	0.83
579.092	0.82
579.431	0.81
579.771	0.79
580.111	0.78
580.451	0.79
580.791	0.81
581.13	0.81
581.47	0.81
581.81	0.81
582.149	0.8
582.489	0.81
582.828	0.79
583.167	0.77
583.507	0.73
583.846	0.72
584.185	0.74
584.525	0.77
584.864	0.78
585.203	0.79
585.542	0.8
585.881	0.79
586.22	0.79
586.559	0.79
586.898	0.78
587.236	0.77
587.575	0.76
587.914	0.77
588.252	0.78
588.591	0.78
588.93	0.78
589.268	0.77
589.607	0.78
589.945	0.78
590.283	0.78
590.622	0.78
590.96	0.78
591.298	0.78
591.636	0.78
591.974	0.78
592.313	0.78
592.651	0.79
592.989	0.78
593.326	0.78
593.664	0.78
594.002	0.78
594.34	0.78
594.678	0.77
595.015	0.77
595.353	0.76
595.691	0.77
596.028	0.78
596.366	0.78
596.703	0.77
597.04	0.77
597.378	0.77
597.715	0.78
598.052	0.78
598.389	0.78
598.726	0.77
599.064	0.77
599.401	0.77
599.738	0.77
600.074	0.77
600.411	0.77
600.748	0.76
601.085	0.76
601.422	0.75
601.758	0.75
602.095	0.75
602.432	0.75
602.768	0.75
603.105	0.75
603.441	0.75
603.777	0.75
604.114	0.76
604.45	0.76
604.786	0.75
605.122	0.75
605.459	0.74
605.795	0.75
606.131	0.74
606.467	0.74
606.803	0.74
607.139	0.74
607.474	0.74
607.81	0.73
608.146	0.74
608.482	0.73
608.817	0.73
609.153	0.73
609.488	0.72
609.824	0.72
610.159	0.72
610.495	0.71
610.83	0.72
611.165	0.71
611.5	0.71
611.836	0.71
612.171	0.71
612.506	0.7
612.841	0.71
613.176	0.7
613.511	0.7
613.845	0.7
614.18	0.69
614.515	0.7
614.85	0.69
615.184	0.69
615.519	0.69
615.854	0.68
616.188	0.68
616.523	0.68
616.857	0.67
617.191	0.67
617.526	0.67
617.86	0.67
618.194	0.67
618.528	0.67
618.862	0.67
619.196	0.66
619.53	0.66
619.864	0.66
620.198	0.66
620.532	0.66
620.866	0.65
621.2	0.65
621.533	0.64
621.867	0.65
622.201	0.64
622.534	0.64
622.868	0.64
623.201	0.64
623.534	0.63
623.868	0.63
624.201	0.63
624.534	0.63
624.868	0.63
625.201	0.62
625.534	0.62
625.867	0.62
626.2	0.61
626.533	0.61
626.865	0.61
627.198	0.6
627.531	0.6
627.864	0.59
628.196	0.6
628.529	0.59
628.862	0.58
629.194	0.58
629.527	0.58
629.859	0.58
630.191	0.57
630.524	0.57
630.856	0.57
631.188	0.56
631.52	0.56
631.852	0.56
632.184	0.56
632.516	0.55
632.848	0.55
633.18	0.55
633.512	0.55
633.844	0.54
634.175	0.54
634.507	0.54
634.839	0.53
635.17	0.53
635.502	0.52
635.833	0.52
636.165	0.52
636.496	0.51
636.827	0.5
637.159	0.51
637.49	0.5
637.821	0.5
638.152	0.49
638.483	0.49
638.814	0.49
639.145	0.49
639.476	0.48
639.807	0.48
640.137	0.48
640.468	0.47
640.799	0.47
641.129	0.47
641.46	0.47
641.791	0.46
642.121	0.46
642.451	0.46
642.782	0.45
643.112	0.45
643.442	0.45
643.773	0.45
644.103	0.44
644.433	0.44
644.763	0.44
645.093	0.44
645.423	0.43
645.753	0.43
646.082	0.43
646.412	0.42
646.742	0.42
647.072	0.42
647.401	0.42
647.731	0.42
648.06	0.41
648.39	0.41
648.719	0.41
649.048	0.41
649.378	0.41
649.707	0.41
650.036	0.4
650.365	0.4
650.694	0.4
651.023	0.4
651.352	0.4
651.681	0.4
652.01	0.39
652.339	0.39
652.668	0.39
652.996	0.39
653.325	0.39
653.654	0.39
653.982	0.39
654.311	0.39
654.639	0.39
654.967	0.38
655.296	0.38
655.624	0.38
655.952	0.38
656.28	0.38
656.609	0.38
656.937	0.37
657.265	0.37
657.593	0.25
657.92	0.15
658.248	0.11
658.576	0.13
658.904	0.23
659.231	0.31
659.559	0.36
659.887	0.36
660.214	0.36
660.542	0.36
660.869	0.36
661.196	0.35
661.524	0.35
661.851	0.35
662.178	0.35
662.505	0.35
662.832	0.34
663.159	0.35
663.486	0.34
663.813	0.34
664.14	0.34
664.467	0.34
664.794	0.34
665.12	0.34
665.447	0.33
665.774	0.33
666.1	0.33
666.427	0.33
666.753	0.33
667.079	0.33
667.406	0.33
667.732	0.32
668.058	0.32
668.384	0.32
668.71	0.32
669.036	0.32
669.362	0.32
669.688	0.31
670.014	0.31
670.34	0.31
670.666	0.31
670.991	0.3
671.317	0.31
671.643	0.3
671.968	0.3
672.294	0.3
672.619	0.29
672.945	0.29
673.27	0.29
673.595	0.29
673.92	0.28
674.246	0.28
674.571	0.28
674.896	0.28
675.221	0.28
675.546	0.28
675.87	0.28
676.195	0.28
676.52	0.27
676.845	0.27
677.169	0.27
677.494	0.26
677.819	0.26
678.143	0.26
678.468	0.26
678.792	0.25
679.116	0.25
679.44	0.25
679.765	0.25
680.089	0.24
680.413	0.24
680.737	0.24
681.061	0.23
681.385	0.23
681.709	0.23
682.033	0.23
682.356	0.22
682.68	0.23
683.004	0.23
683.327	0.22
683.651	0.22
683.974	0.21
684.298	0.21
684.621	0.21
684.944	0.21
685.268	0.21
685.591	0.2
685.914	0.2
686.237	0.2
686.56	0.2
686.883	0.19
687.206	0.19
687.529	0.18
687.852	0.18
688.175	0.18
688.497	0.18
688.82	0.18
689.142	0.18
689.465	0.17
689.787	0.17
690.11	0.17
690.432	0.17
690.755	0.17
691.077	0.16
691.399	0.16
691.721	0.17
692.043	0.17
692.365	0.16
692.687	0.16
693.009	0.16
693.331	0.16
693.653	0.15
693.974	0.15
694.296	0.15
694.618	0.15
694.939	0.15
695.261	0.14
695.582	0.14
695.904	0.14
696.225	0.14
696.546	0.14
696.868	0.14
697.189	0.14
697.51	0.13
697.831	0.13
698.152	0.13
698.473	0.13
698.794	0.12
699.114	0.12
699.435	0.11
699.756	0.12
700.077	0.12
700.397	0.13
700.718	0.12
701.038	0.12
701.359	0.12
701.679	0.12
701.999	0.12
702.32	0.12
702.64	0.12
702.96	0.12
703.28	0.12
703.6	0.12
703.92	0.11
704.24	0.11
704.56	0.11
704.879	0.11
705.199	0.11
705.519	0.11
705.838	0.11
706.158	0.11
706.478	0.11
706.797	0.12
707.116	0.11
707.436	0.11
707.755	0.11
708.074	0.11
708.393	0.11
708.712	0.1
709.031	0.09
709.35	0.09
709.669	0.09
709.988	0.09
710.307	0.09
710.626	0.09
710.944	0.1
711.263	0.1
711.582	0.1
711.9	0.11
712.219	0.1
712.537	0.1
712.855	0.1
713.174	0.1
713.492	0.1
713.81	0.11
714.128	0.1
714.446	0.11
714.764	0.1
715.082	0.09
715.4	0.1
715.718	0.1
716.035	0.1
716.353	0.1
716.671	0.1
716.988	0.1
717.306	0.1
717.623	0.1
717.941	0.11
718.258	0.11
718.575	0.11
718.893	0.11
719.21	0.11
719.527	0.11
719.844	0.11
720.161	0.1
720.478	0.11
720.795	0.11
721.112	0.11
721.428	0.11
721.745	0.11
722.062	0.11
722.378	0.11
722.695	0.11
723.011	0.11
723.328	0.11
723.644	0.11
723.96	0.11
724.276	0.11
724.593	0.11
724.909	0.11
725.225	0.11
725.541	0.11
725.857	0.11
726.173	0.11
726.488	0.11
726.804	0.11
727.12	0.11
727.435	0.11
727.751	0.11
728.067	0.11
728.382	0.11
728.697	0.11
729.013	0.11
729.328	0.11
729.643	0.11
729.958	0.11
730.273	0.11
730.588	0.11
730.903	0.11
731.218	0.11
731.533	0.11
731.848	0.11
732.163	0.11
732.477	0.11
732.792	0.11
733.107	0.1
733.421	0.11
733.736	0.1
734.05	0.11
734.364	0.11
734.678	0.11
734.993	0.1
735.307	0.11
735.621	0.1
735.935	0.1
736.249	0.1
736.563	0.11
736.877	0.11
737.19	0.1
737.504	0.1
737.818	0.1
738.131	0.1
738.445	0.1
738.758	0.1
739.072	0.1
739.385	0.1
739.698	0.1
740.012	0.1
740.325	0.1
740.638	0.1
740.951	0.1
741.264	0.1
741.577	0.1
741.89	0.1
742.203	0.1
742.515	0.1
742.828	0.1
743.141	0.1
743.453	0.09
743.766	0.09
744.078	0.09
744.391	0.09
744.703	0.09
745.015	0.09
745.327	0.09
745.639	0.09
745.952	0.09
746.264	0.09
746.575	0.09
746.887	0.09
747.199	0.09
747.511	0.08
747.823	0.08
748.134	0.08
748.446	0.08
748.757	0.08
749.069	0.08
749.38	0.07
749.692	0.08
750.003	0.08
750.314	0.08
750.625	0.08
750.936	0.08
751.248	0.08
751.559	0.08
751.869	0.08
752.18	0.08
752.491	0.08
752.802	0.07
753.112	0.07
753.423	0.07
753.734	0.07
754.044	0.07
754.355	0.07
754.665	0.07
754.975	0.07
755.285	0.07
755.596	0.07
755.906	0.07
756.216	0.06
756.526	0.07
756.836	0.07
757.146	0.06
757.455	0.06
757.765	0.06
758.075	0.06
758.385	0.06
758.694	0.06
759.004	0.06
759.313	0.05
759.622	0.06
759.932	0.06
760.241	0.06
760.55	0.06
760.859	0.06
761.168	0.06
761.477	0.06
761.786	0.06
762.095	0.05
762.404	0.05
762.713	0.06
763.021	0.06
763.33	0.06
763.639	0.06
763.947	0.06
764.256	0.06
764.564	0.06
764.872	0.06
765.181	0.06
765.489	0.06
765.797	0.05
766.105	0.05
766.413	0.05
766.721	0.05
767.029	0.05
767.337	0.06
767.644	0.06
767.952	0.06
768.26	0.06
768.567	0.06
768.875	0.06
769.182	0.06
769.49	0.06
769.797	0.05
770.104	0.05
770.411	0.05
770.718	0.05
771.026	0.05
771.333	0.06
771.639	0.06
771.946	0.06
772.253	0.06
772.56	0.06
772.867	0.06
773.173	0.06
773.48	0.06
773.786	0.06
774.093	0.06
774.399	0.06
774.705	0.06
775.012	0.06
775.318	0.06
775.624	0.05
775.93	0.06
776.236	0.06
776.542	0.06
776.848	0.06
777.154	0.06
777.459	0.05
777.765	0.05
778.071	0.05
778.376	0.05
778.682	0.06
778.987	0.06
779.292	0.06
779.598	0.06
779.903	0.06
780.208	0.06
780.513	0.06
780.818	0.06
781.123	0.06
781.428	0.05
781.733	0.06
782.038	0.05
782.343	0.05
782.647	0.05
782.952	0.05
783.256	0.05
783.561	0.06
783.865	0.06
784.17	0.06
784.474	0.06
784.778	0.06
785.082	0.06
785.386	0.06
785.69	0.06
785.994	0.06
786.298	0.06
786.602	0.06
786.906	0.06
787.209	0.07
787.513	0.07
787.817	0.07
788.12	0.07
788.424	0.07
788.727	0.07
789.03	0.06
789.333	0.06
789.637	0.07
789.94	0.07
790.243	0.07
790.546	0.07
790.849	0.07
791.152	0.07
791.454	0.07
791.757	0.07
792.06	0.07
792.362	0.07
792.665	0.07
792.967	0.07
793.27	0.07
793.572	0.07
793.874	0.07
794.177	0.07
794.479	0.07
794.781	0.07
795.083	0.07
795.385	0.07
795.687	0.07
795.989	0.07
796.29	0.07
796.592	0.07
796.894	0.07
797.195	0.08
797.497	0.08
797.798	0.08
798.1	0.08
798.401	0.08
798.702	0.07
799.003	0.07
799.304	0.07
799.605	0.07
799.906	0.07
800.207	0.07
800.508	0.08
800.809	0.07
801.11	0.07
801.41	0.07
801.711	0.08
802.011	0.08
802.312	0.08
802.612	0.08
802.913	0.08
803.213	0.08
803.513	0.08
803.813	0.08
804.113	0.08
804.413	0.07
804.713	0.07
805.013	0.07
805.313	0.07
805.613	0.08
805.912	0.08
806.212	0.08
806.511	0.08
806.811	0.08
807.11	0.08
807.41	0.08
807.709	0.08
808.008	0.09
808.307	0.08
808.606	0.09
808.905	0.09
809.204	0.09
809.503	0.09
809.802	0.09
810.101	0.08
810.399	0.08
810.698	0.09
810.997	0.09
811.295	0.08
811.593	0.09
811.892	0.09
812.19	0.09
812.488	0.08
812.786	0.08
813.084	0.08
813.383	0.09
813.68	0.08
813.978	0.08
814.276	0.09
814.574	0.09
814.872	0.1
815.169	0.09
815.467	0.1
815.764	0.1
816.062	0.1
816.359	0.1
816.656	0.1
816.954	0.1
817.251	0.1
817.548	0.1
817.845	0.1
818.142	0.1
818.439	0.1
818.735	0.09
819.032	0.1
819.329	0.1
819.626	0.1
819.922	0.1
820.219	0.1
820.515	0.1
820.811	0.1
821.108	0.1
821.404	0.1
821.7	0.1
821.996	0.11
822.292	0.1
822.588	0.1
822.884	0.1
823.18	0.11
823.475	0.11
823.771	0.11
824.067	0.11
824.362	0.11
824.658	0.1
824.953	0.1
825.249	0.1
825.544	0.11
825.839	0.11
826.134	0.11
826.429	0.1
826.724	0.11
827.019	0.1
827.314	0.11
827.609	0.11
827.904	0.11
828.198	0.11
828.493	0.11
828.787	0.11
829.082	0.11
829.376	0.11
829.671	0.11
829.965	0.11
830.259	0.12
830.553	0.12
830.847	0.11
831.141	0.12
831.435	0.12
831.729	0.12
832.023	0.12
832.317	0.12
832.61	0.12
832.904	0.12
833.197	0.12
833.491	0.12
833.784	0.12
834.077	0.12
834.371	0.12
834.664	0.12
834.957	0.12
835.25	0.12
835.543	0.12
835.836	0.12
836.129	0.11
836.421	0.11
836.714	0.12
837.007	0.12
837.299	0.12
837.592	0.12
837.884	0.12
838.177	0.12
838.469	0.12
838.761	0.12
839.053	0.12
839.345	0.12
839.637	0.13
839.929	0.13
840.221	0.13
840.513	0.12
840.805	0.12
841.096	0.12
841.388	0.12
841.68	0.13
841.971	0.12
842.262	0.13
842.554	0.13
842.845	0.13
843.136	0.13
843.427	0.14
843.718	0.13
844.009	0.13
844.3	0.14
844.591	0.13
844.882	0.13
845.173	0.13
845.463	0.13
845.754	0.14
846.044	0.14
846.335	0.14
846.625	0.14
846.915	0.14
847.206	0.14
847.496	0.14
847.786	0.14
848.076	0.14
848.366	0.15
848.656	0.14
848.945	0.14
849.235	0.14
849.525	0.14
849.814	0.14
850.104	0.15
850.393	0.15
850.683	0.15
850.972	0.14
851.261	0.14
851.551	0.15
851.84	0.15
852.129	0.14
852.418	0.15
852.707	0.14
852.995	0.14
853.284	0.15
853.573	0.15
853.862	0.15
854.15	0.14
854.439	0.14
854.727	0.14
855.015	0.15
855.304	0.15
855.592	0.15
855.88	0.15
856.168	0.15
856.456	0.16
856.744	0.16
857.032	0.16
857.32	0.15
857.607	0.17
857.895	0.15
858.183	0.15
858.47	0.15
858.757	0.16
859.045	0.16
859.332	0.16
859.619	0.15
859.907	0.16
860.194	0.17
860.481	0.17
860.768	0.15
861.054	0.15
861.341	0.15
861.628	0.16
861.915	0.17
862.201	0.17
862.488	0.18
862.774	0.16
863.061	0.17
863.347	0.13
863.633	0.17
863.919	0.16
864.205	0.13
864.491	0.15
864.777	0.14
865.063	0.17
865.349	0.16
865.635	0.16
865.92	0.17
866.206	0.18
866.492	0.19
866.777	0.18
867.062	0.17
867.348	0.14
867.633	0.13
867.918	0.16
868.203	0.17
868.488	0.18
868.773	0.17
869.058	0.16
869.343	0.17
869.628	0.16
869.912	0.16
870.197	0.17
870.482	0.19
870.766	0.17
871.05	0.14
871.335	0.16
871.619	0.17
871.903	0.19
872.187	0.13
872.471	0.18
872.755	0.14
873.039	0.14
873.323	0.2
873.607	0.16
873.89	0.19
874.174	0.16
874.458	0.19
874.741	0.18
875.024	0.18
875.308	0.18
875.591	0.27
875.874	0.14
876.157	0.21
876.44	0.18
876.723	0.2
877.006	0.14
877.289	0.11
877.572	0.14
877.854	0.09
878.137	0.13
878.42	0.1
878.702	0.23
878.984	0.11
879.267	0.14
879.549	0.1
879.831	0.17
880.113	0.17
880.395	0.08
880.677	0.07
880.959	0.15
