Data from Rubpy_BV_1500_EDTA_Buffered_Absorbance_14-28-57-650.txt Node
Date: Wed Jul 01 14:28:57 BST 2026
User: fpm-admin
Spectrometer: OFX00224
Trigger mode: 0
Integration Time (sec): 7.000000E-2
Scans to average: 3
Nonlinearity correction enabled: false
Boxcar width: 0
Storing dark spectrum: false
XAxis mode: Wavelengths
Number of Pixels in Spectrum: 2136
>>>>>Begin Spectral Data<<<<<
154.91	0.3
155.289	0.25
155.669	-0
156.048	-0
156.428	-0
156.807	-0
157.186	-0.48
157.566	-0.24
157.945	0.33
158.325	-0
158.704	-0
159.083	-0
159.462	-0.09
159.842	0.09
160.221	-0.61
160.6	-0
160.979	-0.09
161.359	-0
161.738	0.4
162.117	0.63
162.496	-0.44
162.875	-0.58
163.254	0.52
163.633	-0
164.012	-0.44
164.391	0.12
164.77	0.18
165.149	-0
165.528	-0
165.907	-0
166.286	-0.2
166.665	-0
167.044	-0
167.423	0.43
167.802	-0
168.181	0.62
168.559	-0.05
168.938	0.13
169.317	1.1
169.696	0.01
170.074	-0
170.453	-0.02
170.832	-0
171.21	0.34
171.589	0.04
171.968	-0.65
172.346	0.37
172.725	0.43
173.103	-0
173.482	-1.35
173.861	0.17
174.239	-1.04
174.617	0.23
174.996	-0.01
175.374	0.12
175.753	0.1
176.131	-0
176.51	-0
176.888	0.62
177.266	-0
177.645	0.13
178.023	0.55
178.401	-0.17
178.779	0.05
179.158	0.4
179.536	-0.46
179.914	0.02
180.292	0.3
180.67	-0
181.048	-0
181.427	-0.46
181.805	-0.26
182.183	-0
182.561	-0
182.939	-0
183.317	-0
183.695	0.19
184.073	0.16
184.451	0.04
184.829	0.43
185.206	-0
185.584	0.18
185.962	-0.07
186.34	-0
186.718	-0.4
187.096	-0
187.473	-0.39
187.851	0.48
188.229	0.15
188.607	0.2
188.984	0.28
189.362	0.24
189.74	0.16
190.117	0.16
190.495	0.13
190.872	0.26
191.25	0.29
191.627	0.26
192.005	0.16
192.382	0.29
192.76	0.25
193.137	0.36
193.515	0.18
193.892	0.23
194.269	0.09
194.647	0.52
195.024	0.37
195.401	0.21
195.779	0.24
196.156	0.35
196.533	0.3
196.91	0.13
197.288	0.24
197.665	0.3
198.042	0.18
198.419	0.38
198.796	0.25
199.173	0.29
199.55	0.16
199.927	0.29
200.304	0.31
200.681	0.21
201.058	0.33
201.435	0.27
201.812	0.38
202.189	0.2
202.566	0.18
202.943	0.24
203.32	0.19
203.697	0.3
204.073	0.28
204.45	0.28
204.827	0.37
205.204	0.19
205.58	0.29
205.957	0.23
206.334	0.24
206.71	0.21
207.087	0.34
207.464	0.25
207.84	0.29
208.217	0.27
208.593	0.4
208.97	0.35
209.346	0.42
209.723	0.32
210.099	0.31
210.476	0.28
210.852	0.28
211.228	0.21
211.605	0.32
211.981	0.29
212.357	0.2
212.733	0.19
213.11	0.19
213.486	0.18
213.862	0.21
214.238	0.27
214.614	0.31
214.991	0.21
215.367	0.15
215.743	0.28
216.119	0.27
216.495	0.23
216.871	0.3
217.247	0.23
217.623	0.24
217.999	0.31
218.375	0.22
218.751	0.32
219.127	0.32
219.502	0.29
219.878	0.29
220.254	0.38
220.63	0.31
221.006	0.18
221.381	0.36
221.757	0.35
222.133	0.18
222.508	0.36
222.884	0.27
223.26	0.33
223.635	0.34
224.011	0.27
224.386	0.3
224.762	0.37
225.137	0.24
225.513	0.43
225.888	0.34
226.264	0.4
226.639	0.45
227.014	0.31
227.39	0.35
227.765	0.38
228.14	0.39
228.516	0.4
228.891	0.42
229.266	0.39
229.641	0.37
230.017	0.31
230.392	0.33
230.767	0.19
231.142	0.32
231.517	0.24
231.892	0.47
232.267	0.35
232.642	0.36
233.017	0.3
233.392	0.3
233.767	0.23
234.142	0.32
234.517	0.4
234.892	0.32
235.267	0.39
235.641	0.13
236.016	0.3
236.391	0.34
236.766	0.21
237.14	0.24
237.515	0.23
237.89	0.47
238.264	0.35
238.639	0.26
239.014	0.24
239.388	0.23
239.763	0.29
240.137	0.29
240.512	0.27
240.886	0.34
241.261	0.36
241.635	0.23
242.009	0.36
242.384	0.47
242.758	0.38
243.132	0.27
243.507	0.21
243.881	0.26
244.255	0.27
244.629	0.32
245.004	0.26
245.378	0.4
245.752	0.37
246.126	0.36
246.5	0.31
246.874	0.22
247.248	0.26
247.622	0.17
247.996	0.34
248.37	0.29
248.744	0.31
249.118	0.28
249.492	0.33
249.866	0.26
250.24	0.28
250.613	0.23
250.987	0.38
251.361	0.32
251.735	0.46
252.108	0.23
252.482	0.22
252.856	0.25
253.229	0.38
253.603	0.36
253.977	0.34
254.35	0.39
254.724	0.2
255.097	0.25
255.471	0.25
255.844	0.34
256.218	0.29
256.591	0.51
256.964	0.18
257.338	0.22
257.711	0.39
258.084	0.31
258.458	0.26
258.831	0.35
259.204	0.32
259.577	0.33
259.95	0.36
260.323	0.32
260.697	0.18
261.07	0.43
261.443	0.27
261.816	0.29
262.189	0.26
262.562	0.36
262.935	0.45
263.308	0.27
263.68	0.17
264.053	0.27
264.426	0.27
264.799	0.29
265.172	0.34
265.545	0.3
265.917	0.3
266.29	0.3
266.663	0.33
267.035	0.27
267.408	0.26
267.781	0.32
268.153	0.36
268.526	0.33
268.898	0.37
269.271	0.32
269.643	0.31
270.016	0.25
270.388	0.43
270.76	0.28
271.133	0.29
271.505	0.28
271.877	0.36
272.25	0.31
272.622	0.44
272.994	0.35
273.366	0.33
273.739	0.35
274.111	0.42
274.483	0.3
274.855	0.26
275.227	0.32
275.599	0.22
275.971	0.34
276.343	0.25
276.715	0.25
277.087	0.34
277.459	0.35
277.831	0.38
278.203	0.27
278.574	0.27
278.946	0.31
279.318	0.24
279.69	0.29
280.061	0.32
280.433	0.3
280.805	0.25
281.176	0.27
281.548	0.34
281.92	0.28
282.291	0.29
282.663	0.35
283.034	0.29
283.406	0.32
283.777	0.32
284.148	0.32
284.52	0.3
284.891	0.29
285.262	0.32
285.634	0.27
286.005	0.35
286.376	0.31
286.747	0.28
287.119	0.29
287.49	0.3
287.861	0.31
288.232	0.36
288.603	0.31
288.974	0.39
289.345	0.32
289.716	0.3
290.087	0.43
290.458	0.39
290.829	0.23
291.2	0.28
291.571	0.32
291.941	0.33
292.312	0.27
292.683	0.3
293.054	0.33
293.424	0.29
293.795	0.26
294.166	0.39
294.536	0.32
294.907	0.32
295.277	0.45
295.648	0.41
296.018	0.3
296.389	0.3
296.759	0.3
297.13	0.29
297.5	0.41
297.871	0.36
298.241	0.26
298.611	0.33
298.981	0.4
299.352	0.34
299.722	0.35
300.092	0.37
300.462	0.29
300.832	0.29
301.202	0.35
301.573	0.3
301.943	0.33
302.313	0.39
302.683	0.36
303.053	0.4
303.422	0.31
303.792	0.28
304.162	0.31
304.532	0.24
304.902	0.25
305.272	0.27
305.641	0.27
306.011	0.3
306.381	0.23
306.75	0.28
307.12	0.29
307.49	0.25
307.859	0.27
308.229	0.25
308.598	0.25
308.968	0.21
309.337	0.27
309.707	0.23
310.076	0.25
310.445	0.27
310.815	0.23
311.184	0.24
311.553	0.25
311.923	0.23
312.292	0.24
312.661	0.24
313.03	0.27
313.399	0.26
313.768	0.26
314.137	0.24
314.506	0.24
314.875	0.27
315.244	0.26
315.613	0.3
315.982	0.28
316.351	0.27
316.72	0.28
317.089	0.29
317.458	0.3
317.826	0.29
318.195	0.31
318.564	0.31
318.933	0.31
319.301	0.32
319.67	0.33
320.038	0.33
320.407	0.33
320.775	0.33
321.144	0.34
321.512	0.35
321.881	0.36
322.249	0.36
322.618	0.35
322.986	0.37
323.354	0.37
323.723	0.38
324.091	0.39
324.459	0.39
324.827	0.38
325.195	0.4
325.564	0.39
325.932	0.41
326.3	0.41
326.668	0.42
327.036	0.43
327.404	0.44
327.772	0.43
328.14	0.44
328.508	0.44
328.875	0.44
329.243	0.47
329.611	0.47
329.979	0.48
330.346	0.48
330.714	0.49
331.082	0.5
331.449	0.51
331.817	0.52
332.185	0.52
332.552	0.54
332.92	0.55
333.287	0.55
333.655	0.56
334.022	0.58
334.389	0.6
334.757	0.6
335.124	0.6
335.491	0.62
335.859	0.64
336.226	0.64
336.593	0.66
336.96	0.67
337.327	0.68
337.695	0.7
338.062	0.7
338.429	0.72
338.796	0.72
339.163	0.74
339.53	0.76
339.897	0.77
340.263	0.78
340.63	0.8
340.997	0.82
341.364	0.82
341.731	0.84
342.097	0.85
342.464	0.86
342.831	0.87
343.197	0.88
343.564	0.91
343.931	0.92
344.297	0.93
344.664	0.95
345.03	0.96
345.396	0.97
345.763	1
346.129	0.99
346.496	1.03
346.862	1.03
347.228	1.05
347.594	1.07
347.961	1.08
348.327	1.08
348.693	1.1
349.059	1.11
349.425	1.12
349.791	1.13
350.157	1.15
350.523	1.15
350.889	1.18
351.255	1.19
351.621	1.2
351.987	1.2
352.353	1.23
352.719	1.23
353.084	1.25
353.45	1.26
353.816	1.28
354.181	1.29
354.547	1.32
354.913	1.33
355.278	1.33
355.644	1.34
356.009	1.36
356.375	1.39
356.74	1.42
357.106	1.42
357.471	1.42
357.836	1.45
358.202	1.48
358.567	1.48
358.932	1.5
359.297	1.52
359.663	1.54
360.028	1.55
360.393	1.56
360.758	1.6
361.123	1.61
361.488	1.61
361.853	1.62
362.218	1.65
362.583	1.67
362.948	1.66
363.312	1.67
363.677	1.71
364.042	1.71
364.407	1.73
364.772	1.76
365.136	1.73
365.501	1.79
365.865	1.81
366.23	1.79
366.595	1.82
366.959	1.81
367.324	1.83
367.688	1.86
368.052	1.87
368.417	1.87
368.781	1.87
369.145	1.9
369.51	1.89
369.874	1.89
370.238	1.9
370.602	1.88
370.967	1.87
371.331	1.93
371.695	1.88
372.059	1.97
372.423	1.98
372.787	1.88
373.151	1.88
373.515	1.9
373.878	1.9
374.242	1.87
374.606	1.88
374.97	1.89
375.334	1.8
375.697	1.85
376.061	1.83
376.425	1.82
376.788	1.83
377.152	1.76
377.515	1.76
377.879	1.76
378.242	1.77
378.606	1.77
378.969	1.72
379.333	1.77
379.696	1.7
380.059	1.67
380.422	1.67
380.786	1.66
381.149	1.67
381.512	1.62
381.875	1.62
382.238	1.59
382.601	1.57
382.964	1.56
383.327	1.51
383.69	1.51
384.053	1.48
384.416	1.48
384.779	1.46
385.142	1.47
385.504	1.44
385.867	1.43
386.23	1.41
386.593	1.41
386.955	1.38
387.318	1.39
387.68	1.39
388.043	1.37
388.405	1.37
388.768	1.35
389.13	1.36
389.493	1.34
389.855	1.33
390.217	1.32
390.58	1.31
390.942	1.3
391.304	1.29
391.666	1.26
392.028	1.25
392.391	1.22
392.753	1.2
393.115	1.19
393.477	1.17
393.839	1.15
394.201	1.15
394.563	1.14
394.924	1.13
395.286	1.15
395.648	1.13
396.01	1.13
396.371	1.15
396.733	1.16
397.095	1.18
397.456	1.2
397.818	1.21
398.18	1.24
398.541	1.25
398.903	1.28
399.264	1.31
399.625	1.33
399.987	1.36
400.348	1.36
400.709	1.4
401.071	1.4
401.432	1.4
401.793	1.4
402.154	1.39
402.515	1.36
402.876	1.36
403.238	1.33
403.599	1.31
403.96	1.25
404.32	1.21
404.681	1.18
405.042	1.14
405.403	1.1
405.764	1.05
406.125	0.99
406.485	0.95
406.846	0.9
407.207	0.85
407.567	0.82
407.928	0.77
408.288	0.74
408.649	0.7
409.009	0.65
409.37	0.63
409.73	0.58
410.091	0.56
410.451	0.53
410.811	0.5
411.171	0.49
411.532	0.45
411.892	0.44
412.252	0.41
412.612	0.4
412.972	0.38
413.332	0.37
413.692	0.35
414.052	0.34
414.412	0.32
414.772	0.31
415.132	0.3
415.492	0.29
415.851	0.29
416.211	0.28
416.571	0.26
416.931	0.26
417.29	0.26
417.65	0.24
418.009	0.25
418.369	0.23
418.728	0.23
419.088	0.23
419.447	0.22
419.807	0.22
420.166	0.22
420.525	0.21
420.884	0.2
421.244	0.2
421.603	0.2
421.962	0.19
422.321	0.19
422.68	0.18
423.039	0.18
423.398	0.18
423.757	0.18
424.116	0.18
424.475	0.17
424.834	0.17
425.193	0.17
425.551	0.17
425.91	0.17
426.269	0.16
426.628	0.17
426.986	0.16
427.345	0.17
427.703	0.16
428.062	0.15
428.42	0.16
428.779	0.17
429.137	0.16
429.496	0.15
429.854	0.15
430.212	0.15
430.57	0.15
430.929	0.15
431.287	0.15
431.645	0.14
432.003	0.15
432.361	0.14
432.719	0.15
433.077	0.15
433.435	0.15
433.793	0.15
434.151	0.15
434.509	0.15
434.866	0.15
435.224	0.15
435.582	0.14
435.94	0.15
436.297	0.15
436.655	0.14
437.012	0.15
437.37	0.14
437.727	0.15
438.085	0.14
438.442	0.15
438.8	0.15
439.157	0.14
439.514	0.15
439.872	0.14
440.229	0.15
440.586	0.15
440.943	0.16
441.3	0.15
441.657	0.16
442.014	0.15
442.371	0.15
442.728	0.15
443.085	0.16
443.442	0.16
443.799	0.15
444.156	0.15
444.513	0.16
444.869	0.16
445.226	0.16
445.583	0.16
445.939	0.15
446.296	0.17
446.652	0.17
447.009	0.17
447.365	0.16
447.722	0.17
448.078	0.16
448.434	0.17
448.791	0.17
449.147	0.16
449.503	0.17
449.859	0.17
450.215	0.17
450.571	0.17
450.928	0.17
451.284	0.18
451.64	0.18
451.995	0.17
452.351	0.19
452.707	0.2
453.063	0.18
453.419	0.19
453.775	0.19
454.13	0.19
454.486	0.2
454.842	0.2
455.197	0.18
455.553	0.2
455.908	0.2
456.264	0.19
456.619	0.19
456.975	0.19
457.33	0.2
457.685	0.2
458.04	0.2
458.396	0.2
458.751	0.2
459.106	0.21
459.461	0.21
459.816	0.21
460.171	0.21
460.526	0.21
460.881	0.22
461.236	0.22
461.591	0.22
461.946	0.21
462.301	0.21
462.655	0.22
463.01	0.23
463.365	0.23
463.719	0.22
464.074	0.23
464.428	0.23
464.783	0.23
465.137	0.24
465.492	0.24
465.846	0.23
466.201	0.24
466.555	0.24
466.909	0.23
467.263	0.24
467.618	0.25
467.972	0.25
468.326	0.26
468.68	0.26
469.034	0.26
469.388	0.26
469.742	0.26
470.096	0.26
470.45	0.28
470.804	0.28
471.157	0.27
471.511	0.27
471.865	0.29
472.218	0.29
472.572	0.29
472.926	0.29
473.279	0.29
473.633	0.3
473.986	0.31
474.34	0.31
474.693	0.32
475.046	0.32
475.4	0.32
475.753	0.33
476.106	0.32
476.459	0.34
476.812	0.34
477.165	0.34
477.519	0.35
477.872	0.35
478.224	0.36
478.577	0.36
478.93	0.36
479.283	0.37
479.636	0.37
479.989	0.38
480.341	0.38
480.694	0.39
481.047	0.39
481.399	0.39
481.752	0.4
482.104	0.4
482.457	0.4
482.809	0.41
483.162	0.41
483.514	0.42
483.866	0.42
484.219	0.42
484.571	0.43
484.923	0.43
485.275	0.44
485.627	0.44
485.979	0.44
486.331	0.45
486.683	0.45
487.035	0.46
487.387	0.45
487.739	0.46
488.091	0.47
488.443	0.47
488.794	0.48
489.146	0.48
489.498	0.49
489.849	0.49
490.201	0.49
490.552	0.5
490.904	0.49
491.255	0.5
491.607	0.51
491.958	0.51
492.309	0.52
492.661	0.52
493.012	0.52
493.363	0.53
493.714	0.53
494.065	0.54
494.416	0.54
494.767	0.54
495.118	0.55
495.469	0.55
495.82	0.55
496.171	0.56
496.522	0.57
496.872	0.57
497.223	0.57
497.574	0.57
497.924	0.58
498.275	0.59
498.626	0.59
498.976	0.59
499.327	0.59
499.677	0.6
500.027	0.6
500.378	0.6
500.728	0.62
501.078	0.62
501.428	0.62
501.779	0.63
502.129	0.63
502.479	0.63
502.829	0.64
503.179	0.64
503.529	0.65
503.879	0.65
504.229	0.66
504.578	0.66
504.928	0.66
505.278	0.66
505.628	0.67
505.977	0.67
506.327	0.68
506.676	0.68
507.026	0.68
507.375	0.7
507.725	0.69
508.074	0.69
508.424	0.7
508.773	0.7
509.122	0.7
509.471	0.71
509.82	0.71
510.17	0.71
510.519	0.72
510.868	0.73
511.217	0.72
511.566	0.73
511.915	0.74
512.263	0.74
512.612	0.74
512.961	0.75
513.31	0.75
513.659	0.75
514.007	0.75
514.356	0.76
514.704	0.76
515.053	0.77
515.401	0.78
515.75	0.78
516.098	0.78
516.447	0.78
516.795	0.79
517.143	0.79
517.491	0.79
517.839	0.79
518.188	0.79
518.536	0.8
518.884	0.81
519.232	0.81
519.58	0.81
519.928	0.81
520.275	0.81
520.623	0.82
520.971	0.83
521.319	0.83
521.666	0.83
522.014	0.83
522.362	0.83
522.709	0.84
523.057	0.83
523.404	0.84
523.752	0.84
524.099	0.85
524.446	0.85
524.794	0.86
525.141	0.85
525.488	0.86
525.835	0.85
526.182	0.86
526.529	0.86
526.876	0.87
527.223	0.87
527.57	0.87
527.917	0.86
528.264	0.87
528.611	0.87
528.958	0.87
529.304	0.88
529.651	0.88
529.998	0.89
530.344	0.89
530.691	0.89
531.037	0.89
531.384	0.89
531.73	0.9
532.076	0.9
532.423	0.89
532.769	0.9
533.115	0.91
533.461	0.9
533.807	0.91
534.154	0.91
534.5	0.91
534.846	0.9
535.192	0.91
535.537	0.91
535.883	0.92
536.229	0.92
536.575	0.92
536.921	0.92
537.266	0.92
537.612	0.93
537.957	0.92
538.303	0.94
538.649	0.92
538.994	0.93
539.339	0.93
539.685	0.93
540.03	0.93
540.375	0.94
540.721	0.93
541.066	0.93
541.411	0.93
541.756	0.94
542.101	0.93
542.446	0.94
542.791	0.93
543.136	0.94
543.481	0.93
543.825	0.95
544.17	0.94
544.515	0.94
544.86	0.95
545.204	0.95
545.549	0.94
545.893	0.94
546.238	0.95
546.582	0.95
546.927	0.95
547.271	0.95
547.615	0.95
547.96	0.95
548.304	0.95
548.648	0.95
548.992	0.95
549.336	0.96
549.68	0.95
550.024	0.96
550.368	0.96
550.712	0.95
551.056	0.95
551.4	0.96
551.743	0.95
552.087	0.95
552.431	0.95
552.774	0.95
553.118	0.95
553.462	0.96
553.805	0.95
554.148	0.95
554.492	0.95
554.835	0.95
555.178	0.95
555.522	0.95
555.865	0.95
556.208	0.94
556.551	0.95
556.894	0.95
557.237	0.95
557.58	0.94
557.923	0.94
558.266	0.94
558.609	0.94
558.952	0.94
559.294	0.94
559.637	0.93
559.98	0.94
560.322	0.94
560.665	0.93
561.007	0.93
561.35	0.94
561.692	0.94
562.034	0.93
562.377	0.93
562.719	0.93
563.061	0.93
563.403	0.93
563.745	0.93
564.088	0.93
564.43	0.93
564.772	0.93
565.113	0.93
565.455	0.93
565.797	0.92
566.139	0.92
566.481	0.92
566.822	0.92
567.164	0.91
567.506	0.92
567.847	0.92
568.189	0.92
568.53	0.92
568.872	0.9
569.213	0.9
569.554	0.9
569.895	0.9
570.237	0.9
570.578	0.9
570.919	0.9
571.26	0.89
571.601	0.89
571.942	0.89
572.283	0.89
572.624	0.88
572.965	0.88
573.306	0.88
573.646	0.88
573.987	0.87
574.328	0.88
574.668	0.88
575.009	0.87
575.349	0.87
575.69	0.86
576.03	0.86
576.37	0.86
576.711	0.86
577.051	0.86
577.391	0.86
577.731	0.86
578.072	0.85
578.412	0.85
578.752	0.85
579.092	0.84
579.431	0.84
579.771	0.82
580.111	0.8
580.451	0.81
580.791	0.83
581.13	0.83
581.47	0.84
581.81	0.83
582.149	0.83
582.489	0.83
582.828	0.82
583.167	0.79
583.507	0.75
583.846	0.74
584.185	0.77
584.525	0.79
584.864	0.81
585.203	0.82
585.542	0.82
585.881	0.82
586.22	0.82
586.559	0.81
586.898	0.8
587.236	0.79
587.575	0.79
587.914	0.79
588.252	0.8
588.591	0.81
588.93	0.81
589.268	0.8
589.607	0.8
589.945	0.8
590.283	0.8
590.622	0.8
590.96	0.81
591.298	0.8
591.636	0.8
591.974	0.81
592.313	0.81
592.651	0.81
592.989	0.8
593.326	0.8
593.664	0.8
594.002	0.8
594.34	0.8
594.678	0.79
595.015	0.79
595.353	0.78
595.691	0.79
596.028	0.8
596.366	0.79
596.703	0.79
597.04	0.79
597.378	0.8
597.715	0.8
598.052	0.8
598.389	0.79
598.726	0.79
599.064	0.8
599.401	0.8
599.738	0.79
600.074	0.79
600.411	0.79
600.748	0.78
601.085	0.78
601.422	0.78
601.758	0.77
602.095	0.77
602.432	0.77
602.768	0.77
603.105	0.78
603.441	0.78
603.777	0.78
604.114	0.77
604.45	0.78
604.786	0.78
605.122	0.77
605.459	0.77
605.795	0.77
606.131	0.76
606.467	0.76
606.803	0.76
607.139	0.76
607.474	0.76
607.81	0.75
608.146	0.75
608.482	0.75
608.817	0.75
609.153	0.75
609.488	0.74
609.824	0.74
610.159	0.74
610.495	0.73
610.83	0.74
611.165	0.74
611.5	0.73
611.836	0.73
612.171	0.73
612.506	0.73
612.841	0.73
613.176	0.72
613.511	0.72
613.845	0.72
614.18	0.72
614.515	0.72
614.85	0.71
615.184	0.71
615.519	0.71
615.854	0.71
616.188	0.7
616.523	0.7
616.857	0.69
617.191	0.69
617.526	0.69
617.86	0.69
618.194	0.69
618.528	0.69
618.862	0.69
619.196	0.69
619.53	0.68
619.864	0.68
620.198	0.68
620.532	0.67
620.866	0.67
621.2	0.67
621.533	0.66
621.867	0.66
622.201	0.66
622.534	0.66
622.868	0.66
623.201	0.65
623.534	0.65
623.868	0.65
624.201	0.64
624.534	0.64
624.868	0.64
625.201	0.64
625.534	0.63
625.867	0.64
626.2	0.63
626.533	0.63
626.865	0.62
627.198	0.62
627.531	0.62
627.864	0.61
628.196	0.61
628.529	0.61
628.862	0.6
629.194	0.6
629.527	0.6
629.859	0.59
630.191	0.59
630.524	0.59
630.856	0.58
631.188	0.58
631.52	0.58
631.852	0.57
632.184	0.57
632.516	0.57
632.848	0.56
633.18	0.57
633.512	0.56
633.844	0.55
634.175	0.55
634.507	0.55
634.839	0.55
635.17	0.54
635.502	0.54
635.833	0.53
636.165	0.53
636.496	0.52
636.827	0.52
637.159	0.52
637.49	0.52
637.821	0.51
638.152	0.51
638.483	0.51
638.814	0.5
639.145	0.5
639.476	0.49
639.807	0.49
640.137	0.49
640.468	0.49
640.799	0.49
641.129	0.48
641.46	0.48
641.791	0.47
642.121	0.47
642.451	0.47
642.782	0.46
643.112	0.46
643.442	0.46
643.773	0.46
644.103	0.45
644.433	0.45
644.763	0.45
645.093	0.45
645.423	0.45
645.753	0.44
646.082	0.43
646.412	0.44
646.742	0.44
647.072	0.43
647.401	0.43
647.731	0.43
648.06	0.43
648.39	0.43
648.719	0.42
649.048	0.42
649.378	0.42
649.707	0.42
650.036	0.41
650.365	0.41
650.694	0.41
651.023	0.41
651.352	0.41
651.681	0.41
652.01	0.4
652.339	0.4
652.668	0.4
652.996	0.4
653.325	0.4
653.654	0.4
653.982	0.4
654.311	0.4
654.639	0.4
654.967	0.39
655.296	0.39
655.624	0.39
655.952	0.39
656.28	0.39
656.609	0.39
656.937	0.39
657.265	0.38
657.593	0.26
657.92	0.16
658.248	0.11
658.576	0.14
658.904	0.24
659.231	0.32
659.559	0.37
659.887	0.37
660.214	0.37
660.542	0.37
660.869	0.36
661.196	0.36
661.524	0.36
661.851	0.36
662.178	0.36
662.505	0.36
662.832	0.35
663.159	0.36
663.486	0.35
663.813	0.35
664.14	0.35
664.467	0.35
664.794	0.35
665.12	0.35
665.447	0.34
665.774	0.34
666.1	0.34
666.427	0.34
666.753	0.34
667.079	0.34
667.406	0.33
667.732	0.34
668.058	0.33
668.384	0.33
668.71	0.33
669.036	0.33
669.362	0.32
669.688	0.32
670.014	0.32
670.34	0.32
670.666	0.32
670.991	0.31
671.317	0.31
671.643	0.31
671.968	0.31
672.294	0.31
672.619	0.3
672.945	0.3
673.27	0.3
673.595	0.29
673.92	0.29
674.246	0.29
674.571	0.29
674.896	0.29
675.221	0.29
675.546	0.28
675.87	0.29
676.195	0.28
676.52	0.28
676.845	0.28
677.169	0.27
677.494	0.27
677.819	0.27
678.143	0.27
678.468	0.27
678.792	0.26
679.116	0.26
679.44	0.25
679.765	0.25
680.089	0.25
680.413	0.25
680.737	0.25
681.061	0.24
681.385	0.24
681.709	0.24
682.033	0.23
682.356	0.23
682.68	0.23
683.004	0.23
683.327	0.23
683.651	0.22
683.974	0.22
684.298	0.22
684.621	0.22
684.944	0.21
685.268	0.21
685.591	0.21
685.914	0.21
686.237	0.21
686.56	0.2
686.883	0.2
687.206	0.19
687.529	0.19
687.852	0.19
688.175	0.19
688.497	0.19
688.82	0.19
689.142	0.18
689.465	0.18
689.787	0.18
690.11	0.17
690.432	0.17
690.755	0.17
691.077	0.17
691.399	0.17
691.721	0.17
692.043	0.17
692.365	0.17
692.687	0.16
693.009	0.16
693.331	0.16
693.653	0.16
693.974	0.16
694.296	0.15
694.618	0.15
694.939	0.15
695.261	0.15
695.582	0.14
695.904	0.14
696.225	0.15
696.546	0.14
696.868	0.14
697.189	0.14
697.51	0.14
697.831	0.14
698.152	0.14
698.473	0.13
698.794	0.13
699.114	0.13
699.435	0.11
699.756	0.12
700.077	0.12
700.397	0.13
700.718	0.12
701.038	0.13
701.359	0.13
701.679	0.12
701.999	0.12
702.32	0.12
702.64	0.12
702.96	0.12
703.28	0.12
703.6	0.12
703.92	0.12
704.24	0.11
704.56	0.11
704.879	0.11
705.199	0.11
705.519	0.11
705.838	0.11
706.158	0.12
706.478	0.12
706.797	0.12
707.116	0.12
707.436	0.12
707.755	0.12
708.074	0.11
708.393	0.11
708.712	0.11
709.031	0.09
709.35	0.09
709.669	0.09
709.988	0.09
710.307	0.1
710.626	0.1
710.944	0.1
711.263	0.1
711.582	0.11
711.9	0.11
712.219	0.1
712.537	0.1
712.855	0.11
713.174	0.11
713.492	0.11
713.81	0.11
714.128	0.11
714.446	0.11
714.764	0.1
715.082	0.1
715.4	0.11
715.718	0.1
716.035	0.1
716.353	0.11
716.671	0.1
716.988	0.1
717.306	0.1
717.623	0.11
717.941	0.11
718.258	0.11
718.575	0.12
718.893	0.11
719.21	0.11
719.527	0.11
719.844	0.11
720.161	0.11
720.478	0.11
720.795	0.11
721.112	0.11
721.428	0.11
721.745	0.11
722.062	0.11
722.378	0.11
722.695	0.11
723.011	0.11
723.328	0.11
723.644	0.11
723.96	0.11
724.276	0.11
724.593	0.12
724.909	0.12
725.225	0.12
725.541	0.12
725.857	0.12
726.173	0.12
726.488	0.12
726.804	0.11
727.12	0.11
727.435	0.11
727.751	0.11
728.067	0.12
728.382	0.12
728.697	0.12
729.013	0.12
729.328	0.11
729.643	0.11
729.958	0.12
730.273	0.11
730.588	0.11
730.903	0.12
731.218	0.11
731.533	0.12
731.848	0.11
732.163	0.11
732.477	0.11
732.792	0.11
733.107	0.1
733.421	0.11
733.736	0.11
734.05	0.11
734.364	0.11
734.678	0.11
734.993	0.11
735.307	0.11
735.621	0.11
735.935	0.11
736.249	0.11
736.563	0.11
736.877	0.11
737.19	0.11
737.504	0.11
737.818	0.1
738.131	0.1
738.445	0.11
738.758	0.11
739.072	0.1
739.385	0.1
739.698	0.1
740.012	0.11
740.325	0.1
740.638	0.1
740.951	0.1
741.264	0.1
741.577	0.1
741.89	0.1
742.203	0.1
742.515	0.1
742.828	0.1
743.141	0.1
743.453	0.1
743.766	0.09
744.078	0.1
744.391	0.09
744.703	0.09
745.015	0.1
745.327	0.09
745.639	0.09
745.952	0.09
746.264	0.09
746.575	0.09
746.887	0.09
747.199	0.09
747.511	0.09
747.823	0.08
748.134	0.08
748.446	0.08
748.757	0.08
749.069	0.08
749.38	0.08
749.692	0.08
750.003	0.08
750.314	0.08
750.625	0.08
750.936	0.08
751.248	0.08
751.559	0.08
751.869	0.08
752.18	0.08
752.491	0.08
752.802	0.08
753.112	0.08
753.423	0.07
753.734	0.07
754.044	0.07
754.355	0.07
754.665	0.07
754.975	0.07
755.285	0.07
755.596	0.07
755.906	0.07
756.216	0.07
756.526	0.07
756.836	0.07
757.146	0.07
757.455	0.06
757.765	0.06
758.075	0.06
758.385	0.06
758.694	0.06
759.004	0.06
759.313	0.06
759.622	0.06
759.932	0.06
760.241	0.06
760.55	0.06
760.859	0.06
761.168	0.06
761.477	0.06
761.786	0.06
762.095	0.06
762.404	0.06
762.713	0.06
763.021	0.06
763.33	0.06
763.639	0.06
763.947	0.06
764.256	0.06
764.564	0.06
764.872	0.06
765.181	0.06
765.489	0.06
765.797	0.06
766.105	0.06
766.413	0.06
766.721	0.05
767.029	0.06
767.337	0.06
767.644	0.06
767.952	0.06
768.26	0.06
768.567	0.06
768.875	0.06
769.182	0.06
769.49	0.06
769.797	0.06
770.104	0.06
770.411	0.06
770.718	0.06
771.026	0.05
771.333	0.06
771.639	0.06
771.946	0.06
772.253	0.06
772.56	0.06
772.867	0.06
773.173	0.06
773.48	0.06
773.786	0.06
774.093	0.06
774.399	0.06
774.705	0.06
775.012	0.06
775.318	0.06
775.624	0.06
775.93	0.06
776.236	0.06
776.542	0.06
776.848	0.06
777.154	0.06
777.459	0.06
777.765	0.05
778.071	0.06
778.376	0.05
778.682	0.06
778.987	0.06
779.292	0.06
779.598	0.06
779.903	0.06
780.208	0.06
780.513	0.06
780.818	0.06
781.123	0.06
781.428	0.06
781.733	0.06
782.038	0.06
782.343	0.06
782.647	0.06
782.952	0.06
783.256	0.05
783.561	0.06
783.865	0.06
784.17	0.06
784.474	0.07
784.778	0.07
785.082	0.06
785.386	0.07
785.69	0.07
785.994	0.07
786.298	0.07
786.602	0.07
786.906	0.07
787.209	0.07
787.513	0.07
787.817	0.07
788.12	0.07
788.424	0.07
788.727	0.07
789.03	0.07
789.333	0.07
789.637	0.07
789.94	0.07
790.243	0.07
790.546	0.07
790.849	0.07
791.152	0.07
791.454	0.07
791.757	0.07
792.06	0.07
792.362	0.07
792.665	0.07
792.967	0.07
793.27	0.07
793.572	0.07
793.874	0.07
794.177	0.07
794.479	0.08
794.781	0.07
795.083	0.07
795.385	0.07
795.687	0.07
795.989	0.07
796.29	0.07
796.592	0.08
796.894	0.08
797.195	0.08
797.497	0.08
797.798	0.08
798.1	0.08
798.401	0.08
798.702	0.08
799.003	0.08
799.304	0.07
799.605	0.08
799.906	0.08
800.207	0.08
800.508	0.08
800.809	0.08
801.11	0.07
801.41	0.08
801.711	0.08
802.011	0.08
802.312	0.08
802.612	0.08
802.913	0.08
803.213	0.08
803.513	0.08
803.813	0.08
804.113	0.08
804.413	0.07
804.713	0.08
805.013	0.08
805.313	0.07
805.613	0.08
805.912	0.08
806.212	0.08
806.511	0.08
806.811	0.08
807.11	0.08
807.41	0.08
807.709	0.08
808.008	0.09
808.307	0.09
808.606	0.09
808.905	0.09
809.204	0.09
809.503	0.09
809.802	0.09
810.101	0.09
810.399	0.09
810.698	0.09
810.997	0.09
811.295	0.09
811.593	0.09
811.892	0.09
812.19	0.09
812.488	0.08
812.786	0.08
813.084	0.08
813.383	0.09
813.68	0.08
813.978	0.09
814.276	0.09
814.574	0.09
814.872	0.1
815.169	0.1
815.467	0.1
815.764	0.09
816.062	0.1
816.359	0.1
816.656	0.11
816.954	0.1
817.251	0.1
817.548	0.1
817.845	0.1
818.142	0.1
818.439	0.1
818.735	0.1
819.032	0.1
819.329	0.1
819.626	0.1
819.922	0.11
820.219	0.11
820.515	0.11
820.811	0.1
821.108	0.11
821.404	0.11
821.7	0.11
821.996	0.11
822.292	0.1
822.588	0.11
822.884	0.11
823.18	0.12
823.475	0.11
823.771	0.11
824.067	0.11
824.362	0.11
824.658	0.11
824.953	0.11
825.249	0.11
825.544	0.11
825.839	0.11
826.134	0.11
826.429	0.11
826.724	0.11
827.019	0.11
827.314	0.11
827.609	0.11
827.904	0.12
828.198	0.12
828.493	0.11
828.787	0.12
829.082	0.11
829.376	0.11
829.671	0.11
829.965	0.12
830.259	0.12
830.553	0.12
830.847	0.12
831.141	0.12
831.435	0.12
831.729	0.13
832.023	0.12
832.317	0.13
832.61	0.12
832.904	0.12
833.197	0.12
833.491	0.13
833.784	0.13
834.077	0.12
834.371	0.12
834.664	0.12
834.957	0.12
835.25	0.12
835.543	0.12
835.836	0.12
836.129	0.12
836.421	0.12
836.714	0.12
837.007	0.12
837.299	0.13
837.592	0.12
837.884	0.13
838.177	0.13
838.469	0.13
838.761	0.12
839.053	0.12
839.345	0.13
839.637	0.12
839.929	0.13
840.221	0.13
840.513	0.13
840.805	0.13
841.096	0.12
841.388	0.13
841.68	0.13
841.971	0.13
842.262	0.13
842.554	0.13
842.845	0.13
843.136	0.14
843.427	0.14
843.718	0.13
844.009	0.14
844.3	0.14
844.591	0.14
844.882	0.14
845.173	0.14
845.463	0.14
845.754	0.14
846.044	0.14
846.335	0.15
846.625	0.14
846.915	0.15
847.206	0.14
847.496	0.15
847.786	0.15
848.076	0.15
848.366	0.15
848.656	0.15
848.945	0.14
849.235	0.14
849.525	0.15
849.814	0.15
850.104	0.15
850.393	0.16
850.683	0.14
850.972	0.15
851.261	0.15
851.551	0.16
851.84	0.15
852.129	0.14
852.418	0.15
852.707	0.16
852.995	0.15
853.284	0.15
853.573	0.15
853.862	0.15
854.15	0.15
854.439	0.14
854.727	0.14
855.015	0.16
855.304	0.15
855.592	0.16
855.88	0.16
856.168	0.16
856.456	0.16
856.744	0.17
857.032	0.18
857.32	0.16
857.607	0.16
857.895	0.16
858.183	0.16
858.47	0.16
858.757	0.17
859.045	0.16
859.332	0.17
859.619	0.17
859.907	0.17
860.194	0.18
860.481	0.16
860.768	0.15
861.054	0.17
861.341	0.16
861.628	0.17
861.915	0.18
862.201	0.18
862.488	0.17
862.774	0.17
863.061	0.17
863.347	0.15
863.633	0.19
863.919	0.15
864.205	0.17
864.491	0.17
864.777	0.16
865.063	0.19
865.349	0.17
865.635	0.16
865.92	0.15
866.206	0.19
866.492	0.19
866.777	0.17
867.062	0.15
867.348	0.14
867.633	0.14
867.918	0.17
868.203	0.16
868.488	0.18
868.773	0.16
869.058	0.15
869.343	0.16
869.628	0.16
869.912	0.16
870.197	0.15
870.482	0.16
870.766	0.18
871.05	0.12
871.335	0.18
871.619	0.14
871.903	0.21
872.187	0.18
872.471	0.16
872.755	0.15
873.039	0.15
873.323	0.17
873.607	0.17
873.89	0.23
874.174	0.24
874.458	0.2
874.741	0.2
875.024	0.2
875.308	0.2
875.591	0.19
875.874	0.16
876.157	0.18
876.44	0.16
876.723	0.22
877.006	0.17
877.289	0.15
877.572	0.19
877.854	0.16
878.137	0.17
878.42	0.16
878.702	0.29
878.984	0.21
879.267	0.19
879.549	0.12
879.831	0.26
880.113	0.24
880.395	0.2
880.677	0.15
880.959	0.21
