Data from Rubpy_BV_1500_EDTA_Buffered_Absorbance_14-15-12-668.txt Node
Date: Wed Jul 01 14:15:12 BST 2026
User: fpm-admin
Spectrometer: OFX00224
Trigger mode: 0
Integration Time (sec): 7.000000E-2
Scans to average: 3
Nonlinearity correction enabled: false
Boxcar width: 0
Storing dark spectrum: false
XAxis mode: Wavelengths
Number of Pixels in Spectrum: 2136
>>>>>Begin Spectral Data<<<<<
154.91	-0.03
155.289	0.19
155.669	-0
156.048	0.34
156.428	-0
156.807	0.18
157.186	-0.57
157.566	-0
157.945	-0
158.325	0.44
158.704	-0
159.083	-0
159.462	-0
159.842	0.59
160.221	-0.59
160.6	-0
160.979	0.03
161.359	-0.14
161.738	-0
162.117	0.93
162.496	-0.62
162.875	0.48
163.254	0.09
163.633	-0
164.012	-0.36
164.391	0.97
164.77	0.11
165.149	0.2
165.528	-0.38
165.907	-0
166.286	0.1
166.665	-0
167.044	-0.05
167.423	0.85
167.802	-0
168.181	-0.06
168.559	-0.05
168.938	-0.33
169.317	-0
169.696	-0.05
170.074	-0.4
170.453	-0.05
170.832	0.1
171.21	-0.21
171.589	-0.26
171.968	-0
172.346	0.23
172.725	-0
173.103	-0
173.482	-0
173.861	0.14
174.239	-0.4
174.617	0.26
174.996	-0
175.374	-0.14
175.753	-0.56
176.131	-0
176.51	0.03
176.888	1.5
177.266	-0
177.645	-0.07
178.023	1.1
178.401	-0.09
178.779	-0.06
179.158	0.12
179.536	-0.25
179.914	-0.08
180.292	0.76
180.67	-0
181.048	-0.09
181.427	-0.07
181.805	0.38
182.183	-0.8
182.561	-0.08
182.939	-0
183.317	-0.07
183.695	-0.34
184.073	-0.15
184.451	-0.1
184.829	-0
185.206	-0
185.584	-0
185.962	-0
186.34	-0
186.718	-0
187.096	-0.52
187.473	0.25
187.851	0.95
188.229	-0.05
188.607	0.22
188.984	0.2
189.362	0.24
189.74	0.12
190.117	0.17
190.495	0.04
190.872	0.12
191.25	0.09
191.627	-0.06
192.005	0.04
192.382	0.17
192.76	0.15
193.137	0.12
193.515	0.1
193.892	0.05
194.269	0.09
194.647	0.16
195.024	0.05
195.401	0.09
195.779	0.11
196.156	0.15
196.533	0.19
196.91	0.25
197.288	0.14
197.665	0.09
198.042	0.09
198.419	0.15
198.796	0.06
199.173	0.11
199.55	0.08
199.927	0.24
200.304	0.23
200.681	0.26
201.058	0.12
201.435	0.15
201.812	0.17
202.189	0.04
202.566	0.07
202.943	0.15
203.32	0.08
203.697	0.12
204.073	0.11
204.45	0.13
204.827	0.27
205.204	0.17
205.58	0.12
205.957	0.09
206.334	0.13
206.71	0.01
207.087	0.18
207.464	0.09
207.84	0.06
208.217	0.28
208.593	0.1
208.97	0.13
209.346	0.23
209.723	0.06
210.099	0.18
210.476	0.12
210.852	0.1
211.228	0.05
211.605	0.18
211.981	0.11
212.357	0.08
212.733	0.05
213.11	0.22
213.486	0.08
213.862	0.11
214.238	0.11
214.614	0.06
214.991	0.06
215.367	0.04
215.743	0.14
216.119	0.19
216.495	0.13
216.871	0.16
217.247	0.19
217.623	0.02
217.999	0.1
218.375	0.17
218.751	0.07
219.127	0.06
219.502	0.09
219.878	0.12
220.254	0.12
220.63	0.16
221.006	0.15
221.381	0.13
221.757	0.3
222.133	0.08
222.508	0.22
222.884	0.16
223.26	0.06
223.635	0.14
224.011	0.19
224.386	0.18
224.762	0.17
225.137	0.15
225.513	0.2
225.888	0.19
226.264	0.14
226.639	0.14
227.014	0.13
227.39	0.19
227.765	0.18
228.14	0.12
228.516	0.15
228.891	0.21
229.266	0.19
229.641	0.27
230.017	0.24
230.392	0.17
230.767	0.16
231.142	0.14
231.517	0.14
231.892	0.17
232.267	0.13
232.642	0.14
233.017	0.08
233.392	0.16
233.767	0.13
234.142	0.1
234.517	0.19
234.892	0.03
235.267	0.19
235.641	0.07
236.016	0.12
236.391	0.1
236.766	0.18
237.14	0.09
237.515	0.08
237.89	0.13
238.264	0.19
238.639	0.07
239.014	0.05
239.388	0.12
239.763	0.12
240.137	0.16
240.512	0.15
240.886	0.19
241.261	0.07
241.635	0.05
242.009	0.18
242.384	0.09
242.758	0.21
243.132	0.14
243.507	0.09
243.881	0.13
244.255	0.1
244.629	0.14
245.004	0.14
245.378	0.16
245.752	0.08
246.126	0.18
246.5	0.1
246.874	0.04
247.248	0.14
247.622	0.12
247.996	0.09
248.37	0.2
248.744	0.12
249.118	0.16
249.492	0.11
249.866	0.18
250.24	0.17
250.613	0.08
250.987	0.17
251.361	0.13
251.735	0.15
252.108	0.17
252.482	0.08
252.856	0.25
253.229	0.24
253.603	0.17
253.977	0.1
254.35	0.19
254.724	0.06
255.097	0.12
255.471	0.16
255.844	0.14
256.218	0.2
256.591	0.17
256.964	0.13
257.338	0.04
257.711	0.16
258.084	0.17
258.458	0.1
258.831	0.13
259.204	0.12
259.577	0.11
259.95	0.09
260.323	0.11
260.697	0.17
261.07	0.14
261.443	0.17
261.816	0.1
262.189	0.18
262.562	0.09
262.935	0.17
263.308	0.11
263.68	0.02
264.053	0.15
264.426	0.1
264.799	0.16
265.172	0.16
265.545	0.19
265.917	0.15
266.29	0.21
266.663	0.18
267.035	0.12
267.408	0.14
267.781	0.09
268.153	0.15
268.526	0.1
268.898	0.15
269.271	0.14
269.643	0.18
270.016	0.1
270.388	0.17
270.76	0.12
271.133	0.14
271.505	0.22
271.877	0.23
272.25	0.16
272.622	0.24
272.994	0.23
273.366	0.15
273.739	0.15
274.111	0.06
274.483	0.09
274.855	0.14
275.227	0.15
275.599	0.04
275.971	0.12
276.343	0.12
276.715	0.12
277.087	0.22
277.459	0.14
277.831	0.17
278.203	0.16
278.574	0.2
278.946	0.1
279.318	0.19
279.69	0.12
280.061	0.21
280.433	0.14
280.805	0.13
281.176	0.1
281.548	0.2
281.92	0.19
282.291	0.2
282.663	0.14
283.034	0.07
283.406	0.09
283.777	0.12
284.148	0.15
284.52	0.16
284.891	0.14
285.262	0.16
285.634	0.19
286.005	0.19
286.376	0.19
286.747	0.07
287.119	0.12
287.49	0.13
287.861	0.13
288.232	0.17
288.603	0.14
288.974	0.16
289.345	0.13
289.716	0.15
290.087	0.23
290.458	0.2
290.829	0.16
291.2	0.12
291.571	0.14
291.941	0.1
292.312	0.22
292.683	0.22
293.054	0.14
293.424	0.16
293.795	0.2
294.166	0.08
294.536	0.2
294.907	0.19
295.277	0.17
295.648	0.17
296.018	0.14
296.389	0.15
296.759	0.13
297.13	0.16
297.5	0.15
297.871	0.19
298.241	0.1
298.611	0.22
298.981	0.15
299.352	0.19
299.722	0.22
300.092	0.16
300.462	0.1
300.832	0.18
301.202	0.18
301.573	0.14
301.943	0.19
302.313	0.12
302.683	0.19
303.053	0.17
303.422	0.16
303.792	0.18
304.162	0.12
304.532	0.15
304.902	0.07
305.272	0.12
305.641	0.1
306.011	0.13
306.381	0.1
306.75	0.1
307.12	0.08
307.49	0.13
307.859	0.15
308.229	0.12
308.598	0.15
308.968	0.1
309.337	0.11
309.707	0.1
310.076	0.12
310.445	0.13
310.815	0.08
311.184	0.09
311.553	0.1
311.923	0.09
312.292	0.1
312.661	0.13
313.03	0.11
313.399	0.1
313.768	0.1
314.137	0.1
314.506	0.09
314.875	0.11
315.244	0.12
315.613	0.11
315.982	0.12
316.351	0.1
316.72	0.12
317.089	0.11
317.458	0.12
317.826	0.12
318.195	0.11
318.564	0.12
318.933	0.12
319.301	0.12
319.67	0.12
320.038	0.11
320.407	0.12
320.775	0.12
321.144	0.14
321.512	0.14
321.881	0.14
322.249	0.13
322.618	0.13
322.986	0.13
323.354	0.12
323.723	0.14
324.091	0.14
324.459	0.14
324.827	0.14
325.195	0.15
325.564	0.14
325.932	0.15
326.3	0.15
326.668	0.17
327.036	0.15
327.404	0.15
327.772	0.15
328.14	0.16
328.508	0.15
328.875	0.15
329.243	0.16
329.611	0.17
329.979	0.17
330.346	0.17
330.714	0.17
331.082	0.18
331.449	0.17
331.817	0.18
332.185	0.18
332.552	0.19
332.92	0.19
333.287	0.2
333.655	0.2
334.022	0.2
334.389	0.2
334.757	0.2
335.124	0.2
335.491	0.21
335.859	0.22
336.226	0.22
336.593	0.22
336.96	0.23
337.327	0.23
337.695	0.24
338.062	0.24
338.429	0.24
338.796	0.25
339.163	0.26
339.53	0.26
339.897	0.26
340.263	0.26
340.63	0.27
340.997	0.27
341.364	0.28
341.731	0.28
342.097	0.29
342.464	0.29
342.831	0.3
343.197	0.3
343.564	0.31
343.931	0.32
344.297	0.32
344.664	0.33
345.03	0.33
345.396	0.33
345.763	0.34
346.129	0.34
346.496	0.35
346.862	0.35
347.228	0.36
347.594	0.36
347.961	0.37
348.327	0.38
348.693	0.38
349.059	0.38
349.425	0.39
349.791	0.39
350.157	0.39
350.523	0.4
350.889	0.41
351.255	0.41
351.621	0.41
351.987	0.42
352.353	0.42
352.719	0.43
353.084	0.44
353.45	0.44
353.816	0.44
354.181	0.45
354.547	0.46
354.913	0.46
355.278	0.46
355.644	0.47
356.009	0.48
356.375	0.49
356.74	0.5
357.106	0.49
357.471	0.51
357.836	0.52
358.202	0.51
358.567	0.52
358.932	0.53
359.297	0.54
359.663	0.55
360.028	0.56
360.393	0.56
360.758	0.57
361.123	0.58
361.488	0.59
361.853	0.59
362.218	0.61
362.583	0.61
362.948	0.62
363.312	0.62
363.677	0.63
364.042	0.64
364.407	0.65
364.772	0.66
365.136	0.66
365.501	0.66
365.865	0.68
366.23	0.68
366.595	0.69
366.959	0.69
367.324	0.7
367.688	0.7
368.052	0.71
368.417	0.72
368.781	0.73
369.145	0.73
369.51	0.74
369.874	0.75
370.238	0.75
370.602	0.75
370.967	0.75
371.331	0.76
371.695	0.76
372.059	0.77
372.423	0.78
372.787	0.77
373.151	0.77
373.515	0.77
373.878	0.77
374.242	0.75
374.606	0.76
374.97	0.76
375.334	0.74
375.697	0.74
376.061	0.73
376.425	0.73
376.788	0.73
377.152	0.71
377.515	0.71
377.879	0.7
378.242	0.69
378.606	0.69
378.969	0.68
379.333	0.67
379.696	0.66
380.059	0.65
380.422	0.65
380.786	0.64
381.149	0.64
381.512	0.62
381.875	0.63
382.238	0.62
382.601	0.61
382.964	0.61
383.327	0.6
383.69	0.61
384.053	0.6
384.416	0.59
384.779	0.59
385.142	0.59
385.504	0.58
385.867	0.58
386.23	0.58
386.593	0.58
386.955	0.58
387.318	0.58
387.68	0.58
388.043	0.59
388.405	0.58
388.768	0.59
389.13	0.58
389.493	0.58
389.855	0.58
390.217	0.58
390.58	0.57
390.942	0.57
391.304	0.57
391.666	0.56
392.028	0.55
392.391	0.55
392.753	0.54
393.115	0.54
393.477	0.53
393.839	0.52
394.201	0.52
394.563	0.52
394.924	0.52
395.286	0.52
395.648	0.52
396.01	0.52
396.371	0.53
396.733	0.54
397.095	0.55
397.456	0.57
397.818	0.57
398.18	0.59
398.541	0.61
398.903	0.62
399.264	0.64
399.625	0.65
399.987	0.67
400.348	0.67
400.709	0.69
401.071	0.7
401.432	0.7
401.793	0.7
402.154	0.7
402.515	0.69
402.876	0.68
403.238	0.67
403.599	0.65
403.96	0.63
404.32	0.61
404.681	0.59
405.042	0.57
405.403	0.53
405.764	0.52
406.125	0.48
406.485	0.46
406.846	0.43
407.207	0.41
407.567	0.39
407.928	0.36
408.288	0.34
408.649	0.33
409.009	0.31
409.37	0.29
409.73	0.27
410.091	0.26
410.451	0.24
410.811	0.23
411.171	0.22
411.532	0.21
411.892	0.2
412.252	0.19
412.612	0.18
412.972	0.17
413.332	0.17
413.692	0.16
414.052	0.15
414.412	0.14
414.772	0.14
415.132	0.13
415.492	0.13
415.851	0.13
416.211	0.13
416.571	0.11
416.931	0.11
417.29	0.11
417.65	0.11
418.009	0.11
418.369	0.1
418.728	0.1
419.088	0.1
419.447	0.09
419.807	0.09
420.166	0.1
420.525	0.09
420.884	0.08
421.244	0.1
421.603	0.09
421.962	0.09
422.321	0.08
422.68	0.08
423.039	0.08
423.398	0.08
423.757	0.08
424.116	0.08
424.475	0.08
424.834	0.08
425.193	0.08
425.551	0.07
425.91	0.07
426.269	0.07
426.628	0.07
426.986	0.07
427.345	0.07
427.703	0.07
428.062	0.06
428.42	0.06
428.779	0.07
429.137	0.07
429.496	0.07
429.854	0.06
430.212	0.06
430.57	0.07
430.929	0.06
431.287	0.06
431.645	0.06
432.003	0.06
432.361	0.06
432.719	0.06
433.077	0.05
433.435	0.06
433.793	0.06
434.151	0.06
434.509	0.06
434.866	0.06
435.224	0.06
435.582	0.05
435.94	0.07
436.297	0.05
436.655	0.05
437.012	0.07
437.37	0.06
437.727	0.06
438.085	0.06
438.442	0.05
438.8	0.06
439.157	0.05
439.514	0.06
439.872	0.05
440.229	0.06
440.586	0.05
440.943	0.06
441.3	0.06
441.657	0.06
442.014	0.07
442.371	0.06
442.728	0.06
443.085	0.07
443.442	0.07
443.799	0.05
444.156	0.05
444.513	0.05
444.869	0.06
445.226	0.06
445.583	0.06
445.939	0.05
446.296	0.07
446.652	0.06
447.009	0.06
447.365	0.05
447.722	0.06
448.078	0.06
448.434	0.06
448.791	0.06
449.147	0.06
449.503	0.06
449.859	0.06
450.215	0.06
450.571	0.06
450.928	0.06
451.284	0.06
451.64	0.06
451.995	0.06
452.351	0.06
452.707	0.07
453.063	0.06
453.419	0.07
453.775	0.06
454.13	0.07
454.486	0.07
454.842	0.06
455.197	0.06
455.553	0.07
455.908	0.07
456.264	0.07
456.619	0.06
456.975	0.06
457.33	0.07
457.685	0.07
458.04	0.06
458.396	0.07
458.751	0.06
459.106	0.07
459.461	0.07
459.816	0.07
460.171	0.07
460.526	0.06
460.881	0.07
461.236	0.06
461.591	0.07
461.946	0.07
462.301	0.07
462.655	0.08
463.01	0.08
463.365	0.07
463.719	0.06
464.074	0.07
464.428	0.07
464.783	0.07
465.137	0.07
465.492	0.07
465.846	0.07
466.201	0.07
466.555	0.07
466.909	0.07
467.263	0.07
467.618	0.07
467.972	0.08
468.326	0.07
468.68	0.07
469.034	0.07
469.388	0.08
469.742	0.07
470.096	0.07
470.45	0.08
470.804	0.08
471.157	0.08
471.511	0.09
471.865	0.08
472.218	0.09
472.572	0.09
472.926	0.09
473.279	0.09
473.633	0.09
473.986	0.09
474.34	0.09
474.693	0.1
475.046	0.1
475.4	0.09
475.753	0.1
476.106	0.11
476.459	0.11
476.812	0.1
477.165	0.11
477.519	0.11
477.872	0.1
478.224	0.11
478.577	0.12
478.93	0.12
479.283	0.11
479.636	0.13
479.989	0.12
480.341	0.12
480.694	0.13
481.047	0.13
481.399	0.12
481.752	0.13
482.104	0.13
482.457	0.13
482.809	0.13
483.162	0.13
483.514	0.14
483.866	0.14
484.219	0.14
484.571	0.14
484.923	0.14
485.275	0.15
485.627	0.14
485.979	0.15
486.331	0.15
486.683	0.14
487.035	0.15
487.387	0.14
487.739	0.15
488.091	0.15
488.443	0.16
488.794	0.16
489.146	0.15
489.498	0.16
489.849	0.16
490.201	0.16
490.552	0.17
490.904	0.16
491.255	0.16
491.607	0.17
491.958	0.17
492.309	0.17
492.661	0.17
493.012	0.17
493.363	0.17
493.714	0.17
494.065	0.18
494.416	0.18
494.767	0.18
495.118	0.19
495.469	0.18
495.82	0.19
496.171	0.19
496.522	0.19
496.872	0.19
497.223	0.19
497.574	0.19
497.924	0.19
498.275	0.2
498.626	0.2
498.976	0.2
499.327	0.2
499.677	0.2
500.027	0.21
500.378	0.2
500.728	0.2
501.078	0.21
501.428	0.21
501.779	0.21
502.129	0.21
502.479	0.21
502.829	0.22
503.179	0.22
503.529	0.22
503.879	0.22
504.229	0.22
504.578	0.22
504.928	0.22
505.278	0.22
505.628	0.23
505.977	0.23
506.327	0.23
506.676	0.23
507.026	0.23
507.375	0.24
507.725	0.24
508.074	0.24
508.424	0.24
508.773	0.24
509.122	0.24
509.471	0.24
509.82	0.24
510.17	0.24
510.519	0.25
510.868	0.25
511.217	0.25
511.566	0.25
511.915	0.25
512.263	0.25
512.612	0.26
512.961	0.26
513.31	0.26
513.659	0.26
514.007	0.26
514.356	0.26
514.704	0.26
515.053	0.27
515.401	0.27
515.75	0.26
516.098	0.27
516.447	0.27
516.795	0.27
517.143	0.27
517.491	0.27
517.839	0.27
518.188	0.28
518.536	0.28
518.884	0.28
519.232	0.28
519.58	0.29
519.928	0.28
520.275	0.28
520.623	0.28
520.971	0.29
521.319	0.29
521.666	0.29
522.014	0.28
522.362	0.29
522.709	0.29
523.057	0.29
523.404	0.29
523.752	0.3
524.099	0.3
524.446	0.3
524.794	0.3
525.141	0.3
525.488	0.3
525.835	0.3
526.182	0.3
526.529	0.3
526.876	0.3
527.223	0.31
527.57	0.31
527.917	0.31
528.264	0.3
528.611	0.3
528.958	0.31
529.304	0.31
529.651	0.31
529.998	0.31
530.344	0.31
530.691	0.32
531.037	0.31
531.384	0.32
531.73	0.32
532.076	0.32
532.423	0.32
532.769	0.32
533.115	0.31
533.461	0.32
533.807	0.32
534.154	0.32
534.5	0.33
534.846	0.32
535.192	0.32
535.537	0.32
535.883	0.32
536.229	0.32
536.575	0.33
536.921	0.33
537.266	0.33
537.612	0.33
537.957	0.33
538.303	0.33
538.649	0.33
538.994	0.33
539.339	0.33
539.685	0.34
540.03	0.34
540.375	0.34
540.721	0.34
541.066	0.34
541.411	0.34
541.756	0.34
542.101	0.34
542.446	0.34
542.791	0.34
543.136	0.34
543.481	0.34
543.825	0.34
544.17	0.34
544.515	0.34
544.86	0.34
545.204	0.34
545.549	0.34
545.893	0.34
546.238	0.35
546.582	0.35
546.927	0.35
547.271	0.34
547.615	0.35
547.96	0.35
548.304	0.35
548.648	0.35
548.992	0.35
549.336	0.35
549.68	0.35
550.024	0.35
550.368	0.35
550.712	0.36
551.056	0.35
551.4	0.35
551.743	0.35
552.087	0.35
552.431	0.35
552.774	0.35
553.118	0.35
553.462	0.35
553.805	0.35
554.148	0.35
554.492	0.35
554.835	0.36
555.178	0.35
555.522	0.35
555.865	0.35
556.208	0.35
556.551	0.36
556.894	0.35
557.237	0.35
557.58	0.36
557.923	0.35
558.266	0.35
558.609	0.35
558.952	0.36
559.294	0.36
559.637	0.35
559.98	0.35
560.322	0.35
560.665	0.36
561.007	0.36
561.35	0.35
561.692	0.35
562.034	0.36
562.377	0.35
562.719	0.35
563.061	0.35
563.403	0.35
563.745	0.35
564.088	0.35
564.43	0.35
564.772	0.35
565.113	0.35
565.455	0.35
565.797	0.35
566.139	0.35
566.481	0.35
566.822	0.35
567.164	0.35
567.506	0.35
567.847	0.35
568.189	0.35
568.53	0.35
568.872	0.34
569.213	0.35
569.554	0.34
569.895	0.34
570.237	0.34
570.578	0.35
570.919	0.34
571.26	0.34
571.601	0.34
571.942	0.34
572.283	0.34
572.624	0.33
572.965	0.33
573.306	0.34
573.646	0.33
573.987	0.33
574.328	0.33
574.668	0.33
575.009	0.33
575.349	0.33
575.69	0.33
576.03	0.32
576.37	0.32
576.711	0.32
577.051	0.32
577.391	0.32
577.731	0.33
578.072	0.32
578.412	0.32
578.752	0.32
579.092	0.32
579.431	0.31
579.771	0.3
580.111	0.28
580.451	0.29
580.791	0.31
581.13	0.32
581.47	0.32
581.81	0.31
582.149	0.31
582.489	0.32
582.828	0.3
583.167	0.28
583.507	0.24
583.846	0.23
584.185	0.26
584.525	0.29
584.864	0.3
585.203	0.32
585.542	0.32
585.881	0.32
586.22	0.32
586.559	0.31
586.898	0.3
587.236	0.29
587.575	0.29
587.914	0.3
588.252	0.31
588.591	0.31
588.93	0.32
589.268	0.31
589.607	0.31
589.945	0.31
590.283	0.31
590.622	0.31
590.96	0.32
591.298	0.32
591.636	0.32
591.974	0.32
592.313	0.32
592.651	0.32
592.989	0.32
593.326	0.32
593.664	0.32
594.002	0.32
594.34	0.31
594.678	0.31
595.015	0.31
595.353	0.3
595.691	0.31
596.028	0.32
596.366	0.32
596.703	0.32
597.04	0.32
597.378	0.32
597.715	0.32
598.052	0.32
598.389	0.32
598.726	0.32
599.064	0.32
599.401	0.32
599.738	0.32
600.074	0.32
600.411	0.32
600.748	0.31
601.085	0.31
601.422	0.31
601.758	0.31
602.095	0.31
602.432	0.31
602.768	0.31
603.105	0.31
603.441	0.31
603.777	0.32
604.114	0.32
604.45	0.32
604.786	0.32
605.122	0.32
605.459	0.31
605.795	0.31
606.131	0.31
606.467	0.31
606.803	0.31
607.139	0.31
607.474	0.31
607.81	0.31
608.146	0.31
608.482	0.31
608.817	0.31
609.153	0.31
609.488	0.3
609.824	0.3
610.159	0.3
610.495	0.3
610.83	0.3
611.165	0.3
611.5	0.3
611.836	0.3
612.171	0.3
612.506	0.3
612.841	0.3
613.176	0.3
613.511	0.3
613.845	0.3
614.18	0.3
614.515	0.3
614.85	0.3
615.184	0.29
615.519	0.3
615.854	0.29
616.188	0.3
616.523	0.29
616.857	0.29
617.191	0.29
617.526	0.29
617.86	0.29
618.194	0.29
618.528	0.29
618.862	0.28
619.196	0.29
619.53	0.29
619.864	0.29
620.198	0.29
620.532	0.29
620.866	0.29
621.2	0.28
621.533	0.28
621.867	0.28
622.201	0.28
622.534	0.28
622.868	0.28
623.201	0.28
623.534	0.27
623.868	0.27
624.201	0.27
624.534	0.27
624.868	0.27
625.201	0.27
625.534	0.27
625.867	0.27
626.2	0.27
626.533	0.27
626.865	0.27
627.198	0.26
627.531	0.26
627.864	0.26
628.196	0.26
628.529	0.26
628.862	0.26
629.194	0.26
629.527	0.25
629.859	0.25
630.191	0.25
630.524	0.25
630.856	0.25
631.188	0.25
631.52	0.24
631.852	0.24
632.184	0.24
632.516	0.24
632.848	0.24
633.18	0.24
633.512	0.24
633.844	0.23
634.175	0.23
634.507	0.23
634.839	0.23
635.17	0.23
635.502	0.23
635.833	0.23
636.165	0.22
636.496	0.22
636.827	0.22
637.159	0.22
637.49	0.22
637.821	0.22
638.152	0.22
638.483	0.21
638.814	0.21
639.145	0.21
639.476	0.21
639.807	0.21
640.137	0.21
640.468	0.21
640.799	0.21
641.129	0.2
641.46	0.21
641.791	0.2
642.121	0.2
642.451	0.2
642.782	0.19
643.112	0.2
643.442	0.19
643.773	0.19
644.103	0.19
644.433	0.19
644.763	0.19
645.093	0.19
645.423	0.19
645.753	0.19
646.082	0.18
646.412	0.18
646.742	0.18
647.072	0.18
647.401	0.18
647.731	0.18
648.06	0.18
648.39	0.18
648.719	0.18
649.048	0.18
649.378	0.18
649.707	0.18
650.036	0.18
650.365	0.17
650.694	0.17
651.023	0.17
651.352	0.17
651.681	0.17
652.01	0.17
652.339	0.17
652.668	0.17
652.996	0.17
653.325	0.17
653.654	0.17
653.982	0.17
654.311	0.17
654.639	0.17
654.967	0.17
655.296	0.17
655.624	0.17
655.952	0.17
656.28	0.17
656.609	0.17
656.937	0.17
657.265	0.16
657.593	0.06
657.92	0
658.248	0
658.576	0
658.904	0.03
659.231	0.11
659.559	0.16
659.887	0.16
660.214	0.16
660.542	0.16
660.869	0.16
661.196	0.16
661.524	0.16
661.851	0.16
662.178	0.16
662.505	0.15
662.832	0.16
663.159	0.16
663.486	0.16
663.813	0.16
664.14	0.15
664.467	0.15
664.794	0.15
665.12	0.15
665.447	0.15
665.774	0.15
666.1	0.15
666.427	0.15
666.753	0.15
667.079	0.15
667.406	0.14
667.732	0.14
668.058	0.15
668.384	0.15
668.71	0.14
669.036	0.14
669.362	0.14
669.688	0.14
670.014	0.14
670.34	0.14
670.666	0.14
670.991	0.14
671.317	0.14
671.643	0.14
671.968	0.13
672.294	0.14
672.619	0.13
672.945	0.13
673.27	0.13
673.595	0.13
673.92	0.13
674.246	0.13
674.571	0.13
674.896	0.13
675.221	0.12
675.546	0.12
675.87	0.12
676.195	0.12
676.52	0.12
676.845	0.12
677.169	0.12
677.494	0.12
677.819	0.12
678.143	0.12
678.468	0.12
678.792	0.11
679.116	0.11
679.44	0.11
679.765	0.11
680.089	0.1
680.413	0.11
680.737	0.11
681.061	0.1
681.385	0.1
681.709	0.1
682.033	0.1
682.356	0.1
682.68	0.1
683.004	0.1
683.327	0.1
683.651	0.1
683.974	0.1
684.298	0.09
684.621	0.09
684.944	0.09
685.268	0.09
685.591	0.09
685.914	0.09
686.237	0.09
686.56	0.09
686.883	0.08
687.206	0.08
687.529	0.08
687.852	0.08
688.175	0.08
688.497	0.08
688.82	0.08
689.142	0.08
689.465	0.08
689.787	0.08
690.11	0.08
690.432	0.07
690.755	0.07
691.077	0.07
691.399	0.07
691.721	0.07
692.043	0.07
692.365	0.07
692.687	0.07
693.009	0.07
693.331	0.07
693.653	0.06
693.974	0.07
694.296	0.06
694.618	0.06
694.939	0.06
695.261	0.06
695.582	0.06
695.904	0.06
696.225	0.06
696.546	0.06
696.868	0.06
697.189	0.06
697.51	0.06
697.831	0.06
698.152	0.06
698.473	0.06
698.794	0.05
699.114	0.05
699.435	0.04
699.756	0.04
700.077	0.05
700.397	0.05
700.718	0.05
701.038	0.05
701.359	0.05
701.679	0.05
701.999	0.05
702.32	0.05
702.64	0.05
702.96	0.05
703.28	0.05
703.6	0.05
703.92	0.05
704.24	0.05
704.56	0.04
704.879	0.04
705.199	0.04
705.519	0.05
705.838	0.05
706.158	0.05
706.478	0.05
706.797	0.05
707.116	0.05
707.436	0.05
707.755	0.05
708.074	0.05
708.393	0.04
708.712	0.04
709.031	0.03
709.35	0.03
709.669	0.03
709.988	0.03
710.307	0.03
710.626	0.03
710.944	0.04
711.263	0.04
711.582	0.04
711.9	0.05
712.219	0.04
712.537	0.04
712.855	0.04
713.174	0.04
713.492	0.04
713.81	0.05
714.128	0.04
714.446	0.04
714.764	0.04
715.082	0.04
715.4	0.04
715.718	0.04
716.035	0.04
716.353	0.04
716.671	0.04
716.988	0.04
717.306	0.04
717.623	0.04
717.941	0.05
718.258	0.05
718.575	0.05
718.893	0.05
719.21	0.05
719.527	0.05
719.844	0.04
720.161	0.04
720.478	0.05
720.795	0.05
721.112	0.05
721.428	0.05
721.745	0.05
722.062	0.05
722.378	0.05
722.695	0.05
723.011	0.05
723.328	0.05
723.644	0.05
723.96	0.05
724.276	0.05
724.593	0.05
724.909	0.05
725.225	0.05
725.541	0.05
725.857	0.05
726.173	0.05
726.488	0.05
726.804	0.05
727.12	0.05
727.435	0.05
727.751	0.05
728.067	0.05
728.382	0.05
728.697	0.05
729.013	0.05
729.328	0.05
729.643	0.05
729.958	0.05
730.273	0.05
730.588	0.05
730.903	0.05
731.218	0.05
731.533	0.05
731.848	0.05
732.163	0.05
732.477	0.05
732.792	0.05
733.107	0.04
733.421	0.05
733.736	0.05
734.05	0.05
734.364	0.05
734.678	0.05
734.993	0.04
735.307	0.05
735.621	0.05
735.935	0.05
736.249	0.05
736.563	0.05
736.877	0.05
737.19	0.05
737.504	0.05
737.818	0.05
738.131	0.04
738.445	0.05
738.758	0.05
739.072	0.05
739.385	0.05
739.698	0.04
740.012	0.04
740.325	0.05
740.638	0.04
740.951	0.05
741.264	0.04
741.577	0.04
741.89	0.04
742.203	0.04
742.515	0.04
742.828	0.04
743.141	0.04
743.453	0.04
743.766	0.04
744.078	0.04
744.391	0.04
744.703	0.04
745.015	0.04
745.327	0.04
745.639	0.04
745.952	0.04
746.264	0.04
746.575	0.04
746.887	0.04
747.199	0.04
747.511	0.04
747.823	0.04
748.134	0.04
748.446	0.04
748.757	0.04
749.069	0.04
749.38	0.03
749.692	0.04
750.003	0.04
750.314	0.03
750.625	0.04
750.936	0.03
751.248	0.03
751.559	0.04
751.869	0.04
752.18	0.04
752.491	0.03
752.802	0.03
753.112	0.03
753.423	0.03
753.734	0.03
754.044	0.03
754.355	0.03
754.665	0.03
754.975	0.03
755.285	0.03
755.596	0.03
755.906	0.03
756.216	0.03
756.526	0.03
756.836	0.03
757.146	0.03
757.455	0.03
757.765	0.02
758.075	0.02
758.385	0.02
758.694	0.02
759.004	0.02
759.313	0.02
759.622	0.02
759.932	0.03
760.241	0.03
760.55	0.02
760.859	0.02
761.168	0.02
761.477	0.02
761.786	0.02
762.095	0.02
762.404	0.02
762.713	0.02
763.021	0.02
763.33	0.02
763.639	0.02
763.947	0.02
764.256	0.02
764.564	0.02
764.872	0.02
765.181	0.02
765.489	0.02
765.797	0.02
766.105	0.02
766.413	0.02
766.721	0.02
767.029	0.02
767.337	0.02
767.644	0.02
767.952	0.02
768.26	0.02
768.567	0.02
768.875	0.02
769.182	0.02
769.49	0.02
769.797	0.02
770.104	0.02
770.411	0.02
770.718	0.02
771.026	0.02
771.333	0.02
771.639	0.02
771.946	0.02
772.253	0.02
772.56	0.02
772.867	0.02
773.173	0.02
773.48	0.02
773.786	0.02
774.093	0.02
774.399	0.02
774.705	0.02
775.012	0.02
775.318	0.02
775.624	0.02
775.93	0.02
776.236	0.02
776.542	0.02
776.848	0.02
777.154	0.02
777.459	0.02
777.765	0.02
778.071	0.02
778.376	0.02
778.682	0.02
778.987	0.02
779.292	0.02
779.598	0.02
779.903	0.02
780.208	0.02
780.513	0.02
780.818	0.02
781.123	0.02
781.428	0.02
781.733	0.02
782.038	0.02
782.343	0.02
782.647	0.02
782.952	0.02
783.256	0.02
783.561	0.02
783.865	0.02
784.17	0.03
784.474	0.03
784.778	0.03
785.082	0.03
785.386	0.03
785.69	0.03
785.994	0.02
786.298	0.03
786.602	0.03
786.906	0.02
787.209	0.02
787.513	0.03
787.817	0.03
788.12	0.02
788.424	0.03
788.727	0.02
789.03	0.02
789.333	0.02
789.637	0.02
789.94	0.02
790.243	0.02
790.546	0.02
790.849	0.02
791.152	0.02
791.454	0.02
791.757	0.02
792.06	0.02
792.362	0.02
792.665	0.02
792.967	0.02
793.27	0.02
793.572	0.02
793.874	0.02
794.177	0.02
794.479	0.03
794.781	0.02
795.083	0.02
795.385	0.02
795.687	0.02
795.989	0.02
796.29	0.02
796.592	0.02
796.894	0.02
797.195	0.02
797.497	0.03
797.798	0.02
798.1	0.03
798.401	0.02
798.702	0.02
799.003	0.03
799.304	0.02
799.605	0.02
799.906	0.03
800.207	0.03
800.508	0.02
800.809	0.02
801.11	0.02
801.41	0.02
801.711	0.03
802.011	0.02
802.312	0.02
802.612	0.03
802.913	0.03
803.213	0.03
803.513	0.02
803.813	0.03
804.113	0.02
804.413	0.02
804.713	0.02
805.013	0.02
805.313	0.02
805.613	0.03
805.912	0.02
806.212	0.02
806.511	0.02
806.811	0.02
807.11	0.02
807.41	0.03
807.709	0.03
808.008	0.03
808.307	0.03
808.606	0.03
808.905	0.03
809.204	0.03
809.503	0.03
809.802	0.03
810.101	0.03
810.399	0.03
810.698	0.04
810.997	0.03
811.295	0.03
811.593	0.03
811.892	0.03
812.19	0.03
812.488	0.03
812.786	0.02
813.084	0.03
813.383	0.03
813.68	0.03
813.978	0.03
814.276	0.03
814.574	0.03
814.872	0.03
815.169	0.03
815.467	0.03
815.764	0.03
816.062	0.03
816.359	0.03
816.656	0.03
816.954	0.03
817.251	0.03
817.548	0.03
817.845	0.03
818.142	0.03
818.439	0.03
818.735	0.03
819.032	0.03
819.329	0.03
819.626	0.03
819.922	0.03
820.219	0.03
820.515	0.03
820.811	0.03
821.108	0.04
821.404	0.03
821.7	0.03
821.996	0.04
822.292	0.03
822.588	0.04
822.884	0.04
823.18	0.04
823.475	0.04
823.771	0.04
824.067	0.04
824.362	0.04
824.658	0.03
824.953	0.03
825.249	0.03
825.544	0.04
825.839	0.04
826.134	0.04
826.429	0.04
826.724	0.03
827.019	0.04
827.314	0.04
827.609	0.04
827.904	0.04
828.198	0.03
828.493	0.03
828.787	0.04
829.082	0.04
829.376	0.03
829.671	0.03
829.965	0.03
830.259	0.04
830.553	0.04
830.847	0.04
831.141	0.04
831.435	0.03
831.729	0.04
832.023	0.04
832.317	0.04
832.61	0.04
832.904	0.04
833.197	0.04
833.491	0.04
833.784	0.04
834.077	0.04
834.371	0.04
834.664	0.04
834.957	0.04
835.25	0.04
835.543	0.03
835.836	0.03
836.129	0.03
836.421	0.03
836.714	0.04
837.007	0.03
837.299	0.04
837.592	0.04
837.884	0.04
838.177	0.04
838.469	0.04
838.761	0.04
839.053	0.04
839.345	0.04
839.637	0.04
839.929	0.04
840.221	0.04
840.513	0.04
840.805	0.04
841.096	0.03
841.388	0.04
841.68	0.05
841.971	0.04
842.262	0.04
842.554	0.04
842.845	0.04
843.136	0.04
843.427	0.04
843.718	0.04
844.009	0.04
844.3	0.04
844.591	0.04
844.882	0.04
845.173	0.04
845.463	0.04
845.754	0.05
846.044	0.05
846.335	0.05
846.625	0.05
846.915	0.05
847.206	0.05
847.496	0.05
847.786	0.05
848.076	0.05
848.366	0.05
848.656	0.04
848.945	0.05
849.235	0.04
849.525	0.04
849.814	0.04
850.104	0.05
850.393	0.05
850.683	0.05
850.972	0.04
851.261	0.05
851.551	0.05
851.84	0.05
852.129	0.04
852.418	0.04
852.707	0.05
852.995	0.04
853.284	0.05
853.573	0.05
853.862	0.04
854.15	0.04
854.439	0.04
854.727	0.04
855.015	0.05
855.304	0.05
855.592	0.05
855.88	0.05
856.168	0.05
856.456	0.04
856.744	0.06
857.032	0.06
857.32	0.04
857.607	0.05
857.895	0.07
858.183	0.05
858.47	0.04
858.757	0.06
859.045	0.06
859.332	0.06
859.619	0.05
859.907	0.07
860.194	0.07
860.481	0.06
860.768	0.06
861.054	0.07
861.341	0.06
861.628	0.06
861.915	0.06
862.201	0.07
862.488	0.06
862.774	0.06
863.061	0.07
863.347	0.04
863.633	0.07
863.919	0.05
864.205	0.05
864.491	0.04
864.777	0.05
865.063	0.05
865.349	0.05
865.635	0.06
865.92	0.04
866.206	0.07
866.492	0.07
866.777	0.06
867.062	0.05
867.348	0.07
867.633	0.04
867.918	0.05
868.203	0.06
868.488	0.07
868.773	0.04
869.058	0.04
869.343	0.06
869.628	0.02
869.912	0.06
870.197	0.06
870.482	0.05
870.766	0.04
871.05	0.03
871.335	0.07
871.619	0.02
871.903	0.08
872.187	0.05
872.471	0.02
872.755	0
873.039	0.03
873.323	0.07
873.607	0.07
873.89	0.08
874.174	0.04
874.458	0.04
874.741	0.09
875.024	0.06
875.308	0.07
875.591	0.05
875.874	0.03
876.157	0.1
876.44	0.11
876.723	0.04
877.006	0.04
877.289	0.05
877.572	0.04
877.854	0.04
878.137	0.01
878.42	0.03
878.702	0.09
878.984	-0.01
879.267	0.04
879.549	0.03
879.831	0.03
880.113	0.09
880.395	0.09
880.677	0.09
880.959	0.06
