Data from Rubpy_BV_1500_EDTA_Buffered_Absorbance_14-42-08-702.txt Node
Date: Wed Jul 01 14:42:08 BST 2026
User: fpm-admin
Spectrometer: OFX00224
Trigger mode: 0
Integration Time (sec): 7.000000E-2
Scans to average: 3
Nonlinearity correction enabled: false
Boxcar width: 0
Storing dark spectrum: false
XAxis mode: Wavelengths
Number of Pixels in Spectrum: 2136
>>>>>Begin Spectral Data<<<<<
154.91	-0.12
155.289	0.24
155.669	-0.81
156.048	-0
156.428	-0.18
156.807	-0
157.186	-0.62
157.566	-0.16
157.945	0.4
158.325	-0
158.704	-0
159.083	-0
159.462	-0.09
159.842	0.19
160.221	-0
160.6	-0
160.979	-0.42
161.359	-0.04
161.738	0.06
162.117	0.19
162.496	-0.24
162.875	0.12
163.254	0.52
163.633	0.27
164.012	0.06
164.391	0.15
164.77	-0.05
165.149	0.54
165.528	-0.68
165.907	-0
166.286	-0.67
166.665	0.28
167.044	-0
167.423	0.31
167.802	-0
168.181	0.7
168.559	0.09
168.938	-0.2
169.317	-0
169.696	0.06
170.074	-0
170.453	0.21
170.832	0.25
171.21	-0.14
171.589	-0.14
171.968	-0.72
172.346	0.26
172.725	-0
173.103	-0
173.482	-1.1
173.861	-0
174.239	-0
174.617	0.59
174.996	0.06
175.374	0.04
175.753	-0.35
176.131	0.04
176.51	-0.03
176.888	-0
177.266	-0
177.645	0.08
178.023	1.05
178.401	-0.1
178.779	0.11
179.158	0.59
179.536	-0.35
179.914	-0.03
180.292	0.18
180.67	-0
181.048	1.13
181.427	-0
181.805	-0.15
182.183	-0.43
182.561	0.58
182.939	-0
183.317	0.09
183.695	-0.23
184.073	-0
184.451	-0.07
184.829	-0
185.206	-0.74
185.584	-0
185.962	-0.07
186.34	-0
186.718	-0.93
187.096	-0
187.473	-0.16
187.851	-0
188.229	0.13
188.607	0.09
188.984	0.27
189.362	0.43
189.74	0.35
190.117	0.19
190.495	0.25
190.872	0.25
191.25	0.31
191.627	0.23
192.005	0.31
192.382	0.31
192.76	0.28
193.137	0.21
193.515	0.15
193.892	0.29
194.269	0.32
194.647	0.36
195.024	0.23
195.401	0.31
195.779	0.25
196.156	0.36
196.533	0.51
196.91	0.27
197.288	0.31
197.665	0.33
198.042	0.34
198.419	0.39
198.796	0.34
199.173	0.24
199.55	0.32
199.927	0.31
200.304	0.25
200.681	0.41
201.058	0.27
201.435	0.38
201.812	0.34
202.189	0.28
202.566	0.25
202.943	0.22
203.32	0.31
203.697	0.29
204.073	0.19
204.45	0.07
204.827	0.38
205.204	0.26
205.58	0.25
205.957	0.2
206.334	0.27
206.71	0.18
207.087	0.42
207.464	0.31
207.84	0.17
208.217	0.27
208.593	0.42
208.97	0.38
209.346	0.34
209.723	0.22
210.099	0.26
210.476	0.32
210.852	0.5
211.228	0.36
211.605	0.22
211.981	0.25
212.357	0.24
212.733	0.26
213.11	0.22
213.486	0.29
213.862	0.38
214.238	0.44
214.614	0.28
214.991	0.21
215.367	0.21
215.743	0.23
216.119	0.38
216.495	0.3
216.871	0.25
217.247	0.17
217.623	0.24
217.999	0.27
218.375	0.23
218.751	0.35
219.127	0.3
219.502	0.24
219.878	0.5
220.254	0.3
220.63	0.47
221.006	0.24
221.381	0.32
221.757	0.36
222.133	0.15
222.508	0.47
222.884	0.33
223.26	0.26
223.635	0.29
224.011	0.49
224.386	0.48
224.762	0.37
225.137	0.4
225.513	0.43
225.888	0.75
226.264	0.45
226.639	0.28
227.014	0.44
227.39	0.31
227.765	0.35
228.14	0.38
228.516	0.25
228.891	0.38
229.266	0.5
229.641	0.26
230.017	0.43
230.392	0.32
230.767	0.34
231.142	0.15
231.517	0.19
231.892	0.43
232.267	0.35
232.642	0.28
233.017	0.25
233.392	0.26
233.767	0.24
234.142	0.36
234.517	0.28
234.892	0.29
235.267	0.41
235.641	0.23
236.016	0.27
236.391	0.35
236.766	0.36
237.14	0.24
237.515	0.35
237.89	0.3
238.264	0.53
238.639	0.4
239.014	0.25
239.388	0.31
239.763	0.36
240.137	0.25
240.512	0.37
240.886	0.32
241.261	0.33
241.635	0.21
242.009	0.36
242.384	0.37
242.758	0.53
243.132	0.25
243.507	0.3
243.881	0.31
244.255	0.29
244.629	0.34
245.004	0.32
245.378	0.41
245.752	0.28
246.126	0.35
246.5	0.27
246.874	0.24
247.248	0.4
247.622	0.3
247.996	0.35
248.37	0.28
248.744	0.41
249.118	0.3
249.492	0.53
249.866	0.27
250.24	0.26
250.613	0.38
250.987	0.45
251.361	0.37
251.735	0.54
252.108	0.32
252.482	0.35
252.856	0.42
253.229	0.4
253.603	0.38
253.977	0.31
254.35	0.29
254.724	0.27
255.097	0.29
255.471	0.3
255.844	0.37
256.218	0.49
256.591	0.52
256.964	0.28
257.338	0.29
257.711	0.29
258.084	0.38
258.458	0.4
258.831	0.37
259.204	0.43
259.577	0.35
259.95	0.44
260.323	0.36
260.697	0.32
261.07	0.45
261.443	0.42
261.816	0.43
262.189	0.38
262.562	0.26
262.935	0.31
263.308	0.31
263.68	0.24
264.053	0.38
264.426	0.48
264.799	0.38
265.172	0.35
265.545	0.62
265.917	0.37
266.29	0.52
266.663	0.37
267.035	0.3
267.408	0.25
267.781	0.38
268.153	0.37
268.526	0.29
268.898	0.36
269.271	0.3
269.643	0.29
270.016	0.39
270.388	0.4
270.76	0.28
271.133	0.25
271.505	0.39
271.877	0.42
272.25	0.37
272.622	0.62
272.994	0.38
273.366	0.37
273.739	0.32
274.111	0.35
274.483	0.37
274.855	0.37
275.227	0.36
275.599	0.26
275.971	0.35
276.343	0.24
276.715	0.37
277.087	0.3
277.459	0.32
277.831	0.47
278.203	0.37
278.574	0.34
278.946	0.37
279.318	0.37
279.69	0.39
280.061	0.34
280.433	0.33
280.805	0.36
281.176	0.38
281.548	0.38
281.92	0.49
282.291	0.38
282.663	0.45
283.034	0.34
283.406	0.23
283.777	0.35
284.148	0.42
284.52	0.45
284.891	0.38
285.262	0.44
285.634	0.36
286.005	0.4
286.376	0.38
286.747	0.42
287.119	0.42
287.49	0.33
287.861	0.32
288.232	0.45
288.603	0.43
288.974	0.41
289.345	0.32
289.716	0.34
290.087	0.38
290.458	0.43
290.829	0.38
291.2	0.31
291.571	0.37
291.941	0.4
292.312	0.37
292.683	0.36
293.054	0.38
293.424	0.35
293.795	0.31
294.166	0.44
294.536	0.34
294.907	0.45
295.277	0.35
295.648	0.4
296.018	0.34
296.389	0.36
296.759	0.36
297.13	0.33
297.5	0.47
297.871	0.37
298.241	0.36
298.611	0.44
298.981	0.39
299.352	0.32
299.722	0.36
300.092	0.36
300.462	0.39
300.832	0.35
301.202	0.42
301.573	0.34
301.943	0.3
302.313	0.37
302.683	0.36
303.053	0.37
303.422	0.34
303.792	0.3
304.162	0.35
304.532	0.29
304.902	0.27
305.272	0.33
305.641	0.29
306.011	0.27
306.381	0.32
306.75	0.28
307.12	0.32
307.49	0.33
307.859	0.27
308.229	0.33
308.598	0.29
308.968	0.28
309.337	0.28
309.707	0.31
310.076	0.3
310.445	0.3
310.815	0.31
311.184	0.27
311.553	0.29
311.923	0.27
312.292	0.29
312.661	0.3
313.03	0.33
313.399	0.29
313.768	0.3
314.137	0.32
314.506	0.3
314.875	0.34
315.244	0.34
315.613	0.34
315.982	0.36
316.351	0.33
316.72	0.37
317.089	0.35
317.458	0.34
317.826	0.37
318.195	0.37
318.564	0.36
318.933	0.37
319.301	0.37
319.67	0.38
320.038	0.38
320.407	0.4
320.775	0.41
321.144	0.41
321.512	0.42
321.881	0.42
322.249	0.42
322.618	0.43
322.986	0.43
323.354	0.45
323.723	0.45
324.091	0.46
324.459	0.47
324.827	0.47
325.195	0.48
325.564	0.47
325.932	0.47
326.3	0.48
326.668	0.51
327.036	0.52
327.404	0.53
327.772	0.53
328.14	0.53
328.508	0.56
328.875	0.54
329.243	0.57
329.611	0.57
329.979	0.58
330.346	0.58
330.714	0.59
331.082	0.61
331.449	0.62
331.817	0.62
332.185	0.63
332.552	0.65
332.92	0.67
333.287	0.68
333.655	0.69
334.022	0.71
334.389	0.72
334.757	0.73
335.124	0.73
335.491	0.76
335.859	0.77
336.226	0.79
336.593	0.81
336.96	0.81
337.327	0.83
337.695	0.85
338.062	0.87
338.429	0.87
338.796	0.88
339.163	0.91
339.53	0.92
339.897	0.93
340.263	0.95
340.63	0.97
340.997	0.99
341.364	1.01
341.731	1.01
342.097	1.04
342.464	1.05
342.831	1.07
343.197	1.08
343.564	1.11
343.931	1.12
344.297	1.14
344.664	1.17
345.03	1.19
345.396	1.18
345.763	1.2
346.129	1.22
346.496	1.25
346.862	1.25
347.228	1.28
347.594	1.29
347.961	1.3
348.327	1.33
348.693	1.35
349.059	1.36
349.425	1.35
349.791	1.4
350.157	1.41
350.523	1.4
350.889	1.43
351.255	1.43
351.621	1.46
351.987	1.47
352.353	1.48
352.719	1.51
353.084	1.51
353.45	1.53
353.816	1.53
354.181	1.55
354.547	1.59
354.913	1.6
355.278	1.63
355.644	1.64
356.009	1.67
356.375	1.66
356.74	1.67
357.106	1.7
357.471	1.69
357.836	1.69
358.202	1.75
358.567	1.74
358.932	1.81
359.297	1.83
359.663	1.85
360.028	1.85
360.393	1.81
360.758	1.93
361.123	1.9
361.488	1.9
361.853	1.88
362.218	1.93
362.583	1.89
362.948	1.88
363.312	1.97
363.677	1.99
364.042	2
364.407	2.01
364.772	2.02
365.136	2.03
365.501	2.03
365.865	1.95
366.23	2.06
366.595	2.05
366.959	2.03
367.324	2.01
367.688	2.05
368.052	2.07
368.417	2.08
368.781	2.08
369.145	2.09
369.51	2.09
369.874	2.1
370.238	2.16
370.602	2.09
370.967	2.07
371.331	2.1
371.695	2.11
372.059	2.1
372.423	2.16
372.787	2.11
373.151	2.18
373.515	2.11
373.878	2.08
374.242	2.13
374.606	2.1
374.97	2.14
375.334	2.01
375.697	2.07
376.061	2.05
376.425	2.09
376.788	2.02
377.152	2.04
377.515	2
377.879	2.05
378.242	2.02
378.606	2.06
378.969	1.97
379.333	2.01
379.696	1.97
380.059	1.93
380.422	1.93
380.786	1.89
381.149	1.98
381.512	1.91
381.875	1.9
382.238	1.86
382.601	1.83
382.964	1.8
383.327	1.79
383.69	1.81
384.053	1.79
384.416	1.73
384.779	1.73
385.142	1.72
385.504	1.71
385.867	1.69
386.23	1.67
386.593	1.66
386.955	1.66
387.318	1.66
387.68	1.65
388.043	1.63
388.405	1.63
388.768	1.61
389.13	1.59
389.493	1.58
389.855	1.57
390.217	1.54
390.58	1.55
390.942	1.53
391.304	1.55
391.666	1.49
392.028	1.46
392.391	1.45
392.753	1.42
393.115	1.42
393.477	1.38
393.839	1.38
394.201	1.34
394.563	1.35
394.924	1.35
395.286	1.34
395.648	1.35
396.01	1.35
396.371	1.36
396.733	1.38
397.095	1.38
397.456	1.42
397.818	1.4
398.18	1.44
398.541	1.45
398.903	1.5
399.264	1.52
399.625	1.54
399.987	1.58
400.348	1.61
400.709	1.62
401.071	1.61
401.432	1.63
401.793	1.62
402.154	1.6
402.515	1.58
402.876	1.56
403.238	1.54
403.599	1.5
403.96	1.47
404.32	1.43
404.681	1.37
405.042	1.33
405.403	1.26
405.764	1.23
406.125	1.16
406.485	1.12
406.846	1.06
407.207	1.01
407.567	0.96
407.928	0.9
408.288	0.87
408.649	0.82
409.009	0.78
409.37	0.73
409.73	0.69
410.091	0.66
410.451	0.63
410.811	0.59
411.171	0.58
411.532	0.54
411.892	0.52
412.252	0.5
412.612	0.48
412.972	0.46
413.332	0.44
413.692	0.42
414.052	0.41
414.412	0.39
414.772	0.37
415.132	0.37
415.492	0.35
415.851	0.34
416.211	0.33
416.571	0.32
416.931	0.31
417.29	0.31
417.65	0.3
418.009	0.3
418.369	0.29
418.728	0.28
419.088	0.27
419.447	0.26
419.807	0.25
420.166	0.25
420.525	0.25
420.884	0.24
421.244	0.24
421.603	0.23
421.962	0.23
422.321	0.23
422.68	0.22
423.039	0.22
423.398	0.22
423.757	0.21
424.116	0.21
424.475	0.22
424.834	0.2
425.193	0.21
425.551	0.21
425.91	0.2
426.269	0.2
426.628	0.2
426.986	0.2
427.345	0.19
427.703	0.2
428.062	0.19
428.42	0.19
428.779	0.19
429.137	0.19
429.496	0.18
429.854	0.19
430.212	0.18
430.57	0.19
430.929	0.18
431.287	0.18
431.645	0.17
432.003	0.18
432.361	0.18
432.719	0.18
433.077	0.18
433.435	0.18
433.793	0.18
434.151	0.18
434.509	0.18
434.866	0.18
435.224	0.17
435.582	0.18
435.94	0.19
436.297	0.18
436.655	0.17
437.012	0.18
437.37	0.18
437.727	0.18
438.085	0.18
438.442	0.18
438.8	0.18
439.157	0.18
439.514	0.19
439.872	0.18
440.229	0.19
440.586	0.17
440.943	0.19
441.3	0.19
441.657	0.19
442.014	0.19
442.371	0.18
442.728	0.18
443.085	0.2
443.442	0.19
443.799	0.18
444.156	0.19
444.513	0.19
444.869	0.19
445.226	0.19
445.583	0.2
445.939	0.19
446.296	0.2
446.652	0.2
447.009	0.2
447.365	0.2
447.722	0.2
448.078	0.2
448.434	0.21
448.791	0.21
449.147	0.2
449.503	0.21
449.859	0.21
450.215	0.21
450.571	0.22
450.928	0.22
451.284	0.21
451.64	0.21
451.995	0.21
452.351	0.23
452.707	0.23
453.063	0.22
453.419	0.23
453.775	0.22
454.13	0.23
454.486	0.24
454.842	0.24
455.197	0.23
455.553	0.24
455.908	0.24
456.264	0.25
456.619	0.25
456.975	0.24
457.33	0.25
457.685	0.25
458.04	0.25
458.396	0.26
458.751	0.26
459.106	0.25
459.461	0.26
459.816	0.26
460.171	0.26
460.526	0.26
460.881	0.27
461.236	0.27
461.591	0.28
461.946	0.27
462.301	0.27
462.655	0.28
463.01	0.28
463.365	0.29
463.719	0.28
464.074	0.29
464.428	0.29
464.783	0.28
465.137	0.3
465.492	0.3
465.846	0.29
466.201	0.3
466.555	0.3
466.909	0.31
467.263	0.3
467.618	0.31
467.972	0.32
468.326	0.33
468.68	0.32
469.034	0.32
469.388	0.33
469.742	0.33
470.096	0.33
470.45	0.35
470.804	0.35
471.157	0.34
471.511	0.34
471.865	0.35
472.218	0.36
472.572	0.36
472.926	0.37
473.279	0.37
473.633	0.37
473.986	0.38
474.34	0.38
474.693	0.39
475.046	0.4
475.4	0.4
475.753	0.41
476.106	0.42
476.459	0.41
476.812	0.42
477.165	0.43
477.519	0.43
477.872	0.43
478.224	0.44
478.577	0.45
478.93	0.45
479.283	0.45
479.636	0.46
479.989	0.47
480.341	0.47
480.694	0.47
481.047	0.48
481.399	0.48
481.752	0.5
482.104	0.5
482.457	0.5
482.809	0.51
483.162	0.51
483.514	0.51
483.866	0.52
484.219	0.52
484.571	0.53
484.923	0.54
485.275	0.55
485.627	0.55
485.979	0.56
486.331	0.55
486.683	0.56
487.035	0.57
487.387	0.56
487.739	0.58
488.091	0.59
488.443	0.59
488.794	0.6
489.146	0.59
489.498	0.6
489.849	0.6
490.201	0.61
490.552	0.61
490.904	0.62
491.255	0.62
491.607	0.63
491.958	0.64
492.309	0.64
492.661	0.64
493.012	0.64
493.363	0.65
493.714	0.66
494.065	0.67
494.416	0.67
494.767	0.67
495.118	0.69
495.469	0.69
495.82	0.69
496.171	0.69
496.522	0.7
496.872	0.71
497.223	0.7
497.574	0.72
497.924	0.73
498.275	0.73
498.626	0.73
498.976	0.74
499.327	0.74
499.677	0.74
500.027	0.74
500.378	0.75
500.728	0.76
501.078	0.77
501.428	0.78
501.779	0.77
502.129	0.78
502.479	0.78
502.829	0.79
503.179	0.79
503.529	0.8
503.879	0.81
504.229	0.81
504.578	0.82
504.928	0.82
505.278	0.83
505.628	0.84
505.977	0.84
506.327	0.84
506.676	0.85
507.026	0.85
507.375	0.86
507.725	0.85
508.074	0.86
508.424	0.86
508.773	0.87
509.122	0.88
509.471	0.88
509.82	0.88
510.17	0.88
510.519	0.89
510.868	0.91
511.217	0.91
511.566	0.92
511.915	0.91
512.263	0.91
512.612	0.93
512.961	0.93
513.31	0.93
513.659	0.94
514.007	0.94
514.356	0.94
514.704	0.95
515.053	0.95
515.401	0.96
515.75	0.96
516.098	0.97
516.447	0.96
516.795	0.98
517.143	0.98
517.491	0.99
517.839	0.98
518.188	0.99
518.536	0.99
518.884	1
519.232	1
519.58	1
519.928	1
520.275	1.01
520.623	1.01
520.971	1.01
521.319	1.02
521.666	1.02
522.014	1.03
522.362	1.02
522.709	1.02
523.057	1.04
523.404	1.04
523.752	1.05
524.099	1.04
524.446	1.05
524.794	1.05
525.141	1.06
525.488	1.07
525.835	1.06
526.182	1.06
526.529	1.06
526.876	1.07
527.223	1.07
527.57	1.08
527.917	1.07
528.264	1.09
528.611	1.08
528.958	1.09
529.304	1.09
529.651	1.09
529.998	1.09
530.344	1.1
530.691	1.09
531.037	1.1
531.384	1.11
531.73	1.11
532.076	1.11
532.423	1.11
532.769	1.11
533.115	1.11
533.461	1.12
533.807	1.11
534.154	1.12
534.5	1.12
534.846	1.12
535.192	1.13
535.537	1.12
535.883	1.12
536.229	1.14
536.575	1.13
536.921	1.13
537.266	1.14
537.612	1.15
537.957	1.15
538.303	1.14
538.649	1.14
538.994	1.14
539.339	1.15
539.685	1.15
540.03	1.15
540.375	1.16
540.721	1.15
541.066	1.16
541.411	1.16
541.756	1.17
542.101	1.15
542.446	1.17
542.791	1.16
543.136	1.16
543.481	1.16
543.825	1.17
544.17	1.17
544.515	1.17
544.86	1.17
545.204	1.17
545.549	1.16
545.893	1.17
546.238	1.17
546.582	1.16
546.927	1.18
547.271	1.17
547.615	1.17
547.96	1.18
548.304	1.17
548.648	1.17
548.992	1.18
549.336	1.17
549.68	1.17
550.024	1.19
550.368	1.18
550.712	1.18
551.056	1.17
551.4	1.17
551.743	1.17
552.087	1.17
552.431	1.17
552.774	1.17
553.118	1.17
553.462	1.17
553.805	1.17
554.148	1.17
554.492	1.17
554.835	1.17
555.178	1.17
555.522	1.17
555.865	1.17
556.208	1.17
556.551	1.17
556.894	1.16
557.237	1.16
557.58	1.16
557.923	1.16
558.266	1.16
558.609	1.15
558.952	1.16
559.294	1.16
559.637	1.15
559.98	1.15
560.322	1.15
560.665	1.15
561.007	1.15
561.35	1.15
561.692	1.15
562.034	1.15
562.377	1.14
562.719	1.15
563.061	1.14
563.403	1.14
563.745	1.14
564.088	1.14
564.43	1.14
564.772	1.14
565.113	1.14
565.455	1.14
565.797	1.13
566.139	1.12
566.481	1.12
566.822	1.13
567.164	1.12
567.506	1.12
567.847	1.12
568.189	1.12
568.53	1.11
568.872	1.11
569.213	1.11
569.554	1.11
569.895	1.11
570.237	1.11
570.578	1.1
570.919	1.1
571.26	1.09
571.601	1.1
571.942	1.09
572.283	1.09
572.624	1.09
572.965	1.09
573.306	1.08
573.646	1.08
573.987	1.08
574.328	1.08
574.668	1.08
575.009	1.07
575.349	1.07
575.69	1.06
576.03	1.06
576.37	1.06
576.711	1.05
577.051	1.05
577.391	1.05
577.731	1.05
578.072	1.05
578.412	1.04
578.752	1.04
579.092	1.04
579.431	1.03
579.771	1.01
580.111	1
580.451	1.01
580.791	1.03
581.13	1.02
581.47	1.03
581.81	1.02
582.149	1.02
582.489	1.02
582.828	1
583.167	0.98
583.507	0.94
583.846	0.93
584.185	0.96
584.525	0.98
584.864	1
585.203	1.01
585.542	1.01
585.881	1
586.22	1.01
586.559	0.99
586.898	0.99
587.236	0.98
587.575	0.97
587.914	0.98
588.252	0.99
588.591	0.99
588.93	0.99
589.268	0.98
589.607	0.98
589.945	0.98
590.283	0.98
590.622	0.98
590.96	0.98
591.298	0.98
591.636	0.98
591.974	0.99
592.313	0.98
592.651	0.99
592.989	0.98
593.326	0.98
593.664	0.98
594.002	0.98
594.34	0.97
594.678	0.98
595.015	0.96
595.353	0.96
595.691	0.97
596.028	0.97
596.366	0.97
596.703	0.97
597.04	0.97
597.378	0.97
597.715	0.97
598.052	0.97
598.389	0.97
598.726	0.97
599.064	0.96
599.401	0.96
599.738	0.97
600.074	0.96
600.411	0.96
600.748	0.95
601.085	0.95
601.422	0.95
601.758	0.95
602.095	0.94
602.432	0.94
602.768	0.94
603.105	0.94
603.441	0.95
603.777	0.95
604.114	0.95
604.45	0.94
604.786	0.94
605.122	0.94
605.459	0.93
605.795	0.93
606.131	0.92
606.467	0.93
606.803	0.92
607.139	0.92
607.474	0.92
607.81	0.92
608.146	0.92
608.482	0.92
608.817	0.91
609.153	0.91
609.488	0.9
609.824	0.9
610.159	0.9
610.495	0.9
610.83	0.9
611.165	0.9
611.5	0.89
611.836	0.89
612.171	0.89
612.506	0.88
612.841	0.88
613.176	0.88
613.511	0.88
613.845	0.87
614.18	0.87
614.515	0.87
614.85	0.86
615.184	0.86
615.519	0.86
615.854	0.85
616.188	0.85
616.523	0.85
616.857	0.84
617.191	0.84
617.526	0.83
617.86	0.83
618.194	0.83
618.528	0.83
618.862	0.83
619.196	0.83
619.53	0.83
619.864	0.82
620.198	0.82
620.532	0.81
620.866	0.82
621.2	0.81
621.533	0.8
621.867	0.8
622.201	0.8
622.534	0.79
622.868	0.8
623.201	0.79
623.534	0.78
623.868	0.78
624.201	0.78
624.534	0.78
624.868	0.77
625.201	0.77
625.534	0.76
625.867	0.76
626.2	0.76
626.533	0.76
626.865	0.76
627.198	0.75
627.531	0.75
627.864	0.74
628.196	0.74
628.529	0.73
628.862	0.73
629.194	0.73
629.527	0.72
629.859	0.72
630.191	0.71
630.524	0.71
630.856	0.71
631.188	0.71
631.52	0.7
631.852	0.69
632.184	0.69
632.516	0.69
632.848	0.69
633.18	0.68
633.512	0.68
633.844	0.68
634.175	0.67
634.507	0.66
634.839	0.66
635.17	0.66
635.502	0.65
635.833	0.65
636.165	0.64
636.496	0.64
636.827	0.63
637.159	0.63
637.49	0.63
637.821	0.62
638.152	0.62
638.483	0.61
638.814	0.6
639.145	0.61
639.476	0.6
639.807	0.6
640.137	0.6
640.468	0.59
640.799	0.59
641.129	0.58
641.46	0.58
641.791	0.58
642.121	0.57
642.451	0.57
642.782	0.56
643.112	0.56
643.442	0.56
643.773	0.55
644.103	0.55
644.433	0.55
644.763	0.55
645.093	0.54
645.423	0.54
645.753	0.54
646.082	0.53
646.412	0.53
646.742	0.52
647.072	0.52
647.401	0.52
647.731	0.52
648.06	0.51
648.39	0.51
648.719	0.51
649.048	0.51
649.378	0.51
649.707	0.51
650.036	0.5
650.365	0.5
650.694	0.49
651.023	0.5
651.352	0.49
651.681	0.49
652.01	0.49
652.339	0.48
652.668	0.48
652.996	0.48
653.325	0.49
653.654	0.49
653.982	0.48
654.311	0.49
654.639	0.48
654.967	0.48
655.296	0.47
655.624	0.47
655.952	0.47
656.28	0.47
656.609	0.47
656.937	0.47
657.265	0.46
657.593	0.33
657.92	0.23
658.248	0.19
658.576	0.21
658.904	0.31
659.231	0.4
659.559	0.45
659.887	0.45
660.214	0.45
660.542	0.44
660.869	0.44
661.196	0.44
661.524	0.44
661.851	0.44
662.178	0.43
662.505	0.43
662.832	0.43
663.159	0.43
663.486	0.43
663.813	0.43
664.14	0.42
664.467	0.42
664.794	0.42
665.12	0.42
665.447	0.42
665.774	0.41
666.1	0.41
666.427	0.41
666.753	0.41
667.079	0.41
667.406	0.4
667.732	0.4
668.058	0.4
668.384	0.4
668.71	0.4
669.036	0.39
669.362	0.39
669.688	0.39
670.014	0.39
670.34	0.39
670.666	0.38
670.991	0.38
671.317	0.38
671.643	0.38
671.968	0.37
672.294	0.37
672.619	0.37
672.945	0.36
673.27	0.36
673.595	0.36
673.92	0.35
674.246	0.35
674.571	0.35
674.896	0.35
675.221	0.35
675.546	0.34
675.87	0.34
676.195	0.34
676.52	0.33
676.845	0.33
677.169	0.33
677.494	0.33
677.819	0.32
678.143	0.32
678.468	0.32
678.792	0.31
679.116	0.31
679.44	0.31
679.765	0.31
680.089	0.3
680.413	0.3
680.737	0.3
681.061	0.29
681.385	0.29
681.709	0.29
682.033	0.28
682.356	0.28
682.68	0.28
683.004	0.28
683.327	0.27
683.651	0.27
683.974	0.27
684.298	0.26
684.621	0.26
684.944	0.26
685.268	0.26
685.591	0.25
685.914	0.25
686.237	0.25
686.56	0.24
686.883	0.24
687.206	0.23
687.529	0.23
687.852	0.23
688.175	0.23
688.497	0.23
688.82	0.23
689.142	0.22
689.465	0.22
689.787	0.22
690.11	0.22
690.432	0.21
690.755	0.21
691.077	0.21
691.399	0.21
691.721	0.21
692.043	0.21
692.365	0.2
692.687	0.2
693.009	0.2
693.331	0.19
693.653	0.19
693.974	0.19
694.296	0.18
694.618	0.18
694.939	0.18
695.261	0.18
695.582	0.18
695.904	0.17
696.225	0.18
696.546	0.18
696.868	0.17
697.189	0.17
697.51	0.17
697.831	0.17
698.152	0.17
698.473	0.17
698.794	0.16
699.114	0.16
699.435	0.14
699.756	0.15
700.077	0.15
700.397	0.16
700.718	0.16
701.038	0.15
701.359	0.16
701.679	0.15
701.999	0.15
702.32	0.15
702.64	0.14
702.96	0.14
703.28	0.14
703.6	0.15
703.92	0.14
704.24	0.14
704.56	0.14
704.879	0.14
705.199	0.14
705.519	0.14
705.838	0.14
706.158	0.14
706.478	0.14
706.797	0.14
707.116	0.14
707.436	0.14
707.755	0.14
708.074	0.14
708.393	0.13
708.712	0.13
709.031	0.12
709.35	0.12
709.669	0.12
709.988	0.12
710.307	0.12
710.626	0.12
710.944	0.13
711.263	0.13
711.582	0.13
711.9	0.13
712.219	0.13
712.537	0.13
712.855	0.13
713.174	0.13
713.492	0.13
713.81	0.13
714.128	0.13
714.446	0.13
714.764	0.13
715.082	0.12
715.4	0.13
715.718	0.13
716.035	0.12
716.353	0.13
716.671	0.13
716.988	0.13
717.306	0.13
717.623	0.13
717.941	0.13
718.258	0.13
718.575	0.14
718.893	0.14
719.21	0.13
719.527	0.13
719.844	0.13
720.161	0.13
720.478	0.13
720.795	0.13
721.112	0.14
721.428	0.13
721.745	0.14
722.062	0.14
722.378	0.14
722.695	0.14
723.011	0.13
723.328	0.14
723.644	0.14
723.96	0.14
724.276	0.14
724.593	0.14
724.909	0.14
725.225	0.14
725.541	0.14
725.857	0.14
726.173	0.14
726.488	0.14
726.804	0.14
727.12	0.14
727.435	0.14
727.751	0.14
728.067	0.14
728.382	0.14
728.697	0.14
729.013	0.14
729.328	0.14
729.643	0.14
729.958	0.14
730.273	0.14
730.588	0.14
730.903	0.14
731.218	0.14
731.533	0.14
731.848	0.14
732.163	0.14
732.477	0.13
732.792	0.13
733.107	0.13
733.421	0.13
733.736	0.13
734.05	0.13
734.364	0.13
734.678	0.13
734.993	0.13
735.307	0.13
735.621	0.13
735.935	0.13
736.249	0.13
736.563	0.13
736.877	0.13
737.19	0.13
737.504	0.13
737.818	0.12
738.131	0.12
738.445	0.13
738.758	0.12
739.072	0.13
739.385	0.13
739.698	0.13
740.012	0.13
740.325	0.12
740.638	0.12
740.951	0.12
741.264	0.12
741.577	0.12
741.89	0.12
742.203	0.12
742.515	0.12
742.828	0.12
743.141	0.12
743.453	0.12
743.766	0.12
744.078	0.11
744.391	0.11
744.703	0.11
745.015	0.11
745.327	0.11
745.639	0.11
745.952	0.11
746.264	0.1
746.575	0.1
746.887	0.1
747.199	0.1
747.511	0.1
747.823	0.1
748.134	0.1
748.446	0.1
748.757	0.1
749.069	0.09
749.38	0.09
749.692	0.09
750.003	0.09
750.314	0.09
750.625	0.1
750.936	0.1
751.248	0.09
751.559	0.1
751.869	0.1
752.18	0.09
752.491	0.09
752.802	0.09
753.112	0.09
753.423	0.09
753.734	0.09
754.044	0.09
754.355	0.09
754.665	0.09
754.975	0.08
755.285	0.08
755.596	0.08
755.906	0.08
756.216	0.08
756.526	0.08
756.836	0.09
757.146	0.08
757.455	0.08
757.765	0.08
758.075	0.08
758.385	0.08
758.694	0.08
759.004	0.07
759.313	0.07
759.622	0.08
759.932	0.08
760.241	0.08
760.55	0.08
760.859	0.08
761.168	0.08
761.477	0.08
761.786	0.08
762.095	0.07
762.404	0.07
762.713	0.07
763.021	0.07
763.33	0.07
763.639	0.08
763.947	0.08
764.256	0.07
764.564	0.08
764.872	0.08
765.181	0.07
765.489	0.07
765.797	0.07
766.105	0.07
766.413	0.07
766.721	0.07
767.029	0.07
767.337	0.07
767.644	0.07
767.952	0.07
768.26	0.07
768.567	0.07
768.875	0.07
769.182	0.07
769.49	0.07
769.797	0.07
770.104	0.07
770.411	0.07
770.718	0.07
771.026	0.07
771.333	0.07
771.639	0.07
771.946	0.07
772.253	0.07
772.56	0.07
772.867	0.07
773.173	0.07
773.48	0.07
773.786	0.07
774.093	0.07
774.399	0.07
774.705	0.07
775.012	0.07
775.318	0.07
775.624	0.07
775.93	0.07
776.236	0.08
776.542	0.08
776.848	0.07
777.154	0.07
777.459	0.07
777.765	0.07
778.071	0.07
778.376	0.07
778.682	0.07
778.987	0.08
779.292	0.07
779.598	0.07
779.903	0.08
780.208	0.08
780.513	0.08
780.818	0.08
781.123	0.08
781.428	0.07
781.733	0.07
782.038	0.07
782.343	0.07
782.647	0.07
782.952	0.07
783.256	0.08
783.561	0.07
783.865	0.08
784.17	0.08
784.474	0.08
784.778	0.08
785.082	0.08
785.386	0.08
785.69	0.08
785.994	0.08
786.298	0.08
786.602	0.08
786.906	0.08
787.209	0.08
787.513	0.09
787.817	0.09
788.12	0.09
788.424	0.08
788.727	0.08
789.03	0.08
789.333	0.08
789.637	0.08
789.94	0.08
790.243	0.09
790.546	0.09
790.849	0.09
791.152	0.09
791.454	0.09
791.757	0.09
792.06	0.09
792.362	0.09
792.665	0.09
792.967	0.09
793.27	0.09
793.572	0.09
793.874	0.09
794.177	0.09
794.479	0.09
794.781	0.09
795.083	0.09
795.385	0.09
795.687	0.09
795.989	0.09
796.29	0.09
796.592	0.09
796.894	0.09
797.195	0.1
797.497	0.1
797.798	0.1
798.1	0.1
798.401	0.1
798.702	0.1
799.003	0.1
799.304	0.1
799.605	0.1
799.906	0.1
800.207	0.1
800.508	0.1
800.809	0.1
801.11	0.09
801.41	0.1
801.711	0.1
802.011	0.1
802.312	0.1
802.612	0.1
802.913	0.1
803.213	0.1
803.513	0.1
803.813	0.1
804.113	0.1
804.413	0.09
804.713	0.1
805.013	0.1
805.313	0.1
805.613	0.1
805.912	0.1
806.212	0.1
806.511	0.1
806.811	0.1
807.11	0.1
807.41	0.11
807.709	0.11
808.008	0.11
808.307	0.11
808.606	0.11
808.905	0.11
809.204	0.11
809.503	0.11
809.802	0.11
810.101	0.11
810.399	0.11
810.698	0.11
810.997	0.11
811.295	0.11
811.593	0.11
811.892	0.11
812.19	0.11
812.488	0.11
812.786	0.11
813.084	0.11
813.383	0.11
813.68	0.11
813.978	0.11
814.276	0.11
814.574	0.12
814.872	0.12
815.169	0.12
815.467	0.12
815.764	0.12
816.062	0.12
816.359	0.13
816.656	0.13
816.954	0.13
817.251	0.13
817.548	0.13
817.845	0.13
818.142	0.13
818.439	0.13
818.735	0.13
819.032	0.13
819.329	0.12
819.626	0.13
819.922	0.13
820.219	0.14
820.515	0.14
820.811	0.14
821.108	0.14
821.404	0.14
821.7	0.13
821.996	0.14
822.292	0.13
822.588	0.14
822.884	0.14
823.18	0.14
823.475	0.14
823.771	0.14
824.067	0.14
824.362	0.14
824.658	0.14
824.953	0.13
825.249	0.14
825.544	0.14
825.839	0.14
826.134	0.14
826.429	0.14
826.724	0.13
827.019	0.14
827.314	0.14
827.609	0.14
827.904	0.15
828.198	0.14
828.493	0.14
828.787	0.14
829.082	0.14
829.376	0.14
829.671	0.15
829.965	0.15
830.259	0.16
830.553	0.16
830.847	0.15
831.141	0.15
831.435	0.15
831.729	0.16
832.023	0.16
832.317	0.16
832.61	0.16
832.904	0.16
833.197	0.16
833.491	0.17
833.784	0.16
834.077	0.16
834.371	0.15
834.664	0.16
834.957	0.16
835.25	0.16
835.543	0.16
835.836	0.16
836.129	0.15
836.421	0.16
836.714	0.16
837.007	0.15
837.299	0.17
837.592	0.16
837.884	0.16
838.177	0.17
838.469	0.17
838.761	0.16
839.053	0.16
839.345	0.16
839.637	0.16
839.929	0.18
840.221	0.17
840.513	0.16
840.805	0.16
841.096	0.16
841.388	0.17
841.68	0.17
841.971	0.16
842.262	0.18
842.554	0.18
842.845	0.17
843.136	0.18
843.427	0.19
843.718	0.18
844.009	0.18
844.3	0.18
844.591	0.18
844.882	0.18
845.173	0.18
845.463	0.17
845.754	0.19
846.044	0.19
846.335	0.18
846.625	0.19
846.915	0.19
847.206	0.19
847.496	0.2
847.786	0.19
848.076	0.2
848.366	0.2
848.656	0.19
848.945	0.19
849.235	0.19
849.525	0.19
849.814	0.19
850.104	0.19
850.393	0.2
850.683	0.2
850.972	0.19
851.261	0.2
851.551	0.2
851.84	0.19
852.129	0.19
852.418	0.2
852.707	0.2
852.995	0.18
853.284	0.21
853.573	0.2
853.862	0.2
854.15	0.19
854.439	0.2
854.727	0.19
855.015	0.2
855.304	0.2
855.592	0.21
855.88	0.2
856.168	0.21
856.456	0.21
856.744	0.21
857.032	0.21
857.32	0.21
857.607	0.21
857.895	0.21
858.183	0.2
858.47	0.2
858.757	0.22
859.045	0.21
859.332	0.23
859.619	0.21
859.907	0.22
860.194	0.21
860.481	0.2
860.768	0.22
861.054	0.23
861.341	0.22
861.628	0.22
861.915	0.22
862.201	0.23
862.488	0.24
862.774	0.21
863.061	0.22
863.347	0.2
863.633	0.22
863.919	0.22
864.205	0.22
864.491	0.23
864.777	0.2
865.063	0.24
865.349	0.24
865.635	0.22
865.92	0.22
866.206	0.22
866.492	0.22
866.777	0.23
867.062	0.22
867.348	0.21
867.633	0.19
867.918	0.19
868.203	0.22
868.488	0.23
868.773	0.21
869.058	0.2
869.343	0.23
869.628	0.24
869.912	0.21
870.197	0.24
870.482	0.26
870.766	0.24
871.05	0.21
871.335	0.24
871.619	0.2
871.903	0.22
872.187	0.22
872.471	0.26
872.755	0.19
873.039	0.19
873.323	0.21
873.607	0.19
873.89	0.2
874.174	0.25
874.458	0.18
874.741	0.28
875.024	0.23
875.308	0.21
875.591	0.28
875.874	0.28
876.157	0.26
876.44	0.23
876.723	0.23
877.006	0.2
877.289	0.18
877.572	0.27
877.854	0.27
878.137	0.15
878.42	0.2
878.702	0.27
878.984	0.21
879.267	0.22
879.549	0.1
879.831	0.27
880.113	0.29
880.395	0.19
880.677	0.29
880.959	0.12
