Data from Rubpy_BV_1500_EDTA_Buffered_Absorbance_14-24-55-619.txt Node
Date: Wed Jul 01 14:24:55 BST 2026
User: fpm-admin
Spectrometer: OFX00224
Trigger mode: 0
Integration Time (sec): 7.000000E-2
Scans to average: 3
Nonlinearity correction enabled: false
Boxcar width: 0
Storing dark spectrum: false
XAxis mode: Wavelengths
Number of Pixels in Spectrum: 2136
>>>>>Begin Spectral Data<<<<<
154.91	-0
155.289	-0.03
155.669	-1.37
156.048	-0.06
156.428	-0
156.807	-0
157.186	-0.76
157.566	0.64
157.945	-0.27
158.325	-0
158.704	-0
159.083	-0.32
159.462	0.51
159.842	0.02
160.221	-0.32
160.6	-0
160.979	-0.3
161.359	-0.1
161.738	-0.2
162.117	0.93
162.496	-0.21
162.875	-0.4
163.254	1.22
163.633	0.7
164.012	-0.47
164.391	-0
164.77	-0.02
165.149	0.34
165.528	0.22
165.907	-0.19
166.286	-0.68
166.665	0.06
167.044	-0.05
167.423	-0
167.802	-0
168.181	-0
168.559	-0.04
168.938	-0.04
169.317	0.06
169.696	-0.1
170.074	0.6
170.453	0.26
170.832	0.23
171.21	-0
171.589	-0.26
171.968	-0.81
172.346	0.58
172.725	-0
173.103	-0
173.482	-0.95
173.861	-0
174.239	-1.1
174.617	0.15
174.996	0.35
175.374	-0.14
175.753	-0.57
176.131	-0
176.51	0.35
176.888	0.72
177.266	-0
177.645	-0.02
178.023	0.72
178.401	-0.1
178.779	-0.01
179.158	0.18
179.536	-0.53
179.914	0.12
180.292	-0.01
180.67	-0
181.048	0.48
181.427	0.34
181.805	0.6
182.183	-0.54
182.561	0.8
182.939	-0
183.317	0.43
183.695	-0.45
184.073	-0
184.451	0.14
184.829	-0
185.206	-0.35
185.584	-0.21
185.962	-0.56
186.34	-0
186.718	-0
187.096	-0
187.473	-0.1
187.851	-0.05
188.229	0.16
188.607	0.27
188.984	0.33
189.362	0.44
189.74	0.2
190.117	0.1
190.495	0.11
190.872	0.22
191.25	0.52
191.627	0.13
192.005	0.21
192.382	0.44
192.76	0.24
193.137	0.33
193.515	0.14
193.892	0.09
194.269	0.21
194.647	0.2
195.024	0.17
195.401	0.2
195.779	0.2
196.156	0.26
196.533	0.3
196.91	0.14
197.288	0.27
197.665	0.19
198.042	0.35
198.419	0.29
198.796	0.28
199.173	0.2
199.55	0.1
199.927	0.32
200.304	0.22
200.681	0.29
201.058	0.11
201.435	0.23
201.812	0.3
202.189	0.17
202.566	0.14
202.943	0.11
203.32	0.19
203.697	0.12
204.073	0.2
204.45	0.15
204.827	0.27
205.204	0.13
205.58	0.24
205.957	0.26
206.334	0.3
206.71	0.23
207.087	0.3
207.464	0.21
207.84	0.17
208.217	0.27
208.593	0.3
208.97	0.31
209.346	0.24
209.723	0.14
210.099	0.22
210.476	0.19
210.852	0.29
211.228	0.23
211.605	0.24
211.981	0.08
212.357	0.28
212.733	0.12
213.11	0.19
213.486	0.2
213.862	0.17
214.238	0.23
214.614	0.21
214.991	0.18
215.367	0.19
215.743	0.23
216.119	0.27
216.495	0.28
216.871	0.2
217.247	0.22
217.623	0.12
217.999	0.14
218.375	0.23
218.751	0.27
219.127	0.21
219.502	0.21
219.878	0.25
220.254	0.21
220.63	0.22
221.006	0.18
221.381	0.36
221.757	0.41
222.133	0.2
222.508	0.26
222.884	0.23
223.26	0.25
223.635	0.26
224.011	0.46
224.386	0.32
224.762	0.32
225.137	0.24
225.513	0.29
225.888	0.33
226.264	0.44
226.639	0.26
227.014	0.23
227.39	0.16
227.765	0.22
228.14	0.24
228.516	0.26
228.891	0.25
229.266	0.2
229.641	0.17
230.017	0.28
230.392	0.26
230.767	0.22
231.142	0.12
231.517	0.25
231.892	0.26
232.267	0.25
232.642	0.29
233.017	0.23
233.392	0.21
233.767	0.23
234.142	0.29
234.517	0.29
234.892	0.26
235.267	0.34
235.641	0.14
236.016	0.25
236.391	0.26
236.766	0.28
237.14	0.22
237.515	0.37
237.89	0.24
238.264	0.24
238.639	0.29
239.014	0.21
239.388	0.19
239.763	0.24
240.137	0.31
240.512	0.25
240.886	0.28
241.261	0.27
241.635	0.32
242.009	0.26
242.384	0.26
242.758	0.31
243.132	0.18
243.507	0.23
243.881	0.2
244.255	0.21
244.629	0.25
245.004	0.21
245.378	0.46
245.752	0.17
246.126	0.28
246.5	0.26
246.874	0.16
247.248	0.22
247.622	0.2
247.996	0.28
248.37	0.22
248.744	0.23
249.118	0.24
249.492	0.41
249.866	0.28
250.24	0.27
250.613	0.27
250.987	0.32
251.361	0.32
251.735	0.29
252.108	0.24
252.482	0.26
252.856	0.31
253.229	0.25
253.603	0.25
253.977	0.2
254.35	0.32
254.724	0.2
255.097	0.19
255.471	0.31
255.844	0.21
256.218	0.31
256.591	0.25
256.964	0.21
257.338	0.16
257.711	0.35
258.084	0.28
258.458	0.2
258.831	0.23
259.204	0.24
259.577	0.31
259.95	0.25
260.323	0.19
260.697	0.25
261.07	0.33
261.443	0.3
261.816	0.18
262.189	0.31
262.562	0.34
262.935	0.28
263.308	0.19
263.68	0.16
264.053	0.32
264.426	0.27
264.799	0.37
265.172	0.25
265.545	0.32
265.917	0.22
266.29	0.31
266.663	0.28
267.035	0.22
267.408	0.18
267.781	0.27
268.153	0.26
268.526	0.23
268.898	0.22
269.271	0.24
269.643	0.33
270.016	0.22
270.388	0.34
270.76	0.23
271.133	0.26
271.505	0.3
271.877	0.31
272.25	0.31
272.622	0.27
272.994	0.26
273.366	0.26
273.739	0.29
274.111	0.25
274.483	0.28
274.855	0.25
275.227	0.22
275.599	0.13
275.971	0.27
276.343	0.3
276.715	0.23
277.087	0.28
277.459	0.24
277.831	0.27
278.203	0.27
278.574	0.22
278.946	0.25
279.318	0.27
279.69	0.17
280.061	0.23
280.433	0.27
280.805	0.17
281.176	0.21
281.548	0.3
281.92	0.3
282.291	0.2
282.663	0.2
283.034	0.17
283.406	0.22
283.777	0.25
284.148	0.19
284.52	0.24
284.891	0.23
285.262	0.32
285.634	0.18
286.005	0.29
286.376	0.35
286.747	0.36
287.119	0.2
287.49	0.25
287.861	0.19
288.232	0.24
288.603	0.26
288.974	0.22
289.345	0.3
289.716	0.19
290.087	0.29
290.458	0.24
290.829	0.32
291.2	0.25
291.571	0.25
291.941	0.3
292.312	0.26
292.683	0.29
293.054	0.24
293.424	0.18
293.795	0.25
294.166	0.23
294.536	0.25
294.907	0.31
295.277	0.32
295.648	0.31
296.018	0.3
296.389	0.25
296.759	0.31
297.13	0.25
297.5	0.3
297.871	0.31
298.241	0.18
298.611	0.37
298.981	0.31
299.352	0.24
299.722	0.3
300.092	0.26
300.462	0.29
300.832	0.26
301.202	0.24
301.573	0.2
301.943	0.23
302.313	0.22
302.683	0.32
303.053	0.28
303.422	0.24
303.792	0.24
304.162	0.24
304.532	0.25
304.902	0.16
305.272	0.24
305.641	0.25
306.011	0.25
306.381	0.16
306.75	0.18
307.12	0.21
307.49	0.19
307.859	0.22
308.229	0.2
308.598	0.22
308.968	0.14
309.337	0.16
309.707	0.17
310.076	0.19
310.445	0.2
310.815	0.18
311.184	0.17
311.553	0.16
311.923	0.17
312.292	0.18
312.661	0.17
313.03	0.21
313.399	0.19
313.768	0.2
314.137	0.19
314.506	0.17
314.875	0.2
315.244	0.19
315.613	0.19
315.982	0.2
316.351	0.18
316.72	0.19
317.089	0.2
317.458	0.21
317.826	0.21
318.195	0.2
318.564	0.2
318.933	0.22
319.301	0.22
319.67	0.23
320.038	0.21
320.407	0.22
320.775	0.23
321.144	0.23
321.512	0.25
321.881	0.23
322.249	0.25
322.618	0.24
322.986	0.25
323.354	0.26
323.723	0.26
324.091	0.26
324.459	0.26
324.827	0.26
325.195	0.27
325.564	0.26
325.932	0.27
326.3	0.27
326.668	0.28
327.036	0.29
327.404	0.3
327.772	0.29
328.14	0.3
328.508	0.3
328.875	0.3
329.243	0.32
329.611	0.32
329.979	0.33
330.346	0.32
330.714	0.34
331.082	0.33
331.449	0.33
331.817	0.35
332.185	0.35
332.552	0.37
332.92	0.37
333.287	0.38
333.655	0.38
334.022	0.39
334.389	0.4
334.757	0.41
335.124	0.41
335.491	0.42
335.859	0.42
336.226	0.44
336.593	0.44
336.96	0.45
337.327	0.45
337.695	0.47
338.062	0.47
338.429	0.48
338.796	0.49
339.163	0.5
339.53	0.51
339.897	0.52
340.263	0.52
340.63	0.54
340.997	0.55
341.364	0.55
341.731	0.56
342.097	0.57
342.464	0.58
342.831	0.59
343.197	0.59
343.564	0.61
343.931	0.62
344.297	0.62
344.664	0.64
345.03	0.65
345.396	0.65
345.763	0.68
346.129	0.67
346.496	0.69
346.862	0.69
347.228	0.7
347.594	0.72
347.961	0.72
348.327	0.73
348.693	0.74
349.059	0.75
349.425	0.75
349.791	0.77
350.157	0.78
350.523	0.78
350.889	0.8
351.255	0.8
351.621	0.82
351.987	0.82
352.353	0.83
352.719	0.85
353.084	0.86
353.45	0.86
353.816	0.87
354.181	0.87
354.547	0.89
354.913	0.9
355.278	0.91
355.644	0.91
356.009	0.94
356.375	0.94
356.74	0.96
357.106	0.97
357.471	0.98
357.836	0.98
358.202	1
358.567	1.01
358.932	1.03
359.297	1.04
359.663	1.05
360.028	1.06
360.393	1.08
360.758	1.09
361.123	1.1
361.488	1.12
361.853	1.13
362.218	1.15
362.583	1.16
362.948	1.17
363.312	1.2
363.677	1.2
364.042	1.21
364.407	1.23
364.772	1.26
365.136	1.26
365.501	1.25
365.865	1.27
366.23	1.29
366.595	1.29
366.959	1.3
367.324	1.32
367.688	1.31
368.052	1.33
368.417	1.34
368.781	1.35
369.145	1.35
369.51	1.36
369.874	1.37
370.238	1.39
370.602	1.38
370.967	1.37
371.331	1.38
371.695	1.4
372.059	1.4
372.423	1.41
372.787	1.4
373.151	1.4
373.515	1.39
373.878	1.38
374.242	1.37
374.606	1.38
374.97	1.37
375.334	1.34
375.697	1.35
376.061	1.34
376.425	1.34
376.788	1.32
377.152	1.3
377.515	1.3
377.879	1.27
378.242	1.25
378.606	1.25
378.969	1.23
379.333	1.23
379.696	1.2
380.059	1.18
380.422	1.16
380.786	1.15
381.149	1.14
381.512	1.13
381.875	1.11
382.238	1.11
382.601	1.08
382.964	1.07
383.327	1.05
383.69	1.04
384.053	1.03
384.416	1.03
384.779	1.01
385.142	1.01
385.504	1
385.867	0.99
386.23	0.97
386.593	0.97
386.955	0.96
387.318	0.96
387.68	0.96
388.043	0.95
388.405	0.95
388.768	0.94
389.13	0.94
389.493	0.92
389.855	0.92
390.217	0.91
390.58	0.91
390.942	0.89
391.304	0.88
391.666	0.88
392.028	0.86
392.391	0.85
392.753	0.84
393.115	0.83
393.477	0.81
393.839	0.8
394.201	0.8
394.563	0.79
394.924	0.79
395.286	0.79
395.648	0.79
396.01	0.79
396.371	0.8
396.733	0.81
397.095	0.82
397.456	0.83
397.818	0.84
398.18	0.87
398.541	0.88
398.903	0.9
399.264	0.92
399.625	0.92
399.987	0.94
400.348	0.97
400.709	0.97
401.071	0.99
401.432	0.99
401.793	0.99
402.154	0.98
402.515	0.97
402.876	0.95
403.238	0.94
403.599	0.92
403.96	0.89
404.32	0.85
404.681	0.84
405.042	0.8
405.403	0.77
405.764	0.73
406.125	0.7
406.485	0.66
406.846	0.62
407.207	0.59
407.567	0.57
407.928	0.54
408.288	0.51
408.649	0.48
409.009	0.45
409.37	0.43
409.73	0.4
410.091	0.38
410.451	0.36
410.811	0.35
411.171	0.33
411.532	0.31
411.892	0.3
412.252	0.29
412.612	0.28
412.972	0.26
413.332	0.25
413.692	0.24
414.052	0.24
414.412	0.23
414.772	0.21
415.132	0.21
415.492	0.2
415.851	0.2
416.211	0.19
416.571	0.18
416.931	0.18
417.29	0.18
417.65	0.17
418.009	0.17
418.369	0.16
418.728	0.16
419.088	0.16
419.447	0.15
419.807	0.15
420.166	0.15
420.525	0.15
420.884	0.14
421.244	0.14
421.603	0.13
421.962	0.13
422.321	0.13
422.68	0.13
423.039	0.13
423.398	0.13
423.757	0.12
424.116	0.12
424.475	0.12
424.834	0.12
425.193	0.12
425.551	0.12
425.91	0.11
426.269	0.12
426.628	0.11
426.986	0.11
427.345	0.11
427.703	0.11
428.062	0.11
428.42	0.11
428.779	0.12
429.137	0.1
429.496	0.1
429.854	0.11
430.212	0.1
430.57	0.1
430.929	0.1
431.287	0.1
431.645	0.1
432.003	0.1
432.361	0.1
432.719	0.1
433.077	0.1
433.435	0.1
433.793	0.11
434.151	0.11
434.509	0.1
434.866	0.1
435.224	0.1
435.582	0.1
435.94	0.11
436.297	0.09
436.655	0.09
437.012	0.1
437.37	0.09
437.727	0.1
438.085	0.1
438.442	0.1
438.8	0.1
439.157	0.1
439.514	0.1
439.872	0.1
440.229	0.09
440.586	0.1
440.943	0.11
441.3	0.1
441.657	0.1
442.014	0.1
442.371	0.1
442.728	0.1
443.085	0.11
443.442	0.1
443.799	0.1
444.156	0.1
444.513	0.1
444.869	0.1
445.226	0.1
445.583	0.11
445.939	0.11
446.296	0.11
446.652	0.11
447.009	0.11
447.365	0.11
447.722	0.1
448.078	0.11
448.434	0.11
448.791	0.12
449.147	0.11
449.503	0.11
449.859	0.11
450.215	0.11
450.571	0.12
450.928	0.11
451.284	0.11
451.64	0.11
451.995	0.11
452.351	0.13
452.707	0.13
453.063	0.12
453.419	0.11
453.775	0.12
454.13	0.12
454.486	0.14
454.842	0.13
455.197	0.12
455.553	0.14
455.908	0.12
456.264	0.13
456.619	0.13
456.975	0.13
457.33	0.13
457.685	0.13
458.04	0.13
458.396	0.13
458.751	0.13
459.106	0.14
459.461	0.14
459.816	0.14
460.171	0.14
460.526	0.14
460.881	0.14
461.236	0.14
461.591	0.15
461.946	0.14
462.301	0.14
462.655	0.15
463.01	0.15
463.365	0.15
463.719	0.15
464.074	0.14
464.428	0.15
464.783	0.15
465.137	0.16
465.492	0.16
465.846	0.16
466.201	0.16
466.555	0.15
466.909	0.16
467.263	0.16
467.618	0.16
467.972	0.16
468.326	0.17
468.68	0.17
469.034	0.17
469.388	0.17
469.742	0.17
470.096	0.17
470.45	0.18
470.804	0.18
471.157	0.18
471.511	0.18
471.865	0.19
472.218	0.19
472.572	0.19
472.926	0.19
473.279	0.19
473.633	0.2
473.986	0.2
474.34	0.2
474.693	0.21
475.046	0.21
475.4	0.21
475.753	0.22
476.106	0.22
476.459	0.22
476.812	0.22
477.165	0.23
477.519	0.23
477.872	0.23
478.224	0.24
478.577	0.24
478.93	0.24
479.283	0.24
479.636	0.25
479.989	0.25
480.341	0.25
480.694	0.26
481.047	0.26
481.399	0.26
481.752	0.27
482.104	0.26
482.457	0.27
482.809	0.27
483.162	0.27
483.514	0.28
483.866	0.28
484.219	0.28
484.571	0.29
484.923	0.29
485.275	0.29
485.627	0.29
485.979	0.29
486.331	0.3
486.683	0.3
487.035	0.3
487.387	0.3
487.739	0.31
488.091	0.32
488.443	0.32
488.794	0.32
489.146	0.32
489.498	0.32
489.849	0.33
490.201	0.33
490.552	0.33
490.904	0.33
491.255	0.34
491.607	0.33
491.958	0.34
492.309	0.34
492.661	0.35
493.012	0.34
493.363	0.35
493.714	0.36
494.065	0.36
494.416	0.36
494.767	0.37
495.118	0.37
495.469	0.37
495.82	0.38
496.171	0.37
496.522	0.37
496.872	0.38
497.223	0.38
497.574	0.39
497.924	0.39
498.275	0.39
498.626	0.39
498.976	0.4
499.327	0.4
499.677	0.4
500.027	0.41
500.378	0.41
500.728	0.41
501.078	0.42
501.428	0.42
501.779	0.42
502.129	0.42
502.479	0.42
502.829	0.43
503.179	0.43
503.529	0.43
503.879	0.43
504.229	0.44
504.578	0.44
504.928	0.45
505.278	0.45
505.628	0.45
505.977	0.45
506.327	0.45
506.676	0.46
507.026	0.46
507.375	0.46
507.725	0.46
508.074	0.47
508.424	0.47
508.773	0.47
509.122	0.47
509.471	0.48
509.82	0.48
510.17	0.47
510.519	0.48
510.868	0.49
511.217	0.49
511.566	0.5
511.915	0.49
512.263	0.49
512.612	0.5
512.961	0.51
513.31	0.51
513.659	0.51
514.007	0.51
514.356	0.51
514.704	0.51
515.053	0.52
515.401	0.52
515.75	0.52
516.098	0.53
516.447	0.53
516.795	0.53
517.143	0.53
517.491	0.54
517.839	0.53
518.188	0.54
518.536	0.55
518.884	0.54
519.232	0.54
519.58	0.55
519.928	0.54
520.275	0.54
520.623	0.55
520.971	0.56
521.319	0.55
521.666	0.56
522.014	0.56
522.362	0.56
522.709	0.56
523.057	0.56
523.404	0.57
523.752	0.57
524.099	0.57
524.446	0.57
524.794	0.57
525.141	0.58
525.488	0.58
525.835	0.58
526.182	0.58
526.529	0.58
526.876	0.59
527.223	0.59
527.57	0.59
527.917	0.59
528.264	0.59
528.611	0.59
528.958	0.59
529.304	0.59
529.651	0.59
529.998	0.6
530.344	0.6
530.691	0.6
531.037	0.6
531.384	0.6
531.73	0.61
532.076	0.61
532.423	0.61
532.769	0.61
533.115	0.61
533.461	0.61
533.807	0.61
534.154	0.61
534.5	0.62
534.846	0.61
535.192	0.62
535.537	0.62
535.883	0.62
536.229	0.62
536.575	0.62
536.921	0.62
537.266	0.63
537.612	0.63
537.957	0.62
538.303	0.63
538.649	0.63
538.994	0.63
539.339	0.62
539.685	0.63
540.03	0.63
540.375	0.63
540.721	0.63
541.066	0.63
541.411	0.63
541.756	0.64
542.101	0.64
542.446	0.63
542.791	0.63
543.136	0.64
543.481	0.63
543.825	0.64
544.17	0.64
544.515	0.64
544.86	0.63
545.204	0.63
545.549	0.64
545.893	0.64
546.238	0.64
546.582	0.64
546.927	0.65
547.271	0.64
547.615	0.65
547.96	0.65
548.304	0.65
548.648	0.64
548.992	0.64
549.336	0.65
549.68	0.64
550.024	0.65
550.368	0.64
550.712	0.65
551.056	0.65
551.4	0.65
551.743	0.65
552.087	0.64
552.431	0.64
552.774	0.64
553.118	0.64
553.462	0.64
553.805	0.64
554.148	0.64
554.492	0.64
554.835	0.65
555.178	0.64
555.522	0.64
555.865	0.64
556.208	0.65
556.551	0.64
556.894	0.64
557.237	0.64
557.58	0.65
557.923	0.64
558.266	0.64
558.609	0.63
558.952	0.64
559.294	0.64
559.637	0.64
559.98	0.64
560.322	0.63
560.665	0.64
561.007	0.63
561.35	0.63
561.692	0.63
562.034	0.63
562.377	0.63
562.719	0.63
563.061	0.63
563.403	0.63
563.745	0.63
564.088	0.63
564.43	0.63
564.772	0.63
565.113	0.63
565.455	0.62
565.797	0.62
566.139	0.63
566.481	0.62
566.822	0.62
567.164	0.62
567.506	0.62
567.847	0.62
568.189	0.61
568.53	0.61
568.872	0.62
569.213	0.61
569.554	0.61
569.895	0.61
570.237	0.61
570.578	0.61
570.919	0.6
571.26	0.6
571.601	0.6
571.942	0.6
572.283	0.6
572.624	0.6
572.965	0.59
573.306	0.59
573.646	0.59
573.987	0.59
574.328	0.59
574.668	0.59
575.009	0.59
575.349	0.59
575.69	0.58
576.03	0.58
576.37	0.58
576.711	0.57
577.051	0.58
577.391	0.58
577.731	0.58
578.072	0.57
578.412	0.57
578.752	0.57
579.092	0.57
579.431	0.56
579.771	0.54
580.111	0.53
580.451	0.54
580.791	0.56
581.13	0.56
581.47	0.56
581.81	0.56
582.149	0.55
582.489	0.56
582.828	0.55
583.167	0.52
583.507	0.48
583.846	0.47
584.185	0.5
584.525	0.52
584.864	0.54
585.203	0.55
585.542	0.56
585.881	0.55
586.22	0.55
586.559	0.55
586.898	0.53
587.236	0.52
587.575	0.52
587.914	0.53
588.252	0.54
588.591	0.54
588.93	0.54
589.268	0.54
589.607	0.54
589.945	0.54
590.283	0.54
590.622	0.54
590.96	0.54
591.298	0.55
591.636	0.54
591.974	0.55
592.313	0.55
592.651	0.55
592.989	0.55
593.326	0.54
593.664	0.54
594.002	0.54
594.34	0.54
594.678	0.53
595.015	0.53
595.353	0.52
595.691	0.53
596.028	0.54
596.366	0.54
596.703	0.54
597.04	0.54
597.378	0.54
597.715	0.54
598.052	0.54
598.389	0.54
598.726	0.54
599.064	0.54
599.401	0.54
599.738	0.54
600.074	0.53
600.411	0.53
600.748	0.53
601.085	0.52
601.422	0.52
601.758	0.52
602.095	0.52
602.432	0.52
602.768	0.52
603.105	0.52
603.441	0.52
603.777	0.53
604.114	0.53
604.45	0.52
604.786	0.52
605.122	0.52
605.459	0.52
605.795	0.52
606.131	0.51
606.467	0.52
606.803	0.52
607.139	0.51
607.474	0.51
607.81	0.51
608.146	0.51
608.482	0.51
608.817	0.5
609.153	0.5
609.488	0.5
609.824	0.5
610.159	0.5
610.495	0.5
610.83	0.5
611.165	0.5
611.5	0.49
611.836	0.5
612.171	0.5
612.506	0.49
612.841	0.49
613.176	0.49
613.511	0.49
613.845	0.49
614.18	0.49
614.515	0.49
614.85	0.48
615.184	0.48
615.519	0.48
615.854	0.48
616.188	0.48
616.523	0.47
616.857	0.47
617.191	0.47
617.526	0.46
617.86	0.47
618.194	0.46
618.528	0.47
618.862	0.47
619.196	0.46
619.53	0.47
619.864	0.46
620.198	0.46
620.532	0.46
620.866	0.46
621.2	0.45
621.533	0.45
621.867	0.45
622.201	0.44
622.534	0.45
622.868	0.45
623.201	0.44
623.534	0.44
623.868	0.44
624.201	0.44
624.534	0.44
624.868	0.44
625.201	0.44
625.534	0.43
625.867	0.43
626.2	0.43
626.533	0.43
626.865	0.42
627.198	0.42
627.531	0.42
627.864	0.42
628.196	0.41
628.529	0.42
628.862	0.41
629.194	0.41
629.527	0.41
629.859	0.4
630.191	0.4
630.524	0.4
630.856	0.4
631.188	0.39
631.52	0.39
631.852	0.39
632.184	0.39
632.516	0.38
632.848	0.38
633.18	0.38
633.512	0.38
633.844	0.38
634.175	0.37
634.507	0.37
634.839	0.37
635.17	0.37
635.502	0.36
635.833	0.36
636.165	0.36
636.496	0.36
636.827	0.36
637.159	0.35
637.49	0.35
637.821	0.35
638.152	0.34
638.483	0.34
638.814	0.34
639.145	0.34
639.476	0.33
639.807	0.34
640.137	0.33
640.468	0.33
640.799	0.33
641.129	0.32
641.46	0.32
641.791	0.32
642.121	0.32
642.451	0.32
642.782	0.31
643.112	0.31
643.442	0.31
643.773	0.31
644.103	0.31
644.433	0.31
644.763	0.31
645.093	0.3
645.423	0.3
645.753	0.3
646.082	0.29
646.412	0.3
646.742	0.29
647.072	0.29
647.401	0.29
647.731	0.29
648.06	0.29
648.39	0.29
648.719	0.28
649.048	0.28
649.378	0.28
649.707	0.28
650.036	0.28
650.365	0.28
650.694	0.27
651.023	0.28
651.352	0.28
651.681	0.27
652.01	0.27
652.339	0.27
652.668	0.27
652.996	0.27
653.325	0.27
653.654	0.27
653.982	0.27
654.311	0.27
654.639	0.27
654.967	0.27
655.296	0.27
655.624	0.26
655.952	0.26
656.28	0.27
656.609	0.26
656.937	0.26
657.265	0.26
657.593	0.14
657.92	0.04
658.248	0.01
658.576	0.03
658.904	0.12
659.231	0.2
659.559	0.25
659.887	0.25
660.214	0.25
660.542	0.25
660.869	0.25
661.196	0.25
661.524	0.24
661.851	0.24
662.178	0.24
662.505	0.24
662.832	0.24
663.159	0.24
663.486	0.24
663.813	0.24
664.14	0.23
664.467	0.24
664.794	0.24
665.12	0.24
665.447	0.24
665.774	0.23
666.1	0.23
666.427	0.23
666.753	0.23
667.079	0.23
667.406	0.22
667.732	0.23
668.058	0.23
668.384	0.22
668.71	0.22
669.036	0.22
669.362	0.22
669.688	0.22
670.014	0.22
670.34	0.21
670.666	0.21
670.991	0.21
671.317	0.21
671.643	0.21
671.968	0.21
672.294	0.21
672.619	0.2
672.945	0.2
673.27	0.2
673.595	0.2
673.92	0.2
674.246	0.2
674.571	0.2
674.896	0.19
675.221	0.19
675.546	0.19
675.87	0.19
676.195	0.19
676.52	0.19
676.845	0.19
677.169	0.18
677.494	0.18
677.819	0.18
678.143	0.18
678.468	0.18
678.792	0.18
679.116	0.18
679.44	0.17
679.765	0.17
680.089	0.17
680.413	0.17
680.737	0.17
681.061	0.16
681.385	0.16
681.709	0.16
682.033	0.16
682.356	0.15
682.68	0.16
683.004	0.16
683.327	0.15
683.651	0.15
683.974	0.15
684.298	0.15
684.621	0.15
684.944	0.15
685.268	0.14
685.591	0.14
685.914	0.14
686.237	0.14
686.56	0.14
686.883	0.13
687.206	0.13
687.529	0.13
687.852	0.12
688.175	0.13
688.497	0.13
688.82	0.13
689.142	0.12
689.465	0.12
689.787	0.12
690.11	0.12
690.432	0.11
690.755	0.11
691.077	0.11
691.399	0.11
691.721	0.11
692.043	0.11
692.365	0.11
692.687	0.11
693.009	0.11
693.331	0.1
693.653	0.1
693.974	0.1
694.296	0.1
694.618	0.1
694.939	0.1
695.261	0.1
695.582	0.1
695.904	0.1
696.225	0.1
696.546	0.1
696.868	0.09
697.189	0.09
697.51	0.09
697.831	0.09
698.152	0.09
698.473	0.09
698.794	0.08
699.114	0.08
699.435	0.07
699.756	0.08
700.077	0.08
700.397	0.08
700.718	0.08
701.038	0.08
701.359	0.08
701.679	0.08
701.999	0.08
702.32	0.08
702.64	0.08
702.96	0.08
703.28	0.08
703.6	0.08
703.92	0.07
704.24	0.08
704.56	0.07
704.879	0.07
705.199	0.07
705.519	0.07
705.838	0.08
706.158	0.08
706.478	0.08
706.797	0.08
707.116	0.08
707.436	0.08
707.755	0.08
708.074	0.08
708.393	0.07
708.712	0.07
709.031	0.06
709.35	0.06
709.669	0.06
709.988	0.06
710.307	0.06
710.626	0.06
710.944	0.07
711.263	0.07
711.582	0.07
711.9	0.07
712.219	0.07
712.537	0.07
712.855	0.07
713.174	0.07
713.492	0.07
713.81	0.07
714.128	0.07
714.446	0.07
714.764	0.07
715.082	0.06
715.4	0.07
715.718	0.07
716.035	0.06
716.353	0.07
716.671	0.07
716.988	0.07
717.306	0.06
717.623	0.07
717.941	0.07
718.258	0.08
718.575	0.07
718.893	0.07
719.21	0.07
719.527	0.07
719.844	0.07
720.161	0.07
720.478	0.07
720.795	0.07
721.112	0.07
721.428	0.07
721.745	0.07
722.062	0.07
722.378	0.07
722.695	0.07
723.011	0.07
723.328	0.07
723.644	0.07
723.96	0.07
724.276	0.08
724.593	0.08
724.909	0.08
725.225	0.08
725.541	0.08
725.857	0.08
726.173	0.08
726.488	0.08
726.804	0.08
727.12	0.08
727.435	0.07
727.751	0.08
728.067	0.08
728.382	0.08
728.697	0.08
729.013	0.08
729.328	0.08
729.643	0.08
729.958	0.08
730.273	0.08
730.588	0.08
730.903	0.08
731.218	0.08
731.533	0.08
731.848	0.07
732.163	0.08
732.477	0.07
732.792	0.07
733.107	0.07
733.421	0.07
733.736	0.07
734.05	0.07
734.364	0.07
734.678	0.07
734.993	0.07
735.307	0.07
735.621	0.07
735.935	0.07
736.249	0.07
736.563	0.07
736.877	0.07
737.19	0.07
737.504	0.07
737.818	0.07
738.131	0.07
738.445	0.07
738.758	0.07
739.072	0.07
739.385	0.07
739.698	0.07
740.012	0.07
740.325	0.07
740.638	0.07
740.951	0.07
741.264	0.07
741.577	0.07
741.89	0.07
742.203	0.07
742.515	0.07
742.828	0.07
743.141	0.07
743.453	0.06
743.766	0.06
744.078	0.06
744.391	0.06
744.703	0.06
745.015	0.06
745.327	0.06
745.639	0.06
745.952	0.06
746.264	0.06
746.575	0.06
746.887	0.06
747.199	0.06
747.511	0.06
747.823	0.06
748.134	0.06
748.446	0.06
748.757	0.06
749.069	0.05
749.38	0.05
749.692	0.05
750.003	0.05
750.314	0.05
750.625	0.05
750.936	0.05
751.248	0.05
751.559	0.06
751.869	0.06
752.18	0.06
752.491	0.05
752.802	0.05
753.112	0.05
753.423	0.05
753.734	0.05
754.044	0.05
754.355	0.05
754.665	0.05
754.975	0.05
755.285	0.05
755.596	0.05
755.906	0.05
756.216	0.05
756.526	0.05
756.836	0.05
757.146	0.04
757.455	0.04
757.765	0.04
758.075	0.04
758.385	0.04
758.694	0.04
759.004	0.04
759.313	0.04
759.622	0.04
759.932	0.04
760.241	0.04
760.55	0.04
760.859	0.04
761.168	0.04
761.477	0.04
761.786	0.04
762.095	0.03
762.404	0.03
762.713	0.03
763.021	0.04
763.33	0.04
763.639	0.04
763.947	0.04
764.256	0.04
764.564	0.04
764.872	0.04
765.181	0.04
765.489	0.04
765.797	0.04
766.105	0.04
766.413	0.03
766.721	0.04
767.029	0.04
767.337	0.04
767.644	0.04
767.952	0.04
768.26	0.04
768.567	0.04
768.875	0.04
769.182	0.04
769.49	0.04
769.797	0.04
770.104	0.04
770.411	0.04
770.718	0.04
771.026	0.04
771.333	0.04
771.639	0.04
771.946	0.04
772.253	0.04
772.56	0.04
772.867	0.04
773.173	0.04
773.48	0.04
773.786	0.04
774.093	0.04
774.399	0.04
774.705	0.04
775.012	0.04
775.318	0.04
775.624	0.04
775.93	0.04
776.236	0.04
776.542	0.04
776.848	0.04
777.154	0.04
777.459	0.04
777.765	0.04
778.071	0.04
778.376	0.04
778.682	0.04
778.987	0.04
779.292	0.04
779.598	0.04
779.903	0.04
780.208	0.04
780.513	0.04
780.818	0.04
781.123	0.04
781.428	0.04
781.733	0.04
782.038	0.04
782.343	0.03
782.647	0.04
782.952	0.04
783.256	0.04
783.561	0.04
783.865	0.04
784.17	0.04
784.474	0.05
784.778	0.05
785.082	0.04
785.386	0.05
785.69	0.05
785.994	0.04
786.298	0.05
786.602	0.05
786.906	0.04
787.209	0.05
787.513	0.05
787.817	0.05
788.12	0.05
788.424	0.05
788.727	0.05
789.03	0.04
789.333	0.04
789.637	0.05
789.94	0.05
790.243	0.05
790.546	0.05
790.849	0.05
791.152	0.05
791.454	0.05
791.757	0.05
792.06	0.05
792.362	0.05
792.665	0.05
792.967	0.05
793.27	0.05
793.572	0.05
793.874	0.05
794.177	0.05
794.479	0.05
794.781	0.04
795.083	0.04
795.385	0.05
795.687	0.05
795.989	0.05
796.29	0.05
796.592	0.05
796.894	0.05
797.195	0.06
797.497	0.06
797.798	0.06
798.1	0.06
798.401	0.06
798.702	0.05
799.003	0.05
799.304	0.05
799.605	0.05
799.906	0.05
800.207	0.05
800.508	0.05
800.809	0.05
801.11	0.05
801.41	0.05
801.711	0.05
802.011	0.05
802.312	0.05
802.612	0.06
802.913	0.06
803.213	0.06
803.513	0.05
803.813	0.05
804.113	0.05
804.413	0.05
804.713	0.05
805.013	0.05
805.313	0.05
805.613	0.05
805.912	0.05
806.212	0.05
806.511	0.05
806.811	0.05
807.11	0.05
807.41	0.06
807.709	0.06
808.008	0.06
808.307	0.06
808.606	0.06
808.905	0.06
809.204	0.06
809.503	0.06
809.802	0.06
810.101	0.06
810.399	0.06
810.698	0.06
810.997	0.06
811.295	0.06
811.593	0.06
811.892	0.06
812.19	0.06
812.488	0.06
812.786	0.06
813.084	0.05
813.383	0.06
813.68	0.05
813.978	0.06
814.276	0.06
814.574	0.07
814.872	0.07
815.169	0.07
815.467	0.07
815.764	0.06
816.062	0.07
816.359	0.07
816.656	0.07
816.954	0.07
817.251	0.07
817.548	0.07
817.845	0.07
818.142	0.07
818.439	0.07
818.735	0.07
819.032	0.07
819.329	0.07
819.626	0.06
819.922	0.07
820.219	0.07
820.515	0.07
820.811	0.08
821.108	0.07
821.404	0.07
821.7	0.07
821.996	0.08
822.292	0.07
822.588	0.07
822.884	0.07
823.18	0.08
823.475	0.08
823.771	0.08
824.067	0.08
824.362	0.08
824.658	0.07
824.953	0.07
825.249	0.07
825.544	0.08
825.839	0.08
826.134	0.08
826.429	0.08
826.724	0.08
827.019	0.08
827.314	0.08
827.609	0.08
827.904	0.08
828.198	0.08
828.493	0.07
828.787	0.08
829.082	0.07
829.376	0.08
829.671	0.08
829.965	0.08
830.259	0.08
830.553	0.08
830.847	0.08
831.141	0.09
831.435	0.08
831.729	0.09
832.023	0.09
832.317	0.09
832.61	0.09
832.904	0.09
833.197	0.09
833.491	0.09
833.784	0.09
834.077	0.09
834.371	0.08
834.664	0.09
834.957	0.09
835.25	0.08
835.543	0.08
835.836	0.08
836.129	0.07
836.421	0.08
836.714	0.08
837.007	0.08
837.299	0.09
837.592	0.08
837.884	0.09
838.177	0.09
838.469	0.08
838.761	0.08
839.053	0.07
839.345	0.09
839.637	0.08
839.929	0.09
840.221	0.09
840.513	0.09
840.805	0.08
841.096	0.09
841.388	0.09
841.68	0.09
841.971	0.09
842.262	0.09
842.554	0.1
842.845	0.09
843.136	0.09
843.427	0.1
843.718	0.09
844.009	0.09
844.3	0.09
844.591	0.09
844.882	0.09
845.173	0.09
845.463	0.09
845.754	0.1
846.044	0.1
846.335	0.1
846.625	0.11
846.915	0.1
847.206	0.1
847.496	0.11
847.786	0.1
848.076	0.1
848.366	0.1
848.656	0.1
848.945	0.1
849.235	0.1
849.525	0.1
849.814	0.1
850.104	0.1
850.393	0.1
850.683	0.1
850.972	0.1
851.261	0.11
851.551	0.1
851.84	0.1
852.129	0.1
852.418	0.1
852.707	0.11
852.995	0.1
853.284	0.1
853.573	0.11
853.862	0.1
854.15	0.09
854.439	0.1
854.727	0.1
855.015	0.1
855.304	0.11
855.592	0.11
855.88	0.11
856.168	0.11
856.456	0.12
856.744	0.11
857.032	0.11
857.32	0.11
857.607	0.12
857.895	0.12
858.183	0.1
858.47	0.11
858.757	0.12
859.045	0.11
859.332	0.13
859.619	0.1
859.907	0.1
860.194	0.12
860.481	0.11
860.768	0.12
861.054	0.11
861.341	0.11
861.628	0.11
861.915	0.13
862.201	0.13
862.488	0.13
862.774	0.12
863.061	0.12
863.347	0.09
863.633	0.13
863.919	0.11
864.205	0.09
864.491	0.1
864.777	0.1
865.063	0.12
865.349	0.12
865.635	0.13
865.92	0.11
866.206	0.12
866.492	0.14
866.777	0.13
867.062	0.12
867.348	0.1
867.633	0.1
867.918	0.09
868.203	0.13
868.488	0.12
868.773	0.09
869.058	0.09
869.343	0.13
869.628	0.13
869.912	0.11
870.197	0.11
870.482	0.12
870.766	0.12
871.05	0.12
871.335	0.14
871.619	0.08
871.903	0.13
872.187	0.13
872.471	0.12
872.755	0.05
873.039	0.11
873.323	0.1
873.607	0.13
873.89	0.17
874.174	0.13
874.458	0.12
874.741	0.15
875.024	0.12
875.308	0.11
875.591	0.1
875.874	0.13
876.157	0.16
876.44	0.14
876.723	0.13
877.006	0.15
877.289	0.11
877.572	0.13
877.854	0.11
878.137	0.04
878.42	0.07
878.702	0.09
878.984	0.08
879.267	0.13
879.549	0.06
879.831	0.13
880.113	0.11
880.395	0.12
880.677	0.12
880.959	0.16
