Data from Rubpy_BV_1500_EDTA_Buffered_Absorbance_14-17-58-583.txt Node
Date: Wed Jul 01 14:17:58 BST 2026
User: fpm-admin
Spectrometer: OFX00224
Trigger mode: 0
Integration Time (sec): 7.000000E-2
Scans to average: 3
Nonlinearity correction enabled: false
Boxcar width: 0
Storing dark spectrum: false
XAxis mode: Wavelengths
Number of Pixels in Spectrum: 2136
>>>>>Begin Spectral Data<<<<<
154.91	-0.2
155.289	0.18
155.669	-0
156.048	-0
156.428	-0
156.807	-0
157.186	-0.85
157.566	1.04
157.945	0.57
158.325	-0.32
158.704	-0
159.083	-0.09
159.462	-0
159.842	0.51
160.221	0.09
160.6	-0
160.979	0.64
161.359	-0.08
161.738	0.06
162.117	0.28
162.496	0.04
162.875	-0.1
163.254	0.56
163.633	0.27
164.012	-0
164.391	-0
164.77	0.34
165.149	-0
165.528	-0.34
165.907	-0.18
166.286	-0.52
166.665	1.4
167.044	-0.01
167.423	-0
167.802	-0
168.181	0.44
168.559	-0.01
168.938	0.28
169.317	-0
169.696	0.7
170.074	-0
170.453	0.65
170.832	0.21
171.21	0.07
171.589	0.36
171.968	-0.68
172.346	1.21
172.725	-0
173.103	-0
173.482	-0.98
173.861	-0
174.239	-0
174.617	1.13
174.996	-0
175.374	-0.09
175.753	-0.44
176.131	-0
176.51	0.2
176.888	-0
177.266	-0
177.645	-0.04
178.023	-0
178.401	-0.12
178.779	-0.15
179.158	0.2
179.536	-0.4
179.914	-0.06
180.292	0.22
180.67	-0
181.048	-0.03
181.427	-0.07
181.805	-0.26
182.183	-0
182.561	0.47
182.939	-0
183.317	-0.35
183.695	-0.14
184.073	-0
184.451	-0.32
184.829	-0
185.206	-0
185.584	0.54
185.962	-0
186.34	-0
186.718	-0
187.096	-0.26
187.473	-0
187.851	0.95
188.229	0.16
188.607	0.19
188.984	0.13
189.362	0.18
189.74	0.06
190.117	0.15
190.495	0.03
190.872	0.14
191.25	0.22
191.627	0.15
192.005	0.11
192.382	0.18
192.76	0.07
193.137	0.18
193.515	0.18
193.892	0.18
194.269	0.1
194.647	0.19
195.024	0.08
195.401	0.15
195.779	0.13
196.156	0.05
196.533	0.21
196.91	0.15
197.288	0.15
197.665	0.08
198.042	0.21
198.419	0.26
198.796	0.21
199.173	0.19
199.55	0.13
199.927	0.2
200.304	0.2
200.681	0.24
201.058	0.07
201.435	0.3
201.812	0.25
202.189	0.1
202.566	0.04
202.943	0.14
203.32	0.12
203.697	0.19
204.073	0.13
204.45	0.18
204.827	0.35
205.204	0.05
205.58	0.04
205.957	0.13
206.334	0.19
206.71	0.16
207.087	0.29
207.464	0.15
207.84	0.09
208.217	0.14
208.593	0.26
208.97	0.13
209.346	0.25
209.723	0.23
210.099	0.11
210.476	0.3
210.852	0.15
211.228	0.15
211.605	0.24
211.981	0.16
212.357	0.08
212.733	0.14
213.11	0.1
213.486	0.09
213.862	0.19
214.238	0.23
214.614	0.12
214.991	0.15
215.367	0.12
215.743	0.17
216.119	0.26
216.495	0.28
216.871	0.23
217.247	0.14
217.623	0.11
217.999	0.15
218.375	0.17
218.751	0.13
219.127	0.19
219.502	0.18
219.878	0.16
220.254	0.18
220.63	0.31
221.006	0.11
221.381	0.17
221.757	0.26
222.133	0.23
222.508	0.15
222.884	0.24
223.26	0.14
223.635	0.25
224.011	0.31
224.386	0.32
224.762	0.3
225.137	0.2
225.513	0.2
225.888	0.27
226.264	0.17
226.639	0.21
227.014	0.14
227.39	0.21
227.765	0.17
228.14	0.14
228.516	0.23
228.891	0.15
229.266	0.22
229.641	0
230.017	0.2
230.392	0.14
230.767	0.15
231.142	0.13
231.517	0.16
231.892	0.23
232.267	0.27
232.642	0.27
233.017	0.13
233.392	0.17
233.767	0.11
234.142	0.2
234.517	0.2
234.892	0.17
235.267	0.15
235.641	0.14
236.016	0.2
236.391	0.25
236.766	0.15
237.14	0.16
237.515	0.14
237.89	0.23
238.264	0.18
238.639	0.2
239.014	0.18
239.388	0.17
239.763	0.17
240.137	0.19
240.512	0.12
240.886	0.18
241.261	0.15
241.635	0.13
242.009	0.2
242.384	0.31
242.758	0.24
243.132	0.14
243.507	0.16
243.881	0.2
244.255	0.23
244.629	0.21
245.004	0.27
245.378	0.2
245.752	0.18
246.126	0.18
246.5	0.17
246.874	0.13
247.248	0.16
247.622	0.2
247.996	0.23
248.37	0.19
248.744	0.11
249.118	0.18
249.492	0.24
249.866	0.21
250.24	0.28
250.613	0.2
250.987	0.23
251.361	0.2
251.735	0.32
252.108	0.23
252.482	0.17
252.856	0.15
253.229	0.21
253.603	0.25
253.977	0.15
254.35	0.19
254.724	0.22
255.097	0.14
255.471	0.13
255.844	0.24
256.218	0.19
256.591	0.21
256.964	0.1
257.338	0.16
257.711	0.18
258.084	0.22
258.458	0.16
258.831	0.21
259.204	0.25
259.577	0.18
259.95	0.21
260.323	0.19
260.697	0.15
261.07	0.25
261.443	0.25
261.816	0.27
262.189	0.23
262.562	0.18
262.935	0.19
263.308	0.12
263.68	0.12
264.053	0.22
264.426	0.15
264.799	0.2
265.172	0.24
265.545	0.22
265.917	0.22
266.29	0.26
266.663	0.22
267.035	0.25
267.408	0.21
267.781	0.19
268.153	0.3
268.526	0.25
268.898	0.2
269.271	0.16
269.643	0.23
270.016	0.18
270.388	0.19
270.76	0.16
271.133	0.23
271.505	0.26
271.877	0.18
272.25	0.27
272.622	0.31
272.994	0.22
273.366	0.19
273.739	0.19
274.111	0.21
274.483	0.17
274.855	0.21
275.227	0.26
275.599	0.16
275.971	0.17
276.343	0.12
276.715	0.23
277.087	0.2
277.459	0.13
277.831	0.26
278.203	0.21
278.574	0.16
278.946	0.16
279.318	0.22
279.69	0.11
280.061	0.16
280.433	0.27
280.805	0.1
281.176	0.2
281.548	0.2
281.92	0.2
282.291	0.23
282.663	0.23
283.034	0.26
283.406	0.18
283.777	0.2
284.148	0.21
284.52	0.25
284.891	0.22
285.262	0.25
285.634	0.17
286.005	0.22
286.376	0.18
286.747	0.15
287.119	0.14
287.49	0.17
287.861	0.2
288.232	0.24
288.603	0.18
288.974	0.22
289.345	0.15
289.716	0.18
290.087	0.2
290.458	0.22
290.829	0.12
291.2	0.17
291.571	0.15
291.941	0.21
292.312	0.19
292.683	0.2
293.054	0.21
293.424	0.14
293.795	0.28
294.166	0.19
294.536	0.18
294.907	0.26
295.277	0.24
295.648	0.2
296.018	0.19
296.389	0.24
296.759	0.19
297.13	0.25
297.5	0.24
297.871	0.19
298.241	0.16
298.611	0.25
298.981	0.2
299.352	0.2
299.722	0.19
300.092	0.17
300.462	0.17
300.832	0.22
301.202	0.25
301.573	0.23
301.943	0.2
302.313	0.11
302.683	0.22
303.053	0.22
303.422	0.25
303.792	0.17
304.162	0.16
304.532	0.28
304.902	0.17
305.272	0.16
305.641	0.18
306.011	0.22
306.381	0.16
306.75	0.19
307.12	0.18
307.49	0.16
307.859	0.16
308.229	0.16
308.598	0.18
308.968	0.14
309.337	0.14
309.707	0.17
310.076	0.15
310.445	0.16
310.815	0.16
311.184	0.15
311.553	0.12
311.923	0.14
312.292	0.13
312.661	0.15
313.03	0.16
313.399	0.15
313.768	0.17
314.137	0.14
314.506	0.14
314.875	0.15
315.244	0.15
315.613	0.15
315.982	0.16
316.351	0.15
316.72	0.17
317.089	0.17
317.458	0.18
317.826	0.16
318.195	0.18
318.564	0.17
318.933	0.18
319.301	0.17
319.67	0.17
320.038	0.17
320.407	0.19
320.775	0.17
321.144	0.19
321.512	0.2
321.881	0.2
322.249	0.19
322.618	0.2
322.986	0.2
323.354	0.19
323.723	0.21
324.091	0.21
324.459	0.21
324.827	0.21
325.195	0.22
325.564	0.21
325.932	0.22
326.3	0.21
326.668	0.23
327.036	0.23
327.404	0.24
327.772	0.24
328.14	0.23
328.508	0.24
328.875	0.23
329.243	0.25
329.611	0.25
329.979	0.26
330.346	0.26
330.714	0.26
331.082	0.27
331.449	0.27
331.817	0.27
332.185	0.28
332.552	0.29
332.92	0.3
333.287	0.3
333.655	0.3
334.022	0.31
334.389	0.32
334.757	0.32
335.124	0.32
335.491	0.33
335.859	0.34
336.226	0.35
336.593	0.35
336.96	0.35
337.327	0.37
337.695	0.37
338.062	0.37
338.429	0.38
338.796	0.38
339.163	0.39
339.53	0.4
339.897	0.4
340.263	0.41
340.63	0.42
340.997	0.43
341.364	0.44
341.731	0.44
342.097	0.45
342.464	0.46
342.831	0.46
343.197	0.48
343.564	0.49
343.931	0.48
344.297	0.5
344.664	0.51
345.03	0.51
345.396	0.52
345.763	0.53
346.129	0.53
346.496	0.54
346.862	0.54
347.228	0.55
347.594	0.56
347.961	0.56
348.327	0.57
348.693	0.59
349.059	0.59
349.425	0.59
349.791	0.61
350.157	0.62
350.523	0.62
350.889	0.63
351.255	0.64
351.621	0.64
351.987	0.65
352.353	0.66
352.719	0.66
353.084	0.68
353.45	0.68
353.816	0.69
354.181	0.69
354.547	0.7
354.913	0.72
355.278	0.72
355.644	0.73
356.009	0.74
356.375	0.74
356.74	0.76
357.106	0.77
357.471	0.77
357.836	0.78
358.202	0.81
358.567	0.82
358.932	0.82
359.297	0.83
359.663	0.84
360.028	0.86
360.393	0.87
360.758	0.88
361.123	0.88
361.488	0.9
361.853	0.91
362.218	0.92
362.583	0.93
362.948	0.95
363.312	0.95
363.677	0.96
364.042	0.98
364.407	1
364.772	1
365.136	1.01
365.501	1.02
365.865	1.03
366.23	1.03
366.595	1.04
366.959	1.05
367.324	1.06
367.688	1.07
368.052	1.08
368.417	1.08
368.781	1.1
369.145	1.11
369.51	1.11
369.874	1.13
370.238	1.13
370.602	1.14
370.967	1.13
371.331	1.14
371.695	1.15
372.059	1.14
372.423	1.15
372.787	1.14
373.151	1.16
373.515	1.15
373.878	1.14
374.242	1.14
374.606	1.14
374.97	1.12
375.334	1.12
375.697	1.09
376.061	1.1
376.425	1.1
376.788	1.07
377.152	1.07
377.515	1.05
377.879	1.05
378.242	1.03
378.606	1.02
378.969	1
379.333	1
379.696	0.98
380.059	0.97
380.422	0.97
380.786	0.95
381.149	0.95
381.512	0.93
381.875	0.91
382.238	0.91
382.601	0.91
382.964	0.88
383.327	0.88
383.69	0.87
384.053	0.87
384.416	0.86
384.779	0.85
385.142	0.84
385.504	0.84
385.867	0.84
386.23	0.83
386.593	0.83
386.955	0.82
387.318	0.83
387.68	0.83
388.043	0.82
388.405	0.82
388.768	0.82
389.13	0.82
389.493	0.81
389.855	0.8
390.217	0.8
390.58	0.8
390.942	0.79
391.304	0.79
391.666	0.77
392.028	0.76
392.391	0.76
392.753	0.73
393.115	0.73
393.477	0.72
393.839	0.72
394.201	0.71
394.563	0.7
394.924	0.7
395.286	0.7
395.648	0.71
396.01	0.71
396.371	0.72
396.733	0.73
397.095	0.74
397.456	0.76
397.818	0.77
398.18	0.79
398.541	0.81
398.903	0.83
399.264	0.85
399.625	0.86
399.987	0.89
400.348	0.9
400.709	0.91
401.071	0.91
401.432	0.92
401.793	0.92
402.154	0.92
402.515	0.9
402.876	0.89
403.238	0.87
403.599	0.85
403.96	0.82
404.32	0.79
404.681	0.77
405.042	0.74
405.403	0.71
405.764	0.68
406.125	0.65
406.485	0.61
406.846	0.57
407.207	0.55
407.567	0.52
407.928	0.49
408.288	0.46
408.649	0.44
409.009	0.41
409.37	0.39
409.73	0.36
410.091	0.35
410.451	0.33
410.811	0.31
411.171	0.3
411.532	0.28
411.892	0.27
412.252	0.26
412.612	0.25
412.972	0.24
413.332	0.22
413.692	0.22
414.052	0.21
414.412	0.2
414.772	0.19
415.132	0.19
415.492	0.18
415.851	0.18
416.211	0.17
416.571	0.16
416.931	0.16
417.29	0.15
417.65	0.15
418.009	0.15
418.369	0.14
418.728	0.15
419.088	0.13
419.447	0.13
419.807	0.13
420.166	0.13
420.525	0.12
420.884	0.12
421.244	0.12
421.603	0.12
421.962	0.12
422.321	0.12
422.68	0.11
423.039	0.1
423.398	0.11
423.757	0.1
424.116	0.1
424.475	0.11
424.834	0.1
425.193	0.1
425.551	0.1
425.91	0.1
426.269	0.1
426.628	0.09
426.986	0.1
427.345	0.1
427.703	0.09
428.062	0.09
428.42	0.09
428.779	0.09
429.137	0.09
429.496	0.09
429.854	0.09
430.212	0.09
430.57	0.09
430.929	0.08
431.287	0.08
431.645	0.08
432.003	0.09
432.361	0.08
432.719	0.09
433.077	0.08
433.435	0.08
433.793	0.09
434.151	0.09
434.509	0.09
434.866	0.09
435.224	0.08
435.582	0.09
435.94	0.09
436.297	0.08
436.655	0.08
437.012	0.09
437.37	0.09
437.727	0.08
438.085	0.08
438.442	0.09
438.8	0.08
439.157	0.08
439.514	0.09
439.872	0.08
440.229	0.09
440.586	0.08
440.943	0.09
441.3	0.09
441.657	0.08
442.014	0.08
442.371	0.08
442.728	0.08
443.085	0.1
443.442	0.09
443.799	0.08
444.156	0.09
444.513	0.09
444.869	0.09
445.226	0.08
445.583	0.09
445.939	0.09
446.296	0.09
446.652	0.08
447.009	0.09
447.365	0.09
447.722	0.09
448.078	0.1
448.434	0.09
448.791	0.1
449.147	0.09
449.503	0.09
449.859	0.1
450.215	0.08
450.571	0.09
450.928	0.09
451.284	0.1
451.64	0.1
451.995	0.09
452.351	0.1
452.707	0.1
453.063	0.1
453.419	0.1
453.775	0.1
454.13	0.1
454.486	0.11
454.842	0.1
455.197	0.1
455.553	0.1
455.908	0.1
456.264	0.1
456.619	0.1
456.975	0.1
457.33	0.1
457.685	0.11
458.04	0.1
458.396	0.11
458.751	0.1
459.106	0.11
459.461	0.12
459.816	0.11
460.171	0.11
460.526	0.1
460.881	0.11
461.236	0.1
461.591	0.11
461.946	0.11
462.301	0.11
462.655	0.12
463.01	0.12
463.365	0.12
463.719	0.11
464.074	0.11
464.428	0.11
464.783	0.11
465.137	0.12
465.492	0.12
465.846	0.12
466.201	0.12
466.555	0.12
466.909	0.12
467.263	0.12
467.618	0.12
467.972	0.13
468.326	0.13
468.68	0.13
469.034	0.12
469.388	0.13
469.742	0.13
470.096	0.13
470.45	0.14
470.804	0.14
471.157	0.13
471.511	0.14
471.865	0.14
472.218	0.15
472.572	0.15
472.926	0.15
473.279	0.15
473.633	0.15
473.986	0.16
474.34	0.16
474.693	0.16
475.046	0.16
475.4	0.16
475.753	0.17
476.106	0.17
476.459	0.17
476.812	0.18
477.165	0.18
477.519	0.18
477.872	0.17
478.224	0.19
478.577	0.19
478.93	0.19
479.283	0.19
479.636	0.19
479.989	0.2
480.341	0.19
480.694	0.2
481.047	0.2
481.399	0.2
481.752	0.2
482.104	0.21
482.457	0.21
482.809	0.21
483.162	0.21
483.514	0.22
483.866	0.22
484.219	0.22
484.571	0.22
484.923	0.23
485.275	0.23
485.627	0.23
485.979	0.23
486.331	0.23
486.683	0.23
487.035	0.24
487.387	0.24
487.739	0.24
488.091	0.24
488.443	0.25
488.794	0.25
489.146	0.25
489.498	0.25
489.849	0.25
490.201	0.26
490.552	0.26
490.904	0.26
491.255	0.26
491.607	0.27
491.958	0.27
492.309	0.27
492.661	0.27
493.012	0.27
493.363	0.28
493.714	0.28
494.065	0.28
494.416	0.28
494.767	0.29
495.118	0.29
495.469	0.29
495.82	0.29
496.171	0.3
496.522	0.3
496.872	0.3
497.223	0.3
497.574	0.31
497.924	0.31
498.275	0.31
498.626	0.31
498.976	0.31
499.327	0.32
499.677	0.32
500.027	0.32
500.378	0.32
500.728	0.32
501.078	0.33
501.428	0.33
501.779	0.33
502.129	0.33
502.479	0.33
502.829	0.33
503.179	0.34
503.529	0.34
503.879	0.34
504.229	0.35
504.578	0.35
504.928	0.36
505.278	0.35
505.628	0.35
505.977	0.36
506.327	0.36
506.676	0.36
507.026	0.37
507.375	0.37
507.725	0.37
508.074	0.37
508.424	0.37
508.773	0.38
509.122	0.38
509.471	0.38
509.82	0.38
510.17	0.38
510.519	0.38
510.868	0.39
511.217	0.39
511.566	0.39
511.915	0.39
512.263	0.39
512.612	0.4
512.961	0.4
513.31	0.4
513.659	0.41
514.007	0.41
514.356	0.41
514.704	0.4
515.053	0.42
515.401	0.42
515.75	0.42
516.098	0.41
516.447	0.42
516.795	0.42
517.143	0.42
517.491	0.42
517.839	0.43
518.188	0.43
518.536	0.44
518.884	0.44
519.232	0.43
519.58	0.43
519.928	0.44
520.275	0.43
520.623	0.44
520.971	0.44
521.319	0.44
521.666	0.44
522.014	0.44
522.362	0.45
522.709	0.45
523.057	0.45
523.404	0.46
523.752	0.45
524.099	0.46
524.446	0.46
524.794	0.46
525.141	0.46
525.488	0.46
525.835	0.47
526.182	0.46
526.529	0.47
526.876	0.47
527.223	0.47
527.57	0.47
527.917	0.47
528.264	0.47
528.611	0.48
528.958	0.48
529.304	0.47
529.651	0.48
529.998	0.48
530.344	0.48
530.691	0.48
531.037	0.48
531.384	0.48
531.73	0.49
532.076	0.49
532.423	0.49
532.769	0.49
533.115	0.49
533.461	0.49
533.807	0.49
534.154	0.49
534.5	0.5
534.846	0.49
535.192	0.5
535.537	0.5
535.883	0.49
536.229	0.5
536.575	0.49
536.921	0.5
537.266	0.51
537.612	0.51
537.957	0.5
538.303	0.51
538.649	0.51
538.994	0.51
539.339	0.51
539.685	0.51
540.03	0.51
540.375	0.52
540.721	0.52
541.066	0.51
541.411	0.51
541.756	0.52
542.101	0.51
542.446	0.51
542.791	0.52
543.136	0.52
543.481	0.52
543.825	0.51
544.17	0.52
544.515	0.52
544.86	0.52
545.204	0.52
545.549	0.52
545.893	0.52
546.238	0.52
546.582	0.53
546.927	0.52
547.271	0.53
547.615	0.53
547.96	0.53
548.304	0.53
548.648	0.52
548.992	0.53
549.336	0.53
549.68	0.52
550.024	0.53
550.368	0.53
550.712	0.53
551.056	0.53
551.4	0.53
551.743	0.53
552.087	0.53
552.431	0.53
552.774	0.53
553.118	0.53
553.462	0.53
553.805	0.52
554.148	0.53
554.492	0.53
554.835	0.53
555.178	0.53
555.522	0.53
555.865	0.53
556.208	0.53
556.551	0.53
556.894	0.53
557.237	0.53
557.58	0.53
557.923	0.53
558.266	0.53
558.609	0.52
558.952	0.53
559.294	0.53
559.637	0.53
559.98	0.53
560.322	0.53
560.665	0.53
561.007	0.53
561.35	0.53
561.692	0.53
562.034	0.52
562.377	0.52
562.719	0.52
563.061	0.52
563.403	0.52
563.745	0.52
564.088	0.53
564.43	0.53
564.772	0.53
565.113	0.52
565.455	0.52
565.797	0.52
566.139	0.52
566.481	0.52
566.822	0.52
567.164	0.52
567.506	0.52
567.847	0.52
568.189	0.52
568.53	0.51
568.872	0.51
569.213	0.51
569.554	0.51
569.895	0.51
570.237	0.51
570.578	0.51
570.919	0.51
571.26	0.5
571.601	0.51
571.942	0.51
572.283	0.5
572.624	0.5
572.965	0.5
573.306	0.49
573.646	0.49
573.987	0.49
574.328	0.49
574.668	0.49
575.009	0.49
575.349	0.49
575.69	0.48
576.03	0.49
576.37	0.48
576.711	0.48
577.051	0.48
577.391	0.48
577.731	0.48
578.072	0.48
578.412	0.48
578.752	0.48
579.092	0.48
579.431	0.47
579.771	0.45
580.111	0.44
580.451	0.45
580.791	0.47
581.13	0.47
581.47	0.47
581.81	0.47
582.149	0.47
582.489	0.47
582.828	0.46
583.167	0.43
583.507	0.39
583.846	0.38
584.185	0.41
584.525	0.43
584.864	0.45
585.203	0.46
585.542	0.46
585.881	0.47
586.22	0.46
586.559	0.46
586.898	0.45
587.236	0.44
587.575	0.44
587.914	0.45
588.252	0.46
588.591	0.46
588.93	0.46
589.268	0.46
589.607	0.46
589.945	0.46
590.283	0.46
590.622	0.46
590.96	0.46
591.298	0.46
591.636	0.46
591.974	0.46
592.313	0.47
592.651	0.47
592.989	0.46
593.326	0.46
593.664	0.46
594.002	0.47
594.34	0.46
594.678	0.45
595.015	0.45
595.353	0.45
595.691	0.45
596.028	0.46
596.366	0.46
596.703	0.46
597.04	0.46
597.378	0.46
597.715	0.47
598.052	0.47
598.389	0.47
598.726	0.47
599.064	0.46
599.401	0.46
599.738	0.46
600.074	0.46
600.411	0.46
600.748	0.45
601.085	0.45
601.422	0.45
601.758	0.44
602.095	0.45
602.432	0.45
602.768	0.45
603.105	0.45
603.441	0.45
603.777	0.46
604.114	0.46
604.45	0.46
604.786	0.46
605.122	0.46
605.459	0.45
605.795	0.45
606.131	0.45
606.467	0.45
606.803	0.45
607.139	0.45
607.474	0.44
607.81	0.44
608.146	0.44
608.482	0.44
608.817	0.44
609.153	0.43
609.488	0.44
609.824	0.43
610.159	0.43
610.495	0.43
610.83	0.44
611.165	0.44
611.5	0.44
611.836	0.43
612.171	0.43
612.506	0.43
612.841	0.43
613.176	0.43
613.511	0.43
613.845	0.42
614.18	0.42
614.515	0.42
614.85	0.42
615.184	0.42
615.519	0.42
615.854	0.42
616.188	0.42
616.523	0.42
616.857	0.41
617.191	0.41
617.526	0.41
617.86	0.41
618.194	0.41
618.528	0.41
618.862	0.4
619.196	0.41
619.53	0.4
619.864	0.4
620.198	0.41
620.532	0.4
620.866	0.4
621.2	0.4
621.533	0.4
621.867	0.4
622.201	0.39
622.534	0.39
622.868	0.4
623.201	0.39
623.534	0.39
623.868	0.39
624.201	0.38
624.534	0.39
624.868	0.39
625.201	0.38
625.534	0.38
625.867	0.38
626.2	0.38
626.533	0.37
626.865	0.37
627.198	0.37
627.531	0.37
627.864	0.37
628.196	0.37
628.529	0.36
628.862	0.36
629.194	0.36
629.527	0.36
629.859	0.36
630.191	0.35
630.524	0.35
630.856	0.35
631.188	0.35
631.52	0.34
631.852	0.34
632.184	0.34
632.516	0.34
632.848	0.34
633.18	0.34
633.512	0.33
633.844	0.33
634.175	0.33
634.507	0.33
634.839	0.33
635.17	0.32
635.502	0.32
635.833	0.32
636.165	0.32
636.496	0.32
636.827	0.31
637.159	0.31
637.49	0.31
637.821	0.31
638.152	0.3
638.483	0.3
638.814	0.3
639.145	0.3
639.476	0.29
639.807	0.3
640.137	0.29
640.468	0.29
640.799	0.29
641.129	0.29
641.46	0.29
641.791	0.28
642.121	0.28
642.451	0.28
642.782	0.28
643.112	0.28
643.442	0.28
643.773	0.27
644.103	0.27
644.433	0.27
644.763	0.27
645.093	0.27
645.423	0.27
645.753	0.27
646.082	0.26
646.412	0.26
646.742	0.26
647.072	0.26
647.401	0.26
647.731	0.26
648.06	0.25
648.39	0.25
648.719	0.25
649.048	0.25
649.378	0.25
649.707	0.25
650.036	0.25
650.365	0.25
650.694	0.24
651.023	0.24
651.352	0.24
651.681	0.24
652.01	0.24
652.339	0.24
652.668	0.24
652.996	0.24
653.325	0.24
653.654	0.24
653.982	0.24
654.311	0.24
654.639	0.24
654.967	0.24
655.296	0.24
655.624	0.23
655.952	0.24
656.28	0.24
656.609	0.23
656.937	0.23
657.265	0.23
657.593	0.12
657.92	0.02
658.248	0
658.576	0.01
658.904	0.09
659.231	0.18
659.559	0.22
659.887	0.22
660.214	0.22
660.542	0.22
660.869	0.22
661.196	0.22
661.524	0.22
661.851	0.21
662.178	0.22
662.505	0.22
662.832	0.22
663.159	0.22
663.486	0.22
663.813	0.21
664.14	0.21
664.467	0.21
664.794	0.21
665.12	0.21
665.447	0.21
665.774	0.21
666.1	0.21
666.427	0.21
666.753	0.21
667.079	0.2
667.406	0.2
667.732	0.2
668.058	0.2
668.384	0.2
668.71	0.2
669.036	0.2
669.362	0.2
669.688	0.2
670.014	0.19
670.34	0.19
670.666	0.19
670.991	0.19
671.317	0.19
671.643	0.19
671.968	0.19
672.294	0.19
672.619	0.18
672.945	0.18
673.27	0.18
673.595	0.18
673.92	0.18
674.246	0.18
674.571	0.18
674.896	0.17
675.221	0.17
675.546	0.17
675.87	0.17
676.195	0.17
676.52	0.17
676.845	0.17
677.169	0.17
677.494	0.16
677.819	0.16
678.143	0.16
678.468	0.16
678.792	0.16
679.116	0.16
679.44	0.15
679.765	0.15
680.089	0.15
680.413	0.15
680.737	0.15
681.061	0.14
681.385	0.15
681.709	0.14
682.033	0.14
682.356	0.14
682.68	0.14
683.004	0.14
683.327	0.14
683.651	0.13
683.974	0.13
684.298	0.13
684.621	0.13
684.944	0.13
685.268	0.13
685.591	0.13
685.914	0.13
686.237	0.12
686.56	0.12
686.883	0.12
687.206	0.11
687.529	0.11
687.852	0.11
688.175	0.11
688.497	0.11
688.82	0.11
689.142	0.11
689.465	0.11
689.787	0.11
690.11	0.1
690.432	0.1
690.755	0.1
691.077	0.1
691.399	0.1
691.721	0.1
692.043	0.1
692.365	0.1
692.687	0.1
693.009	0.09
693.331	0.09
693.653	0.09
693.974	0.09
694.296	0.09
694.618	0.09
694.939	0.09
695.261	0.09
695.582	0.09
695.904	0.09
696.225	0.09
696.546	0.09
696.868	0.09
697.189	0.08
697.51	0.08
697.831	0.08
698.152	0.08
698.473	0.08
698.794	0.07
699.114	0.07
699.435	0.06
699.756	0.07
700.077	0.07
700.397	0.07
700.718	0.07
701.038	0.08
701.359	0.07
701.679	0.07
701.999	0.08
702.32	0.07
702.64	0.07
702.96	0.07
703.28	0.07
703.6	0.07
703.92	0.07
704.24	0.06
704.56	0.06
704.879	0.06
705.199	0.07
705.519	0.07
705.838	0.07
706.158	0.07
706.478	0.07
706.797	0.07
707.116	0.07
707.436	0.07
707.755	0.07
708.074	0.07
708.393	0.06
708.712	0.06
709.031	0.05
709.35	0.05
709.669	0.05
709.988	0.05
710.307	0.05
710.626	0.06
710.944	0.06
711.263	0.06
711.582	0.06
711.9	0.06
712.219	0.06
712.537	0.06
712.855	0.06
713.174	0.06
713.492	0.06
713.81	0.06
714.128	0.06
714.446	0.06
714.764	0.06
715.082	0.05
715.4	0.06
715.718	0.06
716.035	0.06
716.353	0.06
716.671	0.06
716.988	0.06
717.306	0.06
717.623	0.06
717.941	0.07
718.258	0.07
718.575	0.07
718.893	0.07
719.21	0.06
719.527	0.06
719.844	0.06
720.161	0.06
720.478	0.06
720.795	0.07
721.112	0.07
721.428	0.07
721.745	0.07
722.062	0.07
722.378	0.07
722.695	0.07
723.011	0.07
723.328	0.07
723.644	0.07
723.96	0.07
724.276	0.07
724.593	0.07
724.909	0.07
725.225	0.07
725.541	0.08
725.857	0.07
726.173	0.07
726.488	0.07
726.804	0.07
727.12	0.07
727.435	0.07
727.751	0.07
728.067	0.07
728.382	0.07
728.697	0.07
729.013	0.07
729.328	0.07
729.643	0.07
729.958	0.07
730.273	0.07
730.588	0.07
730.903	0.07
731.218	0.07
731.533	0.07
731.848	0.07
732.163	0.07
732.477	0.07
732.792	0.07
733.107	0.06
733.421	0.07
733.736	0.07
734.05	0.07
734.364	0.06
734.678	0.07
734.993	0.06
735.307	0.06
735.621	0.06
735.935	0.07
736.249	0.06
736.563	0.07
736.877	0.07
737.19	0.06
737.504	0.06
737.818	0.06
738.131	0.06
738.445	0.07
738.758	0.06
739.072	0.06
739.385	0.06
739.698	0.06
740.012	0.06
740.325	0.06
740.638	0.06
740.951	0.06
741.264	0.06
741.577	0.06
741.89	0.06
742.203	0.06
742.515	0.06
742.828	0.06
743.141	0.06
743.453	0.06
743.766	0.06
744.078	0.06
744.391	0.06
744.703	0.06
745.015	0.06
745.327	0.06
745.639	0.06
745.952	0.06
746.264	0.05
746.575	0.05
746.887	0.05
747.199	0.05
747.511	0.05
747.823	0.05
748.134	0.05
748.446	0.05
748.757	0.05
749.069	0.05
749.38	0.05
749.692	0.05
750.003	0.05
750.314	0.05
750.625	0.05
750.936	0.05
751.248	0.05
751.559	0.05
751.869	0.05
752.18	0.05
752.491	0.05
752.802	0.05
753.112	0.04
753.423	0.04
753.734	0.04
754.044	0.04
754.355	0.05
754.665	0.04
754.975	0.04
755.285	0.04
755.596	0.04
755.906	0.04
756.216	0.04
756.526	0.04
756.836	0.04
757.146	0.04
757.455	0.04
757.765	0.04
758.075	0.03
758.385	0.03
758.694	0.03
759.004	0.03
759.313	0.03
759.622	0.03
759.932	0.03
760.241	0.04
760.55	0.04
760.859	0.03
761.168	0.03
761.477	0.03
761.786	0.03
762.095	0.03
762.404	0.03
762.713	0.03
763.021	0.03
763.33	0.03
763.639	0.03
763.947	0.03
764.256	0.03
764.564	0.03
764.872	0.03
765.181	0.03
765.489	0.03
765.797	0.03
766.105	0.03
766.413	0.03
766.721	0.03
767.029	0.03
767.337	0.03
767.644	0.04
767.952	0.03
768.26	0.03
768.567	0.04
768.875	0.03
769.182	0.03
769.49	0.03
769.797	0.03
770.104	0.03
770.411	0.03
770.718	0.03
771.026	0.03
771.333	0.03
771.639	0.04
771.946	0.03
772.253	0.03
772.56	0.03
772.867	0.03
773.173	0.03
773.48	0.03
773.786	0.03
774.093	0.03
774.399	0.03
774.705	0.03
775.012	0.03
775.318	0.03
775.624	0.03
775.93	0.03
776.236	0.03
776.542	0.03
776.848	0.04
777.154	0.03
777.459	0.03
777.765	0.03
778.071	0.03
778.376	0.03
778.682	0.03
778.987	0.03
779.292	0.03
779.598	0.03
779.903	0.03
780.208	0.03
780.513	0.03
780.818	0.03
781.123	0.03
781.428	0.03
781.733	0.03
782.038	0.03
782.343	0.03
782.647	0.03
782.952	0.03
783.256	0.03
783.561	0.03
783.865	0.03
784.17	0.04
784.474	0.04
784.778	0.04
785.082	0.04
785.386	0.04
785.69	0.04
785.994	0.04
786.298	0.04
786.602	0.04
786.906	0.04
787.209	0.04
787.513	0.04
787.817	0.04
788.12	0.04
788.424	0.04
788.727	0.04
789.03	0.04
789.333	0.04
789.637	0.04
789.94	0.04
790.243	0.04
790.546	0.03
790.849	0.03
791.152	0.03
791.454	0.04
791.757	0.04
792.06	0.04
792.362	0.04
792.665	0.04
792.967	0.04
793.27	0.04
793.572	0.04
793.874	0.04
794.177	0.04
794.479	0.04
794.781	0.04
795.083	0.03
795.385	0.04
795.687	0.04
795.989	0.03
796.29	0.04
796.592	0.04
796.894	0.04
797.195	0.04
797.497	0.04
797.798	0.04
798.1	0.04
798.401	0.04
798.702	0.04
799.003	0.04
799.304	0.04
799.605	0.04
799.906	0.04
800.207	0.04
800.508	0.04
800.809	0.04
801.11	0.04
801.41	0.04
801.711	0.04
802.011	0.04
802.312	0.04
802.612	0.05
802.913	0.04
803.213	0.04
803.513	0.04
803.813	0.04
804.113	0.04
804.413	0.03
804.713	0.04
805.013	0.04
805.313	0.04
805.613	0.04
805.912	0.04
806.212	0.04
806.511	0.04
806.811	0.04
807.11	0.04
807.41	0.05
807.709	0.04
808.008	0.05
808.307	0.04
808.606	0.05
808.905	0.05
809.204	0.05
809.503	0.05
809.802	0.05
810.101	0.04
810.399	0.05
810.698	0.05
810.997	0.05
811.295	0.05
811.593	0.05
811.892	0.05
812.19	0.05
812.488	0.05
812.786	0.05
813.084	0.05
813.383	0.05
813.68	0.04
813.978	0.04
814.276	0.05
814.574	0.05
814.872	0.05
815.169	0.05
815.467	0.05
815.764	0.05
816.062	0.06
816.359	0.05
816.656	0.06
816.954	0.05
817.251	0.05
817.548	0.05
817.845	0.05
818.142	0.05
818.439	0.05
818.735	0.05
819.032	0.05
819.329	0.05
819.626	0.05
819.922	0.05
820.219	0.05
820.515	0.05
820.811	0.06
821.108	0.06
821.404	0.05
821.7	0.05
821.996	0.06
822.292	0.06
822.588	0.05
822.884	0.06
823.18	0.06
823.475	0.06
823.771	0.06
824.067	0.06
824.362	0.06
824.658	0.05
824.953	0.06
825.249	0.05
825.544	0.06
825.839	0.06
826.134	0.06
826.429	0.06
826.724	0.06
827.019	0.06
827.314	0.06
827.609	0.06
827.904	0.06
828.198	0.06
828.493	0.06
828.787	0.06
829.082	0.06
829.376	0.06
829.671	0.06
829.965	0.06
830.259	0.06
830.553	0.07
830.847	0.06
831.141	0.06
831.435	0.06
831.729	0.07
832.023	0.06
832.317	0.07
832.61	0.07
832.904	0.07
833.197	0.07
833.491	0.07
833.784	0.06
834.077	0.06
834.371	0.06
834.664	0.06
834.957	0.07
835.25	0.06
835.543	0.06
835.836	0.06
836.129	0.06
836.421	0.06
836.714	0.06
837.007	0.06
837.299	0.07
837.592	0.07
837.884	0.06
838.177	0.06
838.469	0.07
838.761	0.06
839.053	0.06
839.345	0.06
839.637	0.07
839.929	0.07
840.221	0.07
840.513	0.06
840.805	0.06
841.096	0.06
841.388	0.06
841.68	0.07
841.971	0.07
842.262	0.07
842.554	0.07
842.845	0.07
843.136	0.06
843.427	0.07
843.718	0.07
844.009	0.07
844.3	0.06
844.591	0.07
844.882	0.07
845.173	0.07
845.463	0.07
845.754	0.08
846.044	0.08
846.335	0.08
846.625	0.08
846.915	0.07
847.206	0.07
847.496	0.08
847.786	0.08
848.076	0.08
848.366	0.08
848.656	0.07
848.945	0.07
849.235	0.07
849.525	0.07
849.814	0.07
850.104	0.08
850.393	0.08
850.683	0.08
850.972	0.08
851.261	0.08
851.551	0.08
851.84	0.07
852.129	0.07
852.418	0.07
852.707	0.08
852.995	0.08
853.284	0.08
853.573	0.08
853.862	0.07
854.15	0.08
854.439	0.08
854.727	0.07
855.015	0.08
855.304	0.07
855.592	0.08
855.88	0.07
856.168	0.07
856.456	0.08
856.744	0.09
857.032	0.09
857.32	0.08
857.607	0.09
857.895	0.09
858.183	0.09
858.47	0.08
858.757	0.1
859.045	0.1
859.332	0.09
859.619	0.08
859.907	0.09
860.194	0.1
860.481	0.09
860.768	0.09
861.054	0.1
861.341	0.08
861.628	0.09
861.915	0.09
862.201	0.09
862.488	0.1
862.774	0.09
863.061	0.09
863.347	0.06
863.633	0.1
863.919	0.08
864.205	0.07
864.491	0.09
864.777	0.07
865.063	0.07
865.349	0.07
865.635	0.09
865.92	0.08
866.206	0.09
866.492	0.1
866.777	0.1
867.062	0.09
867.348	0.08
867.633	0.05
867.918	0.1
868.203	0.11
868.488	0.1
868.773	0.08
869.058	0.09
869.343	0.09
869.628	0.08
869.912	0.08
870.197	0.07
870.482	0.07
870.766	0.06
871.05	0.03
871.335	0.09
871.619	0.05
871.903	0.08
872.187	0.07
872.471	0.07
872.755	0.02
873.039	0.06
873.323	0.08
873.607	0.09
873.89	0.12
874.174	0.08
874.458	0.06
874.741	0.12
875.024	0.08
875.308	0.07
875.591	0.09
875.874	0.06
876.157	0.17
876.44	0.12
876.723	0.12
877.006	0.04
877.289	0.05
877.572	0.09
877.854	0.08
878.137	0.01
878.42	0.04
878.702	0.03
878.984	0.05
879.267	0.05
879.549	0.08
879.831	0.12
880.113	0.11
880.395	0.12
880.677	0.1
880.959	0.03
