Data from Rubpy_BV_1500_EDTA_Buffered_Absorbance_14-29-18-628.txt Node
Date: Wed Jul 01 14:29:18 BST 2026
User: fpm-admin
Spectrometer: OFX00224
Trigger mode: 0
Integration Time (sec): 7.000000E-2
Scans to average: 3
Nonlinearity correction enabled: false
Boxcar width: 0
Storing dark spectrum: false
XAxis mode: Wavelengths
Number of Pixels in Spectrum: 2136
>>>>>Begin Spectral Data<<<<<
154.91	-0
155.289	0.1
155.669	-1.06
156.048	-0
156.428	-0
156.807	-0
157.186	-0.53
157.566	-0.02
157.945	-0
158.325	-0.1
158.704	-0
159.083	-0.16
159.462	-0
159.842	0.18
160.221	-0.16
160.6	-0
160.979	-0.39
161.359	0.6
161.738	-0.08
162.117	-0.15
162.496	-0.83
162.875	-0
163.254	-0.29
163.633	-0
164.012	-0.3
164.391	-0.1
164.77	-0.15
165.149	0.01
165.528	-1.01
165.907	-0.19
166.286	-0.18
166.665	1.1
167.044	0.05
167.423	-0
167.802	-0
168.181	-0
168.559	0.36
168.938	-0
169.317	0.12
169.696	0.63
170.074	0.12
170.453	-0.15
170.832	0.42
171.21	0.07
171.589	-0.32
171.968	-0
172.346	0.51
172.725	-0
173.103	-0.12
173.482	-1.28
173.861	0.64
174.239	-1.15
174.617	0.43
174.996	0.14
175.374	0.15
175.753	-0.51
176.131	-0.22
176.51	-0.11
176.888	-0
177.266	-0
177.645	0.07
178.023	0.91
178.401	-0.14
178.779	0.1
179.158	0.46
179.536	-0.06
179.914	0.62
180.292	0.2
180.67	-0
181.048	-0
181.427	-0.26
181.805	-0.37
182.183	-0
182.561	0.88
182.939	-0
183.317	-0
183.695	-0.35
184.073	0.16
184.451	-0.1
184.829	0.65
185.206	-0
185.584	-0.41
185.962	-0
186.34	-0.23
186.718	-0.3
187.096	-0
187.473	-0.38
187.851	0.65
188.229	0.17
188.607	0.2
188.984	0.37
189.362	0.4
189.74	0.16
190.117	0.25
190.495	0.15
190.872	0.29
191.25	0.37
191.627	0.22
192.005	0.33
192.382	0.48
192.76	0.2
193.137	0.17
193.515	0.25
193.892	0.16
194.269	0.09
194.647	0.47
195.024	0.19
195.401	0.25
195.779	0.28
196.156	0.22
196.533	0.22
196.91	0.19
197.288	0.35
197.665	0.31
198.042	0.25
198.419	0.28
198.796	0.31
199.173	0.22
199.55	0.15
199.927	0.37
200.304	0.38
200.681	0.38
201.058	0.37
201.435	0.34
201.812	0.52
202.189	0.25
202.566	0.21
202.943	0.25
203.32	0.28
203.697	0.24
204.073	0.25
204.45	0.26
204.827	0.5
205.204	0.23
205.58	0.23
205.957	0.18
206.334	0.27
206.71	0.34
207.087	0.55
207.464	0.13
207.84	0.25
208.217	0.3
208.593	0.39
208.97	0.29
209.346	0.34
209.723	0.27
210.099	0.4
210.476	0.3
210.852	0.42
211.228	0.21
211.605	0.35
211.981	0.34
212.357	0.36
212.733	0.21
213.11	0.27
213.486	0.26
213.862	0.26
214.238	0.23
214.614	0.33
214.991	0.33
215.367	0.22
215.743	0.22
216.119	0.38
216.495	0.35
216.871	0.31
217.247	0.29
217.623	0.21
217.999	0.22
218.375	0.18
218.751	0.32
219.127	0.26
219.502	0.28
219.878	0.24
220.254	0.27
220.63	0.35
221.006	0.19
221.381	0.39
221.757	0.51
222.133	0.36
222.508	0.34
222.884	0.54
223.26	0.29
223.635	0.35
224.011	0.6
224.386	0.27
224.762	0.31
225.137	0.29
225.513	0.36
225.888	0.31
226.264	0.34
226.639	0.38
227.014	0.22
227.39	0.32
227.765	0.41
228.14	0.23
228.516	0.31
228.891	0.32
229.266	0.31
229.641	0.41
230.017	0.38
230.392	0.3
230.767	0.28
231.142	0.25
231.517	0.27
231.892	0.39
232.267	0.27
232.642	0.34
233.017	0.31
233.392	0.24
233.767	0.37
234.142	0.27
234.517	0.3
234.892	0.25
235.267	0.48
235.641	0.31
236.016	0.37
236.391	0.43
236.766	0.4
237.14	0.3
237.515	0.34
237.89	0.55
238.264	0.4
238.639	0.35
239.014	0.28
239.388	0.27
239.763	0.33
240.137	0.4
240.512	0.31
240.886	0.33
241.261	0.3
241.635	0.27
242.009	0.43
242.384	0.29
242.758	0.39
243.132	0.22
243.507	0.32
243.881	0.27
244.255	0.24
244.629	0.21
245.004	0.36
245.378	0.33
245.752	0.25
246.126	0.34
246.5	0.43
246.874	0.14
247.248	0.26
247.622	0.2
247.996	0.29
248.37	0.34
248.744	0.41
249.118	0.27
249.492	0.22
249.866	0.28
250.24	0.22
250.613	0.36
250.987	0.38
251.361	0.4
251.735	0.41
252.108	0.3
252.482	0.17
252.856	0.37
253.229	0.44
253.603	0.28
253.977	0.22
254.35	0.3
254.724	0.29
255.097	0.35
255.471	0.31
255.844	0.32
256.218	0.39
256.591	0.36
256.964	0.29
257.338	0.29
257.711	0.35
258.084	0.36
258.458	0.26
258.831	0.24
259.204	0.27
259.577	0.3
259.95	0.26
260.323	0.22
260.697	0.33
261.07	0.37
261.443	0.47
261.816	0.27
262.189	0.33
262.562	0.21
262.935	0.4
263.308	0.36
263.68	0.31
264.053	0.31
264.426	0.32
264.799	0.35
265.172	0.34
265.545	0.54
265.917	0.29
266.29	0.41
266.663	0.3
267.035	0.37
267.408	0.28
267.781	0.36
268.153	0.32
268.526	0.39
268.898	0.31
269.271	0.4
269.643	0.34
270.016	0.25
270.388	0.3
270.76	0.34
271.133	0.3
271.505	0.44
271.877	0.27
272.25	0.29
272.622	0.51
272.994	0.39
273.366	0.33
273.739	0.34
274.111	0.3
274.483	0.38
274.855	0.36
275.227	0.35
275.599	0.28
275.971	0.24
276.343	0.26
276.715	0.24
277.087	0.41
277.459	0.34
277.831	0.36
278.203	0.39
278.574	0.36
278.946	0.31
279.318	0.3
279.69	0.23
280.061	0.32
280.433	0.26
280.805	0.2
281.176	0.36
281.548	0.42
281.92	0.31
282.291	0.34
282.663	0.31
283.034	0.37
283.406	0.3
283.777	0.35
284.148	0.32
284.52	0.29
284.891	0.25
285.262	0.32
285.634	0.32
286.005	0.3
286.376	0.42
286.747	0.43
287.119	0.38
287.49	0.34
287.861	0.32
288.232	0.32
288.603	0.43
288.974	0.45
289.345	0.3
289.716	0.29
290.087	0.38
290.458	0.35
290.829	0.24
291.2	0.38
291.571	0.27
291.941	0.32
292.312	0.31
292.683	0.34
293.054	0.43
293.424	0.27
293.795	0.4
294.166	0.34
294.536	0.33
294.907	0.34
295.277	0.43
295.648	0.38
296.018	0.38
296.389	0.32
296.759	0.29
297.13	0.31
297.5	0.33
297.871	0.39
298.241	0.28
298.611	0.44
298.981	0.4
299.352	0.32
299.722	0.49
300.092	0.3
300.462	0.28
300.832	0.31
301.202	0.38
301.573	0.31
301.943	0.31
302.313	0.43
302.683	0.39
303.053	0.39
303.422	0.41
303.792	0.29
304.162	0.33
304.532	0.3
304.902	0.23
305.272	0.31
305.641	0.34
306.011	0.34
306.381	0.24
306.75	0.25
307.12	0.27
307.49	0.31
307.859	0.28
308.229	0.27
308.598	0.27
308.968	0.24
309.337	0.26
309.707	0.25
310.076	0.28
310.445	0.28
310.815	0.28
311.184	0.23
311.553	0.25
311.923	0.24
312.292	0.24
312.661	0.26
313.03	0.29
313.399	0.27
313.768	0.25
314.137	0.26
314.506	0.27
314.875	0.27
315.244	0.27
315.613	0.29
315.982	0.31
316.351	0.28
316.72	0.29
317.089	0.3
317.458	0.31
317.826	0.3
318.195	0.32
318.564	0.31
318.933	0.32
319.301	0.32
319.67	0.33
320.038	0.32
320.407	0.34
320.775	0.35
321.144	0.35
321.512	0.37
321.881	0.36
322.249	0.36
322.618	0.37
322.986	0.37
323.354	0.38
323.723	0.39
324.091	0.38
324.459	0.39
324.827	0.39
325.195	0.41
325.564	0.41
325.932	0.41
326.3	0.42
326.668	0.42
327.036	0.43
327.404	0.43
327.772	0.44
328.14	0.45
328.508	0.46
328.875	0.46
329.243	0.48
329.611	0.48
329.979	0.5
330.346	0.5
330.714	0.51
331.082	0.51
331.449	0.51
331.817	0.53
332.185	0.53
332.552	0.54
332.92	0.55
333.287	0.57
333.655	0.57
334.022	0.59
334.389	0.61
334.757	0.61
335.124	0.61
335.491	0.63
335.859	0.64
336.226	0.66
336.593	0.67
336.96	0.68
337.327	0.69
337.695	0.7
338.062	0.72
338.429	0.72
338.796	0.74
339.163	0.76
339.53	0.77
339.897	0.78
340.263	0.79
340.63	0.81
340.997	0.82
341.364	0.84
341.731	0.86
342.097	0.86
342.464	0.87
342.831	0.9
343.197	0.91
343.564	0.93
343.931	0.94
344.297	0.95
344.664	0.97
345.03	0.98
345.396	0.98
345.763	1.01
346.129	1.02
346.496	1.03
346.862	1.04
347.228	1.05
347.594	1.08
347.961	1.1
348.327	1.12
348.693	1.12
349.059	1.13
349.425	1.14
349.791	1.16
350.157	1.17
350.523	1.18
350.889	1.19
351.255	1.2
351.621	1.21
351.987	1.23
352.353	1.25
352.719	1.25
353.084	1.28
353.45	1.28
353.816	1.31
354.181	1.31
354.547	1.34
354.913	1.35
355.278	1.36
355.644	1.37
356.009	1.4
356.375	1.41
356.74	1.44
357.106	1.44
357.471	1.45
357.836	1.47
358.202	1.51
358.567	1.52
358.932	1.54
359.297	1.52
359.663	1.57
360.028	1.59
360.393	1.57
360.758	1.62
361.123	1.63
361.488	1.68
361.853	1.65
362.218	1.68
362.583	1.7
362.948	1.68
363.312	1.7
363.677	1.73
364.042	1.76
364.407	1.75
364.772	1.79
365.136	1.81
365.501	1.79
365.865	1.82
366.23	1.81
366.595	1.78
366.959	1.88
367.324	1.86
367.688	1.82
368.052	1.85
368.417	1.87
368.781	1.87
369.145	1.89
369.51	1.87
369.874	1.93
370.238	2
370.602	1.93
370.967	1.89
371.331	1.92
371.695	1.9
372.059	1.92
372.423	1.99
372.787	1.9
373.151	1.94
373.515	1.97
373.878	1.92
374.242	1.97
374.606	1.89
374.97	1.9
375.334	1.88
375.697	1.93
376.061	1.88
376.425	1.88
376.788	1.89
377.152	1.8
377.515	1.82
377.879	1.82
378.242	1.77
378.606	1.8
378.969	1.75
379.333	1.79
379.696	1.73
380.059	1.71
380.422	1.69
380.786	1.69
381.149	1.66
381.512	1.64
381.875	1.61
382.238	1.64
382.601	1.59
382.964	1.57
383.327	1.55
383.69	1.53
384.053	1.52
384.416	1.51
384.779	1.48
385.142	1.48
385.504	1.46
385.867	1.45
386.23	1.43
386.593	1.43
386.955	1.41
387.318	1.42
387.68	1.43
388.043	1.39
388.405	1.39
388.768	1.38
389.13	1.37
389.493	1.37
389.855	1.36
390.217	1.34
390.58	1.33
390.942	1.32
391.304	1.31
391.666	1.28
392.028	1.26
392.391	1.25
392.753	1.23
393.115	1.21
393.477	1.19
393.839	1.18
394.201	1.17
394.563	1.17
394.924	1.16
395.286	1.15
395.648	1.16
396.01	1.15
396.371	1.16
396.733	1.18
397.095	1.19
397.456	1.22
397.818	1.24
398.18	1.25
398.541	1.27
398.903	1.3
399.264	1.33
399.625	1.35
399.987	1.39
400.348	1.39
400.709	1.42
401.071	1.42
401.432	1.43
401.793	1.42
402.154	1.41
402.515	1.39
402.876	1.39
403.238	1.34
403.599	1.32
403.96	1.29
404.32	1.24
404.681	1.19
405.042	1.17
405.403	1.1
405.764	1.06
406.125	1.02
406.485	0.97
406.846	0.91
407.207	0.87
407.567	0.82
407.928	0.79
408.288	0.75
408.649	0.7
409.009	0.66
409.37	0.63
409.73	0.59
410.091	0.56
410.451	0.53
410.811	0.51
411.171	0.48
411.532	0.46
411.892	0.44
412.252	0.43
412.612	0.41
412.972	0.39
413.332	0.37
413.692	0.36
414.052	0.34
414.412	0.32
414.772	0.32
415.132	0.31
415.492	0.29
415.851	0.29
416.211	0.29
416.571	0.27
416.931	0.26
417.29	0.25
417.65	0.25
418.009	0.24
418.369	0.24
418.728	0.24
419.088	0.23
419.447	0.22
419.807	0.22
420.166	0.22
420.525	0.21
420.884	0.2
421.244	0.21
421.603	0.2
421.962	0.2
422.321	0.19
422.68	0.18
423.039	0.17
423.398	0.18
423.757	0.19
424.116	0.18
424.475	0.18
424.834	0.18
425.193	0.17
425.551	0.17
425.91	0.17
426.269	0.17
426.628	0.16
426.986	0.17
427.345	0.17
427.703	0.16
428.062	0.16
428.42	0.15
428.779	0.16
429.137	0.16
429.496	0.15
429.854	0.15
430.212	0.15
430.57	0.15
430.929	0.15
431.287	0.15
431.645	0.14
432.003	0.15
432.361	0.15
432.719	0.15
433.077	0.15
433.435	0.15
433.793	0.15
434.151	0.15
434.509	0.16
434.866	0.15
435.224	0.15
435.582	0.15
435.94	0.15
436.297	0.14
436.655	0.14
437.012	0.15
437.37	0.15
437.727	0.16
438.085	0.15
438.442	0.15
438.8	0.15
439.157	0.15
439.514	0.16
439.872	0.15
440.229	0.15
440.586	0.15
440.943	0.16
441.3	0.15
441.657	0.15
442.014	0.16
442.371	0.15
442.728	0.15
443.085	0.16
443.442	0.15
443.799	0.15
444.156	0.15
444.513	0.16
444.869	0.16
445.226	0.16
445.583	0.16
445.939	0.16
446.296	0.17
446.652	0.17
447.009	0.16
447.365	0.16
447.722	0.17
448.078	0.17
448.434	0.17
448.791	0.18
449.147	0.17
449.503	0.17
449.859	0.18
450.215	0.18
450.571	0.17
450.928	0.17
451.284	0.17
451.64	0.19
451.995	0.18
452.351	0.2
452.707	0.19
453.063	0.19
453.419	0.18
453.775	0.19
454.13	0.19
454.486	0.2
454.842	0.19
455.197	0.19
455.553	0.19
455.908	0.19
456.264	0.2
456.619	0.19
456.975	0.2
457.33	0.2
457.685	0.21
458.04	0.2
458.396	0.21
458.751	0.2
459.106	0.21
459.461	0.22
459.816	0.21
460.171	0.22
460.526	0.21
460.881	0.22
461.236	0.22
461.591	0.22
461.946	0.22
462.301	0.22
462.655	0.23
463.01	0.24
463.365	0.24
463.719	0.22
464.074	0.23
464.428	0.23
464.783	0.23
465.137	0.24
465.492	0.24
465.846	0.24
466.201	0.24
466.555	0.25
466.909	0.24
467.263	0.25
467.618	0.25
467.972	0.26
468.326	0.26
468.68	0.26
469.034	0.26
469.388	0.27
469.742	0.26
470.096	0.27
470.45	0.28
470.804	0.28
471.157	0.28
471.511	0.28
471.865	0.29
472.218	0.3
472.572	0.3
472.926	0.3
473.279	0.3
473.633	0.3
473.986	0.31
474.34	0.32
474.693	0.32
475.046	0.33
475.4	0.33
475.753	0.33
476.106	0.34
476.459	0.34
476.812	0.34
477.165	0.35
477.519	0.35
477.872	0.35
478.224	0.36
478.577	0.37
478.93	0.37
479.283	0.37
479.636	0.38
479.989	0.39
480.341	0.38
480.694	0.39
481.047	0.39
481.399	0.39
481.752	0.4
482.104	0.41
482.457	0.41
482.809	0.42
483.162	0.42
483.514	0.43
483.866	0.43
484.219	0.43
484.571	0.43
484.923	0.44
485.275	0.45
485.627	0.45
485.979	0.45
486.331	0.46
486.683	0.46
487.035	0.46
487.387	0.46
487.739	0.47
488.091	0.48
488.443	0.48
488.794	0.48
489.146	0.49
489.498	0.49
489.849	0.49
490.201	0.5
490.552	0.5
490.904	0.51
491.255	0.51
491.607	0.51
491.958	0.52
492.309	0.52
492.661	0.52
493.012	0.53
493.363	0.54
493.714	0.54
494.065	0.55
494.416	0.55
494.767	0.55
495.118	0.56
495.469	0.56
495.82	0.57
496.171	0.57
496.522	0.57
496.872	0.58
497.223	0.58
497.574	0.58
497.924	0.59
498.275	0.6
498.626	0.6
498.976	0.6
499.327	0.61
499.677	0.61
500.027	0.61
500.378	0.61
500.728	0.62
501.078	0.63
501.428	0.63
501.779	0.63
502.129	0.64
502.479	0.64
502.829	0.64
503.179	0.65
503.529	0.65
503.879	0.65
504.229	0.67
504.578	0.68
504.928	0.67
505.278	0.67
505.628	0.68
505.977	0.69
506.327	0.69
506.676	0.69
507.026	0.7
507.375	0.71
507.725	0.7
508.074	0.71
508.424	0.71
508.773	0.72
509.122	0.72
509.471	0.73
509.82	0.72
510.17	0.72
510.519	0.74
510.868	0.74
511.217	0.74
511.566	0.75
511.915	0.75
512.263	0.75
512.612	0.76
512.961	0.76
513.31	0.76
513.659	0.77
514.007	0.77
514.356	0.78
514.704	0.78
515.053	0.78
515.401	0.79
515.75	0.79
516.098	0.79
516.447	0.79
516.795	0.8
517.143	0.8
517.491	0.81
517.839	0.81
518.188	0.81
518.536	0.82
518.884	0.82
519.232	0.83
519.58	0.82
519.928	0.83
520.275	0.83
520.623	0.84
520.971	0.84
521.319	0.83
521.666	0.83
522.014	0.84
522.362	0.85
522.709	0.85
523.057	0.85
523.404	0.85
523.752	0.85
524.099	0.86
524.446	0.85
524.794	0.87
525.141	0.86
525.488	0.87
525.835	0.87
526.182	0.88
526.529	0.88
526.876	0.88
527.223	0.89
527.57	0.89
527.917	0.88
528.264	0.89
528.611	0.89
528.958	0.89
529.304	0.89
529.651	0.89
529.998	0.9
530.344	0.9
530.691	0.91
531.037	0.91
531.384	0.91
531.73	0.91
532.076	0.91
532.423	0.91
532.769	0.92
533.115	0.91
533.461	0.92
533.807	0.92
534.154	0.92
534.5	0.92
534.846	0.92
535.192	0.93
535.537	0.93
535.883	0.92
536.229	0.93
536.575	0.93
536.921	0.94
537.266	0.94
537.612	0.95
537.957	0.94
538.303	0.94
538.649	0.95
538.994	0.94
539.339	0.94
539.685	0.95
540.03	0.95
540.375	0.95
540.721	0.95
541.066	0.95
541.411	0.95
541.756	0.95
542.101	0.95
542.446	0.95
542.791	0.95
543.136	0.95
543.481	0.96
543.825	0.96
544.17	0.96
544.515	0.96
544.86	0.95
545.204	0.95
545.549	0.95
545.893	0.96
546.238	0.96
546.582	0.96
546.927	0.97
547.271	0.96
547.615	0.97
547.96	0.97
548.304	0.96
548.648	0.97
548.992	0.97
549.336	0.97
549.68	0.97
550.024	0.98
550.368	0.97
550.712	0.97
551.056	0.97
551.4	0.97
551.743	0.96
552.087	0.96
552.431	0.97
552.774	0.97
553.118	0.96
553.462	0.97
553.805	0.96
554.148	0.97
554.492	0.97
554.835	0.97
555.178	0.96
555.522	0.96
555.865	0.96
556.208	0.96
556.551	0.97
556.894	0.97
557.237	0.96
557.58	0.96
557.923	0.96
558.266	0.96
558.609	0.95
558.952	0.96
559.294	0.95
559.637	0.95
559.98	0.95
560.322	0.95
560.665	0.95
561.007	0.96
561.35	0.94
561.692	0.96
562.034	0.95
562.377	0.95
562.719	0.95
563.061	0.95
563.403	0.95
563.745	0.94
564.088	0.95
564.43	0.94
564.772	0.94
565.113	0.94
565.455	0.94
565.797	0.94
566.139	0.94
566.481	0.93
566.822	0.94
567.164	0.93
567.506	0.93
567.847	0.92
568.189	0.93
568.53	0.92
568.872	0.92
569.213	0.92
569.554	0.92
569.895	0.91
570.237	0.91
570.578	0.91
570.919	0.92
571.26	0.91
571.601	0.91
571.942	0.91
572.283	0.9
572.624	0.9
572.965	0.9
573.306	0.9
573.646	0.89
573.987	0.89
574.328	0.88
574.668	0.89
575.009	0.88
575.349	0.88
575.69	0.87
576.03	0.88
576.37	0.87
576.711	0.87
577.051	0.87
577.391	0.87
577.731	0.87
578.072	0.87
578.412	0.86
578.752	0.87
579.092	0.86
579.431	0.85
579.771	0.83
580.111	0.82
580.451	0.83
580.791	0.84
581.13	0.85
581.47	0.85
581.81	0.85
582.149	0.84
582.489	0.84
582.828	0.83
583.167	0.81
583.507	0.77
583.846	0.75
584.185	0.78
584.525	0.8
584.864	0.82
585.203	0.83
585.542	0.83
585.881	0.83
586.22	0.83
586.559	0.82
586.898	0.81
587.236	0.8
587.575	0.8
587.914	0.81
588.252	0.82
588.591	0.82
588.93	0.82
589.268	0.81
589.607	0.81
589.945	0.81
590.283	0.82
590.622	0.81
590.96	0.82
591.298	0.82
591.636	0.82
591.974	0.82
592.313	0.82
592.651	0.82
592.989	0.81
593.326	0.82
593.664	0.82
594.002	0.81
594.34	0.81
594.678	0.81
595.015	0.81
595.353	0.79
595.691	0.81
596.028	0.81
596.366	0.81
596.703	0.81
597.04	0.81
597.378	0.81
597.715	0.81
598.052	0.81
598.389	0.81
598.726	0.81
599.064	0.81
599.401	0.81
599.738	0.8
600.074	0.8
600.411	0.8
600.748	0.79
601.085	0.79
601.422	0.78
601.758	0.78
602.095	0.78
602.432	0.78
602.768	0.78
603.105	0.79
603.441	0.79
603.777	0.79
604.114	0.78
604.45	0.78
604.786	0.78
605.122	0.78
605.459	0.78
605.795	0.78
606.131	0.77
606.467	0.78
606.803	0.77
607.139	0.78
607.474	0.76
607.81	0.76
608.146	0.77
608.482	0.76
608.817	0.76
609.153	0.76
609.488	0.75
609.824	0.75
610.159	0.75
610.495	0.75
610.83	0.75
611.165	0.75
611.5	0.75
611.836	0.74
612.171	0.74
612.506	0.74
612.841	0.74
613.176	0.73
613.511	0.74
613.845	0.73
614.18	0.72
614.515	0.73
614.85	0.72
615.184	0.72
615.519	0.72
615.854	0.71
616.188	0.71
616.523	0.71
616.857	0.7
617.191	0.7
617.526	0.7
617.86	0.7
618.194	0.7
618.528	0.7
618.862	0.7
619.196	0.69
619.53	0.69
619.864	0.69
620.198	0.69
620.532	0.68
620.866	0.68
621.2	0.68
621.533	0.68
621.867	0.68
622.201	0.67
622.534	0.67
622.868	0.67
623.201	0.66
623.534	0.66
623.868	0.66
624.201	0.65
624.534	0.66
624.868	0.65
625.201	0.64
625.534	0.64
625.867	0.64
626.2	0.64
626.533	0.63
626.865	0.64
627.198	0.63
627.531	0.63
627.864	0.62
628.196	0.62
628.529	0.62
628.862	0.61
629.194	0.61
629.527	0.6
629.859	0.6
630.191	0.6
630.524	0.6
630.856	0.59
631.188	0.59
631.52	0.59
631.852	0.58
632.184	0.58
632.516	0.57
632.848	0.57
633.18	0.57
633.512	0.57
633.844	0.56
634.175	0.56
634.507	0.56
634.839	0.55
635.17	0.55
635.502	0.54
635.833	0.54
636.165	0.54
636.496	0.53
636.827	0.53
637.159	0.53
637.49	0.53
637.821	0.52
638.152	0.52
638.483	0.51
638.814	0.51
639.145	0.51
639.476	0.5
639.807	0.5
640.137	0.5
640.468	0.49
640.799	0.49
641.129	0.49
641.46	0.48
641.791	0.48
642.121	0.48
642.451	0.48
642.782	0.47
643.112	0.47
643.442	0.47
643.773	0.47
644.103	0.46
644.433	0.46
644.763	0.46
645.093	0.46
645.423	0.45
645.753	0.45
646.082	0.45
646.412	0.44
646.742	0.44
647.072	0.43
647.401	0.44
647.731	0.43
648.06	0.43
648.39	0.43
648.719	0.43
649.048	0.42
649.378	0.42
649.707	0.42
650.036	0.42
650.365	0.42
650.694	0.42
651.023	0.42
651.352	0.41
651.681	0.41
652.01	0.41
652.339	0.41
652.668	0.41
652.996	0.41
653.325	0.41
653.654	0.41
653.982	0.41
654.311	0.4
654.639	0.4
654.967	0.4
655.296	0.4
655.624	0.4
655.952	0.4
656.28	0.4
656.609	0.39
656.937	0.39
657.265	0.38
657.593	0.26
657.92	0.16
658.248	0.12
658.576	0.14
658.904	0.24
659.231	0.32
659.559	0.37
659.887	0.37
660.214	0.37
660.542	0.37
660.869	0.37
661.196	0.37
661.524	0.36
661.851	0.36
662.178	0.36
662.505	0.36
662.832	0.36
663.159	0.36
663.486	0.35
663.813	0.36
664.14	0.35
664.467	0.35
664.794	0.35
665.12	0.35
665.447	0.35
665.774	0.35
666.1	0.35
666.427	0.35
666.753	0.35
667.079	0.34
667.406	0.34
667.732	0.34
668.058	0.34
668.384	0.34
668.71	0.34
669.036	0.33
669.362	0.33
669.688	0.33
670.014	0.33
670.34	0.32
670.666	0.32
670.991	0.32
671.317	0.32
671.643	0.32
671.968	0.32
672.294	0.31
672.619	0.31
672.945	0.3
673.27	0.3
673.595	0.3
673.92	0.3
674.246	0.3
674.571	0.29
674.896	0.29
675.221	0.29
675.546	0.29
675.87	0.29
676.195	0.29
676.52	0.28
676.845	0.28
677.169	0.28
677.494	0.28
677.819	0.27
678.143	0.27
678.468	0.27
678.792	0.26
679.116	0.26
679.44	0.26
679.765	0.26
680.089	0.25
680.413	0.25
680.737	0.25
681.061	0.24
681.385	0.24
681.709	0.24
682.033	0.24
682.356	0.23
682.68	0.23
683.004	0.24
683.327	0.23
683.651	0.22
683.974	0.22
684.298	0.22
684.621	0.22
684.944	0.22
685.268	0.22
685.591	0.21
685.914	0.21
686.237	0.21
686.56	0.21
686.883	0.2
687.206	0.2
687.529	0.19
687.852	0.19
688.175	0.19
688.497	0.19
688.82	0.19
689.142	0.19
689.465	0.18
689.787	0.18
690.11	0.18
690.432	0.18
690.755	0.17
691.077	0.17
691.399	0.17
691.721	0.17
692.043	0.17
692.365	0.17
692.687	0.17
693.009	0.16
693.331	0.16
693.653	0.16
693.974	0.16
694.296	0.15
694.618	0.15
694.939	0.15
695.261	0.15
695.582	0.15
695.904	0.15
696.225	0.15
696.546	0.15
696.868	0.14
697.189	0.14
697.51	0.14
697.831	0.14
698.152	0.14
698.473	0.14
698.794	0.13
699.114	0.13
699.435	0.11
699.756	0.12
700.077	0.13
700.397	0.13
700.718	0.13
701.038	0.13
701.359	0.13
701.679	0.13
701.999	0.13
702.32	0.12
702.64	0.12
702.96	0.12
703.28	0.12
703.6	0.12
703.92	0.12
704.24	0.11
704.56	0.11
704.879	0.11
705.199	0.11
705.519	0.12
705.838	0.12
706.158	0.12
706.478	0.12
706.797	0.12
707.116	0.12
707.436	0.12
707.755	0.12
708.074	0.12
708.393	0.11
708.712	0.11
709.031	0.1
709.35	0.09
709.669	0.09
709.988	0.1
710.307	0.1
710.626	0.1
710.944	0.11
711.263	0.11
711.582	0.11
711.9	0.11
712.219	0.11
712.537	0.11
712.855	0.11
713.174	0.11
713.492	0.11
713.81	0.11
714.128	0.11
714.446	0.11
714.764	0.11
715.082	0.1
715.4	0.11
715.718	0.1
716.035	0.11
716.353	0.11
716.671	0.11
716.988	0.11
717.306	0.1
717.623	0.11
717.941	0.11
718.258	0.12
718.575	0.12
718.893	0.12
719.21	0.11
719.527	0.11
719.844	0.11
720.161	0.11
720.478	0.11
720.795	0.11
721.112	0.11
721.428	0.11
721.745	0.11
722.062	0.11
722.378	0.11
722.695	0.11
723.011	0.11
723.328	0.11
723.644	0.11
723.96	0.11
724.276	0.12
724.593	0.12
724.909	0.12
725.225	0.12
725.541	0.12
725.857	0.11
726.173	0.12
726.488	0.12
726.804	0.11
727.12	0.11
727.435	0.11
727.751	0.12
728.067	0.12
728.382	0.12
728.697	0.11
729.013	0.12
729.328	0.11
729.643	0.12
729.958	0.12
730.273	0.12
730.588	0.12
730.903	0.12
731.218	0.12
731.533	0.12
731.848	0.11
732.163	0.11
732.477	0.11
732.792	0.11
733.107	0.1
733.421	0.11
733.736	0.11
734.05	0.11
734.364	0.11
734.678	0.11
734.993	0.11
735.307	0.11
735.621	0.11
735.935	0.11
736.249	0.11
736.563	0.11
736.877	0.11
737.19	0.11
737.504	0.11
737.818	0.1
738.131	0.11
738.445	0.11
738.758	0.1
739.072	0.11
739.385	0.11
739.698	0.1
740.012	0.11
740.325	0.11
740.638	0.1
740.951	0.1
741.264	0.1
741.577	0.1
741.89	0.1
742.203	0.1
742.515	0.1
742.828	0.1
743.141	0.1
743.453	0.1
743.766	0.1
744.078	0.1
744.391	0.09
744.703	0.09
745.015	0.1
745.327	0.1
745.639	0.09
745.952	0.09
746.264	0.09
746.575	0.09
746.887	0.09
747.199	0.09
747.511	0.09
747.823	0.09
748.134	0.09
748.446	0.08
748.757	0.08
749.069	0.08
749.38	0.08
749.692	0.08
750.003	0.08
750.314	0.08
750.625	0.08
750.936	0.08
751.248	0.08
751.559	0.08
751.869	0.08
752.18	0.08
752.491	0.08
752.802	0.08
753.112	0.08
753.423	0.07
753.734	0.07
754.044	0.08
754.355	0.08
754.665	0.07
754.975	0.07
755.285	0.07
755.596	0.07
755.906	0.07
756.216	0.07
756.526	0.07
756.836	0.07
757.146	0.07
757.455	0.07
757.765	0.06
758.075	0.06
758.385	0.06
758.694	0.06
759.004	0.06
759.313	0.06
759.622	0.06
759.932	0.06
760.241	0.06
760.55	0.06
760.859	0.06
761.168	0.06
761.477	0.06
761.786	0.06
762.095	0.06
762.404	0.06
762.713	0.06
763.021	0.06
763.33	0.06
763.639	0.06
763.947	0.06
764.256	0.06
764.564	0.06
764.872	0.06
765.181	0.06
765.489	0.06
765.797	0.06
766.105	0.06
766.413	0.06
766.721	0.06
767.029	0.06
767.337	0.06
767.644	0.06
767.952	0.06
768.26	0.06
768.567	0.06
768.875	0.06
769.182	0.06
769.49	0.06
769.797	0.06
770.104	0.06
770.411	0.05
770.718	0.06
771.026	0.06
771.333	0.06
771.639	0.06
771.946	0.06
772.253	0.06
772.56	0.06
772.867	0.06
773.173	0.06
773.48	0.06
773.786	0.06
774.093	0.06
774.399	0.06
774.705	0.06
775.012	0.06
775.318	0.06
775.624	0.06
775.93	0.06
776.236	0.06
776.542	0.06
776.848	0.06
777.154	0.06
777.459	0.06
777.765	0.06
778.071	0.06
778.376	0.05
778.682	0.06
778.987	0.06
779.292	0.06
779.598	0.06
779.903	0.06
780.208	0.06
780.513	0.06
780.818	0.06
781.123	0.06
781.428	0.06
781.733	0.06
782.038	0.06
782.343	0.06
782.647	0.06
782.952	0.06
783.256	0.06
783.561	0.06
783.865	0.06
784.17	0.06
784.474	0.07
784.778	0.07
785.082	0.07
785.386	0.07
785.69	0.07
785.994	0.07
786.298	0.07
786.602	0.07
786.906	0.07
787.209	0.07
787.513	0.07
787.817	0.07
788.12	0.07
788.424	0.07
788.727	0.07
789.03	0.07
789.333	0.07
789.637	0.07
789.94	0.07
790.243	0.07
790.546	0.07
790.849	0.07
791.152	0.07
791.454	0.07
791.757	0.07
792.06	0.08
792.362	0.08
792.665	0.08
792.967	0.07
793.27	0.07
793.572	0.07
793.874	0.07
794.177	0.07
794.479	0.08
794.781	0.07
795.083	0.07
795.385	0.07
795.687	0.07
795.989	0.07
796.29	0.07
796.592	0.07
796.894	0.07
797.195	0.08
797.497	0.08
797.798	0.08
798.1	0.08
798.401	0.08
798.702	0.08
799.003	0.08
799.304	0.08
799.605	0.08
799.906	0.08
800.207	0.08
800.508	0.08
800.809	0.08
801.11	0.08
801.41	0.08
801.711	0.08
802.011	0.08
802.312	0.08
802.612	0.08
802.913	0.08
803.213	0.09
803.513	0.08
803.813	0.08
804.113	0.08
804.413	0.07
804.713	0.08
805.013	0.08
805.313	0.08
805.613	0.08
805.912	0.08
806.212	0.08
806.511	0.08
806.811	0.08
807.11	0.08
807.41	0.09
807.709	0.09
808.008	0.09
808.307	0.09
808.606	0.09
808.905	0.09
809.204	0.09
809.503	0.09
809.802	0.09
810.101	0.09
810.399	0.09
810.698	0.09
810.997	0.09
811.295	0.09
811.593	0.09
811.892	0.09
812.19	0.09
812.488	0.09
812.786	0.09
813.084	0.08
813.383	0.09
813.68	0.09
813.978	0.09
814.276	0.09
814.574	0.1
814.872	0.1
815.169	0.1
815.467	0.1
815.764	0.1
816.062	0.1
816.359	0.1
816.656	0.11
816.954	0.11
817.251	0.1
817.548	0.1
817.845	0.1
818.142	0.1
818.439	0.1
818.735	0.1
819.032	0.11
819.329	0.1
819.626	0.1
819.922	0.1
820.219	0.11
820.515	0.11
820.811	0.11
821.108	0.11
821.404	0.11
821.7	0.11
821.996	0.11
822.292	0.11
822.588	0.11
822.884	0.11
823.18	0.12
823.475	0.12
823.771	0.11
824.067	0.12
824.362	0.11
824.658	0.11
824.953	0.11
825.249	0.11
825.544	0.11
825.839	0.11
826.134	0.11
826.429	0.11
826.724	0.11
827.019	0.11
827.314	0.12
827.609	0.12
827.904	0.12
828.198	0.12
828.493	0.11
828.787	0.12
829.082	0.12
829.376	0.11
829.671	0.12
829.965	0.12
830.259	0.13
830.553	0.13
830.847	0.12
831.141	0.12
831.435	0.12
831.729	0.13
832.023	0.12
832.317	0.13
832.61	0.13
832.904	0.12
833.197	0.13
833.491	0.13
833.784	0.13
834.077	0.13
834.371	0.13
834.664	0.12
834.957	0.13
835.25	0.12
835.543	0.12
835.836	0.12
836.129	0.11
836.421	0.12
836.714	0.13
837.007	0.12
837.299	0.13
837.592	0.13
837.884	0.13
838.177	0.13
838.469	0.13
838.761	0.13
839.053	0.13
839.345	0.12
839.637	0.13
839.929	0.14
840.221	0.14
840.513	0.14
840.805	0.13
841.096	0.13
841.388	0.14
841.68	0.13
841.971	0.13
842.262	0.14
842.554	0.14
842.845	0.13
843.136	0.14
843.427	0.14
843.718	0.14
844.009	0.13
844.3	0.14
844.591	0.14
844.882	0.14
845.173	0.13
845.463	0.14
845.754	0.15
846.044	0.15
846.335	0.15
846.625	0.15
846.915	0.15
847.206	0.15
847.496	0.16
847.786	0.15
848.076	0.15
848.366	0.15
848.656	0.15
848.945	0.15
849.235	0.14
849.525	0.14
849.814	0.15
850.104	0.15
850.393	0.15
850.683	0.15
850.972	0.14
851.261	0.15
851.551	0.16
851.84	0.14
852.129	0.16
852.418	0.15
852.707	0.16
852.995	0.16
853.284	0.16
853.573	0.16
853.862	0.14
854.15	0.15
854.439	0.15
854.727	0.15
855.015	0.16
855.304	0.16
855.592	0.16
855.88	0.15
856.168	0.17
856.456	0.16
856.744	0.17
857.032	0.16
857.32	0.16
857.607	0.17
857.895	0.16
858.183	0.16
858.47	0.15
858.757	0.17
859.045	0.18
859.332	0.17
859.619	0.17
859.907	0.17
860.194	0.17
860.481	0.15
860.768	0.17
861.054	0.17
861.341	0.16
861.628	0.18
861.915	0.18
862.201	0.17
862.488	0.18
862.774	0.17
863.061	0.19
863.347	0.15
863.633	0.18
863.919	0.17
864.205	0.16
864.491	0.16
864.777	0.17
865.063	0.19
865.349	0.17
865.635	0.17
865.92	0.16
866.206	0.19
866.492	0.18
866.777	0.15
867.062	0.17
867.348	0.16
867.633	0.16
867.918	0.16
868.203	0.19
868.488	0.17
868.773	0.17
869.058	0.15
869.343	0.17
869.628	0.14
869.912	0.14
870.197	0.17
870.482	0.18
870.766	0.18
871.05	0.16
871.335	0.16
871.619	0.14
871.903	0.18
872.187	0.19
872.471	0.16
872.755	0.18
873.039	0.14
873.323	0.14
873.607	0.16
873.89	0.2
874.174	0.14
874.458	0.15
874.741	0.22
875.024	0.14
875.308	0.16
875.591	0.16
875.874	0.19
876.157	0.19
876.44	0.15
876.723	0.15
877.006	0.16
877.289	0.15
877.572	0.22
877.854	0.14
878.137	0.08
878.42	0.16
878.702	0.11
878.984	0.17
879.267	0.18
879.549	0.18
879.831	0.21
880.113	0.22
880.395	0.15
880.677	0.14
880.959	0.11
