Data from Rubpy_BV_1500_EDTA_Buffered_Absorbance_14-37-51-605.txt Node
Date: Wed Jul 01 14:37:51 BST 2026
User: fpm-admin
Spectrometer: OFX00224
Trigger mode: 0
Integration Time (sec): 7.000000E-2
Scans to average: 3
Nonlinearity correction enabled: false
Boxcar width: 0
Storing dark spectrum: false
XAxis mode: Wavelengths
Number of Pixels in Spectrum: 2136
>>>>>Begin Spectral Data<<<<<
154.91	-0
155.289	0.71
155.669	-0
156.048	-0
156.428	-0
156.807	-0.11
157.186	-0.35
157.566	-0.39
157.945	0.06
158.325	-0
158.704	-0
159.083	-0.23
159.462	0.07
159.842	0.23
160.221	-0.21
160.6	-0
160.979	-0.44
161.359	0.67
161.738	-0
162.117	0.05
162.496	-0.64
162.875	-0.32
163.254	0.29
163.633	0.1
164.012	-0.26
164.391	0.97
164.77	0.2
165.149	-0
165.528	-0.6
165.907	0.25
166.286	-0.43
166.665	1.4
167.044	-0.02
167.423	0.37
167.802	-0
168.181	0.06
168.559	0.49
168.938	-0.29
169.317	0.32
169.696	-0.04
170.074	-0.33
170.453	-0.06
170.832	0.75
171.21	0.16
171.589	-0.17
171.968	-0
172.346	0.49
172.725	-0
173.103	-0
173.482	-1.02
173.861	-0
174.239	-0
174.617	0.53
174.996	1.26
175.374	-0.01
175.753	-0.18
176.131	-0
176.51	0.32
176.888	0.95
177.266	-0
177.645	0.06
178.023	-0
178.401	-0.16
178.779	0.1
179.158	0.15
179.536	-0
179.914	0.92
180.292	-0
180.67	-1.26
181.048	0.39
181.427	0.34
181.805	-0
182.183	-0
182.561	-0
182.939	-0
183.317	-0.05
183.695	-0.3
184.073	-0
184.451	-0.28
184.829	-0
185.206	-0
185.584	-0
185.962	-0
186.34	-0
186.718	-1.08
187.096	-0
187.473	-0.25
187.851	-0
188.229	0.51
188.607	0.39
188.984	0.39
189.362	0.21
189.74	0.26
190.117	0.28
190.495	0.27
190.872	0.41
191.25	0.34
191.627	0.14
192.005	0.19
192.382	0.4
192.76	0.23
193.137	0.18
193.515	0.16
193.892	0.26
194.269	0.13
194.647	0.43
195.024	0.37
195.401	0.27
195.779	0.35
196.156	0.26
196.533	0.24
196.91	0.37
197.288	0.3
197.665	0.26
198.042	0.23
198.419	0.29
198.796	0.41
199.173	0.44
199.55	0.13
199.927	0.36
200.304	0.29
200.681	0.31
201.058	0.1
201.435	0.33
201.812	0.39
202.189	0.29
202.566	0.16
202.943	0.17
203.32	0.16
203.697	0.27
204.073	0.15
204.45	0.24
204.827	0.41
205.204	0.35
205.58	0.28
205.957	0.23
206.334	0.27
206.71	0.35
207.087	0.59
207.464	0.27
207.84	0.32
208.217	0.42
208.593	0.36
208.97	0.35
209.346	0.42
209.723	0.18
210.099	0.25
210.476	0.2
210.852	0.28
211.228	0.34
211.605	0.23
211.981	0.21
212.357	0.31
212.733	0.2
213.11	0.24
213.486	0.21
213.862	0.39
214.238	0.43
214.614	0.27
214.991	0.32
215.367	0.36
215.743	0.36
216.119	0.27
216.495	0.35
216.871	0.32
217.247	0.29
217.623	0.16
217.999	0.32
218.375	0.23
218.751	0.21
219.127	0.31
219.502	0.32
219.878	0.38
220.254	0.23
220.63	0.43
221.006	0.26
221.381	0.2
221.757	0.59
222.133	0.28
222.508	0.4
222.884	0.32
223.26	0.23
223.635	0.33
224.011	0.42
224.386	0.52
224.762	0.46
225.137	0.33
225.513	0.38
225.888	0.36
226.264	0.43
226.639	0.34
227.014	0.37
227.39	0.3
227.765	0.35
228.14	0.27
228.516	0.29
228.891	0.34
229.266	0.42
229.641	0.38
230.017	0.41
230.392	0.44
230.767	0.39
231.142	0.43
231.517	0.27
231.892	0.36
232.267	0.35
232.642	0.37
233.017	0.33
233.392	0.3
233.767	0.29
234.142	0.34
234.517	0.39
234.892	0.21
235.267	0.35
235.641	0.25
236.016	0.34
236.391	0.42
236.766	0.36
237.14	0.31
237.515	0.31
237.89	0.52
238.264	0.41
238.639	0.27
239.014	0.27
239.388	0.22
239.763	0.28
240.137	0.29
240.512	0.35
240.886	0.34
241.261	0.3
241.635	0.29
242.009	0.52
242.384	0.41
242.758	0.37
243.132	0.38
243.507	0.33
243.881	0.33
244.255	0.39
244.629	0.25
245.004	0.29
245.378	0.42
245.752	0.25
246.126	0.45
246.5	0.34
246.874	0.22
247.248	0.26
247.622	0.17
247.996	0.25
248.37	0.33
248.744	0.31
249.118	0.36
249.492	0.49
249.866	0.35
250.24	0.34
250.613	0.36
250.987	0.32
251.361	0.29
251.735	0.44
252.108	0.42
252.482	0.41
252.856	0.43
253.229	0.45
253.603	0.35
253.977	0.47
254.35	0.29
254.724	0.28
255.097	0.35
255.471	0.38
255.844	0.28
256.218	0.34
256.591	0.55
256.964	0.23
257.338	0.25
257.711	0.35
258.084	0.37
258.458	0.39
258.831	0.57
259.204	0.37
259.577	0.34
259.95	0.34
260.323	0.35
260.697	0.36
261.07	0.48
261.443	0.29
261.816	0.33
262.189	0.28
262.562	0.26
262.935	0.35
263.308	0.35
263.68	0.24
264.053	0.31
264.426	0.35
264.799	0.36
265.172	0.34
265.545	0.31
265.917	0.33
266.29	0.45
266.663	0.39
267.035	0.3
267.408	0.44
267.781	0.38
268.153	0.4
268.526	0.36
268.898	0.29
269.271	0.35
269.643	0.32
270.016	0.38
270.388	0.42
270.76	0.36
271.133	0.32
271.505	0.4
271.877	0.29
272.25	0.34
272.622	0.43
272.994	0.33
273.366	0.42
273.739	0.35
274.111	0.29
274.483	0.29
274.855	0.27
275.227	0.39
275.599	0.33
275.971	0.23
276.343	0.34
276.715	0.36
277.087	0.38
277.459	0.32
277.831	0.37
278.203	0.33
278.574	0.34
278.946	0.22
279.318	0.26
279.69	0.35
280.061	0.34
280.433	0.32
280.805	0.29
281.176	0.32
281.548	0.38
281.92	0.27
282.291	0.41
282.663	0.36
283.034	0.27
283.406	0.39
283.777	0.35
284.148	0.39
284.52	0.33
284.891	0.35
285.262	0.35
285.634	0.3
286.005	0.33
286.376	0.38
286.747	0.3
287.119	0.37
287.49	0.29
287.861	0.35
288.232	0.44
288.603	0.33
288.974	0.41
289.345	0.31
289.716	0.32
290.087	0.39
290.458	0.6
290.829	0.32
291.2	0.27
291.571	0.39
291.941	0.3
292.312	0.39
292.683	0.43
293.054	0.54
293.424	0.38
293.795	0.33
294.166	0.37
294.536	0.43
294.907	0.42
295.277	0.62
295.648	0.36
296.018	0.45
296.389	0.38
296.759	0.39
297.13	0.38
297.5	0.34
297.871	0.39
298.241	0.26
298.611	0.42
298.981	0.38
299.352	0.42
299.722	0.34
300.092	0.34
300.462	0.41
300.832	0.39
301.202	0.39
301.573	0.43
301.943	0.38
302.313	0.37
302.683	0.43
303.053	0.5
303.422	0.39
303.792	0.28
304.162	0.36
304.532	0.33
304.902	0.31
305.272	0.29
305.641	0.32
306.011	0.31
306.381	0.29
306.75	0.28
307.12	0.3
307.49	0.35
307.859	0.28
308.229	0.33
308.598	0.32
308.968	0.26
309.337	0.26
309.707	0.29
310.076	0.29
310.445	0.28
310.815	0.26
311.184	0.25
311.553	0.27
311.923	0.27
312.292	0.28
312.661	0.28
313.03	0.3
313.399	0.29
313.768	0.32
314.137	0.3
314.506	0.29
314.875	0.31
315.244	0.32
315.613	0.33
315.982	0.33
316.351	0.31
316.72	0.35
317.089	0.34
317.458	0.33
317.826	0.34
318.195	0.33
318.564	0.35
318.933	0.37
319.301	0.38
319.67	0.38
320.038	0.37
320.407	0.39
320.775	0.39
321.144	0.38
321.512	0.42
321.881	0.41
322.249	0.41
322.618	0.41
322.986	0.44
323.354	0.42
323.723	0.43
324.091	0.44
324.459	0.46
324.827	0.45
325.195	0.47
325.564	0.46
325.932	0.47
326.3	0.48
326.668	0.49
327.036	0.51
327.404	0.5
327.772	0.5
328.14	0.52
328.508	0.54
328.875	0.52
329.243	0.55
329.611	0.55
329.979	0.56
330.346	0.56
330.714	0.59
331.082	0.6
331.449	0.58
331.817	0.6
332.185	0.62
332.552	0.63
332.92	0.64
333.287	0.65
333.655	0.66
334.022	0.67
334.389	0.69
334.757	0.7
335.124	0.71
335.491	0.73
335.859	0.75
336.226	0.75
336.593	0.77
336.96	0.78
337.327	0.8
337.695	0.81
338.062	0.83
338.429	0.84
338.796	0.85
339.163	0.87
339.53	0.89
339.897	0.9
340.263	0.93
340.63	0.95
340.997	0.97
341.364	0.97
341.731	0.98
342.097	1.01
342.464	1.03
342.831	1.04
343.197	1.06
343.564	1.07
343.931	1.09
344.297	1.11
344.664	1.12
345.03	1.14
345.396	1.14
345.763	1.18
346.129	1.18
346.496	1.19
346.862	1.21
347.228	1.22
347.594	1.23
347.961	1.26
348.327	1.27
348.693	1.29
349.059	1.33
349.425	1.31
349.791	1.33
350.157	1.36
350.523	1.36
350.889	1.37
351.255	1.37
351.621	1.4
351.987	1.41
352.353	1.43
352.719	1.44
353.084	1.48
353.45	1.49
353.816	1.49
354.181	1.5
354.547	1.52
354.913	1.56
355.278	1.57
355.644	1.57
356.009	1.59
356.375	1.6
356.74	1.63
357.106	1.62
357.471	1.66
357.836	1.66
358.202	1.7
358.567	1.71
358.932	1.73
359.297	1.73
359.663	1.78
360.028	1.78
360.393	1.75
360.758	1.84
361.123	1.83
361.488	1.82
361.853	1.81
362.218	1.85
362.583	1.85
362.948	1.86
363.312	1.87
363.677	1.91
364.042	1.94
364.407	1.98
364.772	2.02
365.136	1.96
365.501	2.05
365.865	2
366.23	1.94
366.595	2
366.959	2.05
367.324	2.04
367.688	2.06
368.052	2.01
368.417	2.07
368.781	2
369.145	2.05
369.51	2.08
369.874	2.02
370.238	2.15
370.602	2.08
370.967	2.03
371.331	2.09
371.695	2.09
372.059	2.15
372.423	2.13
372.787	2.05
373.151	2.13
373.515	2.09
373.878	2.05
374.242	2.05
374.606	2.06
374.97	2.05
375.334	1.99
375.697	2.1
376.061	2.01
376.425	2.03
376.788	2
377.152	2.03
377.515	2.01
377.879	1.98
378.242	1.97
378.606	1.93
378.969	1.95
379.333	1.97
379.696	1.92
380.059	1.84
380.422	1.87
380.786	1.86
381.149	1.86
381.512	1.85
381.875	1.88
382.238	1.85
382.601	1.78
382.964	1.74
383.327	1.76
383.69	1.73
384.053	1.73
384.416	1.7
384.779	1.67
385.142	1.66
385.504	1.65
385.867	1.66
386.23	1.6
386.593	1.59
386.955	1.6
387.318	1.58
387.68	1.58
388.043	1.58
388.405	1.57
388.768	1.58
389.13	1.54
389.493	1.53
389.855	1.52
390.217	1.51
390.58	1.51
390.942	1.49
391.304	1.49
391.666	1.45
392.028	1.43
392.391	1.4
392.753	1.37
393.115	1.38
393.477	1.35
393.839	1.33
394.201	1.31
394.563	1.32
394.924	1.31
395.286	1.3
395.648	1.3
396.01	1.3
396.371	1.3
396.733	1.32
397.095	1.33
397.456	1.37
397.818	1.36
398.18	1.4
398.541	1.42
398.903	1.46
399.264	1.47
399.625	1.51
399.987	1.53
400.348	1.53
400.709	1.54
401.071	1.59
401.432	1.58
401.793	1.56
402.154	1.56
402.515	1.53
402.876	1.54
403.238	1.5
403.599	1.44
403.96	1.41
404.32	1.38
404.681	1.34
405.042	1.28
405.403	1.24
405.764	1.19
406.125	1.12
406.485	1.08
406.846	1.01
407.207	0.98
407.567	0.92
407.928	0.87
408.288	0.84
408.649	0.8
409.009	0.74
409.37	0.71
409.73	0.66
410.091	0.64
410.451	0.61
410.811	0.58
411.171	0.56
411.532	0.51
411.892	0.5
412.252	0.48
412.612	0.46
412.972	0.44
413.332	0.43
413.692	0.41
414.052	0.38
414.412	0.37
414.772	0.36
415.132	0.35
415.492	0.34
415.851	0.33
416.211	0.32
416.571	0.3
416.931	0.3
417.29	0.29
417.65	0.29
418.009	0.28
418.369	0.27
418.728	0.27
419.088	0.26
419.447	0.24
419.807	0.24
420.166	0.24
420.525	0.23
420.884	0.23
421.244	0.23
421.603	0.22
421.962	0.23
422.321	0.22
422.68	0.21
423.039	0.21
423.398	0.21
423.757	0.2
424.116	0.2
424.475	0.21
424.834	0.21
425.193	0.2
425.551	0.2
425.91	0.2
426.269	0.19
426.628	0.19
426.986	0.19
427.345	0.19
427.703	0.18
428.062	0.18
428.42	0.17
428.779	0.18
429.137	0.18
429.496	0.17
429.854	0.18
430.212	0.18
430.57	0.18
430.929	0.18
431.287	0.17
431.645	0.17
432.003	0.18
432.361	0.16
432.719	0.17
433.077	0.16
433.435	0.18
433.793	0.17
434.151	0.18
434.509	0.18
434.866	0.17
435.224	0.16
435.582	0.17
435.94	0.18
436.297	0.17
436.655	0.17
437.012	0.17
437.37	0.17
437.727	0.17
438.085	0.17
438.442	0.17
438.8	0.17
439.157	0.17
439.514	0.18
439.872	0.17
440.229	0.18
440.586	0.17
440.943	0.18
441.3	0.18
441.657	0.19
442.014	0.18
442.371	0.18
442.728	0.18
443.085	0.18
443.442	0.18
443.799	0.19
444.156	0.18
444.513	0.18
444.869	0.18
445.226	0.18
445.583	0.19
445.939	0.18
446.296	0.19
446.652	0.19
447.009	0.2
447.365	0.19
447.722	0.19
448.078	0.19
448.434	0.19
448.791	0.21
449.147	0.2
449.503	0.2
449.859	0.2
450.215	0.2
450.571	0.21
450.928	0.2
451.284	0.21
451.64	0.22
451.995	0.2
452.351	0.21
452.707	0.22
453.063	0.22
453.419	0.21
453.775	0.22
454.13	0.22
454.486	0.23
454.842	0.24
455.197	0.23
455.553	0.23
455.908	0.23
456.264	0.24
456.619	0.24
456.975	0.22
457.33	0.24
457.685	0.24
458.04	0.24
458.396	0.24
458.751	0.24
459.106	0.24
459.461	0.25
459.816	0.24
460.171	0.26
460.526	0.26
460.881	0.25
461.236	0.25
461.591	0.26
461.946	0.26
462.301	0.26
462.655	0.26
463.01	0.27
463.365	0.28
463.719	0.27
464.074	0.27
464.428	0.27
464.783	0.28
465.137	0.28
465.492	0.29
465.846	0.29
466.201	0.28
466.555	0.29
466.909	0.29
467.263	0.29
467.618	0.29
467.972	0.31
468.326	0.3
468.68	0.3
469.034	0.31
469.388	0.31
469.742	0.31
470.096	0.32
470.45	0.32
470.804	0.33
471.157	0.33
471.511	0.33
471.865	0.34
472.218	0.34
472.572	0.34
472.926	0.35
473.279	0.36
473.633	0.36
473.986	0.36
474.34	0.37
474.693	0.37
475.046	0.38
475.4	0.38
475.753	0.39
476.106	0.39
476.459	0.4
476.812	0.4
477.165	0.41
477.519	0.42
477.872	0.41
478.224	0.42
478.577	0.43
478.93	0.43
479.283	0.43
479.636	0.44
479.989	0.44
480.341	0.45
480.694	0.46
481.047	0.46
481.399	0.46
481.752	0.47
482.104	0.48
482.457	0.48
482.809	0.49
483.162	0.49
483.514	0.49
483.866	0.5
484.219	0.5
484.571	0.51
484.923	0.51
485.275	0.52
485.627	0.51
485.979	0.53
486.331	0.53
486.683	0.54
487.035	0.54
487.387	0.54
487.739	0.55
488.091	0.56
488.443	0.56
488.794	0.56
489.146	0.57
489.498	0.58
489.849	0.58
490.201	0.59
490.552	0.59
490.904	0.6
491.255	0.6
491.607	0.61
491.958	0.61
492.309	0.61
492.661	0.62
493.012	0.62
493.363	0.62
493.714	0.63
494.065	0.64
494.416	0.64
494.767	0.64
495.118	0.65
495.469	0.66
495.82	0.67
496.171	0.67
496.522	0.67
496.872	0.68
497.223	0.68
497.574	0.69
497.924	0.69
498.275	0.69
498.626	0.7
498.976	0.71
499.327	0.71
499.677	0.71
500.027	0.72
500.378	0.72
500.728	0.73
501.078	0.74
501.428	0.74
501.779	0.75
502.129	0.75
502.479	0.75
502.829	0.76
503.179	0.77
503.529	0.77
503.879	0.77
504.229	0.77
504.578	0.78
504.928	0.78
505.278	0.8
505.628	0.8
505.977	0.8
506.327	0.81
506.676	0.81
507.026	0.81
507.375	0.81
507.725	0.82
508.074	0.82
508.424	0.84
508.773	0.84
509.122	0.84
509.471	0.84
509.82	0.84
510.17	0.85
510.519	0.87
510.868	0.88
511.217	0.86
511.566	0.87
511.915	0.87
512.263	0.88
512.612	0.89
512.961	0.9
513.31	0.89
513.659	0.9
514.007	0.89
514.356	0.91
514.704	0.91
515.053	0.91
515.401	0.92
515.75	0.91
516.098	0.92
516.447	0.93
516.795	0.93
517.143	0.93
517.491	0.94
517.839	0.94
518.188	0.94
518.536	0.94
518.884	0.96
519.232	0.96
519.58	0.96
519.928	0.96
520.275	0.97
520.623	0.98
520.971	0.97
521.319	0.98
521.666	0.98
522.014	0.98
522.362	0.98
522.709	0.99
523.057	0.99
523.404	1
523.752	1
524.099	1.01
524.446	1
524.794	1.01
525.141	1.01
525.488	1.02
525.835	1.02
526.182	1.02
526.529	1.02
526.876	1.03
527.223	1.03
527.57	1.02
527.917	1.03
528.264	1.03
528.611	1.04
528.958	1.04
529.304	1.04
529.651	1.04
529.998	1.05
530.344	1.05
530.691	1.06
531.037	1.06
531.384	1.06
531.73	1.06
532.076	1.06
532.423	1.07
532.769	1.08
533.115	1.07
533.461	1.08
533.807	1.06
534.154	1.08
534.5	1.08
534.846	1.07
535.192	1.07
535.537	1.09
535.883	1.08
536.229	1.09
536.575	1.08
536.921	1.1
537.266	1.09
537.612	1.1
537.957	1.1
538.303	1.11
538.649	1.1
538.994	1.1
539.339	1.1
539.685	1.1
540.03	1.11
540.375	1.12
540.721	1.1
541.066	1.11
541.411	1.11
541.756	1.12
542.101	1.1
542.446	1.11
542.791	1.11
543.136	1.12
543.481	1.12
543.825	1.12
544.17	1.12
544.515	1.12
544.86	1.12
545.204	1.11
545.549	1.12
545.893	1.12
546.238	1.12
546.582	1.13
546.927	1.12
547.271	1.12
547.615	1.13
547.96	1.13
548.304	1.13
548.648	1.13
548.992	1.13
549.336	1.13
549.68	1.13
550.024	1.13
550.368	1.13
550.712	1.13
551.056	1.12
551.4	1.13
551.743	1.12
552.087	1.13
552.431	1.12
552.774	1.12
553.118	1.13
553.462	1.12
553.805	1.12
554.148	1.12
554.492	1.13
554.835	1.12
555.178	1.13
555.522	1.13
555.865	1.12
556.208	1.12
556.551	1.13
556.894	1.13
557.237	1.12
557.58	1.12
557.923	1.12
558.266	1.11
558.609	1.11
558.952	1.11
559.294	1.12
559.637	1.11
559.98	1.11
560.322	1.11
560.665	1.11
561.007	1.11
561.35	1.1
561.692	1.11
562.034	1.1
562.377	1.1
562.719	1.1
563.061	1.1
563.403	1.09
563.745	1.1
564.088	1.1
564.43	1.09
564.772	1.09
565.113	1.09
565.455	1.09
565.797	1.09
566.139	1.08
566.481	1.08
566.822	1.09
567.164	1.08
567.506	1.08
567.847	1.07
568.189	1.07
568.53	1.07
568.872	1.07
569.213	1.06
569.554	1.06
569.895	1.06
570.237	1.06
570.578	1.06
570.919	1.06
571.26	1.05
571.601	1.05
571.942	1.06
572.283	1.05
572.624	1.04
572.965	1.04
573.306	1.04
573.646	1.04
573.987	1.03
574.328	1.03
574.668	1.03
575.009	1.03
575.349	1.02
575.69	1.02
576.03	1.02
576.37	1.02
576.711	1.01
577.051	1.01
577.391	1.01
577.731	1.01
578.072	1
578.412	1
578.752	1.01
579.092	0.99
579.431	0.99
579.771	0.97
580.111	0.96
580.451	0.97
580.791	0.98
581.13	0.99
581.47	0.98
581.81	0.98
582.149	0.98
582.489	0.98
582.828	0.97
583.167	0.94
583.507	0.9
583.846	0.89
584.185	0.91
584.525	0.93
584.864	0.96
585.203	0.96
585.542	0.97
585.881	0.96
586.22	0.96
586.559	0.95
586.898	0.94
587.236	0.93
587.575	0.94
587.914	0.94
588.252	0.95
588.591	0.95
588.93	0.94
589.268	0.94
589.607	0.94
589.945	0.94
590.283	0.94
590.622	0.94
590.96	0.95
591.298	0.95
591.636	0.95
591.974	0.95
592.313	0.95
592.651	0.95
592.989	0.95
593.326	0.94
593.664	0.94
594.002	0.95
594.34	0.93
594.678	0.94
595.015	0.93
595.353	0.92
595.691	0.93
596.028	0.94
596.366	0.93
596.703	0.93
597.04	0.93
597.378	0.93
597.715	0.93
598.052	0.94
598.389	0.93
598.726	0.93
599.064	0.93
599.401	0.93
599.738	0.93
600.074	0.92
600.411	0.92
600.748	0.91
601.085	0.91
601.422	0.9
601.758	0.91
602.095	0.91
602.432	0.9
602.768	0.9
603.105	0.91
603.441	0.91
603.777	0.91
604.114	0.91
604.45	0.91
604.786	0.9
605.122	0.9
605.459	0.9
605.795	0.9
606.131	0.89
606.467	0.89
606.803	0.89
607.139	0.89
607.474	0.88
607.81	0.88
608.146	0.88
608.482	0.88
608.817	0.88
609.153	0.87
609.488	0.87
609.824	0.86
610.159	0.86
610.495	0.86
610.83	0.86
611.165	0.86
611.5	0.85
611.836	0.85
612.171	0.85
612.506	0.85
612.841	0.85
613.176	0.84
613.511	0.84
613.845	0.84
614.18	0.84
614.515	0.83
614.85	0.83
615.184	0.83
615.519	0.82
615.854	0.82
616.188	0.81
616.523	0.82
616.857	0.81
617.191	0.81
617.526	0.81
617.86	0.8
618.194	0.8
618.528	0.8
618.862	0.8
619.196	0.8
619.53	0.79
619.864	0.79
620.198	0.79
620.532	0.78
620.866	0.78
621.2	0.78
621.533	0.77
621.867	0.78
622.201	0.77
622.534	0.77
622.868	0.76
623.201	0.76
623.534	0.75
623.868	0.76
624.201	0.75
624.534	0.75
624.868	0.74
625.201	0.74
625.534	0.73
625.867	0.73
626.2	0.73
626.533	0.73
626.865	0.73
627.198	0.72
627.531	0.72
627.864	0.71
628.196	0.71
628.529	0.71
628.862	0.7
629.194	0.7
629.527	0.69
629.859	0.69
630.191	0.69
630.524	0.68
630.856	0.68
631.188	0.68
631.52	0.67
631.852	0.67
632.184	0.67
632.516	0.66
632.848	0.66
633.18	0.66
633.512	0.65
633.844	0.65
634.175	0.64
634.507	0.64
634.839	0.64
635.17	0.63
635.502	0.62
635.833	0.62
636.165	0.62
636.496	0.62
636.827	0.61
637.159	0.6
637.49	0.6
637.821	0.6
638.152	0.59
638.483	0.59
638.814	0.58
639.145	0.58
639.476	0.57
639.807	0.57
640.137	0.57
640.468	0.57
640.799	0.56
641.129	0.56
641.46	0.55
641.791	0.55
642.121	0.55
642.451	0.55
642.782	0.54
643.112	0.54
643.442	0.54
643.773	0.53
644.103	0.53
644.433	0.52
644.763	0.52
645.093	0.52
645.423	0.52
645.753	0.52
646.082	0.51
646.412	0.51
646.742	0.51
647.072	0.5
647.401	0.5
647.731	0.5
648.06	0.49
648.39	0.49
648.719	0.49
649.048	0.49
649.378	0.49
649.707	0.48
650.036	0.48
650.365	0.48
650.694	0.47
651.023	0.48
651.352	0.47
651.681	0.47
652.01	0.47
652.339	0.47
652.668	0.47
652.996	0.47
653.325	0.47
653.654	0.47
653.982	0.46
654.311	0.47
654.639	0.46
654.967	0.46
655.296	0.45
655.624	0.46
655.952	0.45
656.28	0.45
656.609	0.45
656.937	0.45
657.265	0.44
657.593	0.32
657.92	0.21
658.248	0.17
658.576	0.2
658.904	0.3
659.231	0.38
659.559	0.43
659.887	0.43
660.214	0.43
660.542	0.43
660.869	0.42
661.196	0.42
661.524	0.42
661.851	0.42
662.178	0.41
662.505	0.41
662.832	0.41
663.159	0.41
663.486	0.41
663.813	0.41
664.14	0.41
664.467	0.41
664.794	0.4
665.12	0.4
665.447	0.4
665.774	0.4
666.1	0.4
666.427	0.39
666.753	0.39
667.079	0.39
667.406	0.39
667.732	0.39
668.058	0.39
668.384	0.38
668.71	0.38
669.036	0.38
669.362	0.38
669.688	0.37
670.014	0.37
670.34	0.37
670.666	0.37
670.991	0.36
671.317	0.36
671.643	0.36
671.968	0.36
672.294	0.36
672.619	0.35
672.945	0.35
673.27	0.35
673.595	0.34
673.92	0.34
674.246	0.34
674.571	0.34
674.896	0.34
675.221	0.33
675.546	0.33
675.87	0.33
676.195	0.33
676.52	0.32
676.845	0.32
677.169	0.32
677.494	0.31
677.819	0.31
678.143	0.31
678.468	0.31
678.792	0.3
679.116	0.3
679.44	0.3
679.765	0.29
680.089	0.29
680.413	0.29
680.737	0.29
681.061	0.28
681.385	0.28
681.709	0.28
682.033	0.27
682.356	0.27
682.68	0.27
683.004	0.27
683.327	0.26
683.651	0.26
683.974	0.26
684.298	0.25
684.621	0.25
684.944	0.25
685.268	0.25
685.591	0.25
685.914	0.24
686.237	0.24
686.56	0.23
686.883	0.23
687.206	0.23
687.529	0.22
687.852	0.22
688.175	0.22
688.497	0.22
688.82	0.22
689.142	0.21
689.465	0.21
689.787	0.21
690.11	0.21
690.432	0.2
690.755	0.2
691.077	0.2
691.399	0.2
691.721	0.2
692.043	0.2
692.365	0.19
692.687	0.19
693.009	0.19
693.331	0.18
693.653	0.18
693.974	0.18
694.296	0.18
694.618	0.18
694.939	0.18
695.261	0.17
695.582	0.17
695.904	0.17
696.225	0.17
696.546	0.17
696.868	0.17
697.189	0.16
697.51	0.16
697.831	0.16
698.152	0.16
698.473	0.16
698.794	0.15
699.114	0.15
699.435	0.14
699.756	0.14
700.077	0.15
700.397	0.15
700.718	0.15
701.038	0.15
701.359	0.15
701.679	0.15
701.999	0.15
702.32	0.14
702.64	0.14
702.96	0.14
703.28	0.14
703.6	0.14
703.92	0.14
704.24	0.13
704.56	0.13
704.879	0.13
705.199	0.13
705.519	0.13
705.838	0.13
706.158	0.14
706.478	0.13
706.797	0.14
707.116	0.14
707.436	0.14
707.755	0.14
708.074	0.13
708.393	0.13
708.712	0.12
709.031	0.11
709.35	0.11
709.669	0.11
709.988	0.11
710.307	0.11
710.626	0.12
710.944	0.12
711.263	0.12
711.582	0.12
711.9	0.13
712.219	0.12
712.537	0.12
712.855	0.12
713.174	0.12
713.492	0.12
713.81	0.13
714.128	0.12
714.446	0.13
714.764	0.12
715.082	0.11
715.4	0.12
715.718	0.12
716.035	0.12
716.353	0.12
716.671	0.12
716.988	0.12
717.306	0.12
717.623	0.12
717.941	0.13
718.258	0.13
718.575	0.13
718.893	0.13
719.21	0.13
719.527	0.13
719.844	0.13
720.161	0.13
720.478	0.13
720.795	0.13
721.112	0.13
721.428	0.13
721.745	0.13
722.062	0.13
722.378	0.13
722.695	0.13
723.011	0.13
723.328	0.13
723.644	0.13
723.96	0.13
724.276	0.13
724.593	0.13
724.909	0.13
725.225	0.13
725.541	0.13
725.857	0.13
726.173	0.13
726.488	0.13
726.804	0.13
727.12	0.13
727.435	0.13
727.751	0.13
728.067	0.13
728.382	0.13
728.697	0.13
729.013	0.13
729.328	0.13
729.643	0.13
729.958	0.13
730.273	0.13
730.588	0.13
730.903	0.13
731.218	0.13
731.533	0.13
731.848	0.13
732.163	0.13
732.477	0.13
732.792	0.13
733.107	0.12
733.421	0.13
733.736	0.13
734.05	0.13
734.364	0.13
734.678	0.13
734.993	0.12
735.307	0.13
735.621	0.12
735.935	0.13
736.249	0.13
736.563	0.12
736.877	0.12
737.19	0.12
737.504	0.12
737.818	0.12
738.131	0.12
738.445	0.12
738.758	0.12
739.072	0.12
739.385	0.12
739.698	0.12
740.012	0.12
740.325	0.12
740.638	0.12
740.951	0.12
741.264	0.11
741.577	0.11
741.89	0.12
742.203	0.12
742.515	0.12
742.828	0.12
743.141	0.11
743.453	0.11
743.766	0.11
744.078	0.11
744.391	0.11
744.703	0.11
745.015	0.11
745.327	0.11
745.639	0.11
745.952	0.11
746.264	0.1
746.575	0.1
746.887	0.1
747.199	0.1
747.511	0.1
747.823	0.1
748.134	0.1
748.446	0.1
748.757	0.1
749.069	0.09
749.38	0.09
749.692	0.09
750.003	0.09
750.314	0.09
750.625	0.1
750.936	0.09
751.248	0.09
751.559	0.09
751.869	0.09
752.18	0.09
752.491	0.09
752.802	0.09
753.112	0.09
753.423	0.09
753.734	0.09
754.044	0.09
754.355	0.09
754.665	0.08
754.975	0.08
755.285	0.08
755.596	0.08
755.906	0.08
756.216	0.08
756.526	0.08
756.836	0.08
757.146	0.08
757.455	0.08
757.765	0.07
758.075	0.07
758.385	0.07
758.694	0.07
759.004	0.07
759.313	0.07
759.622	0.07
759.932	0.07
760.241	0.08
760.55	0.07
760.859	0.07
761.168	0.07
761.477	0.07
761.786	0.07
762.095	0.07
762.404	0.07
762.713	0.07
763.021	0.07
763.33	0.07
763.639	0.07
763.947	0.07
764.256	0.07
764.564	0.07
764.872	0.07
765.181	0.07
765.489	0.07
765.797	0.07
766.105	0.06
766.413	0.06
766.721	0.06
767.029	0.07
767.337	0.07
767.644	0.07
767.952	0.07
768.26	0.07
768.567	0.07
768.875	0.06
769.182	0.07
769.49	0.07
769.797	0.07
770.104	0.07
770.411	0.06
770.718	0.06
771.026	0.06
771.333	0.07
771.639	0.07
771.946	0.07
772.253	0.07
772.56	0.07
772.867	0.07
773.173	0.07
773.48	0.07
773.786	0.07
774.093	0.07
774.399	0.07
774.705	0.07
775.012	0.07
775.318	0.07
775.624	0.07
775.93	0.07
776.236	0.07
776.542	0.07
776.848	0.07
777.154	0.07
777.459	0.07
777.765	0.07
778.071	0.07
778.376	0.07
778.682	0.07
778.987	0.07
779.292	0.07
779.598	0.07
779.903	0.07
780.208	0.07
780.513	0.07
780.818	0.07
781.123	0.07
781.428	0.07
781.733	0.07
782.038	0.07
782.343	0.07
782.647	0.07
782.952	0.07
783.256	0.07
783.561	0.07
783.865	0.07
784.17	0.08
784.474	0.08
784.778	0.08
785.082	0.08
785.386	0.08
785.69	0.08
785.994	0.08
786.298	0.08
786.602	0.08
786.906	0.08
787.209	0.08
787.513	0.08
787.817	0.08
788.12	0.08
788.424	0.08
788.727	0.08
789.03	0.08
789.333	0.08
789.637	0.08
789.94	0.08
790.243	0.08
790.546	0.09
790.849	0.08
791.152	0.09
791.454	0.09
791.757	0.09
792.06	0.09
792.362	0.09
792.665	0.09
792.967	0.09
793.27	0.08
793.572	0.09
793.874	0.09
794.177	0.09
794.479	0.09
794.781	0.08
795.083	0.08
795.385	0.08
795.687	0.09
795.989	0.09
796.29	0.09
796.592	0.09
796.894	0.09
797.195	0.09
797.497	0.09
797.798	0.1
798.1	0.1
798.401	0.09
798.702	0.09
799.003	0.09
799.304	0.09
799.605	0.09
799.906	0.09
800.207	0.09
800.508	0.1
800.809	0.09
801.11	0.09
801.41	0.09
801.711	0.09
802.011	0.1
802.312	0.09
802.612	0.1
802.913	0.1
803.213	0.1
803.513	0.1
803.813	0.09
804.113	0.09
804.413	0.09
804.713	0.1
805.013	0.09
805.313	0.09
805.613	0.1
805.912	0.1
806.212	0.1
806.511	0.1
806.811	0.1
807.11	0.1
807.41	0.1
807.709	0.1
808.008	0.11
808.307	0.11
808.606	0.11
808.905	0.11
809.204	0.11
809.503	0.11
809.802	0.11
810.101	0.11
810.399	0.11
810.698	0.11
810.997	0.11
811.295	0.11
811.593	0.11
811.892	0.11
812.19	0.1
812.488	0.1
812.786	0.1
813.084	0.1
813.383	0.1
813.68	0.1
813.978	0.1
814.276	0.11
814.574	0.11
814.872	0.12
815.169	0.11
815.467	0.11
815.764	0.11
816.062	0.12
816.359	0.12
816.656	0.12
816.954	0.12
817.251	0.12
817.548	0.13
817.845	0.12
818.142	0.12
818.439	0.12
818.735	0.12
819.032	0.12
819.329	0.12
819.626	0.12
819.922	0.12
820.219	0.13
820.515	0.13
820.811	0.13
821.108	0.13
821.404	0.13
821.7	0.13
821.996	0.14
822.292	0.13
822.588	0.13
822.884	0.13
823.18	0.14
823.475	0.13
823.771	0.13
824.067	0.13
824.362	0.13
824.658	0.13
824.953	0.13
825.249	0.12
825.544	0.13
825.839	0.13
826.134	0.13
826.429	0.13
826.724	0.13
827.019	0.13
827.314	0.13
827.609	0.13
827.904	0.14
828.198	0.14
828.493	0.14
828.787	0.14
829.082	0.14
829.376	0.14
829.671	0.14
829.965	0.14
830.259	0.14
830.553	0.14
830.847	0.15
831.141	0.15
831.435	0.15
831.729	0.15
832.023	0.15
832.317	0.16
832.61	0.15
832.904	0.15
833.197	0.15
833.491	0.15
833.784	0.16
834.077	0.15
834.371	0.15
834.664	0.15
834.957	0.15
835.25	0.15
835.543	0.14
835.836	0.15
836.129	0.14
836.421	0.15
836.714	0.16
837.007	0.15
837.299	0.16
837.592	0.15
837.884	0.15
838.177	0.16
838.469	0.16
838.761	0.16
839.053	0.15
839.345	0.16
839.637	0.16
839.929	0.16
840.221	0.16
840.513	0.16
840.805	0.16
841.096	0.16
841.388	0.15
841.68	0.16
841.971	0.15
842.262	0.16
842.554	0.17
842.845	0.16
843.136	0.17
843.427	0.17
843.718	0.17
844.009	0.16
844.3	0.17
844.591	0.17
844.882	0.17
845.173	0.17
845.463	0.17
845.754	0.17
846.044	0.18
846.335	0.18
846.625	0.18
846.915	0.18
847.206	0.18
847.496	0.18
847.786	0.18
848.076	0.18
848.366	0.18
848.656	0.17
848.945	0.18
849.235	0.18
849.525	0.17
849.814	0.18
850.104	0.18
850.393	0.18
850.683	0.18
850.972	0.17
851.261	0.18
851.551	0.19
851.84	0.19
852.129	0.18
852.418	0.18
852.707	0.18
852.995	0.17
853.284	0.2
853.573	0.19
853.862	0.18
854.15	0.18
854.439	0.18
854.727	0.19
855.015	0.19
855.304	0.19
855.592	0.2
855.88	0.19
856.168	0.19
856.456	0.19
856.744	0.19
857.032	0.19
857.32	0.19
857.607	0.2
857.895	0.21
858.183	0.18
858.47	0.18
858.757	0.19
859.045	0.2
859.332	0.22
859.619	0.2
859.907	0.21
860.194	0.21
860.481	0.2
860.768	0.21
861.054	0.23
861.341	0.19
861.628	0.21
861.915	0.21
862.201	0.23
862.488	0.2
862.774	0.21
863.061	0.2
863.347	0.2
863.633	0.2
863.919	0.21
864.205	0.19
864.491	0.19
864.777	0.19
865.063	0.21
865.349	0.21
865.635	0.22
865.92	0.21
866.206	0.22
866.492	0.22
866.777	0.2
867.062	0.2
867.348	0.19
867.633	0.21
867.918	0.19
868.203	0.2
868.488	0.2
868.773	0.19
869.058	0.21
869.343	0.19
869.628	0.21
869.912	0.2
870.197	0.2
870.482	0.21
870.766	0.21
871.05	0.22
871.335	0.17
871.619	0.2
871.903	0.21
872.187	0.18
872.471	0.24
872.755	0.18
873.039	0.2
873.323	0.23
873.607	0.19
873.89	0.25
874.174	0.23
874.458	0.18
874.741	0.26
875.024	0.21
875.308	0.22
875.591	0.21
875.874	0.21
876.157	0.27
876.44	0.29
876.723	0.25
877.006	0.16
877.289	0.17
877.572	0.27
877.854	0.16
878.137	0.24
878.42	0.18
878.702	0.21
878.984	0.19
879.267	0.2
879.549	0.16
879.831	0.24
880.113	0.22
880.395	0.15
880.677	0.22
880.959	0.2
