Data from Rubpy_BV_1500_EDTA_Buffered_Absorbance_14-29-27-646.txt Node
Date: Wed Jul 01 14:29:27 BST 2026
User: fpm-admin
Spectrometer: OFX00224
Trigger mode: 0
Integration Time (sec): 7.000000E-2
Scans to average: 3
Nonlinearity correction enabled: false
Boxcar width: 0
Storing dark spectrum: false
XAxis mode: Wavelengths
Number of Pixels in Spectrum: 2136
>>>>>Begin Spectral Data<<<<<
154.91	0.18
155.289	0.33
155.669	-1.04
156.048	0.03
156.428	-0
156.807	0.68
157.186	-0.65
157.566	0.02
157.945	-0
158.325	0.34
158.704	-0
159.083	0.16
159.462	1.51
159.842	-0.14
160.221	0.74
160.6	-0
160.979	-0.62
161.359	0.85
161.738	0.1
162.117	-0.25
162.496	-0.64
162.875	0.38
163.254	0.18
163.633	0.48
164.012	-0.53
164.391	0.11
164.77	0.18
165.149	0.18
165.528	-0.78
165.907	-0.07
166.286	-0.64
166.665	-0
167.044	0.15
167.423	-0
167.802	-0
168.181	-0.16
168.559	0.01
168.938	-0.14
169.317	0.92
169.696	0.12
170.074	-0.27
170.453	-0.09
170.832	0.12
171.21	0.41
171.589	-0.42
171.968	-0
172.346	0.65
172.725	-0
173.103	0.05
173.482	-0.7
173.861	-0
174.239	-1
174.617	0.29
174.996	0.51
175.374	-0.23
175.753	-0.44
176.131	-0
176.51	-0.25
176.888	0.44
177.266	-0
177.645	-0.1
178.023	-0
178.401	-0.05
178.779	0.06
179.158	0.05
179.536	-0.33
179.914	-0.27
180.292	-0.02
180.67	-0
181.048	0.43
181.427	0.14
181.805	0.48
182.183	-0.22
182.561	0.68
182.939	-0
183.317	-0.14
183.695	-0.1
184.073	-0
184.451	-0.3
184.829	-0
185.206	-0.68
185.584	-0.17
185.962	-0
186.34	0.64
186.718	-0
187.096	-0
187.473	-0
187.851	-0
188.229	0.13
188.607	0.23
188.984	0.28
189.362	0.42
189.74	0.33
190.117	0.33
190.495	0.18
190.872	0.47
191.25	0.35
191.627	0.15
192.005	0.26
192.382	0.26
192.76	0.29
193.137	0.3
193.515	0.27
193.892	0.33
194.269	0.16
194.647	0.32
195.024	0.33
195.401	0.19
195.779	0.42
196.156	0.26
196.533	0.31
196.91	0.26
197.288	0.3
197.665	0.25
198.042	0.37
198.419	0.3
198.796	0.37
199.173	0.32
199.55	0.19
199.927	0.26
200.304	0.37
200.681	0.22
201.058	0.35
201.435	0.35
201.812	0.4
202.189	0.3
202.566	0.25
202.943	0.42
203.32	0.22
203.697	0.28
204.073	0.19
204.45	0.21
204.827	0.52
205.204	0.25
205.58	0.28
205.957	0.31
206.334	0.3
206.71	0.23
207.087	0.46
207.464	0.28
207.84	0.21
208.217	0.21
208.593	0.41
208.97	0.21
209.346	0.51
209.723	0.25
210.099	0.28
210.476	0.34
210.852	0.65
211.228	0.25
211.605	0.34
211.981	0.32
212.357	0.47
212.733	0.2
213.11	0.33
213.486	0.24
213.862	0.3
214.238	0.31
214.614	0.24
214.991	0.29
215.367	0.27
215.743	0.27
216.119	0.31
216.495	0.38
216.871	0.36
217.247	0.25
217.623	0.2
217.999	0.31
218.375	0.25
218.751	0.34
219.127	0.32
219.502	0.24
219.878	0.48
220.254	0.38
220.63	0.4
221.006	0.21
221.381	0.33
221.757	0.54
222.133	0.21
222.508	0.35
222.884	0.43
223.26	0.21
223.635	0.34
224.011	0.5
224.386	0.42
224.762	0.5
225.137	0.39
225.513	0.52
225.888	0.46
226.264	0.57
226.639	0.37
227.014	0.38
227.39	0.35
227.765	0.32
228.14	0.38
228.516	0.32
228.891	0.27
229.266	0.33
229.641	0.45
230.017	0.35
230.392	0.32
230.767	0.33
231.142	0.32
231.517	0.27
231.892	0.43
232.267	0.45
232.642	0.44
233.017	0.28
233.392	0.31
233.767	0.33
234.142	0.38
234.517	0.39
234.892	0.27
235.267	0.42
235.641	0.34
236.016	0.26
236.391	0.48
236.766	0.38
237.14	0.26
237.515	0.31
237.89	0.47
238.264	0.35
238.639	0.28
239.014	0.29
239.388	0.23
239.763	0.26
240.137	0.25
240.512	0.22
240.886	0.4
241.261	0.23
241.635	0.29
242.009	0.34
242.384	0.41
242.758	0.36
243.132	0.25
243.507	0.26
243.881	0.29
244.255	0.21
244.629	0.26
245.004	0.24
245.378	0.41
245.752	0.29
246.126	0.38
246.5	0.36
246.874	0.32
247.248	0.39
247.622	0.17
247.996	0.29
248.37	0.17
248.744	0.39
249.118	0.38
249.492	0.24
249.866	0.37
250.24	0.34
250.613	0.34
250.987	0.4
251.361	0.4
251.735	0.41
252.108	0.38
252.482	0.21
252.856	0.36
253.229	0.44
253.603	0.26
253.977	0.26
254.35	0.27
254.724	0.25
255.097	0.19
255.471	0.35
255.844	0.22
256.218	0.36
256.591	0.39
256.964	0.28
257.338	0.24
257.711	0.29
258.084	0.31
258.458	0.34
258.831	0.43
259.204	0.32
259.577	0.34
259.95	0.25
260.323	0.33
260.697	0.33
261.07	0.31
261.443	0.37
261.816	0.31
262.189	0.26
262.562	0.34
262.935	0.21
263.308	0.26
263.68	0.32
264.053	0.33
264.426	0.3
264.799	0.38
265.172	0.33
265.545	0.35
265.917	0.38
266.29	0.36
266.663	0.32
267.035	0.25
267.408	0.32
267.781	0.36
268.153	0.39
268.526	0.32
268.898	0.37
269.271	0.33
269.643	0.35
270.016	0.26
270.388	0.42
270.76	0.39
271.133	0.34
271.505	0.37
271.877	0.38
272.25	0.44
272.622	0.48
272.994	0.3
273.366	0.38
273.739	0.33
274.111	0.25
274.483	0.32
274.855	0.39
275.227	0.42
275.599	0.28
275.971	0.38
276.343	0.24
276.715	0.38
277.087	0.31
277.459	0.32
277.831	0.41
278.203	0.37
278.574	0.39
278.946	0.23
279.318	0.41
279.69	0.28
280.061	0.38
280.433	0.33
280.805	0.35
281.176	0.43
281.548	0.41
281.92	0.45
282.291	0.32
282.663	0.36
283.034	0.49
283.406	0.41
283.777	0.44
284.148	0.37
284.52	0.43
284.891	0.41
285.262	0.34
285.634	0.27
286.005	0.34
286.376	0.4
286.747	0.45
287.119	0.37
287.49	0.32
287.861	0.31
288.232	0.41
288.603	0.31
288.974	0.45
289.345	0.33
289.716	0.28
290.087	0.45
290.458	0.33
290.829	0.27
291.2	0.28
291.571	0.35
291.941	0.41
292.312	0.37
292.683	0.34
293.054	0.42
293.424	0.29
293.795	0.25
294.166	0.4
294.536	0.29
294.907	0.31
295.277	0.33
295.648	0.39
296.018	0.35
296.389	0.3
296.759	0.34
297.13	0.3
297.5	0.43
297.871	0.4
298.241	0.35
298.611	0.41
298.981	0.36
299.352	0.28
299.722	0.43
300.092	0.28
300.462	0.29
300.832	0.33
301.202	0.42
301.573	0.33
301.943	0.26
302.313	0.31
302.683	0.31
303.053	0.38
303.422	0.38
303.792	0.35
304.162	0.29
304.532	0.29
304.902	0.26
305.272	0.32
305.641	0.35
306.011	0.27
306.381	0.33
306.75	0.31
307.12	0.29
307.49	0.27
307.859	0.27
308.229	0.28
308.598	0.29
308.968	0.26
309.337	0.24
309.707	0.25
310.076	0.24
310.445	0.24
310.815	0.26
311.184	0.28
311.553	0.25
311.923	0.24
312.292	0.25
312.661	0.27
313.03	0.27
313.399	0.28
313.768	0.28
314.137	0.29
314.506	0.27
314.875	0.27
315.244	0.26
315.613	0.29
315.982	0.3
316.351	0.28
316.72	0.3
317.089	0.3
317.458	0.31
317.826	0.31
318.195	0.31
318.564	0.32
318.933	0.34
319.301	0.33
319.67	0.34
320.038	0.33
320.407	0.33
320.775	0.35
321.144	0.35
321.512	0.35
321.881	0.36
322.249	0.36
322.618	0.37
322.986	0.4
323.354	0.38
323.723	0.38
324.091	0.39
324.459	0.39
324.827	0.39
325.195	0.42
325.564	0.41
325.932	0.39
326.3	0.42
326.668	0.43
327.036	0.43
327.404	0.44
327.772	0.45
328.14	0.45
328.508	0.47
328.875	0.46
329.243	0.48
329.611	0.49
329.979	0.5
330.346	0.5
330.714	0.51
331.082	0.52
331.449	0.51
331.817	0.54
332.185	0.53
332.552	0.55
332.92	0.56
333.287	0.57
333.655	0.58
334.022	0.59
334.389	0.6
334.757	0.61
335.124	0.61
335.491	0.65
335.859	0.65
336.226	0.66
336.593	0.67
336.96	0.69
337.327	0.7
337.695	0.71
338.062	0.72
338.429	0.73
338.796	0.75
339.163	0.76
339.53	0.77
339.897	0.78
340.263	0.8
340.63	0.81
340.997	0.83
341.364	0.84
341.731	0.86
342.097	0.86
342.464	0.89
342.831	0.89
343.197	0.91
343.564	0.94
343.931	0.93
344.297	0.96
344.664	0.97
345.03	0.99
345.396	1
345.763	1.02
346.129	1.02
346.496	1.06
346.862	1.06
347.228	1.07
347.594	1.08
347.961	1.09
348.327	1.11
348.693	1.13
349.059	1.15
349.425	1.15
349.791	1.17
350.157	1.19
350.523	1.19
350.889	1.2
351.255	1.22
351.621	1.22
351.987	1.24
352.353	1.26
352.719	1.26
353.084	1.29
353.45	1.28
353.816	1.32
354.181	1.32
354.547	1.34
354.913	1.37
355.278	1.36
355.644	1.38
356.009	1.41
356.375	1.43
356.74	1.45
357.106	1.44
357.471	1.46
357.836	1.48
358.202	1.51
358.567	1.51
358.932	1.53
359.297	1.55
359.663	1.57
360.028	1.58
360.393	1.57
360.758	1.64
361.123	1.64
361.488	1.67
361.853	1.65
362.218	1.68
362.583	1.69
362.948	1.69
363.312	1.71
363.677	1.73
364.042	1.77
364.407	1.78
364.772	1.81
365.136	1.78
365.501	1.79
365.865	1.83
366.23	1.84
366.595	1.8
366.959	1.88
367.324	1.84
367.688	1.9
368.052	1.89
368.417	1.85
368.781	1.87
369.145	1.92
369.51	1.9
369.874	1.91
370.238	1.91
370.602	1.93
370.967	1.89
371.331	1.9
371.695	1.89
372.059	1.93
372.423	1.98
372.787	1.88
373.151	1.95
373.515	1.91
373.878	1.93
374.242	1.91
374.606	1.94
374.97	1.91
375.334	1.86
375.697	1.9
376.061	1.85
376.425	1.87
376.788	1.88
377.152	1.85
377.515	1.84
377.879	1.79
378.242	1.81
378.606	1.8
378.969	1.77
379.333	1.78
379.696	1.78
380.059	1.72
380.422	1.68
380.786	1.69
381.149	1.68
381.512	1.62
381.875	1.64
382.238	1.6
382.601	1.59
382.964	1.57
383.327	1.55
383.69	1.55
384.053	1.53
384.416	1.52
384.779	1.49
385.142	1.5
385.504	1.47
385.867	1.47
386.23	1.45
386.593	1.42
386.955	1.42
387.318	1.41
387.68	1.42
388.043	1.41
388.405	1.4
388.768	1.38
389.13	1.39
389.493	1.37
389.855	1.34
390.217	1.33
390.58	1.34
390.942	1.32
391.304	1.32
391.666	1.29
392.028	1.27
392.391	1.25
392.753	1.24
393.115	1.21
393.477	1.19
393.839	1.19
394.201	1.17
394.563	1.16
394.924	1.17
395.286	1.15
395.648	1.17
396.01	1.16
396.371	1.17
396.733	1.19
397.095	1.2
397.456	1.21
397.818	1.23
398.18	1.26
398.541	1.27
398.903	1.31
399.264	1.33
399.625	1.36
399.987	1.39
400.348	1.41
400.709	1.42
401.071	1.43
401.432	1.43
401.793	1.42
402.154	1.41
402.515	1.4
402.876	1.39
403.238	1.36
403.599	1.32
403.96	1.29
404.32	1.24
404.681	1.2
405.042	1.15
405.403	1.12
405.764	1.07
406.125	1.02
406.485	0.97
406.846	0.92
407.207	0.86
407.567	0.83
407.928	0.78
408.288	0.74
408.649	0.71
409.009	0.68
409.37	0.64
409.73	0.59
410.091	0.57
410.451	0.54
410.811	0.51
411.171	0.49
411.532	0.46
411.892	0.45
412.252	0.43
412.612	0.41
412.972	0.39
413.332	0.37
413.692	0.36
414.052	0.34
414.412	0.33
414.772	0.32
415.132	0.31
415.492	0.3
415.851	0.29
416.211	0.29
416.571	0.28
416.931	0.26
417.29	0.27
417.65	0.25
418.009	0.24
418.369	0.25
418.728	0.23
419.088	0.22
419.447	0.22
419.807	0.22
420.166	0.21
420.525	0.21
420.884	0.2
421.244	0.21
421.603	0.2
421.962	0.19
422.321	0.19
422.68	0.19
423.039	0.18
423.398	0.18
423.757	0.18
424.116	0.18
424.475	0.18
424.834	0.18
425.193	0.17
425.551	0.17
425.91	0.17
426.269	0.16
426.628	0.16
426.986	0.17
427.345	0.16
427.703	0.16
428.062	0.16
428.42	0.16
428.779	0.17
429.137	0.16
429.496	0.16
429.854	0.16
430.212	0.15
430.57	0.15
430.929	0.15
431.287	0.14
431.645	0.15
432.003	0.15
432.361	0.15
432.719	0.15
433.077	0.15
433.435	0.15
433.793	0.16
434.151	0.15
434.509	0.15
434.866	0.15
435.224	0.15
435.582	0.15
435.94	0.15
436.297	0.14
436.655	0.14
437.012	0.15
437.37	0.15
437.727	0.15
438.085	0.15
438.442	0.15
438.8	0.15
439.157	0.14
439.514	0.16
439.872	0.15
440.229	0.15
440.586	0.15
440.943	0.15
441.3	0.16
441.657	0.15
442.014	0.16
442.371	0.15
442.728	0.16
443.085	0.16
443.442	0.16
443.799	0.15
444.156	0.16
444.513	0.16
444.869	0.16
445.226	0.16
445.583	0.17
445.939	0.16
446.296	0.17
446.652	0.16
447.009	0.17
447.365	0.17
447.722	0.17
448.078	0.16
448.434	0.18
448.791	0.18
449.147	0.17
449.503	0.17
449.859	0.17
450.215	0.17
450.571	0.17
450.928	0.17
451.284	0.18
451.64	0.19
451.995	0.18
452.351	0.18
452.707	0.2
453.063	0.18
453.419	0.19
453.775	0.19
454.13	0.19
454.486	0.2
454.842	0.19
455.197	0.19
455.553	0.2
455.908	0.19
456.264	0.2
456.619	0.2
456.975	0.19
457.33	0.2
457.685	0.2
458.04	0.2
458.396	0.21
458.751	0.2
459.106	0.21
459.461	0.22
459.816	0.22
460.171	0.22
460.526	0.21
460.881	0.22
461.236	0.22
461.591	0.23
461.946	0.22
462.301	0.22
462.655	0.23
463.01	0.24
463.365	0.24
463.719	0.23
464.074	0.23
464.428	0.24
464.783	0.23
465.137	0.24
465.492	0.25
465.846	0.24
466.201	0.25
466.555	0.25
466.909	0.25
467.263	0.25
467.618	0.25
467.972	0.26
468.326	0.26
468.68	0.26
469.034	0.27
469.388	0.27
469.742	0.26
470.096	0.27
470.45	0.28
470.804	0.29
471.157	0.28
471.511	0.29
471.865	0.3
472.218	0.3
472.572	0.29
472.926	0.31
473.279	0.3
473.633	0.3
473.986	0.31
474.34	0.31
474.693	0.32
475.046	0.33
475.4	0.33
475.753	0.34
476.106	0.34
476.459	0.35
476.812	0.34
477.165	0.35
477.519	0.36
477.872	0.35
478.224	0.36
478.577	0.37
478.93	0.37
479.283	0.38
479.636	0.39
479.989	0.39
480.341	0.38
480.694	0.39
481.047	0.4
481.399	0.4
481.752	0.41
482.104	0.41
482.457	0.42
482.809	0.42
483.162	0.42
483.514	0.43
483.866	0.43
484.219	0.43
484.571	0.44
484.923	0.45
485.275	0.45
485.627	0.45
485.979	0.46
486.331	0.46
486.683	0.46
487.035	0.47
487.387	0.47
487.739	0.47
488.091	0.48
488.443	0.49
488.794	0.49
489.146	0.49
489.498	0.49
489.849	0.5
490.201	0.5
490.552	0.51
490.904	0.51
491.255	0.51
491.607	0.52
491.958	0.52
492.309	0.53
492.661	0.52
493.012	0.53
493.363	0.54
493.714	0.55
494.065	0.55
494.416	0.55
494.767	0.56
495.118	0.57
495.469	0.56
495.82	0.57
496.171	0.57
496.522	0.58
496.872	0.58
497.223	0.58
497.574	0.59
497.924	0.59
498.275	0.6
498.626	0.61
498.976	0.6
499.327	0.61
499.677	0.62
500.027	0.62
500.378	0.62
500.728	0.63
501.078	0.63
501.428	0.64
501.779	0.64
502.129	0.64
502.479	0.64
502.829	0.66
503.179	0.65
503.529	0.66
503.879	0.67
504.229	0.67
504.578	0.67
504.928	0.68
505.278	0.67
505.628	0.68
505.977	0.7
506.327	0.69
506.676	0.69
507.026	0.7
507.375	0.71
507.725	0.71
508.074	0.71
508.424	0.72
508.773	0.72
509.122	0.73
509.471	0.73
509.82	0.72
510.17	0.73
510.519	0.74
510.868	0.74
511.217	0.74
511.566	0.75
511.915	0.76
512.263	0.75
512.612	0.77
512.961	0.77
513.31	0.77
513.659	0.77
514.007	0.78
514.356	0.78
514.704	0.78
515.053	0.79
515.401	0.8
515.75	0.79
516.098	0.8
516.447	0.8
516.795	0.81
517.143	0.81
517.491	0.81
517.839	0.81
518.188	0.82
518.536	0.82
518.884	0.82
519.232	0.82
519.58	0.83
519.928	0.83
520.275	0.83
520.623	0.84
520.971	0.84
521.319	0.84
521.666	0.85
522.014	0.84
522.362	0.85
522.709	0.85
523.057	0.86
523.404	0.86
523.752	0.86
524.099	0.86
524.446	0.87
524.794	0.88
525.141	0.87
525.488	0.87
525.835	0.88
526.182	0.88
526.529	0.88
526.876	0.89
527.223	0.89
527.57	0.9
527.917	0.89
528.264	0.9
528.611	0.89
528.958	0.9
529.304	0.9
529.651	0.89
529.998	0.91
530.344	0.9
530.691	0.91
531.037	0.91
531.384	0.91
531.73	0.91
532.076	0.92
532.423	0.92
532.769	0.92
533.115	0.92
533.461	0.93
533.807	0.92
534.154	0.92
534.5	0.93
534.846	0.93
535.192	0.93
535.537	0.93
535.883	0.93
536.229	0.94
536.575	0.94
536.921	0.94
537.266	0.95
537.612	0.95
537.957	0.94
538.303	0.94
538.649	0.95
538.994	0.95
539.339	0.95
539.685	0.95
540.03	0.95
540.375	0.96
540.721	0.96
541.066	0.95
541.411	0.96
541.756	0.96
542.101	0.96
542.446	0.96
542.791	0.96
543.136	0.96
543.481	0.96
543.825	0.97
544.17	0.96
544.515	0.97
544.86	0.96
545.204	0.97
545.549	0.97
545.893	0.97
546.238	0.97
546.582	0.97
546.927	0.97
547.271	0.97
547.615	0.97
547.96	0.97
548.304	0.98
548.648	0.98
548.992	0.97
549.336	0.98
549.68	0.98
550.024	0.98
550.368	0.97
550.712	0.98
551.056	0.97
551.4	0.98
551.743	0.98
552.087	0.97
552.431	0.97
552.774	0.97
553.118	0.97
553.462	0.97
553.805	0.97
554.148	0.97
554.492	0.98
554.835	0.97
555.178	0.97
555.522	0.97
555.865	0.98
556.208	0.97
556.551	0.97
556.894	0.96
557.237	0.97
557.58	0.97
557.923	0.96
558.266	0.96
558.609	0.96
558.952	0.97
559.294	0.97
559.637	0.96
559.98	0.96
560.322	0.96
560.665	0.95
561.007	0.96
561.35	0.96
561.692	0.95
562.034	0.96
562.377	0.95
562.719	0.95
563.061	0.95
563.403	0.95
563.745	0.95
564.088	0.95
564.43	0.95
564.772	0.95
565.113	0.94
565.455	0.95
565.797	0.94
566.139	0.94
566.481	0.94
566.822	0.94
567.164	0.94
567.506	0.93
567.847	0.93
568.189	0.93
568.53	0.93
568.872	0.93
569.213	0.92
569.554	0.92
569.895	0.92
570.237	0.92
570.578	0.92
570.919	0.92
571.26	0.91
571.601	0.91
571.942	0.91
572.283	0.91
572.624	0.91
572.965	0.9
573.306	0.9
573.646	0.9
573.987	0.9
574.328	0.89
574.668	0.9
575.009	0.89
575.349	0.89
575.69	0.89
576.03	0.89
576.37	0.88
576.711	0.87
577.051	0.88
577.391	0.88
577.731	0.88
578.072	0.87
578.412	0.87
578.752	0.87
579.092	0.87
579.431	0.85
579.771	0.84
580.111	0.83
580.451	0.83
580.791	0.85
581.13	0.86
581.47	0.86
581.81	0.85
582.149	0.85
582.489	0.85
582.828	0.83
583.167	0.81
583.507	0.77
583.846	0.76
584.185	0.78
584.525	0.81
584.864	0.83
585.203	0.84
585.542	0.84
585.881	0.84
586.22	0.83
586.559	0.83
586.898	0.82
587.236	0.81
587.575	0.8
587.914	0.81
588.252	0.82
588.591	0.82
588.93	0.82
589.268	0.82
589.607	0.82
589.945	0.82
590.283	0.82
590.622	0.82
590.96	0.82
591.298	0.83
591.636	0.82
591.974	0.82
592.313	0.83
592.651	0.83
592.989	0.82
593.326	0.82
593.664	0.82
594.002	0.82
594.34	0.82
594.678	0.81
595.015	0.81
595.353	0.8
595.691	0.81
596.028	0.82
596.366	0.81
596.703	0.81
597.04	0.81
597.378	0.82
597.715	0.82
598.052	0.82
598.389	0.82
598.726	0.82
599.064	0.81
599.401	0.81
599.738	0.81
600.074	0.81
600.411	0.81
600.748	0.8
601.085	0.79
601.422	0.79
601.758	0.79
602.095	0.79
602.432	0.79
602.768	0.79
603.105	0.79
603.441	0.79
603.777	0.8
604.114	0.79
604.45	0.79
604.786	0.8
605.122	0.79
605.459	0.78
605.795	0.78
606.131	0.78
606.467	0.78
606.803	0.78
607.139	0.78
607.474	0.77
607.81	0.77
608.146	0.77
608.482	0.77
608.817	0.76
609.153	0.76
609.488	0.76
609.824	0.76
610.159	0.76
610.495	0.75
610.83	0.75
611.165	0.75
611.5	0.75
611.836	0.75
612.171	0.75
612.506	0.74
612.841	0.74
613.176	0.73
613.511	0.74
613.845	0.73
614.18	0.73
614.515	0.73
614.85	0.73
615.184	0.72
615.519	0.72
615.854	0.72
616.188	0.72
616.523	0.71
616.857	0.71
617.191	0.71
617.526	0.71
617.86	0.7
618.194	0.7
618.528	0.7
618.862	0.7
619.196	0.7
619.53	0.69
619.864	0.69
620.198	0.7
620.532	0.69
620.866	0.69
621.2	0.68
621.533	0.68
621.867	0.68
622.201	0.67
622.534	0.67
622.868	0.67
623.201	0.67
623.534	0.66
623.868	0.66
624.201	0.66
624.534	0.66
624.868	0.65
625.201	0.65
625.534	0.65
625.867	0.64
626.2	0.65
626.533	0.64
626.865	0.63
627.198	0.64
627.531	0.63
627.864	0.63
628.196	0.62
628.529	0.62
628.862	0.61
629.194	0.61
629.527	0.61
629.859	0.6
630.191	0.6
630.524	0.6
630.856	0.59
631.188	0.59
631.52	0.59
631.852	0.59
632.184	0.58
632.516	0.58
632.848	0.58
633.18	0.58
633.512	0.57
633.844	0.57
634.175	0.56
634.507	0.56
634.839	0.56
635.17	0.55
635.502	0.55
635.833	0.54
636.165	0.55
636.496	0.53
636.827	0.53
637.159	0.53
637.49	0.53
637.821	0.52
638.152	0.52
638.483	0.52
638.814	0.51
639.145	0.51
639.476	0.5
639.807	0.5
640.137	0.5
640.468	0.5
640.799	0.49
641.129	0.49
641.46	0.48
641.791	0.49
642.121	0.48
642.451	0.48
642.782	0.47
643.112	0.47
643.442	0.47
643.773	0.47
644.103	0.46
644.433	0.46
644.763	0.46
645.093	0.46
645.423	0.46
645.753	0.45
646.082	0.45
646.412	0.44
646.742	0.44
647.072	0.44
647.401	0.44
647.731	0.43
648.06	0.43
648.39	0.43
648.719	0.43
649.048	0.43
649.378	0.43
649.707	0.42
650.036	0.42
650.365	0.42
650.694	0.42
651.023	0.42
651.352	0.42
651.681	0.41
652.01	0.41
652.339	0.41
652.668	0.41
652.996	0.41
653.325	0.41
653.654	0.41
653.982	0.41
654.311	0.41
654.639	0.4
654.967	0.4
655.296	0.4
655.624	0.4
655.952	0.4
656.28	0.4
656.609	0.4
656.937	0.4
657.265	0.39
657.593	0.27
657.92	0.16
658.248	0.12
658.576	0.15
658.904	0.24
659.231	0.33
659.559	0.37
659.887	0.38
660.214	0.38
660.542	0.37
660.869	0.37
661.196	0.37
661.524	0.37
661.851	0.37
662.178	0.36
662.505	0.36
662.832	0.36
663.159	0.36
663.486	0.36
663.813	0.36
664.14	0.35
664.467	0.36
664.794	0.35
665.12	0.36
665.447	0.36
665.774	0.35
666.1	0.35
666.427	0.35
666.753	0.35
667.079	0.34
667.406	0.34
667.732	0.34
668.058	0.34
668.384	0.34
668.71	0.34
669.036	0.33
669.362	0.33
669.688	0.33
670.014	0.33
670.34	0.33
670.666	0.32
670.991	0.32
671.317	0.32
671.643	0.32
671.968	0.32
672.294	0.31
672.619	0.31
672.945	0.31
673.27	0.3
673.595	0.3
673.92	0.3
674.246	0.29
674.571	0.3
674.896	0.29
675.221	0.3
675.546	0.29
675.87	0.29
676.195	0.29
676.52	0.28
676.845	0.28
677.169	0.28
677.494	0.28
677.819	0.28
678.143	0.27
678.468	0.27
678.792	0.27
679.116	0.26
679.44	0.26
679.765	0.26
680.089	0.25
680.413	0.25
680.737	0.25
681.061	0.25
681.385	0.25
681.709	0.24
682.033	0.24
682.356	0.24
682.68	0.24
683.004	0.24
683.327	0.23
683.651	0.23
683.974	0.23
684.298	0.22
684.621	0.22
684.944	0.22
685.268	0.22
685.591	0.22
685.914	0.21
686.237	0.21
686.56	0.21
686.883	0.2
687.206	0.2
687.529	0.2
687.852	0.19
688.175	0.19
688.497	0.19
688.82	0.19
689.142	0.19
689.465	0.18
689.787	0.18
690.11	0.18
690.432	0.18
690.755	0.17
691.077	0.17
691.399	0.17
691.721	0.17
692.043	0.17
692.365	0.17
692.687	0.17
693.009	0.16
693.331	0.16
693.653	0.16
693.974	0.16
694.296	0.15
694.618	0.15
694.939	0.15
695.261	0.15
695.582	0.15
695.904	0.15
696.225	0.15
696.546	0.15
696.868	0.14
697.189	0.14
697.51	0.14
697.831	0.14
698.152	0.14
698.473	0.14
698.794	0.13
699.114	0.13
699.435	0.12
699.756	0.12
700.077	0.13
700.397	0.13
700.718	0.13
701.038	0.13
701.359	0.13
701.679	0.13
701.999	0.13
702.32	0.12
702.64	0.12
702.96	0.12
703.28	0.12
703.6	0.12
703.92	0.12
704.24	0.12
704.56	0.11
704.879	0.11
705.199	0.12
705.519	0.12
705.838	0.12
706.158	0.12
706.478	0.12
706.797	0.12
707.116	0.12
707.436	0.12
707.755	0.12
708.074	0.12
708.393	0.11
708.712	0.11
709.031	0.1
709.35	0.1
709.669	0.09
709.988	0.09
710.307	0.1
710.626	0.1
710.944	0.11
711.263	0.11
711.582	0.11
711.9	0.11
712.219	0.11
712.537	0.11
712.855	0.11
713.174	0.11
713.492	0.11
713.81	0.11
714.128	0.11
714.446	0.11
714.764	0.11
715.082	0.1
715.4	0.11
715.718	0.11
716.035	0.1
716.353	0.11
716.671	0.11
716.988	0.11
717.306	0.1
717.623	0.11
717.941	0.11
718.258	0.12
718.575	0.12
718.893	0.12
719.21	0.11
719.527	0.11
719.844	0.11
720.161	0.11
720.478	0.11
720.795	0.11
721.112	0.11
721.428	0.11
721.745	0.11
722.062	0.11
722.378	0.11
722.695	0.11
723.011	0.11
723.328	0.12
723.644	0.11
723.96	0.11
724.276	0.12
724.593	0.12
724.909	0.12
725.225	0.12
725.541	0.12
725.857	0.12
726.173	0.12
726.488	0.12
726.804	0.11
727.12	0.11
727.435	0.11
727.751	0.12
728.067	0.12
728.382	0.12
728.697	0.11
729.013	0.12
729.328	0.12
729.643	0.12
729.958	0.12
730.273	0.12
730.588	0.12
730.903	0.12
731.218	0.12
731.533	0.12
731.848	0.12
732.163	0.11
732.477	0.11
732.792	0.11
733.107	0.11
733.421	0.11
733.736	0.11
734.05	0.11
734.364	0.11
734.678	0.11
734.993	0.11
735.307	0.11
735.621	0.11
735.935	0.11
736.249	0.11
736.563	0.11
736.877	0.11
737.19	0.11
737.504	0.11
737.818	0.11
738.131	0.1
738.445	0.11
738.758	0.11
739.072	0.11
739.385	0.11
739.698	0.1
740.012	0.11
740.325	0.1
740.638	0.1
740.951	0.1
741.264	0.1
741.577	0.1
741.89	0.1
742.203	0.1
742.515	0.1
742.828	0.1
743.141	0.1
743.453	0.1
743.766	0.1
744.078	0.1
744.391	0.09
744.703	0.1
745.015	0.1
745.327	0.1
745.639	0.09
745.952	0.09
746.264	0.09
746.575	0.09
746.887	0.09
747.199	0.09
747.511	0.09
747.823	0.09
748.134	0.09
748.446	0.08
748.757	0.08
749.069	0.08
749.38	0.08
749.692	0.08
750.003	0.08
750.314	0.08
750.625	0.08
750.936	0.08
751.248	0.08
751.559	0.08
751.869	0.08
752.18	0.08
752.491	0.08
752.802	0.08
753.112	0.08
753.423	0.07
753.734	0.08
754.044	0.07
754.355	0.08
754.665	0.07
754.975	0.07
755.285	0.07
755.596	0.07
755.906	0.07
756.216	0.07
756.526	0.07
756.836	0.07
757.146	0.07
757.455	0.07
757.765	0.06
758.075	0.06
758.385	0.06
758.694	0.06
759.004	0.06
759.313	0.06
759.622	0.06
759.932	0.06
760.241	0.06
760.55	0.06
760.859	0.06
761.168	0.06
761.477	0.06
761.786	0.06
762.095	0.06
762.404	0.06
762.713	0.06
763.021	0.06
763.33	0.06
763.639	0.06
763.947	0.06
764.256	0.06
764.564	0.06
764.872	0.06
765.181	0.06
765.489	0.06
765.797	0.06
766.105	0.06
766.413	0.05
766.721	0.06
767.029	0.06
767.337	0.06
767.644	0.06
767.952	0.06
768.26	0.06
768.567	0.06
768.875	0.06
769.182	0.06
769.49	0.06
769.797	0.06
770.104	0.06
770.411	0.05
770.718	0.06
771.026	0.06
771.333	0.06
771.639	0.06
771.946	0.06
772.253	0.06
772.56	0.06
772.867	0.06
773.173	0.06
773.48	0.06
773.786	0.06
774.093	0.06
774.399	0.06
774.705	0.06
775.012	0.06
775.318	0.06
775.624	0.06
775.93	0.06
776.236	0.06
776.542	0.06
776.848	0.06
777.154	0.06
777.459	0.06
777.765	0.06
778.071	0.06
778.376	0.06
778.682	0.06
778.987	0.06
779.292	0.06
779.598	0.06
779.903	0.06
780.208	0.06
780.513	0.06
780.818	0.06
781.123	0.06
781.428	0.06
781.733	0.06
782.038	0.06
782.343	0.06
782.647	0.06
782.952	0.06
783.256	0.06
783.561	0.06
783.865	0.06
784.17	0.07
784.474	0.07
784.778	0.07
785.082	0.07
785.386	0.07
785.69	0.07
785.994	0.07
786.298	0.07
786.602	0.07
786.906	0.07
787.209	0.07
787.513	0.07
787.817	0.07
788.12	0.07
788.424	0.07
788.727	0.07
789.03	0.07
789.333	0.07
789.637	0.07
789.94	0.07
790.243	0.07
790.546	0.07
790.849	0.08
791.152	0.07
791.454	0.07
791.757	0.07
792.06	0.07
792.362	0.07
792.665	0.08
792.967	0.07
793.27	0.07
793.572	0.07
793.874	0.07
794.177	0.07
794.479	0.07
794.781	0.07
795.083	0.07
795.385	0.07
795.687	0.07
795.989	0.07
796.29	0.07
796.592	0.07
796.894	0.08
797.195	0.08
797.497	0.08
797.798	0.08
798.1	0.08
798.401	0.08
798.702	0.08
799.003	0.08
799.304	0.08
799.605	0.08
799.906	0.08
800.207	0.08
800.508	0.08
800.809	0.08
801.11	0.08
801.41	0.08
801.711	0.08
802.011	0.08
802.312	0.08
802.612	0.09
802.913	0.09
803.213	0.09
803.513	0.08
803.813	0.08
804.113	0.08
804.413	0.07
804.713	0.08
805.013	0.08
805.313	0.08
805.613	0.09
805.912	0.08
806.212	0.08
806.511	0.08
806.811	0.08
807.11	0.08
807.41	0.09
807.709	0.09
808.008	0.09
808.307	0.09
808.606	0.09
808.905	0.09
809.204	0.1
809.503	0.1
809.802	0.1
810.101	0.09
810.399	0.09
810.698	0.09
810.997	0.09
811.295	0.09
811.593	0.09
811.892	0.09
812.19	0.09
812.488	0.09
812.786	0.09
813.084	0.08
813.383	0.09
813.68	0.09
813.978	0.09
814.276	0.1
814.574	0.1
814.872	0.1
815.169	0.1
815.467	0.1
815.764	0.1
816.062	0.1
816.359	0.1
816.656	0.11
816.954	0.1
817.251	0.1
817.548	0.11
817.845	0.1
818.142	0.1
818.439	0.1
818.735	0.1
819.032	0.1
819.329	0.1
819.626	0.1
819.922	0.11
820.219	0.11
820.515	0.11
820.811	0.11
821.108	0.11
821.404	0.11
821.7	0.11
821.996	0.11
822.292	0.1
822.588	0.11
822.884	0.11
823.18	0.11
823.475	0.12
823.771	0.11
824.067	0.12
824.362	0.12
824.658	0.11
824.953	0.11
825.249	0.11
825.544	0.11
825.839	0.12
826.134	0.11
826.429	0.11
826.724	0.11
827.019	0.12
827.314	0.12
827.609	0.12
827.904	0.12
828.198	0.12
828.493	0.11
828.787	0.12
829.082	0.11
829.376	0.12
829.671	0.12
829.965	0.12
830.259	0.12
830.553	0.13
830.847	0.12
831.141	0.12
831.435	0.12
831.729	0.13
832.023	0.13
832.317	0.13
832.61	0.13
832.904	0.13
833.197	0.13
833.491	0.13
833.784	0.13
834.077	0.13
834.371	0.13
834.664	0.13
834.957	0.13
835.25	0.13
835.543	0.12
835.836	0.12
836.129	0.12
836.421	0.13
836.714	0.13
837.007	0.12
837.299	0.13
837.592	0.13
837.884	0.13
838.177	0.13
838.469	0.13
838.761	0.13
839.053	0.12
839.345	0.13
839.637	0.13
839.929	0.14
840.221	0.14
840.513	0.14
840.805	0.13
841.096	0.13
841.388	0.13
841.68	0.13
841.971	0.13
842.262	0.14
842.554	0.14
842.845	0.13
843.136	0.14
843.427	0.15
843.718	0.14
844.009	0.15
844.3	0.14
844.591	0.14
844.882	0.13
845.173	0.14
845.463	0.14
845.754	0.14
846.044	0.16
846.335	0.14
846.625	0.15
846.915	0.16
847.206	0.15
847.496	0.16
847.786	0.15
848.076	0.15
848.366	0.15
848.656	0.15
848.945	0.15
849.235	0.15
849.525	0.15
849.814	0.15
850.104	0.15
850.393	0.15
850.683	0.15
850.972	0.15
851.261	0.15
851.551	0.16
851.84	0.15
852.129	0.15
852.418	0.15
852.707	0.15
852.995	0.15
853.284	0.16
853.573	0.15
853.862	0.16
854.15	0.15
854.439	0.15
854.727	0.16
855.015	0.16
855.304	0.15
855.592	0.16
855.88	0.16
856.168	0.16
856.456	0.16
856.744	0.16
857.032	0.17
857.32	0.16
857.607	0.17
857.895	0.17
858.183	0.18
858.47	0.15
858.757	0.18
859.045	0.18
859.332	0.18
859.619	0.17
859.907	0.17
860.194	0.18
860.481	0.16
860.768	0.17
861.054	0.18
861.341	0.17
861.628	0.17
861.915	0.17
862.201	0.18
862.488	0.18
862.774	0.18
863.061	0.16
863.347	0.15
863.633	0.17
863.919	0.2
864.205	0.15
864.491	0.17
864.777	0.16
865.063	0.2
865.349	0.2
865.635	0.17
865.92	0.14
866.206	0.15
866.492	0.2
866.777	0.18
867.062	0.19
867.348	0.15
867.633	0.17
867.918	0.18
868.203	0.17
868.488	0.19
868.773	0.18
869.058	0.19
869.343	0.18
869.628	0.18
869.912	0.16
870.197	0.17
870.482	0.19
870.766	0.17
871.05	0.15
871.335	0.17
871.619	0.17
871.903	0.22
872.187	0.17
872.471	0.19
872.755	0.13
873.039	0.16
873.323	0.19
873.607	0.18
873.89	0.17
874.174	0.17
874.458	0.18
874.741	0.19
875.024	0.18
875.308	0.19
875.591	0.22
875.874	0.16
876.157	0.21
876.44	0.15
876.723	0.23
877.006	0.15
877.289	0.12
877.572	0.13
877.854	0.17
878.137	0.14
878.42	0.09
878.702	0.24
878.984	0.1
879.267	0.2
879.549	0.14
879.831	0.13
880.113	0.2
880.395	0.16
880.677	0.23
880.959	0.16
