Data from Rubpy_BV_1500_EDTA_Buffered_Absorbance_14-17-11-695.txt Node
Date: Wed Jul 01 14:17:11 BST 2026
User: fpm-admin
Spectrometer: OFX00224
Trigger mode: 0
Integration Time (sec): 7.000000E-2
Scans to average: 3
Nonlinearity correction enabled: false
Boxcar width: 0
Storing dark spectrum: false
XAxis mode: Wavelengths
Number of Pixels in Spectrum: 2136
>>>>>Begin Spectral Data<<<<<
154.91	-0.41
155.289	0.5
155.669	-1.48
156.048	-0
156.428	-0.15
156.807	1.08
157.186	-0
157.566	0.3
157.945	-0
158.325	0.06
158.704	-0
159.083	-0
159.462	-0
159.842	-0
160.221	-0.55
160.6	-0
160.979	0.34
161.359	-0.2
161.738	-0
162.117	0.19
162.496	-0.54
162.875	-0.38
163.254	1.52
163.633	-0
164.012	0.13
164.391	0.25
164.77	0.04
165.149	0.15
165.528	-0.26
165.907	-0
166.286	-0.38
166.665	0.08
167.044	-0
167.423	0.77
167.802	-0
168.181	-0
168.559	0.1
168.938	0.08
169.317	-0
169.696	-0
170.074	0.2
170.453	0.38
170.832	-0
171.21	0.41
171.589	-0.09
171.968	-0.81
172.346	0.33
172.725	-0
173.103	-0
173.482	-0.98
173.861	-0.25
174.239	-0
174.617	-0
174.996	-0.1
175.374	0.67
175.753	-0.46
176.131	0.12
176.51	-0.18
176.888	-0
177.266	-0
177.645	0
178.023	1.65
178.401	-0.09
178.779	0.08
179.158	0.29
179.536	-0.15
179.914	-0
180.292	-0
180.67	-0
181.048	-0
181.427	0.44
181.805	-0
182.183	-0.34
182.561	0.63
182.939	-0
183.317	-0
183.695	-0.04
184.073	0.32
184.451	-0.53
184.829	-0
185.206	-0
185.584	-0
185.962	-0
186.34	-0
186.718	-0.6
187.096	-0
187.473	-0.05
187.851	0.18
188.229	-0
188.607	0.15
188.984	0.13
189.362	0.13
189.74	0.15
190.117	0.07
190.495	0.01
190.872	0.29
191.25	0.13
191.627	0.06
192.005	0.02
192.382	0.22
192.76	0.08
193.137	0.06
193.515	0.01
193.892	0.02
194.269	-0.01
194.647	0.11
195.024	0.05
195.401	0.13
195.779	0.11
196.156	0.1
196.533	0.17
196.91	0.08
197.288	0.27
197.665	0.12
198.042	0.27
198.419	0.18
198.796	0.26
199.173	0.24
199.55	0.13
199.927	0.18
200.304	0.19
200.681	0.15
201.058	0.07
201.435	0.12
201.812	0.21
202.189	0.14
202.566	0.1
202.943	0.05
203.32	0.1
203.697	0.03
204.073	0.06
204.45	0.1
204.827	0.3
205.204	0.16
205.58	0.1
205.957	0.09
206.334	0.22
206.71	0.14
207.087	0.31
207.464	0.14
207.84	0.13
208.217	0.26
208.593	0.22
208.97	0.27
209.346	0.2
209.723	0.08
210.099	0.16
210.476	0.07
210.852	0.18
211.228	0.21
211.605	0.15
211.981	0.08
212.357	0.09
212.733	0.12
213.11	0.11
213.486	0.18
213.862	0.14
214.238	0.13
214.614	0.11
214.991	0.09
215.367	0.16
215.743	0.12
216.119	0.12
216.495	0.13
216.871	0.19
217.247	0.2
217.623	0.19
217.999	0.09
218.375	0.17
218.751	0.1
219.127	0.12
219.502	0.1
219.878	0.12
220.254	0.18
220.63	0.14
221.006	0.15
221.381	0.22
221.757	0.31
222.133	0.04
222.508	0.2
222.884	0.18
223.26	0.21
223.635	0.15
224.011	0.25
224.386	0.14
224.762	0.34
225.137	0.15
225.513	0.18
225.888	0.14
226.264	0.23
226.639	0.3
227.014	0.19
227.39	0.19
227.765	0.31
228.14	0.1
228.516	0.14
228.891	0.21
229.266	0.22
229.641	0.09
230.017	0.23
230.392	0.2
230.767	0.13
231.142	0.15
231.517	0.15
231.892	0.26
232.267	0.19
232.642	0.1
233.017	0.13
233.392	0.16
233.767	0.21
234.142	0.13
234.517	0.24
234.892	0.21
235.267	0.11
235.641	0.1
236.016	0.18
236.391	0.18
236.766	0.12
237.14	0.1
237.515	0.16
237.89	0.3
238.264	0.24
238.639	0.17
239.014	0.13
239.388	0.13
239.763	0.18
240.137	0.12
240.512	0.13
240.886	0.21
241.261	0.19
241.635	0.14
242.009	0.18
242.384	0.1
242.758	0.16
243.132	0.13
243.507	0.13
243.881	0.12
244.255	0.15
244.629	0.1
245.004	0.15
245.378	0.26
245.752	0.14
246.126	0.27
246.5	0.21
246.874	0.09
247.248	0.16
247.622	0.09
247.996	0.14
248.37	0.11
248.744	0.17
249.118	0.11
249.492	0.14
249.866	0.25
250.24	0.18
250.613	0.16
250.987	0.23
251.361	0.19
251.735	0.32
252.108	0.13
252.482	0.14
252.856	0.18
253.229	0.13
253.603	0.18
253.977	0.26
254.35	0.22
254.724	0.16
255.097	0.11
255.471	0.22
255.844	0.27
256.218	0.2
256.591	0.23
256.964	0.16
257.338	0.05
257.711	0.21
258.084	0.16
258.458	0.15
258.831	0.26
259.204	0.17
259.577	0.19
259.95	0.17
260.323	0.13
260.697	0.15
261.07	0.21
261.443	0.22
261.816	0.17
262.189	0.15
262.562	0.2
262.935	0.15
263.308	0.21
263.68	0.2
264.053	0.2
264.426	0.2
264.799	0.3
265.172	0.25
265.545	0.17
265.917	0.21
266.29	0.23
266.663	0.22
267.035	0.16
267.408	0.14
267.781	0.22
268.153	0.23
268.526	0.12
268.898	0.23
269.271	0.18
269.643	0.18
270.016	0.22
270.388	0.19
270.76	0.16
271.133	0.17
271.505	0.23
271.877	0.19
272.25	0.31
272.622	0.27
272.994	0.19
273.366	0.18
273.739	0.28
274.111	0.16
274.483	0.21
274.855	0.18
275.227	0.15
275.599	0.09
275.971	0.16
276.343	0.14
276.715	0.2
277.087	0.26
277.459	0.18
277.831	0.23
278.203	0.2
278.574	0.21
278.946	0.15
279.318	0.13
279.69	0.19
280.061	0.23
280.433	0.16
280.805	0.16
281.176	0.13
281.548	0.24
281.92	0.17
282.291	0.14
282.663	0.15
283.034	0.08
283.406	0.2
283.777	0.17
284.148	0.14
284.52	0.19
284.891	0.17
285.262	0.17
285.634	0.13
286.005	0.23
286.376	0.2
286.747	0.19
287.119	0.15
287.49	0.23
287.861	0.17
288.232	0.17
288.603	0.24
288.974	0.18
289.345	0.19
289.716	0.13
290.087	0.29
290.458	0.16
290.829	0.14
291.2	0.18
291.571	0.18
291.941	0.19
292.312	0.17
292.683	0.14
293.054	0.17
293.424	0.15
293.795	0.15
294.166	0.16
294.536	0.22
294.907	0.18
295.277	0.23
295.648	0.19
296.018	0.18
296.389	0.14
296.759	0.16
297.13	0.19
297.5	0.17
297.871	0.18
298.241	0.12
298.611	0.27
298.981	0.22
299.352	0.16
299.722	0.23
300.092	0.21
300.462	0.17
300.832	0.16
301.202	0.19
301.573	0.16
301.943	0.18
302.313	0.2
302.683	0.23
303.053	0.18
303.422	0.21
303.792	0.19
304.162	0.17
304.532	0.19
304.902	0.13
305.272	0.14
305.641	0.17
306.011	0.2
306.381	0.14
306.75	0.13
307.12	0.12
307.49	0.18
307.859	0.14
308.229	0.18
308.598	0.18
308.968	0.13
309.337	0.15
309.707	0.13
310.076	0.15
310.445	0.16
310.815	0.13
311.184	0.12
311.553	0.11
311.923	0.11
312.292	0.14
312.661	0.14
313.03	0.15
313.399	0.11
313.768	0.14
314.137	0.12
314.506	0.13
314.875	0.14
315.244	0.15
315.613	0.14
315.982	0.17
316.351	0.13
316.72	0.15
317.089	0.15
317.458	0.15
317.826	0.15
318.195	0.15
318.564	0.15
318.933	0.16
319.301	0.16
319.67	0.16
320.038	0.15
320.407	0.17
320.775	0.16
321.144	0.17
321.512	0.18
321.881	0.18
322.249	0.18
322.618	0.18
322.986	0.19
323.354	0.18
323.723	0.18
324.091	0.2
324.459	0.2
324.827	0.2
325.195	0.2
325.564	0.19
325.932	0.19
326.3	0.21
326.668	0.21
327.036	0.21
327.404	0.21
327.772	0.21
328.14	0.22
328.508	0.22
328.875	0.22
329.243	0.24
329.611	0.23
329.979	0.23
330.346	0.24
330.714	0.25
331.082	0.24
331.449	0.25
331.817	0.26
332.185	0.26
332.552	0.26
332.92	0.27
333.287	0.27
333.655	0.28
334.022	0.28
334.389	0.28
334.757	0.29
335.124	0.29
335.491	0.3
335.859	0.31
336.226	0.31
336.593	0.32
336.96	0.32
337.327	0.34
337.695	0.34
338.062	0.34
338.429	0.35
338.796	0.36
339.163	0.36
339.53	0.37
339.897	0.38
340.263	0.38
340.63	0.39
340.997	0.39
341.364	0.4
341.731	0.41
342.097	0.41
342.464	0.41
342.831	0.43
343.197	0.43
343.564	0.45
343.931	0.45
344.297	0.45
344.664	0.46
345.03	0.47
345.396	0.48
345.763	0.49
346.129	0.49
346.496	0.5
346.862	0.5
347.228	0.51
347.594	0.52
347.961	0.52
348.327	0.53
348.693	0.54
349.059	0.55
349.425	0.55
349.791	0.56
350.157	0.56
350.523	0.58
350.889	0.58
351.255	0.59
351.621	0.59
351.987	0.6
352.353	0.6
352.719	0.62
353.084	0.63
353.45	0.62
353.816	0.63
354.181	0.64
354.547	0.65
354.913	0.66
355.278	0.67
355.644	0.67
356.009	0.68
356.375	0.69
356.74	0.71
357.106	0.71
357.471	0.71
357.836	0.73
358.202	0.74
358.567	0.75
358.932	0.75
359.297	0.77
359.663	0.77
360.028	0.8
360.393	0.8
360.758	0.81
361.123	0.81
361.488	0.83
361.853	0.84
362.218	0.86
362.583	0.86
362.948	0.87
363.312	0.87
363.677	0.9
364.042	0.91
364.407	0.93
364.772	0.93
365.136	0.93
365.501	0.93
365.865	0.94
366.23	0.96
366.595	0.96
366.959	0.97
367.324	0.97
367.688	0.98
368.052	0.99
368.417	1
368.781	1.01
369.145	1.02
369.51	1.02
369.874	1.03
370.238	1.05
370.602	1.04
370.967	1.04
371.331	1.06
371.695	1.05
372.059	1.07
372.423	1.07
372.787	1.07
373.151	1.07
373.515	1.07
373.878	1.07
374.242	1.05
374.606	1.06
374.97	1.05
375.334	1.03
375.697	1.02
376.061	1.01
376.425	1.01
376.788	1
377.152	0.98
377.515	0.98
377.879	0.98
378.242	0.96
378.606	0.95
378.969	0.93
379.333	0.93
379.696	0.92
380.059	0.91
380.422	0.9
380.786	0.9
381.149	0.87
381.512	0.86
381.875	0.87
382.238	0.85
382.601	0.84
382.964	0.83
383.327	0.82
383.69	0.81
384.053	0.82
384.416	0.8
384.779	0.79
385.142	0.79
385.504	0.78
385.867	0.78
386.23	0.78
386.593	0.78
386.955	0.77
387.318	0.78
387.68	0.78
388.043	0.78
388.405	0.77
388.768	0.78
389.13	0.77
389.493	0.76
389.855	0.76
390.217	0.76
390.58	0.76
390.942	0.74
391.304	0.74
391.666	0.72
392.028	0.72
392.391	0.72
392.753	0.7
393.115	0.7
393.477	0.69
393.839	0.67
394.201	0.67
394.563	0.67
394.924	0.67
395.286	0.67
395.648	0.67
396.01	0.68
396.371	0.68
396.733	0.7
397.095	0.71
397.456	0.72
397.818	0.73
398.18	0.75
398.541	0.77
398.903	0.79
399.264	0.8
399.625	0.82
399.987	0.85
400.348	0.85
400.709	0.86
401.071	0.87
401.432	0.88
401.793	0.88
402.154	0.87
402.515	0.87
402.876	0.85
403.238	0.83
403.599	0.81
403.96	0.79
404.32	0.77
404.681	0.73
405.042	0.71
405.403	0.67
405.764	0.64
406.125	0.61
406.485	0.59
406.846	0.55
407.207	0.52
407.567	0.5
407.928	0.46
408.288	0.44
408.649	0.42
409.009	0.39
409.37	0.37
409.73	0.35
410.091	0.33
410.451	0.31
410.811	0.29
411.171	0.28
411.532	0.26
411.892	0.25
412.252	0.24
412.612	0.23
412.972	0.22
413.332	0.21
413.692	0.2
414.052	0.2
414.412	0.19
414.772	0.18
415.132	0.17
415.492	0.17
415.851	0.16
416.211	0.17
416.571	0.15
416.931	0.15
417.29	0.14
417.65	0.14
418.009	0.14
418.369	0.14
418.728	0.13
419.088	0.13
419.447	0.12
419.807	0.12
420.166	0.12
420.525	0.11
420.884	0.11
421.244	0.11
421.603	0.12
421.962	0.11
422.321	0.11
422.68	0.1
423.039	0.1
423.398	0.11
423.757	0.1
424.116	0.1
424.475	0.11
424.834	0.1
425.193	0.09
425.551	0.09
425.91	0.1
426.269	0.1
426.628	0.09
426.986	0.09
427.345	0.09
427.703	0.09
428.062	0.08
428.42	0.09
428.779	0.09
429.137	0.08
429.496	0.08
429.854	0.08
430.212	0.09
430.57	0.08
430.929	0.08
431.287	0.08
431.645	0.07
432.003	0.08
432.361	0.07
432.719	0.08
433.077	0.08
433.435	0.08
433.793	0.08
434.151	0.08
434.509	0.08
434.866	0.08
435.224	0.08
435.582	0.08
435.94	0.08
436.297	0.07
436.655	0.07
437.012	0.08
437.37	0.09
437.727	0.08
438.085	0.07
438.442	0.08
438.8	0.07
439.157	0.08
439.514	0.09
439.872	0.07
440.229	0.08
440.586	0.07
440.943	0.08
441.3	0.08
441.657	0.08
442.014	0.08
442.371	0.08
442.728	0.07
443.085	0.09
443.442	0.08
443.799	0.08
444.156	0.07
444.513	0.08
444.869	0.08
445.226	0.07
445.583	0.08
445.939	0.08
446.296	0.08
446.652	0.08
447.009	0.08
447.365	0.08
447.722	0.09
448.078	0.09
448.434	0.08
448.791	0.09
449.147	0.08
449.503	0.08
449.859	0.09
450.215	0.09
450.571	0.09
450.928	0.09
451.284	0.09
451.64	0.09
451.995	0.08
452.351	0.1
452.707	0.1
453.063	0.09
453.419	0.09
453.775	0.09
454.13	0.09
454.486	0.1
454.842	0.1
455.197	0.1
455.553	0.09
455.908	0.09
456.264	0.09
456.619	0.09
456.975	0.09
457.33	0.09
457.685	0.09
458.04	0.09
458.396	0.1
458.751	0.09
459.106	0.1
459.461	0.1
459.816	0.1
460.171	0.1
460.526	0.09
460.881	0.1
461.236	0.1
461.591	0.1
461.946	0.1
462.301	0.1
462.655	0.11
463.01	0.11
463.365	0.1
463.719	0.1
464.074	0.11
464.428	0.1
464.783	0.1
465.137	0.11
465.492	0.11
465.846	0.1
466.201	0.1
466.555	0.11
466.909	0.11
467.263	0.1
467.618	0.11
467.972	0.11
468.326	0.12
468.68	0.12
469.034	0.11
469.388	0.12
469.742	0.12
470.096	0.11
470.45	0.13
470.804	0.13
471.157	0.12
471.511	0.12
471.865	0.13
472.218	0.14
472.572	0.13
472.926	0.14
473.279	0.14
473.633	0.14
473.986	0.14
474.34	0.14
474.693	0.14
475.046	0.15
475.4	0.15
475.753	0.15
476.106	0.16
476.459	0.16
476.812	0.15
477.165	0.16
477.519	0.16
477.872	0.16
478.224	0.17
478.577	0.17
478.93	0.17
479.283	0.17
479.636	0.18
479.989	0.18
480.341	0.18
480.694	0.18
481.047	0.18
481.399	0.18
481.752	0.19
482.104	0.19
482.457	0.2
482.809	0.19
483.162	0.2
483.514	0.2
483.866	0.2
484.219	0.2
484.571	0.21
484.923	0.21
485.275	0.21
485.627	0.21
485.979	0.22
486.331	0.21
486.683	0.21
487.035	0.22
487.387	0.22
487.739	0.22
488.091	0.22
488.443	0.23
488.794	0.23
489.146	0.23
489.498	0.23
489.849	0.23
490.201	0.24
490.552	0.24
490.904	0.24
491.255	0.25
491.607	0.24
491.958	0.25
492.309	0.25
492.661	0.25
493.012	0.25
493.363	0.25
493.714	0.26
494.065	0.26
494.416	0.26
494.767	0.26
495.118	0.27
495.469	0.27
495.82	0.26
496.171	0.27
496.522	0.27
496.872	0.27
497.223	0.28
497.574	0.28
497.924	0.28
498.275	0.29
498.626	0.29
498.976	0.29
499.327	0.29
499.677	0.29
500.027	0.29
500.378	0.29
500.728	0.29
501.078	0.3
501.428	0.3
501.779	0.31
502.129	0.31
502.479	0.31
502.829	0.31
503.179	0.31
503.529	0.31
503.879	0.32
504.229	0.32
504.578	0.32
504.928	0.32
505.278	0.32
505.628	0.33
505.977	0.33
506.327	0.33
506.676	0.33
507.026	0.33
507.375	0.34
507.725	0.34
508.074	0.34
508.424	0.34
508.773	0.34
509.122	0.35
509.471	0.35
509.82	0.35
510.17	0.35
510.519	0.36
510.868	0.36
511.217	0.36
511.566	0.36
511.915	0.36
512.263	0.36
512.612	0.37
512.961	0.37
513.31	0.37
513.659	0.37
514.007	0.37
514.356	0.37
514.704	0.38
515.053	0.38
515.401	0.38
515.75	0.39
516.098	0.39
516.447	0.39
516.795	0.39
517.143	0.39
517.491	0.39
517.839	0.4
518.188	0.39
518.536	0.4
518.884	0.4
519.232	0.4
519.58	0.4
519.928	0.4
520.275	0.4
520.623	0.41
520.971	0.41
521.319	0.41
521.666	0.4
522.014	0.41
522.362	0.41
522.709	0.42
523.057	0.42
523.404	0.42
523.752	0.42
524.099	0.42
524.446	0.42
524.794	0.43
525.141	0.42
525.488	0.43
525.835	0.42
526.182	0.43
526.529	0.43
526.876	0.43
527.223	0.44
527.57	0.43
527.917	0.43
528.264	0.43
528.611	0.43
528.958	0.44
529.304	0.44
529.651	0.44
529.998	0.45
530.344	0.44
530.691	0.44
531.037	0.45
531.384	0.45
531.73	0.45
532.076	0.45
532.423	0.45
532.769	0.45
533.115	0.45
533.461	0.45
533.807	0.45
534.154	0.45
534.5	0.46
534.846	0.45
535.192	0.46
535.537	0.46
535.883	0.46
536.229	0.46
536.575	0.46
536.921	0.46
537.266	0.46
537.612	0.47
537.957	0.47
538.303	0.47
538.649	0.47
538.994	0.47
539.339	0.47
539.685	0.47
540.03	0.47
540.375	0.47
540.721	0.47
541.066	0.47
541.411	0.48
541.756	0.47
542.101	0.48
542.446	0.47
542.791	0.47
543.136	0.48
543.481	0.48
543.825	0.48
544.17	0.48
544.515	0.49
544.86	0.48
545.204	0.48
545.549	0.48
545.893	0.48
546.238	0.49
546.582	0.49
546.927	0.49
547.271	0.48
547.615	0.49
547.96	0.49
548.304	0.49
548.648	0.49
548.992	0.49
549.336	0.49
549.68	0.49
550.024	0.49
550.368	0.49
550.712	0.5
551.056	0.49
551.4	0.49
551.743	0.49
552.087	0.49
552.431	0.49
552.774	0.49
553.118	0.49
553.462	0.49
553.805	0.49
554.148	0.49
554.492	0.49
554.835	0.49
555.178	0.49
555.522	0.49
555.865	0.49
556.208	0.5
556.551	0.49
556.894	0.49
557.237	0.49
557.58	0.5
557.923	0.49
558.266	0.49
558.609	0.49
558.952	0.49
559.294	0.49
559.637	0.49
559.98	0.49
560.322	0.49
560.665	0.49
561.007	0.49
561.35	0.49
561.692	0.49
562.034	0.49
562.377	0.49
562.719	0.49
563.061	0.49
563.403	0.49
563.745	0.49
564.088	0.49
564.43	0.49
564.772	0.49
565.113	0.49
565.455	0.48
565.797	0.48
566.139	0.48
566.481	0.48
566.822	0.48
567.164	0.48
567.506	0.48
567.847	0.48
568.189	0.48
568.53	0.48
568.872	0.48
569.213	0.48
569.554	0.47
569.895	0.48
570.237	0.47
570.578	0.47
570.919	0.47
571.26	0.47
571.601	0.47
571.942	0.47
572.283	0.46
572.624	0.46
572.965	0.46
573.306	0.46
573.646	0.46
573.987	0.46
574.328	0.46
574.668	0.46
575.009	0.46
575.349	0.45
575.69	0.45
576.03	0.45
576.37	0.45
576.711	0.45
577.051	0.45
577.391	0.45
577.731	0.45
578.072	0.45
578.412	0.44
578.752	0.45
579.092	0.44
579.431	0.43
579.771	0.41
580.111	0.41
580.451	0.42
580.791	0.44
581.13	0.44
581.47	0.44
581.81	0.44
582.149	0.44
582.489	0.43
582.828	0.42
583.167	0.4
583.507	0.36
583.846	0.35
584.185	0.38
584.525	0.4
584.864	0.42
585.203	0.43
585.542	0.43
585.881	0.43
586.22	0.44
586.559	0.43
586.898	0.41
587.236	0.41
587.575	0.41
587.914	0.42
588.252	0.43
588.591	0.43
588.93	0.43
589.268	0.42
589.607	0.42
589.945	0.42
590.283	0.43
590.622	0.43
590.96	0.43
591.298	0.43
591.636	0.43
591.974	0.44
592.313	0.43
592.651	0.43
592.989	0.43
593.326	0.43
593.664	0.43
594.002	0.43
594.34	0.43
594.678	0.43
595.015	0.42
595.353	0.41
595.691	0.42
596.028	0.43
596.366	0.43
596.703	0.43
597.04	0.43
597.378	0.43
597.715	0.44
598.052	0.44
598.389	0.44
598.726	0.44
599.064	0.43
599.401	0.44
599.738	0.43
600.074	0.43
600.411	0.43
600.748	0.43
601.085	0.42
601.422	0.42
601.758	0.42
602.095	0.42
602.432	0.42
602.768	0.42
603.105	0.42
603.441	0.43
603.777	0.43
604.114	0.43
604.45	0.43
604.786	0.43
605.122	0.43
605.459	0.42
605.795	0.42
606.131	0.42
606.467	0.42
606.803	0.42
607.139	0.42
607.474	0.42
607.81	0.42
608.146	0.41
608.482	0.42
608.817	0.41
609.153	0.41
609.488	0.41
609.824	0.41
610.159	0.41
610.495	0.41
610.83	0.41
611.165	0.41
611.5	0.41
611.836	0.41
612.171	0.4
612.506	0.41
612.841	0.4
613.176	0.4
613.511	0.4
613.845	0.4
614.18	0.4
614.515	0.4
614.85	0.4
615.184	0.4
615.519	0.4
615.854	0.39
616.188	0.39
616.523	0.39
616.857	0.39
617.191	0.39
617.526	0.38
617.86	0.38
618.194	0.38
618.528	0.39
618.862	0.38
619.196	0.38
619.53	0.38
619.864	0.38
620.198	0.38
620.532	0.38
620.866	0.38
621.2	0.37
621.533	0.37
621.867	0.37
622.201	0.37
622.534	0.37
622.868	0.37
623.201	0.36
623.534	0.37
623.868	0.36
624.201	0.36
624.534	0.36
624.868	0.36
625.201	0.36
625.534	0.36
625.867	0.36
626.2	0.35
626.533	0.35
626.865	0.35
627.198	0.35
627.531	0.35
627.864	0.35
628.196	0.35
628.529	0.34
628.862	0.34
629.194	0.34
629.527	0.33
629.859	0.33
630.191	0.33
630.524	0.33
630.856	0.33
631.188	0.33
631.52	0.33
631.852	0.32
632.184	0.32
632.516	0.32
632.848	0.32
633.18	0.32
633.512	0.32
633.844	0.31
634.175	0.31
634.507	0.31
634.839	0.31
635.17	0.3
635.502	0.3
635.833	0.3
636.165	0.3
636.496	0.29
636.827	0.29
637.159	0.29
637.49	0.29
637.821	0.29
638.152	0.28
638.483	0.28
638.814	0.28
639.145	0.28
639.476	0.28
639.807	0.28
640.137	0.28
640.468	0.27
640.799	0.27
641.129	0.27
641.46	0.27
641.791	0.27
642.121	0.27
642.451	0.27
642.782	0.26
643.112	0.26
643.442	0.26
643.773	0.26
644.103	0.26
644.433	0.26
644.763	0.25
645.093	0.25
645.423	0.25
645.753	0.25
646.082	0.25
646.412	0.25
646.742	0.24
647.072	0.24
647.401	0.24
647.731	0.24
648.06	0.24
648.39	0.24
648.719	0.24
649.048	0.24
649.378	0.24
649.707	0.23
650.036	0.23
650.365	0.23
650.694	0.23
651.023	0.23
651.352	0.23
651.681	0.23
652.01	0.23
652.339	0.23
652.668	0.23
652.996	0.23
653.325	0.23
653.654	0.23
653.982	0.22
654.311	0.23
654.639	0.22
654.967	0.22
655.296	0.22
655.624	0.22
655.952	0.22
656.28	0.22
656.609	0.22
656.937	0.22
657.265	0.21
657.593	0.1
657.92	0.01
658.248	0
658.576	0.01
658.904	0.08
659.231	0.16
659.559	0.21
659.887	0.21
660.214	0.21
660.542	0.21
660.869	0.21
661.196	0.21
661.524	0.21
661.851	0.2
662.178	0.2
662.505	0.2
662.832	0.2
663.159	0.21
663.486	0.21
663.813	0.2
664.14	0.2
664.467	0.2
664.794	0.2
665.12	0.2
665.447	0.2
665.774	0.2
666.1	0.2
666.427	0.2
666.753	0.2
667.079	0.19
667.406	0.19
667.732	0.19
668.058	0.19
668.384	0.19
668.71	0.19
669.036	0.19
669.362	0.19
669.688	0.19
670.014	0.18
670.34	0.18
670.666	0.18
670.991	0.18
671.317	0.18
671.643	0.18
671.968	0.18
672.294	0.18
672.619	0.18
672.945	0.17
673.27	0.17
673.595	0.17
673.92	0.17
674.246	0.17
674.571	0.17
674.896	0.16
675.221	0.16
675.546	0.16
675.87	0.16
676.195	0.16
676.52	0.16
676.845	0.16
677.169	0.16
677.494	0.15
677.819	0.16
678.143	0.15
678.468	0.15
678.792	0.15
679.116	0.15
679.44	0.14
679.765	0.14
680.089	0.14
680.413	0.14
680.737	0.14
681.061	0.13
681.385	0.13
681.709	0.13
682.033	0.13
682.356	0.13
682.68	0.13
683.004	0.13
683.327	0.13
683.651	0.13
683.974	0.13
684.298	0.12
684.621	0.12
684.944	0.12
685.268	0.12
685.591	0.12
685.914	0.12
686.237	0.11
686.56	0.11
686.883	0.11
687.206	0.11
687.529	0.11
687.852	0.1
688.175	0.1
688.497	0.11
688.82	0.11
689.142	0.1
689.465	0.1
689.787	0.1
690.11	0.1
690.432	0.1
690.755	0.1
691.077	0.09
691.399	0.1
691.721	0.09
692.043	0.09
692.365	0.09
692.687	0.09
693.009	0.09
693.331	0.09
693.653	0.09
693.974	0.09
694.296	0.09
694.618	0.08
694.939	0.08
695.261	0.08
695.582	0.08
695.904	0.08
696.225	0.08
696.546	0.08
696.868	0.08
697.189	0.08
697.51	0.07
697.831	0.07
698.152	0.08
698.473	0.07
698.794	0.07
699.114	0.07
699.435	0.06
699.756	0.06
700.077	0.07
700.397	0.07
700.718	0.07
701.038	0.07
701.359	0.07
701.679	0.07
701.999	0.07
702.32	0.07
702.64	0.07
702.96	0.07
703.28	0.06
703.6	0.06
703.92	0.06
704.24	0.06
704.56	0.06
704.879	0.06
705.199	0.06
705.519	0.06
705.838	0.06
706.158	0.07
706.478	0.06
706.797	0.07
707.116	0.07
707.436	0.07
707.755	0.06
708.074	0.06
708.393	0.06
708.712	0.05
709.031	0.05
709.35	0.04
709.669	0.04
709.988	0.04
710.307	0.05
710.626	0.05
710.944	0.06
711.263	0.06
711.582	0.06
711.9	0.06
712.219	0.05
712.537	0.06
712.855	0.06
713.174	0.06
713.492	0.06
713.81	0.06
714.128	0.06
714.446	0.06
714.764	0.06
715.082	0.05
715.4	0.06
715.718	0.05
716.035	0.05
716.353	0.06
716.671	0.05
716.988	0.06
717.306	0.05
717.623	0.06
717.941	0.06
718.258	0.06
718.575	0.06
718.893	0.06
719.21	0.06
719.527	0.06
719.844	0.06
720.161	0.06
720.478	0.06
720.795	0.06
721.112	0.06
721.428	0.06
721.745	0.06
722.062	0.06
722.378	0.06
722.695	0.06
723.011	0.06
723.328	0.06
723.644	0.06
723.96	0.06
724.276	0.07
724.593	0.07
724.909	0.07
725.225	0.07
725.541	0.07
725.857	0.07
726.173	0.07
726.488	0.07
726.804	0.07
727.12	0.07
727.435	0.07
727.751	0.06
728.067	0.07
728.382	0.07
728.697	0.07
729.013	0.07
729.328	0.07
729.643	0.07
729.958	0.06
730.273	0.06
730.588	0.07
730.903	0.06
731.218	0.07
731.533	0.07
731.848	0.06
732.163	0.06
732.477	0.06
732.792	0.06
733.107	0.06
733.421	0.06
733.736	0.06
734.05	0.06
734.364	0.06
734.678	0.06
734.993	0.06
735.307	0.06
735.621	0.06
735.935	0.06
736.249	0.06
736.563	0.06
736.877	0.06
737.19	0.06
737.504	0.06
737.818	0.06
738.131	0.06
738.445	0.06
738.758	0.06
739.072	0.06
739.385	0.06
739.698	0.06
740.012	0.06
740.325	0.06
740.638	0.06
740.951	0.06
741.264	0.06
741.577	0.05
741.89	0.06
742.203	0.06
742.515	0.06
742.828	0.06
743.141	0.06
743.453	0.05
743.766	0.05
744.078	0.06
744.391	0.05
744.703	0.05
745.015	0.05
745.327	0.05
745.639	0.05
745.952	0.05
746.264	0.05
746.575	0.05
746.887	0.05
747.199	0.05
747.511	0.05
747.823	0.05
748.134	0.05
748.446	0.05
748.757	0.05
749.069	0.05
749.38	0.04
749.692	0.05
750.003	0.05
750.314	0.04
750.625	0.05
750.936	0.04
751.248	0.04
751.559	0.04
751.869	0.05
752.18	0.05
752.491	0.04
752.802	0.04
753.112	0.04
753.423	0.04
753.734	0.04
754.044	0.04
754.355	0.04
754.665	0.04
754.975	0.04
755.285	0.04
755.596	0.04
755.906	0.04
756.216	0.04
756.526	0.04
756.836	0.04
757.146	0.04
757.455	0.04
757.765	0.03
758.075	0.03
758.385	0.03
758.694	0.03
759.004	0.03
759.313	0.03
759.622	0.03
759.932	0.03
760.241	0.04
760.55	0.03
760.859	0.03
761.168	0.03
761.477	0.03
761.786	0.03
762.095	0.03
762.404	0.03
762.713	0.03
763.021	0.03
763.33	0.03
763.639	0.03
763.947	0.03
764.256	0.03
764.564	0.03
764.872	0.03
765.181	0.03
765.489	0.03
765.797	0.03
766.105	0.03
766.413	0.03
766.721	0.03
767.029	0.03
767.337	0.03
767.644	0.03
767.952	0.03
768.26	0.03
768.567	0.03
768.875	0.03
769.182	0.03
769.49	0.03
769.797	0.03
770.104	0.03
770.411	0.03
770.718	0.03
771.026	0.03
771.333	0.03
771.639	0.03
771.946	0.03
772.253	0.03
772.56	0.03
772.867	0.03
773.173	0.03
773.48	0.03
773.786	0.03
774.093	0.03
774.399	0.03
774.705	0.03
775.012	0.03
775.318	0.03
775.624	0.03
775.93	0.03
776.236	0.03
776.542	0.03
776.848	0.03
777.154	0.03
777.459	0.03
777.765	0.03
778.071	0.03
778.376	0.03
778.682	0.03
778.987	0.03
779.292	0.03
779.598	0.03
779.903	0.03
780.208	0.03
780.513	0.03
780.818	0.03
781.123	0.03
781.428	0.03
781.733	0.03
782.038	0.03
782.343	0.03
782.647	0.03
782.952	0.03
783.256	0.03
783.561	0.03
783.865	0.03
784.17	0.03
784.474	0.04
784.778	0.04
785.082	0.04
785.386	0.03
785.69	0.04
785.994	0.03
786.298	0.04
786.602	0.04
786.906	0.03
787.209	0.03
787.513	0.03
787.817	0.04
788.12	0.04
788.424	0.03
788.727	0.03
789.03	0.03
789.333	0.03
789.637	0.03
789.94	0.03
790.243	0.03
790.546	0.03
790.849	0.03
791.152	0.03
791.454	0.03
791.757	0.03
792.06	0.03
792.362	0.04
792.665	0.03
792.967	0.03
793.27	0.03
793.572	0.03
793.874	0.03
794.177	0.03
794.479	0.03
794.781	0.03
795.083	0.03
795.385	0.03
795.687	0.03
795.989	0.03
796.29	0.03
796.592	0.03
796.894	0.03
797.195	0.04
797.497	0.04
797.798	0.04
798.1	0.04
798.401	0.04
798.702	0.04
799.003	0.03
799.304	0.03
799.605	0.04
799.906	0.04
800.207	0.04
800.508	0.04
800.809	0.04
801.11	0.03
801.41	0.04
801.711	0.04
802.011	0.04
802.312	0.04
802.612	0.04
802.913	0.04
803.213	0.04
803.513	0.03
803.813	0.04
804.113	0.03
804.413	0.03
804.713	0.03
805.013	0.03
805.313	0.03
805.613	0.04
805.912	0.04
806.212	0.03
806.511	0.04
806.811	0.04
807.11	0.03
807.41	0.04
807.709	0.04
808.008	0.04
808.307	0.04
808.606	0.04
808.905	0.04
809.204	0.04
809.503	0.05
809.802	0.04
810.101	0.04
810.399	0.04
810.698	0.05
810.997	0.04
811.295	0.04
811.593	0.04
811.892	0.05
812.19	0.04
812.488	0.04
812.786	0.04
813.084	0.04
813.383	0.04
813.68	0.04
813.978	0.04
814.276	0.04
814.574	0.04
814.872	0.05
815.169	0.05
815.467	0.05
815.764	0.05
816.062	0.05
816.359	0.04
816.656	0.05
816.954	0.05
817.251	0.05
817.548	0.05
817.845	0.05
818.142	0.05
818.439	0.05
818.735	0.05
819.032	0.04
819.329	0.04
819.626	0.04
819.922	0.04
820.219	0.05
820.515	0.05
820.811	0.05
821.108	0.05
821.404	0.05
821.7	0.05
821.996	0.05
822.292	0.05
822.588	0.05
822.884	0.06
823.18	0.06
823.475	0.05
823.771	0.05
824.067	0.06
824.362	0.06
824.658	0.05
824.953	0.05
825.249	0.05
825.544	0.06
825.839	0.05
826.134	0.06
826.429	0.06
826.724	0.05
827.019	0.05
827.314	0.06
827.609	0.06
827.904	0.06
828.198	0.05
828.493	0.05
828.787	0.05
829.082	0.06
829.376	0.05
829.671	0.06
829.965	0.05
830.259	0.06
830.553	0.06
830.847	0.05
831.141	0.06
831.435	0.05
831.729	0.05
832.023	0.06
832.317	0.06
832.61	0.06
832.904	0.06
833.197	0.06
833.491	0.06
833.784	0.06
834.077	0.06
834.371	0.06
834.664	0.06
834.957	0.06
835.25	0.06
835.543	0.05
835.836	0.05
836.129	0.05
836.421	0.06
836.714	0.06
837.007	0.05
837.299	0.06
837.592	0.06
837.884	0.06
838.177	0.06
838.469	0.06
838.761	0.05
839.053	0.05
839.345	0.06
839.637	0.05
839.929	0.06
840.221	0.07
840.513	0.06
840.805	0.06
841.096	0.05
841.388	0.06
841.68	0.06
841.971	0.06
842.262	0.06
842.554	0.06
842.845	0.06
843.136	0.06
843.427	0.06
843.718	0.07
844.009	0.06
844.3	0.06
844.591	0.06
844.882	0.06
845.173	0.07
845.463	0.06
845.754	0.07
846.044	0.08
846.335	0.07
846.625	0.07
846.915	0.07
847.206	0.07
847.496	0.08
847.786	0.07
848.076	0.07
848.366	0.07
848.656	0.07
848.945	0.06
849.235	0.07
849.525	0.07
849.814	0.07
850.104	0.07
850.393	0.07
850.683	0.07
850.972	0.07
851.261	0.06
851.551	0.07
851.84	0.07
852.129	0.07
852.418	0.06
852.707	0.07
852.995	0.06
853.284	0.07
853.573	0.07
853.862	0.06
854.15	0.06
854.439	0.07
854.727	0.06
855.015	0.07
855.304	0.07
855.592	0.07
855.88	0.07
856.168	0.07
856.456	0.07
856.744	0.08
857.032	0.08
857.32	0.08
857.607	0.09
857.895	0.09
858.183	0.07
858.47	0.08
858.757	0.08
859.045	0.09
859.332	0.08
859.619	0.07
859.907	0.08
860.194	0.08
860.481	0.08
860.768	0.08
861.054	0.09
861.341	0.07
861.628	0.08
861.915	0.08
862.201	0.08
862.488	0.08
862.774	0.08
863.061	0.08
863.347	0.06
863.633	0.08
863.919	0.08
864.205	0.06
864.491	0.06
864.777	0.06
865.063	0.07
865.349	0.08
865.635	0.08
865.92	0.07
866.206	0.08
866.492	0.08
866.777	0.07
867.062	0.07
867.348	0.07
867.633	0.06
867.918	0.04
868.203	0.09
868.488	0.07
868.773	0.07
869.058	0.06
869.343	0.08
869.628	0.08
869.912	0.06
870.197	0.08
870.482	0.07
870.766	0.06
871.05	0.05
871.335	0.06
871.619	0.05
871.903	0.09
872.187	0.07
872.471	0.07
872.755	0.01
873.039	0.06
873.323	0.08
873.607	0.06
873.89	0.09
874.174	0.06
874.458	0.06
874.741	0.06
875.024	0.08
875.308	0.06
875.591	0.09
875.874	0.09
876.157	0.1
876.44	0.06
876.723	0.04
877.006	0.05
877.289	0.05
877.572	0.06
877.854	0.05
878.137	0
878.42	0.04
878.702	0.07
878.984	0.08
879.267	0.05
879.549	0.07
879.831	0.07
880.113	0.15
880.395	0.1
880.677	0.04
880.959	0.12
