Data from Rubpy_BV_1500_EDTA_Buffered_Absorbance_14-27-05-628.txt Node
Date: Wed Jul 01 14:27:05 BST 2026
User: fpm-admin
Spectrometer: OFX00224
Trigger mode: 0
Integration Time (sec): 7.000000E-2
Scans to average: 3
Nonlinearity correction enabled: false
Boxcar width: 0
Storing dark spectrum: false
XAxis mode: Wavelengths
Number of Pixels in Spectrum: 2136
>>>>>Begin Spectral Data<<<<<
154.91	-0
155.289	0.4
155.669	-0
156.048	-0.16
156.428	-0
156.807	-0
157.186	-0.73
157.566	-0.36
157.945	0.48
158.325	-0
158.704	-0
159.083	-0
159.462	-0.06
159.842	0.44
160.221	-0.04
160.6	-0.6
160.979	-0.32
161.359	0.6
161.738	-0
162.117	0.03
162.496	-0.36
162.875	-0
163.254	1.04
163.633	-0.4
164.012	-0.2
164.391	0.23
164.77	-0.08
165.149	0.43
165.528	-0.53
165.907	-0.26
166.286	-0.81
166.665	-0
167.044	0.23
167.423	-0
167.802	-0
168.181	1.1
168.559	0.17
168.938	-0.25
169.317	-0
169.696	0.1
170.074	-0.05
170.453	0.44
170.832	-0
171.21	-0.06
171.589	0.04
171.968	-0.51
172.346	0.41
172.725	-0
173.103	-0
173.482	-1.29
173.861	-0
174.239	-0
174.617	0.39
174.996	0.19
175.374	0.04
175.753	-0.42
176.131	-0.2
176.51	0.23
176.888	-0
177.266	-0
177.645	0.03
178.023	0.77
178.401	-0.1
178.779	-0.15
179.158	0.26
179.536	-0.06
179.914	-0.31
180.292	-0.2
180.67	-0
181.048	-0.07
181.427	-0.04
181.805	-0.45
182.183	-0.6
182.561	-0
182.939	-0
183.317	0.6
183.695	0.04
184.073	0.98
184.451	-0.45
184.829	-0
185.206	-0
185.584	0.09
185.962	-0.37
186.34	-0
186.718	-0.95
187.096	-0
187.473	-0.39
187.851	-0
188.229	0.26
188.607	0.14
188.984	0.29
189.362	0.24
189.74	0.2
190.117	0.21
190.495	0.16
190.872	0.43
191.25	0.35
191.627	0.16
192.005	0.22
192.382	0.21
192.76	0.15
193.137	0.15
193.515	0.23
193.892	0.2
194.269	0.15
194.647	0.38
195.024	0.33
195.401	0.23
195.779	0.22
196.156	0.32
196.533	0.18
196.91	0.28
197.288	0.28
197.665	0.19
198.042	0.18
198.419	0.18
198.796	0.3
199.173	0.28
199.55	0.18
199.927	0.29
200.304	0.25
200.681	0.5
201.058	0.33
201.435	0.34
201.812	0.42
202.189	0.2
202.566	0.17
202.943	0.22
203.32	0.24
203.697	0.2
204.073	0.23
204.45	0.25
204.827	0.31
205.204	0.28
205.58	0.3
205.957	0.26
206.334	0.2
206.71	0.28
207.087	0.32
207.464	0.34
207.84	0.2
208.217	0.35
208.593	0.41
208.97	0.28
209.346	0.3
209.723	0.27
210.099	0.29
210.476	0.29
210.852	0.23
211.228	0.29
211.605	0.49
211.981	0.21
212.357	0.27
212.733	0.19
213.11	0.23
213.486	0.34
213.862	0.39
214.238	0.26
214.614	0.26
214.991	0.32
215.367	0.18
215.743	0.27
216.119	0.28
216.495	0.31
216.871	0.4
217.247	0.26
217.623	0.21
217.999	0.25
218.375	0.31
218.751	0.43
219.127	0.28
219.502	0.21
219.878	0.24
220.254	0.19
220.63	0.51
221.006	0.18
221.381	0.3
221.757	0.45
222.133	0.21
222.508	0.31
222.884	0.35
223.26	0.26
223.635	0.27
224.011	0.4
224.386	0.38
224.762	0.32
225.137	0.26
225.513	0.35
225.888	0.47
226.264	0.37
226.639	0.31
227.014	0.38
227.39	0.25
227.765	0.29
228.14	0.27
228.516	0.27
228.891	0.3
229.266	0.36
229.641	0.26
230.017	0.27
230.392	0.37
230.767	0.23
231.142	0.33
231.517	0.26
231.892	0.4
232.267	0.26
232.642	0.25
233.017	0.24
233.392	0.3
233.767	0.22
234.142	0.2
234.517	0.47
234.892	0.51
235.267	0.34
235.641	0.18
236.016	0.31
236.391	0.29
236.766	0.23
237.14	0.13
237.515	0.3
237.89	0.31
238.264	0.4
238.639	0.29
239.014	0.27
239.388	0.22
239.763	0.27
240.137	0.3
240.512	0.21
240.886	0.25
241.261	0.25
241.635	0.35
242.009	0.3
242.384	0.22
242.758	0.32
243.132	0.27
243.507	0.2
243.881	0.26
244.255	0.2
244.629	0.29
245.004	0.29
245.378	0.26
245.752	0.33
246.126	0.4
246.5	0.3
246.874	0.25
247.248	0.31
247.622	0.14
247.996	0.22
248.37	0.27
248.744	0.25
249.118	0.37
249.492	0.29
249.866	0.28
250.24	0.19
250.613	0.23
250.987	0.34
251.361	0.28
251.735	0.41
252.108	0.28
252.482	0.26
252.856	0.42
253.229	0.25
253.603	0.23
253.977	0.43
254.35	0.35
254.724	0.26
255.097	0.26
255.471	0.25
255.844	0.29
256.218	0.27
256.591	0.35
256.964	0.25
257.338	0.32
257.711	0.3
258.084	0.33
258.458	0.31
258.831	0.42
259.204	0.4
259.577	0.28
259.95	0.29
260.323	0.27
260.697	0.25
261.07	0.31
261.443	0.29
261.816	0.3
262.189	0.33
262.562	0.38
262.935	0.34
263.308	0.29
263.68	0.18
264.053	0.4
264.426	0.37
264.799	0.29
265.172	0.32
265.545	0.46
265.917	0.43
266.29	0.39
266.663	0.33
267.035	0.33
267.408	0.34
267.781	0.31
268.153	0.36
268.526	0.31
268.898	0.17
269.271	0.35
269.643	0.36
270.016	0.24
270.388	0.32
270.76	0.26
271.133	0.23
271.505	0.31
271.877	0.34
272.25	0.3
272.622	0.38
272.994	0.34
273.366	0.36
273.739	0.34
274.111	0.29
274.483	0.3
274.855	0.29
275.227	0.28
275.599	0.27
275.971	0.3
276.343	0.29
276.715	0.27
277.087	0.35
277.459	0.27
277.831	0.31
278.203	0.34
278.574	0.31
278.946	0.24
279.318	0.36
279.69	0.29
280.061	0.31
280.433	0.26
280.805	0.33
281.176	0.35
281.548	0.35
281.92	0.27
282.291	0.33
282.663	0.36
283.034	0.27
283.406	0.22
283.777	0.31
284.148	0.31
284.52	0.39
284.891	0.3
285.262	0.35
285.634	0.29
286.005	0.35
286.376	0.34
286.747	0.32
287.119	0.26
287.49	0.35
287.861	0.3
288.232	0.3
288.603	0.29
288.974	0.35
289.345	0.42
289.716	0.24
290.087	0.38
290.458	0.31
290.829	0.27
291.2	0.34
291.571	0.33
291.941	0.33
292.312	0.28
292.683	0.33
293.054	0.39
293.424	0.39
293.795	0.32
294.166	0.31
294.536	0.3
294.907	0.27
295.277	0.35
295.648	0.31
296.018	0.28
296.389	0.33
296.759	0.32
297.13	0.29
297.5	0.4
297.871	0.36
298.241	0.34
298.611	0.52
298.981	0.37
299.352	0.3
299.722	0.38
300.092	0.32
300.462	0.28
300.832	0.32
301.202	0.35
301.573	0.3
301.943	0.28
302.313	0.31
302.683	0.29
303.053	0.31
303.422	0.31
303.792	0.31
304.162	0.28
304.532	0.25
304.902	0.27
305.272	0.25
305.641	0.3
306.011	0.3
306.381	0.28
306.75	0.23
307.12	0.26
307.49	0.27
307.859	0.27
308.229	0.28
308.598	0.27
308.968	0.2
309.337	0.21
309.707	0.22
310.076	0.24
310.445	0.26
310.815	0.22
311.184	0.22
311.553	0.2
311.923	0.21
312.292	0.23
312.661	0.21
313.03	0.25
313.399	0.22
313.768	0.24
314.137	0.24
314.506	0.21
314.875	0.24
315.244	0.25
315.613	0.27
315.982	0.27
316.351	0.25
316.72	0.27
317.089	0.27
317.458	0.27
317.826	0.25
318.195	0.28
318.564	0.28
318.933	0.29
319.301	0.28
319.67	0.29
320.038	0.29
320.407	0.29
320.775	0.31
321.144	0.31
321.512	0.31
321.881	0.31
322.249	0.31
322.618	0.32
322.986	0.33
323.354	0.31
323.723	0.34
324.091	0.34
324.459	0.35
324.827	0.34
325.195	0.36
325.564	0.35
325.932	0.36
326.3	0.35
326.668	0.37
327.036	0.36
327.404	0.39
327.772	0.38
328.14	0.39
328.508	0.39
328.875	0.4
329.243	0.42
329.611	0.42
329.979	0.42
330.346	0.42
330.714	0.44
331.082	0.46
331.449	0.44
331.817	0.46
332.185	0.47
332.552	0.47
332.92	0.49
333.287	0.49
333.655	0.5
334.022	0.5
334.389	0.52
334.757	0.53
335.124	0.53
335.491	0.55
335.859	0.56
336.226	0.58
336.593	0.58
336.96	0.59
337.327	0.6
337.695	0.61
338.062	0.63
338.429	0.63
338.796	0.64
339.163	0.65
339.53	0.67
339.897	0.68
340.263	0.7
340.63	0.7
340.997	0.72
341.364	0.73
341.731	0.74
342.097	0.75
342.464	0.77
342.831	0.77
343.197	0.78
343.564	0.8
343.931	0.81
344.297	0.82
344.664	0.84
345.03	0.85
345.396	0.86
345.763	0.88
346.129	0.89
346.496	0.9
346.862	0.91
347.228	0.92
347.594	0.94
347.961	0.95
348.327	0.96
348.693	0.97
349.059	0.99
349.425	0.99
349.791	1
350.157	1.03
350.523	1.02
350.889	1.05
351.255	1.05
351.621	1.06
351.987	1.08
352.353	1.08
352.719	1.09
353.084	1.12
353.45	1.12
353.816	1.14
354.181	1.13
354.547	1.16
354.913	1.17
355.278	1.19
355.644	1.19
356.009	1.22
356.375	1.22
356.74	1.26
357.106	1.25
357.471	1.27
357.836	1.28
358.202	1.3
358.567	1.31
358.932	1.34
359.297	1.34
359.663	1.36
360.028	1.39
360.393	1.4
360.758	1.42
361.123	1.42
361.488	1.46
361.853	1.46
362.218	1.49
362.583	1.51
362.948	1.5
363.312	1.53
363.677	1.54
364.042	1.56
364.407	1.58
364.772	1.6
365.136	1.59
365.501	1.62
365.865	1.63
366.23	1.62
366.595	1.63
366.959	1.67
367.324	1.66
367.688	1.66
368.052	1.67
368.417	1.68
368.781	1.69
369.145	1.72
369.51	1.71
369.874	1.72
370.238	1.77
370.602	1.75
370.967	1.71
371.331	1.76
371.695	1.75
372.059	1.76
372.423	1.78
372.787	1.73
373.151	1.75
373.515	1.75
373.878	1.72
374.242	1.75
374.606	1.77
374.97	1.73
375.334	1.73
375.697	1.7
376.061	1.68
376.425	1.67
376.788	1.63
377.152	1.67
377.515	1.65
377.879	1.64
378.242	1.62
378.606	1.58
378.969	1.56
379.333	1.57
379.696	1.53
380.059	1.52
380.422	1.51
380.786	1.5
381.149	1.46
381.512	1.46
381.875	1.45
382.238	1.43
382.601	1.42
382.964	1.39
383.327	1.38
383.69	1.35
384.053	1.35
384.416	1.31
384.779	1.31
385.142	1.31
385.504	1.3
385.867	1.27
386.23	1.27
386.593	1.27
386.955	1.26
387.318	1.26
387.68	1.25
388.043	1.24
388.405	1.23
388.768	1.23
389.13	1.22
389.493	1.2
389.855	1.2
390.217	1.18
390.58	1.18
390.942	1.17
391.304	1.15
391.666	1.14
392.028	1.13
392.391	1.11
392.753	1.09
393.115	1.08
393.477	1.06
393.839	1.05
394.201	1.04
394.563	1.03
394.924	1.03
395.286	1.03
395.648	1.03
396.01	1.04
396.371	1.05
396.733	1.06
397.095	1.07
397.456	1.08
397.818	1.11
398.18	1.12
398.541	1.14
398.903	1.17
399.264	1.2
399.625	1.2
399.987	1.23
400.348	1.25
400.709	1.27
401.071	1.28
401.432	1.27
401.793	1.29
402.154	1.27
402.515	1.25
402.876	1.26
403.238	1.22
403.599	1.19
403.96	1.16
404.32	1.11
404.681	1.08
405.042	1.05
405.403	0.99
405.764	0.95
406.125	0.91
406.485	0.87
406.846	0.82
407.207	0.78
407.567	0.73
407.928	0.7
408.288	0.66
408.649	0.63
409.009	0.6
409.37	0.57
409.73	0.53
410.091	0.51
410.451	0.48
410.811	0.45
411.171	0.43
411.532	0.4
411.892	0.4
412.252	0.38
412.612	0.36
412.972	0.34
413.332	0.33
413.692	0.32
414.052	0.3
414.412	0.29
414.772	0.28
415.132	0.27
415.492	0.26
415.851	0.26
416.211	0.26
416.571	0.24
416.931	0.23
417.29	0.23
417.65	0.22
418.009	0.22
418.369	0.22
418.728	0.21
419.088	0.21
419.447	0.2
419.807	0.19
420.166	0.19
420.525	0.19
420.884	0.17
421.244	0.18
421.603	0.17
421.962	0.17
422.321	0.17
422.68	0.17
423.039	0.16
423.398	0.16
423.757	0.16
424.116	0.16
424.475	0.16
424.834	0.16
425.193	0.15
425.551	0.15
425.91	0.15
426.269	0.15
426.628	0.15
426.986	0.14
427.345	0.15
427.703	0.14
428.062	0.14
428.42	0.13
428.779	0.15
429.137	0.14
429.496	0.14
429.854	0.14
430.212	0.14
430.57	0.14
430.929	0.14
431.287	0.13
431.645	0.13
432.003	0.14
432.361	0.13
432.719	0.13
433.077	0.13
433.435	0.13
433.793	0.13
434.151	0.14
434.509	0.13
434.866	0.13
435.224	0.13
435.582	0.13
435.94	0.13
436.297	0.13
436.655	0.13
437.012	0.14
437.37	0.13
437.727	0.13
438.085	0.14
438.442	0.13
438.8	0.13
439.157	0.13
439.514	0.14
439.872	0.13
440.229	0.14
440.586	0.13
440.943	0.14
441.3	0.13
441.657	0.13
442.014	0.14
442.371	0.14
442.728	0.14
443.085	0.14
443.442	0.14
443.799	0.13
444.156	0.14
444.513	0.13
444.869	0.13
445.226	0.14
445.583	0.14
445.939	0.14
446.296	0.15
446.652	0.14
447.009	0.14
447.365	0.14
447.722	0.15
448.078	0.15
448.434	0.15
448.791	0.15
449.147	0.14
449.503	0.16
449.859	0.15
450.215	0.15
450.571	0.15
450.928	0.15
451.284	0.16
451.64	0.16
451.995	0.16
452.351	0.16
452.707	0.17
453.063	0.15
453.419	0.16
453.775	0.16
454.13	0.17
454.486	0.17
454.842	0.16
455.197	0.17
455.553	0.17
455.908	0.17
456.264	0.17
456.619	0.17
456.975	0.17
457.33	0.17
457.685	0.18
458.04	0.18
458.396	0.19
458.751	0.17
459.106	0.18
459.461	0.19
459.816	0.18
460.171	0.19
460.526	0.18
460.881	0.19
461.236	0.19
461.591	0.2
461.946	0.19
462.301	0.19
462.655	0.2
463.01	0.2
463.365	0.2
463.719	0.2
464.074	0.19
464.428	0.2
464.783	0.2
465.137	0.21
465.492	0.21
465.846	0.21
466.201	0.21
466.555	0.21
466.909	0.21
467.263	0.21
467.618	0.21
467.972	0.22
468.326	0.22
468.68	0.23
469.034	0.23
469.388	0.23
469.742	0.23
470.096	0.23
470.45	0.24
470.804	0.24
471.157	0.24
471.511	0.24
471.865	0.25
472.218	0.26
472.572	0.25
472.926	0.26
473.279	0.26
473.633	0.26
473.986	0.27
474.34	0.27
474.693	0.27
475.046	0.28
475.4	0.28
475.753	0.28
476.106	0.29
476.459	0.29
476.812	0.3
477.165	0.3
477.519	0.3
477.872	0.3
478.224	0.31
478.577	0.32
478.93	0.32
479.283	0.32
479.636	0.32
479.989	0.34
480.341	0.33
480.694	0.34
481.047	0.34
481.399	0.34
481.752	0.35
482.104	0.35
482.457	0.36
482.809	0.36
483.162	0.36
483.514	0.37
483.866	0.37
484.219	0.37
484.571	0.38
484.923	0.38
485.275	0.38
485.627	0.39
485.979	0.39
486.331	0.39
486.683	0.39
487.035	0.4
487.387	0.41
487.739	0.4
488.091	0.41
488.443	0.41
488.794	0.42
489.146	0.42
489.498	0.42
489.849	0.43
490.201	0.43
490.552	0.43
490.904	0.44
491.255	0.45
491.607	0.43
491.958	0.44
492.309	0.45
492.661	0.45
493.012	0.46
493.363	0.46
493.714	0.46
494.065	0.47
494.416	0.47
494.767	0.48
495.118	0.48
495.469	0.49
495.82	0.49
496.171	0.49
496.522	0.49
496.872	0.49
497.223	0.5
497.574	0.51
497.924	0.51
498.275	0.51
498.626	0.51
498.976	0.52
499.327	0.52
499.677	0.53
500.027	0.53
500.378	0.54
500.728	0.53
501.078	0.55
501.428	0.54
501.779	0.55
502.129	0.55
502.479	0.56
502.829	0.56
503.179	0.57
503.529	0.57
503.879	0.57
504.229	0.58
504.578	0.57
504.928	0.58
505.278	0.59
505.628	0.59
505.977	0.59
506.327	0.6
506.676	0.6
507.026	0.6
507.375	0.6
507.725	0.61
508.074	0.61
508.424	0.61
508.773	0.62
509.122	0.62
509.471	0.63
509.82	0.62
510.17	0.62
510.519	0.64
510.868	0.64
511.217	0.64
511.566	0.65
511.915	0.65
512.263	0.66
512.612	0.66
512.961	0.66
513.31	0.66
513.659	0.66
514.007	0.67
514.356	0.67
514.704	0.67
515.053	0.68
515.401	0.68
515.75	0.69
516.098	0.69
516.447	0.69
516.795	0.69
517.143	0.69
517.491	0.69
517.839	0.69
518.188	0.7
518.536	0.7
518.884	0.71
519.232	0.7
519.58	0.71
519.928	0.71
520.275	0.71
520.623	0.73
520.971	0.72
521.319	0.73
521.666	0.73
522.014	0.73
522.362	0.73
522.709	0.73
523.057	0.73
523.404	0.73
523.752	0.74
524.099	0.75
524.446	0.75
524.794	0.75
525.141	0.75
525.488	0.75
525.835	0.75
526.182	0.75
526.529	0.76
526.876	0.76
527.223	0.76
527.57	0.77
527.917	0.76
528.264	0.77
528.611	0.77
528.958	0.77
529.304	0.78
529.651	0.77
529.998	0.78
530.344	0.78
530.691	0.78
531.037	0.78
531.384	0.79
531.73	0.79
532.076	0.79
532.423	0.79
532.769	0.79
533.115	0.79
533.461	0.8
533.807	0.8
534.154	0.8
534.5	0.8
534.846	0.8
535.192	0.8
535.537	0.8
535.883	0.8
536.229	0.81
536.575	0.81
536.921	0.81
537.266	0.81
537.612	0.81
537.957	0.81
538.303	0.82
538.649	0.81
538.994	0.82
539.339	0.82
539.685	0.82
540.03	0.82
540.375	0.82
540.721	0.83
541.066	0.82
541.411	0.82
541.756	0.83
542.101	0.83
542.446	0.83
542.791	0.82
543.136	0.83
543.481	0.83
543.825	0.84
544.17	0.83
544.515	0.83
544.86	0.83
545.204	0.83
545.549	0.84
545.893	0.84
546.238	0.84
546.582	0.84
546.927	0.84
547.271	0.84
547.615	0.84
547.96	0.84
548.304	0.84
548.648	0.84
548.992	0.84
549.336	0.84
549.68	0.84
550.024	0.85
550.368	0.84
550.712	0.84
551.056	0.84
551.4	0.84
551.743	0.84
552.087	0.84
552.431	0.85
552.774	0.84
553.118	0.84
553.462	0.84
553.805	0.84
554.148	0.84
554.492	0.83
554.835	0.84
555.178	0.84
555.522	0.85
555.865	0.84
556.208	0.84
556.551	0.84
556.894	0.84
557.237	0.84
557.58	0.84
557.923	0.83
558.266	0.83
558.609	0.83
558.952	0.83
559.294	0.83
559.637	0.83
559.98	0.83
560.322	0.83
560.665	0.83
561.007	0.83
561.35	0.82
561.692	0.83
562.034	0.82
562.377	0.82
562.719	0.82
563.061	0.82
563.403	0.82
563.745	0.82
564.088	0.82
564.43	0.82
564.772	0.81
565.113	0.81
565.455	0.81
565.797	0.81
566.139	0.81
566.481	0.81
566.822	0.81
567.164	0.81
567.506	0.81
567.847	0.81
568.189	0.81
568.53	0.8
568.872	0.8
569.213	0.8
569.554	0.8
569.895	0.8
570.237	0.8
570.578	0.8
570.919	0.79
571.26	0.79
571.601	0.79
571.942	0.79
572.283	0.79
572.624	0.78
572.965	0.78
573.306	0.77
573.646	0.77
573.987	0.77
574.328	0.77
574.668	0.77
575.009	0.77
575.349	0.76
575.69	0.77
576.03	0.76
576.37	0.76
576.711	0.75
577.051	0.75
577.391	0.76
577.731	0.76
578.072	0.75
578.412	0.75
578.752	0.75
579.092	0.75
579.431	0.74
579.771	0.72
580.111	0.71
580.451	0.72
580.791	0.73
581.13	0.74
581.47	0.74
581.81	0.74
582.149	0.73
582.489	0.73
582.828	0.72
583.167	0.7
583.507	0.66
583.846	0.64
584.185	0.67
584.525	0.69
584.864	0.71
585.203	0.72
585.542	0.73
585.881	0.72
586.22	0.72
586.559	0.72
586.898	0.71
587.236	0.7
587.575	0.7
587.914	0.7
588.252	0.71
588.591	0.71
588.93	0.71
589.268	0.71
589.607	0.71
589.945	0.71
590.283	0.71
590.622	0.71
590.96	0.72
591.298	0.72
591.636	0.71
591.974	0.72
592.313	0.72
592.651	0.72
592.989	0.71
593.326	0.72
593.664	0.72
594.002	0.71
594.34	0.71
594.678	0.7
595.015	0.7
595.353	0.7
595.691	0.7
596.028	0.71
596.366	0.7
596.703	0.71
597.04	0.7
597.378	0.71
597.715	0.71
598.052	0.71
598.389	0.71
598.726	0.71
599.064	0.71
599.401	0.71
599.738	0.7
600.074	0.7
600.411	0.7
600.748	0.7
601.085	0.69
601.422	0.69
601.758	0.69
602.095	0.69
602.432	0.68
602.768	0.69
603.105	0.69
603.441	0.69
603.777	0.69
604.114	0.69
604.45	0.69
604.786	0.69
605.122	0.69
605.459	0.68
605.795	0.68
606.131	0.68
606.467	0.68
606.803	0.68
607.139	0.68
607.474	0.67
607.81	0.67
608.146	0.67
608.482	0.67
608.817	0.66
609.153	0.66
609.488	0.66
609.824	0.66
610.159	0.66
610.495	0.66
610.83	0.66
611.165	0.66
611.5	0.66
611.836	0.65
612.171	0.65
612.506	0.65
612.841	0.65
613.176	0.64
613.511	0.64
613.845	0.64
614.18	0.63
614.515	0.63
614.85	0.63
615.184	0.63
615.519	0.63
615.854	0.62
616.188	0.63
616.523	0.62
616.857	0.62
617.191	0.62
617.526	0.61
617.86	0.61
618.194	0.61
618.528	0.61
618.862	0.61
619.196	0.61
619.53	0.61
619.864	0.6
620.198	0.6
620.532	0.6
620.866	0.6
621.2	0.6
621.533	0.59
621.867	0.59
622.201	0.59
622.534	0.58
622.868	0.59
623.201	0.58
623.534	0.58
623.868	0.58
624.201	0.58
624.534	0.58
624.868	0.57
625.201	0.57
625.534	0.57
625.867	0.56
626.2	0.56
626.533	0.56
626.865	0.56
627.198	0.55
627.531	0.55
627.864	0.55
628.196	0.54
628.529	0.54
628.862	0.53
629.194	0.54
629.527	0.53
629.859	0.53
630.191	0.52
630.524	0.52
630.856	0.52
631.188	0.52
631.52	0.51
631.852	0.51
632.184	0.51
632.516	0.51
632.848	0.5
633.18	0.5
633.512	0.5
633.844	0.49
634.175	0.49
634.507	0.49
634.839	0.49
635.17	0.48
635.502	0.48
635.833	0.48
636.165	0.47
636.496	0.47
636.827	0.46
637.159	0.46
637.49	0.46
637.821	0.46
638.152	0.45
638.483	0.45
638.814	0.45
639.145	0.45
639.476	0.44
639.807	0.44
640.137	0.44
640.468	0.43
640.799	0.43
641.129	0.43
641.46	0.43
641.791	0.43
642.121	0.42
642.451	0.42
642.782	0.41
643.112	0.41
643.442	0.41
643.773	0.41
644.103	0.41
644.433	0.4
644.763	0.4
645.093	0.4
645.423	0.4
645.753	0.4
646.082	0.39
646.412	0.39
646.742	0.39
647.072	0.39
647.401	0.39
647.731	0.38
648.06	0.38
648.39	0.38
648.719	0.37
649.048	0.37
649.378	0.37
649.707	0.37
650.036	0.37
650.365	0.37
650.694	0.36
651.023	0.36
651.352	0.36
651.681	0.36
652.01	0.36
652.339	0.36
652.668	0.36
652.996	0.36
653.325	0.36
653.654	0.36
653.982	0.36
654.311	0.36
654.639	0.35
654.967	0.35
655.296	0.35
655.624	0.35
655.952	0.35
656.28	0.35
656.609	0.34
656.937	0.35
657.265	0.34
657.593	0.22
657.92	0.12
658.248	0.08
658.576	0.1
658.904	0.2
659.231	0.28
659.559	0.33
659.887	0.33
660.214	0.33
660.542	0.33
660.869	0.33
661.196	0.32
661.524	0.32
661.851	0.32
662.178	0.32
662.505	0.32
662.832	0.32
663.159	0.32
663.486	0.32
663.813	0.32
664.14	0.31
664.467	0.31
664.794	0.31
665.12	0.31
665.447	0.31
665.774	0.31
666.1	0.3
666.427	0.3
666.753	0.31
667.079	0.3
667.406	0.3
667.732	0.3
668.058	0.3
668.384	0.3
668.71	0.29
669.036	0.29
669.362	0.29
669.688	0.29
670.014	0.29
670.34	0.29
670.666	0.28
670.991	0.28
671.317	0.28
671.643	0.28
671.968	0.28
672.294	0.28
672.619	0.27
672.945	0.27
673.27	0.27
673.595	0.26
673.92	0.26
674.246	0.26
674.571	0.26
674.896	0.26
675.221	0.26
675.546	0.25
675.87	0.26
676.195	0.25
676.52	0.25
676.845	0.25
677.169	0.24
677.494	0.24
677.819	0.24
678.143	0.24
678.468	0.24
678.792	0.23
679.116	0.23
679.44	0.23
679.765	0.23
680.089	0.22
680.413	0.22
680.737	0.22
681.061	0.21
681.385	0.22
681.709	0.21
682.033	0.21
682.356	0.21
682.68	0.21
683.004	0.21
683.327	0.2
683.651	0.2
683.974	0.2
684.298	0.19
684.621	0.19
684.944	0.19
685.268	0.19
685.591	0.19
685.914	0.19
686.237	0.19
686.56	0.18
686.883	0.18
687.206	0.17
687.529	0.17
687.852	0.17
688.175	0.17
688.497	0.17
688.82	0.17
689.142	0.16
689.465	0.16
689.787	0.16
690.11	0.16
690.432	0.15
690.755	0.15
691.077	0.15
691.399	0.15
691.721	0.15
692.043	0.15
692.365	0.15
692.687	0.15
693.009	0.14
693.331	0.14
693.653	0.14
693.974	0.14
694.296	0.14
694.618	0.14
694.939	0.14
695.261	0.13
695.582	0.13
695.904	0.13
696.225	0.13
696.546	0.13
696.868	0.13
697.189	0.12
697.51	0.12
697.831	0.12
698.152	0.12
698.473	0.12
698.794	0.11
699.114	0.11
699.435	0.1
699.756	0.11
700.077	0.11
700.397	0.11
700.718	0.11
701.038	0.11
701.359	0.11
701.679	0.11
701.999	0.11
702.32	0.11
702.64	0.11
702.96	0.11
703.28	0.11
703.6	0.11
703.92	0.1
704.24	0.1
704.56	0.1
704.879	0.1
705.199	0.1
705.519	0.1
705.838	0.1
706.158	0.1
706.478	0.1
706.797	0.11
707.116	0.11
707.436	0.1
707.755	0.1
708.074	0.1
708.393	0.1
708.712	0.09
709.031	0.08
709.35	0.08
709.669	0.08
709.988	0.08
710.307	0.08
710.626	0.09
710.944	0.09
711.263	0.1
711.582	0.1
711.9	0.1
712.219	0.09
712.537	0.09
712.855	0.09
713.174	0.09
713.492	0.1
713.81	0.1
714.128	0.09
714.446	0.1
714.764	0.09
715.082	0.09
715.4	0.09
715.718	0.09
716.035	0.09
716.353	0.1
716.671	0.09
716.988	0.09
717.306	0.09
717.623	0.1
717.941	0.1
718.258	0.1
718.575	0.1
718.893	0.1
719.21	0.1
719.527	0.1
719.844	0.1
720.161	0.09
720.478	0.1
720.795	0.1
721.112	0.1
721.428	0.1
721.745	0.1
722.062	0.1
722.378	0.1
722.695	0.1
723.011	0.1
723.328	0.1
723.644	0.1
723.96	0.1
724.276	0.1
724.593	0.11
724.909	0.1
725.225	0.1
725.541	0.11
725.857	0.1
726.173	0.11
726.488	0.11
726.804	0.1
727.12	0.1
727.435	0.1
727.751	0.1
728.067	0.11
728.382	0.1
728.697	0.1
729.013	0.1
729.328	0.1
729.643	0.1
729.958	0.1
730.273	0.1
730.588	0.1
730.903	0.1
731.218	0.1
731.533	0.1
731.848	0.1
732.163	0.1
732.477	0.1
732.792	0.1
733.107	0.09
733.421	0.1
733.736	0.1
734.05	0.1
734.364	0.1
734.678	0.1
734.993	0.1
735.307	0.1
735.621	0.1
735.935	0.09
736.249	0.09
736.563	0.1
736.877	0.1
737.19	0.09
737.504	0.09
737.818	0.09
738.131	0.09
738.445	0.1
738.758	0.09
739.072	0.09
739.385	0.09
739.698	0.09
740.012	0.09
740.325	0.09
740.638	0.09
740.951	0.09
741.264	0.09
741.577	0.09
741.89	0.09
742.203	0.09
742.515	0.09
742.828	0.09
743.141	0.09
743.453	0.09
743.766	0.09
744.078	0.09
744.391	0.09
744.703	0.09
745.015	0.09
745.327	0.09
745.639	0.08
745.952	0.08
746.264	0.08
746.575	0.08
746.887	0.08
747.199	0.08
747.511	0.08
747.823	0.08
748.134	0.08
748.446	0.07
748.757	0.07
749.069	0.07
749.38	0.07
749.692	0.07
750.003	0.07
750.314	0.07
750.625	0.07
750.936	0.07
751.248	0.07
751.559	0.07
751.869	0.07
752.18	0.07
752.491	0.07
752.802	0.07
753.112	0.07
753.423	0.07
753.734	0.06
754.044	0.07
754.355	0.07
754.665	0.06
754.975	0.06
755.285	0.06
755.596	0.06
755.906	0.06
756.216	0.06
756.526	0.06
756.836	0.06
757.146	0.06
757.455	0.06
757.765	0.06
758.075	0.06
758.385	0.05
758.694	0.05
759.004	0.05
759.313	0.05
759.622	0.05
759.932	0.06
760.241	0.06
760.55	0.05
760.859	0.05
761.168	0.05
761.477	0.05
761.786	0.05
762.095	0.05
762.404	0.05
762.713	0.05
763.021	0.05
763.33	0.05
763.639	0.06
763.947	0.05
764.256	0.05
764.564	0.05
764.872	0.05
765.181	0.05
765.489	0.05
765.797	0.05
766.105	0.05
766.413	0.05
766.721	0.05
767.029	0.05
767.337	0.05
767.644	0.05
767.952	0.05
768.26	0.05
768.567	0.05
768.875	0.05
769.182	0.05
769.49	0.05
769.797	0.05
770.104	0.05
770.411	0.05
770.718	0.05
771.026	0.05
771.333	0.05
771.639	0.06
771.946	0.05
772.253	0.05
772.56	0.05
772.867	0.05
773.173	0.05
773.48	0.05
773.786	0.05
774.093	0.05
774.399	0.05
774.705	0.05
775.012	0.05
775.318	0.05
775.624	0.05
775.93	0.05
776.236	0.05
776.542	0.05
776.848	0.05
777.154	0.05
777.459	0.05
777.765	0.05
778.071	0.05
778.376	0.05
778.682	0.05
778.987	0.05
779.292	0.05
779.598	0.05
779.903	0.05
780.208	0.05
780.513	0.05
780.818	0.05
781.123	0.05
781.428	0.05
781.733	0.05
782.038	0.05
782.343	0.05
782.647	0.05
782.952	0.05
783.256	0.05
783.561	0.05
783.865	0.05
784.17	0.06
784.474	0.06
784.778	0.06
785.082	0.06
785.386	0.06
785.69	0.06
785.994	0.06
786.298	0.06
786.602	0.06
786.906	0.06
787.209	0.06
787.513	0.06
787.817	0.06
788.12	0.06
788.424	0.06
788.727	0.06
789.03	0.06
789.333	0.06
789.637	0.06
789.94	0.06
790.243	0.06
790.546	0.06
790.849	0.06
791.152	0.06
791.454	0.06
791.757	0.06
792.06	0.07
792.362	0.06
792.665	0.06
792.967	0.06
793.27	0.06
793.572	0.07
793.874	0.06
794.177	0.07
794.479	0.07
794.781	0.06
795.083	0.06
795.385	0.06
795.687	0.06
795.989	0.06
796.29	0.06
796.592	0.06
796.894	0.06
797.195	0.07
797.497	0.07
797.798	0.07
798.1	0.07
798.401	0.07
798.702	0.07
799.003	0.07
799.304	0.06
799.605	0.07
799.906	0.07
800.207	0.07
800.508	0.07
800.809	0.07
801.11	0.07
801.41	0.07
801.711	0.07
802.011	0.07
802.312	0.07
802.612	0.07
802.913	0.07
803.213	0.07
803.513	0.07
803.813	0.07
804.113	0.07
804.413	0.06
804.713	0.06
805.013	0.06
805.313	0.07
805.613	0.07
805.912	0.07
806.212	0.07
806.511	0.07
806.811	0.07
807.11	0.07
807.41	0.08
807.709	0.08
808.008	0.08
808.307	0.08
808.606	0.08
808.905	0.08
809.204	0.08
809.503	0.08
809.802	0.08
810.101	0.08
810.399	0.08
810.698	0.08
810.997	0.08
811.295	0.08
811.593	0.08
811.892	0.08
812.19	0.08
812.488	0.07
812.786	0.07
813.084	0.08
813.383	0.08
813.68	0.08
813.978	0.08
814.276	0.09
814.574	0.08
814.872	0.09
815.169	0.09
815.467	0.08
815.764	0.09
816.062	0.09
816.359	0.09
816.656	0.09
816.954	0.09
817.251	0.09
817.548	0.09
817.845	0.09
818.142	0.09
818.439	0.09
818.735	0.09
819.032	0.09
819.329	0.09
819.626	0.09
819.922	0.09
820.219	0.09
820.515	0.09
820.811	0.1
821.108	0.1
821.404	0.09
821.7	0.09
821.996	0.1
822.292	0.09
822.588	0.09
822.884	0.1
823.18	0.1
823.475	0.09
823.771	0.1
824.067	0.1
824.362	0.09
824.658	0.09
824.953	0.09
825.249	0.09
825.544	0.1
825.839	0.1
826.134	0.1
826.429	0.1
826.724	0.09
827.019	0.1
827.314	0.1
827.609	0.1
827.904	0.1
828.198	0.1
828.493	0.1
828.787	0.1
829.082	0.1
829.376	0.1
829.671	0.1
829.965	0.1
830.259	0.11
830.553	0.11
830.847	0.11
831.141	0.11
831.435	0.1
831.729	0.11
832.023	0.11
832.317	0.11
832.61	0.11
832.904	0.11
833.197	0.11
833.491	0.11
833.784	0.11
834.077	0.11
834.371	0.1
834.664	0.11
834.957	0.11
835.25	0.11
835.543	0.11
835.836	0.1
836.129	0.1
836.421	0.1
836.714	0.11
837.007	0.1
837.299	0.11
837.592	0.11
837.884	0.11
838.177	0.11
838.469	0.11
838.761	0.1
839.053	0.1
839.345	0.11
839.637	0.11
839.929	0.12
840.221	0.11
840.513	0.12
840.805	0.11
841.096	0.11
841.388	0.12
841.68	0.11
841.971	0.11
842.262	0.11
842.554	0.12
842.845	0.12
843.136	0.12
843.427	0.12
843.718	0.12
844.009	0.12
844.3	0.12
844.591	0.13
844.882	0.11
845.173	0.12
845.463	0.12
845.754	0.13
846.044	0.13
846.335	0.13
846.625	0.13
846.915	0.13
847.206	0.13
847.496	0.13
847.786	0.13
848.076	0.13
848.366	0.14
848.656	0.13
848.945	0.12
849.235	0.13
849.525	0.13
849.814	0.13
850.104	0.13
850.393	0.13
850.683	0.12
850.972	0.12
851.261	0.13
851.551	0.13
851.84	0.13
852.129	0.13
852.418	0.13
852.707	0.14
852.995	0.13
853.284	0.14
853.573	0.13
853.862	0.12
854.15	0.12
854.439	0.12
854.727	0.13
855.015	0.12
855.304	0.13
855.592	0.14
855.88	0.13
856.168	0.14
856.456	0.14
856.744	0.15
857.032	0.15
857.32	0.16
857.607	0.16
857.895	0.15
858.183	0.14
858.47	0.13
858.757	0.15
859.045	0.14
859.332	0.14
859.619	0.14
859.907	0.15
860.194	0.15
860.481	0.14
860.768	0.15
861.054	0.16
861.341	0.14
861.628	0.15
861.915	0.16
862.201	0.15
862.488	0.16
862.774	0.15
863.061	0.15
863.347	0.13
863.633	0.16
863.919	0.14
864.205	0.15
864.491	0.13
864.777	0.14
865.063	0.15
865.349	0.15
865.635	0.14
865.92	0.14
866.206	0.16
866.492	0.17
866.777	0.14
867.062	0.14
867.348	0.14
867.633	0.16
867.918	0.13
868.203	0.15
868.488	0.15
868.773	0.12
869.058	0.14
869.343	0.14
869.628	0.16
869.912	0.16
870.197	0.14
870.482	0.13
870.766	0.18
871.05	0.15
871.335	0.15
871.619	0.12
871.903	0.16
872.187	0.15
872.471	0.14
872.755	0.11
873.039	0.13
873.323	0.15
873.607	0.14
873.89	0.2
874.174	0.19
874.458	0.14
874.741	0.17
875.024	0.16
875.308	0.13
875.591	0.19
875.874	0.17
876.157	0.2
876.44	0.14
876.723	0.16
877.006	0.14
877.289	0.13
877.572	0.15
877.854	0.13
878.137	0.05
878.42	0.08
878.702	0.22
878.984	0.15
879.267	0.1
879.549	0.2
879.831	0.18
880.113	0.15
880.395	0.14
880.677	0.2
880.959	0.13
