Data from Rubpy_BV_1500_EDTA_Buffered_Absorbance_14-38-52-568.txt Node
Date: Wed Jul 01 14:38:52 BST 2026
User: fpm-admin
Spectrometer: OFX00224
Trigger mode: 0
Integration Time (sec): 7.000000E-2
Scans to average: 3
Nonlinearity correction enabled: false
Boxcar width: 0
Storing dark spectrum: false
XAxis mode: Wavelengths
Number of Pixels in Spectrum: 2136
>>>>>Begin Spectral Data<<<<<
154.91	-0
155.289	-0
155.669	-0
156.048	0.81
156.428	-0
156.807	0.02
157.186	-0
157.566	0.14
157.945	-0
158.325	-0.12
158.704	-1.04
159.083	-0
159.462	0.51
159.842	0.39
160.221	-0.68
160.6	-0
160.979	-0.39
161.359	0.05
161.738	0.18
162.117	-0
162.496	-0.67
162.875	0.38
163.254	0.18
163.633	0.33
164.012	-0
164.391	0.87
164.77	0.21
165.149	-0
165.528	-0
165.907	-0
166.286	0.7
166.665	0.19
167.044	0.23
167.423	1.54
167.802	-0
168.181	0.1
168.559	-0
168.938	-0.19
169.317	0.49
169.696	0.15
170.074	-0
170.453	0.48
170.832	0.39
171.21	0.37
171.589	-0.4
171.968	-0
172.346	0.23
172.725	-0
173.103	-0
173.482	-1.11
173.861	-0.02
174.239	-0.78
174.617	0.15
174.996	0.16
175.374	-0.18
175.753	-0.62
176.131	-0
176.51	-0
176.888	1.2
177.266	-0
177.645	0.07
178.023	0.5
178.401	-0.15
178.779	0.07
179.158	0.17
179.536	0.45
179.914	0.19
180.292	0.51
180.67	-0
181.048	0.35
181.427	-0
181.805	0.3
182.183	-0.45
182.561	0.38
182.939	-0
183.317	0.36
183.695	0.06
184.073	-0
184.451	-0
184.829	-0
185.206	-0
185.584	-0
185.962	-0
186.34	-0
186.718	-0.78
187.096	-0.78
187.473	0.41
187.851	-0
188.229	0.65
188.607	0.19
188.984	0.46
189.362	0.33
189.74	0.31
190.117	0.16
190.495	0.28
190.872	0.29
191.25	0.39
191.627	0.32
192.005	0.12
192.382	0.34
192.76	0.32
193.137	0.25
193.515	0.16
193.892	0.22
194.269	0.19
194.647	0.45
195.024	0.24
195.401	0.23
195.779	0.23
196.156	0.28
196.533	0.51
196.91	0.32
197.288	0.28
197.665	0.19
198.042	0.32
198.419	0.27
198.796	0.4
199.173	0.24
199.55	0.17
199.927	0.39
200.304	0.28
200.681	0.29
201.058	0.36
201.435	0.23
201.812	0.37
202.189	0.31
202.566	0.3
202.943	0.24
203.32	0.21
203.697	0.28
204.073	0.35
204.45	0.3
204.827	0.74
205.204	0.29
205.58	0.22
205.957	0.23
206.334	0.21
206.71	0.16
207.087	0.4
207.464	0.25
207.84	0.18
208.217	0.36
208.593	0.39
208.97	0.26
209.346	0.43
209.723	0.28
210.099	0.29
210.476	0.33
210.852	0.3
211.228	0.26
211.605	0.22
211.981	0.2
212.357	0.24
212.733	0.26
213.11	0.2
213.486	0.37
213.862	0.5
214.238	0.35
214.614	0.21
214.991	0.31
215.367	0.18
215.743	0.22
216.119	0.24
216.495	0.28
216.871	0.35
217.247	0.29
217.623	0.24
217.999	0.25
218.375	0.3
218.751	0.4
219.127	0.32
219.502	0.17
219.878	0.22
220.254	0.23
220.63	0.56
221.006	0.28
221.381	0.51
221.757	0.34
222.133	0.24
222.508	0.5
222.884	0.37
223.26	0.25
223.635	0.34
224.011	0.57
224.386	0.42
224.762	0.39
225.137	0.35
225.513	0.38
225.888	0.35
226.264	0.4
226.639	0.3
227.014	0.34
227.39	0.25
227.765	0.42
228.14	0.35
228.516	0.22
228.891	0.36
229.266	0.3
229.641	0.44
230.017	0.41
230.392	0.31
230.767	0.2
231.142	0.28
231.517	0.24
231.892	0.3
232.267	0.24
232.642	0.26
233.017	0.28
233.392	0.39
233.767	0.23
234.142	0.25
234.517	0.39
234.892	0.33
235.267	0.41
235.641	0.24
236.016	0.25
236.391	0.3
236.766	0.33
237.14	0.24
237.515	0.39
237.89	0.43
238.264	0.44
238.639	0.4
239.014	0.35
239.388	0.22
239.763	0.45
240.137	0.35
240.512	0.42
240.886	0.36
241.261	0.5
241.635	0.28
242.009	0.35
242.384	0.44
242.758	0.35
243.132	0.2
243.507	0.33
243.881	0.34
244.255	0.27
244.629	0.31
245.004	0.32
245.378	0.38
245.752	0.25
246.126	0.51
246.5	0.48
246.874	0.32
247.248	0.28
247.622	0.23
247.996	0.3
248.37	0.31
248.744	0.23
249.118	0.44
249.492	0.47
249.866	0.3
250.24	0.35
250.613	0.29
250.987	0.3
251.361	0.26
251.735	0.32
252.108	0.44
252.482	0.2
252.856	0.39
253.229	0.36
253.603	0.34
253.977	0.3
254.35	0.39
254.724	0.27
255.097	0.38
255.471	0.25
255.844	0.25
256.218	0.35
256.591	0.33
256.964	0.27
257.338	0.23
257.711	0.36
258.084	0.35
258.458	0.36
258.831	0.36
259.204	0.29
259.577	0.43
259.95	0.26
260.323	0.29
260.697	0.37
261.07	0.39
261.443	0.48
261.816	0.36
262.189	0.33
262.562	0.33
262.935	0.25
263.308	0.3
263.68	0.24
264.053	0.3
264.426	0.45
264.799	0.44
265.172	0.37
265.545	0.42
265.917	0.27
266.29	0.37
266.663	0.35
267.035	0.29
267.408	0.27
267.781	0.42
268.153	0.34
268.526	0.43
268.898	0.32
269.271	0.36
269.643	0.32
270.016	0.29
270.388	0.27
270.76	0.33
271.133	0.35
271.505	0.32
271.877	0.34
272.25	0.28
272.622	0.46
272.994	0.25
273.366	0.36
273.739	0.34
274.111	0.36
274.483	0.27
274.855	0.4
275.227	0.4
275.599	0.23
275.971	0.51
276.343	0.29
276.715	0.3
277.087	0.39
277.459	0.38
277.831	0.33
278.203	0.33
278.574	0.26
278.946	0.28
279.318	0.4
279.69	0.34
280.061	0.37
280.433	0.29
280.805	0.26
281.176	0.38
281.548	0.31
281.92	0.4
282.291	0.33
282.663	0.44
283.034	0.29
283.406	0.27
283.777	0.38
284.148	0.29
284.52	0.4
284.891	0.3
285.262	0.43
285.634	0.31
286.005	0.38
286.376	0.29
286.747	0.3
287.119	0.32
287.49	0.35
287.861	0.34
288.232	0.38
288.603	0.31
288.974	0.44
289.345	0.36
289.716	0.3
290.087	0.37
290.458	0.45
290.829	0.3
291.2	0.38
291.571	0.31
291.941	0.37
292.312	0.32
292.683	0.39
293.054	0.38
293.424	0.33
293.795	0.31
294.166	0.4
294.536	0.38
294.907	0.49
295.277	0.43
295.648	0.35
296.018	0.33
296.389	0.39
296.759	0.37
297.13	0.34
297.5	0.4
297.871	0.31
298.241	0.35
298.611	0.54
298.981	0.46
299.352	0.3
299.722	0.43
300.092	0.43
300.462	0.32
300.832	0.31
301.202	0.35
301.573	0.27
301.943	0.31
302.313	0.36
302.683	0.32
303.053	0.35
303.422	0.36
303.792	0.31
304.162	0.33
304.532	0.37
304.902	0.25
305.272	0.3
305.641	0.29
306.011	0.32
306.381	0.25
306.75	0.25
307.12	0.29
307.49	0.29
307.859	0.33
308.229	0.27
308.598	0.3
308.968	0.28
309.337	0.25
309.707	0.27
310.076	0.3
310.445	0.3
310.815	0.26
311.184	0.27
311.553	0.22
311.923	0.28
312.292	0.29
312.661	0.28
313.03	0.3
313.399	0.29
313.768	0.3
314.137	0.29
314.506	0.27
314.875	0.3
315.244	0.32
315.613	0.32
315.982	0.33
316.351	0.31
316.72	0.32
317.089	0.32
317.458	0.33
317.826	0.33
318.195	0.34
318.564	0.33
318.933	0.36
319.301	0.34
319.67	0.37
320.038	0.36
320.407	0.36
320.775	0.38
321.144	0.38
321.512	0.38
321.881	0.38
322.249	0.4
322.618	0.39
322.986	0.42
323.354	0.41
323.723	0.43
324.091	0.41
324.459	0.43
324.827	0.42
325.195	0.44
325.564	0.44
325.932	0.45
326.3	0.45
326.668	0.46
327.036	0.48
327.404	0.49
327.772	0.49
328.14	0.51
328.508	0.51
328.875	0.51
329.243	0.53
329.611	0.54
329.979	0.55
330.346	0.55
330.714	0.55
331.082	0.56
331.449	0.57
331.817	0.58
332.185	0.59
332.552	0.6
332.92	0.62
333.287	0.63
333.655	0.64
334.022	0.64
334.389	0.66
334.757	0.67
335.124	0.68
335.491	0.71
335.859	0.71
336.226	0.72
336.593	0.74
336.96	0.75
337.327	0.76
337.695	0.79
338.062	0.79
338.429	0.81
338.796	0.83
339.163	0.83
339.53	0.85
339.897	0.86
340.263	0.88
340.63	0.9
340.997	0.93
341.364	0.93
341.731	0.96
342.097	0.96
342.464	0.98
342.831	1
343.197	1.01
343.564	1.03
343.931	1.05
344.297	1.06
344.664	1.08
345.03	1.09
345.396	1.11
345.763	1.12
346.129	1.12
346.496	1.15
346.862	1.16
347.228	1.18
347.594	1.2
347.961	1.21
348.327	1.24
348.693	1.24
349.059	1.27
349.425	1.27
349.791	1.28
350.157	1.3
350.523	1.31
350.889	1.33
351.255	1.33
351.621	1.35
351.987	1.37
352.353	1.38
352.719	1.4
353.084	1.44
353.45	1.43
353.816	1.44
354.181	1.42
354.547	1.47
354.913	1.47
355.278	1.51
355.644	1.5
356.009	1.55
356.375	1.54
356.74	1.57
357.106	1.55
357.471	1.58
357.836	1.61
358.202	1.64
358.567	1.63
358.932	1.67
359.297	1.68
359.663	1.7
360.028	1.73
360.393	1.72
360.758	1.76
361.123	1.78
361.488	1.79
361.853	1.8
362.218	1.85
362.583	1.86
362.948	1.85
363.312	1.86
363.677	1.86
364.042	1.88
364.407	1.88
364.772	1.92
365.136	1.94
365.501	1.98
365.865	1.9
366.23	1.95
366.595	1.92
366.959	1.97
367.324	1.96
367.688	1.95
368.052	2
368.417	1.93
368.781	1.96
369.145	2.03
369.51	1.99
369.874	2.03
370.238	2.02
370.602	2.04
370.967	1.96
371.331	2.01
371.695	2.05
372.059	2.06
372.423	2.08
372.787	2.02
373.151	2.12
373.515	2.09
373.878	2
374.242	2.04
374.606	2.03
374.97	2.1
375.334	1.95
375.697	2.01
376.061	1.95
376.425	2.01
376.788	1.98
377.152	2.02
377.515	1.92
377.879	1.95
378.242	1.94
378.606	1.92
378.969	1.9
379.333	1.89
379.696	1.9
380.059	1.89
380.422	1.88
380.786	1.83
381.149	1.85
381.512	1.82
381.875	1.78
382.238	1.77
382.601	1.71
382.964	1.73
383.327	1.68
383.69	1.7
384.053	1.67
384.416	1.64
384.779	1.64
385.142	1.62
385.504	1.61
385.867	1.6
386.23	1.58
386.593	1.56
386.955	1.57
387.318	1.54
387.68	1.53
388.043	1.52
388.405	1.52
388.768	1.52
389.13	1.52
389.493	1.48
389.855	1.48
390.217	1.47
390.58	1.46
390.942	1.42
391.304	1.43
391.666	1.41
392.028	1.4
392.391	1.37
392.753	1.36
393.115	1.33
393.477	1.31
393.839	1.32
394.201	1.28
394.563	1.28
394.924	1.27
395.286	1.27
395.648	1.27
396.01	1.27
396.371	1.28
396.733	1.29
397.095	1.32
397.456	1.32
397.818	1.35
398.18	1.38
398.541	1.39
398.903	1.43
399.264	1.46
399.625	1.48
399.987	1.5
400.348	1.52
400.709	1.55
401.071	1.56
401.432	1.54
401.793	1.56
402.154	1.53
402.515	1.52
402.876	1.51
403.238	1.47
403.599	1.44
403.96	1.4
404.32	1.35
404.681	1.3
405.042	1.26
405.403	1.2
405.764	1.16
406.125	1.11
406.485	1.07
406.846	0.99
407.207	0.95
407.567	0.91
407.928	0.86
408.288	0.81
408.649	0.78
409.009	0.73
409.37	0.69
409.73	0.65
410.091	0.62
410.451	0.59
410.811	0.56
411.171	0.54
411.532	0.51
411.892	0.49
412.252	0.47
412.612	0.45
412.972	0.43
413.332	0.41
413.692	0.4
414.052	0.38
414.412	0.37
414.772	0.35
415.132	0.34
415.492	0.33
415.851	0.33
416.211	0.31
416.571	0.3
416.931	0.29
417.29	0.29
417.65	0.28
418.009	0.27
418.369	0.27
418.728	0.26
419.088	0.26
419.447	0.24
419.807	0.24
420.166	0.24
420.525	0.23
420.884	0.23
421.244	0.23
421.603	0.22
421.962	0.21
422.321	0.21
422.68	0.21
423.039	0.2
423.398	0.21
423.757	0.2
424.116	0.2
424.475	0.21
424.834	0.2
425.193	0.19
425.551	0.19
425.91	0.19
426.269	0.18
426.628	0.18
426.986	0.19
427.345	0.17
427.703	0.18
428.062	0.19
428.42	0.17
428.779	0.18
429.137	0.17
429.496	0.17
429.854	0.17
430.212	0.18
430.57	0.17
430.929	0.17
431.287	0.17
431.645	0.15
432.003	0.17
432.361	0.16
432.719	0.17
433.077	0.16
433.435	0.16
433.793	0.17
434.151	0.18
434.509	0.17
434.866	0.17
435.224	0.17
435.582	0.16
435.94	0.17
436.297	0.16
436.655	0.16
437.012	0.17
437.37	0.16
437.727	0.16
438.085	0.17
438.442	0.17
438.8	0.16
439.157	0.16
439.514	0.17
439.872	0.16
440.229	0.17
440.586	0.16
440.943	0.18
441.3	0.18
441.657	0.16
442.014	0.17
442.371	0.17
442.728	0.17
443.085	0.18
443.442	0.18
443.799	0.17
444.156	0.17
444.513	0.18
444.869	0.18
445.226	0.18
445.583	0.18
445.939	0.18
446.296	0.19
446.652	0.18
447.009	0.19
447.365	0.19
447.722	0.19
448.078	0.19
448.434	0.19
448.791	0.19
449.147	0.19
449.503	0.19
449.859	0.19
450.215	0.2
450.571	0.19
450.928	0.19
451.284	0.2
451.64	0.2
451.995	0.2
452.351	0.2
452.707	0.22
453.063	0.21
453.419	0.21
453.775	0.21
454.13	0.2
454.486	0.22
454.842	0.21
455.197	0.21
455.553	0.22
455.908	0.22
456.264	0.23
456.619	0.22
456.975	0.22
457.33	0.23
457.685	0.23
458.04	0.22
458.396	0.23
458.751	0.23
459.106	0.24
459.461	0.25
459.816	0.23
460.171	0.24
460.526	0.25
460.881	0.25
461.236	0.25
461.591	0.25
461.946	0.25
462.301	0.26
462.655	0.26
463.01	0.26
463.365	0.26
463.719	0.26
464.074	0.26
464.428	0.26
464.783	0.27
465.137	0.27
465.492	0.27
465.846	0.27
466.201	0.26
466.555	0.27
466.909	0.27
467.263	0.28
467.618	0.29
467.972	0.29
468.326	0.29
468.68	0.3
469.034	0.3
469.388	0.3
469.742	0.3
470.096	0.3
470.45	0.31
470.804	0.32
471.157	0.31
471.511	0.32
471.865	0.32
472.218	0.33
472.572	0.33
472.926	0.34
473.279	0.34
473.633	0.34
473.986	0.35
474.34	0.35
474.693	0.36
475.046	0.37
475.4	0.37
475.753	0.38
476.106	0.38
476.459	0.38
476.812	0.38
477.165	0.39
477.519	0.4
477.872	0.4
478.224	0.41
478.577	0.41
478.93	0.42
479.283	0.42
479.636	0.42
479.989	0.43
480.341	0.43
480.694	0.44
481.047	0.45
481.399	0.44
481.752	0.46
482.104	0.46
482.457	0.47
482.809	0.47
483.162	0.47
483.514	0.48
483.866	0.48
484.219	0.49
484.571	0.49
484.923	0.49
485.275	0.5
485.627	0.51
485.979	0.51
486.331	0.51
486.683	0.52
487.035	0.52
487.387	0.52
487.739	0.53
488.091	0.54
488.443	0.54
488.794	0.55
489.146	0.55
489.498	0.55
489.849	0.56
490.201	0.57
490.552	0.57
490.904	0.57
491.255	0.58
491.607	0.58
491.958	0.59
492.309	0.59
492.661	0.6
493.012	0.6
493.363	0.61
493.714	0.61
494.065	0.62
494.416	0.62
494.767	0.62
495.118	0.63
495.469	0.63
495.82	0.64
496.171	0.65
496.522	0.65
496.872	0.66
497.223	0.66
497.574	0.66
497.924	0.66
498.275	0.67
498.626	0.67
498.976	0.68
499.327	0.69
499.677	0.68
500.027	0.69
500.378	0.7
500.728	0.7
501.078	0.71
501.428	0.71
501.779	0.72
502.129	0.73
502.479	0.72
502.829	0.72
503.179	0.73
503.529	0.74
503.879	0.74
504.229	0.75
504.578	0.76
504.928	0.76
505.278	0.76
505.628	0.77
505.977	0.78
506.327	0.78
506.676	0.79
507.026	0.79
507.375	0.8
507.725	0.8
508.074	0.8
508.424	0.8
508.773	0.81
509.122	0.81
509.471	0.83
509.82	0.81
510.17	0.82
510.519	0.83
510.868	0.84
511.217	0.84
511.566	0.85
511.915	0.85
512.263	0.85
512.612	0.86
512.961	0.86
513.31	0.86
513.659	0.87
514.007	0.88
514.356	0.88
514.704	0.88
515.053	0.89
515.401	0.89
515.75	0.9
516.098	0.89
516.447	0.9
516.795	0.89
517.143	0.9
517.491	0.91
517.839	0.91
518.188	0.92
518.536	0.92
518.884	0.93
519.232	0.92
519.58	0.93
519.928	0.94
520.275	0.93
520.623	0.94
520.971	0.95
521.319	0.95
521.666	0.95
522.014	0.95
522.362	0.96
522.709	0.96
523.057	0.96
523.404	0.97
523.752	0.97
524.099	0.97
524.446	0.98
524.794	0.98
525.141	0.98
525.488	0.98
525.835	0.99
526.182	0.99
526.529	0.99
526.876	1
527.223	1
527.57	1.01
527.917	0.99
528.264	1.01
528.611	1
528.958	1.01
529.304	1.01
529.651	1.01
529.998	1.02
530.344	1.01
530.691	1.02
531.037	1.03
531.384	1.02
531.73	1.02
532.076	1.03
532.423	1.03
532.769	1.03
533.115	1.03
533.461	1.04
533.807	1.04
534.154	1.04
534.5	1.04
534.846	1.04
535.192	1.05
535.537	1.05
535.883	1.05
536.229	1.06
536.575	1.06
536.921	1.05
537.266	1.06
537.612	1.06
537.957	1.06
538.303	1.07
538.649	1.07
538.994	1.06
539.339	1.06
539.685	1.07
540.03	1.07
540.375	1.08
540.721	1.07
541.066	1.07
541.411	1.06
541.756	1.08
542.101	1.08
542.446	1.08
542.791	1.08
543.136	1.08
543.481	1.08
543.825	1.09
544.17	1.08
544.515	1.09
544.86	1.08
545.204	1.08
545.549	1.09
545.893	1.08
546.238	1.09
546.582	1.08
546.927	1.09
547.271	1.09
547.615	1.09
547.96	1.09
548.304	1.1
548.648	1.09
548.992	1.09
549.336	1.08
549.68	1.09
550.024	1.1
550.368	1.1
550.712	1.09
551.056	1.1
551.4	1.1
551.743	1.09
552.087	1.1
552.431	1.09
552.774	1.1
553.118	1.09
553.462	1.09
553.805	1.08
554.148	1.08
554.492	1.08
554.835	1.09
555.178	1.09
555.522	1.09
555.865	1.09
556.208	1.08
556.551	1.09
556.894	1.09
557.237	1.09
557.58	1.08
557.923	1.08
558.266	1.08
558.609	1.08
558.952	1.07
559.294	1.09
559.637	1.07
559.98	1.08
560.322	1.08
560.665	1.07
561.007	1.07
561.35	1.07
561.692	1.07
562.034	1.07
562.377	1.07
562.719	1.07
563.061	1.07
563.403	1.07
563.745	1.07
564.088	1.07
564.43	1.07
564.772	1.06
565.113	1.06
565.455	1.06
565.797	1.06
566.139	1.06
566.481	1.06
566.822	1.06
567.164	1.06
567.506	1.05
567.847	1.04
568.189	1.05
568.53	1.05
568.872	1.05
569.213	1.03
569.554	1.03
569.895	1.03
570.237	1.03
570.578	1.03
570.919	1.03
571.26	1.02
571.601	1.03
571.942	1.02
572.283	1.02
572.624	1.02
572.965	1.01
573.306	1.01
573.646	1
573.987	1
574.328	1.01
574.668	1
575.009	1
575.349	0.99
575.69	0.99
576.03	0.99
576.37	0.98
576.711	0.98
577.051	0.98
577.391	0.99
577.731	0.98
578.072	0.98
578.412	0.97
578.752	0.97
579.092	0.97
579.431	0.96
579.771	0.94
580.111	0.93
580.451	0.94
580.791	0.96
581.13	0.96
581.47	0.95
581.81	0.95
582.149	0.95
582.489	0.95
582.828	0.93
583.167	0.92
583.507	0.87
583.846	0.86
584.185	0.89
584.525	0.91
584.864	0.93
585.203	0.94
585.542	0.94
585.881	0.93
586.22	0.94
586.559	0.93
586.898	0.91
587.236	0.91
587.575	0.91
587.914	0.91
588.252	0.92
588.591	0.92
588.93	0.92
589.268	0.92
589.607	0.92
589.945	0.92
590.283	0.92
590.622	0.92
590.96	0.92
591.298	0.92
591.636	0.92
591.974	0.92
592.313	0.92
592.651	0.92
592.989	0.92
593.326	0.92
593.664	0.92
594.002	0.92
594.34	0.91
594.678	0.91
595.015	0.9
595.353	0.9
595.691	0.91
596.028	0.91
596.366	0.91
596.703	0.91
597.04	0.91
597.378	0.9
597.715	0.91
598.052	0.91
598.389	0.91
598.726	0.91
599.064	0.91
599.401	0.9
599.738	0.9
600.074	0.9
600.411	0.9
600.748	0.9
601.085	0.89
601.422	0.89
601.758	0.89
602.095	0.88
602.432	0.89
602.768	0.88
603.105	0.89
603.441	0.89
603.777	0.89
604.114	0.89
604.45	0.89
604.786	0.89
605.122	0.88
605.459	0.88
605.795	0.87
606.131	0.87
606.467	0.87
606.803	0.87
607.139	0.87
607.474	0.86
607.81	0.86
608.146	0.86
608.482	0.86
608.817	0.85
609.153	0.85
609.488	0.85
609.824	0.85
610.159	0.84
610.495	0.85
610.83	0.84
611.165	0.84
611.5	0.84
611.836	0.83
612.171	0.83
612.506	0.83
612.841	0.83
613.176	0.82
613.511	0.82
613.845	0.82
614.18	0.82
614.515	0.82
614.85	0.81
615.184	0.81
615.519	0.81
615.854	0.8
616.188	0.8
616.523	0.8
616.857	0.79
617.191	0.79
617.526	0.78
617.86	0.79
618.194	0.78
618.528	0.78
618.862	0.78
619.196	0.78
619.53	0.77
619.864	0.77
620.198	0.77
620.532	0.77
620.866	0.76
621.2	0.76
621.533	0.75
621.867	0.75
622.201	0.75
622.534	0.75
622.868	0.75
623.201	0.75
623.534	0.74
623.868	0.74
624.201	0.73
624.534	0.73
624.868	0.73
625.201	0.73
625.534	0.72
625.867	0.72
626.2	0.71
626.533	0.71
626.865	0.71
627.198	0.7
627.531	0.7
627.864	0.69
628.196	0.7
628.529	0.69
628.862	0.69
629.194	0.68
629.527	0.68
629.859	0.68
630.191	0.67
630.524	0.67
630.856	0.67
631.188	0.66
631.52	0.66
631.852	0.65
632.184	0.65
632.516	0.65
632.848	0.64
633.18	0.64
633.512	0.64
633.844	0.63
634.175	0.63
634.507	0.63
634.839	0.62
635.17	0.62
635.502	0.61
635.833	0.61
636.165	0.61
636.496	0.6
636.827	0.6
637.159	0.59
637.49	0.59
637.821	0.58
638.152	0.58
638.483	0.57
638.814	0.57
639.145	0.57
639.476	0.56
639.807	0.56
640.137	0.56
640.468	0.56
640.799	0.55
641.129	0.55
641.46	0.55
641.791	0.54
642.121	0.54
642.451	0.54
642.782	0.53
643.112	0.53
643.442	0.53
643.773	0.52
644.103	0.52
644.433	0.51
644.763	0.51
645.093	0.51
645.423	0.51
645.753	0.5
646.082	0.5
646.412	0.5
646.742	0.49
647.072	0.49
647.401	0.49
647.731	0.49
648.06	0.48
648.39	0.48
648.719	0.48
649.048	0.48
649.378	0.47
649.707	0.47
650.036	0.47
650.365	0.47
650.694	0.47
651.023	0.47
651.352	0.46
651.681	0.46
652.01	0.46
652.339	0.46
652.668	0.46
652.996	0.46
653.325	0.46
653.654	0.46
653.982	0.46
654.311	0.45
654.639	0.45
654.967	0.45
655.296	0.44
655.624	0.45
655.952	0.44
656.28	0.44
656.609	0.44
656.937	0.44
657.265	0.43
657.593	0.31
657.92	0.2
658.248	0.16
658.576	0.19
658.904	0.29
659.231	0.37
659.559	0.42
659.887	0.42
660.214	0.42
660.542	0.42
660.869	0.42
661.196	0.41
661.524	0.41
661.851	0.41
662.178	0.41
662.505	0.41
662.832	0.4
663.159	0.41
663.486	0.4
663.813	0.4
664.14	0.4
664.467	0.4
664.794	0.4
665.12	0.4
665.447	0.39
665.774	0.39
666.1	0.39
666.427	0.39
666.753	0.39
667.079	0.39
667.406	0.38
667.732	0.38
668.058	0.38
668.384	0.38
668.71	0.37
669.036	0.37
669.362	0.37
669.688	0.37
670.014	0.37
670.34	0.36
670.666	0.36
670.991	0.36
671.317	0.35
671.643	0.35
671.968	0.35
672.294	0.35
672.619	0.35
672.945	0.34
673.27	0.34
673.595	0.34
673.92	0.33
674.246	0.33
674.571	0.33
674.896	0.33
675.221	0.32
675.546	0.32
675.87	0.32
676.195	0.32
676.52	0.32
676.845	0.31
677.169	0.31
677.494	0.31
677.819	0.31
678.143	0.3
678.468	0.3
678.792	0.3
679.116	0.29
679.44	0.29
679.765	0.29
680.089	0.28
680.413	0.28
680.737	0.28
681.061	0.27
681.385	0.27
681.709	0.27
682.033	0.27
682.356	0.27
682.68	0.26
683.004	0.26
683.327	0.26
683.651	0.25
683.974	0.25
684.298	0.25
684.621	0.25
684.944	0.24
685.268	0.24
685.591	0.24
685.914	0.24
686.237	0.23
686.56	0.23
686.883	0.22
687.206	0.22
687.529	0.22
687.852	0.22
688.175	0.22
688.497	0.22
688.82	0.21
689.142	0.21
689.465	0.21
689.787	0.2
690.11	0.2
690.432	0.2
690.755	0.2
691.077	0.2
691.399	0.19
691.721	0.19
692.043	0.19
692.365	0.19
692.687	0.19
693.009	0.18
693.331	0.18
693.653	0.18
693.974	0.18
694.296	0.17
694.618	0.17
694.939	0.17
695.261	0.17
695.582	0.17
695.904	0.17
696.225	0.17
696.546	0.16
696.868	0.16
697.189	0.16
697.51	0.16
697.831	0.16
698.152	0.16
698.473	0.15
698.794	0.14
699.114	0.15
699.435	0.13
699.756	0.14
700.077	0.14
700.397	0.15
700.718	0.15
701.038	0.15
701.359	0.15
701.679	0.14
701.999	0.14
702.32	0.14
702.64	0.14
702.96	0.14
703.28	0.14
703.6	0.13
703.92	0.13
704.24	0.13
704.56	0.13
704.879	0.13
705.199	0.13
705.519	0.13
705.838	0.13
706.158	0.13
706.478	0.13
706.797	0.13
707.116	0.13
707.436	0.13
707.755	0.13
708.074	0.13
708.393	0.12
708.712	0.12
709.031	0.11
709.35	0.11
709.669	0.11
709.988	0.11
710.307	0.11
710.626	0.11
710.944	0.12
711.263	0.12
711.582	0.12
711.9	0.12
712.219	0.12
712.537	0.12
712.855	0.12
713.174	0.12
713.492	0.12
713.81	0.12
714.128	0.12
714.446	0.12
714.764	0.12
715.082	0.11
715.4	0.12
715.718	0.12
716.035	0.12
716.353	0.12
716.671	0.12
716.988	0.12
717.306	0.12
717.623	0.12
717.941	0.13
718.258	0.13
718.575	0.13
718.893	0.13
719.21	0.13
719.527	0.13
719.844	0.12
720.161	0.12
720.478	0.13
720.795	0.13
721.112	0.13
721.428	0.13
721.745	0.13
722.062	0.13
722.378	0.13
722.695	0.13
723.011	0.13
723.328	0.13
723.644	0.13
723.96	0.13
724.276	0.13
724.593	0.13
724.909	0.13
725.225	0.13
725.541	0.13
725.857	0.13
726.173	0.13
726.488	0.13
726.804	0.13
727.12	0.13
727.435	0.13
727.751	0.13
728.067	0.13
728.382	0.13
728.697	0.13
729.013	0.13
729.328	0.13
729.643	0.13
729.958	0.13
730.273	0.13
730.588	0.13
730.903	0.13
731.218	0.13
731.533	0.13
731.848	0.13
732.163	0.13
732.477	0.13
732.792	0.12
733.107	0.12
733.421	0.12
733.736	0.12
734.05	0.13
734.364	0.12
734.678	0.13
734.993	0.12
735.307	0.13
735.621	0.12
735.935	0.12
736.249	0.12
736.563	0.12
736.877	0.12
737.19	0.12
737.504	0.12
737.818	0.12
738.131	0.12
738.445	0.12
738.758	0.12
739.072	0.12
739.385	0.12
739.698	0.12
740.012	0.12
740.325	0.12
740.638	0.11
740.951	0.11
741.264	0.11
741.577	0.11
741.89	0.11
742.203	0.12
742.515	0.11
742.828	0.11
743.141	0.11
743.453	0.11
743.766	0.11
744.078	0.11
744.391	0.11
744.703	0.1
745.015	0.11
745.327	0.11
745.639	0.1
745.952	0.1
746.264	0.1
746.575	0.1
746.887	0.1
747.199	0.1
747.511	0.1
747.823	0.1
748.134	0.1
748.446	0.09
748.757	0.09
749.069	0.09
749.38	0.09
749.692	0.09
750.003	0.09
750.314	0.09
750.625	0.09
750.936	0.09
751.248	0.09
751.559	0.09
751.869	0.09
752.18	0.09
752.491	0.09
752.802	0.09
753.112	0.08
753.423	0.09
753.734	0.08
754.044	0.08
754.355	0.08
754.665	0.08
754.975	0.08
755.285	0.08
755.596	0.08
755.906	0.08
756.216	0.08
756.526	0.08
756.836	0.08
757.146	0.08
757.455	0.08
757.765	0.07
758.075	0.07
758.385	0.07
758.694	0.07
759.004	0.07
759.313	0.07
759.622	0.07
759.932	0.07
760.241	0.07
760.55	0.07
760.859	0.07
761.168	0.07
761.477	0.07
761.786	0.07
762.095	0.07
762.404	0.07
762.713	0.07
763.021	0.07
763.33	0.07
763.639	0.07
763.947	0.07
764.256	0.07
764.564	0.07
764.872	0.07
765.181	0.07
765.489	0.07
765.797	0.06
766.105	0.06
766.413	0.06
766.721	0.06
767.029	0.07
767.337	0.07
767.644	0.07
767.952	0.07
768.26	0.07
768.567	0.07
768.875	0.06
769.182	0.06
769.49	0.06
769.797	0.06
770.104	0.07
770.411	0.06
770.718	0.06
771.026	0.06
771.333	0.07
771.639	0.07
771.946	0.07
772.253	0.07
772.56	0.07
772.867	0.07
773.173	0.07
773.48	0.07
773.786	0.06
774.093	0.07
774.399	0.07
774.705	0.07
775.012	0.06
775.318	0.07
775.624	0.06
775.93	0.07
776.236	0.07
776.542	0.07
776.848	0.07
777.154	0.07
777.459	0.07
777.765	0.07
778.071	0.07
778.376	0.06
778.682	0.07
778.987	0.07
779.292	0.07
779.598	0.07
779.903	0.07
780.208	0.07
780.513	0.07
780.818	0.07
781.123	0.07
781.428	0.07
781.733	0.06
782.038	0.07
782.343	0.06
782.647	0.06
782.952	0.07
783.256	0.07
783.561	0.07
783.865	0.07
784.17	0.07
784.474	0.08
784.778	0.08
785.082	0.07
785.386	0.08
785.69	0.08
785.994	0.08
786.298	0.08
786.602	0.08
786.906	0.08
787.209	0.08
787.513	0.08
787.817	0.08
788.12	0.08
788.424	0.08
788.727	0.08
789.03	0.08
789.333	0.07
789.637	0.08
789.94	0.08
790.243	0.08
790.546	0.08
790.849	0.08
791.152	0.08
791.454	0.08
791.757	0.08
792.06	0.09
792.362	0.09
792.665	0.08
792.967	0.08
793.27	0.08
793.572	0.08
793.874	0.08
794.177	0.08
794.479	0.08
794.781	0.08
795.083	0.08
795.385	0.08
795.687	0.08
795.989	0.08
796.29	0.08
796.592	0.09
796.894	0.09
797.195	0.09
797.497	0.09
797.798	0.09
798.1	0.09
798.401	0.09
798.702	0.09
799.003	0.09
799.304	0.08
799.605	0.09
799.906	0.09
800.207	0.09
800.508	0.09
800.809	0.09
801.11	0.09
801.41	0.09
801.711	0.09
802.011	0.09
802.312	0.09
802.612	0.1
802.913	0.09
803.213	0.09
803.513	0.09
803.813	0.09
804.113	0.09
804.413	0.08
804.713	0.09
805.013	0.09
805.313	0.09
805.613	0.09
805.912	0.09
806.212	0.09
806.511	0.1
806.811	0.1
807.11	0.1
807.41	0.1
807.709	0.1
808.008	0.1
808.307	0.1
808.606	0.11
808.905	0.1
809.204	0.11
809.503	0.11
809.802	0.11
810.101	0.1
810.399	0.1
810.698	0.11
810.997	0.11
811.295	0.1
811.593	0.11
811.892	0.1
812.19	0.1
812.488	0.1
812.786	0.1
813.084	0.1
813.383	0.1
813.68	0.1
813.978	0.1
814.276	0.1
814.574	0.11
814.872	0.11
815.169	0.11
815.467	0.11
815.764	0.11
816.062	0.11
816.359	0.11
816.656	0.12
816.954	0.12
817.251	0.12
817.548	0.12
817.845	0.12
818.142	0.12
818.439	0.12
818.735	0.12
819.032	0.12
819.329	0.11
819.626	0.12
819.922	0.12
820.219	0.12
820.515	0.12
820.811	0.12
821.108	0.13
821.404	0.13
821.7	0.12
821.996	0.12
822.292	0.12
822.588	0.13
822.884	0.13
823.18	0.13
823.475	0.13
823.771	0.12
824.067	0.13
824.362	0.13
824.658	0.13
824.953	0.13
825.249	0.12
825.544	0.13
825.839	0.13
826.134	0.13
826.429	0.13
826.724	0.12
827.019	0.13
827.314	0.13
827.609	0.13
827.904	0.14
828.198	0.13
828.493	0.13
828.787	0.13
829.082	0.13
829.376	0.13
829.671	0.14
829.965	0.15
830.259	0.14
830.553	0.14
830.847	0.14
831.141	0.14
831.435	0.14
831.729	0.15
832.023	0.14
832.317	0.14
832.61	0.15
832.904	0.15
833.197	0.15
833.491	0.15
833.784	0.15
834.077	0.15
834.371	0.14
834.664	0.14
834.957	0.15
835.25	0.14
835.543	0.14
835.836	0.14
836.129	0.14
836.421	0.14
836.714	0.15
837.007	0.14
837.299	0.15
837.592	0.15
837.884	0.15
838.177	0.15
838.469	0.15
838.761	0.15
839.053	0.15
839.345	0.16
839.637	0.15
839.929	0.16
840.221	0.16
840.513	0.16
840.805	0.15
841.096	0.15
841.388	0.15
841.68	0.16
841.971	0.15
842.262	0.16
842.554	0.15
842.845	0.16
843.136	0.16
843.427	0.17
843.718	0.16
844.009	0.16
844.3	0.17
844.591	0.16
844.882	0.16
845.173	0.17
845.463	0.16
845.754	0.17
846.044	0.17
846.335	0.18
846.625	0.17
846.915	0.18
847.206	0.18
847.496	0.18
847.786	0.18
848.076	0.17
848.366	0.18
848.656	0.17
848.945	0.17
849.235	0.16
849.525	0.17
849.814	0.17
850.104	0.17
850.393	0.18
850.683	0.17
850.972	0.18
851.261	0.17
851.551	0.18
851.84	0.18
852.129	0.17
852.418	0.17
852.707	0.18
852.995	0.17
853.284	0.18
853.573	0.19
853.862	0.18
854.15	0.18
854.439	0.19
854.727	0.18
855.015	0.18
855.304	0.18
855.592	0.19
855.88	0.19
856.168	0.18
856.456	0.18
856.744	0.18
857.032	0.19
857.32	0.19
857.607	0.2
857.895	0.19
858.183	0.19
858.47	0.19
858.757	0.19
859.045	0.2
859.332	0.19
859.619	0.19
859.907	0.21
860.194	0.2
860.481	0.19
860.768	0.19
861.054	0.21
861.341	0.19
861.628	0.2
861.915	0.21
862.201	0.2
862.488	0.24
862.774	0.2
863.061	0.21
863.347	0.19
863.633	0.2
863.919	0.2
864.205	0.18
864.491	0.2
864.777	0.19
865.063	0.2
865.349	0.2
865.635	0.21
865.92	0.2
866.206	0.22
866.492	0.21
866.777	0.2
867.062	0.2
867.348	0.17
867.633	0.2
867.918	0.18
868.203	0.21
868.488	0.19
868.773	0.19
869.058	0.19
869.343	0.23
869.628	0.22
869.912	0.18
870.197	0.2
870.482	0.22
870.766	0.21
871.05	0.17
871.335	0.21
871.619	0.2
871.903	0.22
872.187	0.17
872.471	0.19
872.755	0.19
873.039	0.2
873.323	0.21
873.607	0.2
873.89	0.24
874.174	0.17
874.458	0.17
874.741	0.28
875.024	0.22
875.308	0.15
875.591	0.2
875.874	0.18
876.157	0.25
876.44	0.24
876.723	0.22
877.006	0.16
877.289	0.15
877.572	0.19
877.854	0.21
878.137	0.14
878.42	0.1
878.702	0.22
878.984	0.16
879.267	0.19
879.549	0.11
879.831	0.18
880.113	0.22
880.395	0.17
880.677	0.22
880.959	0.21
