Data from Rubpy_BV_1500_EDTA_Buffered_Absorbance_14-33-36-649.txt Node
Date: Wed Jul 01 14:33:36 BST 2026
User: fpm-admin
Spectrometer: OFX00224
Trigger mode: 0
Integration Time (sec): 7.000000E-2
Scans to average: 3
Nonlinearity correction enabled: false
Boxcar width: 0
Storing dark spectrum: false
XAxis mode: Wavelengths
Number of Pixels in Spectrum: 2136
>>>>>Begin Spectral Data<<<<<
154.91	-0.35
155.289	0.36
155.669	-1.26
156.048	-0
156.428	-0
156.807	0.78
157.186	-0
157.566	-0.06
157.945	-0
158.325	-0
158.704	-0
159.083	-0
159.462	-0
159.842	-0.15
160.221	-0.37
160.6	-0
160.979	-0.57
161.359	0.3
161.738	-0
162.117	-0
162.496	-0.59
162.875	-0.22
163.254	-0
163.633	-0
164.012	-0
164.391	-0.1
164.77	-0
165.149	-0
165.528	0.7
165.907	-0
166.286	-0
166.665	0.08
167.044	-0
167.423	0.05
167.802	-0
168.181	0.8
168.559	0.11
168.938	-0.01
169.317	0.36
169.696	-0.03
170.074	-0.18
170.453	0.95
170.832	0.25
171.21	0.27
171.589	-0.09
171.968	-0.78
172.346	0.31
172.725	-0
173.103	0.98
173.482	-1
173.861	-0
174.239	-1.04
174.617	0.53
174.996	-0.07
175.374	-0.07
175.753	-0.36
176.131	-0
176.51	0.39
176.888	-0
177.266	-0
177.645	0.06
178.023	-0
178.401	-0.14
178.779	0.17
179.158	0.13
179.536	-0.08
179.914	0.32
180.292	0.24
180.67	-0.6
181.048	0.09
181.427	0.26
181.805	-0.62
182.183	-0
182.561	0.54
182.939	-0
183.317	-0.12
183.695	0.66
184.073	0.2
184.451	-0.49
184.829	-0
185.206	-0
185.584	0.18
185.962	-0
186.34	-0
186.718	-0.78
187.096	-0
187.473	0.11
187.851	0.95
188.229	-0
188.607	0.23
188.984	0.27
189.362	0.27
189.74	0.38
190.117	0.29
190.495	0.15
190.872	0.37
191.25	0.35
191.627	0.33
192.005	0.24
192.382	0.69
192.76	0.31
193.137	0.37
193.515	0.23
193.892	0.28
194.269	0.14
194.647	0.42
195.024	0.28
195.401	0.44
195.779	0.22
196.156	0.19
196.533	0.37
196.91	0.26
197.288	0.32
197.665	0.3
198.042	0.35
198.419	0.43
198.796	0.32
199.173	0.31
199.55	0.21
199.927	0.27
200.304	0.29
200.681	0.37
201.058	0.32
201.435	0.34
201.812	0.3
202.189	0.26
202.566	0.31
202.943	0.17
203.32	0.13
203.697	0.18
204.073	0.33
204.45	0.23
204.827	0.28
205.204	0.29
205.58	0.3
205.957	0.29
206.334	0.3
206.71	0.44
207.087	0.35
207.464	0.3
207.84	0.32
208.217	0.39
208.593	0.33
208.97	0.45
209.346	0.41
209.723	0.26
210.099	0.31
210.476	0.28
210.852	0.25
211.228	0.27
211.605	0.3
211.981	0.34
212.357	0.22
212.733	0.23
213.11	0.3
213.486	0.25
213.862	0.27
214.238	0.32
214.614	0.18
214.991	0.26
215.367	0.25
215.743	0.24
216.119	0.37
216.495	0.33
216.871	0.32
217.247	0.33
217.623	0.28
217.999	0.25
218.375	0.26
218.751	0.23
219.127	0.44
219.502	0.28
219.878	0.55
220.254	0.29
220.63	0.32
221.006	0.26
221.381	0.41
221.757	0.32
222.133	0.26
222.508	0.37
222.884	0.32
223.26	0.28
223.635	0.34
224.011	0.46
224.386	0.47
224.762	0.52
225.137	0.37
225.513	0.5
225.888	0.23
226.264	0.39
226.639	0.35
227.014	0.37
227.39	0.39
227.765	0.34
228.14	0.28
228.516	0.32
228.891	0.35
229.266	0.42
229.641	0.31
230.017	0.36
230.392	0.35
230.767	0.37
231.142	0.34
231.517	0.22
231.892	0.46
232.267	0.3
232.642	0.47
233.017	0.28
233.392	0.5
233.767	0.42
234.142	0.46
234.517	0.55
234.892	0.26
235.267	0.34
235.641	0.26
236.016	0.35
236.391	0.5
236.766	0.5
237.14	0.32
237.515	0.23
237.89	0.51
238.264	0.38
238.639	0.24
239.014	0.23
239.388	0.23
239.763	0.3
240.137	0.31
240.512	0.26
240.886	0.36
241.261	0.29
241.635	0.33
242.009	0.34
242.384	0.39
242.758	0.26
243.132	0.23
243.507	0.24
243.881	0.25
244.255	0.28
244.629	0.33
245.004	0.31
245.378	0.29
245.752	0.31
246.126	0.36
246.5	0.3
246.874	0.14
247.248	0.35
247.622	0.15
247.996	0.37
248.37	0.39
248.744	0.39
249.118	0.41
249.492	0.21
249.866	0.27
250.24	0.41
250.613	0.27
250.987	0.37
251.361	0.41
251.735	0.36
252.108	0.37
252.482	0.21
252.856	0.41
253.229	0.47
253.603	0.39
253.977	0.44
254.35	0.4
254.724	0.26
255.097	0.31
255.471	0.44
255.844	0.37
256.218	0.32
256.591	0.42
256.964	0.34
257.338	0.27
257.711	0.4
258.084	0.35
258.458	0.27
258.831	0.25
259.204	0.28
259.577	0.32
259.95	0.29
260.323	0.28
260.697	0.34
261.07	0.3
261.443	0.28
261.816	0.34
262.189	0.34
262.562	0.29
262.935	0.43
263.308	0.38
263.68	0.32
264.053	0.31
264.426	0.28
264.799	0.43
265.172	0.42
265.545	0.35
265.917	0.25
266.29	0.4
266.663	0.43
267.035	0.35
267.408	0.22
267.781	0.4
268.153	0.35
268.526	0.33
268.898	0.32
269.271	0.38
269.643	0.3
270.016	0.37
270.388	0.32
270.76	0.29
271.133	0.45
271.505	0.34
271.877	0.38
272.25	0.46
272.622	0.47
272.994	0.33
273.366	0.44
273.739	0.31
274.111	0.31
274.483	0.3
274.855	0.39
275.227	0.39
275.599	0.31
275.971	0.33
276.343	0.3
276.715	0.43
277.087	0.43
277.459	0.31
277.831	0.42
278.203	0.42
278.574	0.37
278.946	0.26
279.318	0.43
279.69	0.33
280.061	0.45
280.433	0.37
280.805	0.32
281.176	0.41
281.548	0.35
281.92	0.47
282.291	0.35
282.663	0.32
283.034	0.44
283.406	0.34
283.777	0.41
284.148	0.39
284.52	0.38
284.891	0.38
285.262	0.43
285.634	0.33
286.005	0.28
286.376	0.31
286.747	0.3
287.119	0.33
287.49	0.42
287.861	0.25
288.232	0.44
288.603	0.37
288.974	0.48
289.345	0.4
289.716	0.37
290.087	0.42
290.458	0.51
290.829	0.29
291.2	0.34
291.571	0.4
291.941	0.38
292.312	0.28
292.683	0.43
293.054	0.37
293.424	0.29
293.795	0.32
294.166	0.39
294.536	0.42
294.907	0.38
295.277	0.35
295.648	0.36
296.018	0.36
296.389	0.4
296.759	0.28
297.13	0.33
297.5	0.38
297.871	0.36
298.241	0.32
298.611	0.49
298.981	0.47
299.352	0.39
299.722	0.4
300.092	0.42
300.462	0.27
300.832	0.37
301.202	0.39
301.573	0.35
301.943	0.32
302.313	0.34
302.683	0.4
303.053	0.39
303.422	0.39
303.792	0.39
304.162	0.35
304.532	0.37
304.902	0.32
305.272	0.31
305.641	0.31
306.011	0.3
306.381	0.32
306.75	0.33
307.12	0.34
307.49	0.3
307.859	0.29
308.229	0.32
308.598	0.31
308.968	0.28
309.337	0.27
309.707	0.3
310.076	0.28
310.445	0.28
310.815	0.29
311.184	0.28
311.553	0.26
311.923	0.27
312.292	0.28
312.661	0.29
313.03	0.31
313.399	0.31
313.768	0.31
314.137	0.3
314.506	0.3
314.875	0.33
315.244	0.31
315.613	0.34
315.982	0.35
316.351	0.32
316.72	0.35
317.089	0.34
317.458	0.35
317.826	0.35
318.195	0.37
318.564	0.38
318.933	0.39
319.301	0.38
319.67	0.39
320.038	0.39
320.407	0.39
320.775	0.41
321.144	0.4
321.512	0.42
321.881	0.44
322.249	0.45
322.618	0.43
322.986	0.44
323.354	0.44
323.723	0.45
324.091	0.46
324.459	0.47
324.827	0.47
325.195	0.49
325.564	0.49
325.932	0.49
326.3	0.5
326.668	0.51
327.036	0.52
327.404	0.53
327.772	0.54
328.14	0.54
328.508	0.56
328.875	0.55
329.243	0.58
329.611	0.58
329.979	0.59
330.346	0.6
330.714	0.6
331.082	0.62
331.449	0.61
331.817	0.63
332.185	0.65
332.552	0.65
332.92	0.67
333.287	0.69
333.655	0.69
334.022	0.71
334.389	0.73
334.757	0.74
335.124	0.76
335.491	0.76
335.859	0.78
336.226	0.79
336.593	0.81
336.96	0.82
337.327	0.84
337.695	0.85
338.062	0.86
338.429	0.88
338.796	0.9
339.163	0.91
339.53	0.93
339.897	0.95
340.263	0.97
340.63	0.99
340.997	1
341.364	1.02
341.731	1.02
342.097	1.04
342.464	1.05
342.831	1.07
343.197	1.1
343.564	1.12
343.931	1.14
344.297	1.16
344.664	1.17
345.03	1.19
345.396	1.21
345.763	1.22
346.129	1.23
346.496	1.25
346.862	1.27
347.228	1.29
347.594	1.3
347.961	1.31
348.327	1.33
348.693	1.35
349.059	1.38
349.425	1.37
349.791	1.4
350.157	1.42
350.523	1.43
350.889	1.45
351.255	1.46
351.621	1.47
351.987	1.48
352.353	1.5
352.719	1.53
353.084	1.55
353.45	1.55
353.816	1.58
354.181	1.56
354.547	1.61
354.913	1.6
355.278	1.63
355.644	1.65
356.009	1.68
356.375	1.65
356.74	1.7
357.106	1.69
357.471	1.71
357.836	1.73
358.202	1.75
358.567	1.78
358.932	1.81
359.297	1.82
359.663	1.85
360.028	1.84
360.393	1.84
360.758	1.88
361.123	1.85
361.488	1.92
361.853	1.88
362.218	1.95
362.583	1.94
362.948	1.92
363.312	1.99
363.677	1.99
364.042	1.99
364.407	2.03
364.772	2
365.136	2.04
365.501	2.06
365.865	2.05
366.23	2.03
366.595	2.04
366.959	2.03
367.324	2.05
367.688	2.06
368.052	2.07
368.417	2.09
368.781	2.08
369.145	2.14
369.51	2.12
369.874	2.08
370.238	2.2
370.602	2.16
370.967	2.06
371.331	2.08
371.695	2.1
372.059	2.17
372.423	2.21
372.787	2.09
373.151	2.14
373.515	2.09
373.878	2.15
374.242	2.14
374.606	2.1
374.97	2.06
375.334	2.03
375.697	2.07
376.061	2.08
376.425	2.07
376.788	2.1
377.152	2.02
377.515	2.05
377.879	1.97
378.242	2.05
378.606	2.05
378.969	1.99
379.333	2.04
379.696	1.97
380.059	1.97
380.422	1.96
380.786	1.91
381.149	1.88
381.512	1.9
381.875	1.9
382.238	1.87
382.601	1.83
382.964	1.85
383.327	1.81
383.69	1.76
384.053	1.76
384.416	1.76
384.779	1.75
385.142	1.72
385.504	1.7
385.867	1.69
386.23	1.64
386.593	1.66
386.955	1.65
387.318	1.63
387.68	1.64
388.043	1.62
388.405	1.62
388.768	1.6
389.13	1.61
389.493	1.58
389.855	1.54
390.217	1.54
390.58	1.53
390.942	1.52
391.304	1.53
391.666	1.48
392.028	1.45
392.391	1.42
392.753	1.41
393.115	1.4
393.477	1.37
393.839	1.36
394.201	1.34
394.563	1.34
394.924	1.33
395.286	1.32
395.648	1.32
396.01	1.33
396.371	1.35
396.733	1.35
397.095	1.35
397.456	1.4
397.818	1.4
398.18	1.43
398.541	1.46
398.903	1.48
399.264	1.49
399.625	1.53
399.987	1.55
400.348	1.57
400.709	1.59
401.071	1.61
401.432	1.59
401.793	1.6
402.154	1.59
402.515	1.55
402.876	1.55
403.238	1.51
403.599	1.48
403.96	1.46
404.32	1.41
404.681	1.35
405.042	1.31
405.403	1.26
405.764	1.21
406.125	1.15
406.485	1.1
406.846	1.04
407.207	0.99
407.567	0.94
407.928	0.9
408.288	0.84
408.649	0.81
409.009	0.76
409.37	0.73
409.73	0.69
410.091	0.64
410.451	0.62
410.811	0.59
411.171	0.56
411.532	0.53
411.892	0.52
412.252	0.49
412.612	0.47
412.972	0.45
413.332	0.43
413.692	0.42
414.052	0.4
414.412	0.38
414.772	0.37
415.132	0.36
415.492	0.34
415.851	0.34
416.211	0.33
416.571	0.32
416.931	0.31
417.29	0.3
417.65	0.29
418.009	0.29
418.369	0.29
418.728	0.27
419.088	0.28
419.447	0.26
419.807	0.25
420.166	0.25
420.525	0.24
420.884	0.24
421.244	0.24
421.603	0.23
421.962	0.24
422.321	0.22
422.68	0.22
423.039	0.22
423.398	0.21
423.757	0.21
424.116	0.21
424.475	0.22
424.834	0.21
425.193	0.21
425.551	0.2
425.91	0.2
426.269	0.2
426.628	0.2
426.986	0.2
427.345	0.19
427.703	0.19
428.062	0.19
428.42	0.19
428.779	0.19
429.137	0.19
429.496	0.18
429.854	0.18
430.212	0.19
430.57	0.18
430.929	0.18
431.287	0.18
431.645	0.18
432.003	0.18
432.361	0.17
432.719	0.18
433.077	0.18
433.435	0.18
433.793	0.19
434.151	0.19
434.509	0.18
434.866	0.17
435.224	0.18
435.582	0.17
435.94	0.19
436.297	0.17
436.655	0.17
437.012	0.18
437.37	0.18
437.727	0.17
438.085	0.17
438.442	0.18
438.8	0.17
439.157	0.17
439.514	0.19
439.872	0.18
440.229	0.19
440.586	0.18
440.943	0.19
441.3	0.19
441.657	0.19
442.014	0.19
442.371	0.18
442.728	0.18
443.085	0.2
443.442	0.2
443.799	0.18
444.156	0.19
444.513	0.19
444.869	0.19
445.226	0.19
445.583	0.19
445.939	0.2
446.296	0.2
446.652	0.2
447.009	0.2
447.365	0.2
447.722	0.2
448.078	0.2
448.434	0.21
448.791	0.21
449.147	0.2
449.503	0.21
449.859	0.21
450.215	0.21
450.571	0.21
450.928	0.21
451.284	0.21
451.64	0.22
451.995	0.21
452.351	0.23
452.707	0.24
453.063	0.23
453.419	0.23
453.775	0.22
454.13	0.23
454.486	0.24
454.842	0.23
455.197	0.23
455.553	0.25
455.908	0.24
456.264	0.24
456.619	0.25
456.975	0.24
457.33	0.25
457.685	0.25
458.04	0.25
458.396	0.26
458.751	0.25
459.106	0.26
459.461	0.27
459.816	0.27
460.171	0.26
460.526	0.27
460.881	0.26
461.236	0.27
461.591	0.29
461.946	0.27
462.301	0.28
462.655	0.28
463.01	0.29
463.365	0.28
463.719	0.29
464.074	0.29
464.428	0.29
464.783	0.29
465.137	0.29
465.492	0.29
465.846	0.29
466.201	0.3
466.555	0.3
466.909	0.3
467.263	0.31
467.618	0.31
467.972	0.32
468.326	0.32
468.68	0.32
469.034	0.32
469.388	0.33
469.742	0.33
470.096	0.33
470.45	0.34
470.804	0.35
471.157	0.34
471.511	0.35
471.865	0.35
472.218	0.37
472.572	0.37
472.926	0.36
473.279	0.37
473.633	0.37
473.986	0.38
474.34	0.38
474.693	0.39
475.046	0.39
475.4	0.4
475.753	0.41
476.106	0.41
476.459	0.42
476.812	0.42
477.165	0.43
477.519	0.44
477.872	0.44
478.224	0.44
478.577	0.45
478.93	0.45
479.283	0.46
479.636	0.46
479.989	0.47
480.341	0.47
480.694	0.47
481.047	0.48
481.399	0.49
481.752	0.5
482.104	0.5
482.457	0.5
482.809	0.51
483.162	0.52
483.514	0.52
483.866	0.53
484.219	0.53
484.571	0.54
484.923	0.54
485.275	0.55
485.627	0.55
485.979	0.55
486.331	0.56
486.683	0.56
487.035	0.57
487.387	0.57
487.739	0.58
488.091	0.58
488.443	0.59
488.794	0.6
489.146	0.6
489.498	0.6
489.849	0.6
490.201	0.61
490.552	0.62
490.904	0.62
491.255	0.62
491.607	0.63
491.958	0.64
492.309	0.64
492.661	0.65
493.012	0.65
493.363	0.66
493.714	0.66
494.065	0.67
494.416	0.66
494.767	0.68
495.118	0.68
495.469	0.69
495.82	0.7
496.171	0.69
496.522	0.7
496.872	0.71
497.223	0.7
497.574	0.71
497.924	0.72
498.275	0.73
498.626	0.73
498.976	0.74
499.327	0.75
499.677	0.74
500.027	0.75
500.378	0.76
500.728	0.75
501.078	0.77
501.428	0.77
501.779	0.78
502.129	0.78
502.479	0.78
502.829	0.79
503.179	0.8
503.529	0.8
503.879	0.81
504.229	0.81
504.578	0.82
504.928	0.82
505.278	0.82
505.628	0.83
505.977	0.84
506.327	0.84
506.676	0.85
507.026	0.85
507.375	0.86
507.725	0.86
508.074	0.87
508.424	0.87
508.773	0.88
509.122	0.88
509.471	0.88
509.82	0.89
510.17	0.88
510.519	0.89
510.868	0.9
511.217	0.91
511.566	0.92
511.915	0.91
512.263	0.91
512.612	0.93
512.961	0.93
513.31	0.93
513.659	0.94
514.007	0.94
514.356	0.94
514.704	0.95
515.053	0.95
515.401	0.96
515.75	0.97
516.098	0.97
516.447	0.98
516.795	0.97
517.143	0.98
517.491	0.98
517.839	0.99
518.188	0.99
518.536	1
518.884	0.99
519.232	1
519.58	1
519.928	1.01
520.275	1
520.623	1.02
520.971	1.02
521.319	1.02
521.666	1.01
522.014	1.02
522.362	1.03
522.709	1.04
523.057	1.04
523.404	1.05
523.752	1.04
524.099	1.05
524.446	1.05
524.794	1.05
525.141	1.04
525.488	1.06
525.835	1.06
526.182	1.07
526.529	1.06
526.876	1.07
527.223	1.08
527.57	1.08
527.917	1.06
528.264	1.08
528.611	1.08
528.958	1.08
529.304	1.09
529.651	1.09
529.998	1.09
530.344	1.1
530.691	1.09
531.037	1.11
531.384	1.1
531.73	1.11
532.076	1.11
532.423	1.11
532.769	1.12
533.115	1.12
533.461	1.12
533.807	1.11
534.154	1.12
534.5	1.12
534.846	1.12
535.192	1.12
535.537	1.13
535.883	1.13
536.229	1.14
536.575	1.13
536.921	1.13
537.266	1.14
537.612	1.14
537.957	1.14
538.303	1.13
538.649	1.14
538.994	1.15
539.339	1.15
539.685	1.15
540.03	1.14
540.375	1.16
540.721	1.15
541.066	1.15
541.411	1.16
541.756	1.17
542.101	1.16
542.446	1.15
542.791	1.15
543.136	1.16
543.481	1.16
543.825	1.17
544.17	1.16
544.515	1.16
544.86	1.16
545.204	1.15
545.549	1.16
545.893	1.17
546.238	1.17
546.582	1.17
546.927	1.17
547.271	1.17
547.615	1.18
547.96	1.17
548.304	1.17
548.648	1.17
548.992	1.17
549.336	1.17
549.68	1.17
550.024	1.18
550.368	1.17
550.712	1.17
551.056	1.17
551.4	1.17
551.743	1.17
552.087	1.17
552.431	1.17
552.774	1.17
553.118	1.17
553.462	1.17
553.805	1.16
554.148	1.17
554.492	1.17
554.835	1.17
555.178	1.16
555.522	1.17
555.865	1.16
556.208	1.16
556.551	1.17
556.894	1.17
557.237	1.15
557.58	1.16
557.923	1.16
558.266	1.16
558.609	1.16
558.952	1.16
559.294	1.16
559.637	1.15
559.98	1.16
560.322	1.15
560.665	1.15
561.007	1.15
561.35	1.14
561.692	1.15
562.034	1.14
562.377	1.14
562.719	1.13
563.061	1.14
563.403	1.14
563.745	1.15
564.088	1.13
564.43	1.14
564.772	1.14
565.113	1.13
565.455	1.13
565.797	1.13
566.139	1.12
566.481	1.12
566.822	1.13
567.164	1.12
567.506	1.12
567.847	1.12
568.189	1.11
568.53	1.11
568.872	1.11
569.213	1.11
569.554	1.1
569.895	1.1
570.237	1.09
570.578	1.09
570.919	1.09
571.26	1.09
571.601	1.09
571.942	1.09
572.283	1.08
572.624	1.08
572.965	1.08
573.306	1.07
573.646	1.07
573.987	1.07
574.328	1.07
574.668	1.07
575.009	1.06
575.349	1.06
575.69	1.06
576.03	1.06
576.37	1.05
576.711	1.05
577.051	1.04
577.391	1.04
577.731	1.05
578.072	1.04
578.412	1.04
578.752	1.03
579.092	1.03
579.431	1.02
579.771	1
580.111	0.99
580.451	1
580.791	1.01
581.13	1.02
581.47	1.02
581.81	1.02
582.149	1.02
582.489	1.01
582.828	1
583.167	0.97
583.507	0.93
583.846	0.92
584.185	0.95
584.525	0.97
584.864	0.99
585.203	1
585.542	1
585.881	0.99
586.22	1
586.559	0.99
586.898	0.97
587.236	0.97
587.575	0.96
587.914	0.97
588.252	0.98
588.591	0.98
588.93	0.98
589.268	0.98
589.607	0.97
589.945	0.97
590.283	0.98
590.622	0.97
590.96	0.98
591.298	0.98
591.636	0.97
591.974	0.98
592.313	0.97
592.651	0.97
592.989	0.97
593.326	0.98
593.664	0.97
594.002	0.97
594.34	0.97
594.678	0.96
595.015	0.96
595.353	0.95
595.691	0.95
596.028	0.96
596.366	0.96
596.703	0.96
597.04	0.96
597.378	0.96
597.715	0.96
598.052	0.96
598.389	0.96
598.726	0.96
599.064	0.96
599.401	0.96
599.738	0.96
600.074	0.95
600.411	0.95
600.748	0.94
601.085	0.94
601.422	0.94
601.758	0.93
602.095	0.93
602.432	0.93
602.768	0.93
603.105	0.93
603.441	0.93
603.777	0.94
604.114	0.93
604.45	0.93
604.786	0.94
605.122	0.93
605.459	0.92
605.795	0.92
606.131	0.91
606.467	0.91
606.803	0.92
607.139	0.92
607.474	0.91
607.81	0.9
608.146	0.91
608.482	0.9
608.817	0.89
609.153	0.9
609.488	0.89
609.824	0.89
610.159	0.89
610.495	0.89
610.83	0.89
611.165	0.88
611.5	0.88
611.836	0.88
612.171	0.87
612.506	0.87
612.841	0.87
613.176	0.87
613.511	0.86
613.845	0.86
614.18	0.86
614.515	0.86
614.85	0.86
615.184	0.85
615.519	0.85
615.854	0.84
616.188	0.84
616.523	0.84
616.857	0.83
617.191	0.83
617.526	0.83
617.86	0.82
618.194	0.82
618.528	0.82
618.862	0.82
619.196	0.82
619.53	0.81
619.864	0.81
620.198	0.81
620.532	0.8
620.866	0.8
621.2	0.8
621.533	0.79
621.867	0.8
622.201	0.79
622.534	0.79
622.868	0.79
623.201	0.78
623.534	0.78
623.868	0.78
624.201	0.77
624.534	0.77
624.868	0.77
625.201	0.76
625.534	0.76
625.867	0.75
626.2	0.75
626.533	0.75
626.865	0.75
627.198	0.74
627.531	0.74
627.864	0.73
628.196	0.73
628.529	0.73
628.862	0.71
629.194	0.72
629.527	0.71
629.859	0.71
630.191	0.7
630.524	0.7
630.856	0.7
631.188	0.69
631.52	0.69
631.852	0.69
632.184	0.68
632.516	0.68
632.848	0.68
633.18	0.68
633.512	0.67
633.844	0.66
634.175	0.66
634.507	0.66
634.839	0.65
635.17	0.65
635.502	0.65
635.833	0.64
636.165	0.63
636.496	0.63
636.827	0.62
637.159	0.62
637.49	0.62
637.821	0.61
638.152	0.61
638.483	0.6
638.814	0.6
639.145	0.6
639.476	0.59
639.807	0.59
640.137	0.59
640.468	0.58
640.799	0.58
641.129	0.57
641.46	0.57
641.791	0.57
642.121	0.56
642.451	0.56
642.782	0.55
643.112	0.55
643.442	0.55
643.773	0.55
644.103	0.54
644.433	0.54
644.763	0.54
645.093	0.54
645.423	0.53
645.753	0.53
646.082	0.53
646.412	0.52
646.742	0.52
647.072	0.51
647.401	0.51
647.731	0.51
648.06	0.51
648.39	0.51
648.719	0.5
649.048	0.5
649.378	0.5
649.707	0.5
650.036	0.49
650.365	0.49
650.694	0.49
651.023	0.49
651.352	0.49
651.681	0.49
652.01	0.48
652.339	0.48
652.668	0.48
652.996	0.48
653.325	0.48
653.654	0.48
653.982	0.48
654.311	0.48
654.639	0.47
654.967	0.47
655.296	0.47
655.624	0.46
655.952	0.46
656.28	0.47
656.609	0.46
656.937	0.46
657.265	0.45
657.593	0.33
657.92	0.23
658.248	0.18
658.576	0.21
658.904	0.31
659.231	0.39
659.559	0.44
659.887	0.44
660.214	0.44
660.542	0.44
660.869	0.44
661.196	0.43
661.524	0.43
661.851	0.43
662.178	0.43
662.505	0.42
662.832	0.42
663.159	0.42
663.486	0.42
663.813	0.42
664.14	0.42
664.467	0.41
664.794	0.41
665.12	0.41
665.447	0.41
665.774	0.41
666.1	0.41
666.427	0.4
666.753	0.4
667.079	0.4
667.406	0.39
667.732	0.4
668.058	0.4
668.384	0.39
668.71	0.39
669.036	0.39
669.362	0.39
669.688	0.38
670.014	0.38
670.34	0.38
670.666	0.38
670.991	0.37
671.317	0.37
671.643	0.37
671.968	0.37
672.294	0.37
672.619	0.36
672.945	0.36
673.27	0.35
673.595	0.35
673.92	0.34
674.246	0.34
674.571	0.35
674.896	0.34
675.221	0.34
675.546	0.34
675.87	0.34
676.195	0.33
676.52	0.33
676.845	0.33
677.169	0.32
677.494	0.32
677.819	0.32
678.143	0.32
678.468	0.31
678.792	0.31
679.116	0.31
679.44	0.3
679.765	0.3
680.089	0.3
680.413	0.29
680.737	0.3
681.061	0.29
681.385	0.29
681.709	0.28
682.033	0.28
682.356	0.28
682.68	0.28
683.004	0.28
683.327	0.27
683.651	0.26
683.974	0.26
684.298	0.26
684.621	0.26
684.944	0.25
685.268	0.25
685.591	0.25
685.914	0.25
686.237	0.24
686.56	0.24
686.883	0.23
687.206	0.23
687.529	0.23
687.852	0.22
688.175	0.23
688.497	0.23
688.82	0.22
689.142	0.22
689.465	0.22
689.787	0.22
690.11	0.21
690.432	0.21
690.755	0.21
691.077	0.21
691.399	0.2
691.721	0.2
692.043	0.2
692.365	0.2
692.687	0.2
693.009	0.19
693.331	0.19
693.653	0.19
693.974	0.19
694.296	0.18
694.618	0.18
694.939	0.18
695.261	0.18
695.582	0.18
695.904	0.17
696.225	0.17
696.546	0.17
696.868	0.17
697.189	0.17
697.51	0.17
697.831	0.17
698.152	0.17
698.473	0.16
698.794	0.15
699.114	0.15
699.435	0.14
699.756	0.15
700.077	0.15
700.397	0.15
700.718	0.15
701.038	0.15
701.359	0.15
701.679	0.15
701.999	0.15
702.32	0.15
702.64	0.14
702.96	0.14
703.28	0.14
703.6	0.14
703.92	0.14
704.24	0.14
704.56	0.13
704.879	0.13
705.199	0.14
705.519	0.14
705.838	0.14
706.158	0.14
706.478	0.14
706.797	0.14
707.116	0.14
707.436	0.14
707.755	0.14
708.074	0.14
708.393	0.13
708.712	0.13
709.031	0.12
709.35	0.12
709.669	0.11
709.988	0.12
710.307	0.12
710.626	0.12
710.944	0.13
711.263	0.13
711.582	0.13
711.9	0.13
712.219	0.13
712.537	0.13
712.855	0.13
713.174	0.13
713.492	0.13
713.81	0.13
714.128	0.13
714.446	0.13
714.764	0.12
715.082	0.12
715.4	0.13
715.718	0.12
716.035	0.12
716.353	0.13
716.671	0.12
716.988	0.12
717.306	0.12
717.623	0.13
717.941	0.13
718.258	0.14
718.575	0.14
718.893	0.13
719.21	0.13
719.527	0.13
719.844	0.13
720.161	0.13
720.478	0.13
720.795	0.13
721.112	0.13
721.428	0.13
721.745	0.13
722.062	0.13
722.378	0.13
722.695	0.13
723.011	0.13
723.328	0.13
723.644	0.13
723.96	0.14
724.276	0.14
724.593	0.14
724.909	0.14
725.225	0.14
725.541	0.14
725.857	0.14
726.173	0.14
726.488	0.14
726.804	0.14
727.12	0.13
727.435	0.13
727.751	0.13
728.067	0.14
728.382	0.14
728.697	0.13
729.013	0.14
729.328	0.13
729.643	0.14
729.958	0.13
730.273	0.13
730.588	0.13
730.903	0.14
731.218	0.13
731.533	0.13
731.848	0.13
732.163	0.13
732.477	0.13
732.792	0.13
733.107	0.12
733.421	0.13
733.736	0.13
734.05	0.13
734.364	0.13
734.678	0.13
734.993	0.13
735.307	0.13
735.621	0.13
735.935	0.13
736.249	0.13
736.563	0.13
736.877	0.13
737.19	0.13
737.504	0.13
737.818	0.12
738.131	0.12
738.445	0.12
738.758	0.12
739.072	0.12
739.385	0.12
739.698	0.12
740.012	0.12
740.325	0.12
740.638	0.12
740.951	0.12
741.264	0.12
741.577	0.12
741.89	0.12
742.203	0.12
742.515	0.12
742.828	0.12
743.141	0.12
743.453	0.12
743.766	0.11
744.078	0.11
744.391	0.11
744.703	0.11
745.015	0.11
745.327	0.11
745.639	0.11
745.952	0.11
746.264	0.1
746.575	0.1
746.887	0.1
747.199	0.1
747.511	0.1
747.823	0.1
748.134	0.1
748.446	0.1
748.757	0.1
749.069	0.09
749.38	0.09
749.692	0.09
750.003	0.09
750.314	0.09
750.625	0.1
750.936	0.1
751.248	0.09
751.559	0.1
751.869	0.1
752.18	0.09
752.491	0.09
752.802	0.09
753.112	0.09
753.423	0.09
753.734	0.09
754.044	0.09
754.355	0.09
754.665	0.09
754.975	0.08
755.285	0.08
755.596	0.08
755.906	0.08
756.216	0.08
756.526	0.09
756.836	0.08
757.146	0.08
757.455	0.08
757.765	0.08
758.075	0.08
758.385	0.08
758.694	0.07
759.004	0.07
759.313	0.07
759.622	0.07
759.932	0.08
760.241	0.08
760.55	0.08
760.859	0.07
761.168	0.08
761.477	0.07
761.786	0.07
762.095	0.07
762.404	0.07
762.713	0.07
763.021	0.07
763.33	0.07
763.639	0.08
763.947	0.07
764.256	0.07
764.564	0.08
764.872	0.07
765.181	0.08
765.489	0.07
765.797	0.07
766.105	0.07
766.413	0.07
766.721	0.07
767.029	0.07
767.337	0.07
767.644	0.07
767.952	0.07
768.26	0.07
768.567	0.07
768.875	0.07
769.182	0.07
769.49	0.07
769.797	0.07
770.104	0.07
770.411	0.07
770.718	0.06
771.026	0.07
771.333	0.07
771.639	0.07
771.946	0.07
772.253	0.07
772.56	0.07
772.867	0.07
773.173	0.07
773.48	0.07
773.786	0.07
774.093	0.07
774.399	0.07
774.705	0.07
775.012	0.07
775.318	0.07
775.624	0.07
775.93	0.07
776.236	0.07
776.542	0.07
776.848	0.08
777.154	0.08
777.459	0.07
777.765	0.07
778.071	0.07
778.376	0.07
778.682	0.07
778.987	0.07
779.292	0.07
779.598	0.07
779.903	0.08
780.208	0.08
780.513	0.08
780.818	0.07
781.123	0.08
781.428	0.07
781.733	0.07
782.038	0.07
782.343	0.07
782.647	0.07
782.952	0.07
783.256	0.07
783.561	0.07
783.865	0.08
784.17	0.08
784.474	0.08
784.778	0.08
785.082	0.08
785.386	0.08
785.69	0.08
785.994	0.08
786.298	0.08
786.602	0.08
786.906	0.08
787.209	0.09
787.513	0.08
787.817	0.09
788.12	0.09
788.424	0.09
788.727	0.09
789.03	0.08
789.333	0.08
789.637	0.09
789.94	0.09
790.243	0.09
790.546	0.09
790.849	0.09
791.152	0.09
791.454	0.09
791.757	0.09
792.06	0.09
792.362	0.09
792.665	0.09
792.967	0.09
793.27	0.09
793.572	0.09
793.874	0.09
794.177	0.09
794.479	0.09
794.781	0.09
795.083	0.09
795.385	0.09
795.687	0.09
795.989	0.09
796.29	0.09
796.592	0.09
796.894	0.09
797.195	0.1
797.497	0.1
797.798	0.1
798.1	0.1
798.401	0.1
798.702	0.1
799.003	0.1
799.304	0.09
799.605	0.09
799.906	0.09
800.207	0.1
800.508	0.09
800.809	0.09
801.11	0.09
801.41	0.1
801.711	0.1
802.011	0.1
802.312	0.1
802.612	0.11
802.913	0.1
803.213	0.1
803.513	0.1
803.813	0.1
804.113	0.1
804.413	0.1
804.713	0.1
805.013	0.1
805.313	0.1
805.613	0.1
805.912	0.1
806.212	0.1
806.511	0.1
806.811	0.1
807.11	0.1
807.41	0.11
807.709	0.11
808.008	0.11
808.307	0.11
808.606	0.11
808.905	0.11
809.204	0.12
809.503	0.12
809.802	0.12
810.101	0.12
810.399	0.11
810.698	0.12
810.997	0.11
811.295	0.11
811.593	0.11
811.892	0.11
812.19	0.11
812.488	0.11
812.786	0.1
813.084	0.11
813.383	0.11
813.68	0.11
813.978	0.11
814.276	0.12
814.574	0.12
814.872	0.12
815.169	0.12
815.467	0.12
815.764	0.12
816.062	0.12
816.359	0.12
816.656	0.13
816.954	0.13
817.251	0.13
817.548	0.13
817.845	0.13
818.142	0.13
818.439	0.13
818.735	0.13
819.032	0.13
819.329	0.12
819.626	0.13
819.922	0.13
820.219	0.13
820.515	0.13
820.811	0.13
821.108	0.13
821.404	0.14
821.7	0.13
821.996	0.14
822.292	0.13
822.588	0.13
822.884	0.14
823.18	0.14
823.475	0.14
823.771	0.14
824.067	0.14
824.362	0.14
824.658	0.14
824.953	0.13
825.249	0.13
825.544	0.14
825.839	0.14
826.134	0.14
826.429	0.14
826.724	0.14
827.019	0.14
827.314	0.14
827.609	0.14
827.904	0.15
828.198	0.14
828.493	0.14
828.787	0.14
829.082	0.14
829.376	0.14
829.671	0.15
829.965	0.15
830.259	0.15
830.553	0.16
830.847	0.15
831.141	0.15
831.435	0.15
831.729	0.16
832.023	0.15
832.317	0.15
832.61	0.16
832.904	0.16
833.197	0.16
833.491	0.16
833.784	0.16
834.077	0.16
834.371	0.16
834.664	0.15
834.957	0.16
835.25	0.16
835.543	0.16
835.836	0.16
836.129	0.16
836.421	0.16
836.714	0.16
837.007	0.16
837.299	0.16
837.592	0.16
837.884	0.16
838.177	0.16
838.469	0.16
838.761	0.16
839.053	0.16
839.345	0.16
839.637	0.16
839.929	0.18
840.221	0.17
840.513	0.17
840.805	0.17
841.096	0.16
841.388	0.17
841.68	0.17
841.971	0.17
842.262	0.17
842.554	0.17
842.845	0.17
843.136	0.17
843.427	0.18
843.718	0.18
844.009	0.17
844.3	0.18
844.591	0.18
844.882	0.17
845.173	0.18
845.463	0.18
845.754	0.19
846.044	0.18
846.335	0.18
846.625	0.19
846.915	0.18
847.206	0.19
847.496	0.2
847.786	0.19
848.076	0.19
848.366	0.19
848.656	0.19
848.945	0.18
849.235	0.18
849.525	0.18
849.814	0.19
850.104	0.19
850.393	0.19
850.683	0.2
850.972	0.18
851.261	0.19
851.551	0.19
851.84	0.19
852.129	0.2
852.418	0.19
852.707	0.19
852.995	0.19
853.284	0.2
853.573	0.19
853.862	0.19
854.15	0.19
854.439	0.2
854.727	0.19
855.015	0.19
855.304	0.19
855.592	0.2
855.88	0.2
856.168	0.2
856.456	0.2
856.744	0.19
857.032	0.21
857.32	0.2
857.607	0.2
857.895	0.21
858.183	0.2
858.47	0.2
858.757	0.21
859.045	0.21
859.332	0.21
859.619	0.21
859.907	0.21
860.194	0.21
860.481	0.2
860.768	0.22
861.054	0.21
861.341	0.22
861.628	0.22
861.915	0.22
862.201	0.23
862.488	0.23
862.774	0.2
863.061	0.21
863.347	0.21
863.633	0.22
863.919	0.2
864.205	0.18
864.491	0.2
864.777	0.2
865.063	0.22
865.349	0.2
865.635	0.21
865.92	0.21
866.206	0.23
866.492	0.23
866.777	0.24
867.062	0.24
867.348	0.21
867.633	0.2
867.918	0.22
868.203	0.22
868.488	0.23
868.773	0.21
869.058	0.19
869.343	0.22
869.628	0.21
869.912	0.21
870.197	0.21
870.482	0.26
870.766	0.23
871.05	0.23
871.335	0.24
871.619	0.26
871.903	0.2
872.187	0.18
872.471	0.23
872.755	0.19
873.039	0.21
873.323	0.19
873.607	0.22
873.89	0.21
874.174	0.21
874.458	0.2
874.741	0.24
875.024	0.21
875.308	0.22
875.591	0.27
875.874	0.18
876.157	0.27
876.44	0.2
876.723	0.28
877.006	0.22
877.289	0.17
877.572	0.24
877.854	0.21
878.137	0.16
878.42	0.15
878.702	0.26
878.984	0.27
879.267	0.21
879.549	0.16
879.831	0.27
880.113	0.31
880.395	0.23
880.677	0.22
880.959	0.27
