Data from Rubpy_BV_1500_EDTA_Buffered_Absorbance_14-14-02-623.txt Node
Date: Wed Jul 01 14:14:02 BST 2026
User: fpm-admin
Spectrometer: OFX00224
Trigger mode: 0
Integration Time (sec): 7.000000E-2
Scans to average: 3
Nonlinearity correction enabled: false
Boxcar width: 0
Storing dark spectrum: false
XAxis mode: Wavelengths
Number of Pixels in Spectrum: 2136
>>>>>Begin Spectral Data<<<<<
154.91	0.38
155.289	0.37
155.669	-0.88
156.048	0.51
156.428	-0
156.807	0.6
157.186	-0
157.566	0.34
157.945	-0
158.325	-0.1
158.704	-0
159.083	-0
159.462	-0
159.842	0.99
160.221	-0.48
160.6	-0
160.979	0.41
161.359	0.17
161.738	-0
162.117	-0
162.496	-0
162.875	-0
163.254	-0
163.633	-0.03
164.012	-0.1
164.391	0.36
164.77	1.24
165.149	1.24
165.528	-0
165.907	0.73
166.286	-0.43
166.665	0.17
167.044	0.13
167.423	1.24
167.802	-0
168.181	0.08
168.559	-0.14
168.938	-0.41
169.317	-0.06
169.696	0.27
170.074	-0.54
170.453	-0.01
170.832	1.23
171.21	0.05
171.589	0.22
171.968	-0
172.346	-0.03
172.725	-0
173.103	0.32
173.482	-0.95
173.861	-0
174.239	-0.74
174.617	0.23
174.996	-0
175.374	0.14
175.753	-0.46
176.131	0.6
176.51	-0.29
176.888	0.44
177.266	0.63
177.645	-0.06
178.023	0.84
178.401	-0.12
178.779	-0.09
179.158	0.42
179.536	-0.13
179.914	0.1
180.292	0.51
180.67	-0
181.048	0.43
181.427	-0
181.805	-0
182.183	-0.43
182.561	0.18
182.939	-0
183.317	-0
183.695	0.11
184.073	-0
184.451	-0.21
184.829	-0
185.206	-0
185.584	-0.25
185.962	-0
186.34	-0
186.718	-0.6
187.096	-0.48
187.473	-0.1
187.851	-0.05
188.229	0.41
188.607	0.07
188.984	0.11
189.362	0.1
189.74	-0.01
190.117	0.1
190.495	-0.05
190.872	0.1
191.25	0.12
191.627	0.01
192.005	-0.04
192.382	0.1
192.76	0.14
193.137	0.07
193.515	-0.05
193.892	0.04
194.269	0
194.647	0.21
195.024	-0.07
195.401	0.07
195.779	0.09
196.156	0.04
196.533	0.22
196.91	0.15
197.288	0.11
197.665	0.06
198.042	0.02
198.419	0.02
198.796	0.11
199.173	0.1
199.55	-0.02
199.927	0.07
200.304	0.12
200.681	0.11
201.058	0.1
201.435	0.11
201.812	0.19
202.189	0.08
202.566	0.09
202.943	0.13
203.32	0.11
203.697	0.05
204.073	0.1
204.45	0.09
204.827	0.31
205.204	0.03
205.58	0.06
205.957	0.07
206.334	0.1
206.71	0.13
207.087	0.17
207.464	0.07
207.84	0.13
208.217	0.1
208.593	0.07
208.97	0.1
209.346	0.25
209.723	0.06
210.099	0.09
210.476	0.09
210.852	0.17
211.228	0.09
211.605	0.02
211.981	0.03
212.357	0.14
212.733	0.05
213.11	-0.01
213.486	-0
213.862	0.02
214.238	0.23
214.614	0.08
214.991	0.04
215.367	0.08
215.743	0.14
216.119	0.11
216.495	0.1
216.871	0.07
217.247	0.12
217.623	0.03
217.999	0.03
218.375	0.05
218.751	0.12
219.127	0.1
219.502	0.15
219.878	0.12
220.254	-0
220.63	0.11
221.006	0.07
221.381	0.1
221.757	0.18
222.133	0.02
222.508	0.17
222.884	0.18
223.26	0.1
223.635	0.22
224.011	0.19
224.386	0.13
224.762	0.12
225.137	0.11
225.513	0.13
225.888	0.17
226.264	0.1
226.639	0.15
227.014	0.11
227.39	0.12
227.765	0.17
228.14	0.08
228.516	0.11
228.891	0.19
229.266	0.12
229.641	0.04
230.017	0.07
230.392	0.1
230.767	0.05
231.142	0.05
231.517	0.08
231.892	0.15
232.267	0.07
232.642	0.12
233.017	0.03
233.392	0.19
233.767	0.09
234.142	0.13
234.517	0.14
234.892	0.07
235.267	0.09
235.641	0.03
236.016	0.07
236.391	0.12
236.766	0.03
237.14	0.12
237.515	0.05
237.89	0
238.264	0.15
238.639	0.15
239.014	0.13
239.388	-0.04
239.763	0.09
240.137	0.04
240.512	0.1
240.886	0.07
241.261	0.08
241.635	0.09
242.009	0.2
242.384	0.14
242.758	0.14
243.132	0.14
243.507	0.16
243.881	0.11
244.255	0.08
244.629	0.14
245.004	0.12
245.378	0.16
245.752	0.12
246.126	0.13
246.5	0.05
246.874	0.06
247.248	0.14
247.622	0
247.996	0.07
248.37	0.08
248.744	0.05
249.118	0.16
249.492	0.1
249.866	0.07
250.24	0.08
250.613	0.1
250.987	0.11
251.361	0.11
251.735	0.1
252.108	0.13
252.482	0.07
252.856	0.05
253.229	0.12
253.603	0.06
253.977	0.11
254.35	0.06
254.724	0.04
255.097	0.05
255.471	0.04
255.844	0.1
256.218	0.13
256.591	0.15
256.964	0.01
257.338	0.04
257.711	0.06
258.084	0.16
258.458	0.01
258.831	0.13
259.204	0.06
259.577	0.15
259.95	0.07
260.323	0.03
260.697	0.16
261.07	0.15
261.443	0.13
261.816	0.02
262.189	0.1
262.562	0.09
262.935	0.04
263.308	0.09
263.68	0.11
264.053	0.13
264.426	0.09
264.799	0.1
265.172	0.13
265.545	0.16
265.917	0.07
266.29	0.09
266.663	0.12
267.035	0.05
267.408	0.05
267.781	0.07
268.153	0.15
268.526	0.07
268.898	0.08
269.271	0.01
269.643	0.06
270.016	0.08
270.388	0.12
270.76	0.06
271.133	0.1
271.505	0.11
271.877	0.16
272.25	0.13
272.622	0.21
272.994	0.13
273.366	0.02
273.739	0.08
274.111	0.09
274.483	0.07
274.855	0.07
275.227	0.12
275.599	0.04
275.971	0.05
276.343	0.06
276.715	0.06
277.087	0.16
277.459	0.1
277.831	0.13
278.203	0.1
278.574	0.13
278.946	0.05
279.318	0.17
279.69	0.05
280.061	0.1
280.433	0.05
280.805	0.02
281.176	0.11
281.548	0.16
281.92	0.12
282.291	0.11
282.663	0.13
283.034	0.08
283.406	0.04
283.777	0.08
284.148	0.13
284.52	0.1
284.891	0.07
285.262	0.17
285.634	0.08
286.005	0.15
286.376	0.16
286.747	0.05
287.119	0.08
287.49	0.1
287.861	0.09
288.232	0.12
288.603	0.11
288.974	0.13
289.345	0.11
289.716	0.04
290.087	0.12
290.458	0.17
290.829	0.02
291.2	0.07
291.571	0.04
291.941	0.07
292.312	0.06
292.683	0.11
293.054	0.12
293.424	0.08
293.795	0.07
294.166	0.09
294.536	0.12
294.907	0.12
295.277	0.18
295.648	0.04
296.018	0.04
296.389	0.1
296.759	0.09
297.13	0.1
297.5	0.09
297.871	0.08
298.241	0.1
298.611	0.11
298.981	0.12
299.352	0.16
299.722	0.15
300.092	0.09
300.462	0.08
300.832	0.07
301.202	0.13
301.573	0.11
301.943	0.09
302.313	0.08
302.683	0.15
303.053	0.15
303.422	0.12
303.792	0.08
304.162	0.1
304.532	0.12
304.902	0.08
305.272	0.1
305.641	0.07
306.011	0.08
306.381	0.06
306.75	0.09
307.12	0.08
307.49	0.09
307.859	0.07
308.229	0.08
308.598	0.11
308.968	0.04
309.337	0.05
309.707	0.05
310.076	0.08
310.445	0.09
310.815	0.07
311.184	0.07
311.553	0.06
311.923	0.04
312.292	0.07
312.661	0.09
313.03	0.08
313.399	0.06
313.768	0.06
314.137	0.06
314.506	0.06
314.875	0.06
315.244	0.08
315.613	0.07
315.982	0.08
316.351	0.06
316.72	0.07
317.089	0.06
317.458	0.07
317.826	0.07
318.195	0.07
318.564	0.07
318.933	0.08
319.301	0.06
319.67	0.1
320.038	0.07
320.407	0.08
320.775	0.08
321.144	0.08
321.512	0.08
321.881	0.08
322.249	0.08
322.618	0.08
322.986	0.09
323.354	0.09
323.723	0.08
324.091	0.08
324.459	0.09
324.827	0.08
325.195	0.09
325.564	0.09
325.932	0.08
326.3	0.09
326.668	0.1
327.036	0.1
327.404	0.09
327.772	0.09
328.14	0.1
328.508	0.09
328.875	0.09
329.243	0.11
329.611	0.1
329.979	0.1
330.346	0.1
330.714	0.1
331.082	0.11
331.449	0.1
331.817	0.11
332.185	0.11
332.552	0.11
332.92	0.12
333.287	0.12
333.655	0.12
334.022	0.12
334.389	0.12
334.757	0.13
335.124	0.13
335.491	0.13
335.859	0.13
336.226	0.13
336.593	0.14
336.96	0.14
337.327	0.14
337.695	0.14
338.062	0.14
338.429	0.14
338.796	0.15
339.163	0.15
339.53	0.16
339.897	0.16
340.263	0.16
340.63	0.16
340.997	0.17
341.364	0.17
341.731	0.16
342.097	0.17
342.464	0.17
342.831	0.17
343.197	0.18
343.564	0.18
343.931	0.19
344.297	0.19
344.664	0.2
345.03	0.19
345.396	0.2
345.763	0.2
346.129	0.2
346.496	0.2
346.862	0.21
347.228	0.22
347.594	0.22
347.961	0.22
348.327	0.22
348.693	0.23
349.059	0.23
349.425	0.23
349.791	0.23
350.157	0.24
350.523	0.24
350.889	0.24
351.255	0.24
351.621	0.24
351.987	0.25
352.353	0.25
352.719	0.26
353.084	0.26
353.45	0.26
353.816	0.27
354.181	0.27
354.547	0.27
354.913	0.28
355.278	0.28
355.644	0.28
356.009	0.29
356.375	0.29
356.74	0.3
357.106	0.3
357.471	0.3
357.836	0.31
358.202	0.31
358.567	0.32
358.932	0.32
359.297	0.32
359.663	0.33
360.028	0.33
360.393	0.34
360.758	0.35
361.123	0.35
361.488	0.35
361.853	0.36
362.218	0.37
362.583	0.37
362.948	0.37
363.312	0.37
363.677	0.38
364.042	0.38
364.407	0.39
364.772	0.4
365.136	0.4
365.501	0.4
365.865	0.41
366.23	0.41
366.595	0.42
366.959	0.42
367.324	0.43
367.688	0.42
368.052	0.43
368.417	0.43
368.781	0.43
369.145	0.45
369.51	0.45
369.874	0.45
370.238	0.46
370.602	0.46
370.967	0.46
371.331	0.47
371.695	0.46
372.059	0.47
372.423	0.48
372.787	0.47
373.151	0.46
373.515	0.47
373.878	0.47
374.242	0.47
374.606	0.47
374.97	0.46
375.334	0.46
375.697	0.46
376.061	0.45
376.425	0.44
376.788	0.44
377.152	0.44
377.515	0.44
377.879	0.44
378.242	0.43
378.606	0.43
378.969	0.42
379.333	0.42
379.696	0.41
380.059	0.41
380.422	0.4
380.786	0.4
381.149	0.4
381.512	0.39
381.875	0.39
382.238	0.39
382.601	0.39
382.964	0.38
383.327	0.38
383.69	0.38
384.053	0.38
384.416	0.37
384.779	0.37
385.142	0.37
385.504	0.37
385.867	0.37
386.23	0.37
386.593	0.37
386.955	0.38
387.318	0.38
387.68	0.38
388.043	0.38
388.405	0.39
388.768	0.38
389.13	0.38
389.493	0.38
389.855	0.38
390.217	0.38
390.58	0.38
390.942	0.38
391.304	0.38
391.666	0.37
392.028	0.37
392.391	0.37
392.753	0.36
393.115	0.36
393.477	0.35
393.839	0.35
394.201	0.34
394.563	0.35
394.924	0.35
395.286	0.35
395.648	0.36
396.01	0.35
396.371	0.36
396.733	0.36
397.095	0.38
397.456	0.38
397.818	0.39
398.18	0.4
398.541	0.41
398.903	0.43
399.264	0.44
399.625	0.45
399.987	0.46
400.348	0.47
400.709	0.47
401.071	0.48
401.432	0.49
401.793	0.48
402.154	0.48
402.515	0.48
402.876	0.47
403.238	0.46
403.599	0.45
403.96	0.44
404.32	0.42
404.681	0.4
405.042	0.39
405.403	0.37
405.764	0.36
406.125	0.33
406.485	0.32
406.846	0.3
407.207	0.28
407.567	0.27
407.928	0.25
408.288	0.24
408.649	0.22
409.009	0.21
409.37	0.2
409.73	0.19
410.091	0.18
410.451	0.17
410.811	0.15
411.171	0.15
411.532	0.14
411.892	0.13
412.252	0.13
412.612	0.13
412.972	0.11
413.332	0.11
413.692	0.1
414.052	0.1
414.412	0.1
414.772	0.1
415.132	0.09
415.492	0.09
415.851	0.08
416.211	0.08
416.571	0.07
416.931	0.08
417.29	0.07
417.65	0.07
418.009	0.08
418.369	0.07
418.728	0.07
419.088	0.07
419.447	0.06
419.807	0.07
420.166	0.06
420.525	0.06
420.884	0.05
421.244	0.06
421.603	0.05
421.962	0.05
422.321	0.06
422.68	0.06
423.039	0.05
423.398	0.05
423.757	0.05
424.116	0.05
424.475	0.05
424.834	0.05
425.193	0.04
425.551	0.05
425.91	0.05
426.269	0.05
426.628	0.05
426.986	0.05
427.345	0.05
427.703	0.04
428.062	0.04
428.42	0.04
428.779	0.04
429.137	0.04
429.496	0.04
429.854	0.04
430.212	0.04
430.57	0.04
430.929	0.04
431.287	0.04
431.645	0.03
432.003	0.04
432.361	0.03
432.719	0.05
433.077	0.04
433.435	0.03
433.793	0.04
434.151	0.04
434.509	0.04
434.866	0.04
435.224	0.03
435.582	0.04
435.94	0.04
436.297	0.04
436.655	0.03
437.012	0.04
437.37	0.04
437.727	0.04
438.085	0.04
438.442	0.03
438.8	0.03
439.157	0.04
439.514	0.04
439.872	0.03
440.229	0.03
440.586	0.03
440.943	0.04
441.3	0.04
441.657	0.03
442.014	0.03
442.371	0.03
442.728	0.03
443.085	0.04
443.442	0.04
443.799	0.03
444.156	0.03
444.513	0.03
444.869	0.03
445.226	0.03
445.583	0.04
445.939	0.03
446.296	0.04
446.652	0.04
447.009	0.04
447.365	0.03
447.722	0.04
448.078	0.03
448.434	0.04
448.791	0.05
449.147	0.03
449.503	0.03
449.859	0.04
450.215	0.04
450.571	0.03
450.928	0.03
451.284	0.04
451.64	0.04
451.995	0.03
452.351	0.04
452.707	0.05
453.063	0.03
453.419	0.03
453.775	0.03
454.13	0.03
454.486	0.04
454.842	0.03
455.197	0.03
455.553	0.04
455.908	0.03
456.264	0.03
456.619	0.03
456.975	0.04
457.33	0.03
457.685	0.04
458.04	0.03
458.396	0.03
458.751	0.03
459.106	0.04
459.461	0.03
459.816	0.04
460.171	0.04
460.526	0.04
460.881	0.04
461.236	0.03
461.591	0.05
461.946	0.04
462.301	0.04
462.655	0.04
463.01	0.04
463.365	0.04
463.719	0.03
464.074	0.03
464.428	0.03
464.783	0.03
465.137	0.03
465.492	0.03
465.846	0.03
466.201	0.03
466.555	0.03
466.909	0.03
467.263	0.03
467.618	0.03
467.972	0.04
468.326	0.04
468.68	0.04
469.034	0.04
469.388	0.05
469.742	0.03
470.096	0.03
470.45	0.05
470.804	0.05
471.157	0.03
471.511	0.04
471.865	0.04
472.218	0.05
472.572	0.05
472.926	0.04
473.279	0.04
473.633	0.04
473.986	0.05
474.34	0.05
474.693	0.05
475.046	0.05
475.4	0.05
475.753	0.06
476.106	0.06
476.459	0.06
476.812	0.06
477.165	0.06
477.519	0.06
477.872	0.05
478.224	0.06
478.577	0.06
478.93	0.07
479.283	0.06
479.636	0.07
479.989	0.07
480.341	0.06
480.694	0.07
481.047	0.07
481.399	0.07
481.752	0.07
482.104	0.07
482.457	0.07
482.809	0.07
483.162	0.07
483.514	0.08
483.866	0.08
484.219	0.08
484.571	0.08
484.923	0.08
485.275	0.08
485.627	0.08
485.979	0.09
486.331	0.08
486.683	0.08
487.035	0.09
487.387	0.08
487.739	0.09
488.091	0.09
488.443	0.09
488.794	0.09
489.146	0.09
489.498	0.09
489.849	0.09
490.201	0.09
490.552	0.09
490.904	0.09
491.255	0.09
491.607	0.1
491.958	0.1
492.309	0.1
492.661	0.1
493.012	0.1
493.363	0.1
493.714	0.1
494.065	0.11
494.416	0.1
494.767	0.1
495.118	0.11
495.469	0.11
495.82	0.11
496.171	0.11
496.522	0.1
496.872	0.11
497.223	0.11
497.574	0.11
497.924	0.11
498.275	0.12
498.626	0.11
498.976	0.12
499.327	0.12
499.677	0.12
500.027	0.12
500.378	0.12
500.728	0.12
501.078	0.13
501.428	0.13
501.779	0.12
502.129	0.13
502.479	0.12
502.829	0.13
503.179	0.13
503.529	0.13
503.879	0.13
504.229	0.13
504.578	0.13
504.928	0.13
505.278	0.13
505.628	0.13
505.977	0.13
506.327	0.13
506.676	0.14
507.026	0.14
507.375	0.14
507.725	0.14
508.074	0.14
508.424	0.14
508.773	0.14
509.122	0.14
509.471	0.15
509.82	0.14
510.17	0.14
510.519	0.14
510.868	0.15
511.217	0.15
511.566	0.15
511.915	0.15
512.263	0.15
512.612	0.15
512.961	0.15
513.31	0.15
513.659	0.15
514.007	0.16
514.356	0.16
514.704	0.16
515.053	0.16
515.401	0.16
515.75	0.16
516.098	0.16
516.447	0.16
516.795	0.17
517.143	0.16
517.491	0.16
517.839	0.16
518.188	0.16
518.536	0.17
518.884	0.17
519.232	0.16
519.58	0.17
519.928	0.16
520.275	0.16
520.623	0.17
520.971	0.17
521.319	0.17
521.666	0.17
522.014	0.17
522.362	0.17
522.709	0.18
523.057	0.18
523.404	0.18
523.752	0.18
524.099	0.18
524.446	0.18
524.794	0.18
525.141	0.18
525.488	0.18
525.835	0.18
526.182	0.18
526.529	0.18
526.876	0.18
527.223	0.18
527.57	0.18
527.917	0.18
528.264	0.18
528.611	0.18
528.958	0.19
529.304	0.19
529.651	0.18
529.998	0.19
530.344	0.19
530.691	0.19
531.037	0.19
531.384	0.19
531.73	0.19
532.076	0.19
532.423	0.19
532.769	0.19
533.115	0.19
533.461	0.19
533.807	0.19
534.154	0.19
534.5	0.2
534.846	0.19
535.192	0.2
535.537	0.19
535.883	0.2
536.229	0.2
536.575	0.19
536.921	0.2
537.266	0.19
537.612	0.2
537.957	0.2
538.303	0.2
538.649	0.2
538.994	0.2
539.339	0.2
539.685	0.21
540.03	0.2
540.375	0.2
540.721	0.21
541.066	0.2
541.411	0.2
541.756	0.21
542.101	0.2
542.446	0.2
542.791	0.2
543.136	0.21
543.481	0.21
543.825	0.21
544.17	0.21
544.515	0.21
544.86	0.21
545.204	0.21
545.549	0.21
545.893	0.21
546.238	0.21
546.582	0.21
546.927	0.21
547.271	0.21
547.615	0.21
547.96	0.21
548.304	0.22
548.648	0.21
548.992	0.22
549.336	0.21
549.68	0.21
550.024	0.22
550.368	0.21
550.712	0.21
551.056	0.22
551.4	0.22
551.743	0.22
552.087	0.22
552.431	0.22
552.774	0.21
553.118	0.21
553.462	0.22
553.805	0.21
554.148	0.22
554.492	0.21
554.835	0.22
555.178	0.21
555.522	0.22
555.865	0.22
556.208	0.22
556.551	0.22
556.894	0.22
557.237	0.22
557.58	0.22
557.923	0.22
558.266	0.22
558.609	0.22
558.952	0.22
559.294	0.22
559.637	0.21
559.98	0.22
560.322	0.22
560.665	0.22
561.007	0.22
561.35	0.22
561.692	0.22
562.034	0.22
562.377	0.22
562.719	0.22
563.061	0.22
563.403	0.22
563.745	0.22
564.088	0.22
564.43	0.22
564.772	0.22
565.113	0.22
565.455	0.21
565.797	0.22
566.139	0.22
566.481	0.22
566.822	0.22
567.164	0.21
567.506	0.22
567.847	0.22
568.189	0.22
568.53	0.22
568.872	0.21
569.213	0.21
569.554	0.21
569.895	0.21
570.237	0.21
570.578	0.21
570.919	0.21
571.26	0.21
571.601	0.21
571.942	0.21
572.283	0.21
572.624	0.21
572.965	0.21
573.306	0.21
573.646	0.21
573.987	0.2
574.328	0.21
574.668	0.21
575.009	0.2
575.349	0.21
575.69	0.2
576.03	0.2
576.37	0.2
576.711	0.19
577.051	0.2
577.391	0.2
577.731	0.2
578.072	0.2
578.412	0.2
578.752	0.2
579.092	0.2
579.431	0.19
579.771	0.17
580.111	0.16
580.451	0.17
580.791	0.19
581.13	0.19
581.47	0.19
581.81	0.19
582.149	0.19
582.489	0.2
582.828	0.19
583.167	0.16
583.507	0.13
583.846	0.12
584.185	0.14
584.525	0.17
584.864	0.18
585.203	0.19
585.542	0.2
585.881	0.2
586.22	0.2
586.559	0.19
586.898	0.18
587.236	0.17
587.575	0.17
587.914	0.18
588.252	0.19
588.591	0.19
588.93	0.19
589.268	0.19
589.607	0.19
589.945	0.19
590.283	0.2
590.622	0.2
590.96	0.2
591.298	0.2
591.636	0.2
591.974	0.2
592.313	0.2
592.651	0.2
592.989	0.2
593.326	0.2
593.664	0.2
594.002	0.2
594.34	0.2
594.678	0.19
595.015	0.19
595.353	0.19
595.691	0.19
596.028	0.2
596.366	0.2
596.703	0.2
597.04	0.2
597.378	0.2
597.715	0.21
598.052	0.2
598.389	0.21
598.726	0.21
599.064	0.21
599.401	0.2
599.738	0.2
600.074	0.2
600.411	0.2
600.748	0.2
601.085	0.19
601.422	0.19
601.758	0.19
602.095	0.19
602.432	0.19
602.768	0.19
603.105	0.2
603.441	0.2
603.777	0.2
604.114	0.2
604.45	0.2
604.786	0.2
605.122	0.2
605.459	0.2
605.795	0.2
606.131	0.2
606.467	0.2
606.803	0.2
607.139	0.2
607.474	0.2
607.81	0.2
608.146	0.2
608.482	0.2
608.817	0.19
609.153	0.2
609.488	0.19
609.824	0.19
610.159	0.19
610.495	0.19
610.83	0.19
611.165	0.2
611.5	0.19
611.836	0.19
612.171	0.2
612.506	0.19
612.841	0.19
613.176	0.19
613.511	0.19
613.845	0.19
614.18	0.19
614.515	0.19
614.85	0.19
615.184	0.19
615.519	0.19
615.854	0.19
616.188	0.19
616.523	0.19
616.857	0.19
617.191	0.18
617.526	0.18
617.86	0.18
618.194	0.18
618.528	0.18
618.862	0.18
619.196	0.19
619.53	0.19
619.864	0.19
620.198	0.19
620.532	0.18
620.866	0.19
621.2	0.18
621.533	0.18
621.867	0.18
622.201	0.18
622.534	0.18
622.868	0.18
623.201	0.18
623.534	0.18
623.868	0.18
624.201	0.17
624.534	0.18
624.868	0.18
625.201	0.17
625.534	0.18
625.867	0.17
626.2	0.17
626.533	0.17
626.865	0.17
627.198	0.17
627.531	0.17
627.864	0.17
628.196	0.17
628.529	0.17
628.862	0.16
629.194	0.17
629.527	0.16
629.859	0.16
630.191	0.16
630.524	0.16
630.856	0.16
631.188	0.16
631.52	0.16
631.852	0.16
632.184	0.16
632.516	0.16
632.848	0.16
633.18	0.16
633.512	0.15
633.844	0.15
634.175	0.15
634.507	0.15
634.839	0.15
635.17	0.15
635.502	0.15
635.833	0.15
636.165	0.14
636.496	0.14
636.827	0.14
637.159	0.14
637.49	0.14
637.821	0.14
638.152	0.14
638.483	0.14
638.814	0.14
639.145	0.14
639.476	0.13
639.807	0.14
640.137	0.13
640.468	0.13
640.799	0.13
641.129	0.13
641.46	0.13
641.791	0.13
642.121	0.13
642.451	0.13
642.782	0.13
643.112	0.13
643.442	0.13
643.773	0.13
644.103	0.12
644.433	0.12
644.763	0.12
645.093	0.12
645.423	0.12
645.753	0.12
646.082	0.12
646.412	0.12
646.742	0.12
647.072	0.12
647.401	0.12
647.731	0.12
648.06	0.11
648.39	0.12
648.719	0.11
649.048	0.11
649.378	0.11
649.707	0.11
650.036	0.11
650.365	0.11
650.694	0.11
651.023	0.11
651.352	0.11
651.681	0.11
652.01	0.11
652.339	0.11
652.668	0.11
652.996	0.11
653.325	0.11
653.654	0.11
653.982	0.11
654.311	0.11
654.639	0.11
654.967	0.11
655.296	0.11
655.624	0.11
655.952	0.11
656.28	0.11
656.609	0.11
656.937	0.11
657.265	0.11
657.593	0.01
657.92	0
658.248	0
658.576	0
658.904	0
659.231	0.06
659.559	0.1
659.887	0.1
660.214	0.1
660.542	0.1
660.869	0.11
661.196	0.1
661.524	0.1
661.851	0.1
662.178	0.1
662.505	0.1
662.832	0.1
663.159	0.1
663.486	0.1
663.813	0.1
664.14	0.1
664.467	0.1
664.794	0.1
665.12	0.1
665.447	0.1
665.774	0.1
666.1	0.1
666.427	0.1
666.753	0.1
667.079	0.1
667.406	0.09
667.732	0.09
668.058	0.1
668.384	0.09
668.71	0.09
669.036	0.09
669.362	0.09
669.688	0.09
670.014	0.09
670.34	0.09
670.666	0.09
670.991	0.09
671.317	0.09
671.643	0.09
671.968	0.09
672.294	0.09
672.619	0.09
672.945	0.09
673.27	0.08
673.595	0.08
673.92	0.08
674.246	0.08
674.571	0.08
674.896	0.08
675.221	0.08
675.546	0.08
675.87	0.08
676.195	0.08
676.52	0.08
676.845	0.08
677.169	0.07
677.494	0.08
677.819	0.08
678.143	0.08
678.468	0.08
678.792	0.07
679.116	0.07
679.44	0.07
679.765	0.07
680.089	0.07
680.413	0.07
680.737	0.07
681.061	0.07
681.385	0.07
681.709	0.07
682.033	0.07
682.356	0.06
682.68	0.06
683.004	0.07
683.327	0.06
683.651	0.06
683.974	0.06
684.298	0.06
684.621	0.06
684.944	0.06
685.268	0.06
685.591	0.06
685.914	0.06
686.237	0.06
686.56	0.06
686.883	0.05
687.206	0.05
687.529	0.05
687.852	0.05
688.175	0.05
688.497	0.05
688.82	0.05
689.142	0.05
689.465	0.05
689.787	0.05
690.11	0.05
690.432	0.05
690.755	0.05
691.077	0.05
691.399	0.05
691.721	0.05
692.043	0.05
692.365	0.05
692.687	0.04
693.009	0.04
693.331	0.04
693.653	0.04
693.974	0.04
694.296	0.04
694.618	0.04
694.939	0.04
695.261	0.04
695.582	0.04
695.904	0.04
696.225	0.04
696.546	0.04
696.868	0.04
697.189	0.04
697.51	0.04
697.831	0.04
698.152	0.04
698.473	0.03
698.794	0.03
699.114	0.03
699.435	0.02
699.756	0.02
700.077	0.03
700.397	0.03
700.718	0.03
701.038	0.03
701.359	0.03
701.679	0.03
701.999	0.03
702.32	0.03
702.64	0.03
702.96	0.03
703.28	0.03
703.6	0.03
703.92	0.03
704.24	0.03
704.56	0.03
704.879	0.03
705.199	0.03
705.519	0.03
705.838	0.03
706.158	0.03
706.478	0.03
706.797	0.03
707.116	0.03
707.436	0.03
707.755	0.03
708.074	0.03
708.393	0.03
708.712	0.02
709.031	0.02
709.35	0.02
709.669	0.02
709.988	0.02
710.307	0.02
710.626	0.02
710.944	0.03
711.263	0.03
711.582	0.03
711.9	0.03
712.219	0.03
712.537	0.03
712.855	0.03
713.174	0.03
713.492	0.03
713.81	0.03
714.128	0.03
714.446	0.03
714.764	0.03
715.082	0.02
715.4	0.03
715.718	0.02
716.035	0.02
716.353	0.02
716.671	0.03
716.988	0.02
717.306	0.02
717.623	0.03
717.941	0.03
718.258	0.03
718.575	0.03
718.893	0.03
719.21	0.03
719.527	0.03
719.844	0.03
720.161	0.03
720.478	0.03
720.795	0.03
721.112	0.03
721.428	0.03
721.745	0.03
722.062	0.03
722.378	0.03
722.695	0.03
723.011	0.03
723.328	0.03
723.644	0.03
723.96	0.03
724.276	0.03
724.593	0.03
724.909	0.03
725.225	0.03
725.541	0.04
725.857	0.03
726.173	0.03
726.488	0.04
726.804	0.03
727.12	0.03
727.435	0.03
727.751	0.03
728.067	0.03
728.382	0.04
728.697	0.04
729.013	0.04
729.328	0.03
729.643	0.03
729.958	0.03
730.273	0.03
730.588	0.03
730.903	0.03
731.218	0.03
731.533	0.03
731.848	0.03
732.163	0.03
732.477	0.03
732.792	0.03
733.107	0.03
733.421	0.03
733.736	0.03
734.05	0.03
734.364	0.03
734.678	0.03
734.993	0.03
735.307	0.03
735.621	0.03
735.935	0.03
736.249	0.03
736.563	0.03
736.877	0.03
737.19	0.03
737.504	0.03
737.818	0.03
738.131	0.03
738.445	0.03
738.758	0.03
739.072	0.03
739.385	0.03
739.698	0.03
740.012	0.03
740.325	0.03
740.638	0.03
740.951	0.03
741.264	0.03
741.577	0.02
741.89	0.03
742.203	0.03
742.515	0.03
742.828	0.03
743.141	0.03
743.453	0.02
743.766	0.02
744.078	0.03
744.391	0.02
744.703	0.03
745.015	0.03
745.327	0.02
745.639	0.03
745.952	0.03
746.264	0.02
746.575	0.03
746.887	0.03
747.199	0.03
747.511	0.03
747.823	0.03
748.134	0.03
748.446	0.03
748.757	0.03
749.069	0.02
749.38	0.02
749.692	0.02
750.003	0.02
750.314	0.02
750.625	0.02
750.936	0.02
751.248	0.02
751.559	0.02
751.869	0.02
752.18	0.02
752.491	0.02
752.802	0.02
753.112	0.02
753.423	0.02
753.734	0.02
754.044	0.02
754.355	0.02
754.665	0.02
754.975	0.02
755.285	0.02
755.596	0.02
755.906	0.02
756.216	0.02
756.526	0.02
756.836	0.02
757.146	0.02
757.455	0.02
757.765	0.02
758.075	0.01
758.385	0.01
758.694	0.02
759.004	0.01
759.313	0.01
759.622	0.01
759.932	0.01
760.241	0.02
760.55	0.01
760.859	0.01
761.168	0.01
761.477	0.01
761.786	0.01
762.095	0.01
762.404	0.01
762.713	0.01
763.021	0.01
763.33	0.01
763.639	0.01
763.947	0.01
764.256	0.01
764.564	0.01
764.872	0.01
765.181	0.01
765.489	0.01
765.797	0.01
766.105	0.01
766.413	0.01
766.721	0.02
767.029	0.01
767.337	0.01
767.644	0.01
767.952	0.01
768.26	0.01
768.567	0.01
768.875	0.01
769.182	0.01
769.49	0.01
769.797	0.01
770.104	0.01
770.411	0.01
770.718	0.01
771.026	0.01
771.333	0.01
771.639	0.01
771.946	0.01
772.253	0.01
772.56	0.01
772.867	0.01
773.173	0.01
773.48	0.01
773.786	0.01
774.093	0.01
774.399	0.01
774.705	0.01
775.012	0.02
775.318	0.01
775.624	0.01
775.93	0.01
776.236	0.01
776.542	0.01
776.848	0.01
777.154	0.01
777.459	0.01
777.765	0.02
778.071	0.02
778.376	0.01
778.682	0.01
778.987	0.01
779.292	0.01
779.598	0.01
779.903	0.01
780.208	0.01
780.513	0.02
780.818	0.01
781.123	0.02
781.428	0.01
781.733	0.01
782.038	0.02
782.343	0.01
782.647	0.01
782.952	0.01
783.256	0.01
783.561	0.01
783.865	0.01
784.17	0.02
784.474	0.01
784.778	0.02
785.082	0.02
785.386	0.02
785.69	0.02
785.994	0.01
786.298	0.02
786.602	0.02
786.906	0.01
787.209	0.01
787.513	0.02
787.817	0.02
788.12	0.01
788.424	0.01
788.727	0.01
789.03	0.01
789.333	0.01
789.637	0.01
789.94	0.01
790.243	0.01
790.546	0.01
790.849	0.01
791.152	0.01
791.454	0.01
791.757	0.01
792.06	0.01
792.362	0.01
792.665	0.01
792.967	0.01
793.27	0.01
793.572	0.01
793.874	0.01
794.177	0.01
794.479	0.01
794.781	0.01
795.083	0.01
795.385	0.01
795.687	0.01
795.989	0.01
796.29	0.01
796.592	0.01
796.894	0.01
797.195	0.02
797.497	0.01
797.798	0.02
798.1	0.02
798.401	0.01
798.702	0.01
799.003	0.01
799.304	0.01
799.605	0.01
799.906	0.01
800.207	0.01
800.508	0.01
800.809	0.01
801.11	0.01
801.41	0.01
801.711	0.01
802.011	0.01
802.312	0.01
802.612	0.02
802.913	0.01
803.213	0.02
803.513	0.01
803.813	0.01
804.113	0.01
804.413	0.01
804.713	0.01
805.013	0.01
805.313	0.01
805.613	0.02
805.912	0.01
806.212	0.01
806.511	0.01
806.811	0.01
807.11	0.01
807.41	0.01
807.709	0.01
808.008	0.01
808.307	0.02
808.606	0.02
808.905	0.02
809.204	0.02
809.503	0.02
809.802	0.02
810.101	0.02
810.399	0.02
810.698	0.02
810.997	0.02
811.295	0.02
811.593	0.02
811.892	0.02
812.19	0.02
812.488	0.01
812.786	0.01
813.084	0.02
813.383	0.02
813.68	0.02
813.978	0.01
814.276	0.02
814.574	0.02
814.872	0.02
815.169	0.01
815.467	0.01
815.764	0.01
816.062	0.02
816.359	0.02
816.656	0.02
816.954	0.01
817.251	0.01
817.548	0.02
817.845	0.02
818.142	0.02
818.439	0.01
818.735	0.01
819.032	0.01
819.329	0.01
819.626	0.01
819.922	0.01
820.219	0.01
820.515	0.02
820.811	0.02
821.108	0.02
821.404	0.02
821.7	0.02
821.996	0.02
822.292	0.02
822.588	0.02
822.884	0.02
823.18	0.03
823.475	0.02
823.771	0.02
824.067	0.02
824.362	0.02
824.658	0.02
824.953	0.02
825.249	0.02
825.544	0.02
825.839	0.02
826.134	0.02
826.429	0.02
826.724	0.02
827.019	0.02
827.314	0.02
827.609	0.02
827.904	0.02
828.198	0.02
828.493	0.01
828.787	0.02
829.082	0.02
829.376	0.02
829.671	0.02
829.965	0.02
830.259	0.02
830.553	0.02
830.847	0.02
831.141	0.02
831.435	0.02
831.729	0.02
832.023	0.02
832.317	0.02
832.61	0.02
832.904	0.02
833.197	0.02
833.491	0.02
833.784	0.02
834.077	0.02
834.371	0.01
834.664	0.02
834.957	0.03
835.25	0.02
835.543	0.02
835.836	0.02
836.129	0.02
836.421	0.02
836.714	0.02
837.007	0.02
837.299	0.02
837.592	0.02
837.884	0.03
838.177	0.02
838.469	0.03
838.761	0.02
839.053	0.02
839.345	0.02
839.637	0.02
839.929	0.02
840.221	0.03
840.513	0.02
840.805	0.03
841.096	0.02
841.388	0.02
841.68	0.02
841.971	0.02
842.262	0.02
842.554	0.02
842.845	0.02
843.136	0.02
843.427	0.02
843.718	0.03
844.009	0.02
844.3	0.02
844.591	0.02
844.882	0.02
845.173	0.02
845.463	0.03
845.754	0.03
846.044	0.03
846.335	0.03
846.625	0.03
846.915	0.02
847.206	0.02
847.496	0.03
847.786	0.03
848.076	0.03
848.366	0.03
848.656	0.03
848.945	0.03
849.235	0.03
849.525	0.02
849.814	0.02
850.104	0.03
850.393	0.03
850.683	0.03
850.972	0.02
851.261	0.03
851.551	0.03
851.84	0.03
852.129	0.02
852.418	0.02
852.707	0.02
852.995	0.03
853.284	0.03
853.573	0.03
853.862	0.03
854.15	0.02
854.439	0.02
854.727	0.02
855.015	0.02
855.304	0.02
855.592	0.03
855.88	0.02
856.168	0.02
856.456	0.03
856.744	0.03
857.032	0.03
857.32	0.03
857.607	0.03
857.895	0.04
858.183	0.03
858.47	0.01
858.757	0.05
859.045	0.03
859.332	0.04
859.619	0.02
859.907	0.04
860.194	0.03
860.481	0.03
860.768	0.03
861.054	0.03
861.341	0.02
861.628	0.04
861.915	0.04
862.201	0.04
862.488	0.05
862.774	0.04
863.061	0.03
863.347	0.02
863.633	0.05
863.919	0.02
864.205	0.02
864.491	0.02
864.777	0.01
865.063	0.03
865.349	0.02
865.635	0.04
865.92	0.02
866.206	0.04
866.492	0.03
866.777	0.03
867.062	0.01
867.348	0.04
867.633	0.02
867.918	0
868.203	0.02
868.488	0.03
868.773	0.02
869.058	0.02
869.343	0.04
869.628	0.01
869.912	0.02
870.197	0.03
870.482	0.02
870.766	0.02
871.05	0.01
871.335	0.04
871.619	-0.01
871.903	0.05
872.187	0.02
872.471	0.01
872.755	0
873.039	0.03
873.323	0.02
873.607	0.01
873.89	0.05
874.174	0.07
874.458	0.01
874.741	0.08
875.024	0.01
875.308	0.03
875.591	0.06
875.874	0.01
876.157	0.01
876.44	0.04
876.723	0.06
877.006	-0.01
877.289	0.01
877.572	0.06
877.854	-0.01
878.137	-0.02
878.42	0.05
878.702	0.05
878.984	0.03
879.267	0.05
879.549	-0.01
879.831	0.09
880.113	0.05
880.395	0.03
880.677	-0.04
880.959	-0.06
