Data from Rubpy_BV_1500_EDTA_Buffered_Absorbance_14-14-09-594.txt Node
Date: Wed Jul 01 14:14:09 BST 2026
User: fpm-admin
Spectrometer: OFX00224
Trigger mode: 0
Integration Time (sec): 7.000000E-2
Scans to average: 3
Nonlinearity correction enabled: false
Boxcar width: 0
Storing dark spectrum: false
XAxis mode: Wavelengths
Number of Pixels in Spectrum: 2136
>>>>>Begin Spectral Data<<<<<
154.91	-0.28
155.289	0.59
155.669	-1.36
156.048	-0
156.428	0.19
156.807	0.23
157.186	-0
157.566	0.26
157.945	-0
158.325	0.74
158.704	-0
159.083	0.64
159.462	-0
159.842	0.03
160.221	-0.55
160.6	-0
160.979	-0.09
161.359	0.09
161.738	-0
162.117	0.15
162.496	-0.54
162.875	-0.22
163.254	-0.11
163.633	-0
164.012	-0.27
164.391	0.29
164.77	0.41
165.149	-0
165.528	-0.34
165.907	-0
166.286	-0.23
166.665	-0.11
167.044	-0
167.423	0.37
167.802	-0
168.181	-0
168.559	0.02
168.938	0.07
169.317	1.1
169.696	0.05
170.074	-0.49
170.453	-0.17
170.832	0.53
171.21	0.02
171.589	-0
171.968	-0
172.346	-0
172.725	-0
173.103	-0
173.482	-0.9
173.861	-0
174.239	-0.54
174.617	0.39
174.996	0.14
175.374	0.28
175.753	-0.5
176.131	-0
176.51	0.18
176.888	-0
177.266	-0
177.645	-0.05
178.023	1.17
178.401	-0.18
178.779	-0.08
179.158	-0
179.536	-0.29
179.914	0.04
180.292	0.54
180.67	-0.48
181.048	0.95
181.427	-0.26
181.805	0.3
182.183	-0
182.561	0.47
182.939	-0
183.317	-0
183.695	0.76
184.073	-0
184.451	-0.3
184.829	-0
185.206	-0
185.584	-0
185.962	0.18
186.34	-0
186.718	-0
187.096	-0.88
187.473	-0.13
187.851	-0
188.229	0.99
188.607	0.06
188.984	0.12
189.362	0.02
189.74	0.07
190.117	-0
190.495	-0.05
190.872	-0
191.25	0.01
191.627	-0.05
192.005	0.06
192.382	0.11
192.76	0.15
193.137	0.06
193.515	0.03
193.892	0.13
194.269	0.03
194.647	0.2
195.024	-0.01
195.401	0.05
195.779	-0.02
196.156	0.09
196.533	0.05
196.91	-0.01
197.288	0.06
197.665	-0.01
198.042	0.01
198.419	0.09
198.796	0.09
199.173	0.06
199.55	-0.01
199.927	0.08
200.304	0.14
200.681	0.13
201.058	0.12
201.435	0.06
201.812	0.14
202.189	0.06
202.566	0.08
202.943	0.06
203.32	0.11
203.697	0
204.073	0.02
204.45	0.08
204.827	0.16
205.204	0.04
205.58	0.07
205.957	0.11
206.334	0.05
206.71	-0.01
207.087	0.12
207.464	0.1
207.84	0.04
208.217	0.15
208.593	0.1
208.97	0.09
209.346	0.12
209.723	0.05
210.099	0.06
210.476	0.08
210.852	0.05
211.228	0.07
211.605	0.09
211.981	-0.02
212.357	0.04
212.733	-0.01
213.11	0.1
213.486	0.15
213.862	0.11
214.238	0.08
214.614	-0.01
214.991	0.06
215.367	0.07
215.743	0.04
216.119	0.07
216.495	0.04
216.871	0.17
217.247	0.06
217.623	-0.03
217.999	-0.06
218.375	0.09
218.751	0.01
219.127	0.04
219.502	0.01
219.878	0.08
220.254	0.08
220.63	0.11
221.006	0.04
221.381	0.21
221.757	0.14
222.133	0.04
222.508	0.16
222.884	0.09
223.26	0.07
223.635	0.12
224.011	0.2
224.386	0.17
224.762	0.14
225.137	0.2
225.513	0.06
225.888	0.06
226.264	0.16
226.639	0.11
227.014	0.12
227.39	-0.02
227.765	0.12
228.14	0.11
228.516	0.06
228.891	0.1
229.266	0.16
229.641	0.12
230.017	0.11
230.392	0.12
230.767	0.1
231.142	0.09
231.517	0.03
231.892	0.1
232.267	0.12
232.642	0.09
233.017	0.07
233.392	0.01
233.767	0.03
234.142	0.09
234.517	0.1
234.892	0.08
235.267	0.12
235.641	0.03
236.016	0.1
236.391	0.15
236.766	0.04
237.14	0.07
237.515	0.11
237.89	0.11
238.264	0.14
238.639	0
239.014	0.06
239.388	0.05
239.763	0.06
240.137	0.06
240.512	0.1
240.886	0.11
241.261	0.02
241.635	0.1
242.009	0.09
242.384	0.06
242.758	0.12
243.132	0.02
243.507	0.07
243.881	0.09
244.255	0.09
244.629	0.05
245.004	0.11
245.378	0.16
245.752	0.09
246.126	0.1
246.5	0.08
246.874	0.02
247.248	0.13
247.622	0.05
247.996	0.1
248.37	0.06
248.744	0.02
249.118	0.09
249.492	0.15
249.866	0.07
250.24	0.11
250.613	0.05
250.987	0.13
251.361	0.16
251.735	0.08
252.108	0.16
252.482	0.02
252.856	0.05
253.229	0.11
253.603	0.03
253.977	0.07
254.35	0.15
254.724	0.05
255.097	0.01
255.471	0.16
255.844	0.08
256.218	0.09
256.591	0.1
256.964	0.03
257.338	0.06
257.711	0.09
258.084	0.11
258.458	0.06
258.831	0.14
259.204	0.12
259.577	0.07
259.95	0.02
260.323	0.05
260.697	0.05
261.07	0.11
261.443	0.11
261.816	0.04
262.189	0.04
262.562	0.03
262.935	0.11
263.308	0.09
263.68	0.08
264.053	0.09
264.426	0.08
264.799	0.09
265.172	0.08
265.545	0.11
265.917	0.09
266.29	0.06
266.663	0.1
267.035	0.08
267.408	0.09
267.781	0.11
268.153	0.13
268.526	0.07
268.898	-0
269.271	0.11
269.643	0.08
270.016	0.04
270.388	0.18
270.76	0.08
271.133	0.07
271.505	0.14
271.877	0.12
272.25	0.14
272.622	0.15
272.994	0.11
273.366	0.08
273.739	0.12
274.111	0.09
274.483	0.1
274.855	0.12
275.227	0.11
275.599	0.01
275.971	0.06
276.343	0.05
276.715	0.09
277.087	0.09
277.459	0.12
277.831	0.16
278.203	0.11
278.574	0.15
278.946	0.07
279.318	0.08
279.69	0.06
280.061	0.11
280.433	0.1
280.805	0.04
281.176	0.1
281.548	0.16
281.92	0.1
282.291	0.09
282.663	0.13
283.034	0.11
283.406	0.07
283.777	0.08
284.148	0.17
284.52	0.17
284.891	0.11
285.262	0.12
285.634	0.1
286.005	0.13
286.376	0.12
286.747	0.1
287.119	0.06
287.49	0.07
287.861	0.09
288.232	0.13
288.603	0.1
288.974	0.12
289.345	0.11
289.716	0.07
290.087	0.12
290.458	0.1
290.829	0.12
291.2	0.12
291.571	0.12
291.941	0.1
292.312	0.08
292.683	0.1
293.054	0.09
293.424	0.06
293.795	0.1
294.166	0.08
294.536	0.11
294.907	0.14
295.277	0.13
295.648	0.1
296.018	0.15
296.389	0.13
296.759	0.1
297.13	0.07
297.5	0.11
297.871	0.19
298.241	0.06
298.611	0.22
298.981	0.17
299.352	0.11
299.722	0.16
300.092	0.09
300.462	0.04
300.832	0.09
301.202	0.07
301.573	0.12
301.943	0.09
302.313	0.12
302.683	0.11
303.053	0.1
303.422	0.1
303.792	0.08
304.162	0.13
304.532	0.12
304.902	0.05
305.272	0.08
305.641	0.14
306.011	0.11
306.381	0.08
306.75	0.11
307.12	0.08
307.49	0.09
307.859	0.05
308.229	0.11
308.598	0.1
308.968	0.07
309.337	0.08
309.707	0.08
310.076	0.09
310.445	0.07
310.815	0.06
311.184	0.06
311.553	0.06
311.923	0.05
312.292	0.06
312.661	0.08
313.03	0.07
313.399	0.08
313.768	0.07
314.137	0.08
314.506	0.06
314.875	0.06
315.244	0.07
315.613	0.07
315.982	0.08
316.351	0.07
316.72	0.08
317.089	0.07
317.458	0.08
317.826	0.07
318.195	0.07
318.564	0.07
318.933	0.09
319.301	0.08
319.67	0.08
320.038	0.08
320.407	0.08
320.775	0.08
321.144	0.09
321.512	0.09
321.881	0.08
322.249	0.09
322.618	0.08
322.986	0.09
323.354	0.09
323.723	0.09
324.091	0.1
324.459	0.1
324.827	0.1
325.195	0.1
325.564	0.1
325.932	0.11
326.3	0.1
326.668	0.11
327.036	0.1
327.404	0.11
327.772	0.1
328.14	0.11
328.508	0.1
328.875	0.1
329.243	0.11
329.611	0.1
329.979	0.11
330.346	0.1
330.714	0.11
331.082	0.12
331.449	0.11
331.817	0.12
332.185	0.12
332.552	0.12
332.92	0.13
333.287	0.12
333.655	0.13
334.022	0.13
334.389	0.13
334.757	0.13
335.124	0.13
335.491	0.14
335.859	0.14
336.226	0.14
336.593	0.14
336.96	0.15
337.327	0.15
337.695	0.15
338.062	0.15
338.429	0.15
338.796	0.16
339.163	0.16
339.53	0.17
339.897	0.17
340.263	0.17
340.63	0.17
340.997	0.18
341.364	0.18
341.731	0.18
342.097	0.19
342.464	0.19
342.831	0.2
343.197	0.19
343.564	0.2
343.931	0.2
344.297	0.2
344.664	0.21
345.03	0.21
345.396	0.22
345.763	0.22
346.129	0.22
346.496	0.22
346.862	0.22
347.228	0.23
347.594	0.23
347.961	0.24
348.327	0.24
348.693	0.24
349.059	0.24
349.425	0.24
349.791	0.25
350.157	0.26
350.523	0.26
350.889	0.26
351.255	0.26
351.621	0.26
351.987	0.27
352.353	0.28
352.719	0.28
353.084	0.28
353.45	0.29
353.816	0.28
354.181	0.29
354.547	0.29
354.913	0.3
355.278	0.31
355.644	0.31
356.009	0.31
356.375	0.31
356.74	0.32
357.106	0.32
357.471	0.33
357.836	0.33
358.202	0.33
358.567	0.34
358.932	0.34
359.297	0.35
359.663	0.35
360.028	0.36
360.393	0.37
360.758	0.37
361.123	0.38
361.488	0.38
361.853	0.39
362.218	0.39
362.583	0.4
362.948	0.4
363.312	0.4
363.677	0.41
364.042	0.42
364.407	0.42
364.772	0.43
365.136	0.44
365.501	0.44
365.865	0.44
366.23	0.44
366.595	0.45
366.959	0.46
367.324	0.46
367.688	0.46
368.052	0.47
368.417	0.47
368.781	0.48
369.145	0.48
369.51	0.48
369.874	0.49
370.238	0.49
370.602	0.49
370.967	0.5
371.331	0.5
371.695	0.5
372.059	0.51
372.423	0.51
372.787	0.51
373.151	0.5
373.515	0.5
373.878	0.5
374.242	0.5
374.606	0.5
374.97	0.5
375.334	0.49
375.697	0.49
376.061	0.48
376.425	0.48
376.788	0.48
377.152	0.47
377.515	0.48
377.879	0.47
378.242	0.46
378.606	0.45
378.969	0.44
379.333	0.45
379.696	0.44
380.059	0.44
380.422	0.43
380.786	0.43
381.149	0.43
381.512	0.41
381.875	0.43
382.238	0.41
382.601	0.41
382.964	0.41
383.327	0.4
383.69	0.41
384.053	0.4
384.416	0.4
384.779	0.4
385.142	0.4
385.504	0.4
385.867	0.4
386.23	0.4
386.593	0.4
386.955	0.4
387.318	0.4
387.68	0.41
388.043	0.41
388.405	0.41
388.768	0.41
389.13	0.41
389.493	0.41
389.855	0.41
390.217	0.4
390.58	0.41
390.942	0.4
391.304	0.4
391.666	0.4
392.028	0.39
392.391	0.39
392.753	0.38
393.115	0.38
393.477	0.38
393.839	0.37
394.201	0.37
394.563	0.37
394.924	0.37
395.286	0.37
395.648	0.38
396.01	0.37
396.371	0.38
396.733	0.39
397.095	0.39
397.456	0.41
397.818	0.41
398.18	0.43
398.541	0.44
398.903	0.45
399.264	0.46
399.625	0.48
399.987	0.49
400.348	0.49
400.709	0.5
401.071	0.51
401.432	0.51
401.793	0.51
402.154	0.51
402.515	0.5
402.876	0.49
403.238	0.48
403.599	0.48
403.96	0.46
404.32	0.44
404.681	0.43
405.042	0.41
405.403	0.39
405.764	0.37
406.125	0.36
406.485	0.33
406.846	0.31
407.207	0.3
407.567	0.28
407.928	0.27
408.288	0.26
408.649	0.24
409.009	0.22
409.37	0.21
409.73	0.2
410.091	0.19
410.451	0.18
410.811	0.17
411.171	0.16
411.532	0.15
411.892	0.14
412.252	0.14
412.612	0.13
412.972	0.12
413.332	0.12
413.692	0.11
414.052	0.11
414.412	0.11
414.772	0.09
415.132	0.1
415.492	0.09
415.851	0.09
416.211	0.09
416.571	0.08
416.931	0.08
417.29	0.08
417.65	0.08
418.009	0.08
418.369	0.08
418.728	0.07
419.088	0.07
419.447	0.06
419.807	0.06
420.166	0.06
420.525	0.07
420.884	0.05
421.244	0.06
421.603	0.06
421.962	0.06
422.321	0.06
422.68	0.06
423.039	0.05
423.398	0.05
423.757	0.05
424.116	0.06
424.475	0.06
424.834	0.06
425.193	0.05
425.551	0.05
425.91	0.04
426.269	0.04
426.628	0.05
426.986	0.05
427.345	0.05
427.703	0.05
428.062	0.04
428.42	0.05
428.779	0.04
429.137	0.04
429.496	0.04
429.854	0.04
430.212	0.05
430.57	0.04
430.929	0.04
431.287	0.04
431.645	0.04
432.003	0.04
432.361	0.04
432.719	0.04
433.077	0.04
433.435	0.03
433.793	0.03
434.151	0.04
434.509	0.04
434.866	0.04
435.224	0.04
435.582	0.04
435.94	0.05
436.297	0.03
436.655	0.03
437.012	0.04
437.37	0.04
437.727	0.04
438.085	0.03
438.442	0.04
438.8	0.04
439.157	0.03
439.514	0.04
439.872	0.04
440.229	0.04
440.586	0.04
440.943	0.04
441.3	0.04
441.657	0.04
442.014	0.04
442.371	0.04
442.728	0.03
443.085	0.05
443.442	0.04
443.799	0.03
444.156	0.04
444.513	0.03
444.869	0.03
445.226	0.04
445.583	0.04
445.939	0.04
446.296	0.04
446.652	0.04
447.009	0.04
447.365	0.04
447.722	0.04
448.078	0.04
448.434	0.04
448.791	0.04
449.147	0.04
449.503	0.04
449.859	0.04
450.215	0.04
450.571	0.03
450.928	0.04
451.284	0.04
451.64	0.04
451.995	0.04
452.351	0.05
452.707	0.05
453.063	0.03
453.419	0.04
453.775	0.04
454.13	0.04
454.486	0.05
454.842	0.04
455.197	0.04
455.553	0.05
455.908	0.03
456.264	0.04
456.619	0.04
456.975	0.03
457.33	0.04
457.685	0.04
458.04	0.04
458.396	0.04
458.751	0.04
459.106	0.04
459.461	0.04
459.816	0.04
460.171	0.04
460.526	0.04
460.881	0.04
461.236	0.04
461.591	0.05
461.946	0.04
462.301	0.03
462.655	0.04
463.01	0.04
463.365	0.04
463.719	0.03
464.074	0.04
464.428	0.04
464.783	0.04
465.137	0.04
465.492	0.04
465.846	0.03
466.201	0.04
466.555	0.03
466.909	0.04
467.263	0.03
467.618	0.04
467.972	0.04
468.326	0.04
468.68	0.04
469.034	0.04
469.388	0.05
469.742	0.04
470.096	0.04
470.45	0.04
470.804	0.05
471.157	0.04
471.511	0.04
471.865	0.05
472.218	0.05
472.572	0.05
472.926	0.05
473.279	0.05
473.633	0.05
473.986	0.05
474.34	0.06
474.693	0.05
475.046	0.05
475.4	0.06
475.753	0.06
476.106	0.06
476.459	0.06
476.812	0.06
477.165	0.06
477.519	0.07
477.872	0.06
478.224	0.07
478.577	0.07
478.93	0.07
479.283	0.07
479.636	0.08
479.989	0.07
480.341	0.07
480.694	0.07
481.047	0.08
481.399	0.07
481.752	0.08
482.104	0.08
482.457	0.08
482.809	0.08
483.162	0.08
483.514	0.08
483.866	0.08
484.219	0.08
484.571	0.09
484.923	0.09
485.275	0.09
485.627	0.09
485.979	0.09
486.331	0.09
486.683	0.09
487.035	0.09
487.387	0.09
487.739	0.1
488.091	0.1
488.443	0.1
488.794	0.1
489.146	0.09
489.498	0.1
489.849	0.1
490.201	0.1
490.552	0.1
490.904	0.1
491.255	0.11
491.607	0.1
491.958	0.11
492.309	0.11
492.661	0.1
493.012	0.11
493.363	0.11
493.714	0.11
494.065	0.11
494.416	0.11
494.767	0.12
495.118	0.12
495.469	0.11
495.82	0.12
496.171	0.12
496.522	0.12
496.872	0.12
497.223	0.12
497.574	0.12
497.924	0.12
498.275	0.13
498.626	0.13
498.976	0.13
499.327	0.13
499.677	0.13
500.027	0.13
500.378	0.13
500.728	0.13
501.078	0.14
501.428	0.13
501.779	0.13
502.129	0.14
502.479	0.13
502.829	0.14
503.179	0.14
503.529	0.14
503.879	0.14
504.229	0.14
504.578	0.14
504.928	0.14
505.278	0.14
505.628	0.15
505.977	0.15
506.327	0.15
506.676	0.15
507.026	0.15
507.375	0.15
507.725	0.15
508.074	0.15
508.424	0.15
508.773	0.15
509.122	0.15
509.471	0.15
509.82	0.16
510.17	0.15
510.519	0.16
510.868	0.16
511.217	0.16
511.566	0.16
511.915	0.16
512.263	0.16
512.612	0.16
512.961	0.17
513.31	0.17
513.659	0.17
514.007	0.17
514.356	0.17
514.704	0.17
515.053	0.17
515.401	0.17
515.75	0.17
516.098	0.17
516.447	0.18
516.795	0.18
517.143	0.18
517.491	0.18
517.839	0.18
518.188	0.18
518.536	0.18
518.884	0.18
519.232	0.18
519.58	0.18
519.928	0.18
520.275	0.18
520.623	0.18
520.971	0.19
521.319	0.19
521.666	0.18
522.014	0.18
522.362	0.19
522.709	0.19
523.057	0.19
523.404	0.19
523.752	0.19
524.099	0.2
524.446	0.19
524.794	0.19
525.141	0.19
525.488	0.19
525.835	0.2
526.182	0.19
526.529	0.2
526.876	0.2
527.223	0.2
527.57	0.2
527.917	0.2
528.264	0.2
528.611	0.19
528.958	0.2
529.304	0.2
529.651	0.2
529.998	0.2
530.344	0.2
530.691	0.21
531.037	0.2
531.384	0.2
531.73	0.2
532.076	0.21
532.423	0.21
532.769	0.21
533.115	0.21
533.461	0.21
533.807	0.21
534.154	0.21
534.5	0.21
534.846	0.21
535.192	0.21
535.537	0.21
535.883	0.21
536.229	0.21
536.575	0.21
536.921	0.22
537.266	0.21
537.612	0.22
537.957	0.21
538.303	0.22
538.649	0.21
538.994	0.22
539.339	0.22
539.685	0.22
540.03	0.22
540.375	0.22
540.721	0.22
541.066	0.22
541.411	0.22
541.756	0.22
542.101	0.22
542.446	0.22
542.791	0.22
543.136	0.22
543.481	0.22
543.825	0.23
544.17	0.22
544.515	0.22
544.86	0.23
545.204	0.23
545.549	0.23
545.893	0.23
546.238	0.23
546.582	0.23
546.927	0.23
547.271	0.23
547.615	0.23
547.96	0.23
548.304	0.23
548.648	0.23
548.992	0.23
549.336	0.23
549.68	0.23
550.024	0.23
550.368	0.23
550.712	0.23
551.056	0.23
551.4	0.23
551.743	0.23
552.087	0.23
552.431	0.23
552.774	0.23
553.118	0.23
553.462	0.23
553.805	0.23
554.148	0.23
554.492	0.23
554.835	0.23
555.178	0.23
555.522	0.23
555.865	0.23
556.208	0.24
556.551	0.23
556.894	0.23
557.237	0.24
557.58	0.24
557.923	0.23
558.266	0.23
558.609	0.23
558.952	0.23
559.294	0.23
559.637	0.23
559.98	0.24
560.322	0.24
560.665	0.24
561.007	0.24
561.35	0.24
561.692	0.24
562.034	0.23
562.377	0.24
562.719	0.23
563.061	0.24
563.403	0.23
563.745	0.24
564.088	0.24
564.43	0.24
564.772	0.23
565.113	0.23
565.455	0.23
565.797	0.23
566.139	0.23
566.481	0.23
566.822	0.24
567.164	0.23
567.506	0.23
567.847	0.23
568.189	0.23
568.53	0.23
568.872	0.23
569.213	0.23
569.554	0.23
569.895	0.23
570.237	0.23
570.578	0.23
570.919	0.23
571.26	0.22
571.601	0.22
571.942	0.23
572.283	0.22
572.624	0.22
572.965	0.22
573.306	0.22
573.646	0.22
573.987	0.22
574.328	0.22
574.668	0.22
575.009	0.22
575.349	0.22
575.69	0.21
576.03	0.22
576.37	0.21
576.711	0.21
577.051	0.21
577.391	0.21
577.731	0.22
578.072	0.21
578.412	0.21
578.752	0.22
579.092	0.21
579.431	0.2
579.771	0.19
580.111	0.18
580.451	0.19
580.791	0.2
581.13	0.21
581.47	0.21
581.81	0.21
582.149	0.21
582.489	0.21
582.828	0.2
583.167	0.18
583.507	0.14
583.846	0.13
584.185	0.16
584.525	0.18
584.864	0.2
585.203	0.21
585.542	0.21
585.881	0.21
586.22	0.21
586.559	0.21
586.898	0.2
587.236	0.19
587.575	0.19
587.914	0.19
588.252	0.21
588.591	0.21
588.93	0.21
589.268	0.2
589.607	0.2
589.945	0.21
590.283	0.21
590.622	0.21
590.96	0.21
591.298	0.21
591.636	0.21
591.974	0.22
592.313	0.21
592.651	0.22
592.989	0.21
593.326	0.21
593.664	0.21
594.002	0.22
594.34	0.21
594.678	0.21
595.015	0.21
595.353	0.2
595.691	0.21
596.028	0.21
596.366	0.21
596.703	0.22
597.04	0.22
597.378	0.22
597.715	0.22
598.052	0.22
598.389	0.22
598.726	0.22
599.064	0.22
599.401	0.22
599.738	0.22
600.074	0.22
600.411	0.22
600.748	0.21
601.085	0.21
601.422	0.21
601.758	0.21
602.095	0.21
602.432	0.21
602.768	0.21
603.105	0.21
603.441	0.22
603.777	0.22
604.114	0.22
604.45	0.22
604.786	0.22
605.122	0.22
605.459	0.21
605.795	0.22
606.131	0.21
606.467	0.22
606.803	0.21
607.139	0.22
607.474	0.21
607.81	0.21
608.146	0.21
608.482	0.21
608.817	0.21
609.153	0.21
609.488	0.21
609.824	0.21
610.159	0.21
610.495	0.21
610.83	0.21
611.165	0.21
611.5	0.21
611.836	0.21
612.171	0.21
612.506	0.21
612.841	0.21
613.176	0.21
613.511	0.21
613.845	0.21
614.18	0.2
614.515	0.21
614.85	0.21
615.184	0.2
615.519	0.2
615.854	0.2
616.188	0.2
616.523	0.2
616.857	0.2
617.191	0.2
617.526	0.2
617.86	0.2
618.194	0.2
618.528	0.2
618.862	0.2
619.196	0.2
619.53	0.2
619.864	0.2
620.198	0.2
620.532	0.19
620.866	0.2
621.2	0.2
621.533	0.19
621.867	0.19
622.201	0.19
622.534	0.19
622.868	0.19
623.201	0.19
623.534	0.19
623.868	0.19
624.201	0.19
624.534	0.19
624.868	0.19
625.201	0.19
625.534	0.19
625.867	0.19
626.2	0.18
626.533	0.18
626.865	0.18
627.198	0.18
627.531	0.18
627.864	0.18
628.196	0.18
628.529	0.18
628.862	0.18
629.194	0.18
629.527	0.17
629.859	0.17
630.191	0.17
630.524	0.17
630.856	0.17
631.188	0.17
631.52	0.17
631.852	0.17
632.184	0.17
632.516	0.17
632.848	0.17
633.18	0.16
633.512	0.16
633.844	0.16
634.175	0.16
634.507	0.16
634.839	0.16
635.17	0.16
635.502	0.16
635.833	0.15
636.165	0.16
636.496	0.15
636.827	0.15
637.159	0.15
637.49	0.15
637.821	0.15
638.152	0.15
638.483	0.15
638.814	0.15
639.145	0.15
639.476	0.14
639.807	0.15
640.137	0.14
640.468	0.14
640.799	0.14
641.129	0.14
641.46	0.14
641.791	0.14
642.121	0.14
642.451	0.14
642.782	0.14
643.112	0.13
643.442	0.13
643.773	0.13
644.103	0.13
644.433	0.13
644.763	0.13
645.093	0.13
645.423	0.13
645.753	0.13
646.082	0.12
646.412	0.13
646.742	0.13
647.072	0.13
647.401	0.12
647.731	0.12
648.06	0.12
648.39	0.13
648.719	0.12
649.048	0.12
649.378	0.12
649.707	0.12
650.036	0.12
650.365	0.12
650.694	0.12
651.023	0.12
651.352	0.12
651.681	0.12
652.01	0.12
652.339	0.12
652.668	0.12
652.996	0.12
653.325	0.12
653.654	0.12
653.982	0.12
654.311	0.12
654.639	0.12
654.967	0.12
655.296	0.12
655.624	0.12
655.952	0.12
656.28	0.12
656.609	0.12
656.937	0.12
657.265	0.11
657.593	0.02
657.92	0
658.248	-0
658.576	0
658.904	0
659.231	0.07
659.559	0.11
659.887	0.11
660.214	0.11
660.542	0.11
660.869	0.11
661.196	0.11
661.524	0.11
661.851	0.11
662.178	0.11
662.505	0.11
662.832	0.11
663.159	0.11
663.486	0.11
663.813	0.11
664.14	0.11
664.467	0.11
664.794	0.11
665.12	0.11
665.447	0.11
665.774	0.11
666.1	0.11
666.427	0.1
666.753	0.1
667.079	0.1
667.406	0.1
667.732	0.1
668.058	0.1
668.384	0.1
668.71	0.1
669.036	0.1
669.362	0.1
669.688	0.1
670.014	0.1
670.34	0.1
670.666	0.1
670.991	0.1
671.317	0.1
671.643	0.09
671.968	0.1
672.294	0.09
672.619	0.09
672.945	0.09
673.27	0.09
673.595	0.09
673.92	0.09
674.246	0.08
674.571	0.09
674.896	0.09
675.221	0.09
675.546	0.08
675.87	0.09
676.195	0.09
676.52	0.09
676.845	0.08
677.169	0.08
677.494	0.08
677.819	0.08
678.143	0.08
678.468	0.08
678.792	0.08
679.116	0.08
679.44	0.08
679.765	0.08
680.089	0.07
680.413	0.07
680.737	0.08
681.061	0.07
681.385	0.07
681.709	0.07
682.033	0.07
682.356	0.07
682.68	0.07
683.004	0.07
683.327	0.07
683.651	0.07
683.974	0.07
684.298	0.07
684.621	0.07
684.944	0.07
685.268	0.06
685.591	0.06
685.914	0.06
686.237	0.06
686.56	0.06
686.883	0.06
687.206	0.06
687.529	0.05
687.852	0.05
688.175	0.05
688.497	0.06
688.82	0.05
689.142	0.05
689.465	0.05
689.787	0.05
690.11	0.05
690.432	0.05
690.755	0.05
691.077	0.05
691.399	0.05
691.721	0.05
692.043	0.05
692.365	0.05
692.687	0.05
693.009	0.04
693.331	0.05
693.653	0.04
693.974	0.04
694.296	0.04
694.618	0.04
694.939	0.04
695.261	0.04
695.582	0.04
695.904	0.04
696.225	0.04
696.546	0.05
696.868	0.04
697.189	0.04
697.51	0.04
697.831	0.04
698.152	0.04
698.473	0.04
698.794	0.03
699.114	0.03
699.435	0.02
699.756	0.03
700.077	0.03
700.397	0.03
700.718	0.04
701.038	0.04
701.359	0.04
701.679	0.04
701.999	0.04
702.32	0.04
702.64	0.03
702.96	0.04
703.28	0.03
703.6	0.03
703.92	0.03
704.24	0.03
704.56	0.03
704.879	0.03
705.199	0.03
705.519	0.03
705.838	0.03
706.158	0.03
706.478	0.03
706.797	0.03
707.116	0.03
707.436	0.03
707.755	0.03
708.074	0.03
708.393	0.03
708.712	0.03
709.031	0.02
709.35	0.02
709.669	0.02
709.988	0.02
710.307	0.02
710.626	0.02
710.944	0.03
711.263	0.03
711.582	0.03
711.9	0.03
712.219	0.03
712.537	0.03
712.855	0.03
713.174	0.03
713.492	0.03
713.81	0.03
714.128	0.03
714.446	0.03
714.764	0.03
715.082	0.02
715.4	0.03
715.718	0.03
716.035	0.03
716.353	0.03
716.671	0.03
716.988	0.03
717.306	0.02
717.623	0.03
717.941	0.03
718.258	0.03
718.575	0.03
718.893	0.03
719.21	0.03
719.527	0.03
719.844	0.03
720.161	0.03
720.478	0.03
720.795	0.03
721.112	0.03
721.428	0.03
721.745	0.03
722.062	0.03
722.378	0.03
722.695	0.03
723.011	0.03
723.328	0.03
723.644	0.03
723.96	0.03
724.276	0.04
724.593	0.04
724.909	0.04
725.225	0.04
725.541	0.04
725.857	0.04
726.173	0.04
726.488	0.04
726.804	0.04
727.12	0.04
727.435	0.03
727.751	0.04
728.067	0.04
728.382	0.04
728.697	0.04
729.013	0.04
729.328	0.03
729.643	0.04
729.958	0.04
730.273	0.03
730.588	0.04
730.903	0.03
731.218	0.04
731.533	0.04
731.848	0.04
732.163	0.04
732.477	0.03
732.792	0.03
733.107	0.03
733.421	0.03
733.736	0.03
734.05	0.03
734.364	0.03
734.678	0.03
734.993	0.03
735.307	0.03
735.621	0.03
735.935	0.03
736.249	0.03
736.563	0.03
736.877	0.03
737.19	0.03
737.504	0.03
737.818	0.03
738.131	0.03
738.445	0.03
738.758	0.03
739.072	0.03
739.385	0.03
739.698	0.03
740.012	0.03
740.325	0.03
740.638	0.03
740.951	0.03
741.264	0.03
741.577	0.03
741.89	0.03
742.203	0.03
742.515	0.03
742.828	0.03
743.141	0.03
743.453	0.03
743.766	0.03
744.078	0.03
744.391	0.03
744.703	0.03
745.015	0.03
745.327	0.03
745.639	0.03
745.952	0.03
746.264	0.03
746.575	0.03
746.887	0.03
747.199	0.03
747.511	0.03
747.823	0.03
748.134	0.03
748.446	0.03
748.757	0.02
749.069	0.03
749.38	0.02
749.692	0.03
750.003	0.02
750.314	0.02
750.625	0.02
750.936	0.02
751.248	0.02
751.559	0.02
751.869	0.02
752.18	0.03
752.491	0.02
752.802	0.02
753.112	0.02
753.423	0.02
753.734	0.02
754.044	0.02
754.355	0.02
754.665	0.02
754.975	0.02
755.285	0.02
755.596	0.02
755.906	0.02
756.216	0.02
756.526	0.02
756.836	0.02
757.146	0.02
757.455	0.02
757.765	0.02
758.075	0.02
758.385	0.02
758.694	0.02
759.004	0.01
759.313	0.01
759.622	0.01
759.932	0.01
760.241	0.02
760.55	0.01
760.859	0.01
761.168	0.01
761.477	0.01
761.786	0.01
762.095	0.01
762.404	0.01
762.713	0.01
763.021	0.01
763.33	0.01
763.639	0.01
763.947	0.01
764.256	0.01
764.564	0.01
764.872	0.01
765.181	0.01
765.489	0.01
765.797	0.01
766.105	0.01
766.413	0.01
766.721	0.01
767.029	0.01
767.337	0.01
767.644	0.01
767.952	0.01
768.26	0.01
768.567	0.01
768.875	0.01
769.182	0.01
769.49	0.01
769.797	0.01
770.104	0.01
770.411	0.01
770.718	0.01
771.026	0.01
771.333	0.01
771.639	0.02
771.946	0.01
772.253	0.01
772.56	0.01
772.867	0.01
773.173	0.01
773.48	0.02
773.786	0.01
774.093	0.01
774.399	0.01
774.705	0.01
775.012	0.02
775.318	0.02
775.624	0.01
775.93	0.02
776.236	0.01
776.542	0.01
776.848	0.01
777.154	0.02
777.459	0.02
777.765	0.02
778.071	0.02
778.376	0.02
778.682	0.02
778.987	0.01
779.292	0.01
779.598	0.01
779.903	0.01
780.208	0.02
780.513	0.01
780.818	0.01
781.123	0.02
781.428	0.01
781.733	0.01
782.038	0.01
782.343	0.01
782.647	0.01
782.952	0.02
783.256	0.01
783.561	0.01
783.865	0.01
784.17	0.01
784.474	0.02
784.778	0.02
785.082	0.02
785.386	0.02
785.69	0.02
785.994	0.02
786.298	0.02
786.602	0.02
786.906	0.01
787.209	0.02
787.513	0.02
787.817	0.01
788.12	0.02
788.424	0.01
788.727	0.01
789.03	0.01
789.333	0.01
789.637	0.01
789.94	0.01
790.243	0.01
790.546	0.01
790.849	0.01
791.152	0.01
791.454	0.01
791.757	0.01
792.06	0.01
792.362	0.01
792.665	0.01
792.967	0.01
793.27	0.01
793.572	0.01
793.874	0.01
794.177	0.01
794.479	0.02
794.781	0.01
795.083	0.01
795.385	0.01
795.687	0.01
795.989	0.01
796.29	0.01
796.592	0.01
796.894	0.01
797.195	0.02
797.497	0.02
797.798	0.02
798.1	0.02
798.401	0.01
798.702	0.01
799.003	0.02
799.304	0.01
799.605	0.01
799.906	0.01
800.207	0.01
800.508	0.01
800.809	0.01
801.11	0.01
801.41	0.01
801.711	0.02
802.011	0.01
802.312	0.01
802.612	0.02
802.913	0.02
803.213	0.02
803.513	0.01
803.813	0.01
804.113	0.01
804.413	0.01
804.713	0.01
805.013	0.01
805.313	0.01
805.613	0.02
805.912	0.02
806.212	0.01
806.511	0.02
806.811	0.01
807.11	0.01
807.41	0.01
807.709	0.01
808.008	0.02
808.307	0.02
808.606	0.02
808.905	0.02
809.204	0.02
809.503	0.02
809.802	0.02
810.101	0.02
810.399	0.02
810.698	0.02
810.997	0.02
811.295	0.02
811.593	0.02
811.892	0.02
812.19	0.02
812.488	0.01
812.786	0.01
813.084	0.01
813.383	0.02
813.68	0.01
813.978	0.01
814.276	0.02
814.574	0.02
814.872	0.02
815.169	0.02
815.467	0.02
815.764	0.01
816.062	0.02
816.359	0.02
816.656	0.02
816.954	0.02
817.251	0.02
817.548	0.02
817.845	0.02
818.142	0.02
818.439	0.01
818.735	0.02
819.032	0.02
819.329	0.01
819.626	0.01
819.922	0.01
820.219	0.02
820.515	0.02
820.811	0.02
821.108	0.02
821.404	0.03
821.7	0.02
821.996	0.02
822.292	0.02
822.588	0.02
822.884	0.02
823.18	0.03
823.475	0.02
823.771	0.02
824.067	0.03
824.362	0.03
824.658	0.02
824.953	0.02
825.249	0.02
825.544	0.03
825.839	0.03
826.134	0.02
826.429	0.03
826.724	0.02
827.019	0.02
827.314	0.02
827.609	0.02
827.904	0.02
828.198	0.02
828.493	0.02
828.787	0.02
829.082	0.02
829.376	0.02
829.671	0.02
829.965	0.02
830.259	0.02
830.553	0.02
830.847	0.02
831.141	0.02
831.435	0.02
831.729	0.03
832.023	0.02
832.317	0.02
832.61	0.02
832.904	0.02
833.197	0.02
833.491	0.02
833.784	0.02
834.077	0.03
834.371	0.03
834.664	0.02
834.957	0.02
835.25	0.02
835.543	0.02
835.836	0.02
836.129	0.01
836.421	0.02
836.714	0.02
837.007	0.01
837.299	0.03
837.592	0.02
837.884	0.02
838.177	0.02
838.469	0.03
838.761	0.03
839.053	0.02
839.345	0.03
839.637	0.02
839.929	0.03
840.221	0.03
840.513	0.03
840.805	0.03
841.096	0.02
841.388	0.02
841.68	0.02
841.971	0.02
842.262	0.03
842.554	0.02
842.845	0.02
843.136	0.02
843.427	0.03
843.718	0.03
844.009	0.03
844.3	0.02
844.591	0.03
844.882	0.03
845.173	0.03
845.463	0.03
845.754	0.03
846.044	0.03
846.335	0.04
846.625	0.03
846.915	0.03
847.206	0.02
847.496	0.03
847.786	0.03
848.076	0.03
848.366	0.03
848.656	0.03
848.945	0.03
849.235	0.03
849.525	0.03
849.814	0.03
850.104	0.03
850.393	0.03
850.683	0.03
850.972	0.02
851.261	0.03
851.551	0.03
851.84	0.04
852.129	0.03
852.418	0.03
852.707	0.03
852.995	0.02
853.284	0.02
853.573	0.03
853.862	0.03
854.15	0.03
854.439	0.02
854.727	0.03
855.015	0.04
855.304	0.03
855.592	0.03
855.88	0.03
856.168	0.03
856.456	0.04
856.744	0.03
857.032	0.03
857.32	0.03
857.607	0.04
857.895	0.04
858.183	0.04
858.47	0.02
858.757	0.04
859.045	0.04
859.332	0.04
859.619	0.02
859.907	0.04
860.194	0.05
860.481	0.03
860.768	0.04
861.054	0.05
861.341	0.03
861.628	0.04
861.915	0.04
862.201	0.02
862.488	0.04
862.774	0.04
863.061	0.03
863.347	0.02
863.633	0.05
863.919	0.03
864.205	0.01
864.491	0.03
864.777	0.02
865.063	0.02
865.349	0.03
865.635	0.02
865.92	0.03
866.206	0.03
866.492	0.04
866.777	0.04
867.062	0.01
867.348	0.03
867.633	0.02
867.918	0.02
868.203	0.03
868.488	0.05
868.773	0.03
869.058	0.01
869.343	0.01
869.628	0.01
869.912	0.01
870.197	0.03
870.482	0.03
870.766	0.02
871.05	-0.02
871.335	0.03
871.619	0
871.903	0.06
872.187	0.03
872.471	0.03
872.755	-0.01
873.039	0.01
873.323	-0
873.607	0.01
873.89	0.07
874.174	0.01
874.458	-0.01
874.741	0
875.024	0.02
875.308	0.05
875.591	0.02
875.874	0.05
876.157	0.1
876.44	0.01
876.723	0.06
877.006	0.01
877.289	-0
877.572	0.03
877.854	0.01
878.137	-0.04
878.42	0.01
878.702	0.02
878.984	0.05
879.267	0.04
879.549	0.06
879.831	0.07
880.113	0.04
880.395	0.03
880.677	-0.01
880.959	-0.04
