Data from Rubpy_BV_1500_EDTA_Buffered_Absorbance_14-31-29-621.txt Node
Date: Wed Jul 01 14:31:29 BST 2026
User: fpm-admin
Spectrometer: OFX00224
Trigger mode: 0
Integration Time (sec): 7.000000E-2
Scans to average: 3
Nonlinearity correction enabled: false
Boxcar width: 0
Storing dark spectrum: false
XAxis mode: Wavelengths
Number of Pixels in Spectrum: 2136
>>>>>Begin Spectral Data<<<<<
154.91	0.48
155.289	-0.12
155.669	-1.23
156.048	-0
156.428	-0
156.807	-0
157.186	-0.14
157.566	-0
157.945	0.48
158.325	-0.07
158.704	-0
159.083	0.81
159.462	0.16
159.842	-0.01
160.221	-0.39
160.6	-0
160.979	-0.39
161.359	0.19
161.738	-0
162.117	-0.25
162.496	-0.67
162.875	-0.3
163.254	0.74
163.633	-0.5
164.012	-0.22
164.391	-0.08
164.77	0.14
165.149	0.13
165.528	-0.75
165.907	0.6
166.286	-0.18
166.665	0.44
167.044	0.04
167.423	-0
167.802	-0
168.181	-0.15
168.559	-0.09
168.938	-0.12
169.317	0.49
169.696	-0.22
170.074	-0
170.453	-0.15
170.832	-0
171.21	-0.2
171.589	0.32
171.968	-0.63
172.346	1.69
172.725	-0
173.103	1.28
173.482	-0
173.861	0.2
174.239	-1.11
174.617	-0
174.996	-0
175.374	0.04
175.753	-0.44
176.131	-0
176.51	0.03
176.888	0.52
177.266	-0
177.645	0.02
178.023	0.84
178.401	-0.09
178.779	-0.04
179.158	-0.02
179.536	0.24
179.914	0.7
180.292	0.04
180.67	-0
181.048	-0
181.427	0.34
181.805	-0.12
182.183	0.78
182.561	0.43
182.939	-0
183.317	-0.35
183.695	0.06
184.073	-0.12
184.451	-0.1
184.829	-0
185.206	-0
185.584	-0.08
185.962	-0
186.34	-0
186.718	-0.18
187.096	-0.6
187.473	0.28
187.851	-0
188.229	-0
188.607	0.17
188.984	0.31
189.362	0.28
189.74	0.35
190.117	0.18
190.495	0.24
190.872	0.26
191.25	0.43
191.627	0.14
192.005	0.28
192.382	0.32
192.76	0.33
193.137	0.37
193.515	0.25
193.892	0.25
194.269	0.23
194.647	0.37
195.024	0.31
195.401	0.21
195.779	0.15
196.156	0.41
196.533	0.3
196.91	0.33
197.288	0.37
197.665	0.19
198.042	0.44
198.419	0.26
198.796	0.24
199.173	0.27
199.55	0.17
199.927	0.25
200.304	0.4
200.681	0.38
201.058	0.18
201.435	0.35
201.812	0.31
202.189	0.21
202.566	0.13
202.943	0.27
203.32	0.23
203.697	0.21
204.073	0.27
204.45	0.34
204.827	0.4
205.204	0.25
205.58	0.24
205.957	0.27
206.334	0.39
206.71	0.24
207.087	0.48
207.464	0.21
207.84	0.25
208.217	0.42
208.593	0.3
208.97	0.3
209.346	0.24
209.723	0.35
210.099	0.21
210.476	0.28
210.852	0.26
211.228	0.32
211.605	0.29
211.981	0.27
212.357	0.28
212.733	0.21
213.11	0.32
213.486	0.25
213.862	0.22
214.238	0.39
214.614	0.22
214.991	0.36
215.367	0.21
215.743	0.26
216.119	0.33
216.495	0.36
216.871	0.35
217.247	0.36
217.623	0.26
217.999	0.34
218.375	0.35
218.751	0.35
219.127	0.33
219.502	0.19
219.878	0.29
220.254	0.33
220.63	0.35
221.006	0.28
221.381	0.33
221.757	0.41
222.133	0.24
222.508	0.36
222.884	0.36
223.26	0.27
223.635	0.32
224.011	0.53
224.386	0.42
224.762	0.31
225.137	0.3
225.513	0.43
225.888	0.47
226.264	0.44
226.639	0.45
227.014	0.46
227.39	0.48
227.765	0.47
228.14	0.34
228.516	0.35
228.891	0.38
229.266	0.38
229.641	0.51
230.017	0.37
230.392	0.35
230.767	0.31
231.142	0.28
231.517	0.22
231.892	0.35
232.267	0.43
232.642	0.25
233.017	0.43
233.392	0.45
233.767	0.34
234.142	0.33
234.517	0.44
234.892	0.27
235.267	0.37
235.641	0.27
236.016	0.3
236.391	0.44
236.766	0.63
237.14	0.38
237.515	0.37
237.89	0.57
238.264	0.39
238.639	0.38
239.014	0.3
239.388	0.17
239.763	0.35
240.137	0.31
240.512	0.27
240.886	0.36
241.261	0.25
241.635	0.33
242.009	0.47
242.384	0.32
242.758	0.42
243.132	0.25
243.507	0.25
243.881	0.32
244.255	0.23
244.629	0.27
245.004	0.23
245.378	0.42
245.752	0.38
246.126	0.53
246.5	0.42
246.874	0.18
247.248	0.32
247.622	0.34
247.996	0.36
248.37	0.32
248.744	0.34
249.118	0.31
249.492	0.3
249.866	0.29
250.24	0.34
250.613	0.38
250.987	0.34
251.361	0.28
251.735	0.44
252.108	0.35
252.482	0.37
252.856	0.46
253.229	0.36
253.603	0.24
253.977	0.31
254.35	0.4
254.724	0.23
255.097	0.23
255.471	0.32
255.844	0.4
256.218	0.31
256.591	0.39
256.964	0.29
257.338	0.42
257.711	0.3
258.084	0.26
258.458	0.28
258.831	0.4
259.204	0.44
259.577	0.26
259.95	0.29
260.323	0.25
260.697	0.38
261.07	0.34
261.443	0.43
261.816	0.36
262.189	0.35
262.562	0.31
262.935	0.45
263.308	0.36
263.68	0.19
264.053	0.29
264.426	0.28
264.799	0.43
265.172	0.41
265.545	0.39
265.917	0.3
266.29	0.42
266.663	0.32
267.035	0.3
267.408	0.31
267.781	0.36
268.153	0.37
268.526	0.35
268.898	0.39
269.271	0.27
269.643	0.33
270.016	0.32
270.388	0.33
270.76	0.23
271.133	0.24
271.505	0.39
271.877	0.32
272.25	0.35
272.622	0.43
272.994	0.38
273.366	0.29
273.739	0.31
274.111	0.31
274.483	0.39
274.855	0.28
275.227	0.4
275.599	0.27
275.971	0.37
276.343	0.32
276.715	0.45
277.087	0.34
277.459	0.24
277.831	0.41
278.203	0.32
278.574	0.25
278.946	0.22
279.318	0.32
279.69	0.25
280.061	0.29
280.433	0.34
280.805	0.22
281.176	0.38
281.548	0.33
281.92	0.38
282.291	0.3
282.663	0.32
283.034	0.31
283.406	0.36
283.777	0.34
284.148	0.35
284.52	0.35
284.891	0.38
285.262	0.38
285.634	0.31
286.005	0.4
286.376	0.37
286.747	0.35
287.119	0.38
287.49	0.3
287.861	0.26
288.232	0.38
288.603	0.42
288.974	0.33
289.345	0.46
289.716	0.29
290.087	0.38
290.458	0.42
290.829	0.25
291.2	0.33
291.571	0.4
291.941	0.37
292.312	0.31
292.683	0.4
293.054	0.34
293.424	0.4
293.795	0.35
294.166	0.25
294.536	0.24
294.907	0.44
295.277	0.36
295.648	0.4
296.018	0.35
296.389	0.38
296.759	0.37
297.13	0.35
297.5	0.35
297.871	0.37
298.241	0.3
298.611	0.38
298.981	0.47
299.352	0.33
299.722	0.45
300.092	0.29
300.462	0.42
300.832	0.36
301.202	0.36
301.573	0.34
301.943	0.37
302.313	0.4
302.683	0.4
303.053	0.39
303.422	0.36
303.792	0.36
304.162	0.35
304.532	0.29
304.902	0.28
305.272	0.3
305.641	0.35
306.011	0.32
306.381	0.23
306.75	0.29
307.12	0.25
307.49	0.29
307.859	0.27
308.229	0.29
308.598	0.28
308.968	0.26
309.337	0.27
309.707	0.27
310.076	0.29
310.445	0.26
310.815	0.26
311.184	0.23
311.553	0.26
311.923	0.26
312.292	0.26
312.661	0.27
313.03	0.3
313.399	0.29
313.768	0.29
314.137	0.28
314.506	0.27
314.875	0.3
315.244	0.32
315.613	0.32
315.982	0.31
316.351	0.31
316.72	0.34
317.089	0.32
317.458	0.33
317.826	0.33
318.195	0.34
318.564	0.36
318.933	0.36
319.301	0.35
319.67	0.36
320.038	0.36
320.407	0.38
320.775	0.39
321.144	0.38
321.512	0.4
321.881	0.4
322.249	0.41
322.618	0.4
322.986	0.41
323.354	0.42
323.723	0.44
324.091	0.42
324.459	0.44
324.827	0.44
325.195	0.44
325.564	0.45
325.932	0.46
326.3	0.45
326.668	0.48
327.036	0.48
327.404	0.49
327.772	0.48
328.14	0.5
328.508	0.51
328.875	0.5
329.243	0.53
329.611	0.54
329.979	0.55
330.346	0.55
330.714	0.55
331.082	0.57
331.449	0.57
331.817	0.59
332.185	0.59
332.552	0.61
332.92	0.63
333.287	0.63
333.655	0.63
334.022	0.66
334.389	0.67
334.757	0.69
335.124	0.68
335.491	0.7
335.859	0.72
336.226	0.73
336.593	0.74
336.96	0.75
337.327	0.77
337.695	0.79
338.062	0.8
338.429	0.81
338.796	0.83
339.163	0.84
339.53	0.86
339.897	0.87
340.263	0.89
340.63	0.9
340.997	0.92
341.364	0.94
341.731	0.94
342.097	0.97
342.464	0.97
342.831	0.99
343.197	1.02
343.564	1.02
343.931	1.04
344.297	1.06
344.664	1.07
345.03	1.1
345.396	1.1
345.763	1.13
346.129	1.13
346.496	1.15
346.862	1.18
347.228	1.18
347.594	1.21
347.961	1.21
348.327	1.23
348.693	1.24
349.059	1.26
349.425	1.28
349.791	1.29
350.157	1.33
350.523	1.31
350.889	1.33
351.255	1.34
351.621	1.35
351.987	1.38
352.353	1.38
352.719	1.39
353.084	1.44
353.45	1.41
353.816	1.45
354.181	1.46
354.547	1.48
354.913	1.51
355.278	1.51
355.644	1.51
356.009	1.58
356.375	1.56
356.74	1.58
357.106	1.58
357.471	1.61
357.836	1.6
358.202	1.66
358.567	1.66
358.932	1.67
359.297	1.71
359.663	1.72
360.028	1.75
360.393	1.72
360.758	1.76
361.123	1.76
361.488	1.78
361.853	1.79
362.218	1.8
362.583	1.85
362.948	1.84
363.312	1.85
363.677	1.89
364.042	1.89
364.407	1.88
364.772	1.92
365.136	1.94
365.501	1.96
365.865	1.92
366.23	1.97
366.595	2
366.959	1.99
367.324	1.98
367.688	1.98
368.052	2
368.417	1.99
368.781	1.94
369.145	2
369.51	2.04
369.874	2
370.238	2.06
370.602	2.1
370.967	2
371.331	2.05
371.695	2.01
372.059	2.01
372.423	2.06
372.787	1.99
373.151	2.08
373.515	2.05
373.878	2.03
374.242	2.02
374.606	2.04
374.97	2.03
375.334	1.92
375.697	1.98
376.061	2.01
376.425	1.96
376.788	2
377.152	1.99
377.515	1.97
377.879	1.93
378.242	1.93
378.606	1.91
378.969	1.92
379.333	1.91
379.696	1.88
380.059	1.86
380.422	1.81
380.786	1.81
381.149	1.81
381.512	1.8
381.875	1.75
382.238	1.76
382.601	1.72
382.964	1.71
383.327	1.68
383.69	1.66
384.053	1.63
384.416	1.64
384.779	1.62
385.142	1.61
385.504	1.59
385.867	1.57
386.23	1.55
386.593	1.56
386.955	1.54
387.318	1.53
387.68	1.54
388.043	1.52
388.405	1.52
388.768	1.51
389.13	1.51
389.493	1.49
389.855	1.47
390.217	1.46
390.58	1.47
390.942	1.4
391.304	1.41
391.666	1.39
392.028	1.37
392.391	1.35
392.753	1.32
393.115	1.32
393.477	1.3
393.839	1.27
394.201	1.28
394.563	1.27
394.924	1.25
395.286	1.26
395.648	1.25
396.01	1.25
396.371	1.27
396.733	1.29
397.095	1.29
397.456	1.31
397.818	1.33
398.18	1.36
398.541	1.37
398.903	1.4
399.264	1.43
399.625	1.46
399.987	1.5
400.348	1.49
400.709	1.53
401.071	1.51
401.432	1.53
401.793	1.51
402.154	1.51
402.515	1.47
402.876	1.48
403.238	1.43
403.599	1.42
403.96	1.38
404.32	1.33
404.681	1.29
405.042	1.25
405.403	1.19
405.764	1.14
406.125	1.09
406.485	1.04
406.846	0.98
407.207	0.94
407.567	0.89
407.928	0.85
408.288	0.81
408.649	0.76
409.009	0.72
409.37	0.68
409.73	0.64
410.091	0.62
410.451	0.59
410.811	0.56
411.171	0.53
411.532	0.5
411.892	0.49
412.252	0.46
412.612	0.44
412.972	0.42
413.332	0.4
413.692	0.39
414.052	0.37
414.412	0.36
414.772	0.35
415.132	0.34
415.492	0.32
415.851	0.31
416.211	0.31
416.571	0.3
416.931	0.29
417.29	0.28
417.65	0.28
418.009	0.27
418.369	0.26
418.728	0.26
419.088	0.25
419.447	0.24
419.807	0.24
420.166	0.24
420.525	0.23
420.884	0.22
421.244	0.22
421.603	0.22
421.962	0.22
422.321	0.21
422.68	0.2
423.039	0.2
423.398	0.2
423.757	0.2
424.116	0.2
424.475	0.2
424.834	0.19
425.193	0.19
425.551	0.19
425.91	0.18
426.269	0.18
426.628	0.18
426.986	0.19
427.345	0.18
427.703	0.18
428.062	0.18
428.42	0.18
428.779	0.18
429.137	0.17
429.496	0.16
429.854	0.17
430.212	0.17
430.57	0.17
430.929	0.17
431.287	0.16
431.645	0.16
432.003	0.17
432.361	0.16
432.719	0.17
433.077	0.17
433.435	0.16
433.793	0.17
434.151	0.17
434.509	0.17
434.866	0.17
435.224	0.16
435.582	0.17
435.94	0.17
436.297	0.16
436.655	0.16
437.012	0.17
437.37	0.16
437.727	0.16
438.085	0.16
438.442	0.16
438.8	0.17
439.157	0.17
439.514	0.17
439.872	0.16
440.229	0.17
440.586	0.17
440.943	0.17
441.3	0.17
441.657	0.18
442.014	0.17
442.371	0.17
442.728	0.17
443.085	0.17
443.442	0.18
443.799	0.17
444.156	0.18
444.513	0.18
444.869	0.18
445.226	0.18
445.583	0.18
445.939	0.17
446.296	0.19
446.652	0.19
447.009	0.18
447.365	0.18
447.722	0.19
448.078	0.19
448.434	0.19
448.791	0.2
449.147	0.19
449.503	0.2
449.859	0.19
450.215	0.2
450.571	0.19
450.928	0.2
451.284	0.2
451.64	0.2
451.995	0.2
452.351	0.2
452.707	0.21
453.063	0.21
453.419	0.2
453.775	0.2
454.13	0.21
454.486	0.22
454.842	0.22
455.197	0.21
455.553	0.23
455.908	0.22
456.264	0.22
456.619	0.22
456.975	0.22
457.33	0.22
457.685	0.23
458.04	0.23
458.396	0.23
458.751	0.23
459.106	0.23
459.461	0.24
459.816	0.25
460.171	0.24
460.526	0.24
460.881	0.24
461.236	0.24
461.591	0.25
461.946	0.24
462.301	0.25
462.655	0.25
463.01	0.26
463.365	0.26
463.719	0.26
464.074	0.26
464.428	0.27
464.783	0.27
465.137	0.27
465.492	0.28
465.846	0.27
466.201	0.27
466.555	0.28
466.909	0.28
467.263	0.28
467.618	0.28
467.972	0.29
468.326	0.3
468.68	0.3
469.034	0.3
469.388	0.3
469.742	0.31
470.096	0.31
470.45	0.32
470.804	0.32
471.157	0.32
471.511	0.32
471.865	0.33
472.218	0.33
472.572	0.34
472.926	0.34
473.279	0.34
473.633	0.34
473.986	0.35
474.34	0.36
474.693	0.36
475.046	0.37
475.4	0.37
475.753	0.37
476.106	0.38
476.459	0.38
476.812	0.39
477.165	0.4
477.519	0.4
477.872	0.4
478.224	0.41
478.577	0.42
478.93	0.42
479.283	0.42
479.636	0.43
479.989	0.43
480.341	0.43
480.694	0.44
481.047	0.44
481.399	0.44
481.752	0.45
482.104	0.46
482.457	0.46
482.809	0.47
483.162	0.47
483.514	0.47
483.866	0.48
484.219	0.48
484.571	0.49
484.923	0.49
485.275	0.5
485.627	0.51
485.979	0.51
486.331	0.51
486.683	0.51
487.035	0.52
487.387	0.52
487.739	0.53
488.091	0.53
488.443	0.54
488.794	0.55
489.146	0.54
489.498	0.55
489.849	0.55
490.201	0.57
490.552	0.57
490.904	0.57
491.255	0.57
491.607	0.58
491.958	0.59
492.309	0.59
492.661	0.59
493.012	0.6
493.363	0.6
493.714	0.61
494.065	0.61
494.416	0.62
494.767	0.62
495.118	0.63
495.469	0.63
495.82	0.63
496.171	0.63
496.522	0.64
496.872	0.64
497.223	0.65
497.574	0.66
497.924	0.66
498.275	0.67
498.626	0.68
498.976	0.67
499.327	0.68
499.677	0.68
500.027	0.69
500.378	0.7
500.728	0.7
501.078	0.7
501.428	0.71
501.779	0.7
502.129	0.72
502.479	0.72
502.829	0.72
503.179	0.73
503.529	0.73
503.879	0.74
504.229	0.75
504.578	0.74
504.928	0.76
505.278	0.76
505.628	0.76
505.977	0.77
506.327	0.76
506.676	0.77
507.026	0.78
507.375	0.79
507.725	0.79
508.074	0.79
508.424	0.79
508.773	0.8
509.122	0.81
509.471	0.81
509.82	0.81
510.17	0.81
510.519	0.82
510.868	0.84
511.217	0.84
511.566	0.84
511.915	0.84
512.263	0.83
512.612	0.85
512.961	0.84
513.31	0.85
513.659	0.86
514.007	0.86
514.356	0.86
514.704	0.87
515.053	0.88
515.401	0.88
515.75	0.89
516.098	0.89
516.447	0.9
516.795	0.89
517.143	0.9
517.491	0.9
517.839	0.9
518.188	0.91
518.536	0.91
518.884	0.91
519.232	0.92
519.58	0.92
519.928	0.92
520.275	0.92
520.623	0.93
520.971	0.93
521.319	0.94
521.666	0.94
522.014	0.94
522.362	0.94
522.709	0.94
523.057	0.95
523.404	0.96
523.752	0.95
524.099	0.96
524.446	0.98
524.794	0.97
525.141	0.96
525.488	0.97
525.835	0.98
526.182	0.98
526.529	0.98
526.876	0.99
527.223	0.99
527.57	0.99
527.917	0.98
528.264	1
528.611	0.99
528.958	0.99
529.304	0.99
529.651	1
529.998	1
530.344	1.01
530.691	1.01
531.037	1.01
531.384	1.02
531.73	1.02
532.076	1.01
532.423	1.02
532.769	1.02
533.115	1.02
533.461	1.02
533.807	1.03
534.154	1.03
534.5	1.04
534.846	1.03
535.192	1.02
535.537	1.03
535.883	1.04
536.229	1.04
536.575	1.04
536.921	1.05
537.266	1.05
537.612	1.05
537.957	1.04
538.303	1.04
538.649	1.04
538.994	1.06
539.339	1.06
539.685	1.06
540.03	1.06
540.375	1.06
540.721	1.06
541.066	1.05
541.411	1.06
541.756	1.06
542.101	1.07
542.446	1.06
542.791	1.07
543.136	1.07
543.481	1.07
543.825	1.07
544.17	1.06
544.515	1.07
544.86	1.07
545.204	1.07
545.549	1.07
545.893	1.07
546.238	1.08
546.582	1.08
546.927	1.08
547.271	1.07
547.615	1.08
547.96	1.08
548.304	1.08
548.648	1.08
548.992	1.08
549.336	1.08
549.68	1.08
550.024	1.09
550.368	1.08
550.712	1.08
551.056	1.08
551.4	1.08
551.743	1.08
552.087	1.07
552.431	1.08
552.774	1.08
553.118	1.07
553.462	1.07
553.805	1.08
554.148	1.08
554.492	1.07
554.835	1.08
555.178	1.07
555.522	1.08
555.865	1.07
556.208	1.07
556.551	1.07
556.894	1.07
557.237	1.07
557.58	1.07
557.923	1.06
558.266	1.06
558.609	1.06
558.952	1.06
559.294	1.07
559.637	1.06
559.98	1.07
560.322	1.06
560.665	1.06
561.007	1.06
561.35	1.06
561.692	1.06
562.034	1.05
562.377	1.05
562.719	1.05
563.061	1.05
563.403	1.05
563.745	1.05
564.088	1.05
564.43	1.05
564.772	1.05
565.113	1.04
565.455	1.05
565.797	1.04
566.139	1.04
566.481	1.04
566.822	1.04
567.164	1.03
567.506	1.03
567.847	1.03
568.189	1.03
568.53	1.03
568.872	1.03
569.213	1.02
569.554	1.01
569.895	1.02
570.237	1.02
570.578	1.01
570.919	1.01
571.26	1.01
571.601	1.01
571.942	1.01
572.283	1
572.624	1
572.965	1
573.306	1
573.646	0.99
573.987	0.99
574.328	0.98
574.668	0.99
575.009	0.99
575.349	0.98
575.69	0.97
576.03	0.98
576.37	0.97
576.711	0.97
577.051	0.96
577.391	0.97
577.731	0.97
578.072	0.96
578.412	0.96
578.752	0.96
579.092	0.95
579.431	0.95
579.771	0.93
580.111	0.92
580.451	0.92
580.791	0.94
581.13	0.94
581.47	0.94
581.81	0.94
582.149	0.93
582.489	0.94
582.828	0.92
583.167	0.9
583.507	0.86
583.846	0.84
584.185	0.87
584.525	0.9
584.864	0.91
585.203	0.92
585.542	0.92
585.881	0.92
586.22	0.93
586.559	0.91
586.898	0.9
587.236	0.89
587.575	0.89
587.914	0.9
588.252	0.91
588.591	0.9
588.93	0.9
589.268	0.9
589.607	0.9
589.945	0.9
590.283	0.91
590.622	0.9
590.96	0.91
591.298	0.91
591.636	0.9
591.974	0.91
592.313	0.91
592.651	0.91
592.989	0.9
593.326	0.9
593.664	0.9
594.002	0.9
594.34	0.9
594.678	0.89
595.015	0.89
595.353	0.88
595.691	0.89
596.028	0.9
596.366	0.89
596.703	0.89
597.04	0.89
597.378	0.89
597.715	0.9
598.052	0.9
598.389	0.9
598.726	0.89
599.064	0.89
599.401	0.89
599.738	0.89
600.074	0.89
600.411	0.88
600.748	0.88
601.085	0.87
601.422	0.87
601.758	0.87
602.095	0.86
602.432	0.87
602.768	0.86
603.105	0.87
603.441	0.87
603.777	0.88
604.114	0.87
604.45	0.87
604.786	0.87
605.122	0.86
605.459	0.86
605.795	0.86
606.131	0.85
606.467	0.85
606.803	0.85
607.139	0.85
607.474	0.84
607.81	0.84
608.146	0.85
608.482	0.84
608.817	0.84
609.153	0.83
609.488	0.83
609.824	0.83
610.159	0.83
610.495	0.82
610.83	0.83
611.165	0.82
611.5	0.82
611.836	0.82
612.171	0.82
612.506	0.81
612.841	0.81
613.176	0.8
613.511	0.81
613.845	0.81
614.18	0.8
614.515	0.8
614.85	0.8
615.184	0.8
615.519	0.79
615.854	0.78
616.188	0.78
616.523	0.78
616.857	0.77
617.191	0.77
617.526	0.77
617.86	0.77
618.194	0.77
618.528	0.76
618.862	0.76
619.196	0.76
619.53	0.76
619.864	0.76
620.198	0.76
620.532	0.75
620.866	0.75
621.2	0.74
621.533	0.74
621.867	0.75
622.201	0.74
622.534	0.73
622.868	0.73
623.201	0.73
623.534	0.73
623.868	0.72
624.201	0.72
624.534	0.71
624.868	0.72
625.201	0.71
625.534	0.71
625.867	0.7
626.2	0.7
626.533	0.7
626.865	0.7
627.198	0.69
627.531	0.69
627.864	0.68
628.196	0.68
628.529	0.68
628.862	0.67
629.194	0.68
629.527	0.67
629.859	0.66
630.191	0.66
630.524	0.66
630.856	0.65
631.188	0.65
631.52	0.64
631.852	0.64
632.184	0.64
632.516	0.63
632.848	0.63
633.18	0.63
633.512	0.63
633.844	0.62
634.175	0.62
634.507	0.61
634.839	0.61
635.17	0.6
635.502	0.6
635.833	0.6
636.165	0.59
636.496	0.59
636.827	0.58
637.159	0.58
637.49	0.58
637.821	0.57
638.152	0.57
638.483	0.56
638.814	0.56
639.145	0.56
639.476	0.55
639.807	0.55
640.137	0.55
640.468	0.54
640.799	0.54
641.129	0.54
641.46	0.54
641.791	0.53
642.121	0.53
642.451	0.52
642.782	0.51
643.112	0.52
643.442	0.51
643.773	0.51
644.103	0.51
644.433	0.51
644.763	0.5
645.093	0.5
645.423	0.5
645.753	0.5
646.082	0.49
646.412	0.49
646.742	0.48
647.072	0.48
647.401	0.48
647.731	0.48
648.06	0.47
648.39	0.47
648.719	0.47
649.048	0.47
649.378	0.47
649.707	0.46
650.036	0.46
650.365	0.46
650.694	0.46
651.023	0.46
651.352	0.45
651.681	0.45
652.01	0.45
652.339	0.45
652.668	0.45
652.996	0.45
653.325	0.45
653.654	0.45
653.982	0.45
654.311	0.44
654.639	0.44
654.967	0.44
655.296	0.43
655.624	0.43
655.952	0.43
656.28	0.43
656.609	0.43
656.937	0.43
657.265	0.42
657.593	0.3
657.92	0.2
658.248	0.15
658.576	0.18
658.904	0.28
659.231	0.36
659.559	0.41
659.887	0.41
660.214	0.41
660.542	0.41
660.869	0.41
661.196	0.4
661.524	0.4
661.851	0.4
662.178	0.4
662.505	0.4
662.832	0.39
663.159	0.4
663.486	0.39
663.813	0.39
664.14	0.39
664.467	0.39
664.794	0.39
665.12	0.39
665.447	0.38
665.774	0.38
666.1	0.38
666.427	0.38
666.753	0.38
667.079	0.38
667.406	0.37
667.732	0.37
668.058	0.37
668.384	0.37
668.71	0.36
669.036	0.36
669.362	0.36
669.688	0.36
670.014	0.36
670.34	0.36
670.666	0.35
670.991	0.35
671.317	0.34
671.643	0.34
671.968	0.34
672.294	0.34
672.619	0.34
672.945	0.33
673.27	0.33
673.595	0.33
673.92	0.32
674.246	0.32
674.571	0.32
674.896	0.32
675.221	0.32
675.546	0.32
675.87	0.31
676.195	0.31
676.52	0.31
676.845	0.31
677.169	0.3
677.494	0.3
677.819	0.3
678.143	0.3
678.468	0.29
678.792	0.29
679.116	0.29
679.44	0.28
679.765	0.28
680.089	0.28
680.413	0.28
680.737	0.28
681.061	0.27
681.385	0.27
681.709	0.26
682.033	0.26
682.356	0.26
682.68	0.26
683.004	0.26
683.327	0.25
683.651	0.25
683.974	0.25
684.298	0.24
684.621	0.24
684.944	0.24
685.268	0.24
685.591	0.23
685.914	0.23
686.237	0.23
686.56	0.22
686.883	0.22
687.206	0.22
687.529	0.21
687.852	0.21
688.175	0.21
688.497	0.21
688.82	0.21
689.142	0.21
689.465	0.2
689.787	0.2
690.11	0.2
690.432	0.19
690.755	0.19
691.077	0.19
691.399	0.19
691.721	0.19
692.043	0.18
692.365	0.18
692.687	0.18
693.009	0.18
693.331	0.18
693.653	0.17
693.974	0.17
694.296	0.17
694.618	0.17
694.939	0.17
695.261	0.16
695.582	0.16
695.904	0.16
696.225	0.16
696.546	0.16
696.868	0.16
697.189	0.16
697.51	0.15
697.831	0.15
698.152	0.15
698.473	0.15
698.794	0.14
699.114	0.14
699.435	0.13
699.756	0.14
700.077	0.14
700.397	0.14
700.718	0.14
701.038	0.14
701.359	0.14
701.679	0.14
701.999	0.14
702.32	0.14
702.64	0.13
702.96	0.13
703.28	0.13
703.6	0.13
703.92	0.13
704.24	0.13
704.56	0.13
704.879	0.12
705.199	0.13
705.519	0.13
705.838	0.13
706.158	0.13
706.478	0.13
706.797	0.13
707.116	0.13
707.436	0.13
707.755	0.13
708.074	0.13
708.393	0.12
708.712	0.12
709.031	0.11
709.35	0.11
709.669	0.1
709.988	0.11
710.307	0.11
710.626	0.11
710.944	0.12
711.263	0.12
711.582	0.12
711.9	0.12
712.219	0.12
712.537	0.12
712.855	0.12
713.174	0.12
713.492	0.12
713.81	0.12
714.128	0.12
714.446	0.12
714.764	0.12
715.082	0.11
715.4	0.12
715.718	0.12
716.035	0.11
716.353	0.12
716.671	0.11
716.988	0.12
717.306	0.11
717.623	0.12
717.941	0.12
718.258	0.12
718.575	0.12
718.893	0.13
719.21	0.12
719.527	0.12
719.844	0.12
720.161	0.12
720.478	0.12
720.795	0.12
721.112	0.12
721.428	0.13
721.745	0.13
722.062	0.12
722.378	0.13
722.695	0.13
723.011	0.12
723.328	0.12
723.644	0.13
723.96	0.13
724.276	0.13
724.593	0.13
724.909	0.13
725.225	0.13
725.541	0.13
725.857	0.13
726.173	0.13
726.488	0.13
726.804	0.12
727.12	0.13
727.435	0.12
727.751	0.13
728.067	0.13
728.382	0.13
728.697	0.13
729.013	0.13
729.328	0.13
729.643	0.13
729.958	0.13
730.273	0.13
730.588	0.13
730.903	0.13
731.218	0.13
731.533	0.13
731.848	0.12
732.163	0.13
732.477	0.12
732.792	0.12
733.107	0.11
733.421	0.12
733.736	0.12
734.05	0.12
734.364	0.12
734.678	0.12
734.993	0.12
735.307	0.12
735.621	0.12
735.935	0.12
736.249	0.12
736.563	0.12
736.877	0.12
737.19	0.12
737.504	0.12
737.818	0.11
738.131	0.11
738.445	0.12
738.758	0.12
739.072	0.11
739.385	0.11
739.698	0.12
740.012	0.12
740.325	0.11
740.638	0.11
740.951	0.11
741.264	0.11
741.577	0.11
741.89	0.11
742.203	0.11
742.515	0.11
742.828	0.11
743.141	0.11
743.453	0.11
743.766	0.11
744.078	0.11
744.391	0.1
744.703	0.11
745.015	0.11
745.327	0.1
745.639	0.1
745.952	0.1
746.264	0.1
746.575	0.1
746.887	0.1
747.199	0.1
747.511	0.1
747.823	0.1
748.134	0.09
748.446	0.09
748.757	0.09
749.069	0.09
749.38	0.09
749.692	0.09
750.003	0.09
750.314	0.09
750.625	0.09
750.936	0.09
751.248	0.09
751.559	0.09
751.869	0.09
752.18	0.09
752.491	0.09
752.802	0.08
753.112	0.08
753.423	0.08
753.734	0.08
754.044	0.08
754.355	0.08
754.665	0.08
754.975	0.08
755.285	0.08
755.596	0.08
755.906	0.08
756.216	0.08
756.526	0.08
756.836	0.08
757.146	0.08
757.455	0.07
757.765	0.07
758.075	0.07
758.385	0.07
758.694	0.07
759.004	0.07
759.313	0.07
759.622	0.07
759.932	0.07
760.241	0.07
760.55	0.07
760.859	0.07
761.168	0.07
761.477	0.07
761.786	0.07
762.095	0.06
762.404	0.06
762.713	0.06
763.021	0.07
763.33	0.07
763.639	0.07
763.947	0.07
764.256	0.07
764.564	0.07
764.872	0.07
765.181	0.07
765.489	0.06
765.797	0.06
766.105	0.06
766.413	0.06
766.721	0.06
767.029	0.06
767.337	0.07
767.644	0.07
767.952	0.07
768.26	0.07
768.567	0.07
768.875	0.07
769.182	0.06
769.49	0.06
769.797	0.06
770.104	0.06
770.411	0.06
770.718	0.06
771.026	0.06
771.333	0.07
771.639	0.07
771.946	0.07
772.253	0.07
772.56	0.07
772.867	0.07
773.173	0.07
773.48	0.07
773.786	0.06
774.093	0.07
774.399	0.06
774.705	0.07
775.012	0.06
775.318	0.07
775.624	0.06
775.93	0.07
776.236	0.07
776.542	0.07
776.848	0.07
777.154	0.07
777.459	0.06
777.765	0.06
778.071	0.06
778.376	0.06
778.682	0.07
778.987	0.07
779.292	0.07
779.598	0.07
779.903	0.07
780.208	0.07
780.513	0.07
780.818	0.07
781.123	0.07
781.428	0.06
781.733	0.07
782.038	0.07
782.343	0.06
782.647	0.06
782.952	0.06
783.256	0.07
783.561	0.07
783.865	0.07
784.17	0.07
784.474	0.07
784.778	0.08
785.082	0.07
785.386	0.07
785.69	0.08
785.994	0.08
786.298	0.08
786.602	0.08
786.906	0.07
787.209	0.08
787.513	0.08
787.817	0.08
788.12	0.08
788.424	0.08
788.727	0.08
789.03	0.07
789.333	0.07
789.637	0.08
789.94	0.08
790.243	0.08
790.546	0.08
790.849	0.08
791.152	0.08
791.454	0.08
791.757	0.08
792.06	0.08
792.362	0.08
792.665	0.08
792.967	0.08
793.27	0.08
793.572	0.08
793.874	0.08
794.177	0.08
794.479	0.08
794.781	0.08
795.083	0.08
795.385	0.08
795.687	0.08
795.989	0.08
796.29	0.08
796.592	0.09
796.894	0.08
797.195	0.09
797.497	0.09
797.798	0.09
798.1	0.1
798.401	0.09
798.702	0.09
799.003	0.09
799.304	0.09
799.605	0.09
799.906	0.09
800.207	0.09
800.508	0.09
800.809	0.09
801.11	0.09
801.41	0.09
801.711	0.09
802.011	0.09
802.312	0.09
802.612	0.1
802.913	0.09
803.213	0.09
803.513	0.09
803.813	0.09
804.113	0.09
804.413	0.09
804.713	0.09
805.013	0.08
805.313	0.09
805.613	0.09
805.912	0.09
806.212	0.09
806.511	0.09
806.811	0.09
807.11	0.09
807.41	0.1
807.709	0.1
808.008	0.1
808.307	0.1
808.606	0.1
808.905	0.1
809.204	0.1
809.503	0.1
809.802	0.1
810.101	0.1
810.399	0.1
810.698	0.1
810.997	0.1
811.295	0.1
811.593	0.1
811.892	0.1
812.19	0.1
812.488	0.1
812.786	0.1
813.084	0.1
813.383	0.11
813.68	0.1
813.978	0.1
814.276	0.11
814.574	0.11
814.872	0.11
815.169	0.11
815.467	0.11
815.764	0.11
816.062	0.11
816.359	0.11
816.656	0.12
816.954	0.12
817.251	0.11
817.548	0.12
817.845	0.12
818.142	0.11
818.439	0.11
818.735	0.12
819.032	0.11
819.329	0.11
819.626	0.11
819.922	0.12
820.219	0.12
820.515	0.12
820.811	0.12
821.108	0.12
821.404	0.12
821.7	0.11
821.996	0.13
822.292	0.12
822.588	0.12
822.884	0.13
823.18	0.13
823.475	0.13
823.771	0.13
824.067	0.13
824.362	0.13
824.658	0.13
824.953	0.12
825.249	0.12
825.544	0.13
825.839	0.13
826.134	0.13
826.429	0.12
826.724	0.12
827.019	0.13
827.314	0.13
827.609	0.13
827.904	0.14
828.198	0.13
828.493	0.13
828.787	0.13
829.082	0.13
829.376	0.13
829.671	0.13
829.965	0.13
830.259	0.14
830.553	0.14
830.847	0.14
831.141	0.14
831.435	0.14
831.729	0.15
832.023	0.14
832.317	0.15
832.61	0.15
832.904	0.14
833.197	0.14
833.491	0.14
833.784	0.14
834.077	0.15
834.371	0.14
834.664	0.14
834.957	0.14
835.25	0.14
835.543	0.14
835.836	0.14
836.129	0.13
836.421	0.14
836.714	0.14
837.007	0.14
837.299	0.15
837.592	0.14
837.884	0.14
838.177	0.15
838.469	0.15
838.761	0.14
839.053	0.14
839.345	0.15
839.637	0.15
839.929	0.16
840.221	0.15
840.513	0.15
840.805	0.15
841.096	0.15
841.388	0.14
841.68	0.15
841.971	0.15
842.262	0.15
842.554	0.15
842.845	0.15
843.136	0.16
843.427	0.16
843.718	0.16
844.009	0.16
844.3	0.16
844.591	0.15
844.882	0.15
845.173	0.15
845.463	0.16
845.754	0.16
846.044	0.17
846.335	0.18
846.625	0.17
846.915	0.17
847.206	0.16
847.496	0.17
847.786	0.17
848.076	0.17
848.366	0.17
848.656	0.17
848.945	0.16
849.235	0.16
849.525	0.16
849.814	0.16
850.104	0.17
850.393	0.17
850.683	0.17
850.972	0.17
851.261	0.17
851.551	0.17
851.84	0.17
852.129	0.17
852.418	0.17
852.707	0.18
852.995	0.17
853.284	0.17
853.573	0.19
853.862	0.17
854.15	0.17
854.439	0.17
854.727	0.17
855.015	0.18
855.304	0.18
855.592	0.19
855.88	0.19
856.168	0.18
856.456	0.19
856.744	0.18
857.032	0.18
857.32	0.18
857.607	0.19
857.895	0.19
858.183	0.18
858.47	0.18
858.757	0.21
859.045	0.18
859.332	0.19
859.619	0.18
859.907	0.2
860.194	0.2
860.481	0.18
860.768	0.19
861.054	0.19
861.341	0.2
861.628	0.21
861.915	0.2
862.201	0.2
862.488	0.21
862.774	0.21
863.061	0.19
863.347	0.18
863.633	0.19
863.919	0.18
864.205	0.17
864.491	0.19
864.777	0.18
865.063	0.21
865.349	0.19
865.635	0.19
865.92	0.2
866.206	0.21
866.492	0.21
866.777	0.21
867.062	0.17
867.348	0.19
867.633	0.17
867.918	0.21
868.203	0.2
868.488	0.2
868.773	0.16
869.058	0.17
869.343	0.2
869.628	0.16
869.912	0.18
870.197	0.21
870.482	0.2
870.766	0.21
871.05	0.2
871.335	0.19
871.619	0.19
871.903	0.21
872.187	0.18
872.471	0.18
872.755	0.15
873.039	0.2
873.323	0.21
873.607	0.2
873.89	0.17
874.174	0.19
874.458	0.18
874.741	0.24
875.024	0.22
875.308	0.16
875.591	0.29
875.874	0.19
876.157	0.36
876.44	0.23
876.723	0.24
877.006	0.18
877.289	0.17
877.572	0.18
877.854	0.16
878.137	0.11
878.42	0.13
878.702	0.24
878.984	0.2
879.267	0.22
879.549	0.16
879.831	0.22
880.113	0.22
880.395	0.26
880.677	0.19
880.959	0.06
