Data from Rubpy_BV_1500_EDTA_Buffered_Absorbance_14-29-42-752.txt Node
Date: Wed Jul 01 14:29:42 BST 2026
User: fpm-admin
Spectrometer: OFX00224
Trigger mode: 0
Integration Time (sec): 7.000000E-2
Scans to average: 3
Nonlinearity correction enabled: false
Boxcar width: 0
Storing dark spectrum: false
XAxis mode: Wavelengths
Number of Pixels in Spectrum: 2136
>>>>>Begin Spectral Data<<<<<
154.91	-0.2
155.289	0.4
155.669	-0
156.048	-0
156.428	-0
156.807	1.08
157.186	-0.67
157.566	0.17
157.945	0.48
158.325	-0
158.704	-0
159.083	0.11
159.462	1.2
159.842	-0
160.221	-0.3
160.6	-0
160.979	-0.25
161.359	-0
161.738	-0
162.117	-0.25
162.496	0.04
162.875	-0
163.254	0.18
163.633	-0.17
164.012	-0.44
164.391	0.25
164.77	0.15
165.149	0.4
165.528	-0.26
165.907	0.43
166.286	-0.2
166.665	0.06
167.044	0.75
167.423	1.24
167.802	-0
168.181	-0.03
168.559	-0.06
168.938	0.1
169.317	-0
169.696	0.44
170.074	-0
170.453	-0.13
170.832	0.28
171.21	-0.12
171.589	-0.09
171.968	-0.4
172.346	0.49
172.725	-0
173.103	-0
173.482	-1.28
173.861	-0
174.239	-1.26
174.617	-0
174.996	-0
175.374	0.07
175.753	-0.47
176.131	0.38
176.51	-0.1
176.888	0.65
177.266	-0
177.645	-0.02
178.023	-0
178.401	-0.12
178.779	-0.12
179.158	-0.11
179.536	-0.36
179.914	-0.26
180.292	-0.05
180.67	-0
181.048	0.23
181.427	-0
181.805	-0
182.183	-0.48
182.561	-0
182.939	-0
183.317	-0.1
183.695	0.16
184.073	0.8
184.451	-0.19
184.829	0.39
185.206	-0
185.584	0.24
185.962	-0
186.34	-0
186.718	-0.65
187.096	-0.18
187.473	0.08
187.851	-0
188.229	0.16
188.607	0.25
188.984	0.45
189.362	0.33
189.74	0.12
190.117	0.19
190.495	0.15
190.872	0.28
191.25	0.26
191.627	0.1
192.005	0.11
192.382	0.23
192.76	0.36
193.137	0.2
193.515	0.2
193.892	0.22
194.269	0.29
194.647	0.22
195.024	0.26
195.401	0.34
195.779	0.36
196.156	0.23
196.533	0.27
196.91	0.3
197.288	0.23
197.665	0.15
198.042	0.22
198.419	0.24
198.796	0.32
199.173	0.3
199.55	0.19
199.927	0.27
200.304	0.23
200.681	0.26
201.058	0.37
201.435	0.43
201.812	0.4
202.189	0.32
202.566	0.21
202.943	0.21
203.32	0.23
203.697	0.23
204.073	0.17
204.45	0.24
204.827	0.36
205.204	0.32
205.58	0.19
205.957	0.24
206.334	0.25
206.71	0.19
207.087	0.37
207.464	0.13
207.84	0.16
208.217	0.37
208.593	0.44
208.97	0.22
209.346	0.39
209.723	0.26
210.099	0.22
210.476	0.38
210.852	0.46
211.228	0.15
211.605	0.44
211.981	0.24
212.357	0.33
212.733	0.25
213.11	0.34
213.486	0.34
213.862	0.19
214.238	0.21
214.614	0.26
214.991	0.21
215.367	0.19
215.743	0.3
216.119	0.3
216.495	0.28
216.871	0.38
217.247	0.3
217.623	0.22
217.999	0.26
218.375	0.31
218.751	0.22
219.127	0.36
219.502	0.35
219.878	0.25
220.254	0.27
220.63	0.27
221.006	0.22
221.381	0.22
221.757	0.41
222.133	0.25
222.508	0.39
222.884	0.32
223.26	0.23
223.635	0.27
224.011	0.49
224.386	0.3
224.762	0.45
225.137	0.29
225.513	0.33
225.888	0.36
226.264	0.35
226.639	0.39
227.014	0.32
227.39	0.28
227.765	0.34
228.14	0.41
228.516	0.31
228.891	0.44
229.266	0.33
229.641	0.36
230.017	0.28
230.392	0.41
230.767	0.16
231.142	0.16
231.517	0.16
231.892	0.38
232.267	0.35
232.642	0.28
233.017	0.18
233.392	0.36
233.767	0.25
234.142	0.22
234.517	0.35
234.892	0.4
235.267	0.29
235.641	0.24
236.016	0.26
236.391	0.42
236.766	0.44
237.14	0.21
237.515	0.25
237.89	0.51
238.264	0.44
238.639	0.29
239.014	0.23
239.388	0.29
239.763	0.21
240.137	0.27
240.512	0.19
240.886	0.45
241.261	0.24
241.635	0.15
242.009	0.3
242.384	0.33
242.758	0.24
243.132	0.27
243.507	0.25
243.881	0.23
244.255	0.28
244.629	0.23
245.004	0.3
245.378	0.26
245.752	0.32
246.126	0.3
246.5	0.29
246.874	0.27
247.248	0.23
247.622	0.21
247.996	0.27
248.37	0.24
248.744	0.22
249.118	0.29
249.492	0.36
249.866	0.21
250.24	0.31
250.613	0.32
250.987	0.42
251.361	0.29
251.735	0.31
252.108	0.27
252.482	0.29
252.856	0.41
253.229	0.37
253.603	0.31
253.977	0.34
254.35	0.32
254.724	0.29
255.097	0.32
255.471	0.36
255.844	0.27
256.218	0.31
256.591	0.32
256.964	0.18
257.338	0.28
257.711	0.32
258.084	0.36
258.458	0.3
258.831	0.42
259.204	0.34
259.577	0.38
259.95	0.29
260.323	0.25
260.697	0.2
261.07	0.36
261.443	0.3
261.816	0.26
262.189	0.34
262.562	0.25
262.935	0.37
263.308	0.29
263.68	0.18
264.053	0.22
264.426	0.23
264.799	0.36
265.172	0.31
265.545	0.41
265.917	0.3
266.29	0.28
266.663	0.32
267.035	0.37
267.408	0.18
267.781	0.31
268.153	0.4
268.526	0.22
268.898	0.32
269.271	0.28
269.643	0.31
270.016	0.26
270.388	0.26
270.76	0.27
271.133	0.31
271.505	0.38
271.877	0.26
272.25	0.38
272.622	0.44
272.994	0.37
273.366	0.25
273.739	0.38
274.111	0.3
274.483	0.27
274.855	0.19
275.227	0.29
275.599	0.36
275.971	0.23
276.343	0.24
276.715	0.27
277.087	0.39
277.459	0.22
277.831	0.3
278.203	0.35
278.574	0.35
278.946	0.24
279.318	0.32
279.69	0.28
280.061	0.21
280.433	0.28
280.805	0.24
281.176	0.36
281.548	0.37
281.92	0.35
282.291	0.42
282.663	0.34
283.034	0.29
283.406	0.36
283.777	0.39
284.148	0.35
284.52	0.39
284.891	0.41
285.262	0.31
285.634	0.26
286.005	0.31
286.376	0.35
286.747	0.33
287.119	0.45
287.49	0.25
287.861	0.41
288.232	0.4
288.603	0.34
288.974	0.4
289.345	0.36
289.716	0.32
290.087	0.39
290.458	0.39
290.829	0.29
291.2	0.31
291.571	0.41
291.941	0.26
292.312	0.28
292.683	0.35
293.054	0.47
293.424	0.38
293.795	0.3
294.166	0.36
294.536	0.34
294.907	0.32
295.277	0.36
295.648	0.3
296.018	0.29
296.389	0.39
296.759	0.29
297.13	0.28
297.5	0.43
297.871	0.34
298.241	0.28
298.611	0.44
298.981	0.43
299.352	0.4
299.722	0.3
300.092	0.29
300.462	0.25
300.832	0.28
301.202	0.29
301.573	0.28
301.943	0.27
302.313	0.3
302.683	0.35
303.053	0.43
303.422	0.34
303.792	0.33
304.162	0.31
304.532	0.27
304.902	0.24
305.272	0.28
305.641	0.33
306.011	0.32
306.381	0.21
306.75	0.27
307.12	0.32
307.49	0.28
307.859	0.27
308.229	0.28
308.598	0.3
308.968	0.21
309.337	0.23
309.707	0.3
310.076	0.22
310.445	0.25
310.815	0.25
311.184	0.21
311.553	0.24
311.923	0.25
312.292	0.23
312.661	0.27
313.03	0.27
313.399	0.27
313.768	0.27
314.137	0.28
314.506	0.26
314.875	0.27
315.244	0.28
315.613	0.3
315.982	0.3
316.351	0.27
316.72	0.29
317.089	0.29
317.458	0.31
317.826	0.31
318.195	0.32
318.564	0.32
318.933	0.33
319.301	0.32
319.67	0.34
320.038	0.33
320.407	0.35
320.775	0.34
321.144	0.35
321.512	0.36
321.881	0.36
322.249	0.36
322.618	0.36
322.986	0.37
323.354	0.37
323.723	0.38
324.091	0.4
324.459	0.4
324.827	0.4
325.195	0.41
325.564	0.42
325.932	0.42
326.3	0.42
326.668	0.44
327.036	0.45
327.404	0.44
327.772	0.44
328.14	0.45
328.508	0.47
328.875	0.46
329.243	0.49
329.611	0.49
329.979	0.49
330.346	0.5
330.714	0.51
331.082	0.52
331.449	0.52
331.817	0.54
332.185	0.54
332.552	0.56
332.92	0.57
333.287	0.57
333.655	0.59
334.022	0.6
334.389	0.61
334.757	0.63
335.124	0.63
335.491	0.64
335.859	0.65
336.226	0.67
336.593	0.68
336.96	0.69
337.327	0.71
337.695	0.72
338.062	0.73
338.429	0.74
338.796	0.75
339.163	0.77
339.53	0.78
339.897	0.81
340.263	0.81
340.63	0.84
340.997	0.84
341.364	0.85
341.731	0.87
342.097	0.88
342.464	0.9
342.831	0.91
343.197	0.92
343.564	0.94
343.931	0.95
344.297	0.96
344.664	0.98
345.03	1
345.396	1.01
345.763	1.04
346.129	1.04
346.496	1.07
346.862	1.06
347.228	1.07
347.594	1.1
347.961	1.12
348.327	1.13
348.693	1.14
349.059	1.17
349.425	1.17
349.791	1.18
350.157	1.2
350.523	1.2
350.889	1.22
351.255	1.23
351.621	1.25
351.987	1.26
352.353	1.26
352.719	1.27
353.084	1.32
353.45	1.32
353.816	1.32
354.181	1.33
354.547	1.36
354.913	1.38
355.278	1.4
355.644	1.4
356.009	1.43
356.375	1.43
356.74	1.45
357.106	1.47
357.471	1.48
357.836	1.5
358.202	1.51
358.567	1.52
358.932	1.56
359.297	1.57
359.663	1.62
360.028	1.61
360.393	1.61
360.758	1.64
361.123	1.65
361.488	1.7
361.853	1.66
362.218	1.7
362.583	1.71
362.948	1.71
363.312	1.73
363.677	1.78
364.042	1.78
364.407	1.78
364.772	1.81
365.136	1.85
365.501	1.83
365.865	1.86
366.23	1.82
366.595	1.83
366.959	1.83
367.324	1.83
367.688	1.89
368.052	1.9
368.417	1.91
368.781	1.94
369.145	1.95
369.51	1.89
369.874	1.9
370.238	2
370.602	1.94
370.967	1.89
371.331	1.9
371.695	1.91
372.059	1.94
372.423	1.91
372.787	1.9
373.151	1.94
373.515	1.93
373.878	1.94
374.242	1.94
374.606	1.89
374.97	1.91
375.334	1.86
375.697	1.86
376.061	1.88
376.425	1.92
376.788	1.93
377.152	1.87
377.515	1.83
377.879	1.82
378.242	1.81
378.606	1.79
378.969	1.81
379.333	1.8
379.696	1.76
380.059	1.74
380.422	1.73
380.786	1.69
381.149	1.69
381.512	1.65
381.875	1.64
382.238	1.63
382.601	1.61
382.964	1.58
383.327	1.58
383.69	1.55
384.053	1.54
384.416	1.52
384.779	1.52
385.142	1.52
385.504	1.48
385.867	1.46
386.23	1.46
386.593	1.45
386.955	1.43
387.318	1.42
387.68	1.43
388.043	1.4
388.405	1.41
388.768	1.41
389.13	1.4
389.493	1.38
389.855	1.37
390.217	1.35
390.58	1.35
390.942	1.33
391.304	1.32
391.666	1.3
392.028	1.28
392.391	1.26
392.753	1.24
393.115	1.23
393.477	1.21
393.839	1.2
394.201	1.18
394.563	1.18
394.924	1.17
395.286	1.17
395.648	1.18
396.01	1.17
396.371	1.19
396.733	1.2
397.095	1.21
397.456	1.23
397.818	1.24
398.18	1.27
398.541	1.29
398.903	1.32
399.264	1.34
399.625	1.36
399.987	1.39
400.348	1.42
400.709	1.42
401.071	1.43
401.432	1.43
401.793	1.43
402.154	1.43
402.515	1.39
402.876	1.4
403.238	1.35
403.599	1.33
403.96	1.28
404.32	1.25
404.681	1.2
405.042	1.17
405.403	1.11
405.764	1.08
406.125	1.02
406.485	0.98
406.846	0.93
407.207	0.88
407.567	0.84
407.928	0.79
408.288	0.75
408.649	0.71
409.009	0.67
409.37	0.64
409.73	0.59
410.091	0.57
410.451	0.55
410.811	0.52
411.171	0.49
411.532	0.46
411.892	0.45
412.252	0.43
412.612	0.41
412.972	0.39
413.332	0.38
413.692	0.36
414.052	0.35
414.412	0.34
414.772	0.32
415.132	0.31
415.492	0.31
415.851	0.29
416.211	0.29
416.571	0.27
416.931	0.26
417.29	0.26
417.65	0.25
418.009	0.25
418.369	0.25
418.728	0.24
419.088	0.23
419.447	0.23
419.807	0.22
420.166	0.22
420.525	0.21
420.884	0.2
421.244	0.2
421.603	0.2
421.962	0.2
422.321	0.19
422.68	0.19
423.039	0.18
423.398	0.18
423.757	0.19
424.116	0.19
424.475	0.19
424.834	0.18
425.193	0.17
425.551	0.17
425.91	0.17
426.269	0.17
426.628	0.16
426.986	0.17
427.345	0.16
427.703	0.16
428.062	0.17
428.42	0.15
428.779	0.17
429.137	0.16
429.496	0.16
429.854	0.15
430.212	0.15
430.57	0.15
430.929	0.16
431.287	0.15
431.645	0.15
432.003	0.15
432.361	0.15
432.719	0.16
433.077	0.15
433.435	0.15
433.793	0.15
434.151	0.15
434.509	0.15
434.866	0.15
435.224	0.15
435.582	0.14
435.94	0.15
436.297	0.15
436.655	0.14
437.012	0.15
437.37	0.16
437.727	0.16
438.085	0.16
438.442	0.15
438.8	0.15
439.157	0.15
439.514	0.16
439.872	0.15
440.229	0.15
440.586	0.15
440.943	0.16
441.3	0.16
441.657	0.15
442.014	0.16
442.371	0.16
442.728	0.16
443.085	0.17
443.442	0.16
443.799	0.16
444.156	0.16
444.513	0.16
444.869	0.16
445.226	0.15
445.583	0.17
445.939	0.16
446.296	0.17
446.652	0.17
447.009	0.17
447.365	0.16
447.722	0.18
448.078	0.17
448.434	0.17
448.791	0.17
449.147	0.17
449.503	0.18
449.859	0.18
450.215	0.18
450.571	0.18
450.928	0.18
451.284	0.18
451.64	0.18
451.995	0.18
452.351	0.19
452.707	0.21
453.063	0.19
453.419	0.19
453.775	0.18
454.13	0.19
454.486	0.2
454.842	0.2
455.197	0.19
455.553	0.2
455.908	0.2
456.264	0.2
456.619	0.21
456.975	0.2
457.33	0.2
457.685	0.21
458.04	0.2
458.396	0.22
458.751	0.21
459.106	0.22
459.461	0.22
459.816	0.22
460.171	0.22
460.526	0.22
460.881	0.23
461.236	0.23
461.591	0.23
461.946	0.22
462.301	0.23
462.655	0.23
463.01	0.24
463.365	0.23
463.719	0.23
464.074	0.24
464.428	0.23
464.783	0.24
465.137	0.24
465.492	0.24
465.846	0.24
466.201	0.24
466.555	0.25
466.909	0.26
467.263	0.25
467.618	0.25
467.972	0.27
468.326	0.27
468.68	0.27
469.034	0.27
469.388	0.28
469.742	0.27
470.096	0.27
470.45	0.28
470.804	0.29
471.157	0.28
471.511	0.29
471.865	0.29
472.218	0.3
472.572	0.3
472.926	0.3
473.279	0.31
473.633	0.31
473.986	0.32
474.34	0.32
474.693	0.32
475.046	0.33
475.4	0.33
475.753	0.34
476.106	0.34
476.459	0.35
476.812	0.35
477.165	0.35
477.519	0.36
477.872	0.36
478.224	0.37
478.577	0.37
478.93	0.38
479.283	0.38
479.636	0.39
479.989	0.4
480.341	0.39
480.694	0.39
481.047	0.4
481.399	0.4
481.752	0.41
482.104	0.41
482.457	0.42
482.809	0.43
483.162	0.42
483.514	0.43
483.866	0.44
484.219	0.44
484.571	0.44
484.923	0.45
485.275	0.45
485.627	0.46
485.979	0.46
486.331	0.47
486.683	0.47
487.035	0.47
487.387	0.48
487.739	0.48
488.091	0.48
488.443	0.49
488.794	0.49
489.146	0.49
489.498	0.5
489.849	0.51
490.201	0.51
490.552	0.51
490.904	0.52
491.255	0.52
491.607	0.52
491.958	0.53
492.309	0.53
492.661	0.53
493.012	0.54
493.363	0.55
493.714	0.55
494.065	0.56
494.416	0.56
494.767	0.56
495.118	0.57
495.469	0.58
495.82	0.57
496.171	0.58
496.522	0.58
496.872	0.59
497.223	0.59
497.574	0.6
497.924	0.6
498.275	0.61
498.626	0.61
498.976	0.62
499.327	0.62
499.677	0.62
500.027	0.62
500.378	0.63
500.728	0.63
501.078	0.64
501.428	0.65
501.779	0.65
502.129	0.65
502.479	0.66
502.829	0.66
503.179	0.67
503.529	0.66
503.879	0.67
504.229	0.68
504.578	0.68
504.928	0.69
505.278	0.69
505.628	0.69
505.977	0.7
506.327	0.7
506.676	0.71
507.026	0.71
507.375	0.72
507.725	0.72
508.074	0.72
508.424	0.72
508.773	0.72
509.122	0.73
509.471	0.73
509.82	0.74
510.17	0.73
510.519	0.75
510.868	0.75
511.217	0.75
511.566	0.76
511.915	0.77
512.263	0.77
512.612	0.77
512.961	0.78
513.31	0.78
513.659	0.78
514.007	0.79
514.356	0.79
514.704	0.79
515.053	0.8
515.401	0.8
515.75	0.81
516.098	0.81
516.447	0.81
516.795	0.81
517.143	0.81
517.491	0.82
517.839	0.83
518.188	0.82
518.536	0.83
518.884	0.84
519.232	0.83
519.58	0.83
519.928	0.84
520.275	0.85
520.623	0.85
520.971	0.86
521.319	0.85
521.666	0.86
522.014	0.85
522.362	0.86
522.709	0.86
523.057	0.87
523.404	0.88
523.752	0.86
524.099	0.87
524.446	0.88
524.794	0.88
525.141	0.88
525.488	0.89
525.835	0.89
526.182	0.89
526.529	0.9
526.876	0.9
527.223	0.89
527.57	0.9
527.917	0.9
528.264	0.91
528.611	0.9
528.958	0.91
529.304	0.91
529.651	0.92
529.998	0.92
530.344	0.92
530.691	0.92
531.037	0.92
531.384	0.92
531.73	0.93
532.076	0.93
532.423	0.93
532.769	0.94
533.115	0.93
533.461	0.94
533.807	0.93
534.154	0.94
534.5	0.95
534.846	0.94
535.192	0.94
535.537	0.94
535.883	0.94
536.229	0.95
536.575	0.95
536.921	0.96
537.266	0.95
537.612	0.96
537.957	0.96
538.303	0.96
538.649	0.96
538.994	0.96
539.339	0.96
539.685	0.97
540.03	0.97
540.375	0.97
540.721	0.96
541.066	0.97
541.411	0.97
541.756	0.97
542.101	0.97
542.446	0.97
542.791	0.97
543.136	0.97
543.481	0.97
543.825	0.98
544.17	0.98
544.515	0.98
544.86	0.97
545.204	0.98
545.549	0.98
545.893	0.97
546.238	0.98
546.582	0.99
546.927	0.98
547.271	0.99
547.615	0.99
547.96	0.99
548.304	0.98
548.648	0.99
548.992	0.99
549.336	0.99
549.68	0.98
550.024	0.99
550.368	0.99
550.712	0.99
551.056	0.99
551.4	0.99
551.743	0.99
552.087	0.98
552.431	0.98
552.774	0.98
553.118	0.98
553.462	0.99
553.805	0.98
554.148	0.99
554.492	0.98
554.835	0.98
555.178	0.98
555.522	0.98
555.865	0.98
556.208	0.98
556.551	0.98
556.894	0.98
557.237	0.98
557.58	0.97
557.923	0.97
558.266	0.98
558.609	0.97
558.952	0.97
559.294	0.98
559.637	0.97
559.98	0.98
560.322	0.97
560.665	0.97
561.007	0.97
561.35	0.97
561.692	0.97
562.034	0.97
562.377	0.96
562.719	0.97
563.061	0.96
563.403	0.96
563.745	0.97
564.088	0.97
564.43	0.96
564.772	0.95
565.113	0.96
565.455	0.96
565.797	0.95
566.139	0.96
566.481	0.95
566.822	0.95
567.164	0.95
567.506	0.94
567.847	0.94
568.189	0.94
568.53	0.94
568.872	0.94
569.213	0.94
569.554	0.94
569.895	0.94
570.237	0.93
570.578	0.93
570.919	0.93
571.26	0.92
571.601	0.92
571.942	0.93
572.283	0.93
572.624	0.91
572.965	0.91
573.306	0.91
573.646	0.91
573.987	0.9
574.328	0.91
574.668	0.91
575.009	0.9
575.349	0.9
575.69	0.89
576.03	0.89
576.37	0.89
576.711	0.88
577.051	0.89
577.391	0.88
577.731	0.89
578.072	0.88
578.412	0.88
578.752	0.88
579.092	0.87
579.431	0.86
579.771	0.85
580.111	0.84
580.451	0.85
580.791	0.86
581.13	0.87
581.47	0.87
581.81	0.86
582.149	0.86
582.489	0.86
582.828	0.84
583.167	0.82
583.507	0.78
583.846	0.77
584.185	0.8
584.525	0.82
584.864	0.84
585.203	0.85
585.542	0.85
585.881	0.85
586.22	0.85
586.559	0.84
586.898	0.82
587.236	0.82
587.575	0.81
587.914	0.82
588.252	0.83
588.591	0.83
588.93	0.83
589.268	0.83
589.607	0.83
589.945	0.83
590.283	0.83
590.622	0.83
590.96	0.83
591.298	0.84
591.636	0.83
591.974	0.83
592.313	0.83
592.651	0.83
592.989	0.83
593.326	0.83
593.664	0.83
594.002	0.83
594.34	0.83
594.678	0.82
595.015	0.82
595.353	0.81
595.691	0.81
596.028	0.82
596.366	0.82
596.703	0.82
597.04	0.83
597.378	0.82
597.715	0.82
598.052	0.82
598.389	0.82
598.726	0.82
599.064	0.82
599.401	0.82
599.738	0.82
600.074	0.81
600.411	0.81
600.748	0.81
601.085	0.8
601.422	0.8
601.758	0.8
602.095	0.8
602.432	0.8
602.768	0.8
603.105	0.8
603.441	0.8
603.777	0.8
604.114	0.8
604.45	0.8
604.786	0.8
605.122	0.8
605.459	0.79
605.795	0.79
606.131	0.79
606.467	0.79
606.803	0.79
607.139	0.78
607.474	0.78
607.81	0.78
608.146	0.77
608.482	0.78
608.817	0.77
609.153	0.77
609.488	0.77
609.824	0.76
610.159	0.76
610.495	0.76
610.83	0.76
611.165	0.76
611.5	0.76
611.836	0.76
612.171	0.75
612.506	0.75
612.841	0.75
613.176	0.74
613.511	0.74
613.845	0.74
614.18	0.74
614.515	0.74
614.85	0.73
615.184	0.73
615.519	0.73
615.854	0.72
616.188	0.73
616.523	0.72
616.857	0.71
617.191	0.71
617.526	0.71
617.86	0.71
618.194	0.7
618.528	0.71
618.862	0.71
619.196	0.71
619.53	0.7
619.864	0.7
620.198	0.7
620.532	0.69
620.866	0.69
621.2	0.69
621.533	0.69
621.867	0.69
622.201	0.67
622.534	0.68
622.868	0.68
623.201	0.68
623.534	0.67
623.868	0.66
624.201	0.66
624.534	0.66
624.868	0.66
625.201	0.66
625.534	0.66
625.867	0.65
626.2	0.65
626.533	0.65
626.865	0.64
627.198	0.64
627.531	0.64
627.864	0.63
628.196	0.63
628.529	0.63
628.862	0.63
629.194	0.62
629.527	0.61
629.859	0.61
630.191	0.61
630.524	0.6
630.856	0.6
631.188	0.6
631.52	0.6
631.852	0.59
632.184	0.59
632.516	0.58
632.848	0.58
633.18	0.58
633.512	0.58
633.844	0.57
634.175	0.57
634.507	0.57
634.839	0.56
635.17	0.56
635.502	0.56
635.833	0.55
636.165	0.55
636.496	0.54
636.827	0.54
637.159	0.54
637.49	0.53
637.821	0.53
638.152	0.52
638.483	0.52
638.814	0.52
639.145	0.52
639.476	0.51
639.807	0.51
640.137	0.51
640.468	0.5
640.799	0.5
641.129	0.49
641.46	0.49
641.791	0.49
642.121	0.48
642.451	0.48
642.782	0.48
643.112	0.47
643.442	0.48
643.773	0.47
644.103	0.47
644.433	0.46
644.763	0.46
645.093	0.46
645.423	0.46
645.753	0.46
646.082	0.45
646.412	0.45
646.742	0.45
647.072	0.45
647.401	0.45
647.731	0.44
648.06	0.44
648.39	0.44
648.719	0.44
649.048	0.43
649.378	0.43
649.707	0.43
650.036	0.43
650.365	0.43
650.694	0.42
651.023	0.42
651.352	0.42
651.681	0.42
652.01	0.42
652.339	0.41
652.668	0.41
652.996	0.41
653.325	0.41
653.654	0.42
653.982	0.41
654.311	0.41
654.639	0.41
654.967	0.41
655.296	0.4
655.624	0.4
655.952	0.4
656.28	0.4
656.609	0.4
656.937	0.4
657.265	0.39
657.593	0.27
657.92	0.17
658.248	0.12
658.576	0.15
658.904	0.25
659.231	0.34
659.559	0.38
659.887	0.38
660.214	0.38
660.542	0.38
660.869	0.38
661.196	0.38
661.524	0.37
661.851	0.37
662.178	0.37
662.505	0.37
662.832	0.37
663.159	0.37
663.486	0.36
663.813	0.36
664.14	0.36
664.467	0.36
664.794	0.36
665.12	0.36
665.447	0.36
665.774	0.35
666.1	0.35
666.427	0.35
666.753	0.35
667.079	0.35
667.406	0.34
667.732	0.34
668.058	0.35
668.384	0.34
668.71	0.34
669.036	0.34
669.362	0.34
669.688	0.33
670.014	0.33
670.34	0.33
670.666	0.33
670.991	0.32
671.317	0.32
671.643	0.32
671.968	0.32
672.294	0.32
672.619	0.31
672.945	0.31
673.27	0.31
673.595	0.31
673.92	0.3
674.246	0.3
674.571	0.3
674.896	0.3
675.221	0.3
675.546	0.29
675.87	0.3
676.195	0.29
676.52	0.29
676.845	0.29
677.169	0.28
677.494	0.28
677.819	0.28
678.143	0.28
678.468	0.27
678.792	0.27
679.116	0.27
679.44	0.26
679.765	0.26
680.089	0.26
680.413	0.25
680.737	0.25
681.061	0.25
681.385	0.25
681.709	0.24
682.033	0.24
682.356	0.24
682.68	0.24
683.004	0.24
683.327	0.23
683.651	0.23
683.974	0.23
684.298	0.22
684.621	0.22
684.944	0.22
685.268	0.22
685.591	0.22
685.914	0.21
686.237	0.21
686.56	0.21
686.883	0.2
687.206	0.2
687.529	0.2
687.852	0.19
688.175	0.2
688.497	0.2
688.82	0.19
689.142	0.19
689.465	0.19
689.787	0.18
690.11	0.18
690.432	0.18
690.755	0.18
691.077	0.18
691.399	0.18
691.721	0.17
692.043	0.17
692.365	0.17
692.687	0.17
693.009	0.16
693.331	0.16
693.653	0.16
693.974	0.16
694.296	0.16
694.618	0.15
694.939	0.16
695.261	0.15
695.582	0.15
695.904	0.15
696.225	0.15
696.546	0.15
696.868	0.14
697.189	0.14
697.51	0.14
697.831	0.14
698.152	0.14
698.473	0.14
698.794	0.13
699.114	0.13
699.435	0.12
699.756	0.12
700.077	0.13
700.397	0.13
700.718	0.13
701.038	0.13
701.359	0.13
701.679	0.13
701.999	0.13
702.32	0.13
702.64	0.13
702.96	0.12
703.28	0.12
703.6	0.12
703.92	0.12
704.24	0.12
704.56	0.11
704.879	0.11
705.199	0.12
705.519	0.12
705.838	0.12
706.158	0.12
706.478	0.12
706.797	0.12
707.116	0.12
707.436	0.12
707.755	0.12
708.074	0.12
708.393	0.11
708.712	0.11
709.031	0.1
709.35	0.1
709.669	0.1
709.988	0.1
710.307	0.1
710.626	0.1
710.944	0.11
711.263	0.11
711.582	0.11
711.9	0.11
712.219	0.11
712.537	0.11
712.855	0.11
713.174	0.11
713.492	0.11
713.81	0.11
714.128	0.11
714.446	0.11
714.764	0.11
715.082	0.1
715.4	0.11
715.718	0.11
716.035	0.11
716.353	0.11
716.671	0.11
716.988	0.11
717.306	0.1
717.623	0.11
717.941	0.11
718.258	0.12
718.575	0.12
718.893	0.12
719.21	0.12
719.527	0.11
719.844	0.11
720.161	0.11
720.478	0.11
720.795	0.12
721.112	0.11
721.428	0.12
721.745	0.11
722.062	0.11
722.378	0.12
722.695	0.12
723.011	0.11
723.328	0.11
723.644	0.12
723.96	0.12
724.276	0.12
724.593	0.12
724.909	0.12
725.225	0.12
725.541	0.12
725.857	0.12
726.173	0.12
726.488	0.12
726.804	0.12
727.12	0.12
727.435	0.12
727.751	0.12
728.067	0.12
728.382	0.12
728.697	0.12
729.013	0.12
729.328	0.12
729.643	0.12
729.958	0.12
730.273	0.12
730.588	0.12
730.903	0.12
731.218	0.12
731.533	0.12
731.848	0.12
732.163	0.12
732.477	0.11
732.792	0.11
733.107	0.11
733.421	0.11
733.736	0.11
734.05	0.11
734.364	0.11
734.678	0.11
734.993	0.11
735.307	0.11
735.621	0.11
735.935	0.11
736.249	0.11
736.563	0.11
736.877	0.11
737.19	0.11
737.504	0.11
737.818	0.11
738.131	0.11
738.445	0.11
738.758	0.11
739.072	0.11
739.385	0.1
739.698	0.11
740.012	0.11
740.325	0.11
740.638	0.1
740.951	0.1
741.264	0.1
741.577	0.1
741.89	0.1
742.203	0.11
742.515	0.11
742.828	0.1
743.141	0.1
743.453	0.1
743.766	0.1
744.078	0.1
744.391	0.1
744.703	0.1
745.015	0.1
745.327	0.1
745.639	0.1
745.952	0.09
746.264	0.09
746.575	0.09
746.887	0.09
747.199	0.09
747.511	0.09
747.823	0.09
748.134	0.09
748.446	0.08
748.757	0.09
749.069	0.08
749.38	0.08
749.692	0.08
750.003	0.08
750.314	0.08
750.625	0.08
750.936	0.08
751.248	0.08
751.559	0.08
751.869	0.08
752.18	0.08
752.491	0.08
752.802	0.08
753.112	0.08
753.423	0.08
753.734	0.08
754.044	0.08
754.355	0.08
754.665	0.08
754.975	0.07
755.285	0.07
755.596	0.07
755.906	0.07
756.216	0.07
756.526	0.07
756.836	0.07
757.146	0.07
757.455	0.07
757.765	0.07
758.075	0.06
758.385	0.06
758.694	0.06
759.004	0.06
759.313	0.06
759.622	0.06
759.932	0.06
760.241	0.06
760.55	0.06
760.859	0.06
761.168	0.06
761.477	0.06
761.786	0.06
762.095	0.06
762.404	0.06
762.713	0.06
763.021	0.06
763.33	0.06
763.639	0.06
763.947	0.06
764.256	0.06
764.564	0.06
764.872	0.06
765.181	0.06
765.489	0.06
765.797	0.06
766.105	0.06
766.413	0.06
766.721	0.06
767.029	0.06
767.337	0.06
767.644	0.06
767.952	0.06
768.26	0.06
768.567	0.06
768.875	0.06
769.182	0.06
769.49	0.06
769.797	0.06
770.104	0.06
770.411	0.06
770.718	0.06
771.026	0.06
771.333	0.06
771.639	0.06
771.946	0.06
772.253	0.06
772.56	0.06
772.867	0.06
773.173	0.06
773.48	0.06
773.786	0.06
774.093	0.06
774.399	0.06
774.705	0.06
775.012	0.06
775.318	0.06
775.624	0.06
775.93	0.06
776.236	0.06
776.542	0.06
776.848	0.06
777.154	0.06
777.459	0.06
777.765	0.06
778.071	0.06
778.376	0.06
778.682	0.06
778.987	0.06
779.292	0.06
779.598	0.06
779.903	0.06
780.208	0.06
780.513	0.06
780.818	0.06
781.123	0.06
781.428	0.06
781.733	0.06
782.038	0.06
782.343	0.06
782.647	0.06
782.952	0.06
783.256	0.06
783.561	0.06
783.865	0.06
784.17	0.07
784.474	0.07
784.778	0.07
785.082	0.07
785.386	0.07
785.69	0.07
785.994	0.07
786.298	0.07
786.602	0.07
786.906	0.07
787.209	0.07
787.513	0.07
787.817	0.07
788.12	0.07
788.424	0.07
788.727	0.07
789.03	0.07
789.333	0.07
789.637	0.07
789.94	0.07
790.243	0.08
790.546	0.08
790.849	0.07
791.152	0.07
791.454	0.08
791.757	0.07
792.06	0.07
792.362	0.08
792.665	0.08
792.967	0.07
793.27	0.07
793.572	0.08
793.874	0.07
794.177	0.07
794.479	0.08
794.781	0.07
795.083	0.07
795.385	0.07
795.687	0.07
795.989	0.07
796.29	0.07
796.592	0.08
796.894	0.08
797.195	0.08
797.497	0.08
797.798	0.09
798.1	0.09
798.401	0.08
798.702	0.08
799.003	0.08
799.304	0.07
799.605	0.08
799.906	0.08
800.207	0.08
800.508	0.08
800.809	0.08
801.11	0.08
801.41	0.08
801.711	0.08
802.011	0.08
802.312	0.08
802.612	0.09
802.913	0.08
803.213	0.08
803.513	0.08
803.813	0.08
804.113	0.08
804.413	0.07
804.713	0.08
805.013	0.08
805.313	0.08
805.613	0.09
805.912	0.08
806.212	0.08
806.511	0.08
806.811	0.08
807.11	0.08
807.41	0.09
807.709	0.09
808.008	0.09
808.307	0.09
808.606	0.09
808.905	0.09
809.204	0.1
809.503	0.09
809.802	0.1
810.101	0.09
810.399	0.09
810.698	0.1
810.997	0.09
811.295	0.09
811.593	0.09
811.892	0.09
812.19	0.09
812.488	0.09
812.786	0.09
813.084	0.09
813.383	0.09
813.68	0.09
813.978	0.09
814.276	0.1
814.574	0.1
814.872	0.1
815.169	0.1
815.467	0.1
815.764	0.1
816.062	0.1
816.359	0.1
816.656	0.11
816.954	0.1
817.251	0.1
817.548	0.1
817.845	0.1
818.142	0.1
818.439	0.1
818.735	0.11
819.032	0.1
819.329	0.1
819.626	0.1
819.922	0.11
820.219	0.11
820.515	0.11
820.811	0.11
821.108	0.11
821.404	0.11
821.7	0.11
821.996	0.12
822.292	0.11
822.588	0.11
822.884	0.11
823.18	0.12
823.475	0.12
823.771	0.12
824.067	0.12
824.362	0.11
824.658	0.11
824.953	0.11
825.249	0.11
825.544	0.11
825.839	0.12
826.134	0.12
826.429	0.11
826.724	0.11
827.019	0.11
827.314	0.12
827.609	0.12
827.904	0.12
828.198	0.12
828.493	0.12
828.787	0.12
829.082	0.12
829.376	0.12
829.671	0.13
829.965	0.12
830.259	0.12
830.553	0.13
830.847	0.12
831.141	0.13
831.435	0.12
831.729	0.13
832.023	0.13
832.317	0.13
832.61	0.13
832.904	0.13
833.197	0.13
833.491	0.14
833.784	0.13
834.077	0.13
834.371	0.13
834.664	0.13
834.957	0.13
835.25	0.12
835.543	0.13
835.836	0.12
836.129	0.12
836.421	0.13
836.714	0.13
837.007	0.12
837.299	0.13
837.592	0.13
837.884	0.13
838.177	0.13
838.469	0.13
838.761	0.13
839.053	0.13
839.345	0.13
839.637	0.13
839.929	0.14
840.221	0.14
840.513	0.13
840.805	0.14
841.096	0.13
841.388	0.13
841.68	0.14
841.971	0.13
842.262	0.15
842.554	0.14
842.845	0.14
843.136	0.14
843.427	0.14
843.718	0.14
844.009	0.14
844.3	0.15
844.591	0.14
844.882	0.14
845.173	0.15
845.463	0.14
845.754	0.15
846.044	0.15
846.335	0.15
846.625	0.15
846.915	0.16
847.206	0.15
847.496	0.16
847.786	0.15
848.076	0.15
848.366	0.16
848.656	0.15
848.945	0.15
849.235	0.14
849.525	0.15
849.814	0.15
850.104	0.15
850.393	0.16
850.683	0.16
850.972	0.16
851.261	0.16
851.551	0.15
851.84	0.15
852.129	0.15
852.418	0.16
852.707	0.16
852.995	0.15
853.284	0.16
853.573	0.17
853.862	0.15
854.15	0.15
854.439	0.16
854.727	0.16
855.015	0.16
855.304	0.16
855.592	0.17
855.88	0.16
856.168	0.16
856.456	0.17
856.744	0.16
857.032	0.17
857.32	0.16
857.607	0.17
857.895	0.17
858.183	0.17
858.47	0.16
858.757	0.17
859.045	0.18
859.332	0.19
859.619	0.17
859.907	0.17
860.194	0.17
860.481	0.17
860.768	0.18
861.054	0.18
861.341	0.17
861.628	0.2
861.915	0.19
862.201	0.18
862.488	0.2
862.774	0.18
863.061	0.19
863.347	0.16
863.633	0.18
863.919	0.17
864.205	0.16
864.491	0.16
864.777	0.17
865.063	0.18
865.349	0.17
865.635	0.16
865.92	0.17
866.206	0.19
866.492	0.2
866.777	0.19
867.062	0.19
867.348	0.16
867.633	0.17
867.918	0.14
868.203	0.18
868.488	0.17
868.773	0.17
869.058	0.16
869.343	0.19
869.628	0.16
869.912	0.2
870.197	0.17
870.482	0.19
870.766	0.19
871.05	0.18
871.335	0.2
871.619	0.15
871.903	0.19
872.187	0.17
872.471	0.18
872.755	0.11
873.039	0.14
873.323	0.16
873.607	0.17
873.89	0.22
874.174	0.13
874.458	0.19
874.741	0.17
875.024	0.21
875.308	0.12
875.591	0.14
875.874	0.18
876.157	0.2
876.44	0.13
876.723	0.19
877.006	0.11
877.289	0.14
877.572	0.17
877.854	0.17
878.137	0.11
878.42	0.12
878.702	0.18
878.984	0.19
879.267	0.18
879.549	0.12
879.831	0.19
880.113	0.23
880.395	0.16
880.677	0.09
880.959	0.16
