Data from Rubpy_BV_1500_EDTA_Buffered_Absorbance_14-14-29-582.txt Node
Date: Wed Jul 01 14:14:29 BST 2026
User: fpm-admin
Spectrometer: OFX00224
Trigger mode: 0
Integration Time (sec): 7.000000E-2
Scans to average: 3
Nonlinearity correction enabled: false
Boxcar width: 0
Storing dark spectrum: false
XAxis mode: Wavelengths
Number of Pixels in Spectrum: 2136
>>>>>Begin Spectral Data<<<<<
154.91	-0
155.289	0.12
155.669	-0.9
156.048	-0.12
156.428	-0
156.807	-0
157.186	-0.35
157.566	-0
157.945	0.7
158.325	0.34
158.704	-0
159.083	-0
159.462	0.04
159.842	0.36
160.221	-0.26
160.6	-0
160.979	-0.14
161.359	-0.22
161.738	-0
162.117	-0
162.496	-0.21
162.875	1.08
163.254	1.04
163.633	-0
164.012	-0
164.391	1.57
164.77	0.15
165.149	-0
165.528	-0.08
165.907	0.25
166.286	-0.3
166.665	-0.03
167.044	0.39
167.423	-0
167.802	-0
168.181	-0.38
168.559	0.01
168.938	-0.04
169.317	-0
169.696	-0
170.074	0.2
170.453	0.08
170.832	-0
171.21	0.14
171.589	1.06
171.968	-0.57
172.346	0.58
172.725	-0
173.103	-0
173.482	-0.78
173.861	-0
174.239	-0.18
174.617	0.39
174.996	0.38
175.374	-0.08
175.753	-0.27
176.131	0.04
176.51	0.39
176.888	-0
177.266	1.09
177.645	-0.12
178.023	-0
178.401	-0.18
178.779	0.07
179.158	0.17
179.536	-0.13
179.914	0.12
180.292	1.24
180.67	-0
181.048	0.05
181.427	-0.1
181.805	0.3
182.183	-0.4
182.561	0.38
182.939	-0
183.317	-0.14
183.695	-0.13
184.073	-0
184.451	-0
184.829	-0
185.206	-0
185.584	1.32
185.962	-0
186.34	-0
186.718	-0
187.096	-0.68
187.473	0.16
187.851	-0.16
188.229	0.49
188.607	0.09
188.984	0.06
189.362	0.17
189.74	0.05
190.117	0.06
190.495	-0.03
190.872	0.09
191.25	0.05
191.627	-0.04
192.005	0.09
192.382	0.1
192.76	0.08
193.137	0.05
193.515	0.08
193.892	0.03
194.269	-0.06
194.647	0.03
195.024	0.08
195.401	0.11
195.779	-0
196.156	0.16
196.533	0.06
196.91	0.05
197.288	0.13
197.665	0.06
198.042	0.15
198.419	0.06
198.796	0.1
199.173	0.11
199.55	0.09
199.927	0.15
200.304	0.15
200.681	0.06
201.058	0.08
201.435	0.06
201.812	0.1
202.189	0.12
202.566	0.08
202.943	0.09
203.32	0.01
203.697	0.07
204.073	0.03
204.45	0.02
204.827	0.19
205.204	0.01
205.58	0.03
205.957	0.11
206.334	0.03
206.71	0.06
207.087	0.09
207.464	0.07
207.84	0.02
208.217	0.1
208.593	0.17
208.97	0.07
209.346	0.18
209.723	0.05
210.099	0.01
210.476	0.09
210.852	0.03
211.228	0.05
211.605	0.17
211.981	0.06
212.357	0.11
212.733	0.03
213.11	0.07
213.486	0.09
213.862	0.07
214.238	0.03
214.614	0.1
214.991	0.03
215.367	0.09
215.743	0.05
216.119	0.07
216.495	0.13
216.871	0.18
217.247	0.12
217.623	0.06
217.999	0.03
218.375	0.18
218.751	0.11
219.127	0.14
219.502	0.09
219.878	0.14
220.254	0.12
220.63	0.19
221.006	0.05
221.381	0.17
221.757	0.2
222.133	0.1
222.508	0.13
222.884	0.23
223.26	0.04
223.635	0.14
224.011	0.25
224.386	0.27
224.762	0.17
225.137	0.19
225.513	0.14
225.888	0.18
226.264	0.08
226.639	0.15
227.014	0.13
227.39	0.12
227.765	0.19
228.14	0.16
228.516	0.16
228.891	0.14
229.266	0.15
229.641	0.11
230.017	0.12
230.392	0.17
230.767	0.1
231.142	0.07
231.517	0.07
231.892	0.13
232.267	0.08
232.642	0.18
233.017	0.05
233.392	0.08
233.767	0.18
234.142	0.13
234.517	0.15
234.892	0.15
235.267	0.24
235.641	0.09
236.016	0.08
236.391	0.18
236.766	0.14
237.14	0.08
237.515	0.1
237.89	0.03
238.264	0.11
238.639	0.02
239.014	0.01
239.388	0.01
239.763	0.09
240.137	0.11
240.512	0.11
240.886	0.13
241.261	0.05
241.635	0.09
242.009	0.14
242.384	0.15
242.758	0.08
243.132	0.13
243.507	0.14
243.881	0.09
244.255	0.13
244.629	0.14
245.004	0.11
245.378	0.09
245.752	0.07
246.126	0.13
246.5	0.1
246.874	0.03
247.248	0.1
247.622	0
247.996	0.07
248.37	0.13
248.744	0.12
249.118	0.09
249.492	0.02
249.866	0.08
250.24	0.13
250.613	0.08
250.987	0.2
251.361	0.09
251.735	0.16
252.108	0.1
252.482	0.01
252.856	0.12
253.229	0.2
253.603	0.12
253.977	0.07
254.35	0.08
254.724	0.13
255.097	0.1
255.471	0.12
255.844	0.12
256.218	0.12
256.591	0.2
256.964	0.06
257.338	0.09
257.711	0.14
258.084	0.14
258.458	0.07
258.831	0.13
259.204	0.11
259.577	0.12
259.95	0.14
260.323	0.06
260.697	0.13
261.07	0.17
261.443	0.13
261.816	0.07
262.189	0.11
262.562	0.08
262.935	0.09
263.308	0.08
263.68	0.1
264.053	0.1
264.426	0.11
264.799	0.1
265.172	0.09
265.545	0.13
265.917	0.09
266.29	0.14
266.663	0.15
267.035	0.11
267.408	0.04
267.781	0.08
268.153	0.16
268.526	0.07
268.898	0.14
269.271	0.09
269.643	0.1
270.016	0.1
270.388	0.18
270.76	0.1
271.133	0.1
271.505	0.18
271.877	0.09
272.25	0.16
272.622	0.18
272.994	0.12
273.366	0.11
273.739	0.14
274.111	0.06
274.483	0.11
274.855	0.11
275.227	0.11
275.599	0.04
275.971	0.01
276.343	0.09
276.715	0.14
277.087	0.16
277.459	0.05
277.831	0.13
278.203	0.14
278.574	0.14
278.946	0.05
279.318	0.12
279.69	0.05
280.061	0.1
280.433	0.1
280.805	0.06
281.176	0.1
281.548	0.18
281.92	0.09
282.291	0.11
282.663	0.13
283.034	0.08
283.406	0.09
283.777	0.08
284.148	0.11
284.52	0.09
284.891	0.09
285.262	0.15
285.634	0.08
286.005	0.15
286.376	0.15
286.747	0.08
287.119	0.06
287.49	0.08
287.861	0.1
288.232	0.19
288.603	0.15
288.974	0.15
289.345	0.17
289.716	0.08
290.087	0.15
290.458	0.15
290.829	0
291.2	0.13
291.571	0.11
291.941	0.08
292.312	0.15
292.683	0.14
293.054	0.14
293.424	0.13
293.795	0.06
294.166	0.03
294.536	0.12
294.907	0.17
295.277	0.15
295.648	0.12
296.018	0.1
296.389	0.1
296.759	0.17
297.13	0.12
297.5	0.19
297.871	0.14
298.241	0.09
298.611	0.22
298.981	0.13
299.352	0.15
299.722	0.13
300.092	0.14
300.462	0.14
300.832	0.13
301.202	0.13
301.573	0.12
301.943	0.09
302.313	0.11
302.683	0.12
303.053	0.14
303.422	0.17
303.792	0.1
304.162	0.1
304.532	0.16
304.902	0.1
305.272	0.12
305.641	0.14
306.011	0.13
306.381	0.07
306.75	0.11
307.12	0.06
307.49	0.12
307.859	0.11
308.229	0.1
308.598	0.14
308.968	0.08
309.337	0.07
309.707	0.07
310.076	0.09
310.445	0.12
310.815	0.09
311.184	0.09
311.553	0.07
311.923	0.06
312.292	0.08
312.661	0.08
313.03	0.11
313.399	0.1
313.768	0.09
314.137	0.07
314.506	0.09
314.875	0.08
315.244	0.09
315.613	0.09
315.982	0.1
316.351	0.08
316.72	0.1
317.089	0.08
317.458	0.1
317.826	0.09
318.195	0.09
318.564	0.08
318.933	0.1
319.301	0.09
319.67	0.1
320.038	0.09
320.407	0.1
320.775	0.1
321.144	0.1
321.512	0.1
321.881	0.11
322.249	0.1
322.618	0.1
322.986	0.11
323.354	0.1
323.723	0.11
324.091	0.11
324.459	0.11
324.827	0.11
325.195	0.11
325.564	0.11
325.932	0.1
326.3	0.11
326.668	0.12
327.036	0.12
327.404	0.13
327.772	0.12
328.14	0.12
328.508	0.12
328.875	0.12
329.243	0.14
329.611	0.13
329.979	0.13
330.346	0.13
330.714	0.13
331.082	0.14
331.449	0.13
331.817	0.14
332.185	0.14
332.552	0.15
332.92	0.15
333.287	0.15
333.655	0.15
334.022	0.16
334.389	0.16
334.757	0.16
335.124	0.16
335.491	0.16
335.859	0.17
336.226	0.18
336.593	0.17
336.96	0.18
337.327	0.19
337.695	0.19
338.062	0.19
338.429	0.19
338.796	0.19
339.163	0.2
339.53	0.2
339.897	0.21
340.263	0.21
340.63	0.21
340.997	0.22
341.364	0.22
341.731	0.22
342.097	0.23
342.464	0.23
342.831	0.23
343.197	0.24
343.564	0.24
343.931	0.24
344.297	0.25
344.664	0.26
345.03	0.26
345.396	0.26
345.763	0.27
346.129	0.27
346.496	0.27
346.862	0.28
347.228	0.28
347.594	0.28
347.961	0.29
348.327	0.29
348.693	0.29
349.059	0.3
349.425	0.3
349.791	0.3
350.157	0.31
350.523	0.31
350.889	0.32
351.255	0.32
351.621	0.32
351.987	0.33
352.353	0.33
352.719	0.34
353.084	0.34
353.45	0.35
353.816	0.35
354.181	0.35
354.547	0.36
354.913	0.36
355.278	0.37
355.644	0.37
356.009	0.38
356.375	0.38
356.74	0.38
357.106	0.39
357.471	0.39
357.836	0.4
358.202	0.41
358.567	0.42
358.932	0.42
359.297	0.42
359.663	0.43
360.028	0.44
360.393	0.44
360.758	0.45
361.123	0.45
361.488	0.47
361.853	0.47
362.218	0.47
362.583	0.48
362.948	0.48
363.312	0.49
363.677	0.5
364.042	0.5
364.407	0.51
364.772	0.52
365.136	0.52
365.501	0.52
365.865	0.53
366.23	0.54
366.595	0.54
366.959	0.55
367.324	0.55
367.688	0.55
368.052	0.56
368.417	0.57
368.781	0.57
369.145	0.57
369.51	0.58
369.874	0.59
370.238	0.59
370.602	0.6
370.967	0.6
371.331	0.61
371.695	0.6
372.059	0.61
372.423	0.61
372.787	0.61
373.151	0.61
373.515	0.61
373.878	0.61
374.242	0.6
374.606	0.61
374.97	0.6
375.334	0.59
375.697	0.59
376.061	0.58
376.425	0.58
376.788	0.57
377.152	0.57
377.515	0.56
377.879	0.56
378.242	0.56
378.606	0.55
378.969	0.53
379.333	0.54
379.696	0.53
380.059	0.53
380.422	0.52
380.786	0.51
381.149	0.51
381.512	0.51
381.875	0.5
382.238	0.5
382.601	0.49
382.964	0.49
383.327	0.48
383.69	0.49
384.053	0.48
384.416	0.48
384.779	0.47
385.142	0.47
385.504	0.47
385.867	0.48
386.23	0.47
386.593	0.47
386.955	0.47
387.318	0.48
387.68	0.48
388.043	0.48
388.405	0.48
388.768	0.48
389.13	0.48
389.493	0.47
389.855	0.48
390.217	0.47
390.58	0.47
390.942	0.47
391.304	0.47
391.666	0.46
392.028	0.45
392.391	0.45
392.753	0.44
393.115	0.44
393.477	0.44
393.839	0.43
394.201	0.43
394.563	0.43
394.924	0.43
395.286	0.43
395.648	0.44
396.01	0.43
396.371	0.44
396.733	0.45
397.095	0.46
397.456	0.47
397.818	0.48
398.18	0.5
398.541	0.5
398.903	0.52
399.264	0.54
399.625	0.55
399.987	0.56
400.348	0.57
400.709	0.58
401.071	0.58
401.432	0.59
401.793	0.59
402.154	0.58
402.515	0.58
402.876	0.57
403.238	0.56
403.599	0.54
403.96	0.52
404.32	0.51
404.681	0.5
405.042	0.47
405.403	0.45
405.764	0.43
406.125	0.41
406.485	0.39
406.846	0.36
407.207	0.34
407.567	0.33
407.928	0.31
408.288	0.29
408.649	0.27
409.009	0.26
409.37	0.24
409.73	0.23
410.091	0.22
410.451	0.2
410.811	0.19
411.171	0.18
411.532	0.17
411.892	0.16
412.252	0.16
412.612	0.15
412.972	0.14
413.332	0.14
413.692	0.13
414.052	0.12
414.412	0.12
414.772	0.11
415.132	0.11
415.492	0.11
415.851	0.11
416.211	0.11
416.571	0.1
416.931	0.09
417.29	0.09
417.65	0.08
418.009	0.1
418.369	0.09
418.728	0.09
419.088	0.08
419.447	0.07
419.807	0.07
420.166	0.08
420.525	0.08
420.884	0.06
421.244	0.07
421.603	0.07
421.962	0.07
422.321	0.07
422.68	0.06
423.039	0.06
423.398	0.06
423.757	0.06
424.116	0.07
424.475	0.07
424.834	0.06
425.193	0.06
425.551	0.06
425.91	0.05
426.269	0.06
426.628	0.05
426.986	0.06
427.345	0.06
427.703	0.05
428.062	0.05
428.42	0.05
428.779	0.05
429.137	0.06
429.496	0.05
429.854	0.05
430.212	0.05
430.57	0.05
430.929	0.05
431.287	0.05
431.645	0.04
432.003	0.06
432.361	0.04
432.719	0.06
433.077	0.05
433.435	0.05
433.793	0.05
434.151	0.05
434.509	0.05
434.866	0.05
435.224	0.05
435.582	0.04
435.94	0.05
436.297	0.05
436.655	0.04
437.012	0.05
437.37	0.04
437.727	0.05
438.085	0.05
438.442	0.05
438.8	0.05
439.157	0.05
439.514	0.05
439.872	0.04
440.229	0.05
440.586	0.04
440.943	0.05
441.3	0.04
441.657	0.04
442.014	0.04
442.371	0.04
442.728	0.05
443.085	0.05
443.442	0.05
443.799	0.04
444.156	0.04
444.513	0.05
444.869	0.04
445.226	0.04
445.583	0.05
445.939	0.05
446.296	0.05
446.652	0.05
447.009	0.05
447.365	0.04
447.722	0.05
448.078	0.06
448.434	0.05
448.791	0.05
449.147	0.04
449.503	0.05
449.859	0.05
450.215	0.04
450.571	0.04
450.928	0.04
451.284	0.04
451.64	0.05
451.995	0.04
452.351	0.06
452.707	0.05
453.063	0.05
453.419	0.05
453.775	0.05
454.13	0.05
454.486	0.06
454.842	0.05
455.197	0.04
455.553	0.05
455.908	0.05
456.264	0.04
456.619	0.04
456.975	0.04
457.33	0.05
457.685	0.05
458.04	0.05
458.396	0.05
458.751	0.04
459.106	0.05
459.461	0.05
459.816	0.05
460.171	0.05
460.526	0.06
460.881	0.05
461.236	0.05
461.591	0.05
461.946	0.04
462.301	0.05
462.655	0.06
463.01	0.06
463.365	0.05
463.719	0.05
464.074	0.05
464.428	0.05
464.783	0.05
465.137	0.05
465.492	0.05
465.846	0.05
466.201	0.05
466.555	0.05
466.909	0.05
467.263	0.05
467.618	0.05
467.972	0.05
468.326	0.05
468.68	0.05
469.034	0.05
469.388	0.06
469.742	0.05
470.096	0.05
470.45	0.05
470.804	0.06
471.157	0.05
471.511	0.06
471.865	0.06
472.218	0.06
472.572	0.06
472.926	0.07
473.279	0.06
473.633	0.06
473.986	0.07
474.34	0.07
474.693	0.07
475.046	0.07
475.4	0.07
475.753	0.07
476.106	0.08
476.459	0.08
476.812	0.08
477.165	0.08
477.519	0.08
477.872	0.07
478.224	0.09
478.577	0.09
478.93	0.09
479.283	0.09
479.636	0.09
479.989	0.1
480.341	0.09
480.694	0.09
481.047	0.1
481.399	0.09
481.752	0.1
482.104	0.1
482.457	0.1
482.809	0.1
483.162	0.1
483.514	0.11
483.866	0.11
484.219	0.1
484.571	0.11
484.923	0.11
485.275	0.11
485.627	0.11
485.979	0.11
486.331	0.11
486.683	0.11
487.035	0.12
487.387	0.11
487.739	0.12
488.091	0.12
488.443	0.12
488.794	0.12
489.146	0.12
489.498	0.12
489.849	0.12
490.201	0.12
490.552	0.12
490.904	0.13
491.255	0.13
491.607	0.13
491.958	0.13
492.309	0.13
492.661	0.13
493.012	0.13
493.363	0.14
493.714	0.14
494.065	0.14
494.416	0.14
494.767	0.14
495.118	0.15
495.469	0.14
495.82	0.14
496.171	0.15
496.522	0.14
496.872	0.15
497.223	0.15
497.574	0.15
497.924	0.15
498.275	0.15
498.626	0.15
498.976	0.16
499.327	0.15
499.677	0.16
500.027	0.16
500.378	0.15
500.728	0.16
501.078	0.16
501.428	0.16
501.779	0.16
502.129	0.17
502.479	0.16
502.829	0.17
503.179	0.17
503.529	0.17
503.879	0.17
504.229	0.17
504.578	0.17
504.928	0.17
505.278	0.17
505.628	0.18
505.977	0.18
506.327	0.18
506.676	0.18
507.026	0.18
507.375	0.19
507.725	0.18
508.074	0.18
508.424	0.19
508.773	0.19
509.122	0.18
509.471	0.19
509.82	0.19
510.17	0.19
510.519	0.19
510.868	0.2
511.217	0.2
511.566	0.2
511.915	0.19
512.263	0.19
512.612	0.2
512.961	0.2
513.31	0.2
513.659	0.2
514.007	0.21
514.356	0.2
514.704	0.21
515.053	0.21
515.401	0.21
515.75	0.21
516.098	0.21
516.447	0.22
516.795	0.21
517.143	0.22
517.491	0.21
517.839	0.21
518.188	0.21
518.536	0.22
518.884	0.22
519.232	0.22
519.58	0.22
519.928	0.22
520.275	0.22
520.623	0.22
520.971	0.22
521.319	0.23
521.666	0.22
522.014	0.22
522.362	0.22
522.709	0.23
523.057	0.23
523.404	0.23
523.752	0.23
524.099	0.23
524.446	0.23
524.794	0.23
525.141	0.23
525.488	0.24
525.835	0.23
526.182	0.24
526.529	0.23
526.876	0.24
527.223	0.24
527.57	0.24
527.917	0.24
528.264	0.24
528.611	0.24
528.958	0.24
529.304	0.24
529.651	0.25
529.998	0.25
530.344	0.25
530.691	0.25
531.037	0.25
531.384	0.25
531.73	0.25
532.076	0.25
532.423	0.25
532.769	0.25
533.115	0.25
533.461	0.25
533.807	0.25
534.154	0.25
534.5	0.26
534.846	0.25
535.192	0.25
535.537	0.25
535.883	0.25
536.229	0.26
536.575	0.25
536.921	0.26
537.266	0.26
537.612	0.26
537.957	0.26
538.303	0.26
538.649	0.26
538.994	0.26
539.339	0.26
539.685	0.27
540.03	0.27
540.375	0.26
540.721	0.26
541.066	0.26
541.411	0.27
541.756	0.27
542.101	0.27
542.446	0.27
542.791	0.27
543.136	0.27
543.481	0.27
543.825	0.27
544.17	0.27
544.515	0.27
544.86	0.27
545.204	0.27
545.549	0.27
545.893	0.27
546.238	0.27
546.582	0.27
546.927	0.27
547.271	0.28
547.615	0.27
547.96	0.28
548.304	0.28
548.648	0.28
548.992	0.27
549.336	0.28
549.68	0.28
550.024	0.28
550.368	0.28
550.712	0.28
551.056	0.28
551.4	0.28
551.743	0.28
552.087	0.28
552.431	0.28
552.774	0.28
553.118	0.28
553.462	0.28
553.805	0.28
554.148	0.28
554.492	0.28
554.835	0.28
555.178	0.28
555.522	0.28
555.865	0.28
556.208	0.28
556.551	0.28
556.894	0.28
557.237	0.28
557.58	0.28
557.923	0.28
558.266	0.28
558.609	0.28
558.952	0.29
559.294	0.28
559.637	0.28
559.98	0.28
560.322	0.28
560.665	0.28
561.007	0.28
561.35	0.28
561.692	0.28
562.034	0.28
562.377	0.28
562.719	0.28
563.061	0.28
563.403	0.28
563.745	0.28
564.088	0.28
564.43	0.28
564.772	0.28
565.113	0.28
565.455	0.28
565.797	0.28
566.139	0.28
566.481	0.28
566.822	0.28
567.164	0.28
567.506	0.28
567.847	0.28
568.189	0.28
568.53	0.28
568.872	0.28
569.213	0.28
569.554	0.27
569.895	0.28
570.237	0.27
570.578	0.28
570.919	0.27
571.26	0.27
571.601	0.27
571.942	0.27
572.283	0.27
572.624	0.27
572.965	0.27
573.306	0.27
573.646	0.26
573.987	0.26
574.328	0.26
574.668	0.27
575.009	0.26
575.349	0.26
575.69	0.26
576.03	0.26
576.37	0.26
576.711	0.25
577.051	0.26
577.391	0.26
577.731	0.26
578.072	0.26
578.412	0.26
578.752	0.26
579.092	0.25
579.431	0.24
579.771	0.23
580.111	0.22
580.451	0.23
580.791	0.25
581.13	0.25
581.47	0.25
581.81	0.25
582.149	0.25
582.489	0.25
582.828	0.24
583.167	0.22
583.507	0.18
583.846	0.17
584.185	0.2
584.525	0.22
584.864	0.24
585.203	0.25
585.542	0.25
585.881	0.25
586.22	0.25
586.559	0.25
586.898	0.24
587.236	0.23
587.575	0.23
587.914	0.24
588.252	0.25
588.591	0.25
588.93	0.25
589.268	0.25
589.607	0.24
589.945	0.24
590.283	0.25
590.622	0.25
590.96	0.25
591.298	0.25
591.636	0.25
591.974	0.25
592.313	0.26
592.651	0.26
592.989	0.26
593.326	0.26
593.664	0.26
594.002	0.26
594.34	0.25
594.678	0.25
595.015	0.25
595.353	0.24
595.691	0.25
596.028	0.25
596.366	0.25
596.703	0.26
597.04	0.26
597.378	0.25
597.715	0.26
598.052	0.26
598.389	0.26
598.726	0.26
599.064	0.26
599.401	0.26
599.738	0.26
600.074	0.26
600.411	0.26
600.748	0.25
601.085	0.25
601.422	0.24
601.758	0.25
602.095	0.25
602.432	0.25
602.768	0.25
603.105	0.25
603.441	0.25
603.777	0.26
604.114	0.26
604.45	0.25
604.786	0.26
605.122	0.26
605.459	0.26
605.795	0.25
606.131	0.25
606.467	0.25
606.803	0.25
607.139	0.25
607.474	0.25
607.81	0.25
608.146	0.25
608.482	0.25
608.817	0.25
609.153	0.24
609.488	0.24
609.824	0.25
610.159	0.25
610.495	0.24
610.83	0.25
611.165	0.25
611.5	0.25
611.836	0.24
612.171	0.25
612.506	0.24
612.841	0.24
613.176	0.24
613.511	0.24
613.845	0.24
614.18	0.24
614.515	0.24
614.85	0.24
615.184	0.24
615.519	0.24
615.854	0.24
616.188	0.24
616.523	0.24
616.857	0.23
617.191	0.23
617.526	0.23
617.86	0.23
618.194	0.23
618.528	0.23
618.862	0.23
619.196	0.23
619.53	0.23
619.864	0.23
620.198	0.23
620.532	0.23
620.866	0.23
621.2	0.23
621.533	0.23
621.867	0.23
622.201	0.22
622.534	0.23
622.868	0.23
623.201	0.22
623.534	0.22
623.868	0.22
624.201	0.22
624.534	0.22
624.868	0.22
625.201	0.22
625.534	0.22
625.867	0.22
626.2	0.21
626.533	0.22
626.865	0.21
627.198	0.22
627.531	0.21
627.864	0.21
628.196	0.21
628.529	0.21
628.862	0.21
629.194	0.21
629.527	0.2
629.859	0.21
630.191	0.2
630.524	0.2
630.856	0.2
631.188	0.2
631.52	0.2
631.852	0.2
632.184	0.2
632.516	0.2
632.848	0.2
633.18	0.2
633.512	0.19
633.844	0.19
634.175	0.19
634.507	0.19
634.839	0.19
635.17	0.19
635.502	0.18
635.833	0.18
636.165	0.18
636.496	0.18
636.827	0.18
637.159	0.18
637.49	0.18
637.821	0.18
638.152	0.17
638.483	0.17
638.814	0.17
639.145	0.17
639.476	0.17
639.807	0.17
640.137	0.17
640.468	0.17
640.799	0.17
641.129	0.16
641.46	0.16
641.791	0.17
642.121	0.16
642.451	0.16
642.782	0.16
643.112	0.16
643.442	0.16
643.773	0.15
644.103	0.16
644.433	0.16
644.763	0.15
645.093	0.15
645.423	0.15
645.753	0.15
646.082	0.15
646.412	0.15
646.742	0.15
647.072	0.15
647.401	0.15
647.731	0.15
648.06	0.14
648.39	0.15
648.719	0.14
649.048	0.14
649.378	0.14
649.707	0.14
650.036	0.14
650.365	0.14
650.694	0.14
651.023	0.14
651.352	0.14
651.681	0.14
652.01	0.14
652.339	0.14
652.668	0.14
652.996	0.14
653.325	0.14
653.654	0.14
653.982	0.14
654.311	0.14
654.639	0.14
654.967	0.14
655.296	0.14
655.624	0.14
655.952	0.14
656.28	0.14
656.609	0.14
656.937	0.14
657.265	0.13
657.593	0.03
657.92	0
658.248	0
658.576	0
658.904	0.01
659.231	0.08
659.559	0.13
659.887	0.13
660.214	0.13
660.542	0.13
660.869	0.13
661.196	0.13
661.524	0.13
661.851	0.13
662.178	0.13
662.505	0.13
662.832	0.13
663.159	0.13
663.486	0.13
663.813	0.13
664.14	0.12
664.467	0.12
664.794	0.12
665.12	0.12
665.447	0.12
665.774	0.13
666.1	0.12
666.427	0.12
666.753	0.12
667.079	0.12
667.406	0.12
667.732	0.12
668.058	0.12
668.384	0.12
668.71	0.12
669.036	0.12
669.362	0.12
669.688	0.12
670.014	0.11
670.34	0.11
670.666	0.11
670.991	0.11
671.317	0.11
671.643	0.11
671.968	0.11
672.294	0.11
672.619	0.11
672.945	0.11
673.27	0.11
673.595	0.11
673.92	0.1
674.246	0.1
674.571	0.1
674.896	0.1
675.221	0.1
675.546	0.1
675.87	0.1
676.195	0.1
676.52	0.1
676.845	0.1
677.169	0.1
677.494	0.1
677.819	0.1
678.143	0.09
678.468	0.09
678.792	0.09
679.116	0.09
679.44	0.09
679.765	0.09
680.089	0.09
680.413	0.09
680.737	0.09
681.061	0.08
681.385	0.08
681.709	0.08
682.033	0.08
682.356	0.08
682.68	0.08
683.004	0.08
683.327	0.08
683.651	0.08
683.974	0.08
684.298	0.08
684.621	0.08
684.944	0.08
685.268	0.08
685.591	0.07
685.914	0.07
686.237	0.07
686.56	0.07
686.883	0.07
687.206	0.07
687.529	0.06
687.852	0.06
688.175	0.06
688.497	0.07
688.82	0.06
689.142	0.06
689.465	0.06
689.787	0.06
690.11	0.06
690.432	0.06
690.755	0.06
691.077	0.06
691.399	0.06
691.721	0.06
692.043	0.06
692.365	0.06
692.687	0.06
693.009	0.05
693.331	0.05
693.653	0.05
693.974	0.05
694.296	0.05
694.618	0.05
694.939	0.05
695.261	0.05
695.582	0.05
695.904	0.05
696.225	0.05
696.546	0.05
696.868	0.05
697.189	0.05
697.51	0.05
697.831	0.05
698.152	0.05
698.473	0.04
698.794	0.04
699.114	0.04
699.435	0.03
699.756	0.03
700.077	0.04
700.397	0.04
700.718	0.04
701.038	0.04
701.359	0.04
701.679	0.04
701.999	0.04
702.32	0.04
702.64	0.04
702.96	0.04
703.28	0.04
703.6	0.04
703.92	0.04
704.24	0.04
704.56	0.03
704.879	0.03
705.199	0.04
705.519	0.04
705.838	0.04
706.158	0.04
706.478	0.04
706.797	0.04
707.116	0.04
707.436	0.04
707.755	0.04
708.074	0.04
708.393	0.03
708.712	0.03
709.031	0.02
709.35	0.02
709.669	0.02
709.988	0.02
710.307	0.03
710.626	0.03
710.944	0.03
711.263	0.03
711.582	0.03
711.9	0.04
712.219	0.03
712.537	0.03
712.855	0.03
713.174	0.04
713.492	0.03
713.81	0.04
714.128	0.03
714.446	0.03
714.764	0.03
715.082	0.03
715.4	0.03
715.718	0.03
716.035	0.03
716.353	0.03
716.671	0.03
716.988	0.03
717.306	0.03
717.623	0.03
717.941	0.04
718.258	0.04
718.575	0.04
718.893	0.04
719.21	0.04
719.527	0.03
719.844	0.03
720.161	0.03
720.478	0.04
720.795	0.04
721.112	0.04
721.428	0.04
721.745	0.04
722.062	0.04
722.378	0.04
722.695	0.04
723.011	0.04
723.328	0.04
723.644	0.04
723.96	0.04
724.276	0.04
724.593	0.04
724.909	0.04
725.225	0.04
725.541	0.04
725.857	0.04
726.173	0.04
726.488	0.04
726.804	0.04
727.12	0.04
727.435	0.04
727.751	0.04
728.067	0.04
728.382	0.04
728.697	0.04
729.013	0.04
729.328	0.04
729.643	0.04
729.958	0.04
730.273	0.04
730.588	0.04
730.903	0.04
731.218	0.04
731.533	0.04
731.848	0.04
732.163	0.04
732.477	0.04
732.792	0.04
733.107	0.03
733.421	0.04
733.736	0.04
734.05	0.04
734.364	0.04
734.678	0.04
734.993	0.04
735.307	0.04
735.621	0.04
735.935	0.04
736.249	0.04
736.563	0.04
736.877	0.04
737.19	0.04
737.504	0.04
737.818	0.04
738.131	0.04
738.445	0.04
738.758	0.04
739.072	0.04
739.385	0.04
739.698	0.04
740.012	0.04
740.325	0.04
740.638	0.03
740.951	0.04
741.264	0.03
741.577	0.03
741.89	0.03
742.203	0.03
742.515	0.03
742.828	0.03
743.141	0.03
743.453	0.03
743.766	0.03
744.078	0.03
744.391	0.03
744.703	0.03
745.015	0.03
745.327	0.03
745.639	0.03
745.952	0.03
746.264	0.03
746.575	0.03
746.887	0.03
747.199	0.03
747.511	0.03
747.823	0.03
748.134	0.03
748.446	0.03
748.757	0.03
749.069	0.03
749.38	0.03
749.692	0.03
750.003	0.03
750.314	0.03
750.625	0.03
750.936	0.03
751.248	0.03
751.559	0.03
751.869	0.03
752.18	0.03
752.491	0.03
752.802	0.03
753.112	0.03
753.423	0.03
753.734	0.02
754.044	0.03
754.355	0.03
754.665	0.03
754.975	0.03
755.285	0.03
755.596	0.02
755.906	0.02
756.216	0.02
756.526	0.02
756.836	0.02
757.146	0.02
757.455	0.02
757.765	0.02
758.075	0.02
758.385	0.02
758.694	0.02
759.004	0.02
759.313	0.02
759.622	0.02
759.932	0.02
760.241	0.02
760.55	0.02
760.859	0.02
761.168	0.02
761.477	0.02
761.786	0.02
762.095	0.02
762.404	0.01
762.713	0.02
763.021	0.02
763.33	0.02
763.639	0.02
763.947	0.01
764.256	0.01
764.564	0.02
764.872	0.02
765.181	0.02
765.489	0.02
765.797	0.02
766.105	0.02
766.413	0.02
766.721	0.02
767.029	0.02
767.337	0.02
767.644	0.02
767.952	0.01
768.26	0.01
768.567	0.02
768.875	0.02
769.182	0.02
769.49	0.01
769.797	0.01
770.104	0.02
770.411	0.01
770.718	0.01
771.026	0.01
771.333	0.02
771.639	0.02
771.946	0.02
772.253	0.02
772.56	0.02
772.867	0.01
773.173	0.02
773.48	0.02
773.786	0.02
774.093	0.02
774.399	0.02
774.705	0.02
775.012	0.02
775.318	0.02
775.624	0.02
775.93	0.02
776.236	0.02
776.542	0.02
776.848	0.02
777.154	0.02
777.459	0.02
777.765	0.02
778.071	0.02
778.376	0.02
778.682	0.02
778.987	0.02
779.292	0.02
779.598	0.02
779.903	0.02
780.208	0.02
780.513	0.02
780.818	0.02
781.123	0.02
781.428	0.02
781.733	0.02
782.038	0.02
782.343	0.02
782.647	0.02
782.952	0.02
783.256	0.02
783.561	0.02
783.865	0.02
784.17	0.02
784.474	0.02
784.778	0.02
785.082	0.02
785.386	0.02
785.69	0.02
785.994	0.02
786.298	0.02
786.602	0.02
786.906	0.02
787.209	0.02
787.513	0.02
787.817	0.02
788.12	0.02
788.424	0.02
788.727	0.02
789.03	0.02
789.333	0.02
789.637	0.02
789.94	0.02
790.243	0.02
790.546	0.02
790.849	0.01
791.152	0.01
791.454	0.02
791.757	0.02
792.06	0.02
792.362	0.02
792.665	0.02
792.967	0.01
793.27	0.02
793.572	0.02
793.874	0.02
794.177	0.02
794.479	0.02
794.781	0.02
795.083	0.02
795.385	0.02
795.687	0.02
795.989	0.02
796.29	0.02
796.592	0.02
796.894	0.02
797.195	0.02
797.497	0.02
797.798	0.02
798.1	0.02
798.401	0.02
798.702	0.01
799.003	0.02
799.304	0.01
799.605	0.02
799.906	0.02
800.207	0.02
800.508	0.02
800.809	0.01
801.11	0.02
801.41	0.02
801.711	0.02
802.011	0.02
802.312	0.02
802.612	0.02
802.913	0.02
803.213	0.02
803.513	0.02
803.813	0.02
804.113	0.02
804.413	0.02
804.713	0.02
805.013	0.02
805.313	0.02
805.613	0.02
805.912	0.02
806.212	0.02
806.511	0.02
806.811	0.02
807.11	0.01
807.41	0.02
807.709	0.02
808.008	0.02
808.307	0.02
808.606	0.02
808.905	0.02
809.204	0.03
809.503	0.03
809.802	0.02
810.101	0.02
810.399	0.02
810.698	0.03
810.997	0.03
811.295	0.02
811.593	0.03
811.892	0.03
812.19	0.02
812.488	0.02
812.786	0.02
813.084	0.02
813.383	0.02
813.68	0.02
813.978	0.02
814.276	0.02
814.574	0.02
814.872	0.02
815.169	0.02
815.467	0.02
815.764	0.02
816.062	0.02
816.359	0.02
816.656	0.03
816.954	0.02
817.251	0.02
817.548	0.02
817.845	0.03
818.142	0.02
818.439	0.02
818.735	0.02
819.032	0.02
819.329	0.01
819.626	0.02
819.922	0.02
820.219	0.02
820.515	0.02
820.811	0.02
821.108	0.03
821.404	0.03
821.7	0.03
821.996	0.03
822.292	0.03
822.588	0.03
822.884	0.03
823.18	0.03
823.475	0.03
823.771	0.03
824.067	0.03
824.362	0.03
824.658	0.03
824.953	0.03
825.249	0.03
825.544	0.03
825.839	0.03
826.134	0.03
826.429	0.03
826.724	0.03
827.019	0.03
827.314	0.03
827.609	0.03
827.904	0.03
828.198	0.02
828.493	0.02
828.787	0.02
829.082	0.03
829.376	0.02
829.671	0.03
829.965	0.03
830.259	0.03
830.553	0.03
830.847	0.03
831.141	0.03
831.435	0.03
831.729	0.03
832.023	0.03
832.317	0.03
832.61	0.03
832.904	0.03
833.197	0.03
833.491	0.03
833.784	0.03
834.077	0.03
834.371	0.03
834.664	0.03
834.957	0.03
835.25	0.03
835.543	0.03
835.836	0.02
836.129	0.02
836.421	0.02
836.714	0.03
837.007	0.03
837.299	0.03
837.592	0.03
837.884	0.03
838.177	0.03
838.469	0.03
838.761	0.03
839.053	0.03
839.345	0.03
839.637	0.03
839.929	0.03
840.221	0.04
840.513	0.03
840.805	0.03
841.096	0.03
841.388	0.03
841.68	0.03
841.971	0.03
842.262	0.03
842.554	0.03
842.845	0.03
843.136	0.03
843.427	0.03
843.718	0.03
844.009	0.03
844.3	0.03
844.591	0.04
844.882	0.03
845.173	0.04
845.463	0.03
845.754	0.04
846.044	0.04
846.335	0.04
846.625	0.04
846.915	0.03
847.206	0.04
847.496	0.04
847.786	0.04
848.076	0.04
848.366	0.04
848.656	0.04
848.945	0.04
849.235	0.03
849.525	0.04
849.814	0.03
850.104	0.04
850.393	0.04
850.683	0.04
850.972	0.03
851.261	0.03
851.551	0.04
851.84	0.03
852.129	0.03
852.418	0.04
852.707	0.04
852.995	0.03
853.284	0.04
853.573	0.04
853.862	0.03
854.15	0.02
854.439	0.03
854.727	0.03
855.015	0.03
855.304	0.02
855.592	0.03
855.88	0.04
856.168	0.03
856.456	0.04
856.744	0.04
857.032	0.04
857.32	0.04
857.607	0.04
857.895	0.04
858.183	0.04
858.47	0.04
858.757	0.05
859.045	0.04
859.332	0.04
859.619	0.03
859.907	0.05
860.194	0.05
860.481	0.04
860.768	0.04
861.054	0.04
861.341	0.04
861.628	0.06
861.915	0.05
862.201	0.06
862.488	0.05
862.774	0.04
863.061	0.06
863.347	0.02
863.633	0.05
863.919	0.05
864.205	0.02
864.491	0.03
864.777	0.02
865.063	0.03
865.349	0.03
865.635	0.04
865.92	0.01
866.206	0.05
866.492	0.05
866.777	0.03
867.062	0.03
867.348	0.02
867.633	0.02
867.918	0.03
868.203	0.02
868.488	0.05
868.773	0.02
869.058	0.01
869.343	0.06
869.628	0.03
869.912	0.05
870.197	0.03
870.482	0.04
870.766	0.04
871.05	0.02
871.335	0.04
871.619	0.03
871.903	0.04
872.187	0.01
872.471	0.02
872.755	-0.01
873.039	0.02
873.323	0.03
873.607	0.01
873.89	0.05
874.174	0.02
874.458	-0.02
874.741	0.04
875.024	0.01
875.308	0.04
875.591	0.05
875.874	0.05
876.157	0.04
876.44	0.02
876.723	0.08
877.006	0.04
877.289	0.03
877.572	0.02
877.854	-0.01
878.137	-0.02
878.42	0.01
878.702	0.08
878.984	0.06
879.267	0.09
879.549	0.05
879.831	0.07
880.113	0.07
880.395	0.04
880.677	0.03
880.959	0.04
