Data from Rubpy_BV_1500_EDTA_Buffered_Absorbance_14-14-26-656.txt Node
Date: Wed Jul 01 14:14:26 BST 2026
User: fpm-admin
Spectrometer: OFX00224
Trigger mode: 0
Integration Time (sec): 7.000000E-2
Scans to average: 3
Nonlinearity correction enabled: false
Boxcar width: 0
Storing dark spectrum: false
XAxis mode: Wavelengths
Number of Pixels in Spectrum: 2136
>>>>>Begin Spectral Data<<<<<
154.91	0.38
155.289	-0
155.669	-0.7
156.048	-0.28
156.428	-0
156.807	-0
157.186	-0.24
157.566	0.2
157.945	0.57
158.325	-0.04
158.704	-0
159.083	-0
159.462	1.51
159.842	0.11
160.221	1.04
160.6	-0
160.979	-0.4
161.359	0.12
161.738	0.13
162.117	-0.11
162.496	-0.78
162.875	0.6
163.254	0.1
163.633	0.1
164.012	0.13
164.391	-0.06
164.77	0.03
165.149	-0.07
165.528	-0.64
165.907	-0.19
166.286	-0.26
166.665	1.1
167.044	0.28
167.423	0.4
167.802	-0
168.181	-0
168.559	0.25
168.938	0.04
169.317	1.4
169.696	-0.1
170.074	-0
170.453	0.26
170.832	0.13
171.21	0.05
171.589	-0.12
171.968	-0
172.346	0.07
172.725	-0
173.103	0.8
173.482	-0
173.861	0.02
174.239	-1.02
174.617	-0
174.996	0.38
175.374	0.04
175.753	-0.65
176.131	0.23
176.51	0.18
176.888	1.02
177.266	1.39
177.645	-0.09
178.023	1.17
178.401	-0.09
178.779	-0.16
179.158	0.28
179.536	-0.39
179.914	-0.2
180.292	0.27
180.67	-0
181.048	0.29
181.427	-0.04
181.805	-0.45
182.183	-0.71
182.561	0.01
182.939	-0
183.317	-0.4
183.695	0.41
184.073	0.2
184.451	-0
184.829	-0
185.206	-0
185.584	0.48
185.962	-0
186.34	0.64
186.718	-0
187.096	-0.48
187.473	-0.18
187.851	-0
188.229	-0.01
188.607	0.04
188.984	0.24
189.362	0.18
189.74	0.13
190.117	-0.03
190.495	0.05
190.872	0.21
191.25	0.07
191.627	-0.07
192.005	0.04
192.382	0.09
192.76	0.05
193.137	0.13
193.515	-0.03
193.892	-0
194.269	-0.04
194.647	0.13
195.024	-0.05
195.401	0.06
195.779	0.09
196.156	0.04
196.533	0.02
196.91	0.06
197.288	0.14
197.665	0.06
198.042	0.11
198.419	0.17
198.796	0.06
199.173	0.04
199.55	-0.02
199.927	0.17
200.304	0.2
200.681	0.04
201.058	0.06
201.435	0.12
201.812	0.16
202.189	0.08
202.566	0.04
202.943	0.02
203.32	0.02
203.697	0.13
204.073	0.08
204.45	0.09
204.827	0.15
205.204	0.01
205.58	0.02
205.957	0.12
206.334	-0.01
206.71	0.01
207.087	0.15
207.464	0.08
207.84	0.01
208.217	0.1
208.593	0.09
208.97	0.15
209.346	0.19
209.723	0.08
210.099	0.03
210.476	0.08
210.852	0.12
211.228	0.04
211.605	0.09
211.981	0.08
212.357	0.17
212.733	0.04
213.11	0.13
213.486	0.07
213.862	0.1
214.238	0.12
214.614	0.03
214.991	0.1
215.367	0.1
215.743	0.06
216.119	0.07
216.495	0.18
216.871	0.14
217.247	0.1
217.623	0.02
217.999	0.04
218.375	0.24
218.751	0.15
219.127	0.09
219.502	0.08
219.878	0.08
220.254	0.01
220.63	0.12
221.006	0.01
221.381	0.12
221.757	0.2
222.133	0.08
222.508	0.11
222.884	0.16
223.26	0.04
223.635	0.09
224.011	0.12
224.386	0.16
224.762	0.15
225.137	0.15
225.513	0.14
225.888	0.15
226.264	0.12
226.639	0.16
227.014	0.13
227.39	0.14
227.765	0.16
228.14	0.18
228.516	0.17
228.891	0.13
229.266	0.21
229.641	0.13
230.017	0.14
230.392	0.1
230.767	0.06
231.142	0.11
231.517	0.08
231.892	0.2
232.267	0.08
232.642	0.09
233.017	0.08
233.392	0.06
233.767	0.07
234.142	0.12
234.517	0.17
234.892	0.08
235.267	0.18
235.641	0.03
236.016	0.09
236.391	0.18
236.766	0.13
237.14	0.04
237.515	0.05
237.89	0.08
238.264	0.17
238.639	0.11
239.014	0.12
239.388	0.08
239.763	0.06
240.137	0.07
240.512	0.14
240.886	0.08
241.261	0.08
241.635	0.03
242.009	0.12
242.384	0.14
242.758	0.12
243.132	0.09
243.507	0.08
243.881	0.08
244.255	0.03
244.629	0.08
245.004	0.1
245.378	0.14
245.752	0.07
246.126	0.21
246.5	0.12
246.874	0.05
247.248	0.12
247.622	0.05
247.996	0.06
248.37	0.15
248.744	0.06
249.118	0.11
249.492	0.04
249.866	0.12
250.24	0.17
250.613	0.08
250.987	0.12
251.361	0.09
251.735	0.15
252.108	0.1
252.482	0
252.856	0.17
253.229	0.12
253.603	0.06
253.977	0.05
254.35	0.14
254.724	-0
255.097	0.09
255.471	0.17
255.844	0.08
256.218	0.12
256.591	0.16
256.964	0.03
257.338	0.12
257.711	0.06
258.084	0.12
258.458	0.08
258.831	0.11
259.204	0.13
259.577	0.12
259.95	0.07
260.323	0.1
260.697	0.07
261.07	0.09
261.443	0.13
261.816	0.12
262.189	0.16
262.562	0.12
262.935	0.1
263.308	0.07
263.68	0.04
264.053	0.11
264.426	0.06
264.799	0.07
265.172	0.14
265.545	0.14
265.917	0.04
266.29	0.07
266.663	0.09
267.035	0.07
267.408	0.12
267.781	0.13
268.153	0.08
268.526	0.12
268.898	0.09
269.271	0.05
269.643	0.06
270.016	0.09
270.388	0.21
270.76	0.06
271.133	0.11
271.505	0.15
271.877	0.07
272.25	0.13
272.622	0.16
272.994	0.13
273.366	0.13
273.739	0.19
274.111	0.12
274.483	0.08
274.855	0.09
275.227	0.08
275.599	0.03
275.971	0.12
276.343	0.16
276.715	0.12
277.087	0.22
277.459	0.05
277.831	0.14
278.203	0.13
278.574	0.12
278.946	0.08
279.318	0.11
279.69	0.08
280.061	0.13
280.433	0.11
280.805	0.04
281.176	0.09
281.548	0.16
281.92	0.12
282.291	0.12
282.663	0.12
283.034	0.07
283.406	0.1
283.777	0.1
284.148	0.14
284.52	0.15
284.891	0.09
285.262	0.16
285.634	0.08
286.005	0.12
286.376	0.1
286.747	0.07
287.119	0.07
287.49	0.12
287.861	0.07
288.232	0.11
288.603	0.05
288.974	0.1
289.345	0.09
289.716	0.05
290.087	0.13
290.458	0.12
290.829	0.04
291.2	0.06
291.571	0.07
291.941	0.12
292.312	0.05
292.683	0.12
293.054	0.15
293.424	0.15
293.795	0.08
294.166	0.1
294.536	0.11
294.907	0.15
295.277	0.12
295.648	0.11
296.018	0.06
296.389	0.11
296.759	0.12
297.13	0.08
297.5	0.14
297.871	0.13
298.241	0.09
298.611	0.16
298.981	0.16
299.352	0.12
299.722	0.12
300.092	0.12
300.462	0.05
300.832	0.12
301.202	0.12
301.573	0.09
301.943	0.07
302.313	0.09
302.683	0.14
303.053	0.14
303.422	0.13
303.792	0.13
304.162	0.1
304.532	0.11
304.902	0.07
305.272	0.09
305.641	0.09
306.011	0.09
306.381	0.07
306.75	0.1
307.12	0.1
307.49	0.08
307.859	0.11
308.229	0.11
308.598	0.11
308.968	0.08
309.337	0.08
309.707	0.1
310.076	0.08
310.445	0.1
310.815	0.11
311.184	0.08
311.553	0.06
311.923	0.08
312.292	0.07
312.661	0.08
313.03	0.08
313.399	0.07
313.768	0.09
314.137	0.08
314.506	0.07
314.875	0.08
315.244	0.09
315.613	0.08
315.982	0.1
316.351	0.08
316.72	0.1
317.089	0.09
317.458	0.09
317.826	0.08
318.195	0.09
318.564	0.09
318.933	0.09
319.301	0.09
319.67	0.1
320.038	0.09
320.407	0.1
320.775	0.09
321.144	0.1
321.512	0.1
321.881	0.1
322.249	0.11
322.618	0.1
322.986	0.11
323.354	0.11
323.723	0.11
324.091	0.1
324.459	0.11
324.827	0.11
325.195	0.12
325.564	0.1
325.932	0.11
326.3	0.11
326.668	0.11
327.036	0.12
327.404	0.12
327.772	0.12
328.14	0.12
328.508	0.11
328.875	0.13
329.243	0.14
329.611	0.12
329.979	0.14
330.346	0.13
330.714	0.13
331.082	0.13
331.449	0.13
331.817	0.14
332.185	0.14
332.552	0.15
332.92	0.15
333.287	0.15
333.655	0.15
334.022	0.15
334.389	0.16
334.757	0.16
335.124	0.16
335.491	0.16
335.859	0.16
336.226	0.17
336.593	0.17
336.96	0.17
337.327	0.18
337.695	0.18
338.062	0.19
338.429	0.18
338.796	0.19
339.163	0.19
339.53	0.19
339.897	0.2
340.263	0.2
340.63	0.21
340.997	0.22
341.364	0.22
341.731	0.21
342.097	0.22
342.464	0.22
342.831	0.22
343.197	0.23
343.564	0.24
343.931	0.24
344.297	0.24
344.664	0.25
345.03	0.25
345.396	0.25
345.763	0.26
346.129	0.26
346.496	0.27
346.862	0.27
347.228	0.27
347.594	0.28
347.961	0.28
348.327	0.28
348.693	0.29
349.059	0.29
349.425	0.29
349.791	0.3
350.157	0.3
350.523	0.3
350.889	0.31
351.255	0.31
351.621	0.31
351.987	0.32
352.353	0.33
352.719	0.33
353.084	0.33
353.45	0.34
353.816	0.34
354.181	0.34
354.547	0.35
354.913	0.35
355.278	0.36
355.644	0.37
356.009	0.37
356.375	0.37
356.74	0.38
357.106	0.39
357.471	0.39
357.836	0.4
358.202	0.4
358.567	0.4
358.932	0.41
359.297	0.41
359.663	0.42
360.028	0.43
360.393	0.44
360.758	0.44
361.123	0.44
361.488	0.45
361.853	0.46
362.218	0.47
362.583	0.47
362.948	0.48
363.312	0.47
363.677	0.48
364.042	0.49
364.407	0.49
364.772	0.5
365.136	0.5
365.501	0.51
365.865	0.52
366.23	0.53
366.595	0.52
366.959	0.53
367.324	0.54
367.688	0.54
368.052	0.54
368.417	0.55
368.781	0.55
369.145	0.56
369.51	0.57
369.874	0.57
370.238	0.58
370.602	0.58
370.967	0.58
371.331	0.59
371.695	0.59
372.059	0.6
372.423	0.6
372.787	0.6
373.151	0.59
373.515	0.6
373.878	0.59
374.242	0.59
374.606	0.59
374.97	0.58
375.334	0.58
375.697	0.57
376.061	0.56
376.425	0.56
376.788	0.56
377.152	0.56
377.515	0.55
377.879	0.54
378.242	0.54
378.606	0.53
378.969	0.52
379.333	0.52
379.696	0.52
380.059	0.51
380.422	0.5
380.786	0.51
381.149	0.5
381.512	0.49
381.875	0.49
382.238	0.49
382.601	0.48
382.964	0.47
383.327	0.47
383.69	0.48
384.053	0.47
384.416	0.46
384.779	0.46
385.142	0.46
385.504	0.46
385.867	0.46
386.23	0.46
386.593	0.46
386.955	0.46
387.318	0.46
387.68	0.47
388.043	0.46
388.405	0.47
388.768	0.48
389.13	0.47
389.493	0.47
389.855	0.47
390.217	0.46
390.58	0.46
390.942	0.46
391.304	0.46
391.666	0.45
392.028	0.44
392.391	0.44
392.753	0.44
393.115	0.43
393.477	0.43
393.839	0.43
394.201	0.42
394.563	0.42
394.924	0.42
395.286	0.42
395.648	0.43
396.01	0.43
396.371	0.44
396.733	0.44
397.095	0.45
397.456	0.46
397.818	0.47
398.18	0.49
398.541	0.5
398.903	0.51
399.264	0.53
399.625	0.53
399.987	0.55
400.348	0.56
400.709	0.57
401.071	0.58
401.432	0.58
401.793	0.58
402.154	0.57
402.515	0.57
402.876	0.56
403.238	0.55
403.599	0.54
403.96	0.51
404.32	0.5
404.681	0.48
405.042	0.47
405.403	0.44
405.764	0.42
406.125	0.4
406.485	0.38
406.846	0.36
407.207	0.34
407.567	0.32
407.928	0.3
408.288	0.28
408.649	0.27
409.009	0.25
409.37	0.24
409.73	0.22
410.091	0.21
410.451	0.2
410.811	0.18
411.171	0.18
411.532	0.17
411.892	0.17
412.252	0.15
412.612	0.15
412.972	0.14
413.332	0.13
413.692	0.13
414.052	0.12
414.412	0.12
414.772	0.11
415.132	0.11
415.492	0.1
415.851	0.1
416.211	0.1
416.571	0.1
416.931	0.09
417.29	0.09
417.65	0.09
418.009	0.09
418.369	0.09
418.728	0.08
419.088	0.08
419.447	0.08
419.807	0.07
420.166	0.08
420.525	0.07
420.884	0.07
421.244	0.07
421.603	0.07
421.962	0.07
422.321	0.07
422.68	0.07
423.039	0.06
423.398	0.06
423.757	0.06
424.116	0.06
424.475	0.06
424.834	0.06
425.193	0.06
425.551	0.06
425.91	0.06
426.269	0.06
426.628	0.06
426.986	0.06
427.345	0.05
427.703	0.05
428.062	0.05
428.42	0.05
428.779	0.05
429.137	0.05
429.496	0.04
429.854	0.05
430.212	0.05
430.57	0.05
430.929	0.05
431.287	0.04
431.645	0.04
432.003	0.05
432.361	0.04
432.719	0.05
433.077	0.04
433.435	0.04
433.793	0.05
434.151	0.05
434.509	0.05
434.866	0.05
435.224	0.04
435.582	0.05
435.94	0.05
436.297	0.04
436.655	0.04
437.012	0.04
437.37	0.05
437.727	0.04
438.085	0.05
438.442	0.04
438.8	0.04
439.157	0.04
439.514	0.05
439.872	0.04
440.229	0.05
440.586	0.04
440.943	0.05
441.3	0.04
441.657	0.04
442.014	0.05
442.371	0.05
442.728	0.04
443.085	0.05
443.442	0.05
443.799	0.04
444.156	0.03
444.513	0.04
444.869	0.04
445.226	0.04
445.583	0.05
445.939	0.04
446.296	0.05
446.652	0.05
447.009	0.04
447.365	0.04
447.722	0.05
448.078	0.04
448.434	0.04
448.791	0.05
449.147	0.04
449.503	0.05
449.859	0.05
450.215	0.05
450.571	0.05
450.928	0.04
451.284	0.05
451.64	0.05
451.995	0.03
452.351	0.05
452.707	0.06
453.063	0.05
453.419	0.05
453.775	0.05
454.13	0.05
454.486	0.06
454.842	0.05
455.197	0.05
455.553	0.05
455.908	0.04
456.264	0.05
456.619	0.05
456.975	0.04
457.33	0.05
457.685	0.04
458.04	0.04
458.396	0.05
458.751	0.05
459.106	0.05
459.461	0.04
459.816	0.04
460.171	0.05
460.526	0.05
460.881	0.05
461.236	0.05
461.591	0.06
461.946	0.04
462.301	0.05
462.655	0.06
463.01	0.05
463.365	0.05
463.719	0.05
464.074	0.05
464.428	0.04
464.783	0.05
465.137	0.05
465.492	0.05
465.846	0.04
466.201	0.05
466.555	0.05
466.909	0.05
467.263	0.04
467.618	0.05
467.972	0.05
468.326	0.05
468.68	0.06
469.034	0.05
469.388	0.06
469.742	0.05
470.096	0.05
470.45	0.05
470.804	0.06
471.157	0.05
471.511	0.05
471.865	0.06
472.218	0.07
472.572	0.06
472.926	0.06
473.279	0.06
473.633	0.06
473.986	0.06
474.34	0.07
474.693	0.07
475.046	0.07
475.4	0.07
475.753	0.07
476.106	0.08
476.459	0.08
476.812	0.08
477.165	0.08
477.519	0.08
477.872	0.08
478.224	0.08
478.577	0.09
478.93	0.08
479.283	0.08
479.636	0.09
479.989	0.09
480.341	0.08
480.694	0.09
481.047	0.09
481.399	0.09
481.752	0.1
482.104	0.09
482.457	0.1
482.809	0.1
483.162	0.1
483.514	0.1
483.866	0.1
484.219	0.1
484.571	0.11
484.923	0.11
485.275	0.11
485.627	0.1
485.979	0.11
486.331	0.11
486.683	0.11
487.035	0.11
487.387	0.11
487.739	0.11
488.091	0.12
488.443	0.12
488.794	0.12
489.146	0.11
489.498	0.12
489.849	0.12
490.201	0.12
490.552	0.12
490.904	0.12
491.255	0.12
491.607	0.12
491.958	0.13
492.309	0.13
492.661	0.13
493.012	0.13
493.363	0.13
493.714	0.13
494.065	0.14
494.416	0.14
494.767	0.14
495.118	0.13
495.469	0.14
495.82	0.14
496.171	0.14
496.522	0.14
496.872	0.14
497.223	0.15
497.574	0.14
497.924	0.15
498.275	0.15
498.626	0.15
498.976	0.15
499.327	0.15
499.677	0.15
500.027	0.15
500.378	0.15
500.728	0.16
501.078	0.16
501.428	0.16
501.779	0.16
502.129	0.16
502.479	0.16
502.829	0.16
503.179	0.17
503.529	0.16
503.879	0.16
504.229	0.17
504.578	0.17
504.928	0.17
505.278	0.17
505.628	0.17
505.977	0.17
506.327	0.17
506.676	0.18
507.026	0.18
507.375	0.18
507.725	0.18
508.074	0.18
508.424	0.18
508.773	0.19
509.122	0.18
509.471	0.19
509.82	0.18
510.17	0.18
510.519	0.19
510.868	0.19
511.217	0.19
511.566	0.19
511.915	0.19
512.263	0.19
512.612	0.19
512.961	0.2
513.31	0.2
513.659	0.2
514.007	0.2
514.356	0.2
514.704	0.2
515.053	0.21
515.401	0.21
515.75	0.21
516.098	0.21
516.447	0.21
516.795	0.21
517.143	0.21
517.491	0.21
517.839	0.21
518.188	0.21
518.536	0.21
518.884	0.22
519.232	0.21
519.58	0.21
519.928	0.21
520.275	0.21
520.623	0.21
520.971	0.22
521.319	0.22
521.666	0.22
522.014	0.22
522.362	0.22
522.709	0.22
523.057	0.22
523.404	0.22
523.752	0.23
524.099	0.23
524.446	0.23
524.794	0.23
525.141	0.23
525.488	0.23
525.835	0.23
526.182	0.23
526.529	0.23
526.876	0.23
527.223	0.23
527.57	0.23
527.917	0.23
528.264	0.24
528.611	0.24
528.958	0.24
529.304	0.24
529.651	0.24
529.998	0.24
530.344	0.24
530.691	0.24
531.037	0.24
531.384	0.24
531.73	0.24
532.076	0.24
532.423	0.24
532.769	0.25
533.115	0.25
533.461	0.25
533.807	0.24
534.154	0.25
534.5	0.25
534.846	0.25
535.192	0.25
535.537	0.25
535.883	0.25
536.229	0.25
536.575	0.25
536.921	0.25
537.266	0.26
537.612	0.25
537.957	0.25
538.303	0.26
538.649	0.25
538.994	0.26
539.339	0.25
539.685	0.26
540.03	0.26
540.375	0.26
540.721	0.26
541.066	0.25
541.411	0.26
541.756	0.26
542.101	0.26
542.446	0.26
542.791	0.26
543.136	0.26
543.481	0.26
543.825	0.26
544.17	0.26
544.515	0.26
544.86	0.27
545.204	0.27
545.549	0.27
545.893	0.27
546.238	0.27
546.582	0.27
546.927	0.27
547.271	0.27
547.615	0.27
547.96	0.27
548.304	0.27
548.648	0.27
548.992	0.27
549.336	0.27
549.68	0.27
550.024	0.28
550.368	0.27
550.712	0.27
551.056	0.27
551.4	0.27
551.743	0.27
552.087	0.27
552.431	0.27
552.774	0.27
553.118	0.27
553.462	0.27
553.805	0.27
554.148	0.27
554.492	0.27
554.835	0.27
555.178	0.27
555.522	0.27
555.865	0.27
556.208	0.28
556.551	0.27
556.894	0.28
557.237	0.28
557.58	0.28
557.923	0.27
558.266	0.28
558.609	0.27
558.952	0.27
559.294	0.28
559.637	0.27
559.98	0.27
560.322	0.27
560.665	0.28
561.007	0.28
561.35	0.27
561.692	0.27
562.034	0.28
562.377	0.27
562.719	0.27
563.061	0.27
563.403	0.27
563.745	0.28
564.088	0.28
564.43	0.27
564.772	0.28
565.113	0.27
565.455	0.28
565.797	0.27
566.139	0.27
566.481	0.27
566.822	0.28
567.164	0.27
567.506	0.27
567.847	0.27
568.189	0.27
568.53	0.27
568.872	0.27
569.213	0.27
569.554	0.27
569.895	0.27
570.237	0.27
570.578	0.27
570.919	0.27
571.26	0.26
571.601	0.26
571.942	0.27
572.283	0.26
572.624	0.26
572.965	0.26
573.306	0.26
573.646	0.26
573.987	0.26
574.328	0.26
574.668	0.26
575.009	0.26
575.349	0.26
575.69	0.25
576.03	0.25
576.37	0.25
576.711	0.25
577.051	0.25
577.391	0.25
577.731	0.25
578.072	0.25
578.412	0.25
578.752	0.25
579.092	0.25
579.431	0.24
579.771	0.22
580.111	0.21
580.451	0.22
580.791	0.24
581.13	0.25
581.47	0.25
581.81	0.25
582.149	0.24
582.489	0.24
582.828	0.24
583.167	0.21
583.507	0.18
583.846	0.17
584.185	0.19
584.525	0.21
584.864	0.23
585.203	0.25
585.542	0.25
585.881	0.25
586.22	0.25
586.559	0.24
586.898	0.23
587.236	0.22
587.575	0.22
587.914	0.23
588.252	0.24
588.591	0.24
588.93	0.24
589.268	0.24
589.607	0.24
589.945	0.24
590.283	0.24
590.622	0.24
590.96	0.25
591.298	0.25
591.636	0.25
591.974	0.25
592.313	0.25
592.651	0.25
592.989	0.25
593.326	0.25
593.664	0.25
594.002	0.25
594.34	0.25
594.678	0.24
595.015	0.24
595.353	0.23
595.691	0.24
596.028	0.25
596.366	0.25
596.703	0.25
597.04	0.25
597.378	0.25
597.715	0.25
598.052	0.25
598.389	0.25
598.726	0.26
599.064	0.25
599.401	0.25
599.738	0.25
600.074	0.25
600.411	0.25
600.748	0.25
601.085	0.24
601.422	0.24
601.758	0.24
602.095	0.24
602.432	0.24
602.768	0.24
603.105	0.25
603.441	0.25
603.777	0.25
604.114	0.25
604.45	0.25
604.786	0.25
605.122	0.25
605.459	0.25
605.795	0.25
606.131	0.24
606.467	0.25
606.803	0.25
607.139	0.25
607.474	0.24
607.81	0.24
608.146	0.25
608.482	0.24
608.817	0.24
609.153	0.24
609.488	0.24
609.824	0.24
610.159	0.24
610.495	0.24
610.83	0.24
611.165	0.24
611.5	0.24
611.836	0.24
612.171	0.24
612.506	0.24
612.841	0.24
613.176	0.24
613.511	0.24
613.845	0.24
614.18	0.24
614.515	0.24
614.85	0.24
615.184	0.23
615.519	0.23
615.854	0.23
616.188	0.23
616.523	0.23
616.857	0.23
617.191	0.23
617.526	0.23
617.86	0.23
618.194	0.23
618.528	0.23
618.862	0.23
619.196	0.23
619.53	0.23
619.864	0.23
620.198	0.23
620.532	0.23
620.866	0.23
621.2	0.23
621.533	0.22
621.867	0.22
622.201	0.22
622.534	0.22
622.868	0.22
623.201	0.22
623.534	0.22
623.868	0.22
624.201	0.21
624.534	0.22
624.868	0.22
625.201	0.22
625.534	0.21
625.867	0.21
626.2	0.21
626.533	0.21
626.865	0.21
627.198	0.21
627.531	0.21
627.864	0.21
628.196	0.21
628.529	0.2
628.862	0.2
629.194	0.2
629.527	0.2
629.859	0.2
630.191	0.2
630.524	0.2
630.856	0.2
631.188	0.2
631.52	0.2
631.852	0.19
632.184	0.19
632.516	0.19
632.848	0.19
633.18	0.19
633.512	0.19
633.844	0.19
634.175	0.19
634.507	0.19
634.839	0.18
635.17	0.18
635.502	0.18
635.833	0.18
636.165	0.18
636.496	0.18
636.827	0.17
637.159	0.18
637.49	0.17
637.821	0.17
638.152	0.17
638.483	0.17
638.814	0.17
639.145	0.17
639.476	0.17
639.807	0.17
640.137	0.16
640.468	0.16
640.799	0.16
641.129	0.16
641.46	0.16
641.791	0.16
642.121	0.16
642.451	0.16
642.782	0.16
643.112	0.16
643.442	0.15
643.773	0.15
644.103	0.15
644.433	0.15
644.763	0.15
645.093	0.15
645.423	0.15
645.753	0.15
646.082	0.14
646.412	0.15
646.742	0.14
647.072	0.15
647.401	0.15
647.731	0.14
648.06	0.14
648.39	0.14
648.719	0.14
649.048	0.14
649.378	0.14
649.707	0.14
650.036	0.14
650.365	0.14
650.694	0.14
651.023	0.14
651.352	0.14
651.681	0.14
652.01	0.14
652.339	0.13
652.668	0.13
652.996	0.13
653.325	0.14
653.654	0.13
653.982	0.14
654.311	0.14
654.639	0.13
654.967	0.14
655.296	0.13
655.624	0.13
655.952	0.13
656.28	0.14
656.609	0.13
656.937	0.13
657.265	0.13
657.593	0.03
657.92	0
658.248	0
658.576	0
658.904	0.01
659.231	0.08
659.559	0.12
659.887	0.13
660.214	0.13
660.542	0.13
660.869	0.13
661.196	0.13
661.524	0.12
661.851	0.13
662.178	0.12
662.505	0.13
662.832	0.12
663.159	0.13
663.486	0.13
663.813	0.13
664.14	0.12
664.467	0.12
664.794	0.12
665.12	0.12
665.447	0.12
665.774	0.12
666.1	0.12
666.427	0.12
666.753	0.12
667.079	0.12
667.406	0.12
667.732	0.11
668.058	0.12
668.384	0.11
668.71	0.11
669.036	0.11
669.362	0.11
669.688	0.11
670.014	0.11
670.34	0.11
670.666	0.11
670.991	0.11
671.317	0.11
671.643	0.11
671.968	0.11
672.294	0.11
672.619	0.11
672.945	0.11
673.27	0.1
673.595	0.1
673.92	0.1
674.246	0.1
674.571	0.1
674.896	0.1
675.221	0.1
675.546	0.1
675.87	0.1
676.195	0.1
676.52	0.1
676.845	0.1
677.169	0.09
677.494	0.09
677.819	0.09
678.143	0.09
678.468	0.09
678.792	0.09
679.116	0.09
679.44	0.09
679.765	0.08
680.089	0.09
680.413	0.09
680.737	0.09
681.061	0.08
681.385	0.08
681.709	0.08
682.033	0.08
682.356	0.08
682.68	0.08
683.004	0.08
683.327	0.08
683.651	0.07
683.974	0.08
684.298	0.08
684.621	0.08
684.944	0.07
685.268	0.07
685.591	0.07
685.914	0.07
686.237	0.07
686.56	0.07
686.883	0.07
687.206	0.06
687.529	0.06
687.852	0.06
688.175	0.06
688.497	0.06
688.82	0.06
689.142	0.06
689.465	0.06
689.787	0.06
690.11	0.06
690.432	0.06
690.755	0.06
691.077	0.06
691.399	0.06
691.721	0.05
692.043	0.05
692.365	0.06
692.687	0.05
693.009	0.05
693.331	0.05
693.653	0.05
693.974	0.05
694.296	0.05
694.618	0.05
694.939	0.05
695.261	0.05
695.582	0.05
695.904	0.05
696.225	0.05
696.546	0.05
696.868	0.05
697.189	0.05
697.51	0.05
697.831	0.05
698.152	0.05
698.473	0.04
698.794	0.04
699.114	0.04
699.435	0.03
699.756	0.03
700.077	0.04
700.397	0.04
700.718	0.04
701.038	0.04
701.359	0.04
701.679	0.04
701.999	0.04
702.32	0.04
702.64	0.04
702.96	0.04
703.28	0.04
703.6	0.04
703.92	0.04
704.24	0.03
704.56	0.03
704.879	0.03
705.199	0.03
705.519	0.03
705.838	0.04
706.158	0.04
706.478	0.04
706.797	0.04
707.116	0.04
707.436	0.04
707.755	0.04
708.074	0.04
708.393	0.03
708.712	0.03
709.031	0.02
709.35	0.02
709.669	0.02
709.988	0.02
710.307	0.03
710.626	0.03
710.944	0.03
711.263	0.03
711.582	0.03
711.9	0.04
712.219	0.03
712.537	0.03
712.855	0.04
713.174	0.03
713.492	0.03
713.81	0.03
714.128	0.03
714.446	0.04
714.764	0.03
715.082	0.03
715.4	0.03
715.718	0.03
716.035	0.03
716.353	0.03
716.671	0.03
716.988	0.03
717.306	0.03
717.623	0.03
717.941	0.04
718.258	0.04
718.575	0.04
718.893	0.04
719.21	0.03
719.527	0.04
719.844	0.03
720.161	0.04
720.478	0.03
720.795	0.04
721.112	0.04
721.428	0.04
721.745	0.04
722.062	0.04
722.378	0.04
722.695	0.04
723.011	0.04
723.328	0.04
723.644	0.04
723.96	0.04
724.276	0.04
724.593	0.04
724.909	0.04
725.225	0.04
725.541	0.04
725.857	0.04
726.173	0.04
726.488	0.04
726.804	0.04
727.12	0.04
727.435	0.04
727.751	0.04
728.067	0.04
728.382	0.04
728.697	0.04
729.013	0.05
729.328	0.04
729.643	0.04
729.958	0.04
730.273	0.04
730.588	0.04
730.903	0.04
731.218	0.04
731.533	0.04
731.848	0.04
732.163	0.04
732.477	0.04
732.792	0.04
733.107	0.04
733.421	0.04
733.736	0.04
734.05	0.04
734.364	0.04
734.678	0.04
734.993	0.04
735.307	0.04
735.621	0.04
735.935	0.04
736.249	0.04
736.563	0.04
736.877	0.04
737.19	0.04
737.504	0.04
737.818	0.04
738.131	0.04
738.445	0.04
738.758	0.04
739.072	0.04
739.385	0.04
739.698	0.04
740.012	0.04
740.325	0.04
740.638	0.04
740.951	0.03
741.264	0.03
741.577	0.03
741.89	0.03
742.203	0.03
742.515	0.03
742.828	0.03
743.141	0.03
743.453	0.03
743.766	0.03
744.078	0.03
744.391	0.03
744.703	0.03
745.015	0.03
745.327	0.03
745.639	0.03
745.952	0.03
746.264	0.03
746.575	0.03
746.887	0.03
747.199	0.03
747.511	0.03
747.823	0.03
748.134	0.03
748.446	0.03
748.757	0.03
749.069	0.03
749.38	0.03
749.692	0.03
750.003	0.03
750.314	0.03
750.625	0.03
750.936	0.03
751.248	0.03
751.559	0.03
751.869	0.03
752.18	0.03
752.491	0.03
752.802	0.03
753.112	0.03
753.423	0.03
753.734	0.03
754.044	0.03
754.355	0.03
754.665	0.03
754.975	0.03
755.285	0.03
755.596	0.02
755.906	0.02
756.216	0.02
756.526	0.02
756.836	0.03
757.146	0.02
757.455	0.02
757.765	0.02
758.075	0.02
758.385	0.02
758.694	0.02
759.004	0.02
759.313	0.02
759.622	0.02
759.932	0.02
760.241	0.02
760.55	0.02
760.859	0.02
761.168	0.01
761.477	0.02
761.786	0.02
762.095	0.01
762.404	0.01
762.713	0.01
763.021	0.01
763.33	0.02
763.639	0.01
763.947	0.01
764.256	0.01
764.564	0.02
764.872	0.01
765.181	0.02
765.489	0.02
765.797	0.02
766.105	0.02
766.413	0.02
766.721	0.02
767.029	0.02
767.337	0.02
767.644	0.02
767.952	0.01
768.26	0.01
768.567	0.01
768.875	0.01
769.182	0.01
769.49	0.01
769.797	0.01
770.104	0.02
770.411	0.01
770.718	0.01
771.026	0.01
771.333	0.02
771.639	0.02
771.946	0.02
772.253	0.02
772.56	0.02
772.867	0.02
773.173	0.02
773.48	0.02
773.786	0.02
774.093	0.02
774.399	0.02
774.705	0.02
775.012	0.02
775.318	0.02
775.624	0.02
775.93	0.02
776.236	0.02
776.542	0.02
776.848	0.02
777.154	0.02
777.459	0.02
777.765	0.02
778.071	0.02
778.376	0.02
778.682	0.01
778.987	0.01
779.292	0.02
779.598	0.01
779.903	0.02
780.208	0.02
780.513	0.02
780.818	0.02
781.123	0.02
781.428	0.02
781.733	0.02
782.038	0.02
782.343	0.02
782.647	0.02
782.952	0.02
783.256	0.02
783.561	0.02
783.865	0.02
784.17	0.02
784.474	0.02
784.778	0.02
785.082	0.02
785.386	0.02
785.69	0.02
785.994	0.02
786.298	0.02
786.602	0.02
786.906	0.02
787.209	0.02
787.513	0.02
787.817	0.02
788.12	0.02
788.424	0.02
788.727	0.02
789.03	0.02
789.333	0.02
789.637	0.02
789.94	0.02
790.243	0.02
790.546	0.02
790.849	0.01
791.152	0.02
791.454	0.02
791.757	0.02
792.06	0.02
792.362	0.02
792.665	0.01
792.967	0.01
793.27	0.01
793.572	0.01
793.874	0.02
794.177	0.02
794.479	0.02
794.781	0.02
795.083	0.01
795.385	0.02
795.687	0.01
795.989	0.02
796.29	0.02
796.592	0.02
796.894	0.02
797.195	0.02
797.497	0.02
797.798	0.02
798.1	0.02
798.401	0.02
798.702	0.01
799.003	0.02
799.304	0.02
799.605	0.01
799.906	0.02
800.207	0.01
800.508	0.02
800.809	0.02
801.11	0.01
801.41	0.02
801.711	0.02
802.011	0.02
802.312	0.02
802.612	0.02
802.913	0.02
803.213	0.02
803.513	0.02
803.813	0.02
804.113	0.02
804.413	0.01
804.713	0.01
805.013	0.02
805.313	0.02
805.613	0.02
805.912	0.02
806.212	0.02
806.511	0.02
806.811	0.02
807.11	0.01
807.41	0.02
807.709	0.02
808.008	0.02
808.307	0.02
808.606	0.02
808.905	0.02
809.204	0.03
809.503	0.03
809.802	0.02
810.101	0.02
810.399	0.02
810.698	0.02
810.997	0.02
811.295	0.02
811.593	0.02
811.892	0.02
812.19	0.02
812.488	0.02
812.786	0.02
813.084	0.02
813.383	0.02
813.68	0.02
813.978	0.02
814.276	0.02
814.574	0.02
814.872	0.02
815.169	0.02
815.467	0.02
815.764	0.02
816.062	0.02
816.359	0.02
816.656	0.02
816.954	0.02
817.251	0.02
817.548	0.02
817.845	0.02
818.142	0.02
818.439	0.02
818.735	0.02
819.032	0.02
819.329	0.02
819.626	0.02
819.922	0.02
820.219	0.02
820.515	0.02
820.811	0.02
821.108	0.02
821.404	0.03
821.7	0.03
821.996	0.03
822.292	0.03
822.588	0.03
822.884	0.03
823.18	0.03
823.475	0.03
823.771	0.03
824.067	0.03
824.362	0.03
824.658	0.03
824.953	0.03
825.249	0.02
825.544	0.03
825.839	0.03
826.134	0.03
826.429	0.03
826.724	0.03
827.019	0.03
827.314	0.03
827.609	0.03
827.904	0.03
828.198	0.02
828.493	0.02
828.787	0.03
829.082	0.03
829.376	0.02
829.671	0.03
829.965	0.03
830.259	0.03
830.553	0.03
830.847	0.02
831.141	0.03
831.435	0.03
831.729	0.03
832.023	0.02
832.317	0.03
832.61	0.03
832.904	0.02
833.197	0.03
833.491	0.03
833.784	0.03
834.077	0.03
834.371	0.03
834.664	0.03
834.957	0.03
835.25	0.03
835.543	0.02
835.836	0.02
836.129	0.02
836.421	0.02
836.714	0.03
837.007	0.02
837.299	0.04
837.592	0.03
837.884	0.03
838.177	0.03
838.469	0.03
838.761	0.03
839.053	0.03
839.345	0.03
839.637	0.03
839.929	0.03
840.221	0.03
840.513	0.03
840.805	0.03
841.096	0.03
841.388	0.03
841.68	0.03
841.971	0.02
842.262	0.03
842.554	0.02
842.845	0.02
843.136	0.03
843.427	0.03
843.718	0.03
844.009	0.03
844.3	0.03
844.591	0.03
844.882	0.03
845.173	0.03
845.463	0.03
845.754	0.04
846.044	0.04
846.335	0.04
846.625	0.04
846.915	0.04
847.206	0.03
847.496	0.04
847.786	0.03
848.076	0.04
848.366	0.04
848.656	0.03
848.945	0.03
849.235	0.03
849.525	0.03
849.814	0.04
850.104	0.03
850.393	0.04
850.683	0.04
850.972	0.02
851.261	0.03
851.551	0.04
851.84	0.03
852.129	0.04
852.418	0.03
852.707	0.04
852.995	0.03
853.284	0.03
853.573	0.03
853.862	0.03
854.15	0.02
854.439	0.03
854.727	0.03
855.015	0.03
855.304	0.03
855.592	0.04
855.88	0.04
856.168	0.04
856.456	0.04
856.744	0.05
857.032	0.04
857.32	0.04
857.607	0.04
857.895	0.04
858.183	0.03
858.47	0.03
858.757	0.04
859.045	0.05
859.332	0.05
859.619	0.04
859.907	0.05
860.194	0.05
860.481	0.04
860.768	0.04
861.054	0.05
861.341	0.04
861.628	0.05
861.915	0.04
862.201	0.05
862.488	0.05
862.774	0.03
863.061	0.03
863.347	0.01
863.633	0.04
863.919	0.05
864.205	0.02
864.491	0.02
864.777	0.04
865.063	0.04
865.349	0.05
865.635	0.03
865.92	0.03
866.206	0.04
866.492	0.05
866.777	0.03
867.062	0.04
867.348	0.03
867.633	0.03
867.918	0.05
868.203	0.05
868.488	0.03
868.773	0.03
869.058	0.05
869.343	0.03
869.628	0.01
869.912	0.04
870.197	0.05
870.482	0.04
870.766	0.02
871.05	0.02
871.335	0.05
871.619	0
871.903	0.04
872.187	0.03
872.471	0
872.755	-0.01
873.039	0.02
873.323	0.03
873.607	0.02
873.89	0.07
874.174	0.02
874.458	0.05
874.741	0.05
875.024	0.04
875.308	0.02
875.591	0.09
875.874	0.03
876.157	0.06
876.44	0.05
876.723	0.02
877.006	0.01
877.289	0.03
877.572	0.04
877.854	0.02
878.137	-0.04
878.42	0.01
878.702	0.04
878.984	0.02
879.267	0.05
879.549	0.01
879.831	0.02
880.113	0.15
880.395	0.03
880.677	0.06
880.959	-0.01
