Data from Rubpy_BV_1500_EDTA_Buffered_Absorbance_14-16-36-626.txt Node
Date: Wed Jul 01 14:16:36 BST 2026
User: fpm-admin
Spectrometer: OFX00224
Trigger mode: 0
Integration Time (sec): 7.000000E-2
Scans to average: 3
Nonlinearity correction enabled: false
Boxcar width: 0
Storing dark spectrum: false
XAxis mode: Wavelengths
Number of Pixels in Spectrum: 2136
>>>>>Begin Spectral Data<<<<<
154.91	-0
155.289	1.52
155.669	-0.4
156.048	0.07
156.428	0.15
156.807	-0
157.186	-0.46
157.566	0.17
157.945	-0
158.325	0.39
158.704	-0
159.083	-0
159.462	-0
159.842	-0
160.221	-0.26
160.6	-1.28
160.979	-0.32
161.359	0.19
161.738	0.03
162.117	-0
162.496	-0.07
162.875	0.04
163.254	-0
163.633	-0
164.012	-0
164.391	0.11
164.77	0.64
165.149	-0
165.528	0.1
165.907	-0
166.286	-0.11
166.665	0.1
167.044	-0
167.423	-0.32
167.802	-0
168.181	-0
168.559	0.25
168.938	0.69
169.317	0.14
169.696	0.57
170.074	-0
170.453	0.65
170.832	-0
171.21	0.05
171.589	-0.3
171.968	-0.44
172.346	-0
172.725	-0
173.103	-0
173.482	-1.38
173.861	-0.1
174.239	-0
174.617	0.29
174.996	0.51
175.374	0.13
175.753	0.1
176.131	-0
176.51	0.39
176.888	-0
177.266	-0
177.645	-0.01
178.023	-0
178.401	-0.26
178.779	0.13
179.158	0.34
179.536	0.37
179.914	0.12
180.292	0.35
180.67	-0.9
181.048	0.59
181.427	-0.26
181.805	-0.26
182.183	-0
182.561	0.58
182.939	-0
183.317	0.16
183.695	0.08
184.073	-0
184.451	-0.65
184.829	-0
185.206	-0
185.584	0.72
185.962	-0
186.34	-0
186.718	-0.3
187.096	-0.37
187.473	-0.3
187.851	-0.3
188.229	0.43
188.607	0.1
188.984	0.18
189.362	0.16
189.74	0.13
190.117	0.01
190.495	-0.04
190.872	0.21
191.25	0.17
191.627	0.01
192.005	0.09
192.382	0.14
192.76	0.14
193.137	0.13
193.515	0.06
193.892	0.11
194.269	0.07
194.647	0.16
195.024	0.08
195.401	0.15
195.779	0.19
196.156	0.08
196.533	0.14
196.91	0.15
197.288	0.16
197.665	0.13
198.042	0.12
198.419	0.13
198.796	0.09
199.173	0.12
199.55	0.12
199.927	0.09
200.304	0.22
200.681	0.13
201.058	0.22
201.435	0.12
201.812	0.24
202.189	0.08
202.566	0.11
202.943	0.02
203.32	0.13
203.697	0.08
204.073	0.04
204.45	0.03
204.827	0.3
205.204	0.05
205.58	0.1
205.957	0.08
206.334	0.12
206.71	0.07
207.087	0.21
207.464	0.09
207.84	0.1
208.217	0.21
208.593	0.11
208.97	0.11
209.346	0.25
209.723	0.16
210.099	0.08
210.476	0.12
210.852	0.16
211.228	0.08
211.605	0.16
211.981	0.18
212.357	0.14
212.733	-0
213.11	0.12
213.486	0.06
213.862	0.11
214.238	0.25
214.614	0.06
214.991	0.07
215.367	0.01
215.743	0.13
216.119	0.16
216.495	0.22
216.871	0.12
217.247	0.07
217.623	0.04
217.999	0.07
218.375	0.16
218.751	0.21
219.127	0.21
219.502	0.04
219.878	0.19
220.254	0.09
220.63	0.19
221.006	0.13
221.381	0.13
221.757	0.26
222.133	0.16
222.508	0.12
222.884	0.22
223.26	0.1
223.635	0.16
224.011	0.17
224.386	0.24
224.762	0.21
225.137	0.22
225.513	0.17
225.888	0.19
226.264	0.16
226.639	0.13
227.014	0.2
227.39	0.11
227.765	0.18
228.14	0.11
228.516	0.12
228.891	0.22
229.266	0.24
229.641	0.23
230.017	0.16
230.392	0.23
230.767	0.2
231.142	0.1
231.517	0.12
231.892	0.16
232.267	0.16
232.642	0.1
233.017	0.12
233.392	0.1
233.767	0.17
234.142	0.2
234.517	0.28
234.892	0.16
235.267	0.25
235.641	0.03
236.016	0.15
236.391	0.27
236.766	0.19
237.14	0.16
237.515	0.12
237.89	0.15
238.264	0.11
238.639	0.12
239.014	0.11
239.388	0.08
239.763	0.11
240.137	0.08
240.512	0.11
240.886	0.12
241.261	0.14
241.635	0.11
242.009	0.23
242.384	0.25
242.758	0.19
243.132	0.04
243.507	0.17
243.881	0.12
244.255	0.16
244.629	0.16
245.004	0.1
245.378	0.22
245.752	0.14
246.126	0.27
246.5	0.09
246.874	0.05
247.248	0.13
247.622	0.04
247.996	0.09
248.37	0.18
248.744	0.15
249.118	0.15
249.492	0.21
249.866	0.13
250.24	0.12
250.613	0.14
250.987	0.16
251.361	0.09
251.735	0.17
252.108	0.18
252.482	0.11
252.856	0.17
253.229	0.15
253.603	0.21
253.977	0.13
254.35	0.17
254.724	0.12
255.097	0.14
255.471	0.17
255.844	0.11
256.218	0.1
256.591	0.22
256.964	0.13
257.338	0.08
257.711	0.15
258.084	0.17
258.458	0.11
258.831	0.25
259.204	0.11
259.577	0.17
259.95	0.16
260.323	0.11
260.697	0.17
261.07	0.11
261.443	0.17
261.816	0.15
262.189	0.18
262.562	0.12
262.935	0.16
263.308	0.1
263.68	0.15
264.053	0.19
264.426	0.13
264.799	0.2
265.172	0.12
265.545	0.12
265.917	0.14
266.29	0.18
266.663	0.19
267.035	0.12
267.408	0.11
267.781	0.19
268.153	0.23
268.526	0.22
268.898	0.24
269.271	0.16
269.643	0.12
270.016	0.17
270.388	0.2
270.76	0.14
271.133	0.14
271.505	0.21
271.877	0.14
272.25	0.2
272.622	0.21
272.994	0.21
273.366	0.11
273.739	0.16
274.111	0.2
274.483	0.23
274.855	0.25
275.227	0.21
275.599	0.08
275.971	0.14
276.343	0.1
276.715	0.16
277.087	0.17
277.459	0.15
277.831	0.16
278.203	0.18
278.574	0.18
278.946	0.18
279.318	0.23
279.69	0.13
280.061	0.21
280.433	0.15
280.805	0.14
281.176	0.27
281.548	0.21
281.92	0.12
282.291	0.17
282.663	0.17
283.034	0.15
283.406	0.15
283.777	0.12
284.148	0.17
284.52	0.26
284.891	0.12
285.262	0.26
285.634	0.14
286.005	0.22
286.376	0.21
286.747	0.12
287.119	0.17
287.49	0.17
287.861	0.16
288.232	0.21
288.603	0.16
288.974	0.22
289.345	0.14
289.716	0.11
290.087	0.18
290.458	0.2
290.829	0.16
291.2	0.2
291.571	0.21
291.941	0.12
292.312	0.18
292.683	0.21
293.054	0.2
293.424	0.13
293.795	0.13
294.166	0.12
294.536	0.2
294.907	0.2
295.277	0.21
295.648	0.16
296.018	0.13
296.389	0.15
296.759	0.15
297.13	0.19
297.5	0.14
297.871	0.18
298.241	0.15
298.611	0.27
298.981	0.22
299.352	0.16
299.722	0.2
300.092	0.18
300.462	0.1
300.832	0.19
301.202	0.13
301.573	0.17
301.943	0.17
302.313	0.18
302.683	0.2
303.053	0.2
303.422	0.22
303.792	0.18
304.162	0.2
304.532	0.19
304.902	0.1
305.272	0.16
305.641	0.15
306.011	0.18
306.381	0.13
306.75	0.17
307.12	0.13
307.49	0.15
307.859	0.15
308.229	0.17
308.598	0.16
308.968	0.14
309.337	0.13
309.707	0.12
310.076	0.12
310.445	0.13
310.815	0.13
311.184	0.13
311.553	0.11
311.923	0.1
312.292	0.12
312.661	0.12
313.03	0.14
313.399	0.14
313.768	0.14
314.137	0.11
314.506	0.13
314.875	0.12
315.244	0.13
315.613	0.14
315.982	0.15
316.351	0.12
316.72	0.15
317.089	0.15
317.458	0.16
317.826	0.14
318.195	0.14
318.564	0.14
318.933	0.14
319.301	0.15
319.67	0.16
320.038	0.15
320.407	0.16
320.775	0.16
321.144	0.16
321.512	0.17
321.881	0.17
322.249	0.17
322.618	0.18
322.986	0.18
323.354	0.17
323.723	0.17
324.091	0.18
324.459	0.18
324.827	0.18
325.195	0.19
325.564	0.18
325.932	0.19
326.3	0.19
326.668	0.2
327.036	0.2
327.404	0.2
327.772	0.2
328.14	0.21
328.508	0.21
328.875	0.21
329.243	0.21
329.611	0.21
329.979	0.22
330.346	0.22
330.714	0.22
331.082	0.23
331.449	0.22
331.817	0.24
332.185	0.23
332.552	0.25
332.92	0.25
333.287	0.25
333.655	0.25
334.022	0.27
334.389	0.26
334.757	0.27
335.124	0.27
335.491	0.28
335.859	0.29
336.226	0.29
336.593	0.3
336.96	0.3
337.327	0.31
337.695	0.31
338.062	0.32
338.429	0.32
338.796	0.33
339.163	0.34
339.53	0.34
339.897	0.35
340.263	0.35
340.63	0.36
340.997	0.37
341.364	0.37
341.731	0.37
342.097	0.39
342.464	0.39
342.831	0.39
343.197	0.4
343.564	0.42
343.931	0.41
344.297	0.41
344.664	0.44
345.03	0.43
345.396	0.44
345.763	0.46
346.129	0.45
346.496	0.46
346.862	0.46
347.228	0.47
347.594	0.48
347.961	0.49
348.327	0.49
348.693	0.5
349.059	0.5
349.425	0.51
349.791	0.52
350.157	0.53
350.523	0.52
350.889	0.53
351.255	0.54
351.621	0.54
351.987	0.55
352.353	0.56
352.719	0.57
353.084	0.57
353.45	0.58
353.816	0.59
354.181	0.59
354.547	0.6
354.913	0.61
355.278	0.62
355.644	0.62
356.009	0.64
356.375	0.64
356.74	0.66
357.106	0.66
357.471	0.67
357.836	0.67
358.202	0.68
358.567	0.69
358.932	0.7
359.297	0.71
359.663	0.72
360.028	0.73
360.393	0.74
360.758	0.75
361.123	0.76
361.488	0.78
361.853	0.78
362.218	0.8
362.583	0.81
362.948	0.8
363.312	0.82
363.677	0.82
364.042	0.83
364.407	0.85
364.772	0.87
365.136	0.86
365.501	0.87
365.865	0.88
366.23	0.89
366.595	0.89
366.959	0.9
367.324	0.91
367.688	0.92
368.052	0.93
368.417	0.93
368.781	0.94
369.145	0.95
369.51	0.95
369.874	0.97
370.238	0.98
370.602	0.98
370.967	0.98
371.331	0.99
371.695	0.99
372.059	1
372.423	1
372.787	1
373.151	1
373.515	0.98
373.878	0.98
374.242	0.98
374.606	0.99
374.97	0.97
375.334	0.97
375.697	0.96
376.061	0.96
376.425	0.94
376.788	0.93
377.152	0.93
377.515	0.92
377.879	0.91
378.242	0.9
378.606	0.89
378.969	0.87
379.333	0.87
379.696	0.86
380.059	0.85
380.422	0.84
380.786	0.83
381.149	0.82
381.512	0.81
381.875	0.8
382.238	0.8
382.601	0.78
382.964	0.78
383.327	0.77
383.69	0.76
384.053	0.76
384.416	0.75
384.779	0.74
385.142	0.74
385.504	0.74
385.867	0.74
386.23	0.73
386.593	0.73
386.955	0.73
387.318	0.73
387.68	0.73
388.043	0.73
388.405	0.73
388.768	0.73
389.13	0.73
389.493	0.72
389.855	0.71
390.217	0.71
390.58	0.72
390.942	0.7
391.304	0.7
391.666	0.69
392.028	0.68
392.391	0.68
392.753	0.67
393.115	0.66
393.477	0.65
393.839	0.64
394.201	0.64
394.563	0.63
394.924	0.63
395.286	0.63
395.648	0.64
396.01	0.64
396.371	0.65
396.733	0.66
397.095	0.67
397.456	0.69
397.818	0.7
398.18	0.71
398.541	0.73
398.903	0.75
399.264	0.77
399.625	0.79
399.987	0.81
400.348	0.82
400.709	0.83
401.071	0.84
401.432	0.84
401.793	0.85
402.154	0.84
402.515	0.82
402.876	0.81
403.238	0.8
403.599	0.77
403.96	0.75
404.32	0.73
404.681	0.7
405.042	0.68
405.403	0.65
405.764	0.62
406.125	0.59
406.485	0.55
406.846	0.52
407.207	0.5
407.567	0.47
407.928	0.45
408.288	0.42
408.649	0.4
409.009	0.37
409.37	0.35
409.73	0.33
410.091	0.31
410.451	0.3
410.811	0.28
411.171	0.27
411.532	0.25
411.892	0.24
412.252	0.23
412.612	0.23
412.972	0.21
413.332	0.2
413.692	0.2
414.052	0.19
414.412	0.18
414.772	0.17
415.132	0.17
415.492	0.16
415.851	0.16
416.211	0.16
416.571	0.14
416.931	0.14
417.29	0.14
417.65	0.13
418.009	0.14
418.369	0.13
418.728	0.12
419.088	0.12
419.447	0.12
419.807	0.11
420.166	0.11
420.525	0.11
420.884	0.11
421.244	0.11
421.603	0.11
421.962	0.1
422.321	0.1
422.68	0.1
423.039	0.1
423.398	0.1
423.757	0.1
424.116	0.09
424.475	0.1
424.834	0.1
425.193	0.09
425.551	0.09
425.91	0.09
426.269	0.09
426.628	0.09
426.986	0.09
427.345	0.09
427.703	0.09
428.062	0.08
428.42	0.08
428.779	0.08
429.137	0.09
429.496	0.08
429.854	0.08
430.212	0.08
430.57	0.08
430.929	0.07
431.287	0.07
431.645	0.08
432.003	0.08
432.361	0.07
432.719	0.08
433.077	0.07
433.435	0.07
433.793	0.07
434.151	0.08
434.509	0.07
434.866	0.08
435.224	0.07
435.582	0.08
435.94	0.08
436.297	0.07
436.655	0.06
437.012	0.07
437.37	0.07
437.727	0.07
438.085	0.08
438.442	0.07
438.8	0.07
439.157	0.07
439.514	0.08
439.872	0.07
440.229	0.08
440.586	0.08
440.943	0.08
441.3	0.07
441.657	0.07
442.014	0.07
442.371	0.07
442.728	0.07
443.085	0.08
443.442	0.08
443.799	0.07
444.156	0.07
444.513	0.07
444.869	0.07
445.226	0.08
445.583	0.08
445.939	0.07
446.296	0.08
446.652	0.08
447.009	0.08
447.365	0.07
447.722	0.08
448.078	0.08
448.434	0.08
448.791	0.08
449.147	0.07
449.503	0.09
449.859	0.08
450.215	0.07
450.571	0.08
450.928	0.08
451.284	0.08
451.64	0.09
451.995	0.08
452.351	0.09
452.707	0.09
453.063	0.08
453.419	0.08
453.775	0.09
454.13	0.08
454.486	0.1
454.842	0.09
455.197	0.08
455.553	0.08
455.908	0.09
456.264	0.09
456.619	0.08
456.975	0.08
457.33	0.08
457.685	0.08
458.04	0.09
458.396	0.09
458.751	0.09
459.106	0.09
459.461	0.09
459.816	0.09
460.171	0.09
460.526	0.09
460.881	0.1
461.236	0.09
461.591	0.1
461.946	0.08
462.301	0.1
462.655	0.1
463.01	0.11
463.365	0.1
463.719	0.09
464.074	0.09
464.428	0.09
464.783	0.1
465.137	0.1
465.492	0.1
465.846	0.09
466.201	0.1
466.555	0.09
466.909	0.09
467.263	0.1
467.618	0.1
467.972	0.11
468.326	0.11
468.68	0.11
469.034	0.1
469.388	0.11
469.742	0.11
470.096	0.11
470.45	0.11
470.804	0.12
471.157	0.11
471.511	0.11
471.865	0.12
472.218	0.12
472.572	0.12
472.926	0.12
473.279	0.12
473.633	0.13
473.986	0.13
474.34	0.13
474.693	0.13
475.046	0.13
475.4	0.14
475.753	0.14
476.106	0.14
476.459	0.15
476.812	0.14
477.165	0.15
477.519	0.15
477.872	0.15
478.224	0.16
478.577	0.16
478.93	0.15
479.283	0.15
479.636	0.16
479.989	0.17
480.341	0.16
480.694	0.16
481.047	0.17
481.399	0.17
481.752	0.17
482.104	0.18
482.457	0.18
482.809	0.18
483.162	0.18
483.514	0.18
483.866	0.18
484.219	0.19
484.571	0.19
484.923	0.19
485.275	0.19
485.627	0.2
485.979	0.2
486.331	0.2
486.683	0.19
487.035	0.2
487.387	0.2
487.739	0.2
488.091	0.21
488.443	0.21
488.794	0.21
489.146	0.21
489.498	0.21
489.849	0.22
490.201	0.22
490.552	0.22
490.904	0.22
491.255	0.23
491.607	0.22
491.958	0.23
492.309	0.23
492.661	0.23
493.012	0.23
493.363	0.23
493.714	0.23
494.065	0.24
494.416	0.24
494.767	0.24
495.118	0.25
495.469	0.25
495.82	0.25
496.171	0.25
496.522	0.25
496.872	0.25
497.223	0.25
497.574	0.26
497.924	0.26
498.275	0.26
498.626	0.26
498.976	0.27
499.327	0.27
499.677	0.26
500.027	0.27
500.378	0.27
500.728	0.27
501.078	0.28
501.428	0.28
501.779	0.28
502.129	0.29
502.479	0.29
502.829	0.29
503.179	0.29
503.529	0.29
503.879	0.29
504.229	0.29
504.578	0.3
504.928	0.3
505.278	0.3
505.628	0.3
505.977	0.31
506.327	0.31
506.676	0.31
507.026	0.31
507.375	0.32
507.725	0.31
508.074	0.31
508.424	0.32
508.773	0.32
509.122	0.32
509.471	0.32
509.82	0.32
510.17	0.32
510.519	0.33
510.868	0.33
511.217	0.33
511.566	0.34
511.915	0.33
512.263	0.34
512.612	0.34
512.961	0.34
513.31	0.34
513.659	0.34
514.007	0.35
514.356	0.35
514.704	0.35
515.053	0.36
515.401	0.35
515.75	0.36
516.098	0.36
516.447	0.36
516.795	0.36
517.143	0.36
517.491	0.36
517.839	0.36
518.188	0.37
518.536	0.37
518.884	0.37
519.232	0.37
519.58	0.37
519.928	0.37
520.275	0.38
520.623	0.38
520.971	0.38
521.319	0.38
521.666	0.38
522.014	0.38
522.362	0.38
522.709	0.39
523.057	0.38
523.404	0.39
523.752	0.39
524.099	0.39
524.446	0.39
524.794	0.39
525.141	0.4
525.488	0.39
525.835	0.4
526.182	0.4
526.529	0.4
526.876	0.4
527.223	0.4
527.57	0.41
527.917	0.4
528.264	0.41
528.611	0.4
528.958	0.41
529.304	0.41
529.651	0.41
529.998	0.41
530.344	0.41
530.691	0.42
531.037	0.41
531.384	0.42
531.73	0.42
532.076	0.42
532.423	0.42
532.769	0.42
533.115	0.42
533.461	0.42
533.807	0.42
534.154	0.42
534.5	0.42
534.846	0.42
535.192	0.42
535.537	0.42
535.883	0.42
536.229	0.43
536.575	0.43
536.921	0.43
537.266	0.43
537.612	0.44
537.957	0.43
538.303	0.44
538.649	0.43
538.994	0.44
539.339	0.44
539.685	0.44
540.03	0.44
540.375	0.44
540.721	0.44
541.066	0.44
541.411	0.44
541.756	0.44
542.101	0.44
542.446	0.44
542.791	0.44
543.136	0.45
543.481	0.45
543.825	0.44
544.17	0.44
544.515	0.45
544.86	0.45
545.204	0.45
545.549	0.44
545.893	0.45
546.238	0.45
546.582	0.46
546.927	0.45
547.271	0.45
547.615	0.46
547.96	0.45
548.304	0.46
548.648	0.45
548.992	0.46
549.336	0.45
549.68	0.46
550.024	0.46
550.368	0.46
550.712	0.46
551.056	0.46
551.4	0.46
551.743	0.46
552.087	0.46
552.431	0.46
552.774	0.45
553.118	0.45
553.462	0.46
553.805	0.46
554.148	0.46
554.492	0.46
554.835	0.46
555.178	0.46
555.522	0.45
555.865	0.46
556.208	0.46
556.551	0.46
556.894	0.46
557.237	0.46
557.58	0.46
557.923	0.46
558.266	0.46
558.609	0.46
558.952	0.46
559.294	0.46
559.637	0.45
559.98	0.46
560.322	0.46
560.665	0.46
561.007	0.46
561.35	0.46
561.692	0.46
562.034	0.46
562.377	0.45
562.719	0.46
563.061	0.45
563.403	0.45
563.745	0.46
564.088	0.46
564.43	0.45
564.772	0.45
565.113	0.45
565.455	0.45
565.797	0.45
566.139	0.45
566.481	0.45
566.822	0.45
567.164	0.45
567.506	0.45
567.847	0.45
568.189	0.45
568.53	0.44
568.872	0.45
569.213	0.45
569.554	0.44
569.895	0.44
570.237	0.44
570.578	0.44
570.919	0.44
571.26	0.44
571.601	0.43
571.942	0.44
572.283	0.43
572.624	0.43
572.965	0.43
573.306	0.43
573.646	0.43
573.987	0.43
574.328	0.43
574.668	0.43
575.009	0.42
575.349	0.42
575.69	0.42
576.03	0.42
576.37	0.42
576.711	0.41
577.051	0.42
577.391	0.41
577.731	0.42
578.072	0.42
578.412	0.42
578.752	0.42
579.092	0.41
579.431	0.4
579.771	0.39
580.111	0.38
580.451	0.39
580.791	0.4
581.13	0.41
581.47	0.41
581.81	0.41
582.149	0.41
582.489	0.41
582.828	0.39
583.167	0.37
583.507	0.33
583.846	0.32
584.185	0.35
584.525	0.37
584.864	0.39
585.203	0.4
585.542	0.41
585.881	0.41
586.22	0.41
586.559	0.4
586.898	0.39
587.236	0.38
587.575	0.38
587.914	0.39
588.252	0.4
588.591	0.4
588.93	0.4
589.268	0.4
589.607	0.4
589.945	0.4
590.283	0.4
590.622	0.4
590.96	0.41
591.298	0.41
591.636	0.41
591.974	0.41
592.313	0.41
592.651	0.41
592.989	0.41
593.326	0.41
593.664	0.41
594.002	0.41
594.34	0.4
594.678	0.4
595.015	0.39
595.353	0.39
595.691	0.39
596.028	0.4
596.366	0.41
596.703	0.41
597.04	0.41
597.378	0.4
597.715	0.41
598.052	0.41
598.389	0.41
598.726	0.41
599.064	0.41
599.401	0.41
599.738	0.41
600.074	0.4
600.411	0.4
600.748	0.4
601.085	0.4
601.422	0.39
601.758	0.39
602.095	0.39
602.432	0.39
602.768	0.4
603.105	0.4
603.441	0.4
603.777	0.4
604.114	0.41
604.45	0.4
604.786	0.4
605.122	0.4
605.459	0.4
605.795	0.4
606.131	0.39
606.467	0.39
606.803	0.4
607.139	0.4
607.474	0.39
607.81	0.39
608.146	0.39
608.482	0.39
608.817	0.39
609.153	0.38
609.488	0.38
609.824	0.38
610.159	0.38
610.495	0.38
610.83	0.38
611.165	0.39
611.5	0.38
611.836	0.38
612.171	0.38
612.506	0.38
612.841	0.38
613.176	0.38
613.511	0.38
613.845	0.38
614.18	0.37
614.515	0.38
614.85	0.38
615.184	0.37
615.519	0.37
615.854	0.37
616.188	0.37
616.523	0.37
616.857	0.36
617.191	0.36
617.526	0.36
617.86	0.36
618.194	0.36
618.528	0.36
618.862	0.36
619.196	0.36
619.53	0.36
619.864	0.36
620.198	0.36
620.532	0.36
620.866	0.36
621.2	0.36
621.533	0.35
621.867	0.35
622.201	0.35
622.534	0.35
622.868	0.35
623.201	0.35
623.534	0.35
623.868	0.35
624.201	0.34
624.534	0.34
624.868	0.34
625.201	0.34
625.534	0.34
625.867	0.34
626.2	0.33
626.533	0.33
626.865	0.33
627.198	0.33
627.531	0.33
627.864	0.33
628.196	0.33
628.529	0.33
628.862	0.32
629.194	0.32
629.527	0.32
629.859	0.32
630.191	0.31
630.524	0.31
630.856	0.31
631.188	0.31
631.52	0.31
631.852	0.31
632.184	0.3
632.516	0.3
632.848	0.3
633.18	0.3
633.512	0.3
633.844	0.29
634.175	0.29
634.507	0.29
634.839	0.29
635.17	0.29
635.502	0.29
635.833	0.28
636.165	0.28
636.496	0.28
636.827	0.28
637.159	0.27
637.49	0.28
637.821	0.27
638.152	0.27
638.483	0.27
638.814	0.27
639.145	0.27
639.476	0.26
639.807	0.26
640.137	0.26
640.468	0.26
640.799	0.26
641.129	0.25
641.46	0.25
641.791	0.25
642.121	0.25
642.451	0.25
642.782	0.24
643.112	0.25
643.442	0.24
643.773	0.24
644.103	0.24
644.433	0.24
644.763	0.24
645.093	0.23
645.423	0.24
645.753	0.24
646.082	0.23
646.412	0.23
646.742	0.23
647.072	0.23
647.401	0.23
647.731	0.23
648.06	0.22
648.39	0.23
648.719	0.22
649.048	0.22
649.378	0.22
649.707	0.22
650.036	0.22
650.365	0.22
650.694	0.22
651.023	0.22
651.352	0.22
651.681	0.22
652.01	0.21
652.339	0.22
652.668	0.21
652.996	0.21
653.325	0.21
653.654	0.22
653.982	0.21
654.311	0.21
654.639	0.21
654.967	0.21
655.296	0.21
655.624	0.21
655.952	0.21
656.28	0.21
656.609	0.21
656.937	0.21
657.265	0.2
657.593	0.09
657.92	0.01
658.248	0
658.576	0
658.904	0.07
659.231	0.15
659.559	0.2
659.887	0.2
660.214	0.2
660.542	0.2
660.869	0.2
661.196	0.2
661.524	0.19
661.851	0.19
662.178	0.19
662.505	0.19
662.832	0.19
663.159	0.2
663.486	0.2
663.813	0.19
664.14	0.19
664.467	0.19
664.794	0.19
665.12	0.19
665.447	0.19
665.774	0.19
666.1	0.19
666.427	0.18
666.753	0.18
667.079	0.18
667.406	0.18
667.732	0.18
668.058	0.18
668.384	0.18
668.71	0.18
669.036	0.18
669.362	0.18
669.688	0.18
670.014	0.17
670.34	0.17
670.666	0.17
670.991	0.17
671.317	0.17
671.643	0.17
671.968	0.17
672.294	0.17
672.619	0.17
672.945	0.16
673.27	0.16
673.595	0.16
673.92	0.16
674.246	0.16
674.571	0.16
674.896	0.16
675.221	0.16
675.546	0.15
675.87	0.16
676.195	0.15
676.52	0.15
676.845	0.15
677.169	0.15
677.494	0.15
677.819	0.15
678.143	0.14
678.468	0.14
678.792	0.14
679.116	0.14
679.44	0.14
679.765	0.14
680.089	0.13
680.413	0.13
680.737	0.13
681.061	0.13
681.385	0.13
681.709	0.13
682.033	0.12
682.356	0.12
682.68	0.12
683.004	0.13
683.327	0.12
683.651	0.12
683.974	0.12
684.298	0.12
684.621	0.12
684.944	0.11
685.268	0.12
685.591	0.11
685.914	0.11
686.237	0.11
686.56	0.11
686.883	0.1
687.206	0.1
687.529	0.1
687.852	0.1
688.175	0.1
688.497	0.1
688.82	0.1
689.142	0.1
689.465	0.1
689.787	0.1
690.11	0.09
690.432	0.09
690.755	0.09
691.077	0.09
691.399	0.09
691.721	0.09
692.043	0.09
692.365	0.09
692.687	0.09
693.009	0.09
693.331	0.08
693.653	0.08
693.974	0.08
694.296	0.08
694.618	0.08
694.939	0.08
695.261	0.08
695.582	0.08
695.904	0.08
696.225	0.08
696.546	0.08
696.868	0.08
697.189	0.07
697.51	0.07
697.831	0.07
698.152	0.07
698.473	0.07
698.794	0.06
699.114	0.06
699.435	0.05
699.756	0.06
700.077	0.06
700.397	0.06
700.718	0.07
701.038	0.07
701.359	0.07
701.679	0.07
701.999	0.07
702.32	0.06
702.64	0.06
702.96	0.06
703.28	0.06
703.6	0.06
703.92	0.06
704.24	0.06
704.56	0.05
704.879	0.05
705.199	0.06
705.519	0.06
705.838	0.06
706.158	0.06
706.478	0.06
706.797	0.06
707.116	0.06
707.436	0.06
707.755	0.06
708.074	0.06
708.393	0.05
708.712	0.05
709.031	0.04
709.35	0.04
709.669	0.04
709.988	0.04
710.307	0.04
710.626	0.05
710.944	0.05
711.263	0.05
711.582	0.05
711.9	0.06
712.219	0.05
712.537	0.05
712.855	0.05
713.174	0.05
713.492	0.05
713.81	0.06
714.128	0.05
714.446	0.05
714.764	0.05
715.082	0.05
715.4	0.05
715.718	0.05
716.035	0.05
716.353	0.05
716.671	0.05
716.988	0.05
717.306	0.05
717.623	0.06
717.941	0.06
718.258	0.06
718.575	0.06
718.893	0.06
719.21	0.06
719.527	0.06
719.844	0.06
720.161	0.05
720.478	0.06
720.795	0.06
721.112	0.06
721.428	0.06
721.745	0.06
722.062	0.06
722.378	0.06
722.695	0.06
723.011	0.06
723.328	0.06
723.644	0.06
723.96	0.06
724.276	0.06
724.593	0.06
724.909	0.06
725.225	0.06
725.541	0.07
725.857	0.07
726.173	0.06
726.488	0.07
726.804	0.06
727.12	0.06
727.435	0.06
727.751	0.06
728.067	0.07
728.382	0.06
728.697	0.06
729.013	0.07
729.328	0.06
729.643	0.06
729.958	0.06
730.273	0.06
730.588	0.06
730.903	0.06
731.218	0.06
731.533	0.06
731.848	0.06
732.163	0.06
732.477	0.06
732.792	0.06
733.107	0.05
733.421	0.06
733.736	0.06
734.05	0.06
734.364	0.06
734.678	0.06
734.993	0.06
735.307	0.06
735.621	0.06
735.935	0.06
736.249	0.06
736.563	0.06
736.877	0.06
737.19	0.06
737.504	0.06
737.818	0.05
738.131	0.05
738.445	0.06
738.758	0.06
739.072	0.06
739.385	0.06
739.698	0.05
740.012	0.06
740.325	0.06
740.638	0.05
740.951	0.05
741.264	0.05
741.577	0.05
741.89	0.05
742.203	0.05
742.515	0.05
742.828	0.05
743.141	0.05
743.453	0.05
743.766	0.05
744.078	0.05
744.391	0.05
744.703	0.05
745.015	0.05
745.327	0.05
745.639	0.05
745.952	0.05
746.264	0.05
746.575	0.05
746.887	0.05
747.199	0.05
747.511	0.05
747.823	0.05
748.134	0.05
748.446	0.05
748.757	0.05
749.069	0.05
749.38	0.04
749.692	0.04
750.003	0.04
750.314	0.04
750.625	0.04
750.936	0.04
751.248	0.04
751.559	0.04
751.869	0.04
752.18	0.04
752.491	0.04
752.802	0.04
753.112	0.04
753.423	0.04
753.734	0.04
754.044	0.04
754.355	0.04
754.665	0.04
754.975	0.04
755.285	0.04
755.596	0.04
755.906	0.04
756.216	0.04
756.526	0.04
756.836	0.04
757.146	0.03
757.455	0.03
757.765	0.03
758.075	0.03
758.385	0.03
758.694	0.03
759.004	0.03
759.313	0.03
759.622	0.03
759.932	0.03
760.241	0.03
760.55	0.03
760.859	0.03
761.168	0.03
761.477	0.03
761.786	0.03
762.095	0.03
762.404	0.03
762.713	0.03
763.021	0.03
763.33	0.03
763.639	0.03
763.947	0.03
764.256	0.03
764.564	0.03
764.872	0.03
765.181	0.03
765.489	0.03
765.797	0.03
766.105	0.03
766.413	0.03
766.721	0.03
767.029	0.03
767.337	0.03
767.644	0.03
767.952	0.03
768.26	0.03
768.567	0.03
768.875	0.03
769.182	0.03
769.49	0.03
769.797	0.03
770.104	0.03
770.411	0.03
770.718	0.02
771.026	0.03
771.333	0.03
771.639	0.03
771.946	0.03
772.253	0.03
772.56	0.03
772.867	0.03
773.173	0.02
773.48	0.03
773.786	0.03
774.093	0.03
774.399	0.03
774.705	0.03
775.012	0.03
775.318	0.03
775.624	0.03
775.93	0.03
776.236	0.03
776.542	0.03
776.848	0.03
777.154	0.03
777.459	0.03
777.765	0.03
778.071	0.03
778.376	0.03
778.682	0.03
778.987	0.03
779.292	0.03
779.598	0.03
779.903	0.02
780.208	0.03
780.513	0.03
780.818	0.03
781.123	0.03
781.428	0.02
781.733	0.03
782.038	0.03
782.343	0.03
782.647	0.03
782.952	0.03
783.256	0.03
783.561	0.03
783.865	0.03
784.17	0.03
784.474	0.03
784.778	0.04
785.082	0.03
785.386	0.04
785.69	0.03
785.994	0.03
786.298	0.03
786.602	0.03
786.906	0.03
787.209	0.03
787.513	0.03
787.817	0.04
788.12	0.03
788.424	0.03
788.727	0.03
789.03	0.03
789.333	0.03
789.637	0.03
789.94	0.03
790.243	0.03
790.546	0.03
790.849	0.03
791.152	0.03
791.454	0.03
791.757	0.03
792.06	0.03
792.362	0.03
792.665	0.03
792.967	0.03
793.27	0.03
793.572	0.03
793.874	0.03
794.177	0.03
794.479	0.03
794.781	0.03
795.083	0.03
795.385	0.03
795.687	0.03
795.989	0.03
796.29	0.03
796.592	0.03
796.894	0.03
797.195	0.03
797.497	0.03
797.798	0.04
798.1	0.04
798.401	0.03
798.702	0.03
799.003	0.04
799.304	0.03
799.605	0.03
799.906	0.04
800.207	0.03
800.508	0.03
800.809	0.03
801.11	0.03
801.41	0.03
801.711	0.03
802.011	0.03
802.312	0.04
802.612	0.04
802.913	0.04
803.213	0.04
803.513	0.04
803.813	0.04
804.113	0.03
804.413	0.03
804.713	0.03
805.013	0.03
805.313	0.03
805.613	0.04
805.912	0.03
806.212	0.03
806.511	0.03
806.811	0.03
807.11	0.03
807.41	0.03
807.709	0.03
808.008	0.04
808.307	0.04
808.606	0.04
808.905	0.04
809.204	0.04
809.503	0.05
809.802	0.04
810.101	0.04
810.399	0.04
810.698	0.05
810.997	0.04
811.295	0.04
811.593	0.04
811.892	0.04
812.19	0.04
812.488	0.03
812.786	0.04
813.084	0.04
813.383	0.04
813.68	0.04
813.978	0.04
814.276	0.04
814.574	0.04
814.872	0.04
815.169	0.04
815.467	0.04
815.764	0.04
816.062	0.05
816.359	0.04
816.656	0.05
816.954	0.05
817.251	0.04
817.548	0.04
817.845	0.05
818.142	0.04
818.439	0.04
818.735	0.04
819.032	0.04
819.329	0.04
819.626	0.04
819.922	0.04
820.219	0.04
820.515	0.04
820.811	0.04
821.108	0.05
821.404	0.04
821.7	0.04
821.996	0.05
822.292	0.05
822.588	0.05
822.884	0.05
823.18	0.05
823.475	0.05
823.771	0.05
824.067	0.05
824.362	0.05
824.658	0.05
824.953	0.04
825.249	0.05
825.544	0.05
825.839	0.05
826.134	0.06
826.429	0.05
826.724	0.05
827.019	0.05
827.314	0.05
827.609	0.05
827.904	0.05
828.198	0.05
828.493	0.05
828.787	0.05
829.082	0.05
829.376	0.05
829.671	0.05
829.965	0.04
830.259	0.05
830.553	0.06
830.847	0.05
831.141	0.05
831.435	0.05
831.729	0.05
832.023	0.05
832.317	0.06
832.61	0.06
832.904	0.06
833.197	0.06
833.491	0.06
833.784	0.05
834.077	0.05
834.371	0.06
834.664	0.05
834.957	0.06
835.25	0.05
835.543	0.05
835.836	0.05
836.129	0.04
836.421	0.04
836.714	0.05
837.007	0.05
837.299	0.06
837.592	0.06
837.884	0.06
838.177	0.05
838.469	0.05
838.761	0.05
839.053	0.04
839.345	0.05
839.637	0.06
839.929	0.06
840.221	0.06
840.513	0.06
840.805	0.05
841.096	0.05
841.388	0.06
841.68	0.06
841.971	0.06
842.262	0.06
842.554	0.06
842.845	0.05
843.136	0.06
843.427	0.06
843.718	0.06
844.009	0.05
844.3	0.06
844.591	0.06
844.882	0.06
845.173	0.06
845.463	0.06
845.754	0.07
846.044	0.07
846.335	0.06
846.625	0.07
846.915	0.06
847.206	0.06
847.496	0.06
847.786	0.06
848.076	0.06
848.366	0.07
848.656	0.06
848.945	0.06
849.235	0.06
849.525	0.06
849.814	0.06
850.104	0.06
850.393	0.06
850.683	0.07
850.972	0.06
851.261	0.06
851.551	0.07
851.84	0.06
852.129	0.06
852.418	0.06
852.707	0.06
852.995	0.06
853.284	0.07
853.573	0.07
853.862	0.06
854.15	0.06
854.439	0.06
854.727	0.06
855.015	0.06
855.304	0.06
855.592	0.07
855.88	0.06
856.168	0.06
856.456	0.06
856.744	0.07
857.032	0.08
857.32	0.08
857.607	0.07
857.895	0.08
858.183	0.06
858.47	0.06
858.757	0.08
859.045	0.07
859.332	0.08
859.619	0.08
859.907	0.07
860.194	0.08
860.481	0.07
860.768	0.08
861.054	0.08
861.341	0.07
861.628	0.07
861.915	0.08
862.201	0.08
862.488	0.07
862.774	0.07
863.061	0.07
863.347	0.05
863.633	0.07
863.919	0.09
864.205	0.05
864.491	0.05
864.777	0.05
865.063	0.07
865.349	0.08
865.635	0.07
865.92	0.06
866.206	0.08
866.492	0.09
866.777	0.06
867.062	0.06
867.348	0.06
867.633	0.06
867.918	0.04
868.203	0.05
868.488	0.06
868.773	0.07
869.058	0.09
869.343	0.07
869.628	0.05
869.912	0.06
870.197	0.05
870.482	0.07
870.766	0.05
871.05	0.05
871.335	0.06
871.619	0.06
871.903	0.07
872.187	0.04
872.471	0.03
872.755	0.07
873.039	0.04
873.323	0.07
873.607	0.06
873.89	0.1
874.174	0.07
874.458	0.06
874.741	0.09
875.024	0.07
875.308	0.08
875.591	0.08
875.874	0.08
876.157	0.11
876.44	0.1
876.723	0.09
877.006	0.08
877.289	0.05
877.572	0.15
877.854	0.05
878.137	-0
878.42	0.06
878.702	0.08
878.984	0.12
879.267	0.05
879.549	0.05
879.831	0.07
880.113	0.05
880.395	0.03
880.677	0.07
880.959	-0.05
