Data from Rubpy_BV_1500_EDTA_Buffered_Absorbance_14-30-10-630.txt Node
Date: Wed Jul 01 14:30:10 BST 2026
User: fpm-admin
Spectrometer: OFX00224
Trigger mode: 0
Integration Time (sec): 7.000000E-2
Scans to average: 3
Nonlinearity correction enabled: false
Boxcar width: 0
Storing dark spectrum: false
XAxis mode: Wavelengths
Number of Pixels in Spectrum: 2136
>>>>>Begin Spectral Data<<<<<
154.91	-0.34
155.289	0.23
155.669	-1.18
156.048	0.41
156.428	-0
156.807	-0
157.186	-0.48
157.566	-0.31
157.945	-0
158.325	1.34
158.704	-0
159.083	-0.21
159.462	-0.19
159.842	0.06
160.221	-0.42
160.6	-0
160.979	-0.32
161.359	0.97
161.738	0.7
162.117	-0.17
162.496	-0.21
162.875	-0
163.254	0.29
163.633	0.1
164.012	-0.05
164.391	0.45
164.77	0.81
165.149	-0.07
165.528	-0
165.907	0.2
166.286	-0.49
166.665	-0
167.044	-0
167.423	1.24
167.802	-0
168.181	0.02
168.559	0.04
168.938	-0.19
169.317	0.55
169.696	-0.31
170.074	-0
170.453	0.78
170.832	0.3
171.21	0.72
171.589	-0.22
171.968	-0.35
172.346	-0
172.725	-0
173.103	-0
173.482	-0
173.861	0.14
174.239	-0
174.617	0.59
174.996	0.38
175.374	0.59
175.753	-0.48
176.131	-0
176.51	0.15
176.888	-0
177.266	-0
177.645	0.07
178.023	-0
178.401	-0.16
178.779	-0.04
179.158	0.18
179.536	-0.13
179.914	-0.39
180.292	0.18
180.67	-0
181.048	-0.03
181.427	-0.13
181.805	-0.03
182.183	-0.48
182.561	-0
182.939	-0
183.317	0.3
183.695	-0.18
184.073	0.8
184.451	-0.53
184.829	-0
185.206	-0
185.584	0.37
185.962	0.3
186.34	0.34
186.718	-0
187.096	-0
187.473	-0.33
187.851	0.65
188.229	0.21
188.607	0.2
188.984	0.39
189.362	0.31
189.74	0.3
190.117	0.26
190.495	0.11
190.872	0.37
191.25	0.2
191.627	0.16
192.005	0.24
192.382	0.38
192.76	0.28
193.137	0.27
193.515	0.23
193.892	0.19
194.269	0.2
194.647	0.31
195.024	0.23
195.401	0.27
195.779	0.32
196.156	0.33
196.533	0.28
196.91	0.25
197.288	0.32
197.665	0.27
198.042	0.26
198.419	0.45
198.796	0.37
199.173	0.38
199.55	0.23
199.927	0.31
200.304	0.27
200.681	0.34
201.058	0.45
201.435	0.22
201.812	0.3
202.189	0.4
202.566	0.14
202.943	0.21
203.32	0.28
203.697	0.26
204.073	0.21
204.45	0.23
204.827	0.43
205.204	0.25
205.58	0.27
205.957	0.22
206.334	0.36
206.71	0.32
207.087	0.47
207.464	0.16
207.84	0.17
208.217	0.33
208.593	0.33
208.97	0.29
209.346	0.37
209.723	0.21
210.099	0.23
210.476	0.38
210.852	0.41
211.228	0.23
211.605	0.24
211.981	0.17
212.357	0.28
212.733	0.22
213.11	0.2
213.486	0.21
213.862	0.19
214.238	0.27
214.614	0.19
214.991	0.25
215.367	0.24
215.743	0.28
216.119	0.38
216.495	0.31
216.871	0.38
217.247	0.24
217.623	0.34
217.999	0.27
218.375	0.36
218.751	0.34
219.127	0.24
219.502	0.32
219.878	0.36
220.254	0.31
220.63	0.39
221.006	0.27
221.381	0.43
221.757	0.37
222.133	0.17
222.508	0.37
222.884	0.41
223.26	0.32
223.635	0.28
224.011	0.43
224.386	0.27
224.762	0.37
225.137	0.29
225.513	0.41
225.888	0.42
226.264	0.62
226.639	0.31
227.014	0.39
227.39	0.22
227.765	0.4
228.14	0.37
228.516	0.28
228.891	0.38
229.266	0.42
229.641	0.27
230.017	0.41
230.392	0.28
230.767	0.21
231.142	0.2
231.517	0.29
231.892	0.31
232.267	0.28
232.642	0.29
233.017	0.35
233.392	0.25
233.767	0.23
234.142	0.23
234.517	0.44
234.892	0.29
235.267	0.34
235.641	0.24
236.016	0.3
236.391	0.3
236.766	0.55
237.14	0.37
237.515	0.19
237.89	0.38
238.264	0.46
238.639	0.16
239.014	0.29
239.388	0.27
239.763	0.28
240.137	0.5
240.512	0.27
240.886	0.35
241.261	0.3
241.635	0.23
242.009	0.39
242.384	0.37
242.758	0.3
243.132	0.3
243.507	0.25
243.881	0.24
244.255	0.3
244.629	0.31
245.004	0.37
245.378	0.41
245.752	0.22
246.126	0.53
246.5	0.57
246.874	0.23
247.248	0.26
247.622	0.17
247.996	0.24
248.37	0.33
248.744	0.34
249.118	0.34
249.492	0.21
249.866	0.25
250.24	0.22
250.613	0.35
250.987	0.35
251.361	0.33
251.735	0.38
252.108	0.24
252.482	0.31
252.856	0.33
253.229	0.5
253.603	0.32
253.977	0.26
254.35	0.29
254.724	0.36
255.097	0.18
255.471	0.41
255.844	0.28
256.218	0.43
256.591	0.38
256.964	0.26
257.338	0.34
257.711	0.36
258.084	0.38
258.458	0.28
258.831	0.49
259.204	0.31
259.577	0.33
259.95	0.33
260.323	0.21
260.697	0.25
261.07	0.26
261.443	0.29
261.816	0.29
262.189	0.4
262.562	0.26
262.935	0.25
263.308	0.29
263.68	0.32
264.053	0.43
264.426	0.38
264.799	0.33
265.172	0.45
265.545	0.38
265.917	0.35
266.29	0.28
266.663	0.33
267.035	0.29
267.408	0.27
267.781	0.39
268.153	0.39
268.526	0.3
268.898	0.24
269.271	0.33
269.643	0.33
270.016	0.31
270.388	0.37
270.76	0.28
271.133	0.32
271.505	0.27
271.877	0.33
272.25	0.41
272.622	0.45
272.994	0.29
273.366	0.36
273.739	0.31
274.111	0.31
274.483	0.33
274.855	0.39
275.227	0.37
275.599	0.27
275.971	0.25
276.343	0.3
276.715	0.36
277.087	0.48
277.459	0.29
277.831	0.34
278.203	0.32
278.574	0.36
278.946	0.3
279.318	0.3
279.69	0.37
280.061	0.3
280.433	0.31
280.805	0.29
281.176	0.35
281.548	0.38
281.92	0.36
282.291	0.33
282.663	0.39
283.034	0.32
283.406	0.25
283.777	0.32
284.148	0.38
284.52	0.32
284.891	0.3
285.262	0.4
285.634	0.28
286.005	0.37
286.376	0.4
286.747	0.35
287.119	0.35
287.49	0.35
287.861	0.36
288.232	0.38
288.603	0.39
288.974	0.25
289.345	0.35
289.716	0.23
290.087	0.34
290.458	0.36
290.829	0.3
291.2	0.38
291.571	0.35
291.941	0.3
292.312	0.38
292.683	0.38
293.054	0.35
293.424	0.31
293.795	0.37
294.166	0.32
294.536	0.27
294.907	0.35
295.277	0.36
295.648	0.46
296.018	0.34
296.389	0.3
296.759	0.29
297.13	0.4
297.5	0.28
297.871	0.37
298.241	0.29
298.611	0.49
298.981	0.38
299.352	0.35
299.722	0.38
300.092	0.31
300.462	0.26
300.832	0.37
301.202	0.35
301.573	0.33
301.943	0.33
302.313	0.41
302.683	0.36
303.053	0.38
303.422	0.39
303.792	0.28
304.162	0.32
304.532	0.32
304.902	0.31
305.272	0.38
305.641	0.31
306.011	0.3
306.381	0.24
306.75	0.31
307.12	0.3
307.49	0.27
307.859	0.27
308.229	0.3
308.598	0.28
308.968	0.23
309.337	0.25
309.707	0.26
310.076	0.24
310.445	0.29
310.815	0.26
311.184	0.25
311.553	0.23
311.923	0.26
312.292	0.26
312.661	0.28
313.03	0.28
313.399	0.27
313.768	0.27
314.137	0.27
314.506	0.25
314.875	0.29
315.244	0.3
315.613	0.3
315.982	0.3
316.351	0.29
316.72	0.3
317.089	0.31
317.458	0.31
317.826	0.32
318.195	0.31
318.564	0.32
318.933	0.34
319.301	0.34
319.67	0.34
320.038	0.35
320.407	0.34
320.775	0.34
321.144	0.36
321.512	0.38
321.881	0.38
322.249	0.38
322.618	0.37
322.986	0.39
323.354	0.39
323.723	0.4
324.091	0.4
324.459	0.41
324.827	0.42
325.195	0.41
325.564	0.42
325.932	0.43
326.3	0.43
326.668	0.45
327.036	0.45
327.404	0.46
327.772	0.46
328.14	0.46
328.508	0.48
328.875	0.49
329.243	0.5
329.611	0.5
329.979	0.51
330.346	0.51
330.714	0.52
331.082	0.52
331.449	0.52
331.817	0.54
332.185	0.55
332.552	0.57
332.92	0.58
333.287	0.59
333.655	0.6
334.022	0.6
334.389	0.62
334.757	0.63
335.124	0.65
335.491	0.66
335.859	0.67
336.226	0.68
336.593	0.69
336.96	0.7
337.327	0.72
337.695	0.74
338.062	0.74
338.429	0.75
338.796	0.78
339.163	0.79
339.53	0.81
339.897	0.81
340.263	0.83
340.63	0.85
340.997	0.86
341.364	0.87
341.731	0.89
342.097	0.89
342.464	0.92
342.831	0.92
343.197	0.95
343.564	0.96
343.931	0.97
344.297	0.98
344.664	1.01
345.03	1.03
345.396	1.03
345.763	1.05
346.129	1.07
346.496	1.08
346.862	1.09
347.228	1.11
347.594	1.13
347.961	1.13
348.327	1.15
348.693	1.17
349.059	1.18
349.425	1.18
349.791	1.2
350.157	1.22
350.523	1.23
350.889	1.24
351.255	1.26
351.621	1.27
351.987	1.3
352.353	1.3
352.719	1.31
353.084	1.34
353.45	1.34
353.816	1.36
354.181	1.35
354.547	1.4
354.913	1.41
355.278	1.41
355.644	1.44
356.009	1.47
356.375	1.45
356.74	1.48
357.106	1.49
357.471	1.52
357.836	1.52
358.202	1.55
358.567	1.58
358.932	1.57
359.297	1.63
359.663	1.62
360.028	1.65
360.393	1.65
360.758	1.69
361.123	1.68
361.488	1.71
361.853	1.73
362.218	1.71
362.583	1.74
362.948	1.75
363.312	1.75
363.677	1.81
364.042	1.81
364.407	1.82
364.772	1.85
365.136	1.85
365.501	1.86
365.865	1.87
366.23	1.92
366.595	1.85
366.959	1.88
367.324	1.89
367.688	1.91
368.052	1.91
368.417	1.92
368.781	1.91
369.145	1.89
369.51	1.94
369.874	1.95
370.238	1.97
370.602	1.98
370.967	1.92
371.331	1.94
371.695	1.99
372.059	1.99
372.423	1.93
372.787	1.96
373.151	2
373.515	2
373.878	1.98
374.242	1.95
374.606	1.94
374.97	2
375.334	1.92
375.697	1.93
376.061	1.94
376.425	1.92
376.788	1.95
377.152	1.93
377.515	1.89
377.879	1.85
378.242	1.83
378.606	1.82
378.969	1.81
379.333	1.84
379.696	1.78
380.059	1.77
380.422	1.76
380.786	1.73
381.149	1.75
381.512	1.7
381.875	1.7
382.238	1.69
382.601	1.62
382.964	1.64
383.327	1.59
383.69	1.6
384.053	1.57
384.416	1.56
384.779	1.54
385.142	1.52
385.504	1.51
385.867	1.5
386.23	1.45
386.593	1.46
386.955	1.46
387.318	1.44
387.68	1.46
388.043	1.45
388.405	1.43
388.768	1.42
389.13	1.4
389.493	1.4
389.855	1.4
390.217	1.37
390.58	1.37
390.942	1.34
391.304	1.35
391.666	1.34
392.028	1.29
392.391	1.27
392.753	1.27
393.115	1.26
393.477	1.22
393.839	1.22
394.201	1.2
394.563	1.19
394.924	1.2
395.286	1.19
395.648	1.18
396.01	1.2
396.371	1.2
396.733	1.22
397.095	1.22
397.456	1.25
397.818	1.26
398.18	1.28
398.541	1.31
398.903	1.34
399.264	1.37
399.625	1.38
399.987	1.41
400.348	1.43
400.709	1.44
401.071	1.47
401.432	1.47
401.793	1.46
402.154	1.44
402.515	1.43
402.876	1.42
403.238	1.37
403.599	1.35
403.96	1.32
404.32	1.26
404.681	1.22
405.042	1.19
405.403	1.14
405.764	1.09
406.125	1.05
406.485	0.99
406.846	0.94
407.207	0.89
407.567	0.84
407.928	0.8
408.288	0.76
408.649	0.73
409.009	0.69
409.37	0.65
409.73	0.61
410.091	0.59
410.451	0.55
410.811	0.52
411.171	0.5
411.532	0.47
411.892	0.46
412.252	0.44
412.612	0.42
412.972	0.4
413.332	0.38
413.692	0.37
414.052	0.35
414.412	0.34
414.772	0.33
415.132	0.31
415.492	0.31
415.851	0.3
416.211	0.3
416.571	0.28
416.931	0.27
417.29	0.27
417.65	0.25
418.009	0.26
418.369	0.25
418.728	0.24
419.088	0.23
419.447	0.23
419.807	0.23
420.166	0.22
420.525	0.21
420.884	0.21
421.244	0.21
421.603	0.2
421.962	0.21
422.321	0.19
422.68	0.19
423.039	0.19
423.398	0.19
423.757	0.19
424.116	0.19
424.475	0.19
424.834	0.18
425.193	0.17
425.551	0.18
425.91	0.18
426.269	0.17
426.628	0.16
426.986	0.18
427.345	0.17
427.703	0.16
428.062	0.17
428.42	0.17
428.779	0.17
429.137	0.17
429.496	0.15
429.854	0.16
430.212	0.17
430.57	0.16
430.929	0.15
431.287	0.15
431.645	0.15
432.003	0.16
432.361	0.14
432.719	0.16
433.077	0.15
433.435	0.15
433.793	0.16
434.151	0.16
434.509	0.17
434.866	0.16
435.224	0.15
435.582	0.15
435.94	0.17
436.297	0.14
436.655	0.15
437.012	0.16
437.37	0.15
437.727	0.16
438.085	0.16
438.442	0.16
438.8	0.16
439.157	0.16
439.514	0.16
439.872	0.15
440.229	0.15
440.586	0.15
440.943	0.16
441.3	0.15
441.657	0.15
442.014	0.16
442.371	0.16
442.728	0.16
443.085	0.17
443.442	0.17
443.799	0.16
444.156	0.16
444.513	0.16
444.869	0.17
445.226	0.17
445.583	0.17
445.939	0.17
446.296	0.17
446.652	0.17
447.009	0.17
447.365	0.17
447.722	0.18
448.078	0.18
448.434	0.18
448.791	0.18
449.147	0.17
449.503	0.18
449.859	0.19
450.215	0.18
450.571	0.18
450.928	0.18
451.284	0.19
451.64	0.2
451.995	0.18
452.351	0.19
452.707	0.2
453.063	0.19
453.419	0.2
453.775	0.2
454.13	0.2
454.486	0.21
454.842	0.2
455.197	0.2
455.553	0.21
455.908	0.21
456.264	0.21
456.619	0.22
456.975	0.2
457.33	0.21
457.685	0.22
458.04	0.21
458.396	0.21
458.751	0.21
459.106	0.22
459.461	0.22
459.816	0.23
460.171	0.23
460.526	0.23
460.881	0.23
461.236	0.23
461.591	0.24
461.946	0.23
462.301	0.23
462.655	0.25
463.01	0.24
463.365	0.24
463.719	0.24
464.074	0.24
464.428	0.25
464.783	0.24
465.137	0.25
465.492	0.25
465.846	0.25
466.201	0.25
466.555	0.26
466.909	0.25
467.263	0.26
467.618	0.27
467.972	0.27
468.326	0.27
468.68	0.27
469.034	0.28
469.388	0.28
469.742	0.28
470.096	0.28
470.45	0.29
470.804	0.29
471.157	0.29
471.511	0.29
471.865	0.3
472.218	0.31
472.572	0.31
472.926	0.31
473.279	0.31
473.633	0.32
473.986	0.33
474.34	0.33
474.693	0.33
475.046	0.34
475.4	0.34
475.753	0.34
476.106	0.35
476.459	0.36
476.812	0.36
477.165	0.36
477.519	0.36
477.872	0.37
478.224	0.38
478.577	0.38
478.93	0.38
479.283	0.39
479.636	0.4
479.989	0.4
480.341	0.4
480.694	0.41
481.047	0.41
481.399	0.41
481.752	0.42
482.104	0.42
482.457	0.43
482.809	0.43
483.162	0.44
483.514	0.44
483.866	0.44
484.219	0.45
484.571	0.46
484.923	0.46
485.275	0.47
485.627	0.47
485.979	0.47
486.331	0.47
486.683	0.48
487.035	0.48
487.387	0.49
487.739	0.49
488.091	0.5
488.443	0.5
488.794	0.51
489.146	0.51
489.498	0.51
489.849	0.51
490.201	0.52
490.552	0.53
490.904	0.52
491.255	0.53
491.607	0.53
491.958	0.54
492.309	0.55
492.661	0.55
493.012	0.54
493.363	0.56
493.714	0.57
494.065	0.57
494.416	0.57
494.767	0.58
495.118	0.58
495.469	0.59
495.82	0.59
496.171	0.59
496.522	0.6
496.872	0.6
497.223	0.61
497.574	0.62
497.924	0.61
498.275	0.62
498.626	0.63
498.976	0.63
499.327	0.63
499.677	0.63
500.027	0.64
500.378	0.65
500.728	0.65
501.078	0.66
501.428	0.65
501.779	0.66
502.129	0.67
502.479	0.66
502.829	0.68
503.179	0.68
503.529	0.68
503.879	0.69
504.229	0.69
504.578	0.7
504.928	0.71
505.278	0.7
505.628	0.71
505.977	0.71
506.327	0.72
506.676	0.72
507.026	0.72
507.375	0.73
507.725	0.73
508.074	0.74
508.424	0.74
508.773	0.75
509.122	0.75
509.471	0.76
509.82	0.75
510.17	0.76
510.519	0.76
510.868	0.77
511.217	0.77
511.566	0.78
511.915	0.78
512.263	0.78
512.612	0.79
512.961	0.8
513.31	0.8
513.659	0.8
514.007	0.81
514.356	0.8
514.704	0.81
515.053	0.82
515.401	0.82
515.75	0.82
516.098	0.82
516.447	0.83
516.795	0.83
517.143	0.84
517.491	0.84
517.839	0.84
518.188	0.84
518.536	0.86
518.884	0.85
519.232	0.85
519.58	0.86
519.928	0.86
520.275	0.86
520.623	0.87
520.971	0.87
521.319	0.88
521.666	0.87
522.014	0.88
522.362	0.88
522.709	0.88
523.057	0.89
523.404	0.89
523.752	0.88
524.099	0.9
524.446	0.89
524.794	0.9
525.141	0.9
525.488	0.91
525.835	0.91
526.182	0.92
526.529	0.92
526.876	0.92
527.223	0.92
527.57	0.93
527.917	0.92
528.264	0.93
528.611	0.92
528.958	0.93
529.304	0.93
529.651	0.93
529.998	0.93
530.344	0.93
530.691	0.94
531.037	0.94
531.384	0.95
531.73	0.95
532.076	0.94
532.423	0.95
532.769	0.96
533.115	0.95
533.461	0.96
533.807	0.95
534.154	0.96
534.5	0.96
534.846	0.96
535.192	0.97
535.537	0.96
535.883	0.96
536.229	0.97
536.575	0.97
536.921	0.97
537.266	0.98
537.612	0.98
537.957	0.97
538.303	0.98
538.649	0.98
538.994	0.99
539.339	0.98
539.685	0.99
540.03	0.99
540.375	1
540.721	0.99
541.066	0.98
541.411	1
541.756	0.99
542.101	1
542.446	0.99
542.791	0.99
543.136	0.99
543.481	0.99
543.825	1
544.17	0.99
544.515	1
544.86	1
545.204	1
545.549	1.01
545.893	1
546.238	1
546.582	1.01
546.927	1
547.271	1
547.615	1.01
547.96	1
548.304	1
548.648	1.01
548.992	1.01
549.336	1
549.68	1
550.024	1.02
550.368	1.02
550.712	1.01
551.056	1
551.4	1.01
551.743	1.01
552.087	1.01
552.431	1.01
552.774	1.01
553.118	1
553.462	1.01
553.805	1
554.148	1.01
554.492	1
554.835	1
555.178	1
555.522	1
555.865	1.01
556.208	1
556.551	1
556.894	1
557.237	0.99
557.58	1
557.923	0.99
558.266	0.99
558.609	0.99
558.952	0.99
559.294	1
559.637	0.99
559.98	0.99
560.322	0.98
560.665	0.99
561.007	0.99
561.35	0.99
561.692	0.99
562.034	0.99
562.377	0.98
562.719	0.98
563.061	0.98
563.403	0.98
563.745	0.98
564.088	0.98
564.43	0.98
564.772	0.98
565.113	0.98
565.455	0.97
565.797	0.98
566.139	0.98
566.481	0.97
566.822	0.97
567.164	0.97
567.506	0.96
567.847	0.96
568.189	0.97
568.53	0.96
568.872	0.96
569.213	0.96
569.554	0.95
569.895	0.95
570.237	0.95
570.578	0.95
570.919	0.95
571.26	0.94
571.601	0.94
571.942	0.94
572.283	0.94
572.624	0.93
572.965	0.93
573.306	0.93
573.646	0.93
573.987	0.92
574.328	0.92
574.668	0.92
575.009	0.91
575.349	0.92
575.69	0.91
576.03	0.91
576.37	0.91
576.711	0.9
577.051	0.91
577.391	0.9
577.731	0.91
578.072	0.9
578.412	0.89
578.752	0.89
579.092	0.89
579.431	0.88
579.771	0.87
580.111	0.85
580.451	0.86
580.791	0.88
581.13	0.88
581.47	0.88
581.81	0.88
582.149	0.87
582.489	0.88
582.828	0.86
583.167	0.84
583.507	0.79
583.846	0.79
584.185	0.81
584.525	0.83
584.864	0.85
585.203	0.87
585.542	0.86
585.881	0.87
586.22	0.86
586.559	0.85
586.898	0.84
587.236	0.84
587.575	0.83
587.914	0.84
588.252	0.85
588.591	0.85
588.93	0.85
589.268	0.85
589.607	0.85
589.945	0.85
590.283	0.84
590.622	0.84
590.96	0.85
591.298	0.85
591.636	0.84
591.974	0.85
592.313	0.85
592.651	0.85
592.989	0.85
593.326	0.85
593.664	0.85
594.002	0.84
594.34	0.84
594.678	0.84
595.015	0.83
595.353	0.83
595.691	0.83
596.028	0.84
596.366	0.84
596.703	0.84
597.04	0.84
597.378	0.83
597.715	0.84
598.052	0.84
598.389	0.84
598.726	0.84
599.064	0.84
599.401	0.83
599.738	0.83
600.074	0.83
600.411	0.83
600.748	0.82
601.085	0.82
601.422	0.82
601.758	0.81
602.095	0.81
602.432	0.81
602.768	0.81
603.105	0.82
603.441	0.82
603.777	0.82
604.114	0.82
604.45	0.82
604.786	0.81
605.122	0.81
605.459	0.81
605.795	0.81
606.131	0.8
606.467	0.8
606.803	0.8
607.139	0.8
607.474	0.8
607.81	0.79
608.146	0.79
608.482	0.79
608.817	0.79
609.153	0.78
609.488	0.78
609.824	0.79
610.159	0.77
610.495	0.78
610.83	0.78
611.165	0.78
611.5	0.77
611.836	0.77
612.171	0.76
612.506	0.76
612.841	0.76
613.176	0.76
613.511	0.76
613.845	0.75
614.18	0.75
614.515	0.75
614.85	0.75
615.184	0.75
615.519	0.74
615.854	0.74
616.188	0.74
616.523	0.73
616.857	0.73
617.191	0.73
617.526	0.72
617.86	0.73
618.194	0.72
618.528	0.72
618.862	0.72
619.196	0.72
619.53	0.72
619.864	0.71
620.198	0.71
620.532	0.7
620.866	0.71
621.2	0.7
621.533	0.69
621.867	0.7
622.201	0.69
622.534	0.69
622.868	0.69
623.201	0.68
623.534	0.68
623.868	0.68
624.201	0.68
624.534	0.67
624.868	0.67
625.201	0.67
625.534	0.66
625.867	0.67
626.2	0.66
626.533	0.66
626.865	0.65
627.198	0.65
627.531	0.65
627.864	0.64
628.196	0.64
628.529	0.64
628.862	0.63
629.194	0.63
629.527	0.62
629.859	0.63
630.191	0.62
630.524	0.62
630.856	0.61
631.188	0.61
631.52	0.61
631.852	0.6
632.184	0.6
632.516	0.59
632.848	0.6
633.18	0.59
633.512	0.59
633.844	0.58
634.175	0.58
634.507	0.58
634.839	0.57
635.17	0.57
635.502	0.57
635.833	0.56
636.165	0.56
636.496	0.56
636.827	0.55
637.159	0.55
637.49	0.54
637.821	0.53
638.152	0.53
638.483	0.53
638.814	0.53
639.145	0.52
639.476	0.52
639.807	0.52
640.137	0.51
640.468	0.51
640.799	0.51
641.129	0.5
641.46	0.5
641.791	0.5
642.121	0.5
642.451	0.49
642.782	0.48
643.112	0.48
643.442	0.48
643.773	0.48
644.103	0.48
644.433	0.47
644.763	0.47
645.093	0.47
645.423	0.47
645.753	0.47
646.082	0.46
646.412	0.46
646.742	0.46
647.072	0.45
647.401	0.45
647.731	0.45
648.06	0.45
648.39	0.45
648.719	0.44
649.048	0.44
649.378	0.44
649.707	0.44
650.036	0.43
650.365	0.44
650.694	0.43
651.023	0.43
651.352	0.43
651.681	0.43
652.01	0.43
652.339	0.42
652.668	0.42
652.996	0.42
653.325	0.42
653.654	0.42
653.982	0.42
654.311	0.42
654.639	0.42
654.967	0.41
655.296	0.41
655.624	0.41
655.952	0.41
656.28	0.41
656.609	0.41
656.937	0.41
657.265	0.4
657.593	0.28
657.92	0.17
658.248	0.13
658.576	0.16
658.904	0.25
659.231	0.34
659.559	0.39
659.887	0.39
660.214	0.39
660.542	0.38
660.869	0.38
661.196	0.38
661.524	0.38
661.851	0.38
662.178	0.38
662.505	0.37
662.832	0.37
663.159	0.37
663.486	0.37
663.813	0.37
664.14	0.36
664.467	0.37
664.794	0.37
665.12	0.37
665.447	0.36
665.774	0.36
666.1	0.36
666.427	0.36
666.753	0.36
667.079	0.35
667.406	0.35
667.732	0.35
668.058	0.35
668.384	0.35
668.71	0.34
669.036	0.34
669.362	0.34
669.688	0.34
670.014	0.34
670.34	0.33
670.666	0.33
670.991	0.33
671.317	0.33
671.643	0.33
671.968	0.32
672.294	0.32
672.619	0.32
672.945	0.31
673.27	0.31
673.595	0.31
673.92	0.3
674.246	0.31
674.571	0.3
674.896	0.3
675.221	0.3
675.546	0.3
675.87	0.3
676.195	0.3
676.52	0.29
676.845	0.29
677.169	0.29
677.494	0.28
677.819	0.28
678.143	0.28
678.468	0.27
678.792	0.28
679.116	0.27
679.44	0.27
679.765	0.26
680.089	0.26
680.413	0.26
680.737	0.26
681.061	0.25
681.385	0.25
681.709	0.25
682.033	0.24
682.356	0.24
682.68	0.24
683.004	0.24
683.327	0.24
683.651	0.23
683.974	0.23
684.298	0.23
684.621	0.23
684.944	0.22
685.268	0.22
685.591	0.22
685.914	0.22
686.237	0.21
686.56	0.21
686.883	0.2
687.206	0.2
687.529	0.2
687.852	0.2
688.175	0.2
688.497	0.2
688.82	0.2
689.142	0.19
689.465	0.19
689.787	0.19
690.11	0.19
690.432	0.18
690.755	0.18
691.077	0.18
691.399	0.18
691.721	0.18
692.043	0.18
692.365	0.17
692.687	0.17
693.009	0.17
693.331	0.17
693.653	0.16
693.974	0.16
694.296	0.16
694.618	0.16
694.939	0.16
695.261	0.15
695.582	0.15
695.904	0.15
696.225	0.15
696.546	0.15
696.868	0.15
697.189	0.15
697.51	0.15
697.831	0.14
698.152	0.14
698.473	0.14
698.794	0.14
699.114	0.13
699.435	0.12
699.756	0.13
700.077	0.13
700.397	0.13
700.718	0.13
701.038	0.13
701.359	0.13
701.679	0.13
701.999	0.13
702.32	0.13
702.64	0.13
702.96	0.13
703.28	0.13
703.6	0.12
703.92	0.12
704.24	0.12
704.56	0.12
704.879	0.12
705.199	0.12
705.519	0.12
705.838	0.12
706.158	0.12
706.478	0.12
706.797	0.12
707.116	0.12
707.436	0.12
707.755	0.12
708.074	0.12
708.393	0.12
708.712	0.11
709.031	0.1
709.35	0.1
709.669	0.1
709.988	0.1
710.307	0.1
710.626	0.1
710.944	0.11
711.263	0.11
711.582	0.11
711.9	0.11
712.219	0.11
712.537	0.11
712.855	0.11
713.174	0.11
713.492	0.11
713.81	0.12
714.128	0.11
714.446	0.11
714.764	0.11
715.082	0.1
715.4	0.11
715.718	0.11
716.035	0.11
716.353	0.11
716.671	0.11
716.988	0.11
717.306	0.11
717.623	0.11
717.941	0.12
718.258	0.12
718.575	0.12
718.893	0.12
719.21	0.11
719.527	0.12
719.844	0.11
720.161	0.11
720.478	0.12
720.795	0.11
721.112	0.12
721.428	0.12
721.745	0.12
722.062	0.11
722.378	0.12
722.695	0.12
723.011	0.12
723.328	0.12
723.644	0.12
723.96	0.12
724.276	0.12
724.593	0.12
724.909	0.12
725.225	0.12
725.541	0.12
725.857	0.12
726.173	0.12
726.488	0.12
726.804	0.12
727.12	0.12
727.435	0.12
727.751	0.12
728.067	0.12
728.382	0.12
728.697	0.12
729.013	0.12
729.328	0.12
729.643	0.12
729.958	0.12
730.273	0.12
730.588	0.12
730.903	0.12
731.218	0.12
731.533	0.12
731.848	0.12
732.163	0.12
732.477	0.11
732.792	0.11
733.107	0.11
733.421	0.11
733.736	0.11
734.05	0.11
734.364	0.11
734.678	0.12
734.993	0.11
735.307	0.11
735.621	0.11
735.935	0.11
736.249	0.11
736.563	0.11
736.877	0.11
737.19	0.11
737.504	0.11
737.818	0.11
738.131	0.11
738.445	0.11
738.758	0.11
739.072	0.11
739.385	0.11
739.698	0.11
740.012	0.11
740.325	0.11
740.638	0.1
740.951	0.11
741.264	0.1
741.577	0.1
741.89	0.1
742.203	0.11
742.515	0.11
742.828	0.1
743.141	0.1
743.453	0.1
743.766	0.1
744.078	0.1
744.391	0.1
744.703	0.1
745.015	0.1
745.327	0.1
745.639	0.1
745.952	0.09
746.264	0.09
746.575	0.09
746.887	0.09
747.199	0.09
747.511	0.09
747.823	0.09
748.134	0.09
748.446	0.09
748.757	0.09
749.069	0.08
749.38	0.08
749.692	0.08
750.003	0.08
750.314	0.08
750.625	0.08
750.936	0.08
751.248	0.08
751.559	0.09
751.869	0.09
752.18	0.09
752.491	0.08
752.802	0.08
753.112	0.08
753.423	0.08
753.734	0.08
754.044	0.08
754.355	0.08
754.665	0.08
754.975	0.07
755.285	0.07
755.596	0.07
755.906	0.07
756.216	0.07
756.526	0.07
756.836	0.07
757.146	0.07
757.455	0.07
757.765	0.07
758.075	0.06
758.385	0.06
758.694	0.06
759.004	0.06
759.313	0.06
759.622	0.06
759.932	0.06
760.241	0.07
760.55	0.06
760.859	0.06
761.168	0.07
761.477	0.06
761.786	0.06
762.095	0.06
762.404	0.06
762.713	0.06
763.021	0.06
763.33	0.06
763.639	0.07
763.947	0.06
764.256	0.06
764.564	0.06
764.872	0.06
765.181	0.06
765.489	0.06
765.797	0.06
766.105	0.06
766.413	0.06
766.721	0.06
767.029	0.06
767.337	0.06
767.644	0.06
767.952	0.06
768.26	0.06
768.567	0.06
768.875	0.06
769.182	0.06
769.49	0.06
769.797	0.06
770.104	0.06
770.411	0.06
770.718	0.06
771.026	0.06
771.333	0.06
771.639	0.06
771.946	0.06
772.253	0.06
772.56	0.06
772.867	0.06
773.173	0.06
773.48	0.06
773.786	0.06
774.093	0.06
774.399	0.06
774.705	0.06
775.012	0.06
775.318	0.06
775.624	0.06
775.93	0.06
776.236	0.06
776.542	0.06
776.848	0.07
777.154	0.06
777.459	0.06
777.765	0.06
778.071	0.06
778.376	0.06
778.682	0.06
778.987	0.06
779.292	0.06
779.598	0.06
779.903	0.06
780.208	0.07
780.513	0.06
780.818	0.06
781.123	0.06
781.428	0.06
781.733	0.06
782.038	0.06
782.343	0.06
782.647	0.06
782.952	0.06
783.256	0.06
783.561	0.06
783.865	0.06
784.17	0.07
784.474	0.07
784.778	0.07
785.082	0.07
785.386	0.07
785.69	0.07
785.994	0.07
786.298	0.07
786.602	0.07
786.906	0.07
787.209	0.07
787.513	0.07
787.817	0.08
788.12	0.07
788.424	0.07
788.727	0.07
789.03	0.07
789.333	0.07
789.637	0.07
789.94	0.07
790.243	0.07
790.546	0.08
790.849	0.08
791.152	0.08
791.454	0.08
791.757	0.07
792.06	0.08
792.362	0.08
792.665	0.08
792.967	0.07
793.27	0.08
793.572	0.08
793.874	0.08
794.177	0.08
794.479	0.08
794.781	0.08
795.083	0.07
795.385	0.08
795.687	0.07
795.989	0.08
796.29	0.08
796.592	0.08
796.894	0.08
797.195	0.08
797.497	0.08
797.798	0.09
798.1	0.09
798.401	0.08
798.702	0.08
799.003	0.08
799.304	0.08
799.605	0.08
799.906	0.08
800.207	0.08
800.508	0.08
800.809	0.08
801.11	0.08
801.41	0.08
801.711	0.08
802.011	0.08
802.312	0.08
802.612	0.09
802.913	0.09
803.213	0.09
803.513	0.08
803.813	0.08
804.113	0.08
804.413	0.08
804.713	0.08
805.013	0.08
805.313	0.08
805.613	0.08
805.912	0.09
806.212	0.08
806.511	0.09
806.811	0.08
807.11	0.08
807.41	0.09
807.709	0.09
808.008	0.09
808.307	0.09
808.606	0.1
808.905	0.1
809.204	0.1
809.503	0.1
809.802	0.1
810.101	0.09
810.399	0.09
810.698	0.1
810.997	0.09
811.295	0.09
811.593	0.09
811.892	0.1
812.19	0.09
812.488	0.09
812.786	0.09
813.084	0.09
813.383	0.09
813.68	0.09
813.978	0.09
814.276	0.1
814.574	0.1
814.872	0.1
815.169	0.1
815.467	0.1
815.764	0.1
816.062	0.11
816.359	0.11
816.656	0.11
816.954	0.11
817.251	0.11
817.548	0.11
817.845	0.11
818.142	0.11
818.439	0.11
818.735	0.11
819.032	0.11
819.329	0.1
819.626	0.1
819.922	0.11
820.219	0.11
820.515	0.11
820.811	0.11
821.108	0.11
821.404	0.11
821.7	0.11
821.996	0.12
822.292	0.11
822.588	0.11
822.884	0.12
823.18	0.12
823.475	0.11
823.771	0.12
824.067	0.12
824.362	0.12
824.658	0.11
824.953	0.11
825.249	0.11
825.544	0.12
825.839	0.12
826.134	0.11
826.429	0.12
826.724	0.12
827.019	0.12
827.314	0.12
827.609	0.12
827.904	0.13
828.198	0.12
828.493	0.11
828.787	0.12
829.082	0.12
829.376	0.12
829.671	0.12
829.965	0.13
830.259	0.13
830.553	0.13
830.847	0.13
831.141	0.13
831.435	0.13
831.729	0.13
832.023	0.13
832.317	0.14
832.61	0.13
832.904	0.13
833.197	0.13
833.491	0.13
833.784	0.14
834.077	0.13
834.371	0.13
834.664	0.13
834.957	0.13
835.25	0.13
835.543	0.13
835.836	0.12
836.129	0.12
836.421	0.13
836.714	0.13
837.007	0.13
837.299	0.14
837.592	0.13
837.884	0.14
838.177	0.14
838.469	0.13
838.761	0.13
839.053	0.13
839.345	0.14
839.637	0.13
839.929	0.15
840.221	0.14
840.513	0.14
840.805	0.14
841.096	0.13
841.388	0.14
841.68	0.14
841.971	0.14
842.262	0.14
842.554	0.14
842.845	0.14
843.136	0.14
843.427	0.15
843.718	0.15
844.009	0.15
844.3	0.15
844.591	0.15
844.882	0.15
845.173	0.14
845.463	0.14
845.754	0.15
846.044	0.16
846.335	0.16
846.625	0.16
846.915	0.15
847.206	0.15
847.496	0.16
847.786	0.16
848.076	0.16
848.366	0.16
848.656	0.16
848.945	0.15
849.235	0.15
849.525	0.15
849.814	0.15
850.104	0.16
850.393	0.16
850.683	0.16
850.972	0.15
851.261	0.16
851.551	0.16
851.84	0.16
852.129	0.15
852.418	0.16
852.707	0.17
852.995	0.16
853.284	0.17
853.573	0.16
853.862	0.16
854.15	0.16
854.439	0.16
854.727	0.15
855.015	0.16
855.304	0.16
855.592	0.17
855.88	0.17
856.168	0.16
856.456	0.18
856.744	0.17
857.032	0.18
857.32	0.16
857.607	0.16
857.895	0.19
858.183	0.18
858.47	0.17
858.757	0.19
859.045	0.18
859.332	0.16
859.619	0.17
859.907	0.18
860.194	0.18
860.481	0.17
860.768	0.18
861.054	0.17
861.341	0.18
861.628	0.17
861.915	0.17
862.201	0.19
862.488	0.19
862.774	0.18
863.061	0.18
863.347	0.18
863.633	0.17
863.919	0.19
864.205	0.16
864.491	0.16
864.777	0.17
865.063	0.18
865.349	0.18
865.635	0.21
865.92	0.2
866.206	0.2
866.492	0.19
866.777	0.19
867.062	0.18
867.348	0.18
867.633	0.16
867.918	0.21
868.203	0.18
868.488	0.2
868.773	0.16
869.058	0.17
869.343	0.2
869.628	0.17
869.912	0.18
870.197	0.17
870.482	0.17
870.766	0.18
871.05	0.18
871.335	0.17
871.619	0.17
871.903	0.22
872.187	0.17
872.471	0.19
872.755	0.17
873.039	0.17
873.323	0.14
873.607	0.17
873.89	0.2
874.174	0.18
874.458	0.14
874.741	0.18
875.024	0.2
875.308	0.18
875.591	0.15
875.874	0.17
876.157	0.23
876.44	0.2
876.723	0.19
877.006	0.19
877.289	0.12
877.572	0.18
877.854	0.13
878.137	0.07
878.42	0.13
878.702	0.2
878.984	0.19
879.267	0.19
879.549	0.14
879.831	0.23
880.113	0.3
880.395	0.2
880.677	0.22
880.959	0.14
