Data from Rubpy_BV_1500_EDTA_Buffered_Absorbance_14-31-21-732.txt Node
Date: Wed Jul 01 14:31:21 BST 2026
User: fpm-admin
Spectrometer: OFX00224
Trigger mode: 0
Integration Time (sec): 7.000000E-2
Scans to average: 3
Nonlinearity correction enabled: false
Boxcar width: 0
Storing dark spectrum: false
XAxis mode: Wavelengths
Number of Pixels in Spectrum: 2136
>>>>>Begin Spectral Data<<<<<
154.91	-0.26
155.289	0.08
155.669	-0.78
156.048	-0.21
156.428	-0
156.807	0.9
157.186	-0.57
157.566	-0.12
157.945	1.18
158.325	0.09
158.704	-0
159.083	0.21
159.462	-0
159.842	0.1
160.221	-0.3
160.6	-0
160.979	-0.03
161.359	0.6
161.738	-0
162.117	-0.09
162.496	-0.53
162.875	-0
163.254	0.4
163.633	0.4
164.012	0.18
164.391	0.53
164.77	0.32
165.149	0.5
165.528	-0
165.907	0.36
166.286	0.3
166.665	-0.02
167.044	0.28
167.423	-0
167.802	-0
168.181	-0
168.559	-0.01
168.938	0.08
169.317	0.62
169.696	-0
170.074	-0
170.453	-0.17
170.832	0.45
171.21	0.37
171.589	-0
171.968	-0.57
172.346	0.21
172.725	-0
173.103	-0
173.482	-1.22
173.861	-0.13
174.239	-0.95
174.617	-0
174.996	-0
175.374	-0.11
175.753	-0.27
176.131	-0
176.51	0.23
176.888	0.72
177.266	-0
177.645	0.11
178.023	1.47
178.401	-0.13
178.779	-0.07
179.158	0.26
179.536	-0.25
179.914	-0
180.292	0.46
180.67	-0
181.048	0.35
181.427	-0.28
181.805	-0.24
182.183	-0
182.561	0.47
182.939	-0
183.317	-0.19
183.695	0.19
184.073	0.32
184.451	-0.16
184.829	-0
185.206	-0
185.584	0.02
185.962	-0.12
186.34	-0
186.718	-0.48
187.096	-0
187.473	-0.16
187.851	-0
188.229	0.51
188.607	0.23
188.984	0.38
189.362	0.41
189.74	0.23
190.117	0.29
190.495	0.13
190.872	0.39
191.25	0.48
191.627	0.14
192.005	0.23
192.382	0.45
192.76	0.3
193.137	0.31
193.515	0.27
193.892	0.19
194.269	0.19
194.647	0.41
195.024	0.45
195.401	0.27
195.779	0.27
196.156	0.38
196.533	0.42
196.91	0.32
197.288	0.3
197.665	0.22
198.042	0.46
198.419	0.41
198.796	0.27
199.173	0.28
199.55	0.27
199.927	0.23
200.304	0.33
200.681	0.34
201.058	0.26
201.435	0.33
201.812	0.44
202.189	0.45
202.566	0.22
202.943	0.23
203.32	0.27
203.697	0.34
204.073	0.25
204.45	0.26
204.827	0.36
205.204	0.19
205.58	0.32
205.957	0.36
206.334	0.15
206.71	0.24
207.087	0.43
207.464	0.19
207.84	0.23
208.217	0.27
208.593	0.4
208.97	0.29
209.346	0.44
209.723	0.3
210.099	0.32
210.476	0.35
210.852	0.37
211.228	0.32
211.605	0.27
211.981	0.2
212.357	0.28
212.733	0.29
213.11	0.4
213.486	0.22
213.862	0.21
214.238	0.48
214.614	0.21
214.991	0.22
215.367	0.29
215.743	0.29
216.119	0.42
216.495	0.49
216.871	0.41
217.247	0.31
217.623	0.29
217.999	0.23
218.375	0.42
218.751	0.3
219.127	0.28
219.502	0.24
219.878	0.29
220.254	0.28
220.63	0.51
221.006	0.23
221.381	0.41
221.757	0.41
222.133	0.2
222.508	0.37
222.884	0.34
223.26	0.3
223.635	0.37
224.011	0.34
224.386	0.4
224.762	0.35
225.137	0.29
225.513	0.43
225.888	0.45
226.264	0.5
226.639	0.42
227.014	0.38
227.39	0.45
227.765	0.41
228.14	0.28
228.516	0.33
228.891	0.44
229.266	0.54
229.641	0.29
230.017	0.25
230.392	0.4
230.767	0.34
231.142	0.42
231.517	0.28
231.892	0.44
232.267	0.45
232.642	0.31
233.017	0.25
233.392	0.32
233.767	0.25
234.142	0.32
234.517	0.36
234.892	0.37
235.267	0.36
235.641	0.32
236.016	0.33
236.391	0.45
236.766	0.35
237.14	0.3
237.515	0.26
237.89	0.34
238.264	0.5
238.639	0.36
239.014	0.36
239.388	0.26
239.763	0.41
240.137	0.3
240.512	0.31
240.886	0.38
241.261	0.26
241.635	0.3
242.009	0.26
242.384	0.42
242.758	0.32
243.132	0.38
243.507	0.24
243.881	0.25
244.255	0.3
244.629	0.28
245.004	0.33
245.378	0.31
245.752	0.24
246.126	0.51
246.5	0.26
246.874	0.36
247.248	0.35
247.622	0.18
247.996	0.32
248.37	0.43
248.744	0.39
249.118	0.38
249.492	0.39
249.866	0.41
250.24	0.41
250.613	0.42
250.987	0.36
251.361	0.29
251.735	0.29
252.108	0.42
252.482	0.33
252.856	0.41
253.229	0.42
253.603	0.33
253.977	0.32
254.35	0.46
254.724	0.28
255.097	0.38
255.471	0.3
255.844	0.39
256.218	0.42
256.591	0.39
256.964	0.23
257.338	0.25
257.711	0.3
258.084	0.35
258.458	0.29
258.831	0.27
259.204	0.35
259.577	0.33
259.95	0.31
260.323	0.32
260.697	0.27
261.07	0.33
261.443	0.55
261.816	0.38
262.189	0.43
262.562	0.26
262.935	0.28
263.308	0.28
263.68	0.27
264.053	0.37
264.426	0.36
264.799	0.46
265.172	0.36
265.545	0.48
265.917	0.31
266.29	0.41
266.663	0.33
267.035	0.43
267.408	0.37
267.781	0.46
268.153	0.35
268.526	0.29
268.898	0.29
269.271	0.33
269.643	0.37
270.016	0.31
270.388	0.48
270.76	0.31
271.133	0.28
271.505	0.35
271.877	0.47
272.25	0.34
272.622	0.53
272.994	0.36
273.366	0.34
273.739	0.3
274.111	0.36
274.483	0.32
274.855	0.38
275.227	0.35
275.599	0.37
275.971	0.34
276.343	0.32
276.715	0.3
277.087	0.41
277.459	0.35
277.831	0.43
278.203	0.29
278.574	0.31
278.946	0.39
279.318	0.38
279.69	0.28
280.061	0.31
280.433	0.32
280.805	0.24
281.176	0.39
281.548	0.48
281.92	0.33
282.291	0.38
282.663	0.39
283.034	0.25
283.406	0.32
283.777	0.38
284.148	0.36
284.52	0.34
284.891	0.39
285.262	0.37
285.634	0.29
286.005	0.29
286.376	0.38
286.747	0.27
287.119	0.47
287.49	0.23
287.861	0.28
288.232	0.34
288.603	0.41
288.974	0.35
289.345	0.38
289.716	0.31
290.087	0.4
290.458	0.54
290.829	0.28
291.2	0.39
291.571	0.35
291.941	0.31
292.312	0.32
292.683	0.33
293.054	0.38
293.424	0.26
293.795	0.26
294.166	0.32
294.536	0.3
294.907	0.41
295.277	0.34
295.648	0.36
296.018	0.34
296.389	0.38
296.759	0.34
297.13	0.34
297.5	0.41
297.871	0.33
298.241	0.32
298.611	0.46
298.981	0.37
299.352	0.31
299.722	0.38
300.092	0.32
300.462	0.27
300.832	0.35
301.202	0.38
301.573	0.31
301.943	0.29
302.313	0.39
302.683	0.35
303.053	0.42
303.422	0.36
303.792	0.32
304.162	0.33
304.532	0.3
304.902	0.3
305.272	0.34
305.641	0.29
306.011	0.36
306.381	0.28
306.75	0.32
307.12	0.24
307.49	0.33
307.859	0.27
308.229	0.28
308.598	0.29
308.968	0.25
309.337	0.24
309.707	0.26
310.076	0.27
310.445	0.31
310.815	0.25
311.184	0.26
311.553	0.21
311.923	0.26
312.292	0.29
312.661	0.26
313.03	0.3
313.399	0.27
313.768	0.29
314.137	0.27
314.506	0.3
314.875	0.3
315.244	0.31
315.613	0.3
315.982	0.32
316.351	0.3
316.72	0.32
317.089	0.34
317.458	0.34
317.826	0.33
318.195	0.33
318.564	0.34
318.933	0.37
319.301	0.35
319.67	0.37
320.038	0.38
320.407	0.37
320.775	0.37
321.144	0.38
321.512	0.4
321.881	0.41
322.249	0.39
322.618	0.4
322.986	0.41
323.354	0.42
323.723	0.43
324.091	0.42
324.459	0.43
324.827	0.43
325.195	0.45
325.564	0.45
325.932	0.45
326.3	0.45
326.668	0.46
327.036	0.48
327.404	0.48
327.772	0.5
328.14	0.5
328.508	0.51
328.875	0.5
329.243	0.53
329.611	0.53
329.979	0.54
330.346	0.55
330.714	0.56
331.082	0.57
331.449	0.57
331.817	0.58
332.185	0.58
332.552	0.6
332.92	0.61
333.287	0.63
333.655	0.63
334.022	0.65
334.389	0.67
334.757	0.67
335.124	0.69
335.491	0.7
335.859	0.72
336.226	0.73
336.593	0.74
336.96	0.76
337.327	0.76
337.695	0.78
338.062	0.79
338.429	0.8
338.796	0.84
339.163	0.83
339.53	0.85
339.897	0.87
340.263	0.89
340.63	0.9
340.997	0.91
341.364	0.92
341.731	0.95
342.097	0.97
342.464	0.97
342.831	1
343.197	1
343.564	1.02
343.931	1.03
344.297	1.06
344.664	1.06
345.03	1.09
345.396	1.1
345.763	1.12
346.129	1.12
346.496	1.15
346.862	1.17
347.228	1.17
347.594	1.19
347.961	1.21
348.327	1.24
348.693	1.26
349.059	1.25
349.425	1.26
349.791	1.28
350.157	1.3
350.523	1.3
350.889	1.33
351.255	1.34
351.621	1.34
351.987	1.36
352.353	1.37
352.719	1.4
353.084	1.42
353.45	1.41
353.816	1.45
354.181	1.45
354.547	1.48
354.913	1.5
355.278	1.51
355.644	1.51
356.009	1.54
356.375	1.54
356.74	1.59
357.106	1.59
357.471	1.59
357.836	1.59
358.202	1.63
358.567	1.65
358.932	1.7
359.297	1.69
359.663	1.72
360.028	1.72
360.393	1.74
360.758	1.77
361.123	1.77
361.488	1.79
361.853	1.77
362.218	1.8
362.583	1.83
362.948	1.82
363.312	1.88
363.677	1.89
364.042	1.86
364.407	1.9
364.772	1.92
365.136	1.93
365.501	1.93
365.865	1.93
366.23	1.94
366.595	1.96
366.959	1.97
367.324	1.97
367.688	1.98
368.052	2
368.417	2
368.781	1.98
369.145	1.98
369.51	2.05
369.874	2.04
370.238	2.06
370.602	2.04
370.967	1.99
371.331	2.03
371.695	1.97
372.059	2.01
372.423	2.07
372.787	2.01
373.151	2.07
373.515	2.04
373.878	2.05
374.242	2.06
374.606	2
374.97	2
375.334	1.95
375.697	1.99
376.061	1.98
376.425	2
376.788	2
377.152	1.93
377.515	1.97
377.879	1.97
378.242	1.92
378.606	1.93
378.969	1.88
379.333	1.9
379.696	1.87
380.059	1.86
380.422	1.84
380.786	1.78
381.149	1.82
381.512	1.78
381.875	1.76
382.238	1.76
382.601	1.7
382.964	1.7
383.327	1.68
383.69	1.68
384.053	1.65
384.416	1.62
384.779	1.63
385.142	1.63
385.504	1.6
385.867	1.58
386.23	1.55
386.593	1.55
386.955	1.52
387.318	1.53
387.68	1.53
388.043	1.51
388.405	1.51
388.768	1.5
389.13	1.49
389.493	1.48
389.855	1.46
390.217	1.46
390.58	1.45
390.942	1.43
391.304	1.43
391.666	1.39
392.028	1.36
392.391	1.36
392.753	1.33
393.115	1.3
393.477	1.28
393.839	1.27
394.201	1.27
394.563	1.26
394.924	1.25
395.286	1.24
395.648	1.25
396.01	1.24
396.371	1.26
396.733	1.27
397.095	1.29
397.456	1.31
397.818	1.31
398.18	1.34
398.541	1.36
398.903	1.38
399.264	1.4
399.625	1.46
399.987	1.47
400.348	1.51
400.709	1.5
401.071	1.54
401.432	1.53
401.793	1.52
402.154	1.5
402.515	1.49
402.876	1.47
403.238	1.44
403.599	1.4
403.96	1.36
404.32	1.32
404.681	1.27
405.042	1.24
405.403	1.18
405.764	1.14
406.125	1.09
406.485	1.03
406.846	0.98
407.207	0.93
407.567	0.89
407.928	0.84
408.288	0.8
408.649	0.76
409.009	0.72
409.37	0.68
409.73	0.64
410.091	0.61
410.451	0.58
410.811	0.55
411.171	0.52
411.532	0.5
411.892	0.48
412.252	0.46
412.612	0.44
412.972	0.42
413.332	0.4
413.692	0.39
414.052	0.37
414.412	0.36
414.772	0.35
415.132	0.34
415.492	0.33
415.851	0.31
416.211	0.31
416.571	0.3
416.931	0.29
417.29	0.28
417.65	0.27
418.009	0.27
418.369	0.27
418.728	0.26
419.088	0.25
419.447	0.24
419.807	0.24
420.166	0.23
420.525	0.23
420.884	0.23
421.244	0.22
421.603	0.22
421.962	0.22
422.321	0.22
422.68	0.21
423.039	0.2
423.398	0.2
423.757	0.19
424.116	0.2
424.475	0.2
424.834	0.2
425.193	0.19
425.551	0.19
425.91	0.18
426.269	0.18
426.628	0.19
426.986	0.18
427.345	0.18
427.703	0.18
428.062	0.17
428.42	0.18
428.779	0.17
429.137	0.17
429.496	0.17
429.854	0.17
430.212	0.17
430.57	0.17
430.929	0.16
431.287	0.16
431.645	0.16
432.003	0.16
432.361	0.16
432.719	0.17
433.077	0.17
433.435	0.16
433.793	0.16
434.151	0.17
434.509	0.17
434.866	0.17
435.224	0.16
435.582	0.17
435.94	0.17
436.297	0.16
436.655	0.15
437.012	0.16
437.37	0.16
437.727	0.16
438.085	0.16
438.442	0.17
438.8	0.16
439.157	0.17
439.514	0.17
439.872	0.16
440.229	0.17
440.586	0.17
440.943	0.17
441.3	0.17
441.657	0.17
442.014	0.17
442.371	0.17
442.728	0.17
443.085	0.19
443.442	0.18
443.799	0.17
444.156	0.17
444.513	0.17
444.869	0.17
445.226	0.18
445.583	0.18
445.939	0.18
446.296	0.19
446.652	0.19
447.009	0.18
447.365	0.18
447.722	0.19
448.078	0.19
448.434	0.2
448.791	0.19
449.147	0.18
449.503	0.19
449.859	0.2
450.215	0.2
450.571	0.19
450.928	0.2
451.284	0.2
451.64	0.2
451.995	0.2
452.351	0.21
452.707	0.21
453.063	0.2
453.419	0.2
453.775	0.21
454.13	0.21
454.486	0.22
454.842	0.22
455.197	0.21
455.553	0.23
455.908	0.21
456.264	0.22
456.619	0.22
456.975	0.22
457.33	0.23
457.685	0.23
458.04	0.22
458.396	0.23
458.751	0.22
459.106	0.23
459.461	0.25
459.816	0.25
460.171	0.24
460.526	0.24
460.881	0.25
461.236	0.25
461.591	0.26
461.946	0.25
462.301	0.25
462.655	0.26
463.01	0.26
463.365	0.26
463.719	0.26
464.074	0.26
464.428	0.26
464.783	0.26
465.137	0.27
465.492	0.27
465.846	0.27
466.201	0.27
466.555	0.27
466.909	0.27
467.263	0.28
467.618	0.29
467.972	0.29
468.326	0.29
468.68	0.29
469.034	0.3
469.388	0.3
469.742	0.3
470.096	0.31
470.45	0.31
470.804	0.31
471.157	0.31
471.511	0.32
471.865	0.33
472.218	0.33
472.572	0.34
472.926	0.33
473.279	0.34
473.633	0.34
473.986	0.35
474.34	0.35
474.693	0.36
475.046	0.36
475.4	0.37
475.753	0.37
476.106	0.37
476.459	0.38
476.812	0.38
477.165	0.39
477.519	0.4
477.872	0.39
478.224	0.4
478.577	0.42
478.93	0.41
479.283	0.41
479.636	0.43
479.989	0.43
480.341	0.43
480.694	0.44
481.047	0.43
481.399	0.44
481.752	0.45
482.104	0.45
482.457	0.46
482.809	0.46
483.162	0.47
483.514	0.47
483.866	0.48
484.219	0.47
484.571	0.49
484.923	0.49
485.275	0.49
485.627	0.5
485.979	0.5
486.331	0.51
486.683	0.51
487.035	0.52
487.387	0.52
487.739	0.52
488.091	0.53
488.443	0.53
488.794	0.54
489.146	0.54
489.498	0.55
489.849	0.54
490.201	0.55
490.552	0.57
490.904	0.57
491.255	0.57
491.607	0.58
491.958	0.58
492.309	0.58
492.661	0.59
493.012	0.59
493.363	0.59
493.714	0.6
494.065	0.61
494.416	0.6
494.767	0.61
495.118	0.63
495.469	0.62
495.82	0.63
496.171	0.64
496.522	0.64
496.872	0.64
497.223	0.65
497.574	0.65
497.924	0.65
498.275	0.65
498.626	0.66
498.976	0.68
499.327	0.67
499.677	0.67
500.027	0.68
500.378	0.68
500.728	0.69
501.078	0.7
501.428	0.7
501.779	0.71
502.129	0.72
502.479	0.72
502.829	0.72
503.179	0.72
503.529	0.72
503.879	0.73
504.229	0.74
504.578	0.75
504.928	0.75
505.278	0.75
505.628	0.76
505.977	0.76
506.327	0.77
506.676	0.77
507.026	0.78
507.375	0.79
507.725	0.78
508.074	0.78
508.424	0.79
508.773	0.79
509.122	0.8
509.471	0.81
509.82	0.8
510.17	0.8
510.519	0.81
510.868	0.83
511.217	0.82
511.566	0.83
511.915	0.83
512.263	0.84
512.612	0.84
512.961	0.84
513.31	0.84
513.659	0.85
514.007	0.86
514.356	0.86
514.704	0.87
515.053	0.87
515.401	0.87
515.75	0.88
516.098	0.88
516.447	0.89
516.795	0.89
517.143	0.89
517.491	0.9
517.839	0.9
518.188	0.9
518.536	0.9
518.884	0.91
519.232	0.91
519.58	0.92
519.928	0.92
520.275	0.91
520.623	0.92
520.971	0.93
521.319	0.93
521.666	0.94
522.014	0.93
522.362	0.94
522.709	0.95
523.057	0.95
523.404	0.95
523.752	0.95
524.099	0.95
524.446	0.96
524.794	0.96
525.141	0.95
525.488	0.97
525.835	0.98
526.182	0.97
526.529	0.97
526.876	0.98
527.223	0.98
527.57	0.98
527.917	0.98
528.264	0.99
528.611	0.98
528.958	0.99
529.304	0.99
529.651	0.99
529.998	1
530.344	0.99
530.691	1.01
531.037	1.01
531.384	1.01
531.73	1.01
532.076	1.01
532.423	1.02
532.769	1.01
533.115	1.01
533.461	1.02
533.807	1.01
534.154	1.02
534.5	1.02
534.846	1.03
535.192	1.02
535.537	1.02
535.883	1.02
536.229	1.03
536.575	1.03
536.921	1.04
537.266	1.04
537.612	1.04
537.957	1.04
538.303	1.04
538.649	1.05
538.994	1.04
539.339	1.05
539.685	1.05
540.03	1.05
540.375	1.05
540.721	1.04
541.066	1.05
541.411	1.05
541.756	1.06
542.101	1.06
542.446	1.05
542.791	1.06
543.136	1.06
543.481	1.05
543.825	1.06
544.17	1.07
544.515	1.06
544.86	1.06
545.204	1.06
545.549	1.06
545.893	1.06
546.238	1.07
546.582	1.07
546.927	1.06
547.271	1.06
547.615	1.07
547.96	1.08
548.304	1.07
548.648	1.08
548.992	1.06
549.336	1.07
549.68	1.07
550.024	1.08
550.368	1.08
550.712	1.08
551.056	1.07
551.4	1.07
551.743	1.07
552.087	1.08
552.431	1.07
552.774	1.07
553.118	1.06
553.462	1.06
553.805	1.06
554.148	1.07
554.492	1.07
554.835	1.06
555.178	1.06
555.522	1.06
555.865	1.06
556.208	1.06
556.551	1.06
556.894	1.06
557.237	1.06
557.58	1.06
557.923	1.06
558.266	1.06
558.609	1.05
558.952	1.06
559.294	1.06
559.637	1.06
559.98	1.05
560.322	1.05
560.665	1.06
561.007	1.05
561.35	1.05
561.692	1.05
562.034	1.05
562.377	1.04
562.719	1.04
563.061	1.04
563.403	1.04
563.745	1.04
564.088	1.04
564.43	1.04
564.772	1.04
565.113	1.04
565.455	1.04
565.797	1.04
566.139	1.04
566.481	1.03
566.822	1.04
567.164	1.02
567.506	1.02
567.847	1.02
568.189	1.02
568.53	1.02
568.872	1.02
569.213	1.02
569.554	1.01
569.895	1.01
570.237	1.01
570.578	1.01
570.919	1
571.26	1
571.601	1
571.942	1
572.283	1
572.624	0.99
572.965	0.99
573.306	0.99
573.646	0.98
573.987	0.98
574.328	0.98
574.668	0.98
575.009	0.98
575.349	0.97
575.69	0.97
576.03	0.97
576.37	0.96
576.711	0.96
577.051	0.96
577.391	0.96
577.731	0.96
578.072	0.95
578.412	0.95
578.752	0.95
579.092	0.95
579.431	0.94
579.771	0.92
580.111	0.91
580.451	0.92
580.791	0.93
581.13	0.94
581.47	0.93
581.81	0.93
582.149	0.93
582.489	0.93
582.828	0.92
583.167	0.89
583.507	0.85
583.846	0.84
584.185	0.86
584.525	0.89
584.864	0.91
585.203	0.92
585.542	0.92
585.881	0.91
586.22	0.91
586.559	0.91
586.898	0.9
587.236	0.89
587.575	0.89
587.914	0.89
588.252	0.9
588.591	0.9
588.93	0.9
589.268	0.89
589.607	0.9
589.945	0.9
590.283	0.9
590.622	0.9
590.96	0.9
591.298	0.9
591.636	0.9
591.974	0.9
592.313	0.9
592.651	0.9
592.989	0.9
593.326	0.9
593.664	0.9
594.002	0.89
594.34	0.89
594.678	0.88
595.015	0.88
595.353	0.87
595.691	0.88
596.028	0.89
596.366	0.88
596.703	0.89
597.04	0.89
597.378	0.89
597.715	0.89
598.052	0.89
598.389	0.89
598.726	0.89
599.064	0.89
599.401	0.88
599.738	0.88
600.074	0.88
600.411	0.88
600.748	0.88
601.085	0.87
601.422	0.86
601.758	0.86
602.095	0.86
602.432	0.86
602.768	0.86
603.105	0.87
603.441	0.87
603.777	0.87
604.114	0.86
604.45	0.86
604.786	0.86
605.122	0.86
605.459	0.85
605.795	0.85
606.131	0.85
606.467	0.84
606.803	0.84
607.139	0.84
607.474	0.84
607.81	0.84
608.146	0.84
608.482	0.84
608.817	0.83
609.153	0.83
609.488	0.83
609.824	0.82
610.159	0.82
610.495	0.82
610.83	0.82
611.165	0.82
611.5	0.82
611.836	0.81
612.171	0.81
612.506	0.81
612.841	0.8
613.176	0.8
613.511	0.8
613.845	0.8
614.18	0.79
614.515	0.8
614.85	0.79
615.184	0.79
615.519	0.78
615.854	0.78
616.188	0.78
616.523	0.77
616.857	0.77
617.191	0.77
617.526	0.76
617.86	0.76
618.194	0.76
618.528	0.76
618.862	0.76
619.196	0.75
619.53	0.76
619.864	0.75
620.198	0.74
620.532	0.75
620.866	0.75
621.2	0.74
621.533	0.73
621.867	0.74
622.201	0.73
622.534	0.73
622.868	0.73
623.201	0.72
623.534	0.72
623.868	0.72
624.201	0.71
624.534	0.71
624.868	0.71
625.201	0.71
625.534	0.7
625.867	0.7
626.2	0.69
626.533	0.69
626.865	0.69
627.198	0.69
627.531	0.68
627.864	0.68
628.196	0.68
628.529	0.67
628.862	0.67
629.194	0.66
629.527	0.66
629.859	0.66
630.191	0.65
630.524	0.65
630.856	0.65
631.188	0.64
631.52	0.64
631.852	0.64
632.184	0.63
632.516	0.63
632.848	0.62
633.18	0.63
633.512	0.62
633.844	0.61
634.175	0.61
634.507	0.61
634.839	0.61
635.17	0.6
635.502	0.59
635.833	0.59
636.165	0.59
636.496	0.58
636.827	0.57
637.159	0.57
637.49	0.57
637.821	0.57
638.152	0.56
638.483	0.56
638.814	0.56
639.145	0.55
639.476	0.55
639.807	0.55
640.137	0.55
640.468	0.54
640.799	0.53
641.129	0.53
641.46	0.53
641.791	0.53
642.121	0.52
642.451	0.52
642.782	0.51
643.112	0.51
643.442	0.51
643.773	0.51
644.103	0.5
644.433	0.5
644.763	0.5
645.093	0.5
645.423	0.49
645.753	0.49
646.082	0.48
646.412	0.48
646.742	0.48
647.072	0.48
647.401	0.48
647.731	0.47
648.06	0.47
648.39	0.47
648.719	0.47
649.048	0.47
649.378	0.46
649.707	0.46
650.036	0.46
650.365	0.46
650.694	0.45
651.023	0.46
651.352	0.45
651.681	0.45
652.01	0.45
652.339	0.45
652.668	0.44
652.996	0.45
653.325	0.44
653.654	0.45
653.982	0.44
654.311	0.44
654.639	0.44
654.967	0.44
655.296	0.43
655.624	0.43
655.952	0.43
656.28	0.43
656.609	0.43
656.937	0.43
657.265	0.42
657.593	0.3
657.92	0.2
658.248	0.15
658.576	0.18
658.904	0.27
659.231	0.36
659.559	0.41
659.887	0.41
660.214	0.41
660.542	0.41
660.869	0.4
661.196	0.4
661.524	0.4
661.851	0.4
662.178	0.4
662.505	0.39
662.832	0.39
663.159	0.39
663.486	0.39
663.813	0.39
664.14	0.39
664.467	0.39
664.794	0.38
665.12	0.38
665.447	0.38
665.774	0.38
666.1	0.38
666.427	0.38
666.753	0.38
667.079	0.37
667.406	0.37
667.732	0.37
668.058	0.37
668.384	0.37
668.71	0.36
669.036	0.36
669.362	0.36
669.688	0.36
670.014	0.35
670.34	0.35
670.666	0.35
670.991	0.34
671.317	0.35
671.643	0.34
671.968	0.34
672.294	0.34
672.619	0.33
672.945	0.33
673.27	0.33
673.595	0.33
673.92	0.32
674.246	0.32
674.571	0.32
674.896	0.32
675.221	0.32
675.546	0.31
675.87	0.31
676.195	0.31
676.52	0.31
676.845	0.3
677.169	0.3
677.494	0.3
677.819	0.3
678.143	0.29
678.468	0.29
678.792	0.29
679.116	0.29
679.44	0.28
679.765	0.28
680.089	0.28
680.413	0.27
680.737	0.27
681.061	0.27
681.385	0.27
681.709	0.26
682.033	0.26
682.356	0.26
682.68	0.26
683.004	0.26
683.327	0.25
683.651	0.24
683.974	0.24
684.298	0.24
684.621	0.24
684.944	0.24
685.268	0.24
685.591	0.23
685.914	0.23
686.237	0.23
686.56	0.22
686.883	0.22
687.206	0.21
687.529	0.21
687.852	0.21
688.175	0.21
688.497	0.21
688.82	0.21
689.142	0.2
689.465	0.2
689.787	0.2
690.11	0.2
690.432	0.19
690.755	0.19
691.077	0.19
691.399	0.19
691.721	0.19
692.043	0.19
692.365	0.18
692.687	0.18
693.009	0.18
693.331	0.18
693.653	0.17
693.974	0.17
694.296	0.17
694.618	0.17
694.939	0.17
695.261	0.16
695.582	0.16
695.904	0.16
696.225	0.16
696.546	0.16
696.868	0.16
697.189	0.16
697.51	0.15
697.831	0.15
698.152	0.15
698.473	0.15
698.794	0.14
699.114	0.14
699.435	0.13
699.756	0.13
700.077	0.14
700.397	0.14
700.718	0.14
701.038	0.14
701.359	0.14
701.679	0.14
701.999	0.14
702.32	0.13
702.64	0.13
702.96	0.13
703.28	0.13
703.6	0.13
703.92	0.13
704.24	0.13
704.56	0.12
704.879	0.12
705.199	0.13
705.519	0.12
705.838	0.13
706.158	0.13
706.478	0.13
706.797	0.13
707.116	0.13
707.436	0.13
707.755	0.13
708.074	0.13
708.393	0.12
708.712	0.12
709.031	0.11
709.35	0.11
709.669	0.1
709.988	0.1
710.307	0.11
710.626	0.11
710.944	0.12
711.263	0.12
711.582	0.12
711.9	0.12
712.219	0.11
712.537	0.12
712.855	0.12
713.174	0.12
713.492	0.12
713.81	0.12
714.128	0.12
714.446	0.12
714.764	0.11
715.082	0.11
715.4	0.12
715.718	0.12
716.035	0.11
716.353	0.12
716.671	0.11
716.988	0.12
717.306	0.11
717.623	0.12
717.941	0.12
718.258	0.13
718.575	0.12
718.893	0.12
719.21	0.12
719.527	0.12
719.844	0.12
720.161	0.12
720.478	0.12
720.795	0.12
721.112	0.12
721.428	0.12
721.745	0.12
722.062	0.12
722.378	0.12
722.695	0.12
723.011	0.12
723.328	0.12
723.644	0.12
723.96	0.12
724.276	0.13
724.593	0.13
724.909	0.13
725.225	0.13
725.541	0.13
725.857	0.13
726.173	0.13
726.488	0.13
726.804	0.12
727.12	0.12
727.435	0.12
727.751	0.13
728.067	0.13
728.382	0.13
728.697	0.13
729.013	0.13
729.328	0.13
729.643	0.13
729.958	0.13
730.273	0.13
730.588	0.12
730.903	0.13
731.218	0.13
731.533	0.13
731.848	0.12
732.163	0.12
732.477	0.12
732.792	0.12
733.107	0.12
733.421	0.12
733.736	0.12
734.05	0.12
734.364	0.12
734.678	0.12
734.993	0.12
735.307	0.12
735.621	0.12
735.935	0.12
736.249	0.12
736.563	0.12
736.877	0.12
737.19	0.12
737.504	0.12
737.818	0.11
738.131	0.11
738.445	0.12
738.758	0.11
739.072	0.11
739.385	0.11
739.698	0.11
740.012	0.11
740.325	0.11
740.638	0.11
740.951	0.11
741.264	0.11
741.577	0.11
741.89	0.11
742.203	0.11
742.515	0.11
742.828	0.11
743.141	0.11
743.453	0.11
743.766	0.11
744.078	0.11
744.391	0.1
744.703	0.1
745.015	0.1
745.327	0.11
745.639	0.1
745.952	0.1
746.264	0.1
746.575	0.1
746.887	0.1
747.199	0.1
747.511	0.1
747.823	0.1
748.134	0.09
748.446	0.09
748.757	0.09
749.069	0.09
749.38	0.09
749.692	0.09
750.003	0.09
750.314	0.09
750.625	0.09
750.936	0.09
751.248	0.09
751.559	0.09
751.869	0.09
752.18	0.09
752.491	0.09
752.802	0.08
753.112	0.08
753.423	0.08
753.734	0.08
754.044	0.08
754.355	0.08
754.665	0.08
754.975	0.08
755.285	0.08
755.596	0.08
755.906	0.08
756.216	0.08
756.526	0.08
756.836	0.08
757.146	0.08
757.455	0.07
757.765	0.07
758.075	0.07
758.385	0.07
758.694	0.07
759.004	0.06
759.313	0.07
759.622	0.07
759.932	0.07
760.241	0.07
760.55	0.07
760.859	0.07
761.168	0.07
761.477	0.07
761.786	0.07
762.095	0.06
762.404	0.06
762.713	0.06
763.021	0.06
763.33	0.07
763.639	0.07
763.947	0.07
764.256	0.07
764.564	0.07
764.872	0.07
765.181	0.07
765.489	0.06
765.797	0.06
766.105	0.06
766.413	0.06
766.721	0.06
767.029	0.06
767.337	0.07
767.644	0.07
767.952	0.07
768.26	0.07
768.567	0.07
768.875	0.07
769.182	0.06
769.49	0.06
769.797	0.06
770.104	0.06
770.411	0.06
770.718	0.06
771.026	0.06
771.333	0.07
771.639	0.07
771.946	0.07
772.253	0.07
772.56	0.07
772.867	0.07
773.173	0.07
773.48	0.07
773.786	0.06
774.093	0.06
774.399	0.06
774.705	0.06
775.012	0.06
775.318	0.06
775.624	0.06
775.93	0.07
776.236	0.07
776.542	0.06
776.848	0.07
777.154	0.07
777.459	0.07
777.765	0.06
778.071	0.06
778.376	0.06
778.682	0.07
778.987	0.07
779.292	0.07
779.598	0.07
779.903	0.07
780.208	0.07
780.513	0.07
780.818	0.07
781.123	0.07
781.428	0.06
781.733	0.06
782.038	0.06
782.343	0.06
782.647	0.06
782.952	0.07
783.256	0.06
783.561	0.07
783.865	0.07
784.17	0.07
784.474	0.07
784.778	0.08
785.082	0.07
785.386	0.08
785.69	0.07
785.994	0.07
786.298	0.08
786.602	0.08
786.906	0.07
787.209	0.07
787.513	0.08
787.817	0.08
788.12	0.08
788.424	0.08
788.727	0.08
789.03	0.08
789.333	0.08
789.637	0.07
789.94	0.08
790.243	0.08
790.546	0.08
790.849	0.08
791.152	0.08
791.454	0.08
791.757	0.08
792.06	0.08
792.362	0.08
792.665	0.08
792.967	0.08
793.27	0.08
793.572	0.08
793.874	0.08
794.177	0.08
794.479	0.08
794.781	0.08
795.083	0.08
795.385	0.08
795.687	0.08
795.989	0.08
796.29	0.08
796.592	0.09
796.894	0.09
797.195	0.09
797.497	0.09
797.798	0.09
798.1	0.09
798.401	0.09
798.702	0.09
799.003	0.09
799.304	0.08
799.605	0.09
799.906	0.09
800.207	0.09
800.508	0.09
800.809	0.09
801.11	0.08
801.41	0.09
801.711	0.09
802.011	0.09
802.312	0.09
802.612	0.09
802.913	0.09
803.213	0.09
803.513	0.09
803.813	0.09
804.113	0.09
804.413	0.09
804.713	0.09
805.013	0.09
805.313	0.09
805.613	0.09
805.912	0.09
806.212	0.09
806.511	0.09
806.811	0.09
807.11	0.09
807.41	0.1
807.709	0.1
808.008	0.1
808.307	0.1
808.606	0.1
808.905	0.11
809.204	0.1
809.503	0.1
809.802	0.1
810.101	0.1
810.399	0.1
810.698	0.1
810.997	0.1
811.295	0.1
811.593	0.1
811.892	0.1
812.19	0.1
812.488	0.1
812.786	0.1
813.084	0.1
813.383	0.1
813.68	0.09
813.978	0.1
814.276	0.1
814.574	0.11
814.872	0.11
815.169	0.11
815.467	0.11
815.764	0.11
816.062	0.11
816.359	0.11
816.656	0.12
816.954	0.12
817.251	0.12
817.548	0.12
817.845	0.12
818.142	0.12
818.439	0.12
818.735	0.11
819.032	0.12
819.329	0.11
819.626	0.11
819.922	0.12
820.219	0.12
820.515	0.12
820.811	0.12
821.108	0.12
821.404	0.12
821.7	0.12
821.996	0.12
822.292	0.12
822.588	0.13
822.884	0.12
823.18	0.13
823.475	0.13
823.771	0.13
824.067	0.13
824.362	0.12
824.658	0.12
824.953	0.12
825.249	0.12
825.544	0.13
825.839	0.13
826.134	0.12
826.429	0.12
826.724	0.12
827.019	0.12
827.314	0.13
827.609	0.13
827.904	0.14
828.198	0.13
828.493	0.13
828.787	0.13
829.082	0.12
829.376	0.13
829.671	0.13
829.965	0.14
830.259	0.14
830.553	0.14
830.847	0.13
831.141	0.14
831.435	0.14
831.729	0.14
832.023	0.14
832.317	0.14
832.61	0.14
832.904	0.14
833.197	0.15
833.491	0.15
833.784	0.14
834.077	0.14
834.371	0.14
834.664	0.14
834.957	0.14
835.25	0.13
835.543	0.14
835.836	0.13
836.129	0.13
836.421	0.14
836.714	0.14
837.007	0.14
837.299	0.14
837.592	0.14
837.884	0.15
838.177	0.15
838.469	0.15
838.761	0.14
839.053	0.14
839.345	0.15
839.637	0.15
839.929	0.15
840.221	0.15
840.513	0.16
840.805	0.15
841.096	0.14
841.388	0.14
841.68	0.15
841.971	0.15
842.262	0.15
842.554	0.16
842.845	0.16
843.136	0.15
843.427	0.17
843.718	0.16
844.009	0.15
844.3	0.16
844.591	0.15
844.882	0.15
845.173	0.16
845.463	0.16
845.754	0.17
846.044	0.16
846.335	0.17
846.625	0.17
846.915	0.17
847.206	0.18
847.496	0.17
847.786	0.16
848.076	0.16
848.366	0.17
848.656	0.16
848.945	0.16
849.235	0.17
849.525	0.16
849.814	0.16
850.104	0.17
850.393	0.17
850.683	0.17
850.972	0.16
851.261	0.16
851.551	0.17
851.84	0.17
852.129	0.16
852.418	0.17
852.707	0.17
852.995	0.17
853.284	0.17
853.573	0.18
853.862	0.17
854.15	0.17
854.439	0.17
854.727	0.17
855.015	0.17
855.304	0.17
855.592	0.18
855.88	0.18
856.168	0.18
856.456	0.18
856.744	0.19
857.032	0.19
857.32	0.18
857.607	0.19
857.895	0.19
858.183	0.19
858.47	0.18
858.757	0.2
859.045	0.19
859.332	0.19
859.619	0.2
859.907	0.19
860.194	0.19
860.481	0.19
860.768	0.2
861.054	0.2
861.341	0.2
861.628	0.2
861.915	0.2
862.201	0.21
862.488	0.21
862.774	0.2
863.061	0.2
863.347	0.17
863.633	0.19
863.919	0.2
864.205	0.17
864.491	0.17
864.777	0.18
865.063	0.22
865.349	0.2
865.635	0.2
865.92	0.18
866.206	0.2
866.492	0.21
866.777	0.19
867.062	0.2
867.348	0.18
867.633	0.19
867.918	0.2
868.203	0.21
868.488	0.2
868.773	0.17
869.058	0.17
869.343	0.19
869.628	0.2
869.912	0.19
870.197	0.21
870.482	0.22
870.766	0.2
871.05	0.19
871.335	0.2
871.619	0.18
871.903	0.2
872.187	0.21
872.471	0.16
872.755	0.24
873.039	0.21
873.323	0.26
873.607	0.22
873.89	0.23
874.174	0.19
874.458	0.19
874.741	0.23
875.024	0.21
875.308	0.21
875.591	0.31
875.874	0.21
876.157	0.29
876.44	0.25
876.723	0.19
877.006	0.17
877.289	0.15
877.572	0.22
877.854	0.23
878.137	0.19
878.42	0.12
878.702	0.21
878.984	0.18
879.267	0.16
879.549	0.18
879.831	0.23
880.113	0.22
880.395	0.19
880.677	0.28
880.959	0.18
