Data from Rubpy_BV_1500_EDTA_Buffered_Absorbance_14-27-34-596.txt Node
Date: Wed Jul 01 14:27:34 BST 2026
User: fpm-admin
Spectrometer: OFX00224
Trigger mode: 0
Integration Time (sec): 7.000000E-2
Scans to average: 3
Nonlinearity correction enabled: false
Boxcar width: 0
Storing dark spectrum: false
XAxis mode: Wavelengths
Number of Pixels in Spectrum: 2136
>>>>>Begin Spectral Data<<<<<
154.91	-0
155.289	0.17
155.669	-1.19
156.048	0.07
156.428	-0
156.807	-0
157.186	-0.42
157.566	0.5
157.945	-0.32
158.325	0.3
158.704	-0
159.083	-0
159.462	0.03
159.842	0.01
160.221	-0.42
160.6	-0
160.979	-0.03
161.359	0.67
161.738	-0
162.117	-0.15
162.496	-0.54
162.875	-0.41
163.254	0.82
163.633	0.57
164.012	0.7
164.391	0.45
164.77	0.17
165.149	0.64
165.528	-0
165.907	-0.12
166.286	-0.36
166.665	-0.09
167.044	-0
167.423	-0
167.802	-0
168.181	0.62
168.559	0.05
168.938	0.01
169.317	-0
169.696	0.25
170.074	-0
170.453	-0.07
170.832	0.83
171.21	0.16
171.589	-0
171.968	-0
172.346	-0
172.725	-0.46
173.103	-0
173.482	-1
173.861	-0
174.239	-0.48
174.617	-0
174.996	0.65
175.374	-0.12
175.753	-0.41
176.131	0.78
176.51	0.48
176.888	-0
177.266	-0
177.645	0.05
178.023	0.55
178.401	-0.24
178.779	-0.05
179.158	0.24
179.536	-0
179.914	-0.13
180.292	0.87
180.67	-0
181.048	-0.05
181.427	0.74
181.805	-0.24
182.183	-0.3
182.561	-0
182.939	-0
183.317	-0
183.695	0.46
184.073	0.68
184.451	0.26
184.829	-0
185.206	-0
185.584	-0.11
185.962	-0
186.34	-0
186.718	-0
187.096	-0.68
187.473	0.08
187.851	-0.16
188.229	1.21
188.607	0.31
188.984	0.39
189.362	0.35
189.74	0.31
190.117	0.3
190.495	0.24
190.872	0.45
191.25	0.24
191.627	0.17
192.005	0.21
192.382	0.32
192.76	0.37
193.137	0.23
193.515	0.26
193.892	0.12
194.269	0.07
194.647	0.38
195.024	0.34
195.401	0.24
195.779	0.31
196.156	0.23
196.533	0.26
196.91	0.22
197.288	0.3
197.665	0.14
198.042	0.34
198.419	0.28
198.796	0.14
199.173	0.24
199.55	0.22
199.927	0.25
200.304	0.24
200.681	0.31
201.058	0.35
201.435	0.22
201.812	0.31
202.189	0.16
202.566	0.18
202.943	0.24
203.32	0.23
203.697	0.2
204.073	0.28
204.45	0.31
204.827	0.45
205.204	0.27
205.58	0.36
205.957	0.2
206.334	0.15
206.71	0.23
207.087	0.32
207.464	0.28
207.84	0.2
208.217	0.28
208.593	0.3
208.97	0.23
209.346	0.31
209.723	0.2
210.099	0.24
210.476	0.28
210.852	0.25
211.228	0.33
211.605	0.36
211.981	0.17
212.357	0.28
212.733	0.2
213.11	0.29
213.486	0.16
213.862	0.32
214.238	0.22
214.614	0.18
214.991	0.21
215.367	0.15
215.743	0.23
216.119	0.29
216.495	0.16
216.871	0.26
217.247	0.23
217.623	0.28
217.999	0.16
218.375	0.21
218.751	0.36
219.127	0.22
219.502	0.25
219.878	0.37
220.254	0.25
220.63	0.31
221.006	0.23
221.381	0.15
221.757	0.43
222.133	0.2
222.508	0.5
222.884	0.35
223.26	0.13
223.635	0.27
224.011	0.4
224.386	0.37
224.762	0.29
225.137	0.31
225.513	0.35
225.888	0.26
226.264	0.44
226.639	0.23
227.014	0.33
227.39	0.29
227.765	0.26
228.14	0.25
228.516	0.24
228.891	0.3
229.266	0.31
229.641	0.18
230.017	0.37
230.392	0.39
230.767	0.26
231.142	0.26
231.517	0.23
231.892	0.32
232.267	0.32
232.642	0.26
233.017	0.3
233.392	0.19
233.767	0.28
234.142	0.27
234.517	0.33
234.892	0.31
235.267	0.34
235.641	0.24
236.016	0.24
236.391	0.28
236.766	0.27
237.14	0.22
237.515	0.19
237.89	0.3
238.264	0.36
238.639	0.23
239.014	0.22
239.388	0.16
239.763	0.3
240.137	0.19
240.512	0.3
240.886	0.27
241.261	0.21
241.635	0.2
242.009	0.4
242.384	0.35
242.758	0.28
243.132	0.24
243.507	0.26
243.881	0.23
244.255	0.28
244.629	0.19
245.004	0.26
245.378	0.29
245.752	0.26
246.126	0.33
246.5	0.28
246.874	0.16
247.248	0.26
247.622	0.22
247.996	0.27
248.37	0.25
248.744	0.2
249.118	0.16
249.492	0.37
249.866	0.27
250.24	0.29
250.613	0.22
250.987	0.29
251.361	0.3
251.735	0.3
252.108	0.31
252.482	0.26
252.856	0.39
253.229	0.27
253.603	0.31
253.977	0.31
254.35	0.29
254.724	0.19
255.097	0.25
255.471	0.33
255.844	0.28
256.218	0.22
256.591	0.32
256.964	0.22
257.338	0.3
257.711	0.33
258.084	0.35
258.458	0.23
258.831	0.41
259.204	0.29
259.577	0.33
259.95	0.28
260.323	0.22
260.697	0.35
261.07	0.28
261.443	0.28
261.816	0.32
262.189	0.29
262.562	0.3
262.935	0.27
263.308	0.21
263.68	0.26
264.053	0.32
264.426	0.27
264.799	0.48
265.172	0.33
265.545	0.33
265.917	0.26
266.29	0.43
266.663	0.27
267.035	0.33
267.408	0.2
267.781	0.25
268.153	0.33
268.526	0.24
268.898	0.34
269.271	0.24
269.643	0.31
270.016	0.23
270.388	0.3
270.76	0.28
271.133	0.25
271.505	0.34
271.877	0.25
272.25	0.29
272.622	0.32
272.994	0.25
273.366	0.39
273.739	0.32
274.111	0.28
274.483	0.22
274.855	0.26
275.227	0.32
275.599	0.19
275.971	0.26
276.343	0.29
276.715	0.23
277.087	0.33
277.459	0.34
277.831	0.33
278.203	0.3
278.574	0.35
278.946	0.24
279.318	0.31
279.69	0.26
280.061	0.27
280.433	0.26
280.805	0.18
281.176	0.35
281.548	0.28
281.92	0.29
282.291	0.34
282.663	0.43
283.034	0.3
283.406	0.3
283.777	0.32
284.148	0.33
284.52	0.37
284.891	0.29
285.262	0.24
285.634	0.27
286.005	0.35
286.376	0.28
286.747	0.3
287.119	0.21
287.49	0.32
287.861	0.25
288.232	0.36
288.603	0.37
288.974	0.33
289.345	0.33
289.716	0.28
290.087	0.31
290.458	0.35
290.829	0.18
291.2	0.22
291.571	0.3
291.941	0.27
292.312	0.28
292.683	0.36
293.054	0.35
293.424	0.22
293.795	0.36
294.166	0.26
294.536	0.32
294.907	0.29
295.277	0.36
295.648	0.32
296.018	0.24
296.389	0.31
296.759	0.29
297.13	0.27
297.5	0.33
297.871	0.33
298.241	0.3
298.611	0.4
298.981	0.39
299.352	0.25
299.722	0.36
300.092	0.32
300.462	0.3
300.832	0.25
301.202	0.32
301.573	0.27
301.943	0.28
302.313	0.29
302.683	0.37
303.053	0.31
303.422	0.31
303.792	0.33
304.162	0.31
304.532	0.31
304.902	0.23
305.272	0.27
305.641	0.29
306.011	0.24
306.381	0.27
306.75	0.25
307.12	0.23
307.49	0.25
307.859	0.24
308.229	0.27
308.598	0.25
308.968	0.23
309.337	0.25
309.707	0.24
310.076	0.21
310.445	0.22
310.815	0.2
311.184	0.21
311.553	0.2
311.923	0.21
312.292	0.23
312.661	0.24
313.03	0.25
313.399	0.23
313.768	0.24
314.137	0.24
314.506	0.21
314.875	0.26
315.244	0.24
315.613	0.26
315.982	0.27
316.351	0.25
316.72	0.28
317.089	0.27
317.458	0.27
317.826	0.27
318.195	0.27
318.564	0.28
318.933	0.3
319.301	0.29
319.67	0.3
320.038	0.3
320.407	0.31
320.775	0.31
321.144	0.32
321.512	0.33
321.881	0.32
322.249	0.33
322.618	0.32
322.986	0.35
323.354	0.34
323.723	0.35
324.091	0.35
324.459	0.36
324.827	0.35
325.195	0.36
325.564	0.37
325.932	0.37
326.3	0.37
326.668	0.39
327.036	0.4
327.404	0.41
327.772	0.39
328.14	0.41
328.508	0.42
328.875	0.42
329.243	0.43
329.611	0.44
329.979	0.44
330.346	0.44
330.714	0.46
331.082	0.46
331.449	0.46
331.817	0.48
332.185	0.49
332.552	0.49
332.92	0.5
333.287	0.52
333.655	0.52
334.022	0.52
334.389	0.55
334.757	0.55
335.124	0.56
335.491	0.58
335.859	0.58
336.226	0.59
336.593	0.6
336.96	0.62
337.327	0.62
337.695	0.64
338.062	0.65
338.429	0.65
338.796	0.67
339.163	0.68
339.53	0.69
339.897	0.71
340.263	0.72
340.63	0.73
340.997	0.74
341.364	0.75
341.731	0.77
342.097	0.78
342.464	0.79
342.831	0.81
343.197	0.81
343.564	0.85
343.931	0.85
344.297	0.85
344.664	0.88
345.03	0.89
345.396	0.89
345.763	0.91
346.129	0.93
346.496	0.93
346.862	0.94
347.228	0.95
347.594	0.97
347.961	0.98
348.327	1
348.693	1.01
349.059	1.02
349.425	1.04
349.791	1.05
350.157	1.07
350.523	1.07
350.889	1.08
351.255	1.1
351.621	1.11
351.987	1.12
352.353	1.12
352.719	1.14
353.084	1.15
353.45	1.16
353.816	1.18
354.181	1.2
354.547	1.22
354.913	1.23
355.278	1.25
355.644	1.23
356.009	1.27
356.375	1.28
356.74	1.31
357.106	1.3
357.471	1.31
357.836	1.34
358.202	1.36
358.567	1.37
358.932	1.41
359.297	1.4
359.663	1.44
360.028	1.44
360.393	1.44
360.758	1.47
361.123	1.48
361.488	1.51
361.853	1.52
362.218	1.54
362.583	1.55
362.948	1.57
363.312	1.57
363.677	1.58
364.042	1.61
364.407	1.62
364.772	1.64
365.136	1.65
365.501	1.68
365.865	1.65
366.23	1.7
366.595	1.67
366.959	1.73
367.324	1.7
367.688	1.72
368.052	1.75
368.417	1.76
368.781	1.72
369.145	1.73
369.51	1.75
369.874	1.77
370.238	1.83
370.602	1.81
370.967	1.74
371.331	1.76
371.695	1.78
372.059	1.83
372.423	1.79
372.787	1.78
373.151	1.79
373.515	1.81
373.878	1.8
374.242	1.79
374.606	1.79
374.97	1.8
375.334	1.75
375.697	1.75
376.061	1.75
376.425	1.75
376.788	1.72
377.152	1.7
377.515	1.7
377.879	1.68
378.242	1.65
378.606	1.64
378.969	1.65
379.333	1.63
379.696	1.58
380.059	1.56
380.422	1.55
380.786	1.53
381.149	1.52
381.512	1.5
381.875	1.49
382.238	1.47
382.601	1.46
382.964	1.43
383.327	1.41
383.69	1.4
384.053	1.4
384.416	1.37
384.779	1.36
385.142	1.35
385.504	1.33
385.867	1.33
386.23	1.32
386.593	1.31
386.955	1.29
387.318	1.29
387.68	1.3
388.043	1.28
388.405	1.27
388.768	1.26
389.13	1.25
389.493	1.26
389.855	1.25
390.217	1.24
390.58	1.22
390.942	1.21
391.304	1.2
391.666	1.18
392.028	1.16
392.391	1.13
392.753	1.13
393.115	1.12
393.477	1.11
393.839	1.09
394.201	1.08
394.563	1.08
394.924	1.07
395.286	1.07
395.648	1.06
396.01	1.07
396.371	1.07
396.733	1.09
397.095	1.1
397.456	1.11
397.818	1.14
398.18	1.15
398.541	1.18
398.903	1.21
399.264	1.24
399.625	1.26
399.987	1.3
400.348	1.3
400.709	1.31
401.071	1.32
401.432	1.33
401.793	1.31
402.154	1.31
402.515	1.29
402.876	1.29
403.238	1.24
403.599	1.22
403.96	1.19
404.32	1.16
404.681	1.1
405.042	1.07
405.403	1.02
405.764	0.99
406.125	0.93
406.485	0.89
406.846	0.84
407.207	0.8
407.567	0.76
407.928	0.73
408.288	0.69
408.649	0.65
409.009	0.61
409.37	0.59
409.73	0.54
410.091	0.52
410.451	0.5
410.811	0.47
411.171	0.45
411.532	0.42
411.892	0.41
412.252	0.38
412.612	0.38
412.972	0.36
413.332	0.34
413.692	0.33
414.052	0.32
414.412	0.3
414.772	0.29
415.132	0.28
415.492	0.27
415.851	0.27
416.211	0.26
416.571	0.25
416.931	0.24
417.29	0.23
417.65	0.23
418.009	0.23
418.369	0.22
418.728	0.21
419.088	0.21
419.447	0.2
419.807	0.2
420.166	0.2
420.525	0.2
420.884	0.18
421.244	0.18
421.603	0.18
421.962	0.18
422.321	0.17
422.68	0.18
423.039	0.16
423.398	0.17
423.757	0.17
424.116	0.17
424.475	0.17
424.834	0.16
425.193	0.15
425.551	0.16
425.91	0.15
426.269	0.15
426.628	0.15
426.986	0.15
427.345	0.15
427.703	0.15
428.062	0.15
428.42	0.14
428.779	0.15
429.137	0.15
429.496	0.13
429.854	0.14
430.212	0.13
430.57	0.14
430.929	0.14
431.287	0.14
431.645	0.13
432.003	0.14
432.361	0.13
432.719	0.14
433.077	0.14
433.435	0.13
433.793	0.14
434.151	0.14
434.509	0.14
434.866	0.14
435.224	0.14
435.582	0.14
435.94	0.14
436.297	0.13
436.655	0.13
437.012	0.14
437.37	0.13
437.727	0.13
438.085	0.13
438.442	0.13
438.8	0.14
439.157	0.13
439.514	0.14
439.872	0.13
440.229	0.13
440.586	0.13
440.943	0.15
441.3	0.14
441.657	0.15
442.014	0.14
442.371	0.15
442.728	0.14
443.085	0.15
443.442	0.15
443.799	0.14
444.156	0.14
444.513	0.14
444.869	0.14
445.226	0.15
445.583	0.15
445.939	0.14
446.296	0.16
446.652	0.15
447.009	0.15
447.365	0.14
447.722	0.16
448.078	0.15
448.434	0.16
448.791	0.16
449.147	0.15
449.503	0.16
449.859	0.15
450.215	0.16
450.571	0.16
450.928	0.17
451.284	0.16
451.64	0.16
451.995	0.16
452.351	0.17
452.707	0.18
453.063	0.17
453.419	0.17
453.775	0.17
454.13	0.17
454.486	0.18
454.842	0.17
455.197	0.17
455.553	0.18
455.908	0.17
456.264	0.17
456.619	0.18
456.975	0.18
457.33	0.18
457.685	0.18
458.04	0.17
458.396	0.18
458.751	0.18
459.106	0.19
459.461	0.2
459.816	0.19
460.171	0.2
460.526	0.19
460.881	0.2
461.236	0.19
461.591	0.2
461.946	0.2
462.301	0.2
462.655	0.2
463.01	0.21
463.365	0.21
463.719	0.2
464.074	0.2
464.428	0.21
464.783	0.21
465.137	0.22
465.492	0.22
465.846	0.22
466.201	0.22
466.555	0.22
466.909	0.22
467.263	0.22
467.618	0.23
467.972	0.23
468.326	0.24
468.68	0.23
469.034	0.24
469.388	0.24
469.742	0.24
470.096	0.25
470.45	0.25
470.804	0.26
471.157	0.25
471.511	0.26
471.865	0.26
472.218	0.27
472.572	0.27
472.926	0.27
473.279	0.28
473.633	0.27
473.986	0.28
474.34	0.28
474.693	0.29
475.046	0.29
475.4	0.29
475.753	0.3
476.106	0.3
476.459	0.31
476.812	0.31
477.165	0.31
477.519	0.32
477.872	0.31
478.224	0.33
478.577	0.33
478.93	0.33
479.283	0.34
479.636	0.34
479.989	0.35
480.341	0.34
480.694	0.35
481.047	0.35
481.399	0.36
481.752	0.36
482.104	0.36
482.457	0.37
482.809	0.37
483.162	0.37
483.514	0.38
483.866	0.39
484.219	0.39
484.571	0.39
484.923	0.4
485.275	0.4
485.627	0.4
485.979	0.41
486.331	0.41
486.683	0.41
487.035	0.42
487.387	0.42
487.739	0.42
488.091	0.43
488.443	0.44
488.794	0.44
489.146	0.43
489.498	0.44
489.849	0.44
490.201	0.45
490.552	0.46
490.904	0.46
491.255	0.46
491.607	0.46
491.958	0.47
492.309	0.48
492.661	0.47
493.012	0.47
493.363	0.48
493.714	0.49
494.065	0.49
494.416	0.49
494.767	0.5
495.118	0.5
495.469	0.51
495.82	0.5
496.171	0.51
496.522	0.52
496.872	0.52
497.223	0.52
497.574	0.53
497.924	0.53
498.275	0.54
498.626	0.54
498.976	0.54
499.327	0.55
499.677	0.55
500.027	0.55
500.378	0.56
500.728	0.56
501.078	0.56
501.428	0.57
501.779	0.57
502.129	0.58
502.479	0.58
502.829	0.58
503.179	0.59
503.529	0.59
503.879	0.59
504.229	0.6
504.578	0.61
504.928	0.6
505.278	0.6
505.628	0.61
505.977	0.62
506.327	0.62
506.676	0.62
507.026	0.63
507.375	0.63
507.725	0.64
508.074	0.64
508.424	0.64
508.773	0.64
509.122	0.65
509.471	0.65
509.82	0.65
510.17	0.65
510.519	0.66
510.868	0.67
511.217	0.67
511.566	0.67
511.915	0.67
512.263	0.68
512.612	0.69
512.961	0.69
513.31	0.7
513.659	0.69
514.007	0.69
514.356	0.7
514.704	0.7
515.053	0.71
515.401	0.71
515.75	0.71
516.098	0.71
516.447	0.71
516.795	0.72
517.143	0.72
517.491	0.73
517.839	0.73
518.188	0.73
518.536	0.74
518.884	0.73
519.232	0.74
519.58	0.74
519.928	0.75
520.275	0.74
520.623	0.75
520.971	0.75
521.319	0.76
521.666	0.76
522.014	0.76
522.362	0.77
522.709	0.76
523.057	0.77
523.404	0.78
523.752	0.77
524.099	0.78
524.446	0.78
524.794	0.78
525.141	0.78
525.488	0.79
525.835	0.78
526.182	0.8
526.529	0.79
526.876	0.79
527.223	0.8
527.57	0.79
527.917	0.79
528.264	0.8
528.611	0.8
528.958	0.81
529.304	0.8
529.651	0.8
529.998	0.81
530.344	0.8
530.691	0.81
531.037	0.82
531.384	0.82
531.73	0.82
532.076	0.82
532.423	0.82
532.769	0.83
533.115	0.82
533.461	0.83
533.807	0.82
534.154	0.83
534.5	0.84
534.846	0.83
535.192	0.83
535.537	0.84
535.883	0.84
536.229	0.84
536.575	0.84
536.921	0.85
537.266	0.85
537.612	0.85
537.957	0.85
538.303	0.85
538.649	0.85
538.994	0.85
539.339	0.86
539.685	0.86
540.03	0.85
540.375	0.85
540.721	0.86
541.066	0.85
541.411	0.86
541.756	0.86
542.101	0.86
542.446	0.86
542.791	0.86
543.136	0.87
543.481	0.87
543.825	0.87
544.17	0.86
544.515	0.87
544.86	0.86
545.204	0.87
545.549	0.87
545.893	0.87
546.238	0.87
546.582	0.88
546.927	0.87
547.271	0.87
547.615	0.88
547.96	0.88
548.304	0.88
548.648	0.88
548.992	0.88
549.336	0.87
549.68	0.88
550.024	0.88
550.368	0.87
550.712	0.88
551.056	0.88
551.4	0.88
551.743	0.88
552.087	0.87
552.431	0.87
552.774	0.88
553.118	0.87
553.462	0.87
553.805	0.87
554.148	0.87
554.492	0.87
554.835	0.87
555.178	0.87
555.522	0.87
555.865	0.88
556.208	0.87
556.551	0.87
556.894	0.87
557.237	0.88
557.58	0.87
557.923	0.87
558.266	0.87
558.609	0.87
558.952	0.87
559.294	0.87
559.637	0.86
559.98	0.87
560.322	0.87
560.665	0.87
561.007	0.86
561.35	0.86
561.692	0.86
562.034	0.86
562.377	0.85
562.719	0.86
563.061	0.86
563.403	0.85
563.745	0.86
564.088	0.85
564.43	0.86
564.772	0.85
565.113	0.85
565.455	0.85
565.797	0.85
566.139	0.84
566.481	0.84
566.822	0.84
567.164	0.84
567.506	0.84
567.847	0.84
568.189	0.84
568.53	0.83
568.872	0.84
569.213	0.83
569.554	0.83
569.895	0.83
570.237	0.83
570.578	0.82
570.919	0.83
571.26	0.82
571.601	0.82
571.942	0.82
572.283	0.82
572.624	0.81
572.965	0.81
573.306	0.82
573.646	0.81
573.987	0.81
574.328	0.8
574.668	0.81
575.009	0.8
575.349	0.8
575.69	0.8
576.03	0.8
576.37	0.79
576.711	0.78
577.051	0.79
577.391	0.78
577.731	0.79
578.072	0.79
578.412	0.78
578.752	0.78
579.092	0.78
579.431	0.77
579.771	0.75
580.111	0.74
580.451	0.75
580.791	0.76
581.13	0.77
581.47	0.77
581.81	0.77
582.149	0.77
582.489	0.77
582.828	0.75
583.167	0.73
583.507	0.69
583.846	0.67
584.185	0.7
584.525	0.73
584.864	0.75
585.203	0.75
585.542	0.76
585.881	0.75
586.22	0.75
586.559	0.75
586.898	0.73
587.236	0.72
587.575	0.72
587.914	0.73
588.252	0.74
588.591	0.74
588.93	0.74
589.268	0.74
589.607	0.74
589.945	0.74
590.283	0.74
590.622	0.74
590.96	0.74
591.298	0.74
591.636	0.74
591.974	0.75
592.313	0.75
592.651	0.74
592.989	0.74
593.326	0.74
593.664	0.74
594.002	0.74
594.34	0.74
594.678	0.73
595.015	0.73
595.353	0.73
595.691	0.73
596.028	0.73
596.366	0.74
596.703	0.74
597.04	0.74
597.378	0.74
597.715	0.74
598.052	0.74
598.389	0.74
598.726	0.74
599.064	0.74
599.401	0.73
599.738	0.73
600.074	0.73
600.411	0.73
600.748	0.72
601.085	0.72
601.422	0.72
601.758	0.71
602.095	0.71
602.432	0.71
602.768	0.71
603.105	0.72
603.441	0.72
603.777	0.72
604.114	0.72
604.45	0.72
604.786	0.72
605.122	0.71
605.459	0.71
605.795	0.7
606.131	0.7
606.467	0.71
606.803	0.71
607.139	0.71
607.474	0.7
607.81	0.7
608.146	0.7
608.482	0.7
608.817	0.69
609.153	0.69
609.488	0.68
609.824	0.68
610.159	0.69
610.495	0.68
610.83	0.68
611.165	0.68
611.5	0.68
611.836	0.67
612.171	0.67
612.506	0.68
612.841	0.67
613.176	0.67
613.511	0.67
613.845	0.66
614.18	0.66
614.515	0.66
614.85	0.66
615.184	0.66
615.519	0.66
615.854	0.65
616.188	0.65
616.523	0.65
616.857	0.64
617.191	0.64
617.526	0.64
617.86	0.64
618.194	0.64
618.528	0.64
618.862	0.63
619.196	0.63
619.53	0.63
619.864	0.63
620.198	0.63
620.532	0.62
620.866	0.63
621.2	0.62
621.533	0.61
621.867	0.62
622.201	0.61
622.534	0.61
622.868	0.61
623.201	0.61
623.534	0.6
623.868	0.6
624.201	0.59
624.534	0.6
624.868	0.59
625.201	0.59
625.534	0.59
625.867	0.59
626.2	0.58
626.533	0.58
626.865	0.58
627.198	0.57
627.531	0.57
627.864	0.57
628.196	0.57
628.529	0.56
628.862	0.56
629.194	0.56
629.527	0.55
629.859	0.55
630.191	0.55
630.524	0.54
630.856	0.54
631.188	0.54
631.52	0.53
631.852	0.53
632.184	0.53
632.516	0.52
632.848	0.52
633.18	0.52
633.512	0.52
633.844	0.51
634.175	0.51
634.507	0.51
634.839	0.51
635.17	0.5
635.502	0.5
635.833	0.5
636.165	0.49
636.496	0.49
636.827	0.49
637.159	0.48
637.49	0.48
637.821	0.47
638.152	0.47
638.483	0.47
638.814	0.47
639.145	0.46
639.476	0.46
639.807	0.46
640.137	0.46
640.468	0.45
640.799	0.45
641.129	0.44
641.46	0.44
641.791	0.44
642.121	0.44
642.451	0.43
642.782	0.43
643.112	0.43
643.442	0.43
643.773	0.42
644.103	0.42
644.433	0.42
644.763	0.42
645.093	0.41
645.423	0.41
645.753	0.41
646.082	0.41
646.412	0.41
646.742	0.4
647.072	0.4
647.401	0.4
647.731	0.4
648.06	0.39
648.39	0.39
648.719	0.39
649.048	0.39
649.378	0.39
649.707	0.39
650.036	0.38
650.365	0.38
650.694	0.38
651.023	0.38
651.352	0.38
651.681	0.38
652.01	0.38
652.339	0.38
652.668	0.38
652.996	0.37
653.325	0.37
653.654	0.37
653.982	0.37
654.311	0.37
654.639	0.37
654.967	0.37
655.296	0.36
655.624	0.36
655.952	0.36
656.28	0.36
656.609	0.36
656.937	0.36
657.265	0.35
657.593	0.23
657.92	0.13
658.248	0.09
658.576	0.11
658.904	0.21
659.231	0.29
659.559	0.34
659.887	0.34
660.214	0.34
660.542	0.34
660.869	0.34
661.196	0.33
661.524	0.33
661.851	0.33
662.178	0.33
662.505	0.33
662.832	0.33
663.159	0.33
663.486	0.33
663.813	0.33
664.14	0.32
664.467	0.33
664.794	0.32
665.12	0.32
665.447	0.32
665.774	0.32
666.1	0.32
666.427	0.31
666.753	0.32
667.079	0.31
667.406	0.31
667.732	0.31
668.058	0.31
668.384	0.31
668.71	0.31
669.036	0.3
669.362	0.3
669.688	0.3
670.014	0.3
670.34	0.3
670.666	0.3
670.991	0.29
671.317	0.29
671.643	0.29
671.968	0.29
672.294	0.29
672.619	0.28
672.945	0.28
673.27	0.28
673.595	0.27
673.92	0.27
674.246	0.27
674.571	0.27
674.896	0.27
675.221	0.27
675.546	0.26
675.87	0.27
676.195	0.26
676.52	0.26
676.845	0.26
677.169	0.25
677.494	0.25
677.819	0.25
678.143	0.25
678.468	0.24
678.792	0.24
679.116	0.24
679.44	0.24
679.765	0.24
680.089	0.23
680.413	0.23
680.737	0.23
681.061	0.22
681.385	0.22
681.709	0.22
682.033	0.22
682.356	0.21
682.68	0.22
683.004	0.22
683.327	0.21
683.651	0.21
683.974	0.21
684.298	0.2
684.621	0.2
684.944	0.2
685.268	0.2
685.591	0.2
685.914	0.19
686.237	0.19
686.56	0.19
686.883	0.18
687.206	0.18
687.529	0.18
687.852	0.17
688.175	0.18
688.497	0.18
688.82	0.17
689.142	0.17
689.465	0.17
689.787	0.17
690.11	0.16
690.432	0.16
690.755	0.16
691.077	0.16
691.399	0.15
691.721	0.16
692.043	0.16
692.365	0.15
692.687	0.15
693.009	0.15
693.331	0.15
693.653	0.14
693.974	0.15
694.296	0.14
694.618	0.14
694.939	0.14
695.261	0.14
695.582	0.13
695.904	0.13
696.225	0.14
696.546	0.13
696.868	0.13
697.189	0.13
697.51	0.13
697.831	0.13
698.152	0.13
698.473	0.13
698.794	0.12
699.114	0.12
699.435	0.1
699.756	0.11
700.077	0.12
700.397	0.12
700.718	0.12
701.038	0.12
701.359	0.12
701.679	0.12
701.999	0.12
702.32	0.11
702.64	0.11
702.96	0.11
703.28	0.11
703.6	0.11
703.92	0.11
704.24	0.11
704.56	0.1
704.879	0.1
705.199	0.1
705.519	0.1
705.838	0.11
706.158	0.11
706.478	0.11
706.797	0.11
707.116	0.11
707.436	0.11
707.755	0.11
708.074	0.11
708.393	0.1
708.712	0.1
709.031	0.09
709.35	0.09
709.669	0.08
709.988	0.09
710.307	0.09
710.626	0.09
710.944	0.1
711.263	0.1
711.582	0.1
711.9	0.1
712.219	0.1
712.537	0.1
712.855	0.1
713.174	0.1
713.492	0.1
713.81	0.1
714.128	0.1
714.446	0.1
714.764	0.1
715.082	0.09
715.4	0.1
715.718	0.1
716.035	0.1
716.353	0.1
716.671	0.1
716.988	0.1
717.306	0.09
717.623	0.1
717.941	0.1
718.258	0.11
718.575	0.11
718.893	0.11
719.21	0.1
719.527	0.1
719.844	0.1
720.161	0.1
720.478	0.1
720.795	0.1
721.112	0.11
721.428	0.1
721.745	0.1
722.062	0.1
722.378	0.1
722.695	0.1
723.011	0.1
723.328	0.1
723.644	0.11
723.96	0.11
724.276	0.11
724.593	0.11
724.909	0.11
725.225	0.11
725.541	0.11
725.857	0.11
726.173	0.11
726.488	0.11
726.804	0.11
727.12	0.1
727.435	0.1
727.751	0.11
728.067	0.11
728.382	0.11
728.697	0.11
729.013	0.11
729.328	0.11
729.643	0.11
729.958	0.11
730.273	0.11
730.588	0.11
730.903	0.11
731.218	0.11
731.533	0.11
731.848	0.11
732.163	0.11
732.477	0.1
732.792	0.1
733.107	0.1
733.421	0.1
733.736	0.1
734.05	0.1
734.364	0.1
734.678	0.1
734.993	0.1
735.307	0.1
735.621	0.1
735.935	0.1
736.249	0.1
736.563	0.1
736.877	0.1
737.19	0.1
737.504	0.1
737.818	0.1
738.131	0.09
738.445	0.1
738.758	0.1
739.072	0.1
739.385	0.1
739.698	0.1
740.012	0.1
740.325	0.09
740.638	0.09
740.951	0.09
741.264	0.09
741.577	0.09
741.89	0.09
742.203	0.1
742.515	0.09
742.828	0.09
743.141	0.09
743.453	0.09
743.766	0.09
744.078	0.09
744.391	0.09
744.703	0.09
745.015	0.09
745.327	0.09
745.639	0.09
745.952	0.09
746.264	0.08
746.575	0.08
746.887	0.08
747.199	0.08
747.511	0.08
747.823	0.08
748.134	0.08
748.446	0.08
748.757	0.08
749.069	0.07
749.38	0.07
749.692	0.07
750.003	0.07
750.314	0.08
750.625	0.08
750.936	0.07
751.248	0.07
751.559	0.08
751.869	0.08
752.18	0.08
752.491	0.07
752.802	0.07
753.112	0.07
753.423	0.07
753.734	0.07
754.044	0.07
754.355	0.07
754.665	0.07
754.975	0.06
755.285	0.06
755.596	0.06
755.906	0.06
756.216	0.06
756.526	0.06
756.836	0.06
757.146	0.06
757.455	0.06
757.765	0.06
758.075	0.06
758.385	0.05
758.694	0.05
759.004	0.05
759.313	0.05
759.622	0.05
759.932	0.06
760.241	0.06
760.55	0.06
760.859	0.06
761.168	0.06
761.477	0.05
761.786	0.05
762.095	0.05
762.404	0.05
762.713	0.05
763.021	0.05
763.33	0.06
763.639	0.06
763.947	0.06
764.256	0.06
764.564	0.05
764.872	0.05
765.181	0.05
765.489	0.05
765.797	0.05
766.105	0.05
766.413	0.05
766.721	0.05
767.029	0.05
767.337	0.06
767.644	0.06
767.952	0.06
768.26	0.05
768.567	0.06
768.875	0.05
769.182	0.05
769.49	0.05
769.797	0.05
770.104	0.05
770.411	0.05
770.718	0.05
771.026	0.05
771.333	0.05
771.639	0.06
771.946	0.06
772.253	0.06
772.56	0.05
772.867	0.05
773.173	0.05
773.48	0.05
773.786	0.05
774.093	0.05
774.399	0.05
774.705	0.05
775.012	0.05
775.318	0.05
775.624	0.05
775.93	0.05
776.236	0.06
776.542	0.06
776.848	0.06
777.154	0.05
777.459	0.05
777.765	0.05
778.071	0.05
778.376	0.05
778.682	0.05
778.987	0.05
779.292	0.05
779.598	0.05
779.903	0.05
780.208	0.05
780.513	0.05
780.818	0.05
781.123	0.05
781.428	0.05
781.733	0.05
782.038	0.05
782.343	0.05
782.647	0.05
782.952	0.05
783.256	0.05
783.561	0.05
783.865	0.06
784.17	0.06
784.474	0.06
784.778	0.06
785.082	0.06
785.386	0.06
785.69	0.06
785.994	0.06
786.298	0.06
786.602	0.06
786.906	0.06
787.209	0.06
787.513	0.06
787.817	0.07
788.12	0.07
788.424	0.06
788.727	0.06
789.03	0.06
789.333	0.06
789.637	0.06
789.94	0.06
790.243	0.06
790.546	0.07
790.849	0.06
791.152	0.06
791.454	0.07
791.757	0.07
792.06	0.06
792.362	0.07
792.665	0.07
792.967	0.07
793.27	0.07
793.572	0.07
793.874	0.07
794.177	0.07
794.479	0.07
794.781	0.06
795.083	0.06
795.385	0.06
795.687	0.06
795.989	0.06
796.29	0.07
796.592	0.07
796.894	0.07
797.195	0.07
797.497	0.07
797.798	0.08
798.1	0.08
798.401	0.07
798.702	0.07
799.003	0.07
799.304	0.06
799.605	0.07
799.906	0.07
800.207	0.07
800.508	0.07
800.809	0.07
801.11	0.07
801.41	0.07
801.711	0.07
802.011	0.07
802.312	0.07
802.612	0.08
802.913	0.08
803.213	0.08
803.513	0.07
803.813	0.07
804.113	0.07
804.413	0.06
804.713	0.07
805.013	0.07
805.313	0.07
805.613	0.07
805.912	0.07
806.212	0.07
806.511	0.07
806.811	0.08
807.11	0.07
807.41	0.08
807.709	0.08
808.008	0.08
808.307	0.08
808.606	0.08
808.905	0.08
809.204	0.09
809.503	0.08
809.802	0.08
810.101	0.08
810.399	0.08
810.698	0.08
810.997	0.08
811.295	0.08
811.593	0.08
811.892	0.08
812.19	0.08
812.488	0.08
812.786	0.08
813.084	0.08
813.383	0.08
813.68	0.07
813.978	0.08
814.276	0.08
814.574	0.09
814.872	0.09
815.169	0.09
815.467	0.09
815.764	0.09
816.062	0.1
816.359	0.09
816.656	0.09
816.954	0.09
817.251	0.09
817.548	0.09
817.845	0.1
818.142	0.09
818.439	0.09
818.735	0.09
819.032	0.09
819.329	0.09
819.626	0.09
819.922	0.09
820.219	0.1
820.515	0.1
820.811	0.1
821.108	0.1
821.404	0.1
821.7	0.1
821.996	0.1
822.292	0.09
822.588	0.1
822.884	0.1
823.18	0.1
823.475	0.1
823.771	0.1
824.067	0.1
824.362	0.1
824.658	0.1
824.953	0.1
825.249	0.1
825.544	0.1
825.839	0.1
826.134	0.1
826.429	0.1
826.724	0.1
827.019	0.11
827.314	0.11
827.609	0.11
827.904	0.11
828.198	0.1
828.493	0.1
828.787	0.11
829.082	0.11
829.376	0.1
829.671	0.11
829.965	0.11
830.259	0.11
830.553	0.11
830.847	0.11
831.141	0.11
831.435	0.11
831.729	0.12
832.023	0.11
832.317	0.12
832.61	0.12
832.904	0.12
833.197	0.12
833.491	0.12
833.784	0.11
834.077	0.12
834.371	0.12
834.664	0.11
834.957	0.11
835.25	0.11
835.543	0.11
835.836	0.11
836.129	0.1
836.421	0.11
836.714	0.11
837.007	0.11
837.299	0.12
837.592	0.12
837.884	0.12
838.177	0.11
838.469	0.11
838.761	0.11
839.053	0.11
839.345	0.12
839.637	0.12
839.929	0.12
840.221	0.13
840.513	0.12
840.805	0.12
841.096	0.12
841.388	0.12
841.68	0.12
841.971	0.12
842.262	0.13
842.554	0.12
842.845	0.12
843.136	0.12
843.427	0.13
843.718	0.12
844.009	0.13
844.3	0.13
844.591	0.13
844.882	0.12
845.173	0.13
845.463	0.12
845.754	0.12
846.044	0.14
846.335	0.13
846.625	0.13
846.915	0.13
847.206	0.14
847.496	0.14
847.786	0.13
848.076	0.13
848.366	0.13
848.656	0.13
848.945	0.13
849.235	0.12
849.525	0.12
849.814	0.13
850.104	0.14
850.393	0.14
850.683	0.13
850.972	0.13
851.261	0.13
851.551	0.13
851.84	0.13
852.129	0.13
852.418	0.13
852.707	0.14
852.995	0.13
853.284	0.15
853.573	0.15
853.862	0.13
854.15	0.13
854.439	0.13
854.727	0.13
855.015	0.14
855.304	0.13
855.592	0.14
855.88	0.15
856.168	0.15
856.456	0.15
856.744	0.16
857.032	0.15
857.32	0.15
857.607	0.15
857.895	0.15
858.183	0.14
858.47	0.14
858.757	0.15
859.045	0.17
859.332	0.16
859.619	0.15
859.907	0.17
860.194	0.15
860.481	0.15
860.768	0.14
861.054	0.16
861.341	0.14
861.628	0.15
861.915	0.17
862.201	0.15
862.488	0.15
862.774	0.15
863.061	0.15
863.347	0.13
863.633	0.15
863.919	0.16
864.205	0.13
864.491	0.13
864.777	0.14
865.063	0.16
865.349	0.16
865.635	0.15
865.92	0.15
866.206	0.15
866.492	0.16
866.777	0.15
867.062	0.16
867.348	0.13
867.633	0.14
867.918	0.16
868.203	0.17
868.488	0.14
868.773	0.14
869.058	0.15
869.343	0.15
869.628	0.13
869.912	0.16
870.197	0.17
870.482	0.15
870.766	0.17
871.05	0.15
871.335	0.18
871.619	0.15
871.903	0.18
872.187	0.14
872.471	0.19
872.755	0.14
873.039	0.17
873.323	0.16
873.607	0.16
873.89	0.17
874.174	0.16
874.458	0.16
874.741	0.19
875.024	0.15
875.308	0.15
875.591	0.18
875.874	0.16
876.157	0.2
876.44	0.18
876.723	0.14
877.006	0.12
877.289	0.13
877.572	0.12
877.854	0.11
878.137	0.09
878.42	0.11
878.702	0.17
878.984	0.11
879.267	0.19
879.549	0.14
879.831	0.18
880.113	0.17
880.395	0.19
880.677	0.15
880.959	0.13
