Data from Rubpy_BV_1500_EDTA_Buffered_Absorbance_14-27-53-713.txt Node
Date: Wed Jul 01 14:27:53 BST 2026
User: fpm-admin
Spectrometer: OFX00224
Trigger mode: 0
Integration Time (sec): 7.000000E-2
Scans to average: 3
Nonlinearity correction enabled: false
Boxcar width: 0
Storing dark spectrum: false
XAxis mode: Wavelengths
Number of Pixels in Spectrum: 2136
>>>>>Begin Spectral Data<<<<<
154.91	-0
155.289	0.1
155.669	-1.1
156.048	1.11
156.428	-0
156.807	-0
157.186	-0.38
157.566	-0.07
157.945	-0.03
158.325	-0
158.704	-0
159.083	-0
159.462	0.33
159.842	0.01
160.221	0.14
160.6	-0
160.979	0.16
161.359	0.85
161.738	0.03
162.117	-0.39
162.496	-0.55
162.875	0.18
163.254	0.14
163.633	0.88
164.012	0.57
164.391	-0.16
164.77	0.18
165.149	0.15
165.528	-0.91
165.907	-0.42
166.286	-0.71
166.665	-0
167.044	0.42
167.423	-0
167.802	-0
168.181	-0.31
168.559	-0.08
168.938	-0.29
169.317	0.02
169.696	-0.04
170.074	-0.71
170.453	-0.1
170.832	0.33
171.21	-0.28
171.589	-0
171.968	-0.4
172.346	0.19
172.725	-0
173.103	-0
173.482	-0.7
173.861	-0
174.239	-0.6
174.617	-0
174.996	0.95
175.374	-0.09
175.753	-0.46
176.131	-0
176.51	0.29
176.888	-0
177.266	-0
177.645	-0
178.023	1.95
178.401	-0.09
178.779	-0
179.158	0.07
179.536	-0.36
179.914	-0.09
180.292	0.12
180.67	-1.28
181.048	0.65
181.427	-0
181.805	0.48
182.183	-0.71
182.561	0.3
182.939	-0
183.317	-0
183.695	0.58
184.073	-0
184.451	-0.19
184.829	1.43
185.206	-0.88
185.584	0.07
185.962	0.3
186.34	-0
186.718	-0.98
187.096	-0.45
187.473	0.25
187.851	-0
188.229	0.23
188.607	0.17
188.984	0.29
189.362	0.33
189.74	0.26
190.117	0.11
190.495	0.13
190.872	0.64
191.25	0.33
191.627	0.21
192.005	0.21
192.382	0.3
192.76	0.17
193.137	0.28
193.515	0.3
193.892	0.21
194.269	0.21
194.647	0.26
195.024	0.19
195.401	0.31
195.779	0.25
196.156	0.23
196.533	0.3
196.91	0.42
197.288	0.25
197.665	0.24
198.042	0.31
198.419	0.31
198.796	0.41
199.173	0.37
199.55	0.22
199.927	0.39
200.304	0.3
200.681	0.49
201.058	0.21
201.435	0.46
201.812	0.38
202.189	0.46
202.566	0.28
202.943	0.16
203.32	0.27
203.697	0.21
204.073	0.21
204.45	0.22
204.827	0.37
205.204	0.24
205.58	0.29
205.957	0.29
206.334	0.34
206.71	0.14
207.087	0.41
207.464	0.3
207.84	0.26
208.217	0.39
208.593	0.43
208.97	0.35
209.346	0.44
209.723	0.26
210.099	0.31
210.476	0.27
210.852	0.29
211.228	0.2
211.605	0.31
211.981	0.35
212.357	0.34
212.733	0.16
213.11	0.17
213.486	0.23
213.862	0.28
214.238	0.39
214.614	0.23
214.991	0.19
215.367	0.18
215.743	0.18
216.119	0.33
216.495	0.33
216.871	0.38
217.247	0.19
217.623	0.25
217.999	0.12
218.375	0.24
218.751	0.41
219.127	0.33
219.502	0.27
219.878	0.36
220.254	0.33
220.63	0.33
221.006	0.21
221.381	0.49
221.757	0.39
222.133	0.21
222.508	0.38
222.884	0.42
223.26	0.16
223.635	0.27
224.011	0.56
224.386	0.46
224.762	0.42
225.137	0.34
225.513	0.4
225.888	0.38
226.264	0.38
226.639	0.26
227.014	0.39
227.39	0.28
227.765	0.36
228.14	0.28
228.516	0.51
228.891	0.35
229.266	0.4
229.641	0.54
230.017	0.37
230.392	0.36
230.767	0.34
231.142	0.36
231.517	0.25
231.892	0.46
232.267	0.28
232.642	0.58
233.017	0.25
233.392	0.24
233.767	0.25
234.142	0.33
234.517	0.33
234.892	0.24
235.267	0.21
235.641	0.22
236.016	0.24
236.391	0.38
236.766	0.38
237.14	0.3
237.515	0.21
237.89	0.59
238.264	0.39
238.639	0.37
239.014	0.19
239.388	0.15
239.763	0.36
240.137	0.39
240.512	0.34
240.886	0.36
241.261	0.35
241.635	0.26
242.009	0.5
242.384	0.31
242.758	0.34
243.132	0.17
243.507	0.21
243.881	0.28
244.255	0.32
244.629	0.26
245.004	0.29
245.378	0.34
245.752	0.24
246.126	0.39
246.5	0.25
246.874	0.26
247.248	0.32
247.622	0.14
247.996	0.42
248.37	0.29
248.744	0.28
249.118	0.19
249.492	0.32
249.866	0.29
250.24	0.27
250.613	0.29
250.987	0.39
251.361	0.32
251.735	0.41
252.108	0.29
252.482	0.39
252.856	0.37
253.229	0.31
253.603	0.37
253.977	0.2
254.35	0.39
254.724	0.19
255.097	0.24
255.471	0.33
255.844	0.32
256.218	0.36
256.591	0.31
256.964	0.23
257.338	0.22
257.711	0.32
258.084	0.37
258.458	0.34
258.831	0.25
259.204	0.3
259.577	0.36
259.95	0.29
260.323	0.34
260.697	0.34
261.07	0.38
261.443	0.33
261.816	0.26
262.189	0.36
262.562	0.21
262.935	0.33
263.308	0.13
263.68	0.26
264.053	0.34
264.426	0.27
264.799	0.35
265.172	0.35
265.545	0.43
265.917	0.31
266.29	0.36
266.663	0.37
267.035	0.25
267.408	0.33
267.781	0.32
268.153	0.42
268.526	0.34
268.898	0.39
269.271	0.44
269.643	0.32
270.016	0.33
270.388	0.35
270.76	0.27
271.133	0.31
271.505	0.42
271.877	0.25
272.25	0.37
272.622	0.43
272.994	0.31
273.366	0.32
273.739	0.25
274.111	0.32
274.483	0.29
274.855	0.35
275.227	0.38
275.599	0.26
275.971	0.3
276.343	0.24
276.715	0.36
277.087	0.39
277.459	0.2
277.831	0.5
278.203	0.26
278.574	0.31
278.946	0.28
279.318	0.31
279.69	0.28
280.061	0.36
280.433	0.36
280.805	0.3
281.176	0.32
281.548	0.36
281.92	0.33
282.291	0.31
282.663	0.33
283.034	0.34
283.406	0.35
283.777	0.32
284.148	0.35
284.52	0.39
284.891	0.29
285.262	0.37
285.634	0.27
286.005	0.46
286.376	0.33
286.747	0.33
287.119	0.28
287.49	0.37
287.861	0.37
288.232	0.29
288.603	0.35
288.974	0.35
289.345	0.3
289.716	0.29
290.087	0.29
290.458	0.43
290.829	0.23
291.2	0.32
291.571	0.4
291.941	0.29
292.312	0.33
292.683	0.28
293.054	0.4
293.424	0.42
293.795	0.3
294.166	0.27
294.536	0.34
294.907	0.41
295.277	0.49
295.648	0.38
296.018	0.4
296.389	0.38
296.759	0.34
297.13	0.44
297.5	0.35
297.871	0.32
298.241	0.3
298.611	0.47
298.981	0.41
299.352	0.3
299.722	0.36
300.092	0.28
300.462	0.29
300.832	0.35
301.202	0.42
301.573	0.29
301.943	0.32
302.313	0.35
302.683	0.37
303.053	0.38
303.422	0.36
303.792	0.32
304.162	0.28
304.532	0.29
304.902	0.27
305.272	0.33
305.641	0.34
306.011	0.36
306.381	0.29
306.75	0.29
307.12	0.22
307.49	0.27
307.859	0.3
308.229	0.27
308.598	0.27
308.968	0.24
309.337	0.26
309.707	0.23
310.076	0.24
310.445	0.25
310.815	0.24
311.184	0.24
311.553	0.24
311.923	0.23
312.292	0.24
312.661	0.24
313.03	0.24
313.399	0.27
313.768	0.26
314.137	0.25
314.506	0.24
314.875	0.25
315.244	0.26
315.613	0.27
315.982	0.28
316.351	0.26
316.72	0.27
317.089	0.28
317.458	0.28
317.826	0.29
318.195	0.29
318.564	0.3
318.933	0.31
319.301	0.29
319.67	0.32
320.038	0.31
320.407	0.31
320.775	0.32
321.144	0.32
321.512	0.33
321.881	0.32
322.249	0.34
322.618	0.33
322.986	0.36
323.354	0.34
323.723	0.36
324.091	0.37
324.459	0.35
324.827	0.37
325.195	0.39
325.564	0.37
325.932	0.38
326.3	0.39
326.668	0.4
327.036	0.4
327.404	0.41
327.772	0.41
328.14	0.41
328.508	0.43
328.875	0.43
329.243	0.45
329.611	0.46
329.979	0.46
330.346	0.46
330.714	0.46
331.082	0.47
331.449	0.48
331.817	0.49
332.185	0.49
332.552	0.51
332.92	0.52
333.287	0.53
333.655	0.53
334.022	0.54
334.389	0.55
334.757	0.57
335.124	0.57
335.491	0.58
335.859	0.6
336.226	0.61
336.593	0.62
336.96	0.64
337.327	0.65
337.695	0.65
338.062	0.68
338.429	0.68
338.796	0.68
339.163	0.7
339.53	0.71
339.897	0.72
340.263	0.74
340.63	0.76
340.997	0.77
341.364	0.77
341.731	0.79
342.097	0.8
342.464	0.81
342.831	0.83
343.197	0.84
343.564	0.85
343.931	0.87
344.297	0.88
344.664	0.9
345.03	0.91
345.396	0.91
345.763	0.94
346.129	0.95
346.496	0.96
346.862	0.97
347.228	0.98
347.594	1
347.961	1.01
348.327	1.02
348.693	1.04
349.059	1.05
349.425	1.06
349.791	1.07
350.157	1.09
350.523	1.09
350.889	1.12
351.255	1.12
351.621	1.14
351.987	1.15
352.353	1.17
352.719	1.17
353.084	1.19
353.45	1.2
353.816	1.21
354.181	1.22
354.547	1.24
354.913	1.26
355.278	1.26
355.644	1.28
356.009	1.31
356.375	1.3
356.74	1.32
357.106	1.33
357.471	1.35
357.836	1.38
358.202	1.4
358.567	1.41
358.932	1.41
359.297	1.42
359.663	1.47
360.028	1.48
360.393	1.47
360.758	1.5
361.123	1.52
361.488	1.56
361.853	1.54
362.218	1.56
362.583	1.57
362.948	1.58
363.312	1.62
363.677	1.64
364.042	1.63
364.407	1.64
364.772	1.7
365.136	1.7
365.501	1.7
365.865	1.72
366.23	1.74
366.595	1.74
366.959	1.76
367.324	1.75
367.688	1.75
368.052	1.77
368.417	1.77
368.781	1.78
369.145	1.8
369.51	1.79
369.874	1.83
370.238	1.84
370.602	1.86
370.967	1.8
371.331	1.83
371.695	1.8
372.059	1.83
372.423	1.85
372.787	1.83
373.151	1.86
373.515	1.83
373.878	1.84
374.242	1.8
374.606	1.8
374.97	1.82
375.334	1.74
375.697	1.79
376.061	1.77
376.425	1.77
376.788	1.8
377.152	1.75
377.515	1.7
377.879	1.72
378.242	1.69
378.606	1.69
378.969	1.66
379.333	1.64
379.696	1.63
380.059	1.61
380.422	1.59
380.786	1.59
381.149	1.56
381.512	1.55
381.875	1.52
382.238	1.52
382.601	1.48
382.964	1.47
383.327	1.46
383.69	1.43
384.053	1.44
384.416	1.39
384.779	1.39
385.142	1.37
385.504	1.38
385.867	1.35
386.23	1.34
386.593	1.34
386.955	1.33
387.318	1.32
387.68	1.32
388.043	1.31
388.405	1.3
388.768	1.29
389.13	1.29
389.493	1.29
389.855	1.27
390.217	1.26
390.58	1.26
390.942	1.24
391.304	1.22
391.666	1.21
392.028	1.2
392.391	1.17
392.753	1.14
393.115	1.13
393.477	1.12
393.839	1.11
394.201	1.08
394.563	1.09
394.924	1.08
395.286	1.09
395.648	1.09
396.01	1.1
396.371	1.1
396.733	1.12
397.095	1.12
397.456	1.14
397.818	1.16
398.18	1.18
398.541	1.2
398.903	1.24
399.264	1.25
399.625	1.27
399.987	1.3
400.348	1.32
400.709	1.33
401.071	1.35
401.432	1.35
401.793	1.34
402.154	1.33
402.515	1.31
402.876	1.32
403.238	1.27
403.599	1.24
403.96	1.22
404.32	1.17
404.681	1.13
405.042	1.09
405.403	1.05
405.764	1.01
406.125	0.95
406.485	0.91
406.846	0.87
407.207	0.82
407.567	0.77
407.928	0.74
408.288	0.7
408.649	0.67
409.009	0.63
409.37	0.59
409.73	0.56
410.091	0.53
410.451	0.5
410.811	0.48
411.171	0.46
411.532	0.43
411.892	0.42
412.252	0.4
412.612	0.38
412.972	0.37
413.332	0.35
413.692	0.34
414.052	0.32
414.412	0.31
414.772	0.3
415.132	0.29
415.492	0.28
415.851	0.27
416.211	0.27
416.571	0.25
416.931	0.25
417.29	0.24
417.65	0.24
418.009	0.23
418.369	0.22
418.728	0.22
419.088	0.21
419.447	0.21
419.807	0.2
420.166	0.2
420.525	0.2
420.884	0.19
421.244	0.19
421.603	0.19
421.962	0.18
422.321	0.18
422.68	0.18
423.039	0.17
423.398	0.17
423.757	0.17
424.116	0.17
424.475	0.18
424.834	0.17
425.193	0.16
425.551	0.16
425.91	0.16
426.269	0.16
426.628	0.16
426.986	0.16
427.345	0.16
427.703	0.15
428.062	0.14
428.42	0.14
428.779	0.15
429.137	0.14
429.496	0.14
429.854	0.14
430.212	0.14
430.57	0.14
430.929	0.14
431.287	0.14
431.645	0.14
432.003	0.15
432.361	0.14
432.719	0.14
433.077	0.14
433.435	0.14
433.793	0.14
434.151	0.14
434.509	0.14
434.866	0.14
435.224	0.14
435.582	0.14
435.94	0.15
436.297	0.14
436.655	0.13
437.012	0.14
437.37	0.13
437.727	0.14
438.085	0.15
438.442	0.14
438.8	0.14
439.157	0.14
439.514	0.13
439.872	0.13
440.229	0.14
440.586	0.15
440.943	0.15
441.3	0.15
441.657	0.14
442.014	0.14
442.371	0.14
442.728	0.15
443.085	0.15
443.442	0.15
443.799	0.14
444.156	0.14
444.513	0.14
444.869	0.15
445.226	0.15
445.583	0.16
445.939	0.15
446.296	0.16
446.652	0.16
447.009	0.16
447.365	0.16
447.722	0.15
448.078	0.16
448.434	0.16
448.791	0.16
449.147	0.15
449.503	0.16
449.859	0.16
450.215	0.15
450.571	0.16
450.928	0.17
451.284	0.17
451.64	0.17
451.995	0.16
452.351	0.18
452.707	0.18
453.063	0.17
453.419	0.18
453.775	0.17
454.13	0.17
454.486	0.18
454.842	0.18
455.197	0.18
455.553	0.18
455.908	0.18
456.264	0.19
456.619	0.18
456.975	0.18
457.33	0.19
457.685	0.19
458.04	0.19
458.396	0.19
458.751	0.19
459.106	0.2
459.461	0.2
459.816	0.2
460.171	0.2
460.526	0.2
460.881	0.21
461.236	0.2
461.591	0.21
461.946	0.2
462.301	0.2
462.655	0.21
463.01	0.21
463.365	0.21
463.719	0.21
464.074	0.22
464.428	0.22
464.783	0.21
465.137	0.22
465.492	0.22
465.846	0.22
466.201	0.22
466.555	0.23
466.909	0.22
467.263	0.23
467.618	0.23
467.972	0.24
468.326	0.23
468.68	0.24
469.034	0.24
469.388	0.25
469.742	0.24
470.096	0.24
470.45	0.26
470.804	0.26
471.157	0.25
471.511	0.26
471.865	0.27
472.218	0.27
472.572	0.27
472.926	0.27
473.279	0.27
473.633	0.28
473.986	0.29
474.34	0.29
474.693	0.29
475.046	0.3
475.4	0.3
475.753	0.31
476.106	0.32
476.459	0.31
476.812	0.32
477.165	0.32
477.519	0.33
477.872	0.33
478.224	0.34
478.577	0.34
478.93	0.35
479.283	0.34
479.636	0.35
479.989	0.35
480.341	0.35
480.694	0.36
481.047	0.37
481.399	0.36
481.752	0.37
482.104	0.37
482.457	0.38
482.809	0.38
483.162	0.38
483.514	0.39
483.866	0.4
484.219	0.4
484.571	0.4
484.923	0.4
485.275	0.41
485.627	0.41
485.979	0.41
486.331	0.42
486.683	0.42
487.035	0.43
487.387	0.43
487.739	0.44
488.091	0.44
488.443	0.45
488.794	0.45
489.146	0.44
489.498	0.45
489.849	0.45
490.201	0.46
490.552	0.47
490.904	0.47
491.255	0.47
491.607	0.48
491.958	0.49
492.309	0.49
492.661	0.49
493.012	0.49
493.363	0.5
493.714	0.5
494.065	0.5
494.416	0.51
494.767	0.51
495.118	0.52
495.469	0.52
495.82	0.52
496.171	0.53
496.522	0.53
496.872	0.53
497.223	0.53
497.574	0.55
497.924	0.55
498.275	0.54
498.626	0.55
498.976	0.56
499.327	0.56
499.677	0.57
500.027	0.56
500.378	0.57
500.728	0.57
501.078	0.58
501.428	0.58
501.779	0.58
502.129	0.59
502.479	0.59
502.829	0.6
503.179	0.6
503.529	0.6
503.879	0.61
504.229	0.61
504.578	0.62
504.928	0.63
505.278	0.62
505.628	0.63
505.977	0.64
506.327	0.64
506.676	0.64
507.026	0.64
507.375	0.65
507.725	0.65
508.074	0.66
508.424	0.66
508.773	0.66
509.122	0.67
509.471	0.66
509.82	0.66
510.17	0.67
510.519	0.68
510.868	0.69
511.217	0.69
511.566	0.69
511.915	0.69
512.263	0.7
512.612	0.71
512.961	0.7
513.31	0.7
513.659	0.7
514.007	0.71
514.356	0.72
514.704	0.72
515.053	0.72
515.401	0.72
515.75	0.73
516.098	0.73
516.447	0.74
516.795	0.75
517.143	0.75
517.491	0.74
517.839	0.75
518.188	0.75
518.536	0.75
518.884	0.76
519.232	0.76
519.58	0.76
519.928	0.76
520.275	0.76
520.623	0.77
520.971	0.77
521.319	0.77
521.666	0.78
522.014	0.78
522.362	0.79
522.709	0.78
523.057	0.79
523.404	0.8
523.752	0.79
524.099	0.8
524.446	0.79
524.794	0.81
525.141	0.8
525.488	0.81
525.835	0.81
526.182	0.81
526.529	0.81
526.876	0.81
527.223	0.82
527.57	0.82
527.917	0.81
528.264	0.83
528.611	0.82
528.958	0.83
529.304	0.83
529.651	0.83
529.998	0.83
530.344	0.84
530.691	0.84
531.037	0.85
531.384	0.83
531.73	0.85
532.076	0.84
532.423	0.84
532.769	0.85
533.115	0.85
533.461	0.85
533.807	0.85
534.154	0.86
534.5	0.86
534.846	0.85
535.192	0.86
535.537	0.86
535.883	0.85
536.229	0.86
536.575	0.87
536.921	0.87
537.266	0.87
537.612	0.87
537.957	0.87
538.303	0.87
538.649	0.87
538.994	0.87
539.339	0.88
539.685	0.88
540.03	0.87
540.375	0.88
540.721	0.88
541.066	0.88
541.411	0.88
541.756	0.88
542.101	0.88
542.446	0.88
542.791	0.89
543.136	0.88
543.481	0.89
543.825	0.89
544.17	0.89
544.515	0.89
544.86	0.89
545.204	0.9
545.549	0.89
545.893	0.89
546.238	0.89
546.582	0.9
546.927	0.89
547.271	0.89
547.615	0.89
547.96	0.89
548.304	0.9
548.648	0.9
548.992	0.9
549.336	0.89
549.68	0.9
550.024	0.9
550.368	0.9
550.712	0.89
551.056	0.89
551.4	0.9
551.743	0.9
552.087	0.9
552.431	0.9
552.774	0.9
553.118	0.9
553.462	0.9
553.805	0.89
554.148	0.9
554.492	0.9
554.835	0.89
555.178	0.89
555.522	0.89
555.865	0.9
556.208	0.9
556.551	0.89
556.894	0.9
557.237	0.9
557.58	0.9
557.923	0.89
558.266	0.89
558.609	0.88
558.952	0.88
559.294	0.89
559.637	0.88
559.98	0.89
560.322	0.88
560.665	0.89
561.007	0.88
561.35	0.88
561.692	0.88
562.034	0.88
562.377	0.88
562.719	0.88
563.061	0.88
563.403	0.88
563.745	0.88
564.088	0.88
564.43	0.88
564.772	0.88
565.113	0.87
565.455	0.87
565.797	0.87
566.139	0.87
566.481	0.86
566.822	0.86
567.164	0.86
567.506	0.86
567.847	0.86
568.189	0.86
568.53	0.85
568.872	0.85
569.213	0.86
569.554	0.85
569.895	0.85
570.237	0.84
570.578	0.85
570.919	0.85
571.26	0.84
571.601	0.84
571.942	0.84
572.283	0.84
572.624	0.84
572.965	0.83
573.306	0.83
573.646	0.83
573.987	0.82
574.328	0.82
574.668	0.83
575.009	0.82
575.349	0.81
575.69	0.82
576.03	0.81
576.37	0.81
576.711	0.8
577.051	0.81
577.391	0.81
577.731	0.81
578.072	0.8
578.412	0.8
578.752	0.8
579.092	0.8
579.431	0.79
579.771	0.77
580.111	0.76
580.451	0.77
580.791	0.78
581.13	0.79
581.47	0.79
581.81	0.78
582.149	0.78
582.489	0.78
582.828	0.77
583.167	0.75
583.507	0.71
583.846	0.69
584.185	0.72
584.525	0.74
584.864	0.76
585.203	0.77
585.542	0.77
585.881	0.77
586.22	0.77
586.559	0.76
586.898	0.75
587.236	0.74
587.575	0.74
587.914	0.75
588.252	0.76
588.591	0.76
588.93	0.76
589.268	0.75
589.607	0.76
589.945	0.76
590.283	0.76
590.622	0.76
590.96	0.76
591.298	0.76
591.636	0.76
591.974	0.77
592.313	0.76
592.651	0.76
592.989	0.76
593.326	0.76
593.664	0.76
594.002	0.76
594.34	0.75
594.678	0.75
595.015	0.75
595.353	0.74
595.691	0.75
596.028	0.75
596.366	0.75
596.703	0.75
597.04	0.75
597.378	0.75
597.715	0.75
598.052	0.76
598.389	0.76
598.726	0.76
599.064	0.76
599.401	0.75
599.738	0.75
600.074	0.75
600.411	0.75
600.748	0.74
601.085	0.74
601.422	0.73
601.758	0.73
602.095	0.73
602.432	0.73
602.768	0.73
603.105	0.74
603.441	0.73
603.777	0.74
604.114	0.74
604.45	0.74
604.786	0.73
605.122	0.73
605.459	0.72
605.795	0.72
606.131	0.72
606.467	0.72
606.803	0.72
607.139	0.72
607.474	0.72
607.81	0.71
608.146	0.71
608.482	0.71
608.817	0.71
609.153	0.71
609.488	0.7
609.824	0.7
610.159	0.7
610.495	0.7
610.83	0.7
611.165	0.7
611.5	0.7
611.836	0.69
612.171	0.69
612.506	0.69
612.841	0.69
613.176	0.68
613.511	0.68
613.845	0.68
614.18	0.68
614.515	0.68
614.85	0.67
615.184	0.67
615.519	0.67
615.854	0.67
616.188	0.67
616.523	0.66
616.857	0.66
617.191	0.66
617.526	0.65
617.86	0.65
618.194	0.65
618.528	0.65
618.862	0.65
619.196	0.64
619.53	0.65
619.864	0.64
620.198	0.64
620.532	0.64
620.866	0.63
621.2	0.63
621.533	0.63
621.867	0.63
622.201	0.62
622.534	0.62
622.868	0.63
623.201	0.62
623.534	0.61
623.868	0.61
624.201	0.61
624.534	0.61
624.868	0.61
625.201	0.61
625.534	0.6
625.867	0.6
626.2	0.59
626.533	0.59
626.865	0.59
627.198	0.59
627.531	0.58
627.864	0.58
628.196	0.58
628.529	0.58
628.862	0.57
629.194	0.57
629.527	0.57
629.859	0.56
630.191	0.55
630.524	0.56
630.856	0.55
631.188	0.55
631.52	0.55
631.852	0.54
632.184	0.54
632.516	0.54
632.848	0.54
633.18	0.53
633.512	0.53
633.844	0.53
634.175	0.52
634.507	0.52
634.839	0.52
635.17	0.51
635.502	0.51
635.833	0.51
636.165	0.5
636.496	0.5
636.827	0.5
637.159	0.49
637.49	0.49
637.821	0.48
638.152	0.48
638.483	0.48
638.814	0.48
639.145	0.47
639.476	0.47
639.807	0.47
640.137	0.47
640.468	0.46
640.799	0.46
641.129	0.45
641.46	0.45
641.791	0.45
642.121	0.45
642.451	0.44
642.782	0.44
643.112	0.44
643.442	0.44
643.773	0.43
644.103	0.43
644.433	0.43
644.763	0.43
645.093	0.42
645.423	0.42
645.753	0.42
646.082	0.42
646.412	0.41
646.742	0.41
647.072	0.41
647.401	0.41
647.731	0.4
648.06	0.4
648.39	0.4
648.719	0.4
649.048	0.4
649.378	0.4
649.707	0.4
650.036	0.39
650.365	0.39
650.694	0.39
651.023	0.39
651.352	0.39
651.681	0.39
652.01	0.38
652.339	0.38
652.668	0.38
652.996	0.38
653.325	0.38
653.654	0.38
653.982	0.38
654.311	0.38
654.639	0.38
654.967	0.38
655.296	0.37
655.624	0.37
655.952	0.37
656.28	0.37
656.609	0.37
656.937	0.36
657.265	0.36
657.593	0.24
657.92	0.14
658.248	0.09
658.576	0.12
658.904	0.21
659.231	0.3
659.559	0.35
659.887	0.35
660.214	0.35
660.542	0.35
660.869	0.35
661.196	0.35
661.524	0.34
661.851	0.34
662.178	0.34
662.505	0.34
662.832	0.34
663.159	0.34
663.486	0.34
663.813	0.33
664.14	0.33
664.467	0.33
664.794	0.33
665.12	0.33
665.447	0.33
665.774	0.33
666.1	0.32
666.427	0.32
666.753	0.32
667.079	0.32
667.406	0.32
667.732	0.31
668.058	0.32
668.384	0.31
668.71	0.31
669.036	0.31
669.362	0.31
669.688	0.31
670.014	0.31
670.34	0.3
670.666	0.3
670.991	0.3
671.317	0.3
671.643	0.3
671.968	0.3
672.294	0.29
672.619	0.29
672.945	0.28
673.27	0.28
673.595	0.28
673.92	0.28
674.246	0.28
674.571	0.28
674.896	0.28
675.221	0.27
675.546	0.27
675.87	0.27
676.195	0.27
676.52	0.27
676.845	0.26
677.169	0.26
677.494	0.26
677.819	0.26
678.143	0.25
678.468	0.25
678.792	0.25
679.116	0.25
679.44	0.24
679.765	0.24
680.089	0.24
680.413	0.23
680.737	0.24
681.061	0.23
681.385	0.23
681.709	0.23
682.033	0.22
682.356	0.22
682.68	0.22
683.004	0.22
683.327	0.22
683.651	0.21
683.974	0.21
684.298	0.21
684.621	0.21
684.944	0.2
685.268	0.2
685.591	0.2
685.914	0.2
686.237	0.2
686.56	0.19
686.883	0.19
687.206	0.18
687.529	0.18
687.852	0.18
688.175	0.18
688.497	0.18
688.82	0.18
689.142	0.17
689.465	0.17
689.787	0.17
690.11	0.17
690.432	0.16
690.755	0.16
691.077	0.16
691.399	0.16
691.721	0.16
692.043	0.16
692.365	0.16
692.687	0.16
693.009	0.15
693.331	0.15
693.653	0.15
693.974	0.15
694.296	0.14
694.618	0.14
694.939	0.14
695.261	0.14
695.582	0.14
695.904	0.14
696.225	0.14
696.546	0.14
696.868	0.13
697.189	0.13
697.51	0.13
697.831	0.13
698.152	0.13
698.473	0.13
698.794	0.12
699.114	0.12
699.435	0.11
699.756	0.11
700.077	0.12
700.397	0.12
700.718	0.12
701.038	0.12
701.359	0.12
701.679	0.12
701.999	0.12
702.32	0.12
702.64	0.11
702.96	0.11
703.28	0.11
703.6	0.11
703.92	0.11
704.24	0.11
704.56	0.1
704.879	0.11
705.199	0.11
705.519	0.11
705.838	0.11
706.158	0.11
706.478	0.11
706.797	0.11
707.116	0.11
707.436	0.11
707.755	0.11
708.074	0.11
708.393	0.1
708.712	0.1
709.031	0.09
709.35	0.09
709.669	0.09
709.988	0.09
710.307	0.09
710.626	0.09
710.944	0.1
711.263	0.1
711.582	0.1
711.9	0.1
712.219	0.1
712.537	0.1
712.855	0.1
713.174	0.1
713.492	0.1
713.81	0.1
714.128	0.1
714.446	0.1
714.764	0.1
715.082	0.09
715.4	0.1
715.718	0.1
716.035	0.1
716.353	0.1
716.671	0.1
716.988	0.1
717.306	0.1
717.623	0.1
717.941	0.11
718.258	0.11
718.575	0.11
718.893	0.11
719.21	0.11
719.527	0.1
719.844	0.1
720.161	0.1
720.478	0.1
720.795	0.11
721.112	0.1
721.428	0.11
721.745	0.11
722.062	0.11
722.378	0.11
722.695	0.11
723.011	0.1
723.328	0.1
723.644	0.11
723.96	0.11
724.276	0.11
724.593	0.11
724.909	0.11
725.225	0.11
725.541	0.11
725.857	0.11
726.173	0.11
726.488	0.11
726.804	0.11
727.12	0.11
727.435	0.11
727.751	0.11
728.067	0.11
728.382	0.11
728.697	0.11
729.013	0.11
729.328	0.11
729.643	0.11
729.958	0.11
730.273	0.11
730.588	0.11
730.903	0.11
731.218	0.11
731.533	0.11
731.848	0.11
732.163	0.11
732.477	0.1
732.792	0.11
733.107	0.1
733.421	0.1
733.736	0.1
734.05	0.11
734.364	0.1
734.678	0.1
734.993	0.1
735.307	0.1
735.621	0.1
735.935	0.1
736.249	0.1
736.563	0.1
736.877	0.1
737.19	0.1
737.504	0.1
737.818	0.1
738.131	0.1
738.445	0.1
738.758	0.1
739.072	0.1
739.385	0.1
739.698	0.1
740.012	0.1
740.325	0.1
740.638	0.09
740.951	0.1
741.264	0.09
741.577	0.09
741.89	0.1
742.203	0.1
742.515	0.1
742.828	0.09
743.141	0.1
743.453	0.09
743.766	0.09
744.078	0.09
744.391	0.09
744.703	0.09
745.015	0.09
745.327	0.09
745.639	0.09
745.952	0.09
746.264	0.08
746.575	0.08
746.887	0.08
747.199	0.08
747.511	0.08
747.823	0.08
748.134	0.08
748.446	0.08
748.757	0.08
749.069	0.08
749.38	0.07
749.692	0.08
750.003	0.07
750.314	0.08
750.625	0.08
750.936	0.08
751.248	0.07
751.559	0.08
751.869	0.08
752.18	0.08
752.491	0.07
752.802	0.07
753.112	0.07
753.423	0.07
753.734	0.07
754.044	0.07
754.355	0.07
754.665	0.07
754.975	0.07
755.285	0.07
755.596	0.06
755.906	0.07
756.216	0.06
756.526	0.07
756.836	0.06
757.146	0.06
757.455	0.06
757.765	0.06
758.075	0.06
758.385	0.06
758.694	0.06
759.004	0.06
759.313	0.05
759.622	0.06
759.932	0.06
760.241	0.06
760.55	0.06
760.859	0.06
761.168	0.06
761.477	0.06
761.786	0.06
762.095	0.05
762.404	0.05
762.713	0.05
763.021	0.05
763.33	0.06
763.639	0.06
763.947	0.06
764.256	0.06
764.564	0.06
764.872	0.05
765.181	0.06
765.489	0.05
765.797	0.05
766.105	0.05
766.413	0.05
766.721	0.05
767.029	0.05
767.337	0.06
767.644	0.06
767.952	0.06
768.26	0.06
768.567	0.06
768.875	0.06
769.182	0.05
769.49	0.05
769.797	0.05
770.104	0.05
770.411	0.05
770.718	0.05
771.026	0.05
771.333	0.06
771.639	0.06
771.946	0.06
772.253	0.06
772.56	0.06
772.867	0.06
773.173	0.06
773.48	0.05
773.786	0.05
774.093	0.05
774.399	0.05
774.705	0.06
775.012	0.05
775.318	0.05
775.624	0.05
775.93	0.05
776.236	0.06
776.542	0.06
776.848	0.06
777.154	0.06
777.459	0.05
777.765	0.05
778.071	0.05
778.376	0.05
778.682	0.05
778.987	0.06
779.292	0.06
779.598	0.05
779.903	0.06
780.208	0.06
780.513	0.05
780.818	0.05
781.123	0.05
781.428	0.05
781.733	0.05
782.038	0.05
782.343	0.05
782.647	0.05
782.952	0.05
783.256	0.05
783.561	0.05
783.865	0.05
784.17	0.06
784.474	0.06
784.778	0.06
785.082	0.06
785.386	0.06
785.69	0.06
785.994	0.06
786.298	0.06
786.602	0.06
786.906	0.06
787.209	0.06
787.513	0.07
787.817	0.07
788.12	0.07
788.424	0.06
788.727	0.07
789.03	0.06
789.333	0.06
789.637	0.06
789.94	0.07
790.243	0.07
790.546	0.07
790.849	0.07
791.152	0.07
791.454	0.07
791.757	0.07
792.06	0.07
792.362	0.07
792.665	0.07
792.967	0.07
793.27	0.07
793.572	0.07
793.874	0.07
794.177	0.07
794.479	0.07
794.781	0.07
795.083	0.06
795.385	0.07
795.687	0.06
795.989	0.07
796.29	0.07
796.592	0.07
796.894	0.07
797.195	0.07
797.497	0.07
797.798	0.08
798.1	0.08
798.401	0.07
798.702	0.07
799.003	0.07
799.304	0.07
799.605	0.07
799.906	0.07
800.207	0.07
800.508	0.07
800.809	0.07
801.11	0.07
801.41	0.07
801.711	0.08
802.011	0.07
802.312	0.07
802.612	0.08
802.913	0.08
803.213	0.08
803.513	0.07
803.813	0.08
804.113	0.07
804.413	0.07
804.713	0.07
805.013	0.07
805.313	0.07
805.613	0.08
805.912	0.07
806.212	0.07
806.511	0.08
806.811	0.07
807.11	0.07
807.41	0.08
807.709	0.08
808.008	0.08
808.307	0.08
808.606	0.08
808.905	0.08
809.204	0.08
809.503	0.08
809.802	0.09
810.101	0.08
810.399	0.08
810.698	0.09
810.997	0.09
811.295	0.09
811.593	0.08
811.892	0.08
812.19	0.08
812.488	0.08
812.786	0.08
813.084	0.08
813.383	0.09
813.68	0.08
813.978	0.08
814.276	0.09
814.574	0.09
814.872	0.09
815.169	0.09
815.467	0.09
815.764	0.09
816.062	0.1
816.359	0.09
816.656	0.1
816.954	0.1
817.251	0.09
817.548	0.09
817.845	0.1
818.142	0.1
818.439	0.09
818.735	0.09
819.032	0.09
819.329	0.09
819.626	0.09
819.922	0.09
820.219	0.09
820.515	0.1
820.811	0.1
821.108	0.1
821.404	0.1
821.7	0.1
821.996	0.1
822.292	0.1
822.588	0.1
822.884	0.1
823.18	0.11
823.475	0.1
823.771	0.11
824.067	0.1
824.362	0.11
824.658	0.1
824.953	0.1
825.249	0.1
825.544	0.11
825.839	0.1
826.134	0.1
826.429	0.1
826.724	0.1
827.019	0.1
827.314	0.11
827.609	0.1
827.904	0.11
828.198	0.11
828.493	0.11
828.787	0.11
829.082	0.11
829.376	0.11
829.671	0.11
829.965	0.11
830.259	0.12
830.553	0.12
830.847	0.11
831.141	0.12
831.435	0.12
831.729	0.12
832.023	0.12
832.317	0.12
832.61	0.12
832.904	0.12
833.197	0.12
833.491	0.12
833.784	0.12
834.077	0.11
834.371	0.12
834.664	0.11
834.957	0.12
835.25	0.11
835.543	0.11
835.836	0.11
836.129	0.11
836.421	0.11
836.714	0.12
837.007	0.11
837.299	0.12
837.592	0.12
837.884	0.12
838.177	0.12
838.469	0.12
838.761	0.12
839.053	0.11
839.345	0.12
839.637	0.12
839.929	0.12
840.221	0.13
840.513	0.12
840.805	0.12
841.096	0.12
841.388	0.13
841.68	0.12
841.971	0.12
842.262	0.13
842.554	0.12
842.845	0.12
843.136	0.13
843.427	0.14
843.718	0.13
844.009	0.13
844.3	0.13
844.591	0.13
844.882	0.13
845.173	0.13
845.463	0.13
845.754	0.14
846.044	0.13
846.335	0.14
846.625	0.14
846.915	0.14
847.206	0.14
847.496	0.15
847.786	0.15
848.076	0.14
848.366	0.14
848.656	0.14
848.945	0.13
849.235	0.14
849.525	0.13
849.814	0.13
850.104	0.14
850.393	0.14
850.683	0.14
850.972	0.14
851.261	0.14
851.551	0.14
851.84	0.13
852.129	0.14
852.418	0.15
852.707	0.14
852.995	0.14
853.284	0.15
853.573	0.14
853.862	0.14
854.15	0.13
854.439	0.14
854.727	0.14
855.015	0.14
855.304	0.14
855.592	0.15
855.88	0.14
856.168	0.15
856.456	0.15
856.744	0.16
857.032	0.16
857.32	0.16
857.607	0.16
857.895	0.17
858.183	0.15
858.47	0.14
858.757	0.16
859.045	0.18
859.332	0.16
859.619	0.15
859.907	0.16
860.194	0.16
860.481	0.15
860.768	0.16
861.054	0.17
861.341	0.15
861.628	0.16
861.915	0.17
862.201	0.17
862.488	0.17
862.774	0.15
863.061	0.17
863.347	0.13
863.633	0.16
863.919	0.14
864.205	0.12
864.491	0.14
864.777	0.15
865.063	0.17
865.349	0.16
865.635	0.17
865.92	0.15
866.206	0.16
866.492	0.18
866.777	0.18
867.062	0.16
867.348	0.15
867.633	0.14
867.918	0.18
868.203	0.18
868.488	0.19
868.773	0.15
869.058	0.16
869.343	0.17
869.628	0.14
869.912	0.15
870.197	0.16
870.482	0.18
870.766	0.2
871.05	0.18
871.335	0.19
871.619	0.17
871.903	0.19
872.187	0.16
872.471	0.23
872.755	0.14
873.039	0.17
873.323	0.14
873.607	0.14
873.89	0.18
874.174	0.19
874.458	0.16
874.741	0.2
875.024	0.2
875.308	0.15
875.591	0.21
875.874	0.15
876.157	0.24
876.44	0.14
876.723	0.15
877.006	0.18
877.289	0.18
877.572	0.25
877.854	0.12
878.137	0.09
878.42	0.2
878.702	0.24
878.984	0.19
879.267	0.17
879.549	0.18
879.831	0.09
880.113	0.23
880.395	0.17
880.677	0.23
880.959	0.14
