Data from Rubpy_BV_1500_EDTA_Buffered_Absorbance_14-17-04-709.txt Node
Date: Wed Jul 01 14:17:04 BST 2026
User: fpm-admin
Spectrometer: OFX00224
Trigger mode: 0
Integration Time (sec): 7.000000E-2
Scans to average: 3
Nonlinearity correction enabled: false
Boxcar width: 0
Storing dark spectrum: false
XAxis mode: Wavelengths
Number of Pixels in Spectrum: 2136
>>>>>Begin Spectral Data<<<<<
154.91	-0.65
155.289	0.52
155.669	-1.18
156.048	-0.28
156.428	0.54
156.807	-0
157.186	-0
157.566	-0
157.945	-0
158.325	0.5
158.704	-0
159.083	0.34
159.462	0.46
159.842	-0
160.221	-0.54
160.6	-0
160.979	-0.06
161.359	0.05
161.738	-0
162.117	0.53
162.496	-0.42
162.875	-0.51
163.254	-0
163.633	-0
164.012	-0
164.391	0.21
164.77	0.09
165.149	0.85
165.528	-0
165.907	-0.1
166.286	-0.49
166.665	-0.02
167.044	-0
167.423	-0
167.802	-0
168.181	0.4
168.559	0.59
168.938	0.75
169.317	-0
169.696	-0.01
170.074	-0.1
170.453	1.26
170.832	-0
171.21	1.11
171.589	-0
171.968	-1.05
172.346	-0
172.725	-0
173.103	-0
173.482	-0.98
173.861	-0
174.239	-0
174.617	-0
174.996	-0.1
175.374	0.23
175.753	0.1
176.131	-0
176.51	1.13
176.888	-0
177.266	-0
177.645	-0.08
178.023	0.5
178.401	-0.18
178.779	0.1
179.158	0.29
179.536	-0
179.914	0.36
180.292	-0
180.67	-0
181.048	0.65
181.427	-0
181.805	-0.37
182.183	-0.45
182.561	-0
182.939	-0
183.317	0.2
183.695	0.16
184.073	1.28
184.451	0.04
184.829	-0
185.206	-0
185.584	0.15
185.962	-0
186.34	-0
186.718	-0
187.096	-0
187.473	-0.05
187.851	-0
188.229	0.2
188.607	0.14
188.984	0.16
189.362	0.11
189.74	0.12
190.117	0.09
190.495	0.06
190.872	0.14
191.25	0.02
191.627	0.02
192.005	-0
192.382	0.14
192.76	0.13
193.137	0.13
193.515	0.13
193.892	0.01
194.269	0.08
194.647	0.09
195.024	0.04
195.401	0.1
195.779	0.13
196.156	0.15
196.533	0.16
196.91	0.14
197.288	0.21
197.665	0.08
198.042	0.2
198.419	0.2
198.796	0.12
199.173	0.09
199.55	0.13
199.927	0.16
200.304	0.12
200.681	0.12
201.058	0.05
201.435	0.09
201.812	0.1
202.189	0.07
202.566	0.14
202.943	0.15
203.32	0.12
203.697	0.07
204.073	0.09
204.45	0.05
204.827	0.25
205.204	0.12
205.58	0.07
205.957	0.12
206.334	0.11
206.71	-0.01
207.087	0.15
207.464	0.08
207.84	0.1
208.217	0.18
208.593	0.18
208.97	0.14
209.346	0.19
209.723	0.03
210.099	0.11
210.476	0.1
210.852	0.06
211.228	0.15
211.605	0.15
211.981	0.1
212.357	0.12
212.733	0.02
213.11	0.13
213.486	0.13
213.862	0.05
214.238	0.16
214.614	0.13
214.991	0.1
215.367	0.16
215.743	0.1
216.119	0.16
216.495	0.17
216.871	0.19
217.247	0.2
217.623	0.1
217.999	0.1
218.375	0.09
218.751	0.17
219.127	0.1
219.502	0.11
219.878	0.14
220.254	0.1
220.63	0.21
221.006	0.14
221.381	0.2
221.757	0.19
222.133	0.08
222.508	0.22
222.884	0.13
223.26	0.13
223.635	0.16
224.011	0.34
224.386	0.21
224.762	0.32
225.137	0.24
225.513	0.1
225.888	0.12
226.264	0.23
226.639	0.2
227.014	0.19
227.39	0.15
227.765	0.24
228.14	0.1
228.516	0.11
228.891	0.15
229.266	0.24
229.641	0.24
230.017	0.17
230.392	0.15
230.767	0.09
231.142	0.1
231.517	0.08
231.892	0.2
232.267	0.14
232.642	0.19
233.017	0.13
233.392	0.23
233.767	0.09
234.142	0.15
234.517	0.22
234.892	0.18
235.267	0.16
235.641	0.11
236.016	0.19
236.391	0.24
236.766	0.14
237.14	0.13
237.515	0.15
237.89	0.1
238.264	0.18
238.639	0.02
239.014	0.11
239.388	0.07
239.763	0.18
240.137	0.11
240.512	0.14
240.886	0.19
241.261	0.18
241.635	0.13
242.009	0.14
242.384	0.11
242.758	0.08
243.132	0.09
243.507	0.16
243.881	0.15
244.255	0.19
244.629	0.09
245.004	0.15
245.378	0.15
245.752	0.14
246.126	0.19
246.5	0.13
246.874	0.09
247.248	0.08
247.622	0.08
247.996	0.13
248.37	0.12
248.744	0.07
249.118	0.16
249.492	0.22
249.866	0.14
250.24	0.13
250.613	0.19
250.987	0.18
251.361	0.21
251.735	0.26
252.108	0.12
252.482	0.08
252.856	0.24
253.229	0.18
253.603	0.14
253.977	0.19
254.35	0.19
254.724	0.1
255.097	0.18
255.471	0.17
255.844	0.15
256.218	0.18
256.591	0.23
256.964	0.08
257.338	0.11
257.711	0.13
258.084	0.13
258.458	0.1
258.831	0.21
259.204	0.14
259.577	0.22
259.95	0.11
260.323	0.12
260.697	0.13
261.07	0.17
261.443	0.16
261.816	0.18
262.189	0.16
262.562	0.12
262.935	0.15
263.308	0.13
263.68	0.15
264.053	0.2
264.426	0.15
264.799	0.21
265.172	0.18
265.545	0.15
265.917	0.15
266.29	0.22
266.663	0.14
267.035	0.18
267.408	0.07
267.781	0.26
268.153	0.25
268.526	0.16
268.898	0.13
269.271	0.12
269.643	0.16
270.016	0.14
270.388	0.19
270.76	0.13
271.133	0.12
271.505	0.13
271.877	0.13
272.25	0.2
272.622	0.25
272.994	0.21
273.366	0.16
273.739	0.16
274.111	0.1
274.483	0.17
274.855	0.13
275.227	0.15
275.599	0.12
275.971	0.22
276.343	0.1
276.715	0.21
277.087	0.24
277.459	0.2
277.831	0.27
278.203	0.22
278.574	0.19
278.946	0.21
279.318	0.19
279.69	0.14
280.061	0.16
280.433	0.11
280.805	0.1
281.176	0.19
281.548	0.18
281.92	0.21
282.291	0.2
282.663	0.2
283.034	0.15
283.406	0.14
283.777	0.22
284.148	0.2
284.52	0.22
284.891	0.14
285.262	0.24
285.634	0.14
286.005	0.18
286.376	0.17
286.747	0.16
287.119	0.22
287.49	0.17
287.861	0.15
288.232	0.17
288.603	0.19
288.974	0.15
289.345	0.17
289.716	0.14
290.087	0.2
290.458	0.16
290.829	0.1
291.2	0.17
291.571	0.15
291.941	0.11
292.312	0.13
292.683	0.24
293.054	0.24
293.424	0.19
293.795	0.21
294.166	0.12
294.536	0.13
294.907	0.2
295.277	0.2
295.648	0.27
296.018	0.16
296.389	0.17
296.759	0.2
297.13	0.16
297.5	0.17
297.871	0.14
298.241	0.19
298.611	0.28
298.981	0.2
299.352	0.15
299.722	0.2
300.092	0.17
300.462	0.14
300.832	0.15
301.202	0.23
301.573	0.15
301.943	0.14
302.313	0.19
302.683	0.23
303.053	0.2
303.422	0.19
303.792	0.21
304.162	0.16
304.532	0.18
304.902	0.15
305.272	0.14
305.641	0.21
306.011	0.16
306.381	0.15
306.75	0.16
307.12	0.12
307.49	0.17
307.859	0.14
308.229	0.17
308.598	0.18
308.968	0.17
309.337	0.17
309.707	0.15
310.076	0.13
310.445	0.14
310.815	0.13
311.184	0.11
311.553	0.11
311.923	0.13
312.292	0.13
312.661	0.15
313.03	0.15
313.399	0.15
313.768	0.14
314.137	0.13
314.506	0.13
314.875	0.14
315.244	0.15
315.613	0.16
315.982	0.15
316.351	0.14
316.72	0.16
317.089	0.15
317.458	0.15
317.826	0.15
318.195	0.15
318.564	0.15
318.933	0.16
319.301	0.15
319.67	0.18
320.038	0.15
320.407	0.17
320.775	0.16
321.144	0.17
321.512	0.18
321.881	0.17
322.249	0.18
322.618	0.18
322.986	0.19
323.354	0.17
323.723	0.18
324.091	0.19
324.459	0.19
324.827	0.19
325.195	0.2
325.564	0.2
325.932	0.21
326.3	0.2
326.668	0.22
327.036	0.21
327.404	0.22
327.772	0.21
328.14	0.22
328.508	0.22
328.875	0.21
329.243	0.23
329.611	0.23
329.979	0.24
330.346	0.24
330.714	0.24
331.082	0.25
331.449	0.24
331.817	0.25
332.185	0.25
332.552	0.26
332.92	0.26
333.287	0.27
333.655	0.28
334.022	0.28
334.389	0.28
334.757	0.29
335.124	0.29
335.491	0.3
335.859	0.3
336.226	0.31
336.593	0.31
336.96	0.32
337.327	0.33
337.695	0.33
338.062	0.34
338.429	0.35
338.796	0.35
339.163	0.36
339.53	0.36
339.897	0.36
340.263	0.38
340.63	0.39
340.997	0.39
341.364	0.39
341.731	0.4
342.097	0.41
342.464	0.41
342.831	0.42
343.197	0.43
343.564	0.44
343.931	0.44
344.297	0.44
344.664	0.46
345.03	0.46
345.396	0.47
345.763	0.48
346.129	0.48
346.496	0.49
346.862	0.5
347.228	0.5
347.594	0.51
347.961	0.52
348.327	0.52
348.693	0.53
349.059	0.54
349.425	0.54
349.791	0.55
350.157	0.56
350.523	0.56
350.889	0.56
351.255	0.57
351.621	0.58
351.987	0.59
352.353	0.6
352.719	0.6
353.084	0.62
353.45	0.62
353.816	0.62
354.181	0.63
354.547	0.64
354.913	0.65
355.278	0.66
355.644	0.66
356.009	0.67
356.375	0.68
356.74	0.69
357.106	0.7
357.471	0.71
357.836	0.72
358.202	0.73
358.567	0.74
358.932	0.75
359.297	0.76
359.663	0.77
360.028	0.78
360.393	0.79
360.758	0.8
361.123	0.81
361.488	0.81
361.853	0.82
362.218	0.84
362.583	0.85
362.948	0.85
363.312	0.87
363.677	0.88
364.042	0.89
364.407	0.91
364.772	0.91
365.136	0.93
365.501	0.93
365.865	0.94
366.23	0.94
366.595	0.95
366.959	0.97
367.324	0.97
367.688	0.98
368.052	1
368.417	1
368.781	1
369.145	1
369.51	1.02
369.874	1.02
370.238	1.04
370.602	1.04
370.967	1.04
371.331	1.05
371.695	1.05
372.059	1.05
372.423	1.07
372.787	1.05
373.151	1.05
373.515	1.04
373.878	1.04
374.242	1.04
374.606	1.04
374.97	1.03
375.334	1.02
375.697	1.01
376.061	1
376.425	1
376.788	0.99
377.152	0.98
377.515	0.96
377.879	0.96
378.242	0.96
378.606	0.94
378.969	0.92
379.333	0.92
379.696	0.91
380.059	0.89
380.422	0.89
380.786	0.88
381.149	0.88
381.512	0.85
381.875	0.85
382.238	0.83
382.601	0.83
382.964	0.82
383.327	0.81
383.69	0.81
384.053	0.81
384.416	0.79
384.779	0.77
385.142	0.78
385.504	0.78
385.867	0.77
386.23	0.77
386.593	0.78
386.955	0.76
387.318	0.76
387.68	0.77
388.043	0.77
388.405	0.76
388.768	0.77
389.13	0.76
389.493	0.76
389.855	0.75
390.217	0.75
390.58	0.75
390.942	0.74
391.304	0.73
391.666	0.72
392.028	0.71
392.391	0.7
392.753	0.69
393.115	0.69
393.477	0.68
393.839	0.67
394.201	0.67
394.563	0.66
394.924	0.66
395.286	0.66
395.648	0.66
396.01	0.67
396.371	0.67
396.733	0.69
397.095	0.7
397.456	0.72
397.818	0.72
398.18	0.74
398.541	0.76
398.903	0.78
399.264	0.8
399.625	0.82
399.987	0.84
400.348	0.85
400.709	0.86
401.071	0.87
401.432	0.87
401.793	0.87
402.154	0.87
402.515	0.86
402.876	0.84
403.238	0.82
403.599	0.81
403.96	0.78
404.32	0.76
404.681	0.73
405.042	0.7
405.403	0.68
405.764	0.64
406.125	0.6
406.485	0.58
406.846	0.54
407.207	0.52
407.567	0.49
407.928	0.46
408.288	0.44
408.649	0.41
409.009	0.39
409.37	0.37
409.73	0.35
410.091	0.33
410.451	0.31
410.811	0.29
411.171	0.28
411.532	0.26
411.892	0.26
412.252	0.24
412.612	0.24
412.972	0.22
413.332	0.21
413.692	0.2
414.052	0.19
414.412	0.19
414.772	0.18
415.132	0.18
415.492	0.17
415.851	0.16
416.211	0.16
416.571	0.14
416.931	0.15
417.29	0.14
417.65	0.14
418.009	0.14
418.369	0.14
418.728	0.13
419.088	0.13
419.447	0.12
419.807	0.12
420.166	0.12
420.525	0.11
420.884	0.11
421.244	0.12
421.603	0.11
421.962	0.11
422.321	0.1
422.68	0.1
423.039	0.1
423.398	0.11
423.757	0.1
424.116	0.1
424.475	0.11
424.834	0.09
425.193	0.09
425.551	0.1
425.91	0.09
426.269	0.09
426.628	0.09
426.986	0.09
427.345	0.09
427.703	0.09
428.062	0.08
428.42	0.08
428.779	0.09
429.137	0.08
429.496	0.08
429.854	0.09
430.212	0.09
430.57	0.08
430.929	0.08
431.287	0.08
431.645	0.08
432.003	0.08
432.361	0.07
432.719	0.09
433.077	0.08
433.435	0.08
433.793	0.08
434.151	0.08
434.509	0.08
434.866	0.08
435.224	0.07
435.582	0.07
435.94	0.08
436.297	0.08
436.655	0.07
437.012	0.08
437.37	0.08
437.727	0.08
438.085	0.08
438.442	0.07
438.8	0.07
439.157	0.08
439.514	0.08
439.872	0.07
440.229	0.08
440.586	0.07
440.943	0.08
441.3	0.07
441.657	0.07
442.014	0.07
442.371	0.08
442.728	0.07
443.085	0.09
443.442	0.08
443.799	0.08
444.156	0.07
444.513	0.08
444.869	0.07
445.226	0.08
445.583	0.08
445.939	0.08
446.296	0.08
446.652	0.09
447.009	0.08
447.365	0.08
447.722	0.08
448.078	0.08
448.434	0.08
448.791	0.09
449.147	0.08
449.503	0.08
449.859	0.09
450.215	0.09
450.571	0.09
450.928	0.08
451.284	0.08
451.64	0.08
451.995	0.08
452.351	0.1
452.707	0.1
453.063	0.09
453.419	0.09
453.775	0.09
454.13	0.09
454.486	0.1
454.842	0.09
455.197	0.08
455.553	0.09
455.908	0.1
456.264	0.09
456.619	0.1
456.975	0.09
457.33	0.08
457.685	0.09
458.04	0.09
458.396	0.1
458.751	0.1
459.106	0.1
459.461	0.1
459.816	0.1
460.171	0.1
460.526	0.1
460.881	0.1
461.236	0.09
461.591	0.1
461.946	0.1
462.301	0.1
462.655	0.1
463.01	0.11
463.365	0.11
463.719	0.1
464.074	0.1
464.428	0.1
464.783	0.1
465.137	0.1
465.492	0.11
465.846	0.1
466.201	0.11
466.555	0.11
466.909	0.1
467.263	0.11
467.618	0.11
467.972	0.12
468.326	0.12
468.68	0.11
469.034	0.12
469.388	0.12
469.742	0.11
470.096	0.11
470.45	0.12
470.804	0.13
471.157	0.12
471.511	0.12
471.865	0.13
472.218	0.13
472.572	0.13
472.926	0.13
473.279	0.13
473.633	0.13
473.986	0.14
474.34	0.14
474.693	0.14
475.046	0.15
475.4	0.15
475.753	0.15
476.106	0.15
476.459	0.15
476.812	0.16
477.165	0.16
477.519	0.16
477.872	0.15
478.224	0.17
478.577	0.17
478.93	0.17
479.283	0.17
479.636	0.18
479.989	0.18
480.341	0.18
480.694	0.18
481.047	0.18
481.399	0.18
481.752	0.18
482.104	0.18
482.457	0.19
482.809	0.18
483.162	0.19
483.514	0.2
483.866	0.2
484.219	0.19
484.571	0.21
484.923	0.21
485.275	0.21
485.627	0.21
485.979	0.21
486.331	0.21
486.683	0.21
487.035	0.21
487.387	0.21
487.739	0.22
488.091	0.22
488.443	0.22
488.794	0.22
489.146	0.22
489.498	0.23
489.849	0.23
490.201	0.23
490.552	0.24
490.904	0.24
491.255	0.24
491.607	0.24
491.958	0.24
492.309	0.25
492.661	0.25
493.012	0.25
493.363	0.25
493.714	0.25
494.065	0.25
494.416	0.26
494.767	0.26
495.118	0.27
495.469	0.26
495.82	0.26
496.171	0.27
496.522	0.27
496.872	0.27
497.223	0.27
497.574	0.28
497.924	0.28
498.275	0.28
498.626	0.28
498.976	0.28
499.327	0.29
499.677	0.29
500.027	0.29
500.378	0.29
500.728	0.29
501.078	0.3
501.428	0.3
501.779	0.3
502.129	0.31
502.479	0.3
502.829	0.3
503.179	0.31
503.529	0.31
503.879	0.31
504.229	0.31
504.578	0.32
504.928	0.32
505.278	0.32
505.628	0.32
505.977	0.32
506.327	0.32
506.676	0.33
507.026	0.33
507.375	0.33
507.725	0.33
508.074	0.34
508.424	0.34
508.773	0.34
509.122	0.34
509.471	0.35
509.82	0.35
510.17	0.34
510.519	0.35
510.868	0.35
511.217	0.35
511.566	0.36
511.915	0.36
512.263	0.35
512.612	0.36
512.961	0.36
513.31	0.37
513.659	0.36
514.007	0.37
514.356	0.37
514.704	0.37
515.053	0.38
515.401	0.38
515.75	0.38
516.098	0.38
516.447	0.39
516.795	0.38
517.143	0.38
517.491	0.38
517.839	0.39
518.188	0.39
518.536	0.4
518.884	0.39
519.232	0.39
519.58	0.4
519.928	0.4
520.275	0.39
520.623	0.4
520.971	0.4
521.319	0.41
521.666	0.4
522.014	0.41
522.362	0.41
522.709	0.41
523.057	0.41
523.404	0.41
523.752	0.41
524.099	0.42
524.446	0.42
524.794	0.42
525.141	0.42
525.488	0.42
525.835	0.42
526.182	0.43
526.529	0.42
526.876	0.42
527.223	0.43
527.57	0.43
527.917	0.42
528.264	0.43
528.611	0.43
528.958	0.44
529.304	0.44
529.651	0.43
529.998	0.44
530.344	0.43
530.691	0.44
531.037	0.44
531.384	0.44
531.73	0.44
532.076	0.44
532.423	0.45
532.769	0.44
533.115	0.45
533.461	0.45
533.807	0.45
534.154	0.45
534.5	0.45
534.846	0.45
535.192	0.45
535.537	0.45
535.883	0.45
536.229	0.46
536.575	0.45
536.921	0.46
537.266	0.46
537.612	0.46
537.957	0.46
538.303	0.46
538.649	0.46
538.994	0.46
539.339	0.46
539.685	0.47
540.03	0.47
540.375	0.47
540.721	0.47
541.066	0.47
541.411	0.47
541.756	0.47
542.101	0.47
542.446	0.47
542.791	0.47
543.136	0.47
543.481	0.48
543.825	0.47
544.17	0.47
544.515	0.47
544.86	0.47
545.204	0.47
545.549	0.48
545.893	0.47
546.238	0.48
546.582	0.48
546.927	0.48
547.271	0.48
547.615	0.48
547.96	0.49
548.304	0.48
548.648	0.48
548.992	0.48
549.336	0.48
549.68	0.48
550.024	0.49
550.368	0.49
550.712	0.49
551.056	0.48
551.4	0.48
551.743	0.48
552.087	0.48
552.431	0.48
552.774	0.49
553.118	0.48
553.462	0.48
553.805	0.48
554.148	0.48
554.492	0.48
554.835	0.48
555.178	0.48
555.522	0.48
555.865	0.49
556.208	0.49
556.551	0.49
556.894	0.48
557.237	0.49
557.58	0.49
557.923	0.48
558.266	0.48
558.609	0.48
558.952	0.48
559.294	0.48
559.637	0.48
559.98	0.49
560.322	0.48
560.665	0.49
561.007	0.49
561.35	0.48
561.692	0.48
562.034	0.48
562.377	0.48
562.719	0.48
563.061	0.48
563.403	0.48
563.745	0.48
564.088	0.48
564.43	0.48
564.772	0.48
565.113	0.48
565.455	0.48
565.797	0.48
566.139	0.48
566.481	0.48
566.822	0.48
567.164	0.47
567.506	0.48
567.847	0.48
568.189	0.48
568.53	0.47
568.872	0.47
569.213	0.48
569.554	0.47
569.895	0.47
570.237	0.47
570.578	0.47
570.919	0.46
571.26	0.46
571.601	0.46
571.942	0.47
572.283	0.46
572.624	0.46
572.965	0.45
573.306	0.46
573.646	0.45
573.987	0.45
574.328	0.45
574.668	0.46
575.009	0.45
575.349	0.45
575.69	0.44
576.03	0.45
576.37	0.44
576.711	0.44
577.051	0.44
577.391	0.44
577.731	0.45
578.072	0.44
578.412	0.44
578.752	0.44
579.092	0.44
579.431	0.43
579.771	0.41
580.111	0.4
580.451	0.41
580.791	0.43
581.13	0.43
581.47	0.43
581.81	0.43
582.149	0.43
582.489	0.43
582.828	0.42
583.167	0.4
583.507	0.36
583.846	0.35
584.185	0.37
584.525	0.4
584.864	0.42
585.203	0.43
585.542	0.43
585.881	0.43
586.22	0.43
586.559	0.42
586.898	0.41
587.236	0.4
587.575	0.4
587.914	0.41
588.252	0.42
588.591	0.42
588.93	0.42
589.268	0.42
589.607	0.42
589.945	0.42
590.283	0.42
590.622	0.42
590.96	0.43
591.298	0.43
591.636	0.43
591.974	0.43
592.313	0.43
592.651	0.43
592.989	0.43
593.326	0.43
593.664	0.43
594.002	0.43
594.34	0.42
594.678	0.42
595.015	0.42
595.353	0.41
595.691	0.42
596.028	0.42
596.366	0.43
596.703	0.43
597.04	0.43
597.378	0.43
597.715	0.43
598.052	0.43
598.389	0.43
598.726	0.43
599.064	0.43
599.401	0.43
599.738	0.43
600.074	0.43
600.411	0.43
600.748	0.42
601.085	0.42
601.422	0.41
601.758	0.41
602.095	0.42
602.432	0.41
602.768	0.42
603.105	0.42
603.441	0.42
603.777	0.42
604.114	0.42
604.45	0.42
604.786	0.42
605.122	0.42
605.459	0.42
605.795	0.42
606.131	0.41
606.467	0.42
606.803	0.42
607.139	0.41
607.474	0.41
607.81	0.41
608.146	0.41
608.482	0.41
608.817	0.41
609.153	0.41
609.488	0.4
609.824	0.4
610.159	0.4
610.495	0.4
610.83	0.4
611.165	0.41
611.5	0.41
611.836	0.4
612.171	0.41
612.506	0.4
612.841	0.4
613.176	0.4
613.511	0.4
613.845	0.4
614.18	0.4
614.515	0.4
614.85	0.4
615.184	0.39
615.519	0.39
615.854	0.39
616.188	0.39
616.523	0.39
616.857	0.38
617.191	0.38
617.526	0.38
617.86	0.38
618.194	0.38
618.528	0.38
618.862	0.38
619.196	0.38
619.53	0.38
619.864	0.37
620.198	0.38
620.532	0.37
620.866	0.38
621.2	0.37
621.533	0.37
621.867	0.37
622.201	0.36
622.534	0.37
622.868	0.37
623.201	0.37
623.534	0.36
623.868	0.36
624.201	0.36
624.534	0.36
624.868	0.36
625.201	0.36
625.534	0.36
625.867	0.35
626.2	0.35
626.533	0.35
626.865	0.35
627.198	0.35
627.531	0.35
627.864	0.34
628.196	0.34
628.529	0.34
628.862	0.33
629.194	0.34
629.527	0.33
629.859	0.33
630.191	0.32
630.524	0.33
630.856	0.33
631.188	0.32
631.52	0.32
631.852	0.32
632.184	0.32
632.516	0.31
632.848	0.31
633.18	0.31
633.512	0.31
633.844	0.31
634.175	0.31
634.507	0.31
634.839	0.3
635.17	0.3
635.502	0.3
635.833	0.3
636.165	0.3
636.496	0.29
636.827	0.29
637.159	0.29
637.49	0.29
637.821	0.28
638.152	0.28
638.483	0.28
638.814	0.28
639.145	0.28
639.476	0.28
639.807	0.28
640.137	0.27
640.468	0.27
640.799	0.27
641.129	0.27
641.46	0.26
641.791	0.27
642.121	0.26
642.451	0.26
642.782	0.26
643.112	0.26
643.442	0.25
643.773	0.25
644.103	0.25
644.433	0.25
644.763	0.25
645.093	0.25
645.423	0.25
645.753	0.25
646.082	0.24
646.412	0.24
646.742	0.24
647.072	0.24
647.401	0.24
647.731	0.24
648.06	0.23
648.39	0.24
648.719	0.23
649.048	0.23
649.378	0.23
649.707	0.23
650.036	0.23
650.365	0.23
650.694	0.23
651.023	0.23
651.352	0.23
651.681	0.23
652.01	0.23
652.339	0.22
652.668	0.22
652.996	0.22
653.325	0.22
653.654	0.22
653.982	0.22
654.311	0.22
654.639	0.22
654.967	0.22
655.296	0.22
655.624	0.22
655.952	0.22
656.28	0.22
656.609	0.22
656.937	0.22
657.265	0.21
657.593	0.1
657.92	0.01
658.248	0
658.576	0.01
658.904	0.08
659.231	0.16
659.559	0.2
659.887	0.21
660.214	0.21
660.542	0.21
660.869	0.2
661.196	0.21
661.524	0.2
661.851	0.2
662.178	0.2
662.505	0.2
662.832	0.2
663.159	0.21
663.486	0.2
663.813	0.2
664.14	0.2
664.467	0.2
664.794	0.2
665.12	0.2
665.447	0.2
665.774	0.2
666.1	0.19
666.427	0.19
666.753	0.19
667.079	0.19
667.406	0.19
667.732	0.19
668.058	0.19
668.384	0.19
668.71	0.18
669.036	0.18
669.362	0.19
669.688	0.18
670.014	0.18
670.34	0.18
670.666	0.18
670.991	0.18
671.317	0.18
671.643	0.18
671.968	0.18
672.294	0.18
672.619	0.17
672.945	0.17
673.27	0.17
673.595	0.17
673.92	0.17
674.246	0.17
674.571	0.17
674.896	0.17
675.221	0.16
675.546	0.16
675.87	0.16
676.195	0.16
676.52	0.16
676.845	0.15
677.169	0.15
677.494	0.15
677.819	0.15
678.143	0.15
678.468	0.15
678.792	0.15
679.116	0.15
679.44	0.14
679.765	0.14
680.089	0.14
680.413	0.14
680.737	0.14
681.061	0.13
681.385	0.13
681.709	0.13
682.033	0.13
682.356	0.13
682.68	0.13
683.004	0.13
683.327	0.13
683.651	0.12
683.974	0.13
684.298	0.12
684.621	0.12
684.944	0.12
685.268	0.12
685.591	0.12
685.914	0.12
686.237	0.11
686.56	0.11
686.883	0.11
687.206	0.11
687.529	0.1
687.852	0.1
688.175	0.1
688.497	0.11
688.82	0.11
689.142	0.1
689.465	0.1
689.787	0.1
690.11	0.1
690.432	0.1
690.755	0.1
691.077	0.09
691.399	0.09
691.721	0.09
692.043	0.09
692.365	0.09
692.687	0.09
693.009	0.09
693.331	0.09
693.653	0.09
693.974	0.09
694.296	0.09
694.618	0.08
694.939	0.08
695.261	0.08
695.582	0.08
695.904	0.08
696.225	0.08
696.546	0.08
696.868	0.08
697.189	0.08
697.51	0.07
697.831	0.07
698.152	0.07
698.473	0.07
698.794	0.07
699.114	0.07
699.435	0.06
699.756	0.06
700.077	0.07
700.397	0.07
700.718	0.07
701.038	0.07
701.359	0.07
701.679	0.07
701.999	0.07
702.32	0.07
702.64	0.07
702.96	0.07
703.28	0.06
703.6	0.06
703.92	0.06
704.24	0.06
704.56	0.06
704.879	0.06
705.199	0.06
705.519	0.06
705.838	0.06
706.158	0.06
706.478	0.07
706.797	0.07
707.116	0.07
707.436	0.06
707.755	0.06
708.074	0.06
708.393	0.06
708.712	0.05
709.031	0.05
709.35	0.04
709.669	0.04
709.988	0.05
710.307	0.05
710.626	0.05
710.944	0.06
711.263	0.05
711.582	0.06
711.9	0.06
712.219	0.05
712.537	0.06
712.855	0.06
713.174	0.06
713.492	0.06
713.81	0.06
714.128	0.06
714.446	0.06
714.764	0.05
715.082	0.05
715.4	0.05
715.718	0.05
716.035	0.05
716.353	0.06
716.671	0.05
716.988	0.06
717.306	0.05
717.623	0.06
717.941	0.06
718.258	0.06
718.575	0.06
718.893	0.06
719.21	0.06
719.527	0.06
719.844	0.06
720.161	0.06
720.478	0.06
720.795	0.06
721.112	0.06
721.428	0.06
721.745	0.06
722.062	0.06
722.378	0.06
722.695	0.06
723.011	0.06
723.328	0.06
723.644	0.06
723.96	0.07
724.276	0.07
724.593	0.07
724.909	0.06
725.225	0.07
725.541	0.07
725.857	0.07
726.173	0.07
726.488	0.07
726.804	0.07
727.12	0.07
727.435	0.07
727.751	0.07
728.067	0.07
728.382	0.07
728.697	0.07
729.013	0.07
729.328	0.06
729.643	0.07
729.958	0.06
730.273	0.07
730.588	0.06
730.903	0.07
731.218	0.07
731.533	0.07
731.848	0.06
732.163	0.07
732.477	0.06
732.792	0.06
733.107	0.06
733.421	0.06
733.736	0.06
734.05	0.06
734.364	0.06
734.678	0.06
734.993	0.06
735.307	0.06
735.621	0.06
735.935	0.06
736.249	0.06
736.563	0.06
736.877	0.06
737.19	0.06
737.504	0.06
737.818	0.06
738.131	0.06
738.445	0.06
738.758	0.06
739.072	0.06
739.385	0.06
739.698	0.06
740.012	0.06
740.325	0.06
740.638	0.06
740.951	0.06
741.264	0.05
741.577	0.05
741.89	0.06
742.203	0.06
742.515	0.06
742.828	0.05
743.141	0.05
743.453	0.05
743.766	0.05
744.078	0.05
744.391	0.05
744.703	0.05
745.015	0.05
745.327	0.05
745.639	0.05
745.952	0.05
746.264	0.05
746.575	0.05
746.887	0.05
747.199	0.05
747.511	0.05
747.823	0.05
748.134	0.05
748.446	0.05
748.757	0.05
749.069	0.05
749.38	0.04
749.692	0.05
750.003	0.05
750.314	0.05
750.625	0.05
750.936	0.04
751.248	0.04
751.559	0.05
751.869	0.04
752.18	0.04
752.491	0.04
752.802	0.04
753.112	0.04
753.423	0.04
753.734	0.04
754.044	0.04
754.355	0.04
754.665	0.04
754.975	0.04
755.285	0.04
755.596	0.04
755.906	0.04
756.216	0.04
756.526	0.04
756.836	0.04
757.146	0.04
757.455	0.03
757.765	0.03
758.075	0.03
758.385	0.03
758.694	0.03
759.004	0.03
759.313	0.03
759.622	0.03
759.932	0.03
760.241	0.03
760.55	0.03
760.859	0.03
761.168	0.03
761.477	0.03
761.786	0.03
762.095	0.03
762.404	0.03
762.713	0.03
763.021	0.03
763.33	0.03
763.639	0.03
763.947	0.03
764.256	0.03
764.564	0.03
764.872	0.03
765.181	0.03
765.489	0.03
765.797	0.03
766.105	0.03
766.413	0.03
766.721	0.03
767.029	0.03
767.337	0.03
767.644	0.03
767.952	0.03
768.26	0.03
768.567	0.03
768.875	0.03
769.182	0.03
769.49	0.03
769.797	0.03
770.104	0.03
770.411	0.03
770.718	0.03
771.026	0.03
771.333	0.03
771.639	0.03
771.946	0.03
772.253	0.03
772.56	0.03
772.867	0.03
773.173	0.03
773.48	0.03
773.786	0.03
774.093	0.03
774.399	0.03
774.705	0.03
775.012	0.03
775.318	0.03
775.624	0.03
775.93	0.03
776.236	0.03
776.542	0.03
776.848	0.03
777.154	0.03
777.459	0.03
777.765	0.03
778.071	0.03
778.376	0.03
778.682	0.03
778.987	0.03
779.292	0.03
779.598	0.03
779.903	0.03
780.208	0.03
780.513	0.03
780.818	0.03
781.123	0.03
781.428	0.03
781.733	0.03
782.038	0.03
782.343	0.03
782.647	0.03
782.952	0.03
783.256	0.03
783.561	0.03
783.865	0.03
784.17	0.03
784.474	0.03
784.778	0.04
785.082	0.04
785.386	0.04
785.69	0.04
785.994	0.03
786.298	0.04
786.602	0.04
786.906	0.03
787.209	0.03
787.513	0.04
787.817	0.04
788.12	0.04
788.424	0.04
788.727	0.04
789.03	0.03
789.333	0.03
789.637	0.03
789.94	0.03
790.243	0.03
790.546	0.03
790.849	0.03
791.152	0.03
791.454	0.03
791.757	0.03
792.06	0.03
792.362	0.03
792.665	0.03
792.967	0.03
793.27	0.03
793.572	0.03
793.874	0.03
794.177	0.03
794.479	0.04
794.781	0.03
795.083	0.03
795.385	0.03
795.687	0.03
795.989	0.03
796.29	0.03
796.592	0.03
796.894	0.03
797.195	0.04
797.497	0.03
797.798	0.04
798.1	0.04
798.401	0.03
798.702	0.04
799.003	0.04
799.304	0.03
799.605	0.03
799.906	0.04
800.207	0.04
800.508	0.04
800.809	0.04
801.11	0.03
801.41	0.04
801.711	0.04
802.011	0.04
802.312	0.04
802.612	0.04
802.913	0.04
803.213	0.04
803.513	0.04
803.813	0.04
804.113	0.04
804.413	0.03
804.713	0.03
805.013	0.03
805.313	0.04
805.613	0.04
805.912	0.04
806.212	0.03
806.511	0.03
806.811	0.03
807.11	0.03
807.41	0.04
807.709	0.04
808.008	0.04
808.307	0.04
808.606	0.04
808.905	0.04
809.204	0.04
809.503	0.05
809.802	0.04
810.101	0.04
810.399	0.04
810.698	0.05
810.997	0.04
811.295	0.04
811.593	0.04
811.892	0.04
812.19	0.04
812.488	0.04
812.786	0.04
813.084	0.04
813.383	0.04
813.68	0.04
813.978	0.04
814.276	0.04
814.574	0.04
814.872	0.04
815.169	0.05
815.467	0.04
815.764	0.05
816.062	0.05
816.359	0.05
816.656	0.05
816.954	0.04
817.251	0.05
817.548	0.05
817.845	0.05
818.142	0.05
818.439	0.04
818.735	0.04
819.032	0.04
819.329	0.04
819.626	0.04
819.922	0.04
820.219	0.04
820.515	0.05
820.811	0.05
821.108	0.05
821.404	0.05
821.7	0.05
821.996	0.05
822.292	0.05
822.588	0.05
822.884	0.05
823.18	0.05
823.475	0.05
823.771	0.05
824.067	0.05
824.362	0.05
824.658	0.05
824.953	0.05
825.249	0.05
825.544	0.06
825.839	0.05
826.134	0.05
826.429	0.05
826.724	0.05
827.019	0.06
827.314	0.05
827.609	0.05
827.904	0.06
828.198	0.05
828.493	0.05
828.787	0.05
829.082	0.06
829.376	0.05
829.671	0.05
829.965	0.05
830.259	0.06
830.553	0.06
830.847	0.06
831.141	0.06
831.435	0.05
831.729	0.06
832.023	0.05
832.317	0.06
832.61	0.06
832.904	0.06
833.197	0.06
833.491	0.06
833.784	0.06
834.077	0.06
834.371	0.06
834.664	0.05
834.957	0.06
835.25	0.05
835.543	0.05
835.836	0.05
836.129	0.05
836.421	0.05
836.714	0.06
837.007	0.05
837.299	0.06
837.592	0.06
837.884	0.06
838.177	0.06
838.469	0.06
838.761	0.06
839.053	0.05
839.345	0.06
839.637	0.05
839.929	0.06
840.221	0.06
840.513	0.06
840.805	0.06
841.096	0.06
841.388	0.06
841.68	0.06
841.971	0.06
842.262	0.06
842.554	0.06
842.845	0.06
843.136	0.06
843.427	0.06
843.718	0.06
844.009	0.06
844.3	0.06
844.591	0.07
844.882	0.07
845.173	0.06
845.463	0.06
845.754	0.07
846.044	0.07
846.335	0.07
846.625	0.07
846.915	0.07
847.206	0.06
847.496	0.07
847.786	0.07
848.076	0.07
848.366	0.07
848.656	0.06
848.945	0.06
849.235	0.06
849.525	0.07
849.814	0.07
850.104	0.07
850.393	0.07
850.683	0.07
850.972	0.07
851.261	0.07
851.551	0.07
851.84	0.07
852.129	0.07
852.418	0.07
852.707	0.07
852.995	0.06
853.284	0.08
853.573	0.07
853.862	0.06
854.15	0.06
854.439	0.06
854.727	0.06
855.015	0.06
855.304	0.08
855.592	0.08
855.88	0.08
856.168	0.07
856.456	0.07
856.744	0.08
857.032	0.09
857.32	0.08
857.607	0.09
857.895	0.09
858.183	0.06
858.47	0.07
858.757	0.09
859.045	0.07
859.332	0.09
859.619	0.07
859.907	0.07
860.194	0.08
860.481	0.08
860.768	0.09
861.054	0.09
861.341	0.08
861.628	0.07
861.915	0.09
862.201	0.08
862.488	0.08
862.774	0.08
863.061	0.07
863.347	0.07
863.633	0.07
863.919	0.06
864.205	0.04
864.491	0.07
864.777	0.06
865.063	0.07
865.349	0.08
865.635	0.08
865.92	0.06
866.206	0.1
866.492	0.1
866.777	0.07
867.062	0.07
867.348	0.07
867.633	0.06
867.918	0.08
868.203	0.09
868.488	0.08
868.773	0.07
869.058	0.07
869.343	0.06
869.628	0.05
869.912	0.06
870.197	0.08
870.482	0.08
870.766	0.07
871.05	0.08
871.335	0.05
871.619	0.08
871.903	0.09
872.187	0.08
872.471	0.05
872.755	0.04
873.039	0.05
873.323	0.07
873.607	0.09
873.89	0.12
874.174	0.09
874.458	0.12
874.741	0.09
875.024	0.04
875.308	0.06
875.591	0.07
875.874	0.07
876.157	0.11
876.44	0.06
876.723	0.15
877.006	0.03
877.289	0.06
877.572	0.03
877.854	0.05
878.137	-0.05
878.42	0.04
878.702	0.07
878.984	0.05
879.267	0.05
879.549	0.03
879.831	0.11
880.113	0.09
880.395	0.07
880.677	0.06
880.959	0.07
