Data from Rubpy_BV_1500_EDTA_Buffered_Absorbance_14-26-56-655.txt Node
Date: Wed Jul 01 14:26:56 BST 2026
User: fpm-admin
Spectrometer: OFX00224
Trigger mode: 0
Integration Time (sec): 7.000000E-2
Scans to average: 3
Nonlinearity correction enabled: false
Boxcar width: 0
Storing dark spectrum: false
XAxis mode: Wavelengths
Number of Pixels in Spectrum: 2136
>>>>>Begin Spectral Data<<<<<
154.91	-0
155.289	-0
155.669	-0
156.048	-0.27
156.428	-0
156.807	-0
157.186	-0.44
157.566	-0.27
157.945	0.88
158.325	-0
158.704	-0.54
159.083	0.07
159.462	-0
159.842	0.55
160.221	-0.49
160.6	-0
160.979	-0.42
161.359	0.41
161.738	0.18
162.117	-0.18
162.496	-0.64
162.875	0.3
163.254	0.1
163.633	-0
164.012	-0.12
164.391	0.15
164.77	0.22
165.149	0.29
165.528	-0
165.907	-0.27
166.286	-0.32
166.665	-0
167.044	0.07
167.423	0.29
167.802	-0
168.181	-0.02
168.559	0.18
168.938	-0.19
169.317	0.7
169.696	0.36
170.074	-0
170.453	0.18
170.832	1.23
171.21	0.03
171.589	0.11
171.968	0.3
172.346	0.28
172.725	-0.1
173.103	-0
173.482	-0
173.861	-0
174.239	-1.16
174.617	-0.02
174.996	0.18
175.374	0.09
175.753	-0.39
176.131	-0
176.51	-0.06
176.888	1.5
177.266	-0
177.645	-0.03
178.023	-0
178.401	-0.14
178.779	-0.06
179.158	0.16
179.536	-0.56
179.914	0.19
180.292	0.22
180.67	-0
181.048	-0.09
181.427	0.09
181.805	-0
182.183	-0.26
182.561	1.58
182.939	-0
183.317	-0
183.695	0.46
184.073	-0
184.451	-0.04
184.829	0.11
185.206	-0.1
185.584	-0.27
185.962	-0
186.34	-0
186.718	-0
187.096	-0
187.473	-0.22
187.851	-0
188.229	0.1
188.607	0.2
188.984	0.34
189.362	0.36
189.74	0.22
190.117	0.08
190.495	0.11
190.872	0.22
191.25	0.21
191.627	0.22
192.005	0.2
192.382	0.26
192.76	0.26
193.137	0.18
193.515	0.17
193.892	0.2
194.269	0.12
194.647	0.3
195.024	0.05
195.401	0.21
195.779	0.16
196.156	0.2
196.533	0.23
196.91	0.28
197.288	0.27
197.665	0.15
198.042	0.23
198.419	0.29
198.796	0.25
199.173	0.34
199.55	0.32
199.927	0.38
200.304	0.28
200.681	0.3
201.058	0.22
201.435	0.21
201.812	0.29
202.189	0.18
202.566	0.06
202.943	0.17
203.32	0.12
203.697	0.28
204.073	0.15
204.45	0.27
204.827	0.27
205.204	0.23
205.58	0.15
205.957	0.3
206.334	0.21
206.71	0.29
207.087	0.32
207.464	0.2
207.84	0.17
208.217	0.35
208.593	0.34
208.97	0.22
209.346	0.39
209.723	0.23
210.099	0.24
210.476	0.17
210.852	0.21
211.228	0.26
211.605	0.27
211.981	0.29
212.357	0.21
212.733	0.16
213.11	0.18
213.486	0.2
213.862	0.23
214.238	0.26
214.614	0.17
214.991	0.35
215.367	0.2
215.743	0.2
216.119	0.28
216.495	0.18
216.871	0.21
217.247	0.22
217.623	0.17
217.999	0.11
218.375	0.23
218.751	0.33
219.127	0.3
219.502	0.21
219.878	0.28
220.254	0.2
220.63	0.34
221.006	0.19
221.381	0.28
221.757	0.41
222.133	0.18
222.508	0.29
222.884	0.3
223.26	0.23
223.635	0.31
224.011	0.57
224.386	0.32
224.762	0.4
225.137	0.31
225.513	0.29
225.888	0.37
226.264	0.38
226.639	0.29
227.014	0.17
227.39	0.38
227.765	0.27
228.14	0.37
228.516	0.15
228.891	0.27
229.266	0.31
229.641	0.35
230.017	0.25
230.392	0.24
230.767	0.26
231.142	0.21
231.517	0.16
231.892	0.42
232.267	0.18
232.642	0.23
233.017	0.3
233.392	0.23
233.767	0.22
234.142	0.26
234.517	0.32
234.892	0.19
235.267	0.32
235.641	0.24
236.016	0.2
236.391	0.4
236.766	0.32
237.14	0.14
237.515	0.29
237.89	0.31
238.264	0.46
238.639	0.29
239.014	0.21
239.388	0.2
239.763	0.19
240.137	0.18
240.512	0.23
240.886	0.3
241.261	0.27
241.635	0.17
242.009	0.25
242.384	0.35
242.758	0.43
243.132	0.2
243.507	0.24
243.881	0.21
244.255	0.26
244.629	0.25
245.004	0.24
245.378	0.36
245.752	0.34
246.126	0.31
246.5	0.28
246.874	0.17
247.248	0.27
247.622	0.2
247.996	0.23
248.37	0.31
248.744	0.22
249.118	0.32
249.492	0.19
249.866	0.3
250.24	0.25
250.613	0.19
250.987	0.28
251.361	0.29
251.735	0.29
252.108	0.29
252.482	0.19
252.856	0.22
253.229	0.27
253.603	0.19
253.977	0.16
254.35	0.26
254.724	0.25
255.097	0.26
255.471	0.28
255.844	0.24
256.218	0.3
256.591	0.36
256.964	0.24
257.338	0.17
257.711	0.29
258.084	0.3
258.458	0.31
258.831	0.24
259.204	0.3
259.577	0.28
259.95	0.13
260.323	0.3
260.697	0.31
261.07	0.25
261.443	0.26
261.816	0.22
262.189	0.27
262.562	0.35
262.935	0.29
263.308	0.28
263.68	0.16
264.053	0.23
264.426	0.25
264.799	0.26
265.172	0.26
265.545	0.39
265.917	0.18
266.29	0.34
266.663	0.21
267.035	0.29
267.408	0.25
267.781	0.25
268.153	0.26
268.526	0.19
268.898	0.25
269.271	0.28
269.643	0.22
270.016	0.24
270.388	0.26
270.76	0.3
271.133	0.28
271.505	0.28
271.877	0.24
272.25	0.38
272.622	0.36
272.994	0.3
273.366	0.35
273.739	0.25
274.111	0.28
274.483	0.3
274.855	0.28
275.227	0.3
275.599	0.17
275.971	0.28
276.343	0.25
276.715	0.38
277.087	0.27
277.459	0.2
277.831	0.31
278.203	0.31
278.574	0.27
278.946	0.26
279.318	0.39
279.69	0.22
280.061	0.23
280.433	0.23
280.805	0.18
281.176	0.3
281.548	0.31
281.92	0.38
282.291	0.3
282.663	0.29
283.034	0.27
283.406	0.3
283.777	0.32
284.148	0.24
284.52	0.36
284.891	0.21
285.262	0.28
285.634	0.19
286.005	0.33
286.376	0.28
286.747	0.25
287.119	0.35
287.49	0.25
287.861	0.29
288.232	0.34
288.603	0.36
288.974	0.32
289.345	0.29
289.716	0.26
290.087	0.31
290.458	0.3
290.829	0.23
291.2	0.24
291.571	0.27
291.941	0.28
292.312	0.29
292.683	0.28
293.054	0.24
293.424	0.31
293.795	0.3
294.166	0.24
294.536	0.29
294.907	0.3
295.277	0.32
295.648	0.35
296.018	0.35
296.389	0.34
296.759	0.26
297.13	0.26
297.5	0.32
297.871	0.29
298.241	0.27
298.611	0.37
298.981	0.39
299.352	0.23
299.722	0.33
300.092	0.29
300.462	0.28
300.832	0.33
301.202	0.38
301.573	0.27
301.943	0.24
302.313	0.32
302.683	0.34
303.053	0.35
303.422	0.34
303.792	0.28
304.162	0.25
304.532	0.28
304.902	0.22
305.272	0.27
305.641	0.29
306.011	0.22
306.381	0.23
306.75	0.24
307.12	0.23
307.49	0.28
307.859	0.2
308.229	0.23
308.598	0.24
308.968	0.26
309.337	0.22
309.707	0.22
310.076	0.18
310.445	0.23
310.815	0.21
311.184	0.22
311.553	0.2
311.923	0.21
312.292	0.21
312.661	0.23
313.03	0.22
313.399	0.22
313.768	0.24
314.137	0.23
314.506	0.22
314.875	0.24
315.244	0.25
315.613	0.26
315.982	0.25
316.351	0.24
316.72	0.27
317.089	0.27
317.458	0.26
317.826	0.27
318.195	0.26
318.564	0.27
318.933	0.28
319.301	0.27
319.67	0.29
320.038	0.28
320.407	0.29
320.775	0.3
321.144	0.29
321.512	0.32
321.881	0.3
322.249	0.31
322.618	0.31
322.986	0.33
323.354	0.32
323.723	0.33
324.091	0.35
324.459	0.33
324.827	0.34
325.195	0.35
325.564	0.36
325.932	0.36
326.3	0.36
326.668	0.37
327.036	0.36
327.404	0.38
327.772	0.37
328.14	0.39
328.508	0.39
328.875	0.4
329.243	0.41
329.611	0.41
329.979	0.42
330.346	0.42
330.714	0.43
331.082	0.44
331.449	0.43
331.817	0.45
332.185	0.45
332.552	0.46
332.92	0.47
333.287	0.48
333.655	0.49
334.022	0.5
334.389	0.51
334.757	0.52
335.124	0.53
335.491	0.54
335.859	0.55
336.226	0.56
336.593	0.57
336.96	0.58
337.327	0.59
337.695	0.6
338.062	0.61
338.429	0.63
338.796	0.63
339.163	0.64
339.53	0.66
339.897	0.66
340.263	0.68
340.63	0.69
340.997	0.7
341.364	0.72
341.731	0.72
342.097	0.74
342.464	0.74
342.831	0.77
343.197	0.77
343.564	0.79
343.931	0.79
344.297	0.8
344.664	0.83
345.03	0.83
345.396	0.84
345.763	0.87
346.129	0.86
346.496	0.88
346.862	0.89
347.228	0.92
347.594	0.92
347.961	0.93
348.327	0.94
348.693	0.97
349.059	0.97
349.425	0.98
349.791	0.99
350.157	1.01
350.523	1.01
350.889	1.03
351.255	1.03
351.621	1.04
351.987	1.05
352.353	1.06
352.719	1.08
353.084	1.1
353.45	1.1
353.816	1.11
354.181	1.13
354.547	1.14
354.913	1.16
355.278	1.17
355.644	1.18
356.009	1.19
356.375	1.21
356.74	1.23
357.106	1.24
357.471	1.24
357.836	1.28
358.202	1.29
358.567	1.31
358.932	1.32
359.297	1.33
359.663	1.33
360.028	1.39
360.393	1.37
360.758	1.4
361.123	1.4
361.488	1.45
361.853	1.43
362.218	1.47
362.583	1.47
362.948	1.48
363.312	1.51
363.677	1.51
364.042	1.53
364.407	1.53
364.772	1.54
365.136	1.57
365.501	1.57
365.865	1.6
366.23	1.59
366.595	1.59
366.959	1.63
367.324	1.64
367.688	1.64
368.052	1.68
368.417	1.7
368.781	1.68
369.145	1.68
369.51	1.68
369.874	1.71
370.238	1.72
370.602	1.72
370.967	1.7
371.331	1.7
371.695	1.73
372.059	1.7
372.423	1.71
372.787	1.7
373.151	1.71
373.515	1.71
373.878	1.71
374.242	1.74
374.606	1.69
374.97	1.68
375.334	1.64
375.697	1.72
376.061	1.66
376.425	1.65
376.788	1.62
377.152	1.63
377.515	1.61
377.879	1.59
378.242	1.59
378.606	1.58
378.969	1.55
379.333	1.56
379.696	1.53
380.059	1.49
380.422	1.48
380.786	1.46
381.149	1.45
381.512	1.43
381.875	1.41
382.238	1.42
382.601	1.37
382.964	1.35
383.327	1.34
383.69	1.34
384.053	1.34
384.416	1.32
384.779	1.28
385.142	1.29
385.504	1.27
385.867	1.27
386.23	1.24
386.593	1.25
386.955	1.24
387.318	1.24
387.68	1.23
388.043	1.22
388.405	1.22
388.768	1.2
389.13	1.2
389.493	1.19
389.855	1.19
390.217	1.18
390.58	1.17
390.942	1.16
391.304	1.14
391.666	1.13
392.028	1.11
392.391	1.09
392.753	1.07
393.115	1.06
393.477	1.04
393.839	1.03
394.201	1.02
394.563	1.01
394.924	1.01
395.286	1.01
395.648	1.01
396.01	1.01
396.371	1.03
396.733	1.03
397.095	1.05
397.456	1.07
397.818	1.08
398.18	1.1
398.541	1.13
398.903	1.15
399.264	1.18
399.625	1.2
399.987	1.23
400.348	1.23
400.709	1.25
401.071	1.27
401.432	1.26
401.793	1.28
402.154	1.25
402.515	1.24
402.876	1.23
403.238	1.19
403.599	1.18
403.96	1.15
404.32	1.1
404.681	1.07
405.042	1.02
405.403	0.97
405.764	0.94
406.125	0.9
406.485	0.86
406.846	0.8
407.207	0.76
407.567	0.73
407.928	0.69
408.288	0.65
408.649	0.62
409.009	0.59
409.37	0.56
409.73	0.52
410.091	0.5
410.451	0.47
410.811	0.45
411.171	0.43
411.532	0.4
411.892	0.39
412.252	0.37
412.612	0.36
412.972	0.34
413.332	0.32
413.692	0.31
414.052	0.3
414.412	0.29
414.772	0.28
415.132	0.27
415.492	0.27
415.851	0.25
416.211	0.25
416.571	0.23
416.931	0.23
417.29	0.22
417.65	0.22
418.009	0.22
418.369	0.21
418.728	0.2
419.088	0.21
419.447	0.19
419.807	0.19
420.166	0.18
420.525	0.18
420.884	0.17
421.244	0.18
421.603	0.17
421.962	0.17
422.321	0.17
422.68	0.16
423.039	0.16
423.398	0.16
423.757	0.16
424.116	0.16
424.475	0.17
424.834	0.15
425.193	0.15
425.551	0.15
425.91	0.14
426.269	0.15
426.628	0.14
426.986	0.14
427.345	0.14
427.703	0.14
428.062	0.14
428.42	0.13
428.779	0.14
429.137	0.14
429.496	0.13
429.854	0.14
430.212	0.14
430.57	0.13
430.929	0.13
431.287	0.12
431.645	0.13
432.003	0.13
432.361	0.12
432.719	0.14
433.077	0.13
433.435	0.14
433.793	0.13
434.151	0.14
434.509	0.13
434.866	0.13
435.224	0.13
435.582	0.12
435.94	0.13
436.297	0.13
436.655	0.13
437.012	0.13
437.37	0.12
437.727	0.13
438.085	0.13
438.442	0.13
438.8	0.13
439.157	0.13
439.514	0.13
439.872	0.13
440.229	0.13
440.586	0.13
440.943	0.13
441.3	0.13
441.657	0.13
442.014	0.13
442.371	0.13
442.728	0.13
443.085	0.14
443.442	0.14
443.799	0.13
444.156	0.14
444.513	0.13
444.869	0.14
445.226	0.14
445.583	0.13
445.939	0.13
446.296	0.15
446.652	0.14
447.009	0.13
447.365	0.14
447.722	0.14
448.078	0.14
448.434	0.14
448.791	0.16
449.147	0.14
449.503	0.14
449.859	0.15
450.215	0.15
450.571	0.15
450.928	0.14
451.284	0.16
451.64	0.15
451.995	0.16
452.351	0.15
452.707	0.16
453.063	0.16
453.419	0.15
453.775	0.16
454.13	0.17
454.486	0.17
454.842	0.17
455.197	0.16
455.553	0.16
455.908	0.16
456.264	0.17
456.619	0.17
456.975	0.16
457.33	0.17
457.685	0.16
458.04	0.17
458.396	0.18
458.751	0.18
459.106	0.18
459.461	0.18
459.816	0.19
460.171	0.19
460.526	0.18
460.881	0.18
461.236	0.18
461.591	0.19
461.946	0.18
462.301	0.2
462.655	0.19
463.01	0.2
463.365	0.2
463.719	0.19
464.074	0.19
464.428	0.19
464.783	0.19
465.137	0.2
465.492	0.2
465.846	0.2
466.201	0.2
466.555	0.21
466.909	0.2
467.263	0.21
467.618	0.21
467.972	0.23
468.326	0.22
468.68	0.22
469.034	0.22
469.388	0.22
469.742	0.22
470.096	0.23
470.45	0.24
470.804	0.24
471.157	0.23
471.511	0.24
471.865	0.25
472.218	0.25
472.572	0.25
472.926	0.26
473.279	0.26
473.633	0.26
473.986	0.26
474.34	0.26
474.693	0.27
475.046	0.28
475.4	0.27
475.753	0.28
476.106	0.29
476.459	0.29
476.812	0.29
477.165	0.29
477.519	0.3
477.872	0.3
478.224	0.31
478.577	0.31
478.93	0.31
479.283	0.31
479.636	0.32
479.989	0.33
480.341	0.32
480.694	0.33
481.047	0.34
481.399	0.33
481.752	0.34
482.104	0.34
482.457	0.35
482.809	0.35
483.162	0.36
483.514	0.36
483.866	0.36
484.219	0.36
484.571	0.37
484.923	0.38
485.275	0.38
485.627	0.38
485.979	0.38
486.331	0.38
486.683	0.39
487.035	0.4
487.387	0.39
487.739	0.4
488.091	0.41
488.443	0.41
488.794	0.41
489.146	0.41
489.498	0.41
489.849	0.42
490.201	0.43
490.552	0.43
490.904	0.43
491.255	0.43
491.607	0.44
491.958	0.44
492.309	0.45
492.661	0.44
493.012	0.44
493.363	0.45
493.714	0.46
494.065	0.47
494.416	0.46
494.767	0.47
495.118	0.48
495.469	0.48
495.82	0.48
496.171	0.49
496.522	0.48
496.872	0.49
497.223	0.49
497.574	0.5
497.924	0.5
498.275	0.5
498.626	0.51
498.976	0.51
499.327	0.51
499.677	0.52
500.027	0.52
500.378	0.52
500.728	0.53
501.078	0.54
501.428	0.53
501.779	0.53
502.129	0.54
502.479	0.54
502.829	0.55
503.179	0.55
503.529	0.55
503.879	0.56
504.229	0.57
504.578	0.57
504.928	0.57
505.278	0.57
505.628	0.58
505.977	0.58
506.327	0.59
506.676	0.59
507.026	0.58
507.375	0.6
507.725	0.6
508.074	0.6
508.424	0.61
508.773	0.6
509.122	0.61
509.471	0.61
509.82	0.62
510.17	0.62
510.519	0.62
510.868	0.64
511.217	0.63
511.566	0.63
511.915	0.63
512.263	0.64
512.612	0.64
512.961	0.64
513.31	0.64
513.659	0.65
514.007	0.66
514.356	0.66
514.704	0.66
515.053	0.67
515.401	0.67
515.75	0.67
516.098	0.67
516.447	0.68
516.795	0.69
517.143	0.68
517.491	0.68
517.839	0.69
518.188	0.69
518.536	0.69
518.884	0.7
519.232	0.7
519.58	0.7
519.928	0.7
520.275	0.71
520.623	0.71
520.971	0.71
521.319	0.71
521.666	0.72
522.014	0.72
522.362	0.72
522.709	0.72
523.057	0.73
523.404	0.73
523.752	0.73
524.099	0.73
524.446	0.73
524.794	0.74
525.141	0.73
525.488	0.74
525.835	0.74
526.182	0.75
526.529	0.75
526.876	0.74
527.223	0.75
527.57	0.76
527.917	0.75
528.264	0.76
528.611	0.75
528.958	0.76
529.304	0.76
529.651	0.76
529.998	0.77
530.344	0.76
530.691	0.77
531.037	0.78
531.384	0.77
531.73	0.78
532.076	0.78
532.423	0.78
532.769	0.78
533.115	0.78
533.461	0.78
533.807	0.78
534.154	0.78
534.5	0.79
534.846	0.78
535.192	0.79
535.537	0.79
535.883	0.79
536.229	0.79
536.575	0.8
536.921	0.8
537.266	0.8
537.612	0.81
537.957	0.8
538.303	0.81
538.649	0.8
538.994	0.8
539.339	0.81
539.685	0.8
540.03	0.81
540.375	0.81
540.721	0.81
541.066	0.8
541.411	0.81
541.756	0.81
542.101	0.81
542.446	0.81
542.791	0.82
543.136	0.82
543.481	0.82
543.825	0.82
544.17	0.82
544.515	0.82
544.86	0.82
545.204	0.82
545.549	0.82
545.893	0.82
546.238	0.82
546.582	0.82
546.927	0.82
547.271	0.83
547.615	0.82
547.96	0.83
548.304	0.83
548.648	0.82
548.992	0.83
549.336	0.83
549.68	0.83
550.024	0.83
550.368	0.83
550.712	0.83
551.056	0.83
551.4	0.83
551.743	0.82
552.087	0.83
552.431	0.83
552.774	0.83
553.118	0.82
553.462	0.83
553.805	0.82
554.148	0.83
554.492	0.82
554.835	0.82
555.178	0.82
555.522	0.82
555.865	0.82
556.208	0.83
556.551	0.83
556.894	0.82
557.237	0.82
557.58	0.82
557.923	0.82
558.266	0.82
558.609	0.81
558.952	0.82
559.294	0.82
559.637	0.81
559.98	0.82
560.322	0.81
560.665	0.82
561.007	0.82
561.35	0.81
561.692	0.82
562.034	0.81
562.377	0.81
562.719	0.81
563.061	0.81
563.403	0.81
563.745	0.81
564.088	0.81
564.43	0.81
564.772	0.8
565.113	0.81
565.455	0.8
565.797	0.8
566.139	0.8
566.481	0.8
566.822	0.81
567.164	0.8
567.506	0.8
567.847	0.79
568.189	0.79
568.53	0.79
568.872	0.79
569.213	0.79
569.554	0.79
569.895	0.79
570.237	0.78
570.578	0.78
570.919	0.78
571.26	0.78
571.601	0.78
571.942	0.78
572.283	0.78
572.624	0.77
572.965	0.77
573.306	0.76
573.646	0.77
573.987	0.76
574.328	0.76
574.668	0.76
575.009	0.76
575.349	0.75
575.69	0.75
576.03	0.75
576.37	0.75
576.711	0.75
577.051	0.74
577.391	0.75
577.731	0.75
578.072	0.74
578.412	0.74
578.752	0.74
579.092	0.74
579.431	0.72
579.771	0.71
580.111	0.7
580.451	0.71
580.791	0.72
581.13	0.73
581.47	0.73
581.81	0.72
582.149	0.72
582.489	0.72
582.828	0.71
583.167	0.69
583.507	0.65
583.846	0.63
584.185	0.66
584.525	0.69
584.864	0.7
585.203	0.71
585.542	0.71
585.881	0.71
586.22	0.72
586.559	0.71
586.898	0.69
587.236	0.69
587.575	0.68
587.914	0.69
588.252	0.7
588.591	0.7
588.93	0.7
589.268	0.7
589.607	0.7
589.945	0.7
590.283	0.7
590.622	0.7
590.96	0.7
591.298	0.71
591.636	0.7
591.974	0.71
592.313	0.7
592.651	0.71
592.989	0.7
593.326	0.71
593.664	0.7
594.002	0.7
594.34	0.7
594.678	0.69
595.015	0.69
595.353	0.69
595.691	0.69
596.028	0.7
596.366	0.7
596.703	0.7
597.04	0.7
597.378	0.69
597.715	0.7
598.052	0.7
598.389	0.7
598.726	0.7
599.064	0.7
599.401	0.69
599.738	0.69
600.074	0.69
600.411	0.69
600.748	0.68
601.085	0.68
601.422	0.67
601.758	0.68
602.095	0.67
602.432	0.68
602.768	0.68
603.105	0.68
603.441	0.68
603.777	0.68
604.114	0.68
604.45	0.68
604.786	0.68
605.122	0.68
605.459	0.67
605.795	0.67
606.131	0.67
606.467	0.67
606.803	0.67
607.139	0.67
607.474	0.66
607.81	0.66
608.146	0.66
608.482	0.66
608.817	0.66
609.153	0.65
609.488	0.65
609.824	0.65
610.159	0.65
610.495	0.65
610.83	0.65
611.165	0.65
611.5	0.64
611.836	0.64
612.171	0.64
612.506	0.64
612.841	0.64
613.176	0.63
613.511	0.63
613.845	0.63
614.18	0.63
614.515	0.63
614.85	0.63
615.184	0.62
615.519	0.62
615.854	0.62
616.188	0.62
616.523	0.61
616.857	0.61
617.191	0.61
617.526	0.6
617.86	0.6
618.194	0.6
618.528	0.61
618.862	0.6
619.196	0.6
619.53	0.6
619.864	0.6
620.198	0.6
620.532	0.59
620.866	0.59
621.2	0.59
621.533	0.58
621.867	0.58
622.201	0.58
622.534	0.58
622.868	0.58
623.201	0.58
623.534	0.57
623.868	0.57
624.201	0.57
624.534	0.57
624.868	0.56
625.201	0.56
625.534	0.56
625.867	0.56
626.2	0.55
626.533	0.55
626.865	0.55
627.198	0.55
627.531	0.54
627.864	0.54
628.196	0.54
628.529	0.53
628.862	0.53
629.194	0.53
629.527	0.52
629.859	0.52
630.191	0.52
630.524	0.52
630.856	0.51
631.188	0.51
631.52	0.51
631.852	0.51
632.184	0.5
632.516	0.5
632.848	0.5
633.18	0.5
633.512	0.5
633.844	0.49
634.175	0.49
634.507	0.48
634.839	0.48
635.17	0.48
635.502	0.47
635.833	0.47
636.165	0.47
636.496	0.46
636.827	0.46
637.159	0.46
637.49	0.46
637.821	0.45
638.152	0.44
638.483	0.44
638.814	0.44
639.145	0.44
639.476	0.43
639.807	0.43
640.137	0.43
640.468	0.43
640.799	0.43
641.129	0.42
641.46	0.42
641.791	0.42
642.121	0.41
642.451	0.41
642.782	0.41
643.112	0.41
643.442	0.41
643.773	0.4
644.103	0.4
644.433	0.4
644.763	0.4
645.093	0.39
645.423	0.39
645.753	0.39
646.082	0.39
646.412	0.38
646.742	0.38
647.072	0.38
647.401	0.38
647.731	0.38
648.06	0.37
648.39	0.37
648.719	0.37
649.048	0.37
649.378	0.37
649.707	0.37
650.036	0.37
650.365	0.37
650.694	0.36
651.023	0.36
651.352	0.36
651.681	0.36
652.01	0.36
652.339	0.35
652.668	0.36
652.996	0.35
653.325	0.35
653.654	0.35
653.982	0.35
654.311	0.35
654.639	0.35
654.967	0.35
655.296	0.34
655.624	0.34
655.952	0.34
656.28	0.34
656.609	0.34
656.937	0.34
657.265	0.34
657.593	0.22
657.92	0.11
658.248	0.07
658.576	0.1
658.904	0.19
659.231	0.28
659.559	0.32
659.887	0.33
660.214	0.32
660.542	0.32
660.869	0.32
661.196	0.32
661.524	0.32
661.851	0.32
662.178	0.32
662.505	0.31
662.832	0.31
663.159	0.32
663.486	0.31
663.813	0.31
664.14	0.31
664.467	0.31
664.794	0.31
665.12	0.31
665.447	0.31
665.774	0.3
666.1	0.3
666.427	0.3
666.753	0.3
667.079	0.3
667.406	0.3
667.732	0.29
668.058	0.3
668.384	0.29
668.71	0.29
669.036	0.29
669.362	0.29
669.688	0.29
670.014	0.28
670.34	0.28
670.666	0.28
670.991	0.28
671.317	0.28
671.643	0.28
671.968	0.28
672.294	0.27
672.619	0.27
672.945	0.26
673.27	0.26
673.595	0.26
673.92	0.26
674.246	0.26
674.571	0.26
674.896	0.26
675.221	0.25
675.546	0.25
675.87	0.25
676.195	0.25
676.52	0.25
676.845	0.24
677.169	0.24
677.494	0.24
677.819	0.24
678.143	0.23
678.468	0.23
678.792	0.23
679.116	0.23
679.44	0.22
679.765	0.22
680.089	0.22
680.413	0.22
680.737	0.22
681.061	0.21
681.385	0.21
681.709	0.21
682.033	0.2
682.356	0.2
682.68	0.2
683.004	0.21
683.327	0.2
683.651	0.2
683.974	0.19
684.298	0.19
684.621	0.19
684.944	0.19
685.268	0.19
685.591	0.19
685.914	0.18
686.237	0.18
686.56	0.18
686.883	0.17
687.206	0.17
687.529	0.17
687.852	0.16
688.175	0.17
688.497	0.17
688.82	0.17
689.142	0.16
689.465	0.16
689.787	0.16
690.11	0.15
690.432	0.15
690.755	0.15
691.077	0.15
691.399	0.15
691.721	0.15
692.043	0.15
692.365	0.15
692.687	0.14
693.009	0.14
693.331	0.14
693.653	0.14
693.974	0.14
694.296	0.13
694.618	0.13
694.939	0.13
695.261	0.13
695.582	0.13
695.904	0.13
696.225	0.13
696.546	0.13
696.868	0.12
697.189	0.12
697.51	0.12
697.831	0.12
698.152	0.12
698.473	0.12
698.794	0.11
699.114	0.11
699.435	0.1
699.756	0.1
700.077	0.11
700.397	0.11
700.718	0.11
701.038	0.11
701.359	0.11
701.679	0.11
701.999	0.11
702.32	0.11
702.64	0.11
702.96	0.11
703.28	0.11
703.6	0.11
703.92	0.1
704.24	0.1
704.56	0.1
704.879	0.1
705.199	0.1
705.519	0.1
705.838	0.1
706.158	0.1
706.478	0.1
706.797	0.1
707.116	0.1
707.436	0.1
707.755	0.1
708.074	0.1
708.393	0.1
708.712	0.09
709.031	0.08
709.35	0.08
709.669	0.08
709.988	0.08
710.307	0.08
710.626	0.09
710.944	0.09
711.263	0.09
711.582	0.09
711.9	0.09
712.219	0.09
712.537	0.09
712.855	0.09
713.174	0.09
713.492	0.09
713.81	0.1
714.128	0.09
714.446	0.09
714.764	0.09
715.082	0.09
715.4	0.09
715.718	0.09
716.035	0.09
716.353	0.09
716.671	0.09
716.988	0.09
717.306	0.09
717.623	0.1
717.941	0.1
718.258	0.1
718.575	0.1
718.893	0.1
719.21	0.1
719.527	0.1
719.844	0.1
720.161	0.09
720.478	0.1
720.795	0.1
721.112	0.1
721.428	0.1
721.745	0.1
722.062	0.1
722.378	0.1
722.695	0.1
723.011	0.1
723.328	0.1
723.644	0.1
723.96	0.1
724.276	0.1
724.593	0.1
724.909	0.1
725.225	0.1
725.541	0.1
725.857	0.1
726.173	0.1
726.488	0.1
726.804	0.1
727.12	0.1
727.435	0.1
727.751	0.1
728.067	0.1
728.382	0.1
728.697	0.1
729.013	0.1
729.328	0.1
729.643	0.1
729.958	0.1
730.273	0.1
730.588	0.1
730.903	0.1
731.218	0.1
731.533	0.1
731.848	0.1
732.163	0.1
732.477	0.1
732.792	0.1
733.107	0.09
733.421	0.1
733.736	0.09
734.05	0.1
734.364	0.1
734.678	0.1
734.993	0.09
735.307	0.1
735.621	0.09
735.935	0.1
736.249	0.09
736.563	0.1
736.877	0.09
737.19	0.09
737.504	0.09
737.818	0.09
738.131	0.09
738.445	0.09
738.758	0.09
739.072	0.09
739.385	0.09
739.698	0.09
740.012	0.09
740.325	0.09
740.638	0.09
740.951	0.09
741.264	0.09
741.577	0.09
741.89	0.09
742.203	0.09
742.515	0.09
742.828	0.09
743.141	0.09
743.453	0.09
743.766	0.08
744.078	0.09
744.391	0.08
744.703	0.08
745.015	0.09
745.327	0.09
745.639	0.08
745.952	0.08
746.264	0.08
746.575	0.08
746.887	0.08
747.199	0.08
747.511	0.08
747.823	0.08
748.134	0.08
748.446	0.07
748.757	0.07
749.069	0.07
749.38	0.07
749.692	0.07
750.003	0.07
750.314	0.07
750.625	0.07
750.936	0.07
751.248	0.07
751.559	0.07
751.869	0.07
752.18	0.07
752.491	0.07
752.802	0.07
753.112	0.07
753.423	0.07
753.734	0.06
754.044	0.07
754.355	0.07
754.665	0.06
754.975	0.06
755.285	0.06
755.596	0.06
755.906	0.06
756.216	0.06
756.526	0.06
756.836	0.06
757.146	0.06
757.455	0.06
757.765	0.06
758.075	0.05
758.385	0.05
758.694	0.05
759.004	0.05
759.313	0.05
759.622	0.05
759.932	0.05
760.241	0.06
760.55	0.05
760.859	0.05
761.168	0.06
761.477	0.05
761.786	0.05
762.095	0.05
762.404	0.05
762.713	0.05
763.021	0.05
763.33	0.05
763.639	0.06
763.947	0.05
764.256	0.05
764.564	0.05
764.872	0.05
765.181	0.05
765.489	0.05
765.797	0.05
766.105	0.05
766.413	0.05
766.721	0.05
767.029	0.05
767.337	0.05
767.644	0.05
767.952	0.05
768.26	0.05
768.567	0.05
768.875	0.05
769.182	0.05
769.49	0.05
769.797	0.05
770.104	0.05
770.411	0.05
770.718	0.05
771.026	0.05
771.333	0.05
771.639	0.06
771.946	0.05
772.253	0.05
772.56	0.05
772.867	0.05
773.173	0.05
773.48	0.05
773.786	0.05
774.093	0.05
774.399	0.05
774.705	0.05
775.012	0.05
775.318	0.05
775.624	0.05
775.93	0.05
776.236	0.05
776.542	0.05
776.848	0.05
777.154	0.05
777.459	0.05
777.765	0.05
778.071	0.05
778.376	0.05
778.682	0.05
778.987	0.05
779.292	0.05
779.598	0.05
779.903	0.05
780.208	0.05
780.513	0.05
780.818	0.05
781.123	0.05
781.428	0.04
781.733	0.05
782.038	0.05
782.343	0.05
782.647	0.05
782.952	0.05
783.256	0.05
783.561	0.05
783.865	0.05
784.17	0.05
784.474	0.06
784.778	0.06
785.082	0.06
785.386	0.06
785.69	0.06
785.994	0.06
786.298	0.06
786.602	0.06
786.906	0.05
787.209	0.06
787.513	0.06
787.817	0.06
788.12	0.06
788.424	0.06
788.727	0.06
789.03	0.06
789.333	0.06
789.637	0.06
789.94	0.06
790.243	0.06
790.546	0.06
790.849	0.06
791.152	0.06
791.454	0.06
791.757	0.06
792.06	0.06
792.362	0.07
792.665	0.07
792.967	0.06
793.27	0.06
793.572	0.06
793.874	0.06
794.177	0.06
794.479	0.06
794.781	0.06
795.083	0.06
795.385	0.06
795.687	0.06
795.989	0.06
796.29	0.06
796.592	0.06
796.894	0.06
797.195	0.07
797.497	0.07
797.798	0.07
798.1	0.07
798.401	0.07
798.702	0.07
799.003	0.07
799.304	0.06
799.605	0.07
799.906	0.07
800.207	0.07
800.508	0.07
800.809	0.06
801.11	0.06
801.41	0.07
801.711	0.07
802.011	0.07
802.312	0.07
802.612	0.07
802.913	0.07
803.213	0.07
803.513	0.07
803.813	0.07
804.113	0.07
804.413	0.06
804.713	0.07
805.013	0.06
805.313	0.07
805.613	0.07
805.912	0.07
806.212	0.07
806.511	0.07
806.811	0.07
807.11	0.07
807.41	0.07
807.709	0.07
808.008	0.08
808.307	0.08
808.606	0.08
808.905	0.08
809.204	0.08
809.503	0.08
809.802	0.08
810.101	0.08
810.399	0.08
810.698	0.08
810.997	0.08
811.295	0.08
811.593	0.08
811.892	0.08
812.19	0.08
812.488	0.08
812.786	0.07
813.084	0.07
813.383	0.08
813.68	0.07
813.978	0.08
814.276	0.08
814.574	0.08
814.872	0.09
815.169	0.09
815.467	0.08
815.764	0.09
816.062	0.09
816.359	0.08
816.656	0.09
816.954	0.09
817.251	0.09
817.548	0.09
817.845	0.09
818.142	0.09
818.439	0.08
818.735	0.09
819.032	0.08
819.329	0.08
819.626	0.09
819.922	0.09
820.219	0.09
820.515	0.09
820.811	0.09
821.108	0.09
821.404	0.09
821.7	0.09
821.996	0.1
822.292	0.09
822.588	0.09
822.884	0.09
823.18	0.1
823.475	0.1
823.771	0.1
824.067	0.1
824.362	0.09
824.658	0.09
824.953	0.1
825.249	0.09
825.544	0.1
825.839	0.1
826.134	0.09
826.429	0.09
826.724	0.1
827.019	0.1
827.314	0.1
827.609	0.1
827.904	0.1
828.198	0.1
828.493	0.09
828.787	0.1
829.082	0.1
829.376	0.1
829.671	0.1
829.965	0.11
830.259	0.11
830.553	0.11
830.847	0.1
831.141	0.11
831.435	0.1
831.729	0.11
832.023	0.1
832.317	0.11
832.61	0.11
832.904	0.11
833.197	0.11
833.491	0.11
833.784	0.11
834.077	0.11
834.371	0.11
834.664	0.11
834.957	0.11
835.25	0.1
835.543	0.1
835.836	0.11
836.129	0.1
836.421	0.1
836.714	0.1
837.007	0.1
837.299	0.11
837.592	0.11
837.884	0.11
838.177	0.11
838.469	0.1
838.761	0.1
839.053	0.1
839.345	0.11
839.637	0.1
839.929	0.12
840.221	0.11
840.513	0.11
840.805	0.11
841.096	0.11
841.388	0.11
841.68	0.12
841.971	0.11
842.262	0.11
842.554	0.11
842.845	0.11
843.136	0.11
843.427	0.12
843.718	0.12
844.009	0.12
844.3	0.12
844.591	0.12
844.882	0.11
845.173	0.12
845.463	0.12
845.754	0.12
846.044	0.13
846.335	0.12
846.625	0.12
846.915	0.13
847.206	0.13
847.496	0.13
847.786	0.13
848.076	0.13
848.366	0.13
848.656	0.13
848.945	0.12
849.235	0.12
849.525	0.12
849.814	0.12
850.104	0.13
850.393	0.13
850.683	0.13
850.972	0.13
851.261	0.13
851.551	0.13
851.84	0.13
852.129	0.13
852.418	0.13
852.707	0.13
852.995	0.12
853.284	0.13
853.573	0.14
853.862	0.13
854.15	0.12
854.439	0.12
854.727	0.12
855.015	0.12
855.304	0.13
855.592	0.13
855.88	0.13
856.168	0.13
856.456	0.14
856.744	0.15
857.032	0.13
857.32	0.14
857.607	0.14
857.895	0.16
858.183	0.14
858.47	0.13
858.757	0.15
859.045	0.16
859.332	0.15
859.619	0.13
859.907	0.14
860.194	0.14
860.481	0.14
860.768	0.13
861.054	0.14
861.341	0.14
861.628	0.15
861.915	0.15
862.201	0.16
862.488	0.14
862.774	0.14
863.061	0.15
863.347	0.12
863.633	0.14
863.919	0.14
864.205	0.13
864.491	0.12
864.777	0.13
865.063	0.15
865.349	0.14
865.635	0.14
865.92	0.13
866.206	0.15
866.492	0.16
866.777	0.15
867.062	0.13
867.348	0.14
867.633	0.11
867.918	0.14
868.203	0.14
868.488	0.15
868.773	0.13
869.058	0.15
869.343	0.15
869.628	0.11
869.912	0.13
870.197	0.14
870.482	0.17
870.766	0.14
871.05	0.1
871.335	0.13
871.619	0.13
871.903	0.17
872.187	0.17
872.471	0.08
872.755	0.12
873.039	0.14
873.323	0.18
873.607	0.13
873.89	0.18
874.174	0.12
874.458	0.14
874.741	0.14
875.024	0.16
875.308	0.1
875.591	0.17
875.874	0.13
876.157	0.14
876.44	0.2
876.723	0.14
877.006	0.04
877.289	0.05
877.572	0.16
877.854	0.13
878.137	0.09
878.42	0.1
878.702	0.17
878.984	0.08
879.267	0.15
879.549	0.1
879.831	0.15
880.113	0.14
880.395	0.09
880.677	0.17
880.959	0.06
