Data from Rubpy_BV_1500_EDTA_Buffered_Absorbance_14-30-14-670.txt Node
Date: Wed Jul 01 14:30:14 BST 2026
User: fpm-admin
Spectrometer: OFX00224
Trigger mode: 0
Integration Time (sec): 7.000000E-2
Scans to average: 3
Nonlinearity correction enabled: false
Boxcar width: 0
Storing dark spectrum: false
XAxis mode: Wavelengths
Number of Pixels in Spectrum: 2136
>>>>>Begin Spectral Data<<<<<
154.91	-0
155.289	0.31
155.669	-0
156.048	-0
156.428	-0
156.807	-0
157.186	-0.54
157.566	0.44
157.945	-0
158.325	-0.13
158.704	-0
159.083	-0.55
159.462	-0
159.842	0.36
160.221	-0
160.6	-0
160.979	-0.58
161.359	0.41
161.738	0.13
162.117	0.53
162.496	-0.07
162.875	-0
163.254	0.92
163.633	-0.22
164.012	-0
164.391	0.34
164.77	0.02
165.149	0.2
165.528	-0.56
165.907	0.51
166.286	-0.65
166.665	0.28
167.044	0.45
167.423	-0
167.802	-0
168.181	0.22
168.559	0.1
168.938	-0.18
169.317	0.7
169.696	0.08
170.074	-0.62
170.453	0.08
170.832	-0
171.21	-0.08
171.589	0.36
171.968	-0.83
172.346	-0
172.725	-0
173.103	-0
173.482	-0.18
173.861	-0
174.239	-0.54
174.617	0.48
174.996	-0
175.374	0.23
175.753	-0.59
176.131	-0
176.51	0.23
176.888	1.8
177.266	-0
177.645	0.02
178.023	-0
178.401	-0.04
178.779	0.01
179.158	0.44
179.536	0.54
179.914	-0.23
180.292	0.03
180.67	-0
181.048	-0
181.427	-0.04
181.805	-0
182.183	-0.45
182.561	0.28
182.939	-0
183.317	-0.31
183.695	-0.31
184.073	-0
184.451	1.04
184.829	0.53
185.206	-0.54
185.584	-0.11
185.962	-0.07
186.34	-0
186.718	-0
187.096	-0.45
187.473	0.02
187.851	-0.6
188.229	0.19
188.607	0.26
188.984	0.36
189.362	0.51
189.74	0.22
190.117	0.27
190.495	0.17
190.872	0.51
191.25	0.35
191.627	0.11
192.005	0.21
192.382	0.49
192.76	0.24
193.137	0.3
193.515	0.22
193.892	0.48
194.269	0.36
194.647	0.32
195.024	0.24
195.401	0.22
195.779	0.23
196.156	0.24
196.533	0.32
196.91	0.3
197.288	0.29
197.665	0.19
198.042	0.35
198.419	0.39
198.796	0.27
199.173	0.29
199.55	0.26
199.927	0.3
200.304	0.33
200.681	0.22
201.058	0.17
201.435	0.29
201.812	0.43
202.189	0.25
202.566	0.26
202.943	0.4
203.32	0.2
203.697	0.25
204.073	0.39
204.45	0.24
204.827	0.31
205.204	0.26
205.58	0.25
205.957	0.23
206.334	0.24
206.71	0.24
207.087	0.38
207.464	0.27
207.84	0.27
208.217	0.3
208.593	0.35
208.97	0.3
209.346	0.41
209.723	0.25
210.099	0.25
210.476	0.31
210.852	0.45
211.228	0.22
211.605	0.3
211.981	0.33
212.357	0.29
212.733	0.21
213.11	0.27
213.486	0.3
213.862	0.22
214.238	0.4
214.614	0.27
214.991	0.26
215.367	0.2
215.743	0.26
216.119	0.36
216.495	0.26
216.871	0.3
217.247	0.21
217.623	0.27
217.999	0.29
218.375	0.39
218.751	0.25
219.127	0.26
219.502	0.39
219.878	0.25
220.254	0.29
220.63	0.44
221.006	0.24
221.381	0.34
221.757	0.47
222.133	0.09
222.508	0.48
222.884	0.38
223.26	0.24
223.635	0.31
224.011	0.65
224.386	0.38
224.762	0.39
225.137	0.35
225.513	0.45
225.888	0.39
226.264	0.39
226.639	0.34
227.014	0.33
227.39	0.29
227.765	0.44
228.14	0.36
228.516	0.35
228.891	0.43
229.266	0.43
229.641	0.47
230.017	0.37
230.392	0.38
230.767	0.32
231.142	0.3
231.517	0.44
231.892	0.38
232.267	0.35
232.642	0.33
233.017	0.32
233.392	0.33
233.767	0.16
234.142	0.46
234.517	0.47
234.892	0.32
235.267	0.44
235.641	0.41
236.016	0.3
236.391	0.31
236.766	0.36
237.14	0.39
237.515	0.4
237.89	0.52
238.264	0.46
238.639	0.34
239.014	0.23
239.388	0.25
239.763	0.51
240.137	0.31
240.512	0.3
240.886	0.41
241.261	0.31
241.635	0.4
242.009	0.38
242.384	0.47
242.758	0.29
243.132	0.3
243.507	0.39
243.881	0.25
244.255	0.36
244.629	0.3
245.004	0.29
245.378	0.45
245.752	0.35
246.126	0.48
246.5	0.47
246.874	0.43
247.248	0.4
247.622	0.32
247.996	0.23
248.37	0.34
248.744	0.38
249.118	0.42
249.492	0.31
249.866	0.36
250.24	0.37
250.613	0.34
250.987	0.45
251.361	0.3
251.735	0.42
252.108	0.31
252.482	0.35
252.856	0.37
253.229	0.31
253.603	0.35
253.977	0.35
254.35	0.44
254.724	0.32
255.097	0.3
255.471	0.44
255.844	0.33
256.218	0.32
256.591	0.43
256.964	0.21
257.338	0.37
257.711	0.3
258.084	0.33
258.458	0.27
258.831	0.43
259.204	0.28
259.577	0.35
259.95	0.28
260.323	0.39
260.697	0.36
261.07	0.35
261.443	0.38
261.816	0.22
262.189	0.38
262.562	0.28
262.935	0.42
263.308	0.31
263.68	0.17
264.053	0.39
264.426	0.25
264.799	0.41
265.172	0.44
265.545	0.43
265.917	0.46
266.29	0.68
266.663	0.32
267.035	0.34
267.408	0.35
267.781	0.31
268.153	0.41
268.526	0.39
268.898	0.29
269.271	0.4
269.643	0.38
270.016	0.4
270.388	0.36
270.76	0.33
271.133	0.35
271.505	0.38
271.877	0.34
272.25	0.43
272.622	0.62
272.994	0.34
273.366	0.37
273.739	0.32
274.111	0.35
274.483	0.36
274.855	0.47
275.227	0.41
275.599	0.26
275.971	0.39
276.343	0.25
276.715	0.38
277.087	0.36
277.459	0.25
277.831	0.61
278.203	0.35
278.574	0.44
278.946	0.37
279.318	0.3
279.69	0.29
280.061	0.35
280.433	0.33
280.805	0.28
281.176	0.39
281.548	0.36
281.92	0.34
282.291	0.41
282.663	0.35
283.034	0.35
283.406	0.27
283.777	0.39
284.148	0.35
284.52	0.48
284.891	0.44
285.262	0.37
285.634	0.32
286.005	0.34
286.376	0.43
286.747	0.36
287.119	0.28
287.49	0.33
287.861	0.23
288.232	0.53
288.603	0.34
288.974	0.38
289.345	0.38
289.716	0.29
290.087	0.4
290.458	0.4
290.829	0.35
291.2	0.42
291.571	0.31
291.941	0.34
292.312	0.33
292.683	0.36
293.054	0.41
293.424	0.3
293.795	0.31
294.166	0.3
294.536	0.33
294.907	0.4
295.277	0.51
295.648	0.4
296.018	0.32
296.389	0.35
296.759	0.34
297.13	0.28
297.5	0.36
297.871	0.37
298.241	0.28
298.611	0.39
298.981	0.39
299.352	0.35
299.722	0.48
300.092	0.39
300.462	0.35
300.832	0.32
301.202	0.35
301.573	0.27
301.943	0.26
302.313	0.4
302.683	0.34
303.053	0.35
303.422	0.35
303.792	0.33
304.162	0.32
304.532	0.34
304.902	0.26
305.272	0.26
305.641	0.31
306.011	0.32
306.381	0.27
306.75	0.27
307.12	0.29
307.49	0.29
307.859	0.3
308.229	0.29
308.598	0.28
308.968	0.25
309.337	0.25
309.707	0.29
310.076	0.27
310.445	0.27
310.815	0.25
311.184	0.24
311.553	0.27
311.923	0.26
312.292	0.27
312.661	0.28
313.03	0.27
313.399	0.27
313.768	0.26
314.137	0.28
314.506	0.26
314.875	0.29
315.244	0.29
315.613	0.3
315.982	0.3
316.351	0.3
316.72	0.32
317.089	0.31
317.458	0.32
317.826	0.32
318.195	0.33
318.564	0.32
318.933	0.34
319.301	0.34
319.67	0.35
320.038	0.33
320.407	0.35
320.775	0.35
321.144	0.36
321.512	0.37
321.881	0.37
322.249	0.38
322.618	0.38
322.986	0.38
323.354	0.39
323.723	0.4
324.091	0.39
324.459	0.4
324.827	0.42
325.195	0.43
325.564	0.42
325.932	0.43
326.3	0.42
326.668	0.44
327.036	0.45
327.404	0.45
327.772	0.45
328.14	0.47
328.508	0.48
328.875	0.49
329.243	0.5
329.611	0.5
329.979	0.51
330.346	0.52
330.714	0.53
331.082	0.54
331.449	0.53
331.817	0.55
332.185	0.55
332.552	0.58
332.92	0.58
333.287	0.58
333.655	0.61
334.022	0.6
334.389	0.62
334.757	0.63
335.124	0.64
335.491	0.66
335.859	0.67
336.226	0.69
336.593	0.7
336.96	0.71
337.327	0.73
337.695	0.74
338.062	0.75
338.429	0.76
338.796	0.77
339.163	0.79
339.53	0.8
339.897	0.82
340.263	0.83
340.63	0.85
340.997	0.86
341.364	0.87
341.731	0.89
342.097	0.91
342.464	0.91
342.831	0.94
343.197	0.94
343.564	0.96
343.931	0.98
344.297	0.99
344.664	1
345.03	1.01
345.396	1.03
345.763	1.04
346.129	1.07
346.496	1.09
346.862	1.1
347.228	1.11
347.594	1.13
347.961	1.14
348.327	1.16
348.693	1.17
349.059	1.19
349.425	1.2
349.791	1.2
350.157	1.21
350.523	1.23
350.889	1.24
351.255	1.26
351.621	1.27
351.987	1.28
352.353	1.29
352.719	1.32
353.084	1.33
353.45	1.32
353.816	1.37
354.181	1.37
354.547	1.4
354.913	1.41
355.278	1.43
355.644	1.43
356.009	1.44
356.375	1.48
356.74	1.47
357.106	1.51
357.471	1.51
357.836	1.53
358.202	1.55
358.567	1.6
358.932	1.6
359.297	1.6
359.663	1.61
360.028	1.66
360.393	1.65
360.758	1.71
361.123	1.71
361.488	1.72
361.853	1.72
362.218	1.76
362.583	1.73
362.948	1.75
363.312	1.78
363.677	1.8
364.042	1.83
364.407	1.85
364.772	1.86
365.136	1.85
365.501	1.89
365.865	1.88
366.23	1.9
366.595	1.84
366.959	1.95
367.324	1.89
367.688	1.9
368.052	1.96
368.417	1.95
368.781	1.91
369.145	1.91
369.51	1.94
369.874	1.99
370.238	2
370.602	2.01
370.967	1.95
371.331	1.97
371.695	1.97
372.059	1.98
372.423	2.03
372.787	1.95
373.151	2.01
373.515	1.97
373.878	1.97
374.242	1.97
374.606	2.04
374.97	2
375.334	1.93
375.697	1.92
376.061	1.92
376.425	1.94
376.788	1.92
377.152	1.9
377.515	1.9
377.879	1.91
378.242	1.85
378.606	1.83
378.969	1.81
379.333	1.79
379.696	1.8
380.059	1.81
380.422	1.76
380.786	1.73
381.149	1.73
381.512	1.71
381.875	1.7
382.238	1.69
382.601	1.66
382.964	1.63
383.327	1.61
383.69	1.62
384.053	1.58
384.416	1.54
384.779	1.54
385.142	1.54
385.504	1.51
385.867	1.52
386.23	1.5
386.593	1.47
386.955	1.46
387.318	1.46
387.68	1.46
388.043	1.44
388.405	1.43
388.768	1.43
389.13	1.44
389.493	1.41
389.855	1.4
390.217	1.38
390.58	1.38
390.942	1.36
391.304	1.37
391.666	1.34
392.028	1.3
392.391	1.28
392.753	1.27
393.115	1.26
393.477	1.24
393.839	1.23
394.201	1.21
394.563	1.21
394.924	1.2
395.286	1.19
395.648	1.19
396.01	1.2
396.371	1.21
396.733	1.22
397.095	1.22
397.456	1.26
397.818	1.27
398.18	1.3
398.541	1.3
398.903	1.34
399.264	1.37
399.625	1.39
399.987	1.41
400.348	1.44
400.709	1.46
401.071	1.47
401.432	1.46
401.793	1.47
402.154	1.43
402.515	1.43
402.876	1.42
403.238	1.38
403.599	1.35
403.96	1.32
404.32	1.27
404.681	1.24
405.042	1.2
405.403	1.14
405.764	1.09
406.125	1.04
406.485	0.99
406.846	0.94
407.207	0.91
407.567	0.85
407.928	0.81
408.288	0.76
408.649	0.72
409.009	0.69
409.37	0.66
409.73	0.61
410.091	0.59
410.451	0.56
410.811	0.53
411.171	0.51
411.532	0.47
411.892	0.46
412.252	0.44
412.612	0.42
412.972	0.4
413.332	0.38
413.692	0.37
414.052	0.36
414.412	0.34
414.772	0.33
415.132	0.32
415.492	0.31
415.851	0.3
416.211	0.3
416.571	0.29
416.931	0.27
417.29	0.27
417.65	0.26
418.009	0.26
418.369	0.25
418.728	0.24
419.088	0.24
419.447	0.22
419.807	0.23
420.166	0.22
420.525	0.22
420.884	0.21
421.244	0.21
421.603	0.2
421.962	0.2
422.321	0.2
422.68	0.2
423.039	0.19
423.398	0.18
423.757	0.19
424.116	0.18
424.475	0.19
424.834	0.18
425.193	0.18
425.551	0.18
425.91	0.17
426.269	0.17
426.628	0.17
426.986	0.17
427.345	0.17
427.703	0.16
428.062	0.17
428.42	0.16
428.779	0.17
429.137	0.16
429.496	0.16
429.854	0.15
430.212	0.16
430.57	0.16
430.929	0.16
431.287	0.16
431.645	0.15
432.003	0.16
432.361	0.15
432.719	0.16
433.077	0.15
433.435	0.15
433.793	0.16
434.151	0.16
434.509	0.16
434.866	0.15
435.224	0.16
435.582	0.16
435.94	0.16
436.297	0.16
436.655	0.15
437.012	0.16
437.37	0.16
437.727	0.15
438.085	0.15
438.442	0.15
438.8	0.16
439.157	0.15
439.514	0.16
439.872	0.15
440.229	0.17
440.586	0.17
440.943	0.16
441.3	0.16
441.657	0.16
442.014	0.16
442.371	0.17
442.728	0.16
443.085	0.17
443.442	0.16
443.799	0.16
444.156	0.16
444.513	0.17
444.869	0.15
445.226	0.16
445.583	0.17
445.939	0.17
446.296	0.18
446.652	0.17
447.009	0.18
447.365	0.17
447.722	0.18
448.078	0.18
448.434	0.17
448.791	0.18
449.147	0.17
449.503	0.19
449.859	0.19
450.215	0.18
450.571	0.19
450.928	0.17
451.284	0.19
451.64	0.19
451.995	0.2
452.351	0.21
452.707	0.2
453.063	0.19
453.419	0.2
453.775	0.19
454.13	0.2
454.486	0.21
454.842	0.2
455.197	0.2
455.553	0.2
455.908	0.2
456.264	0.21
456.619	0.21
456.975	0.2
457.33	0.21
457.685	0.22
458.04	0.21
458.396	0.22
458.751	0.21
459.106	0.22
459.461	0.23
459.816	0.23
460.171	0.23
460.526	0.22
460.881	0.23
461.236	0.23
461.591	0.24
461.946	0.23
462.301	0.23
462.655	0.24
463.01	0.24
463.365	0.24
463.719	0.24
464.074	0.25
464.428	0.24
464.783	0.25
465.137	0.25
465.492	0.25
465.846	0.25
466.201	0.26
466.555	0.26
466.909	0.26
467.263	0.26
467.618	0.27
467.972	0.28
468.326	0.27
468.68	0.28
469.034	0.28
469.388	0.28
469.742	0.28
470.096	0.28
470.45	0.29
470.804	0.3
471.157	0.3
471.511	0.3
471.865	0.3
472.218	0.31
472.572	0.31
472.926	0.32
473.279	0.32
473.633	0.32
473.986	0.33
474.34	0.33
474.693	0.33
475.046	0.34
475.4	0.35
475.753	0.35
476.106	0.36
476.459	0.36
476.812	0.36
477.165	0.37
477.519	0.37
477.872	0.37
478.224	0.38
478.577	0.38
478.93	0.38
479.283	0.39
479.636	0.4
479.989	0.4
480.341	0.4
480.694	0.41
481.047	0.42
481.399	0.42
481.752	0.43
482.104	0.43
482.457	0.43
482.809	0.44
483.162	0.45
483.514	0.44
483.866	0.45
484.219	0.45
484.571	0.46
484.923	0.46
485.275	0.46
485.627	0.47
485.979	0.47
486.331	0.47
486.683	0.48
487.035	0.48
487.387	0.49
487.739	0.49
488.091	0.5
488.443	0.5
488.794	0.51
489.146	0.51
489.498	0.52
489.849	0.52
490.201	0.52
490.552	0.53
490.904	0.53
491.255	0.54
491.607	0.54
491.958	0.54
492.309	0.55
492.661	0.55
493.012	0.55
493.363	0.56
493.714	0.56
494.065	0.57
494.416	0.57
494.767	0.58
495.118	0.59
495.469	0.59
495.82	0.59
496.171	0.59
496.522	0.6
496.872	0.61
497.223	0.61
497.574	0.61
497.924	0.62
498.275	0.62
498.626	0.63
498.976	0.63
499.327	0.63
499.677	0.64
500.027	0.64
500.378	0.65
500.728	0.65
501.078	0.66
501.428	0.66
501.779	0.66
502.129	0.67
502.479	0.67
502.829	0.67
503.179	0.69
503.529	0.68
503.879	0.69
504.229	0.69
504.578	0.7
504.928	0.71
505.278	0.71
505.628	0.71
505.977	0.72
506.327	0.72
506.676	0.73
507.026	0.73
507.375	0.74
507.725	0.73
508.074	0.74
508.424	0.74
508.773	0.75
509.122	0.76
509.471	0.76
509.82	0.75
510.17	0.76
510.519	0.77
510.868	0.77
511.217	0.77
511.566	0.78
511.915	0.78
512.263	0.78
512.612	0.79
512.961	0.79
513.31	0.8
513.659	0.8
514.007	0.8
514.356	0.81
514.704	0.8
515.053	0.82
515.401	0.82
515.75	0.83
516.098	0.82
516.447	0.84
516.795	0.84
517.143	0.83
517.491	0.84
517.839	0.85
518.188	0.85
518.536	0.85
518.884	0.85
519.232	0.86
519.58	0.86
519.928	0.86
520.275	0.87
520.623	0.87
520.971	0.87
521.319	0.87
521.666	0.87
522.014	0.87
522.362	0.88
522.709	0.89
523.057	0.88
523.404	0.9
523.752	0.91
524.099	0.89
524.446	0.91
524.794	0.91
525.141	0.9
525.488	0.91
525.835	0.9
526.182	0.92
526.529	0.92
526.876	0.93
527.223	0.92
527.57	0.92
527.917	0.92
528.264	0.92
528.611	0.93
528.958	0.93
529.304	0.93
529.651	0.94
529.998	0.94
530.344	0.94
530.691	0.95
531.037	0.94
531.384	0.96
531.73	0.95
532.076	0.95
532.423	0.96
532.769	0.95
533.115	0.96
533.461	0.96
533.807	0.96
534.154	0.96
534.5	0.96
534.846	0.96
535.192	0.97
535.537	0.97
535.883	0.96
536.229	0.97
536.575	0.97
536.921	0.98
537.266	0.99
537.612	0.98
537.957	0.98
538.303	0.98
538.649	0.98
538.994	0.98
539.339	0.99
539.685	0.99
540.03	0.99
540.375	0.99
540.721	0.99
541.066	0.99
541.411	0.99
541.756	0.99
542.101	1
542.446	0.99
542.791	0.99
543.136	1.01
543.481	1
543.825	1.01
544.17	1.01
544.515	1
544.86	1.01
545.204	1
545.549	1
545.893	1.01
546.238	1
546.582	1.01
546.927	1.01
547.271	1.01
547.615	1.01
547.96	1.01
548.304	1.01
548.648	1
548.992	1.01
549.336	1.01
549.68	1.01
550.024	1.01
550.368	1.01
550.712	1.01
551.056	1.01
551.4	1
551.743	1.01
552.087	1.01
552.431	1.01
552.774	1.01
553.118	1.01
553.462	1.02
553.805	1.01
554.148	1.01
554.492	1.01
554.835	1.01
555.178	1
555.522	1.01
555.865	1.01
556.208	1.01
556.551	1
556.894	1.01
557.237	1
557.58	1.01
557.923	1
558.266	1.01
558.609	1
558.952	1
559.294	0.99
559.637	0.99
559.98	1
560.322	0.99
560.665	0.99
561.007	0.99
561.35	0.99
561.692	0.99
562.034	0.99
562.377	0.99
562.719	0.99
563.061	0.99
563.403	0.98
563.745	0.99
564.088	0.99
564.43	0.98
564.772	0.98
565.113	0.98
565.455	0.98
565.797	0.98
566.139	0.98
566.481	0.97
566.822	0.98
567.164	0.96
567.506	0.97
567.847	0.96
568.189	0.97
568.53	0.96
568.872	0.96
569.213	0.96
569.554	0.95
569.895	0.96
570.237	0.95
570.578	0.95
570.919	0.95
571.26	0.94
571.601	0.95
571.942	0.95
572.283	0.94
572.624	0.93
572.965	0.93
573.306	0.93
573.646	0.93
573.987	0.92
574.328	0.93
574.668	0.93
575.009	0.92
575.349	0.92
575.69	0.92
576.03	0.91
576.37	0.91
576.711	0.9
577.051	0.91
577.391	0.9
577.731	0.91
578.072	0.9
578.412	0.9
578.752	0.9
579.092	0.89
579.431	0.89
579.771	0.87
580.111	0.86
580.451	0.86
580.791	0.88
581.13	0.89
581.47	0.89
581.81	0.88
582.149	0.88
582.489	0.88
582.828	0.86
583.167	0.84
583.507	0.8
583.846	0.79
584.185	0.81
584.525	0.83
584.864	0.86
585.203	0.87
585.542	0.87
585.881	0.87
586.22	0.86
586.559	0.85
586.898	0.84
587.236	0.84
587.575	0.83
587.914	0.84
588.252	0.85
588.591	0.85
588.93	0.86
589.268	0.85
589.607	0.85
589.945	0.85
590.283	0.85
590.622	0.85
590.96	0.86
591.298	0.86
591.636	0.85
591.974	0.85
592.313	0.85
592.651	0.85
592.989	0.85
593.326	0.85
593.664	0.85
594.002	0.85
594.34	0.84
594.678	0.84
595.015	0.84
595.353	0.82
595.691	0.84
596.028	0.85
596.366	0.84
596.703	0.84
597.04	0.84
597.378	0.84
597.715	0.84
598.052	0.84
598.389	0.84
598.726	0.84
599.064	0.84
599.401	0.84
599.738	0.84
600.074	0.83
600.411	0.84
600.748	0.83
601.085	0.82
601.422	0.82
601.758	0.81
602.095	0.82
602.432	0.81
602.768	0.82
603.105	0.82
603.441	0.82
603.777	0.83
604.114	0.82
604.45	0.82
604.786	0.82
605.122	0.82
605.459	0.8
605.795	0.81
606.131	0.8
606.467	0.8
606.803	0.8
607.139	0.8
607.474	0.8
607.81	0.79
608.146	0.8
608.482	0.79
608.817	0.79
609.153	0.79
609.488	0.79
609.824	0.78
610.159	0.78
610.495	0.78
610.83	0.78
611.165	0.78
611.5	0.77
611.836	0.77
612.171	0.77
612.506	0.77
612.841	0.76
613.176	0.76
613.511	0.76
613.845	0.76
614.18	0.76
614.515	0.75
614.85	0.75
615.184	0.75
615.519	0.74
615.854	0.74
616.188	0.74
616.523	0.73
616.857	0.74
617.191	0.73
617.526	0.73
617.86	0.73
618.194	0.72
618.528	0.72
618.862	0.72
619.196	0.72
619.53	0.72
619.864	0.72
620.198	0.71
620.532	0.71
620.866	0.71
621.2	0.7
621.533	0.7
621.867	0.7
622.201	0.69
622.534	0.69
622.868	0.7
623.201	0.69
623.534	0.68
623.868	0.68
624.201	0.68
624.534	0.68
624.868	0.67
625.201	0.67
625.534	0.67
625.867	0.66
626.2	0.66
626.533	0.66
626.865	0.66
627.198	0.65
627.531	0.65
627.864	0.64
628.196	0.64
628.529	0.64
628.862	0.63
629.194	0.63
629.527	0.63
629.859	0.62
630.191	0.62
630.524	0.62
630.856	0.61
631.188	0.61
631.52	0.6
631.852	0.6
632.184	0.6
632.516	0.6
632.848	0.59
633.18	0.6
633.512	0.59
633.844	0.58
634.175	0.58
634.507	0.58
634.839	0.58
635.17	0.57
635.502	0.57
635.833	0.56
636.165	0.56
636.496	0.55
636.827	0.55
637.159	0.54
637.49	0.54
637.821	0.54
638.152	0.53
638.483	0.53
638.814	0.53
639.145	0.53
639.476	0.52
639.807	0.52
640.137	0.52
640.468	0.51
640.799	0.51
641.129	0.5
641.46	0.5
641.791	0.5
642.121	0.5
642.451	0.49
642.782	0.49
643.112	0.49
643.442	0.48
643.773	0.48
644.103	0.48
644.433	0.47
644.763	0.48
645.093	0.47
645.423	0.47
645.753	0.47
646.082	0.46
646.412	0.46
646.742	0.46
647.072	0.46
647.401	0.45
647.731	0.45
648.06	0.44
648.39	0.45
648.719	0.44
649.048	0.44
649.378	0.44
649.707	0.44
650.036	0.44
650.365	0.44
650.694	0.43
651.023	0.43
651.352	0.43
651.681	0.43
652.01	0.43
652.339	0.42
652.668	0.42
652.996	0.42
653.325	0.42
653.654	0.42
653.982	0.42
654.311	0.42
654.639	0.42
654.967	0.41
655.296	0.41
655.624	0.41
655.952	0.41
656.28	0.41
656.609	0.41
656.937	0.41
657.265	0.4
657.593	0.28
657.92	0.17
658.248	0.13
658.576	0.16
658.904	0.26
659.231	0.34
659.559	0.39
659.887	0.39
660.214	0.39
660.542	0.39
660.869	0.38
661.196	0.38
661.524	0.38
661.851	0.38
662.178	0.38
662.505	0.38
662.832	0.37
663.159	0.37
663.486	0.37
663.813	0.37
664.14	0.37
664.467	0.37
664.794	0.37
665.12	0.37
665.447	0.36
665.774	0.36
666.1	0.36
666.427	0.36
666.753	0.36
667.079	0.35
667.406	0.35
667.732	0.35
668.058	0.35
668.384	0.35
668.71	0.34
669.036	0.34
669.362	0.34
669.688	0.34
670.014	0.34
670.34	0.34
670.666	0.33
670.991	0.33
671.317	0.33
671.643	0.33
671.968	0.33
672.294	0.32
672.619	0.32
672.945	0.32
673.27	0.31
673.595	0.31
673.92	0.31
674.246	0.31
674.571	0.31
674.896	0.3
675.221	0.3
675.546	0.3
675.87	0.3
676.195	0.3
676.52	0.29
676.845	0.29
677.169	0.29
677.494	0.29
677.819	0.28
678.143	0.28
678.468	0.28
678.792	0.28
679.116	0.27
679.44	0.27
679.765	0.27
680.089	0.26
680.413	0.26
680.737	0.26
681.061	0.25
681.385	0.25
681.709	0.25
682.033	0.24
682.356	0.24
682.68	0.24
683.004	0.25
683.327	0.24
683.651	0.23
683.974	0.23
684.298	0.23
684.621	0.23
684.944	0.23
685.268	0.22
685.591	0.22
685.914	0.22
686.237	0.22
686.56	0.21
686.883	0.21
687.206	0.21
687.529	0.2
687.852	0.2
688.175	0.2
688.497	0.2
688.82	0.2
689.142	0.19
689.465	0.19
689.787	0.19
690.11	0.18
690.432	0.18
690.755	0.18
691.077	0.18
691.399	0.18
691.721	0.18
692.043	0.18
692.365	0.18
692.687	0.17
693.009	0.17
693.331	0.17
693.653	0.16
693.974	0.17
694.296	0.16
694.618	0.16
694.939	0.16
695.261	0.16
695.582	0.15
695.904	0.15
696.225	0.15
696.546	0.15
696.868	0.15
697.189	0.15
697.51	0.14
697.831	0.14
698.152	0.15
698.473	0.14
698.794	0.14
699.114	0.13
699.435	0.12
699.756	0.13
700.077	0.13
700.397	0.13
700.718	0.13
701.038	0.13
701.359	0.13
701.679	0.13
701.999	0.13
702.32	0.13
702.64	0.13
702.96	0.12
703.28	0.12
703.6	0.13
703.92	0.12
704.24	0.12
704.56	0.12
704.879	0.12
705.199	0.12
705.519	0.12
705.838	0.12
706.158	0.12
706.478	0.12
706.797	0.12
707.116	0.12
707.436	0.12
707.755	0.12
708.074	0.12
708.393	0.11
708.712	0.11
709.031	0.1
709.35	0.1
709.669	0.1
709.988	0.1
710.307	0.1
710.626	0.1
710.944	0.11
711.263	0.11
711.582	0.11
711.9	0.11
712.219	0.11
712.537	0.11
712.855	0.11
713.174	0.11
713.492	0.11
713.81	0.11
714.128	0.11
714.446	0.11
714.764	0.11
715.082	0.1
715.4	0.11
715.718	0.11
716.035	0.11
716.353	0.11
716.671	0.11
716.988	0.11
717.306	0.11
717.623	0.11
717.941	0.12
718.258	0.12
718.575	0.12
718.893	0.12
719.21	0.12
719.527	0.11
719.844	0.12
720.161	0.11
720.478	0.12
720.795	0.12
721.112	0.12
721.428	0.12
721.745	0.12
722.062	0.12
722.378	0.12
722.695	0.12
723.011	0.12
723.328	0.12
723.644	0.12
723.96	0.12
724.276	0.12
724.593	0.12
724.909	0.12
725.225	0.12
725.541	0.12
725.857	0.12
726.173	0.12
726.488	0.12
726.804	0.12
727.12	0.12
727.435	0.12
727.751	0.12
728.067	0.12
728.382	0.12
728.697	0.12
729.013	0.12
729.328	0.12
729.643	0.12
729.958	0.12
730.273	0.12
730.588	0.12
730.903	0.12
731.218	0.12
731.533	0.12
731.848	0.12
732.163	0.12
732.477	0.12
732.792	0.11
733.107	0.11
733.421	0.12
733.736	0.11
734.05	0.11
734.364	0.11
734.678	0.12
734.993	0.11
735.307	0.12
735.621	0.11
735.935	0.11
736.249	0.11
736.563	0.11
736.877	0.11
737.19	0.11
737.504	0.11
737.818	0.11
738.131	0.11
738.445	0.11
738.758	0.11
739.072	0.11
739.385	0.11
739.698	0.11
740.012	0.11
740.325	0.11
740.638	0.1
740.951	0.11
741.264	0.1
741.577	0.11
741.89	0.1
742.203	0.11
742.515	0.11
742.828	0.11
743.141	0.11
743.453	0.1
743.766	0.1
744.078	0.1
744.391	0.1
744.703	0.1
745.015	0.1
745.327	0.1
745.639	0.1
745.952	0.09
746.264	0.09
746.575	0.09
746.887	0.09
747.199	0.09
747.511	0.09
747.823	0.09
748.134	0.09
748.446	0.09
748.757	0.09
749.069	0.08
749.38	0.08
749.692	0.08
750.003	0.08
750.314	0.08
750.625	0.08
750.936	0.09
751.248	0.08
751.559	0.08
751.869	0.09
752.18	0.08
752.491	0.08
752.802	0.08
753.112	0.08
753.423	0.08
753.734	0.08
754.044	0.08
754.355	0.08
754.665	0.08
754.975	0.07
755.285	0.07
755.596	0.07
755.906	0.07
756.216	0.07
756.526	0.07
756.836	0.07
757.146	0.07
757.455	0.07
757.765	0.07
758.075	0.06
758.385	0.06
758.694	0.06
759.004	0.06
759.313	0.06
759.622	0.06
759.932	0.06
760.241	0.07
760.55	0.06
760.859	0.07
761.168	0.07
761.477	0.06
761.786	0.06
762.095	0.06
762.404	0.06
762.713	0.06
763.021	0.06
763.33	0.07
763.639	0.06
763.947	0.06
764.256	0.06
764.564	0.07
764.872	0.06
765.181	0.06
765.489	0.06
765.797	0.06
766.105	0.06
766.413	0.06
766.721	0.06
767.029	0.06
767.337	0.06
767.644	0.06
767.952	0.06
768.26	0.06
768.567	0.06
768.875	0.06
769.182	0.06
769.49	0.06
769.797	0.06
770.104	0.06
770.411	0.06
770.718	0.06
771.026	0.06
771.333	0.06
771.639	0.07
771.946	0.06
772.253	0.06
772.56	0.06
772.867	0.06
773.173	0.06
773.48	0.06
773.786	0.06
774.093	0.06
774.399	0.06
774.705	0.06
775.012	0.06
775.318	0.06
775.624	0.06
775.93	0.06
776.236	0.06
776.542	0.06
776.848	0.06
777.154	0.06
777.459	0.06
777.765	0.06
778.071	0.06
778.376	0.06
778.682	0.06
778.987	0.06
779.292	0.06
779.598	0.06
779.903	0.06
780.208	0.07
780.513	0.06
780.818	0.06
781.123	0.06
781.428	0.06
781.733	0.06
782.038	0.06
782.343	0.06
782.647	0.06
782.952	0.06
783.256	0.06
783.561	0.06
783.865	0.07
784.17	0.07
784.474	0.07
784.778	0.07
785.082	0.07
785.386	0.07
785.69	0.07
785.994	0.07
786.298	0.07
786.602	0.07
786.906	0.07
787.209	0.07
787.513	0.07
787.817	0.07
788.12	0.07
788.424	0.07
788.727	0.07
789.03	0.07
789.333	0.07
789.637	0.07
789.94	0.07
790.243	0.07
790.546	0.08
790.849	0.08
791.152	0.08
791.454	0.08
791.757	0.07
792.06	0.08
792.362	0.08
792.665	0.08
792.967	0.08
793.27	0.08
793.572	0.08
793.874	0.08
794.177	0.08
794.479	0.08
794.781	0.08
795.083	0.08
795.385	0.08
795.687	0.08
795.989	0.07
796.29	0.08
796.592	0.08
796.894	0.08
797.195	0.08
797.497	0.09
797.798	0.09
798.1	0.09
798.401	0.09
798.702	0.08
799.003	0.08
799.304	0.08
799.605	0.08
799.906	0.08
800.207	0.08
800.508	0.08
800.809	0.08
801.11	0.08
801.41	0.08
801.711	0.09
802.011	0.09
802.312	0.08
802.612	0.09
802.913	0.09
803.213	0.09
803.513	0.08
803.813	0.08
804.113	0.08
804.413	0.08
804.713	0.08
805.013	0.08
805.313	0.08
805.613	0.09
805.912	0.09
806.212	0.08
806.511	0.09
806.811	0.09
807.11	0.09
807.41	0.09
807.709	0.09
808.008	0.09
808.307	0.09
808.606	0.09
808.905	0.09
809.204	0.1
809.503	0.1
809.802	0.1
810.101	0.1
810.399	0.09
810.698	0.1
810.997	0.1
811.295	0.09
811.593	0.09
811.892	0.09
812.19	0.09
812.488	0.09
812.786	0.09
813.084	0.09
813.383	0.09
813.68	0.09
813.978	0.09
814.276	0.1
814.574	0.1
814.872	0.1
815.169	0.1
815.467	0.1
815.764	0.1
816.062	0.11
816.359	0.1
816.656	0.11
816.954	0.11
817.251	0.11
817.548	0.11
817.845	0.11
818.142	0.11
818.439	0.11
818.735	0.11
819.032	0.1
819.329	0.1
819.626	0.11
819.922	0.11
820.219	0.11
820.515	0.11
820.811	0.11
821.108	0.11
821.404	0.12
821.7	0.11
821.996	0.12
822.292	0.11
822.588	0.12
822.884	0.12
823.18	0.12
823.475	0.12
823.771	0.12
824.067	0.12
824.362	0.12
824.658	0.11
824.953	0.11
825.249	0.11
825.544	0.12
825.839	0.12
826.134	0.12
826.429	0.12
826.724	0.12
827.019	0.12
827.314	0.12
827.609	0.12
827.904	0.13
828.198	0.12
828.493	0.12
828.787	0.12
829.082	0.12
829.376	0.12
829.671	0.13
829.965	0.12
830.259	0.13
830.553	0.13
830.847	0.13
831.141	0.13
831.435	0.13
831.729	0.13
832.023	0.13
832.317	0.14
832.61	0.13
832.904	0.13
833.197	0.13
833.491	0.14
833.784	0.13
834.077	0.13
834.371	0.13
834.664	0.13
834.957	0.14
835.25	0.13
835.543	0.12
835.836	0.13
836.129	0.12
836.421	0.13
836.714	0.13
837.007	0.13
837.299	0.14
837.592	0.14
837.884	0.14
838.177	0.14
838.469	0.13
838.761	0.13
839.053	0.13
839.345	0.14
839.637	0.13
839.929	0.14
840.221	0.14
840.513	0.14
840.805	0.14
841.096	0.13
841.388	0.14
841.68	0.14
841.971	0.13
842.262	0.14
842.554	0.14
842.845	0.14
843.136	0.14
843.427	0.15
843.718	0.14
844.009	0.15
844.3	0.15
844.591	0.15
844.882	0.15
845.173	0.14
845.463	0.14
845.754	0.15
846.044	0.15
846.335	0.15
846.625	0.16
846.915	0.16
847.206	0.16
847.496	0.17
847.786	0.15
848.076	0.15
848.366	0.15
848.656	0.15
848.945	0.15
849.235	0.16
849.525	0.16
849.814	0.16
850.104	0.16
850.393	0.16
850.683	0.15
850.972	0.15
851.261	0.16
851.551	0.17
851.84	0.16
852.129	0.15
852.418	0.17
852.707	0.16
852.995	0.16
853.284	0.17
853.573	0.16
853.862	0.16
854.15	0.16
854.439	0.16
854.727	0.17
855.015	0.16
855.304	0.16
855.592	0.17
855.88	0.17
856.168	0.17
856.456	0.17
856.744	0.17
857.032	0.19
857.32	0.17
857.607	0.18
857.895	0.18
858.183	0.17
858.47	0.16
858.757	0.18
859.045	0.16
859.332	0.19
859.619	0.16
859.907	0.17
860.194	0.18
860.481	0.18
860.768	0.18
861.054	0.17
861.341	0.17
861.628	0.17
861.915	0.18
862.201	0.19
862.488	0.2
862.774	0.18
863.061	0.18
863.347	0.17
863.633	0.17
863.919	0.18
864.205	0.16
864.491	0.17
864.777	0.17
865.063	0.18
865.349	0.2
865.635	0.2
865.92	0.16
866.206	0.2
866.492	0.21
866.777	0.16
867.062	0.16
867.348	0.17
867.633	0.17
867.918	0.19
868.203	0.19
868.488	0.18
868.773	0.18
869.058	0.19
869.343	0.21
869.628	0.17
869.912	0.18
870.197	0.17
870.482	0.19
870.766	0.2
871.05	0.16
871.335	0.21
871.619	0.16
871.903	0.15
872.187	0.19
872.471	0.18
872.755	0.16
873.039	0.17
873.323	0.23
873.607	0.16
873.89	0.2
874.174	0.2
874.458	0.23
874.741	0.25
875.024	0.14
875.308	0.17
875.591	0.21
875.874	0.16
876.157	0.19
876.44	0.21
876.723	0.22
877.006	0.14
877.289	0.17
877.572	0.21
877.854	0.23
878.137	0.12
878.42	0.16
878.702	0.22
878.984	0.22
879.267	0.21
879.549	0.2
879.831	0.21
880.113	0.19
880.395	0.27
880.677	0.17
880.959	0.16
