Data from Rubpy_BV_1500_EDTA_Buffered_Absorbance_14-30-34-670.txt Node
Date: Wed Jul 01 14:30:34 BST 2026
User: fpm-admin
Spectrometer: OFX00224
Trigger mode: 0
Integration Time (sec): 7.000000E-2
Scans to average: 3
Nonlinearity correction enabled: false
Boxcar width: 0
Storing dark spectrum: false
XAxis mode: Wavelengths
Number of Pixels in Spectrum: 2136
>>>>>Begin Spectral Data<<<<<
154.91	-0
155.289	0.54
155.669	-0.6
156.048	1.11
156.428	-0
156.807	0.15
157.186	-0.53
157.566	-0.02
157.945	-0
158.325	-0
158.704	-0
159.083	-0
159.462	0.9
159.842	0.01
160.221	1.04
160.6	-1.26
160.979	0.21
161.359	0.19
161.738	-0
162.117	0.08
162.496	-0.36
162.875	-0
163.254	0.14
163.633	0.88
164.012	-0
164.391	-0
164.77	0.28
165.149	0.43
165.528	-0
165.907	-0.39
166.286	-0
166.665	0.19
167.044	-0
167.423	0.22
167.802	-0
168.181	-0.09
168.559	-0.1
168.938	-0.01
169.317	-0
169.696	-0
170.074	0.06
170.453	-0.2
170.832	-0
171.21	-0
171.589	-0
171.968	-0.51
172.346	-0
172.725	-0
173.103	-0
173.482	-0.93
173.861	-0.09
174.239	-0
174.617	0.95
174.996	0.02
175.374	0.08
175.753	-0.66
176.131	-0
176.51	0.07
176.888	-0
177.266	-0
177.645	0.04
178.023	-0
178.401	-0.07
178.779	-0.01
179.158	0.2
179.536	0.3
179.914	0.49
180.292	0.81
180.67	-0
181.048	-0
181.427	-0
181.805	-0.3
182.183	-0.54
182.561	-0
182.939	-0
183.317	-0
183.695	-0
184.073	1.28
184.451	-0
184.829	-0
185.206	-0
185.584	-0.37
185.962	-0
186.34	-0
186.718	-0.4
187.096	0.78
187.473	0.02
187.851	-0
188.229	-0
188.607	0.22
188.984	0.34
189.362	0.23
189.74	0.32
190.117	0.18
190.495	0.25
190.872	0.22
191.25	0.28
191.627	0.19
192.005	0.23
192.382	0.33
192.76	0.29
193.137	0.38
193.515	0.2
193.892	0.32
194.269	0.28
194.647	0.46
195.024	0.34
195.401	0.32
195.779	0.26
196.156	0.24
196.533	0.39
196.91	0.36
197.288	0.41
197.665	0.32
198.042	0.19
198.419	0.42
198.796	0.39
199.173	0.18
199.55	0.15
199.927	0.28
200.304	0.28
200.681	0.28
201.058	0.29
201.435	0.27
201.812	0.3
202.189	0.16
202.566	0.27
202.943	0.4
203.32	0.2
203.697	0.28
204.073	0.19
204.45	0.15
204.827	0.4
205.204	0.19
205.58	0.26
205.957	0.34
206.334	0.34
206.71	0.17
207.087	0.29
207.464	0.19
207.84	0.23
208.217	0.48
208.593	0.41
208.97	0.38
209.346	0.32
209.723	0.23
210.099	0.32
210.476	0.37
210.852	0.51
211.228	0.28
211.605	0.37
211.981	0.36
212.357	0.35
212.733	0.3
213.11	0.23
213.486	0.2
213.862	0.47
214.238	0.52
214.614	0.22
214.991	0.34
215.367	0.21
215.743	0.22
216.119	0.24
216.495	0.25
216.871	0.32
217.247	0.22
217.623	0.17
217.999	0.32
218.375	0.36
218.751	0.36
219.127	0.31
219.502	0.34
219.878	0.32
220.254	0.29
220.63	0.41
221.006	0.29
221.381	0.31
221.757	0.37
222.133	0.3
222.508	0.3
222.884	0.51
223.26	0.16
223.635	0.25
224.011	0.47
224.386	0.46
224.762	0.41
225.137	0.21
225.513	0.31
225.888	0.38
226.264	0.35
226.639	0.37
227.014	0.27
227.39	0.23
227.765	0.32
228.14	0.36
228.516	0.32
228.891	0.4
229.266	0.36
229.641	0.42
230.017	0.36
230.392	0.39
230.767	0.45
231.142	0.32
231.517	0.25
231.892	0.39
232.267	0.37
232.642	0.33
233.017	0.27
233.392	0.3
233.767	0.26
234.142	0.3
234.517	0.52
234.892	0.39
235.267	0.31
235.641	0.17
236.016	0.31
236.391	0.37
236.766	0.54
237.14	0.4
237.515	0.29
237.89	0.32
238.264	0.39
238.639	0.34
239.014	0.28
239.388	0.3
239.763	0.33
240.137	0.31
240.512	0.32
240.886	0.39
241.261	0.33
241.635	0.28
242.009	0.39
242.384	0.34
242.758	0.24
243.132	0.23
243.507	0.32
243.881	0.29
244.255	0.27
244.629	0.29
245.004	0.21
245.378	0.33
245.752	0.39
246.126	0.29
246.5	0.26
246.874	0.16
247.248	0.39
247.622	0.17
247.996	0.26
248.37	0.29
248.744	0.27
249.118	0.43
249.492	0.26
249.866	0.35
250.24	0.32
250.613	0.24
250.987	0.35
251.361	0.3
251.735	0.41
252.108	0.35
252.482	0.19
252.856	0.3
253.229	0.47
253.603	0.38
253.977	0.39
254.35	0.37
254.724	0.37
255.097	0.38
255.471	0.33
255.844	0.27
256.218	0.25
256.591	0.51
256.964	0.22
257.338	0.36
257.711	0.32
258.084	0.35
258.458	0.24
258.831	0.34
259.204	0.33
259.577	0.38
259.95	0.35
260.323	0.37
260.697	0.31
261.07	0.29
261.443	0.39
261.816	0.33
262.189	0.3
262.562	0.28
262.935	0.33
263.308	0.35
263.68	0.3
264.053	0.37
264.426	0.24
264.799	0.31
265.172	0.42
265.545	0.43
265.917	0.4
266.29	0.29
266.663	0.28
267.035	0.3
267.408	0.32
267.781	0.34
268.153	0.33
268.526	0.34
268.898	0.2
269.271	0.46
269.643	0.33
270.016	0.27
270.388	0.26
270.76	0.28
271.133	0.27
271.505	0.38
271.877	0.29
272.25	0.57
272.622	0.47
272.994	0.32
273.366	0.29
273.739	0.4
274.111	0.34
274.483	0.32
274.855	0.34
275.227	0.35
275.599	0.25
275.971	0.23
276.343	0.32
276.715	0.28
277.087	0.45
277.459	0.37
277.831	0.27
278.203	0.34
278.574	0.29
278.946	0.27
279.318	0.28
279.69	0.32
280.061	0.29
280.433	0.3
280.805	0.26
281.176	0.34
281.548	0.35
281.92	0.39
282.291	0.39
282.663	0.35
283.034	0.28
283.406	0.28
283.777	0.34
284.148	0.34
284.52	0.36
284.891	0.32
285.262	0.38
285.634	0.29
286.005	0.33
286.376	0.42
286.747	0.31
287.119	0.42
287.49	0.37
287.861	0.36
288.232	0.36
288.603	0.27
288.974	0.36
289.345	0.42
289.716	0.31
290.087	0.47
290.458	0.41
290.829	0.48
291.2	0.33
291.571	0.38
291.941	0.31
292.312	0.31
292.683	0.37
293.054	0.36
293.424	0.37
293.795	0.28
294.166	0.28
294.536	0.33
294.907	0.39
295.277	0.41
295.648	0.42
296.018	0.41
296.389	0.3
296.759	0.25
297.13	0.39
297.5	0.31
297.871	0.43
298.241	0.35
298.611	0.42
298.981	0.42
299.352	0.37
299.722	0.34
300.092	0.35
300.462	0.3
300.832	0.37
301.202	0.35
301.573	0.35
301.943	0.24
302.313	0.36
302.683	0.34
303.053	0.37
303.422	0.38
303.792	0.31
304.162	0.29
304.532	0.36
304.902	0.3
305.272	0.28
305.641	0.31
306.011	0.27
306.381	0.3
306.75	0.29
307.12	0.25
307.49	0.29
307.859	0.27
308.229	0.27
308.598	0.28
308.968	0.23
309.337	0.26
309.707	0.26
310.076	0.26
310.445	0.24
310.815	0.29
311.184	0.23
311.553	0.28
311.923	0.28
312.292	0.27
312.661	0.28
313.03	0.29
313.399	0.27
313.768	0.28
314.137	0.27
314.506	0.28
314.875	0.3
315.244	0.29
315.613	0.3
315.982	0.32
316.351	0.3
316.72	0.33
317.089	0.3
317.458	0.32
317.826	0.32
318.195	0.32
318.564	0.33
318.933	0.36
319.301	0.33
319.67	0.36
320.038	0.34
320.407	0.36
320.775	0.36
321.144	0.36
321.512	0.38
321.881	0.39
322.249	0.38
322.618	0.38
322.986	0.4
323.354	0.39
323.723	0.41
324.091	0.4
324.459	0.41
324.827	0.41
325.195	0.43
325.564	0.42
325.932	0.44
326.3	0.44
326.668	0.45
327.036	0.46
327.404	0.48
327.772	0.47
328.14	0.47
328.508	0.49
328.875	0.48
329.243	0.5
329.611	0.5
329.979	0.52
330.346	0.52
330.714	0.54
331.082	0.54
331.449	0.55
331.817	0.56
332.185	0.57
332.552	0.58
332.92	0.59
333.287	0.6
333.655	0.61
334.022	0.62
334.389	0.63
334.757	0.64
335.124	0.64
335.491	0.67
335.859	0.68
336.226	0.7
336.593	0.71
336.96	0.72
337.327	0.73
337.695	0.76
338.062	0.77
338.429	0.77
338.796	0.79
339.163	0.81
339.53	0.81
339.897	0.84
340.263	0.84
340.63	0.86
340.997	0.87
341.364	0.88
341.731	0.91
342.097	0.92
342.464	0.94
342.831	0.95
343.197	0.95
343.564	0.98
343.931	0.99
344.297	1
344.664	1.02
345.03	1.04
345.396	1.05
345.763	1.06
346.129	1.09
346.496	1.1
346.862	1.11
347.228	1.13
347.594	1.15
347.961	1.16
348.327	1.18
348.693	1.18
349.059	1.2
349.425	1.21
349.791	1.23
350.157	1.23
350.523	1.26
350.889	1.26
351.255	1.28
351.621	1.29
351.987	1.32
352.353	1.31
352.719	1.34
353.084	1.36
353.45	1.35
353.816	1.39
354.181	1.37
354.547	1.4
354.913	1.45
355.278	1.45
355.644	1.45
356.009	1.48
356.375	1.5
356.74	1.51
357.106	1.5
357.471	1.53
357.836	1.53
358.202	1.57
358.567	1.6
358.932	1.6
359.297	1.61
359.663	1.66
360.028	1.68
360.393	1.66
360.758	1.7
361.123	1.73
361.488	1.73
361.853	1.72
362.218	1.78
362.583	1.78
362.948	1.77
363.312	1.8
363.677	1.85
364.042	1.85
364.407	1.86
364.772	1.85
365.136	1.9
365.501	1.85
365.865	1.92
366.23	1.89
366.595	1.85
366.959	1.92
367.324	1.94
367.688	1.92
368.052	1.97
368.417	1.91
368.781	1.91
369.145	1.98
369.51	2.01
369.874	1.96
370.238	1.99
370.602	2.01
370.967	1.94
371.331	1.95
371.695	1.98
372.059	1.97
372.423	2
372.787	1.99
373.151	2.02
373.515	1.99
373.878	1.99
374.242	2.03
374.606	1.96
374.97	1.96
375.334	1.92
375.697	1.93
376.061	1.95
376.425	1.91
376.788	1.92
377.152	1.91
377.515	1.92
377.879	1.89
378.242	1.9
378.606	1.82
378.969	1.84
379.333	1.84
379.696	1.79
380.059	1.78
380.422	1.78
380.786	1.76
381.149	1.75
381.512	1.72
381.875	1.73
382.238	1.71
382.601	1.65
382.964	1.66
383.327	1.62
383.69	1.63
384.053	1.61
384.416	1.57
384.779	1.54
385.142	1.56
385.504	1.51
385.867	1.54
386.23	1.52
386.593	1.51
386.955	1.48
387.318	1.47
387.68	1.47
388.043	1.46
388.405	1.46
388.768	1.45
389.13	1.44
389.493	1.45
389.855	1.42
390.217	1.4
390.58	1.4
390.942	1.37
391.304	1.37
391.666	1.34
392.028	1.31
392.391	1.29
392.753	1.28
393.115	1.26
393.477	1.24
393.839	1.24
394.201	1.23
394.563	1.22
394.924	1.22
395.286	1.21
395.648	1.2
396.01	1.2
396.371	1.22
396.733	1.24
397.095	1.23
397.456	1.28
397.818	1.27
398.18	1.31
398.541	1.32
398.903	1.35
399.264	1.37
399.625	1.42
399.987	1.44
400.348	1.43
400.709	1.47
401.071	1.47
401.432	1.47
401.793	1.47
402.154	1.47
402.515	1.45
402.876	1.43
403.238	1.39
403.599	1.36
403.96	1.33
404.32	1.28
404.681	1.24
405.042	1.21
405.403	1.15
405.764	1.1
406.125	1.06
406.485	1.01
406.846	0.96
407.207	0.91
407.567	0.86
407.928	0.81
408.288	0.77
408.649	0.74
409.009	0.69
409.37	0.66
409.73	0.62
410.091	0.59
410.451	0.56
410.811	0.54
411.171	0.51
411.532	0.49
411.892	0.47
412.252	0.44
412.612	0.43
412.972	0.4
413.332	0.39
413.692	0.37
414.052	0.36
414.412	0.35
414.772	0.34
415.132	0.33
415.492	0.31
415.851	0.3
416.211	0.3
416.571	0.28
416.931	0.27
417.29	0.27
417.65	0.27
418.009	0.26
418.369	0.26
418.728	0.25
419.088	0.25
419.447	0.23
419.807	0.23
420.166	0.22
420.525	0.22
420.884	0.21
421.244	0.21
421.603	0.21
421.962	0.2
422.321	0.21
422.68	0.2
423.039	0.18
423.398	0.19
423.757	0.19
424.116	0.19
424.475	0.19
424.834	0.19
425.193	0.17
425.551	0.19
425.91	0.18
426.269	0.17
426.628	0.17
426.986	0.17
427.345	0.18
427.703	0.16
428.062	0.17
428.42	0.17
428.779	0.17
429.137	0.17
429.496	0.16
429.854	0.17
430.212	0.16
430.57	0.16
430.929	0.16
431.287	0.15
431.645	0.15
432.003	0.16
432.361	0.15
432.719	0.16
433.077	0.16
433.435	0.16
433.793	0.16
434.151	0.16
434.509	0.16
434.866	0.16
435.224	0.16
435.582	0.16
435.94	0.17
436.297	0.16
436.655	0.15
437.012	0.16
437.37	0.16
437.727	0.16
438.085	0.16
438.442	0.16
438.8	0.15
439.157	0.16
439.514	0.16
439.872	0.15
440.229	0.17
440.586	0.16
440.943	0.16
441.3	0.17
441.657	0.17
442.014	0.17
442.371	0.17
442.728	0.16
443.085	0.17
443.442	0.17
443.799	0.16
444.156	0.17
444.513	0.17
444.869	0.17
445.226	0.17
445.583	0.18
445.939	0.17
446.296	0.18
446.652	0.18
447.009	0.17
447.365	0.17
447.722	0.18
448.078	0.18
448.434	0.19
448.791	0.19
449.147	0.19
449.503	0.19
449.859	0.18
450.215	0.18
450.571	0.18
450.928	0.19
451.284	0.18
451.64	0.19
451.995	0.19
452.351	0.2
452.707	0.21
453.063	0.19
453.419	0.19
453.775	0.2
454.13	0.2
454.486	0.21
454.842	0.2
455.197	0.2
455.553	0.21
455.908	0.21
456.264	0.22
456.619	0.21
456.975	0.21
457.33	0.22
457.685	0.22
458.04	0.22
458.396	0.22
458.751	0.22
459.106	0.22
459.461	0.23
459.816	0.23
460.171	0.23
460.526	0.22
460.881	0.23
461.236	0.23
461.591	0.24
461.946	0.24
462.301	0.24
462.655	0.24
463.01	0.25
463.365	0.25
463.719	0.24
464.074	0.25
464.428	0.24
464.783	0.25
465.137	0.26
465.492	0.26
465.846	0.25
466.201	0.25
466.555	0.26
466.909	0.26
467.263	0.26
467.618	0.27
467.972	0.27
468.326	0.27
468.68	0.27
469.034	0.28
469.388	0.29
469.742	0.29
470.096	0.29
470.45	0.3
470.804	0.3
471.157	0.29
471.511	0.3
471.865	0.32
472.218	0.31
472.572	0.31
472.926	0.32
473.279	0.31
473.633	0.33
473.986	0.33
474.34	0.34
474.693	0.34
475.046	0.35
475.4	0.35
475.753	0.35
476.106	0.36
476.459	0.36
476.812	0.37
477.165	0.37
477.519	0.38
477.872	0.38
478.224	0.39
478.577	0.39
478.93	0.4
479.283	0.4
479.636	0.4
479.989	0.41
480.341	0.41
480.694	0.41
481.047	0.42
481.399	0.41
481.752	0.43
482.104	0.43
482.457	0.44
482.809	0.44
483.162	0.45
483.514	0.45
483.866	0.45
484.219	0.46
484.571	0.47
484.923	0.47
485.275	0.47
485.627	0.47
485.979	0.48
486.331	0.48
486.683	0.49
487.035	0.49
487.387	0.49
487.739	0.5
488.091	0.51
488.443	0.51
488.794	0.51
489.146	0.51
489.498	0.53
489.849	0.53
490.201	0.53
490.552	0.53
490.904	0.54
491.255	0.54
491.607	0.55
491.958	0.55
492.309	0.56
492.661	0.56
493.012	0.56
493.363	0.57
493.714	0.58
494.065	0.58
494.416	0.58
494.767	0.59
495.118	0.59
495.469	0.6
495.82	0.6
496.171	0.61
496.522	0.6
496.872	0.61
497.223	0.62
497.574	0.63
497.924	0.64
498.275	0.63
498.626	0.64
498.976	0.65
499.327	0.64
499.677	0.65
500.027	0.65
500.378	0.66
500.728	0.66
501.078	0.66
501.428	0.67
501.779	0.68
502.129	0.68
502.479	0.69
502.829	0.69
503.179	0.7
503.529	0.69
503.879	0.7
504.229	0.71
504.578	0.71
504.928	0.72
505.278	0.72
505.628	0.73
505.977	0.73
506.327	0.73
506.676	0.73
507.026	0.74
507.375	0.74
507.725	0.75
508.074	0.75
508.424	0.76
508.773	0.76
509.122	0.76
509.471	0.77
509.82	0.77
510.17	0.78
510.519	0.78
510.868	0.79
511.217	0.79
511.566	0.8
511.915	0.8
512.263	0.8
512.612	0.8
512.961	0.81
513.31	0.81
513.659	0.82
514.007	0.82
514.356	0.82
514.704	0.83
515.053	0.83
515.401	0.84
515.75	0.84
516.098	0.85
516.447	0.85
516.795	0.85
517.143	0.86
517.491	0.85
517.839	0.87
518.188	0.85
518.536	0.86
518.884	0.87
519.232	0.87
519.58	0.88
519.928	0.88
520.275	0.88
520.623	0.89
520.971	0.9
521.319	0.89
521.666	0.89
522.014	0.9
522.362	0.9
522.709	0.9
523.057	0.91
523.404	0.91
523.752	0.9
524.099	0.91
524.446	0.91
524.794	0.92
525.141	0.91
525.488	0.92
525.835	0.92
526.182	0.93
526.529	0.93
526.876	0.93
527.223	0.95
527.57	0.94
527.917	0.94
528.264	0.95
528.611	0.94
528.958	0.95
529.304	0.95
529.651	0.95
529.998	0.96
530.344	0.95
530.691	0.96
531.037	0.96
531.384	0.96
531.73	0.97
532.076	0.96
532.423	0.97
532.769	0.97
533.115	0.97
533.461	0.98
533.807	0.98
534.154	0.98
534.5	0.99
534.846	0.98
535.192	0.98
535.537	0.99
535.883	0.98
536.229	0.99
536.575	0.98
536.921	1
537.266	1
537.612	1
537.957	0.99
538.303	1
538.649	1
538.994	1
539.339	1
539.685	1.01
540.03	1.01
540.375	1.01
540.721	1.01
541.066	1.01
541.411	1.01
541.756	1.01
542.101	1.01
542.446	1.01
542.791	1.01
543.136	1.01
543.481	1.01
543.825	1.02
544.17	1.01
544.515	1.02
544.86	1.01
545.204	1.02
545.549	1.01
545.893	1.02
546.238	1.02
546.582	1.02
546.927	1.02
547.271	1.02
547.615	1.02
547.96	1.02
548.304	1.03
548.648	1.03
548.992	1.03
549.336	1.03
549.68	1.03
550.024	1.03
550.368	1.03
550.712	1.02
551.056	1.03
551.4	1.03
551.743	1.02
552.087	1.03
552.431	1.03
552.774	1.03
553.118	1.02
553.462	1.02
553.805	1.02
554.148	1.02
554.492	1.02
554.835	1.02
555.178	1.02
555.522	1.02
555.865	1.02
556.208	1.02
556.551	1.02
556.894	1.02
557.237	1.02
557.58	1.02
557.923	1.01
558.266	1.01
558.609	1.01
558.952	1.02
559.294	1.01
559.637	1.01
559.98	1.01
560.322	1.01
560.665	1.01
561.007	1
561.35	1.01
561.692	1.01
562.034	1.01
562.377	1
562.719	1
563.061	1
563.403	1
563.745	1
564.088	1.01
564.43	1
564.772	0.99
565.113	1
565.455	0.99
565.797	0.99
566.139	0.99
566.481	0.98
566.822	0.99
567.164	0.99
567.506	0.98
567.847	0.98
568.189	0.98
568.53	0.98
568.872	0.98
569.213	0.98
569.554	0.97
569.895	0.97
570.237	0.97
570.578	0.97
570.919	0.97
571.26	0.96
571.601	0.96
571.942	0.96
572.283	0.96
572.624	0.95
572.965	0.95
573.306	0.95
573.646	0.95
573.987	0.94
574.328	0.94
574.668	0.94
575.009	0.93
575.349	0.93
575.69	0.93
576.03	0.93
576.37	0.92
576.711	0.92
577.051	0.92
577.391	0.92
577.731	0.92
578.072	0.92
578.412	0.92
578.752	0.91
579.092	0.91
579.431	0.9
579.771	0.88
580.111	0.87
580.451	0.88
580.791	0.89
581.13	0.9
581.47	0.9
581.81	0.9
582.149	0.89
582.489	0.89
582.828	0.88
583.167	0.85
583.507	0.82
583.846	0.8
584.185	0.83
584.525	0.85
584.864	0.87
585.203	0.88
585.542	0.88
585.881	0.88
586.22	0.88
586.559	0.87
586.898	0.86
587.236	0.85
587.575	0.84
587.914	0.85
588.252	0.86
588.591	0.87
588.93	0.86
589.268	0.86
589.607	0.86
589.945	0.86
590.283	0.86
590.622	0.87
590.96	0.86
591.298	0.87
591.636	0.86
591.974	0.87
592.313	0.86
592.651	0.86
592.989	0.87
593.326	0.86
593.664	0.86
594.002	0.87
594.34	0.86
594.678	0.85
595.015	0.85
595.353	0.84
595.691	0.85
596.028	0.85
596.366	0.85
596.703	0.86
597.04	0.85
597.378	0.85
597.715	0.86
598.052	0.86
598.389	0.86
598.726	0.86
599.064	0.85
599.401	0.85
599.738	0.85
600.074	0.84
600.411	0.85
600.748	0.84
601.085	0.84
601.422	0.83
601.758	0.83
602.095	0.83
602.432	0.83
602.768	0.83
603.105	0.83
603.441	0.83
603.777	0.83
604.114	0.83
604.45	0.83
604.786	0.83
605.122	0.83
605.459	0.81
605.795	0.82
606.131	0.81
606.467	0.81
606.803	0.81
607.139	0.82
607.474	0.81
607.81	0.81
608.146	0.81
608.482	0.81
608.817	0.8
609.153	0.79
609.488	0.79
609.824	0.79
610.159	0.79
610.495	0.79
610.83	0.79
611.165	0.79
611.5	0.78
611.836	0.78
612.171	0.78
612.506	0.78
612.841	0.78
613.176	0.77
613.511	0.77
613.845	0.77
614.18	0.77
614.515	0.77
614.85	0.76
615.184	0.76
615.519	0.76
615.854	0.75
616.188	0.75
616.523	0.74
616.857	0.74
617.191	0.74
617.526	0.74
617.86	0.73
618.194	0.74
618.528	0.74
618.862	0.74
619.196	0.73
619.53	0.73
619.864	0.72
620.198	0.72
620.532	0.72
620.866	0.72
621.2	0.71
621.533	0.71
621.867	0.71
622.201	0.7
622.534	0.7
622.868	0.71
623.201	0.7
623.534	0.69
623.868	0.69
624.201	0.69
624.534	0.69
624.868	0.69
625.201	0.68
625.534	0.68
625.867	0.67
626.2	0.67
626.533	0.67
626.865	0.67
627.198	0.67
627.531	0.66
627.864	0.65
628.196	0.65
628.529	0.65
628.862	0.64
629.194	0.64
629.527	0.64
629.859	0.63
630.191	0.63
630.524	0.63
630.856	0.62
631.188	0.62
631.52	0.62
631.852	0.62
632.184	0.61
632.516	0.6
632.848	0.61
633.18	0.6
633.512	0.6
633.844	0.59
634.175	0.59
634.507	0.59
634.839	0.59
635.17	0.58
635.502	0.58
635.833	0.57
636.165	0.57
636.496	0.56
636.827	0.56
637.159	0.55
637.49	0.55
637.821	0.54
638.152	0.54
638.483	0.54
638.814	0.54
639.145	0.54
639.476	0.53
639.807	0.53
640.137	0.52
640.468	0.52
640.799	0.52
641.129	0.51
641.46	0.51
641.791	0.51
642.121	0.5
642.451	0.5
642.782	0.5
643.112	0.49
643.442	0.49
643.773	0.49
644.103	0.49
644.433	0.48
644.763	0.48
645.093	0.48
645.423	0.48
645.753	0.48
646.082	0.47
646.412	0.47
646.742	0.46
647.072	0.46
647.401	0.46
647.731	0.45
648.06	0.45
648.39	0.45
648.719	0.45
649.048	0.45
649.378	0.45
649.707	0.44
650.036	0.44
650.365	0.44
650.694	0.44
651.023	0.44
651.352	0.43
651.681	0.43
652.01	0.43
652.339	0.43
652.668	0.43
652.996	0.43
653.325	0.43
653.654	0.43
653.982	0.43
654.311	0.42
654.639	0.42
654.967	0.42
655.296	0.42
655.624	0.42
655.952	0.42
656.28	0.41
656.609	0.41
656.937	0.41
657.265	0.4
657.593	0.28
657.92	0.18
658.248	0.14
658.576	0.16
658.904	0.26
659.231	0.35
659.559	0.39
659.887	0.39
660.214	0.39
660.542	0.39
660.869	0.39
661.196	0.39
661.524	0.38
661.851	0.38
662.178	0.38
662.505	0.38
662.832	0.37
663.159	0.38
663.486	0.38
663.813	0.37
664.14	0.37
664.467	0.37
664.794	0.37
665.12	0.37
665.447	0.37
665.774	0.37
666.1	0.36
666.427	0.36
666.753	0.36
667.079	0.36
667.406	0.36
667.732	0.36
668.058	0.35
668.384	0.35
668.71	0.35
669.036	0.34
669.362	0.35
669.688	0.34
670.014	0.34
670.34	0.34
670.666	0.34
670.991	0.33
671.317	0.33
671.643	0.33
671.968	0.33
672.294	0.33
672.619	0.32
672.945	0.32
673.27	0.32
673.595	0.32
673.92	0.31
674.246	0.31
674.571	0.31
674.896	0.31
675.221	0.31
675.546	0.3
675.87	0.3
676.195	0.3
676.52	0.3
676.845	0.29
677.169	0.29
677.494	0.29
677.819	0.29
678.143	0.28
678.468	0.28
678.792	0.28
679.116	0.28
679.44	0.27
679.765	0.27
680.089	0.26
680.413	0.26
680.737	0.26
681.061	0.26
681.385	0.26
681.709	0.25
682.033	0.25
682.356	0.25
682.68	0.25
683.004	0.25
683.327	0.24
683.651	0.24
683.974	0.24
684.298	0.23
684.621	0.23
684.944	0.23
685.268	0.23
685.591	0.22
685.914	0.22
686.237	0.22
686.56	0.22
686.883	0.21
687.206	0.21
687.529	0.2
687.852	0.2
688.175	0.2
688.497	0.2
688.82	0.2
689.142	0.2
689.465	0.19
689.787	0.19
690.11	0.19
690.432	0.19
690.755	0.18
691.077	0.18
691.399	0.18
691.721	0.18
692.043	0.18
692.365	0.18
692.687	0.17
693.009	0.17
693.331	0.17
693.653	0.17
693.974	0.17
694.296	0.16
694.618	0.16
694.939	0.16
695.261	0.16
695.582	0.15
695.904	0.15
696.225	0.15
696.546	0.15
696.868	0.15
697.189	0.15
697.51	0.15
697.831	0.15
698.152	0.15
698.473	0.14
698.794	0.14
699.114	0.13
699.435	0.12
699.756	0.13
700.077	0.14
700.397	0.14
700.718	0.13
701.038	0.13
701.359	0.13
701.679	0.13
701.999	0.13
702.32	0.13
702.64	0.13
702.96	0.13
703.28	0.13
703.6	0.13
703.92	0.12
704.24	0.12
704.56	0.12
704.879	0.12
705.199	0.12
705.519	0.12
705.838	0.12
706.158	0.12
706.478	0.12
706.797	0.13
707.116	0.12
707.436	0.12
707.755	0.12
708.074	0.12
708.393	0.12
708.712	0.11
709.031	0.1
709.35	0.1
709.669	0.1
709.988	0.1
710.307	0.1
710.626	0.11
710.944	0.11
711.263	0.11
711.582	0.11
711.9	0.12
712.219	0.11
712.537	0.11
712.855	0.11
713.174	0.11
713.492	0.11
713.81	0.12
714.128	0.11
714.446	0.11
714.764	0.11
715.082	0.11
715.4	0.11
715.718	0.11
716.035	0.11
716.353	0.11
716.671	0.11
716.988	0.11
717.306	0.11
717.623	0.11
717.941	0.12
718.258	0.12
718.575	0.12
718.893	0.12
719.21	0.12
719.527	0.12
719.844	0.11
720.161	0.11
720.478	0.12
720.795	0.12
721.112	0.12
721.428	0.12
721.745	0.12
722.062	0.12
722.378	0.12
722.695	0.12
723.011	0.12
723.328	0.12
723.644	0.12
723.96	0.12
724.276	0.12
724.593	0.12
724.909	0.12
725.225	0.12
725.541	0.13
725.857	0.12
726.173	0.12
726.488	0.12
726.804	0.12
727.12	0.12
727.435	0.12
727.751	0.12
728.067	0.12
728.382	0.12
728.697	0.12
729.013	0.12
729.328	0.12
729.643	0.12
729.958	0.12
730.273	0.12
730.588	0.12
730.903	0.12
731.218	0.12
731.533	0.12
731.848	0.12
732.163	0.12
732.477	0.12
732.792	0.11
733.107	0.11
733.421	0.11
733.736	0.11
734.05	0.12
734.364	0.11
734.678	0.12
734.993	0.11
735.307	0.12
735.621	0.11
735.935	0.11
736.249	0.11
736.563	0.11
736.877	0.11
737.19	0.11
737.504	0.11
737.818	0.11
738.131	0.11
738.445	0.11
738.758	0.11
739.072	0.11
739.385	0.11
739.698	0.11
740.012	0.11
740.325	0.11
740.638	0.11
740.951	0.11
741.264	0.1
741.577	0.11
741.89	0.11
742.203	0.11
742.515	0.11
742.828	0.11
743.141	0.11
743.453	0.1
743.766	0.1
744.078	0.1
744.391	0.1
744.703	0.1
745.015	0.1
745.327	0.1
745.639	0.1
745.952	0.1
746.264	0.09
746.575	0.09
746.887	0.09
747.199	0.09
747.511	0.09
747.823	0.09
748.134	0.09
748.446	0.09
748.757	0.09
749.069	0.08
749.38	0.08
749.692	0.08
750.003	0.08
750.314	0.09
750.625	0.09
750.936	0.09
751.248	0.09
751.559	0.09
751.869	0.08
752.18	0.09
752.491	0.08
752.802	0.08
753.112	0.08
753.423	0.08
753.734	0.08
754.044	0.08
754.355	0.08
754.665	0.08
754.975	0.07
755.285	0.07
755.596	0.07
755.906	0.07
756.216	0.07
756.526	0.07
756.836	0.07
757.146	0.07
757.455	0.07
757.765	0.07
758.075	0.07
758.385	0.07
758.694	0.07
759.004	0.06
759.313	0.06
759.622	0.06
759.932	0.07
760.241	0.07
760.55	0.07
760.859	0.07
761.168	0.07
761.477	0.06
761.786	0.06
762.095	0.06
762.404	0.06
762.713	0.06
763.021	0.06
763.33	0.06
763.639	0.07
763.947	0.06
764.256	0.06
764.564	0.07
764.872	0.06
765.181	0.06
765.489	0.06
765.797	0.06
766.105	0.06
766.413	0.06
766.721	0.06
767.029	0.06
767.337	0.06
767.644	0.06
767.952	0.07
768.26	0.06
768.567	0.06
768.875	0.06
769.182	0.06
769.49	0.06
769.797	0.06
770.104	0.06
770.411	0.06
770.718	0.06
771.026	0.06
771.333	0.06
771.639	0.07
771.946	0.06
772.253	0.06
772.56	0.06
772.867	0.06
773.173	0.06
773.48	0.06
773.786	0.06
774.093	0.06
774.399	0.06
774.705	0.06
775.012	0.06
775.318	0.06
775.624	0.06
775.93	0.06
776.236	0.06
776.542	0.06
776.848	0.06
777.154	0.06
777.459	0.06
777.765	0.06
778.071	0.06
778.376	0.06
778.682	0.06
778.987	0.06
779.292	0.06
779.598	0.06
779.903	0.06
780.208	0.06
780.513	0.06
780.818	0.06
781.123	0.06
781.428	0.06
781.733	0.06
782.038	0.06
782.343	0.06
782.647	0.06
782.952	0.06
783.256	0.06
783.561	0.06
783.865	0.06
784.17	0.07
784.474	0.07
784.778	0.07
785.082	0.07
785.386	0.07
785.69	0.07
785.994	0.07
786.298	0.07
786.602	0.07
786.906	0.07
787.209	0.07
787.513	0.07
787.817	0.08
788.12	0.08
788.424	0.08
788.727	0.07
789.03	0.07
789.333	0.07
789.637	0.07
789.94	0.07
790.243	0.07
790.546	0.08
790.849	0.08
791.152	0.07
791.454	0.08
791.757	0.08
792.06	0.08
792.362	0.08
792.665	0.08
792.967	0.08
793.27	0.08
793.572	0.08
793.874	0.08
794.177	0.08
794.479	0.08
794.781	0.08
795.083	0.07
795.385	0.08
795.687	0.07
795.989	0.07
796.29	0.08
796.592	0.08
796.894	0.08
797.195	0.08
797.497	0.08
797.798	0.09
798.1	0.09
798.401	0.08
798.702	0.08
799.003	0.08
799.304	0.08
799.605	0.08
799.906	0.08
800.207	0.08
800.508	0.09
800.809	0.08
801.11	0.08
801.41	0.08
801.711	0.08
802.011	0.08
802.312	0.09
802.612	0.09
802.913	0.09
803.213	0.09
803.513	0.09
803.813	0.09
804.113	0.08
804.413	0.08
804.713	0.08
805.013	0.08
805.313	0.08
805.613	0.09
805.912	0.09
806.212	0.09
806.511	0.09
806.811	0.09
807.11	0.09
807.41	0.09
807.709	0.1
808.008	0.1
808.307	0.1
808.606	0.1
808.905	0.1
809.204	0.1
809.503	0.1
809.802	0.1
810.101	0.09
810.399	0.1
810.698	0.1
810.997	0.1
811.295	0.09
811.593	0.09
811.892	0.1
812.19	0.09
812.488	0.09
812.786	0.09
813.084	0.09
813.383	0.09
813.68	0.09
813.978	0.09
814.276	0.1
814.574	0.1
814.872	0.1
815.169	0.11
815.467	0.11
815.764	0.1
816.062	0.1
816.359	0.11
816.656	0.12
816.954	0.11
817.251	0.11
817.548	0.11
817.845	0.11
818.142	0.12
818.439	0.11
818.735	0.11
819.032	0.11
819.329	0.11
819.626	0.11
819.922	0.11
820.219	0.11
820.515	0.12
820.811	0.12
821.108	0.11
821.404	0.12
821.7	0.11
821.996	0.12
822.292	0.11
822.588	0.12
822.884	0.12
823.18	0.12
823.475	0.12
823.771	0.12
824.067	0.12
824.362	0.12
824.658	0.12
824.953	0.12
825.249	0.11
825.544	0.12
825.839	0.12
826.134	0.12
826.429	0.12
826.724	0.12
827.019	0.12
827.314	0.13
827.609	0.13
827.904	0.13
828.198	0.13
828.493	0.12
828.787	0.13
829.082	0.12
829.376	0.12
829.671	0.13
829.965	0.13
830.259	0.13
830.553	0.13
830.847	0.13
831.141	0.13
831.435	0.13
831.729	0.14
832.023	0.13
832.317	0.14
832.61	0.13
832.904	0.14
833.197	0.14
833.491	0.14
833.784	0.13
834.077	0.13
834.371	0.14
834.664	0.13
834.957	0.13
835.25	0.13
835.543	0.14
835.836	0.13
836.129	0.12
836.421	0.13
836.714	0.14
837.007	0.13
837.299	0.14
837.592	0.14
837.884	0.14
838.177	0.14
838.469	0.14
838.761	0.14
839.053	0.13
839.345	0.14
839.637	0.13
839.929	0.15
840.221	0.14
840.513	0.14
840.805	0.14
841.096	0.13
841.388	0.14
841.68	0.15
841.971	0.14
842.262	0.15
842.554	0.15
842.845	0.14
843.136	0.15
843.427	0.15
843.718	0.15
844.009	0.15
844.3	0.15
844.591	0.15
844.882	0.15
845.173	0.15
845.463	0.14
845.754	0.16
846.044	0.16
846.335	0.15
846.625	0.16
846.915	0.16
847.206	0.15
847.496	0.17
847.786	0.16
848.076	0.16
848.366	0.16
848.656	0.15
848.945	0.16
849.235	0.15
849.525	0.16
849.814	0.16
850.104	0.16
850.393	0.16
850.683	0.17
850.972	0.16
851.261	0.16
851.551	0.16
851.84	0.16
852.129	0.16
852.418	0.16
852.707	0.16
852.995	0.16
853.284	0.15
853.573	0.16
853.862	0.17
854.15	0.17
854.439	0.17
854.727	0.16
855.015	0.18
855.304	0.17
855.592	0.18
855.88	0.17
856.168	0.17
856.456	0.17
856.744	0.17
857.032	0.18
857.32	0.18
857.607	0.18
857.895	0.18
858.183	0.18
858.47	0.17
858.757	0.17
859.045	0.19
859.332	0.18
859.619	0.17
859.907	0.19
860.194	0.18
860.481	0.17
860.768	0.18
861.054	0.18
861.341	0.19
861.628	0.2
861.915	0.17
862.201	0.18
862.488	0.2
862.774	0.19
863.061	0.18
863.347	0.17
863.633	0.2
863.919	0.18
864.205	0.16
864.491	0.18
864.777	0.16
865.063	0.17
865.349	0.19
865.635	0.21
865.92	0.17
866.206	0.19
866.492	0.21
866.777	0.21
867.062	0.2
867.348	0.18
867.633	0.17
867.918	0.16
868.203	0.2
868.488	0.19
868.773	0.16
869.058	0.16
869.343	0.19
869.628	0.15
869.912	0.17
870.197	0.19
870.482	0.18
870.766	0.19
871.05	0.15
871.335	0.18
871.619	0.16
871.903	0.21
872.187	0.22
872.471	0.18
872.755	0.16
873.039	0.17
873.323	0.15
873.607	0.15
873.89	0.19
874.174	0.2
874.458	0.2
874.741	0.22
875.024	0.2
875.308	0.15
875.591	0.15
875.874	0.2
876.157	0.24
876.44	0.22
876.723	0.23
877.006	0.14
877.289	0.15
877.572	0.23
877.854	0.13
878.137	0.12
878.42	0.1
878.702	0.17
878.984	0.15
879.267	0.18
879.549	0.15
879.831	0.21
880.113	0.2
880.395	0.19
880.677	0.21
880.959	0.03
