Data from Rubpy_BV_1500_EDTA_Buffered_Absorbance_14-25-02-602.txt Node
Date: Wed Jul 01 14:25:02 BST 2026
User: fpm-admin
Spectrometer: OFX00224
Trigger mode: 0
Integration Time (sec): 7.000000E-2
Scans to average: 3
Nonlinearity correction enabled: false
Boxcar width: 0
Storing dark spectrum: false
XAxis mode: Wavelengths
Number of Pixels in Spectrum: 2136
>>>>>Begin Spectral Data<<<<<
154.91	-0
155.289	-0
155.669	-1.02
156.048	-0.12
156.428	-0
156.807	1.38
157.186	-0.18
157.566	-0.32
157.945	-0
158.325	0.17
158.704	-0
159.083	0.11
159.462	0.6
159.842	0.07
160.221	-0.13
160.6	-0
160.979	-0.28
161.359	-0
161.738	0.33
162.117	0.03
162.496	-0.51
162.875	-0.18
163.254	0.1
163.633	-0
164.012	-0
164.391	0.21
164.77	0.03
165.149	0.03
165.528	-0.9
165.907	0.73
166.286	-0.48
166.665	0.4
167.044	-0
167.423	-0
167.802	-0
168.181	0.36
168.559	-0.04
168.938	-0.07
169.317	-0
169.696	-0.07
170.074	-0
170.453	0.78
170.832	-0
171.21	0.24
171.589	-0.07
171.968	-0
172.346	0.21
172.725	-0.05
173.103	-0.06
173.482	-0.81
173.861	-0
174.239	-1.06
174.617	-0
174.996	0.18
175.374	0.03
175.753	-0.36
176.131	0.08
176.51	-0.28
176.888	-0
177.266	-0
177.645	-0.08
178.023	-0
178.401	-0.13
178.779	-0.02
179.158	-0.14
179.536	-0.44
179.914	-0.26
180.292	-0.07
180.67	-0
181.048	0.23
181.427	-0.44
181.805	0.08
182.183	0.18
182.561	0.28
182.939	-0
183.317	0.2
183.695	-0.14
184.073	0.2
184.451	-0.46
184.829	-0
185.206	-0
185.584	0.62
185.962	-0
186.34	0.41
186.718	-0
187.096	-0
187.473	-0.04
187.851	0.05
188.229	0.29
188.607	0.18
188.984	0.32
189.362	0.34
189.74	0.17
190.117	0.17
190.495	0.17
190.872	0.36
191.25	0.23
191.627	0.07
192.005	0.4
192.382	0.34
192.76	0.15
193.137	0.26
193.515	0.24
193.892	0.16
194.269	0.24
194.647	0.38
195.024	0.16
195.401	0.2
195.779	0.27
196.156	0.32
196.533	0.31
196.91	0.29
197.288	0.37
197.665	0.15
198.042	0.21
198.419	0.3
198.796	0.15
199.173	0.27
199.55	0.19
199.927	0.22
200.304	0.39
200.681	0.37
201.058	0.4
201.435	0.25
201.812	0.29
202.189	0.25
202.566	0.24
202.943	0.32
203.32	0.24
203.697	0.25
204.073	0.17
204.45	0.21
204.827	0.6
205.204	0.18
205.58	0.21
205.957	0.19
206.334	0.27
206.71	0.23
207.087	0.28
207.464	0.19
207.84	0.08
208.217	0.24
208.593	0.38
208.97	0.42
209.346	0.28
209.723	0.3
210.099	0.34
210.476	0.3
210.852	0.35
211.228	0.18
211.605	0.32
211.981	0.17
212.357	0.24
212.733	0.23
213.11	0.2
213.486	0.16
213.862	0.3
214.238	0.14
214.614	0.16
214.991	0.18
215.367	0.27
215.743	0.07
216.119	0.23
216.495	0.23
216.871	0.27
217.247	0.2
217.623	0.16
217.999	0.14
218.375	0.14
218.751	0.2
219.127	0.21
219.502	0.25
219.878	0.18
220.254	0.16
220.63	0.21
221.006	0.19
221.381	0.33
221.757	0.33
222.133	0.22
222.508	0.21
222.884	0.25
223.26	0.28
223.635	0.17
224.011	0.3
224.386	0.32
224.762	0.36
225.137	0.32
225.513	0.28
225.888	0.29
226.264	0.42
226.639	0.18
227.014	0.34
227.39	0.2
227.765	0.31
228.14	0.26
228.516	0.19
228.891	0.34
229.266	0.35
229.641	0.09
230.017	0.22
230.392	0.27
230.767	0.09
231.142	0.15
231.517	0.17
231.892	0.29
232.267	0.22
232.642	0.29
233.017	0.23
233.392	0.22
233.767	0.26
234.142	0.25
234.517	0.5
234.892	0.24
235.267	0.39
235.641	0.15
236.016	0.21
236.391	0.35
236.766	0.53
237.14	0.15
237.515	0.22
237.89	0.3
238.264	0.21
238.639	0.21
239.014	0.3
239.388	0.15
239.763	0.29
240.137	0.18
240.512	0.23
240.886	0.26
241.261	0.13
241.635	0.15
242.009	0.25
242.384	0.3
242.758	0.23
243.132	0.14
243.507	0.26
243.881	0.22
244.255	0.21
244.629	0.14
245.004	0.31
245.378	0.37
245.752	0.27
246.126	0.39
246.5	0.3
246.874	0.24
247.248	0.26
247.622	0.12
247.996	0.27
248.37	0.24
248.744	0.24
249.118	0.3
249.492	0.28
249.866	0.18
250.24	0.27
250.613	0.25
250.987	0.35
251.361	0.18
251.735	0.25
252.108	0.25
252.482	0.2
252.856	0.29
253.229	0.34
253.603	0.28
253.977	0.24
254.35	0.37
254.724	0.21
255.097	0.23
255.471	0.21
255.844	0.33
256.218	0.22
256.591	0.36
256.964	0.19
257.338	0.31
257.711	0.25
258.084	0.26
258.458	0.14
258.831	0.25
259.204	0.28
259.577	0.25
259.95	0.24
260.323	0.29
260.697	0.26
261.07	0.31
261.443	0.31
261.816	0.31
262.189	0.36
262.562	0.25
262.935	0.28
263.308	0.2
263.68	0.18
264.053	0.24
264.426	0.21
264.799	0.19
265.172	0.21
265.545	0.23
265.917	0.17
266.29	0.23
266.663	0.25
267.035	0.24
267.408	0.18
267.781	0.27
268.153	0.3
268.526	0.21
268.898	0.29
269.271	0.22
269.643	0.21
270.016	0.21
270.388	0.28
270.76	0.16
271.133	0.18
271.505	0.24
271.877	0.27
272.25	0.31
272.622	0.39
272.994	0.2
273.366	0.24
273.739	0.28
274.111	0.27
274.483	0.3
274.855	0.27
275.227	0.3
275.599	0.22
275.971	0.36
276.343	0.21
276.715	0.28
277.087	0.31
277.459	0.21
277.831	0.28
278.203	0.25
278.574	0.33
278.946	0.21
279.318	0.28
279.69	0.22
280.061	0.31
280.433	0.22
280.805	0.11
281.176	0.31
281.548	0.24
281.92	0.36
282.291	0.28
282.663	0.23
283.034	0.22
283.406	0.26
283.777	0.32
284.148	0.26
284.52	0.19
284.891	0.22
285.262	0.26
285.634	0.19
286.005	0.32
286.376	0.36
286.747	0.24
287.119	0.17
287.49	0.18
287.861	0.18
288.232	0.3
288.603	0.35
288.974	0.31
289.345	0.24
289.716	0.18
290.087	0.31
290.458	0.34
290.829	0.25
291.2	0.23
291.571	0.22
291.941	0.22
292.312	0.25
292.683	0.26
293.054	0.28
293.424	0.25
293.795	0.23
294.166	0.25
294.536	0.2
294.907	0.3
295.277	0.25
295.648	0.3
296.018	0.23
296.389	0.25
296.759	0.28
297.13	0.25
297.5	0.25
297.871	0.27
298.241	0.25
298.611	0.34
298.981	0.28
299.352	0.24
299.722	0.26
300.092	0.24
300.462	0.19
300.832	0.26
301.202	0.3
301.573	0.28
301.943	0.23
302.313	0.2
302.683	0.29
303.053	0.29
303.422	0.29
303.792	0.22
304.162	0.22
304.532	0.36
304.902	0.21
305.272	0.27
305.641	0.26
306.011	0.21
306.381	0.19
306.75	0.21
307.12	0.21
307.49	0.27
307.859	0.18
308.229	0.19
308.598	0.2
308.968	0.16
309.337	0.16
309.707	0.17
310.076	0.18
310.445	0.2
310.815	0.15
311.184	0.16
311.553	0.18
311.923	0.17
312.292	0.17
312.661	0.19
313.03	0.19
313.399	0.19
313.768	0.19
314.137	0.16
314.506	0.18
314.875	0.18
315.244	0.19
315.613	0.2
315.982	0.2
316.351	0.21
316.72	0.22
317.089	0.21
317.458	0.2
317.826	0.2
318.195	0.21
318.564	0.2
318.933	0.22
319.301	0.22
319.67	0.23
320.038	0.22
320.407	0.23
320.775	0.23
321.144	0.22
321.512	0.24
321.881	0.24
322.249	0.24
322.618	0.24
322.986	0.25
323.354	0.25
323.723	0.27
324.091	0.25
324.459	0.27
324.827	0.27
325.195	0.27
325.564	0.27
325.932	0.27
326.3	0.27
326.668	0.29
327.036	0.29
327.404	0.3
327.772	0.3
328.14	0.31
328.508	0.3
328.875	0.31
329.243	0.32
329.611	0.32
329.979	0.32
330.346	0.32
330.714	0.34
331.082	0.34
331.449	0.34
331.817	0.36
332.185	0.35
332.552	0.37
332.92	0.37
333.287	0.38
333.655	0.38
334.022	0.39
334.389	0.4
334.757	0.4
335.124	0.41
335.491	0.42
335.859	0.43
336.226	0.44
336.593	0.45
336.96	0.45
337.327	0.46
337.695	0.47
338.062	0.48
338.429	0.48
338.796	0.49
339.163	0.51
339.53	0.51
339.897	0.52
340.263	0.53
340.63	0.54
340.997	0.55
341.364	0.56
341.731	0.57
342.097	0.58
342.464	0.58
342.831	0.6
343.197	0.61
343.564	0.61
343.931	0.62
344.297	0.63
344.664	0.65
345.03	0.65
345.396	0.66
345.763	0.68
346.129	0.68
346.496	0.69
346.862	0.7
347.228	0.71
347.594	0.73
347.961	0.73
348.327	0.73
348.693	0.76
349.059	0.76
349.425	0.76
349.791	0.78
350.157	0.79
350.523	0.79
350.889	0.8
351.255	0.81
351.621	0.82
351.987	0.83
352.353	0.84
352.719	0.85
353.084	0.86
353.45	0.87
353.816	0.88
354.181	0.89
354.547	0.9
354.913	0.91
355.278	0.92
355.644	0.93
356.009	0.94
356.375	0.95
356.74	0.97
357.106	0.98
357.471	0.98
357.836	0.99
358.202	1.01
358.567	1.03
358.932	1.03
359.297	1.05
359.663	1.07
360.028	1.1
360.393	1.09
360.758	1.11
361.123	1.11
361.488	1.14
361.853	1.13
362.218	1.16
362.583	1.17
362.948	1.18
363.312	1.19
363.677	1.22
364.042	1.22
364.407	1.24
364.772	1.24
365.136	1.26
365.501	1.28
365.865	1.28
366.23	1.29
366.595	1.3
366.959	1.32
367.324	1.32
367.688	1.32
368.052	1.35
368.417	1.36
368.781	1.36
369.145	1.36
369.51	1.39
369.874	1.39
370.238	1.39
370.602	1.39
370.967	1.4
371.331	1.39
371.695	1.4
372.059	1.42
372.423	1.43
372.787	1.42
373.151	1.42
373.515	1.41
373.878	1.4
374.242	1.38
374.606	1.38
374.97	1.38
375.334	1.36
375.697	1.36
376.061	1.33
376.425	1.35
376.788	1.35
377.152	1.3
377.515	1.31
377.879	1.29
378.242	1.27
378.606	1.24
378.969	1.24
379.333	1.24
379.696	1.21
380.059	1.2
380.422	1.18
380.786	1.17
381.149	1.15
381.512	1.15
381.875	1.13
382.238	1.11
382.601	1.09
382.964	1.09
383.327	1.07
383.69	1.06
384.053	1.05
384.416	1.03
384.779	1.01
385.142	1.02
385.504	1
385.867	1
386.23	0.99
386.593	0.98
386.955	0.97
387.318	0.97
387.68	0.97
388.043	0.95
388.405	0.96
388.768	0.96
389.13	0.95
389.493	0.94
389.855	0.93
390.217	0.93
390.58	0.92
390.942	0.9
391.304	0.9
391.666	0.89
392.028	0.87
392.391	0.86
392.753	0.84
393.115	0.84
393.477	0.82
393.839	0.81
394.201	0.8
394.563	0.8
394.924	0.79
395.286	0.8
395.648	0.8
396.01	0.8
396.371	0.81
396.733	0.82
397.095	0.83
397.456	0.84
397.818	0.85
398.18	0.87
398.541	0.9
398.903	0.9
399.264	0.94
399.625	0.95
399.987	0.97
400.348	0.98
400.709	0.99
401.071	1
401.432	1
401.793	1
402.154	1
402.515	1
402.876	0.96
403.238	0.95
403.599	0.92
403.96	0.9
404.32	0.87
404.681	0.83
405.042	0.8
405.403	0.77
405.764	0.75
406.125	0.71
406.485	0.67
406.846	0.63
407.207	0.6
407.567	0.57
407.928	0.55
408.288	0.51
408.649	0.49
409.009	0.45
409.37	0.44
409.73	0.41
410.091	0.39
410.451	0.37
410.811	0.35
411.171	0.33
411.532	0.31
411.892	0.31
412.252	0.29
412.612	0.28
412.972	0.27
413.332	0.26
413.692	0.25
414.052	0.24
414.412	0.23
414.772	0.21
415.132	0.21
415.492	0.2
415.851	0.2
416.211	0.19
416.571	0.18
416.931	0.18
417.29	0.17
417.65	0.17
418.009	0.18
418.369	0.16
418.728	0.16
419.088	0.16
419.447	0.15
419.807	0.15
420.166	0.15
420.525	0.15
420.884	0.13
421.244	0.14
421.603	0.13
421.962	0.14
422.321	0.13
422.68	0.13
423.039	0.12
423.398	0.13
423.757	0.12
424.116	0.12
424.475	0.13
424.834	0.12
425.193	0.12
425.551	0.12
425.91	0.12
426.269	0.11
426.628	0.11
426.986	0.11
427.345	0.11
427.703	0.11
428.062	0.11
428.42	0.1
428.779	0.11
429.137	0.11
429.496	0.1
429.854	0.11
430.212	0.11
430.57	0.11
430.929	0.1
431.287	0.1
431.645	0.1
432.003	0.1
432.361	0.09
432.719	0.1
433.077	0.1
433.435	0.1
433.793	0.1
434.151	0.11
434.509	0.1
434.866	0.1
435.224	0.1
435.582	0.1
435.94	0.11
436.297	0.1
436.655	0.1
437.012	0.1
437.37	0.1
437.727	0.1
438.085	0.1
438.442	0.1
438.8	0.1
439.157	0.1
439.514	0.11
439.872	0.1
440.229	0.11
440.586	0.09
440.943	0.11
441.3	0.11
441.657	0.1
442.014	0.1
442.371	0.1
442.728	0.1
443.085	0.11
443.442	0.11
443.799	0.09
444.156	0.1
444.513	0.1
444.869	0.11
445.226	0.11
445.583	0.11
445.939	0.11
446.296	0.12
446.652	0.11
447.009	0.11
447.365	0.11
447.722	0.11
448.078	0.12
448.434	0.12
448.791	0.12
449.147	0.11
449.503	0.11
449.859	0.11
450.215	0.12
450.571	0.11
450.928	0.12
451.284	0.12
451.64	0.12
451.995	0.11
452.351	0.13
452.707	0.14
453.063	0.12
453.419	0.12
453.775	0.12
454.13	0.12
454.486	0.13
454.842	0.13
455.197	0.13
455.553	0.13
455.908	0.13
456.264	0.13
456.619	0.13
456.975	0.13
457.33	0.12
457.685	0.14
458.04	0.14
458.396	0.14
458.751	0.13
459.106	0.14
459.461	0.14
459.816	0.14
460.171	0.14
460.526	0.14
460.881	0.14
461.236	0.15
461.591	0.15
461.946	0.15
462.301	0.15
462.655	0.16
463.01	0.15
463.365	0.15
463.719	0.15
464.074	0.15
464.428	0.15
464.783	0.15
465.137	0.15
465.492	0.16
465.846	0.15
466.201	0.16
466.555	0.16
466.909	0.15
467.263	0.16
467.618	0.16
467.972	0.17
468.326	0.16
468.68	0.17
469.034	0.17
469.388	0.18
469.742	0.17
470.096	0.17
470.45	0.18
470.804	0.19
471.157	0.18
471.511	0.19
471.865	0.19
472.218	0.2
472.572	0.19
472.926	0.2
473.279	0.2
473.633	0.21
473.986	0.2
474.34	0.2
474.693	0.21
475.046	0.21
475.4	0.22
475.753	0.22
476.106	0.22
476.459	0.22
476.812	0.22
477.165	0.23
477.519	0.23
477.872	0.24
478.224	0.24
478.577	0.24
478.93	0.25
479.283	0.25
479.636	0.26
479.989	0.26
480.341	0.25
480.694	0.25
481.047	0.27
481.399	0.26
481.752	0.27
482.104	0.27
482.457	0.28
482.809	0.27
483.162	0.28
483.514	0.28
483.866	0.28
484.219	0.28
484.571	0.29
484.923	0.3
485.275	0.29
485.627	0.3
485.979	0.3
486.331	0.3
486.683	0.3
487.035	0.31
487.387	0.3
487.739	0.31
488.091	0.32
488.443	0.32
488.794	0.32
489.146	0.33
489.498	0.33
489.849	0.33
490.201	0.34
490.552	0.34
490.904	0.34
491.255	0.34
491.607	0.34
491.958	0.35
492.309	0.35
492.661	0.35
493.012	0.35
493.363	0.36
493.714	0.36
494.065	0.36
494.416	0.37
494.767	0.37
495.118	0.37
495.469	0.37
495.82	0.38
496.171	0.38
496.522	0.38
496.872	0.38
497.223	0.39
497.574	0.39
497.924	0.39
498.275	0.4
498.626	0.4
498.976	0.4
499.327	0.4
499.677	0.41
500.027	0.41
500.378	0.41
500.728	0.41
501.078	0.42
501.428	0.42
501.779	0.42
502.129	0.43
502.479	0.43
502.829	0.43
503.179	0.43
503.529	0.43
503.879	0.44
504.229	0.45
504.578	0.45
504.928	0.45
505.278	0.45
505.628	0.46
505.977	0.45
506.327	0.46
506.676	0.46
507.026	0.47
507.375	0.47
507.725	0.47
508.074	0.48
508.424	0.47
508.773	0.48
509.122	0.48
509.471	0.48
509.82	0.48
510.17	0.48
510.519	0.49
510.868	0.49
511.217	0.49
511.566	0.5
511.915	0.51
512.263	0.5
512.612	0.51
512.961	0.5
513.31	0.5
513.659	0.51
514.007	0.52
514.356	0.52
514.704	0.52
515.053	0.52
515.401	0.53
515.75	0.53
516.098	0.53
516.447	0.53
516.795	0.54
517.143	0.53
517.491	0.54
517.839	0.54
518.188	0.54
518.536	0.54
518.884	0.55
519.232	0.55
519.58	0.55
519.928	0.55
520.275	0.55
520.623	0.55
520.971	0.56
521.319	0.56
521.666	0.56
522.014	0.56
522.362	0.57
522.709	0.57
523.057	0.57
523.404	0.57
523.752	0.57
524.099	0.58
524.446	0.58
524.794	0.58
525.141	0.58
525.488	0.58
525.835	0.58
526.182	0.59
526.529	0.59
526.876	0.59
527.223	0.59
527.57	0.59
527.917	0.59
528.264	0.59
528.611	0.59
528.958	0.6
529.304	0.6
529.651	0.6
529.998	0.6
530.344	0.6
530.691	0.61
531.037	0.6
531.384	0.61
531.73	0.6
532.076	0.61
532.423	0.61
532.769	0.62
533.115	0.62
533.461	0.62
533.807	0.61
534.154	0.62
534.5	0.62
534.846	0.62
535.192	0.63
535.537	0.62
535.883	0.62
536.229	0.63
536.575	0.62
536.921	0.63
537.266	0.63
537.612	0.63
537.957	0.63
538.303	0.63
538.649	0.63
538.994	0.63
539.339	0.63
539.685	0.64
540.03	0.64
540.375	0.63
540.721	0.64
541.066	0.63
541.411	0.64
541.756	0.64
542.101	0.64
542.446	0.64
542.791	0.64
543.136	0.64
543.481	0.64
543.825	0.64
544.17	0.64
544.515	0.64
544.86	0.65
545.204	0.65
545.549	0.64
545.893	0.64
546.238	0.65
546.582	0.65
546.927	0.65
547.271	0.65
547.615	0.65
547.96	0.65
548.304	0.65
548.648	0.65
548.992	0.65
549.336	0.65
549.68	0.65
550.024	0.66
550.368	0.65
550.712	0.65
551.056	0.65
551.4	0.65
551.743	0.65
552.087	0.65
552.431	0.65
552.774	0.65
553.118	0.65
553.462	0.65
553.805	0.64
554.148	0.64
554.492	0.64
554.835	0.65
555.178	0.65
555.522	0.65
555.865	0.65
556.208	0.64
556.551	0.65
556.894	0.65
557.237	0.65
557.58	0.65
557.923	0.64
558.266	0.64
558.609	0.64
558.952	0.65
559.294	0.64
559.637	0.64
559.98	0.65
560.322	0.64
560.665	0.64
561.007	0.64
561.35	0.64
561.692	0.64
562.034	0.64
562.377	0.64
562.719	0.64
563.061	0.64
563.403	0.63
563.745	0.63
564.088	0.64
564.43	0.63
564.772	0.64
565.113	0.63
565.455	0.63
565.797	0.63
566.139	0.63
566.481	0.62
566.822	0.63
567.164	0.62
567.506	0.62
567.847	0.62
568.189	0.62
568.53	0.62
568.872	0.62
569.213	0.62
569.554	0.62
569.895	0.62
570.237	0.61
570.578	0.62
570.919	0.61
571.26	0.61
571.601	0.61
571.942	0.61
572.283	0.61
572.624	0.6
572.965	0.6
573.306	0.6
573.646	0.6
573.987	0.6
574.328	0.59
574.668	0.6
575.009	0.59
575.349	0.59
575.69	0.59
576.03	0.59
576.37	0.58
576.711	0.58
577.051	0.58
577.391	0.58
577.731	0.58
578.072	0.58
578.412	0.58
578.752	0.58
579.092	0.57
579.431	0.56
579.771	0.55
580.111	0.53
580.451	0.54
580.791	0.56
581.13	0.57
581.47	0.56
581.81	0.56
582.149	0.56
582.489	0.56
582.828	0.55
583.167	0.52
583.507	0.49
583.846	0.47
584.185	0.5
584.525	0.53
584.864	0.55
585.203	0.56
585.542	0.56
585.881	0.56
586.22	0.56
586.559	0.55
586.898	0.54
587.236	0.53
587.575	0.53
587.914	0.53
588.252	0.55
588.591	0.55
588.93	0.55
589.268	0.54
589.607	0.54
589.945	0.54
590.283	0.55
590.622	0.55
590.96	0.55
591.298	0.55
591.636	0.55
591.974	0.55
592.313	0.55
592.651	0.55
592.989	0.55
593.326	0.55
593.664	0.55
594.002	0.55
594.34	0.54
594.678	0.54
595.015	0.54
595.353	0.53
595.691	0.54
596.028	0.54
596.366	0.54
596.703	0.55
597.04	0.54
597.378	0.54
597.715	0.54
598.052	0.55
598.389	0.54
598.726	0.55
599.064	0.54
599.401	0.54
599.738	0.54
600.074	0.54
600.411	0.54
600.748	0.53
601.085	0.53
601.422	0.52
601.758	0.52
602.095	0.52
602.432	0.53
602.768	0.52
603.105	0.53
603.441	0.53
603.777	0.53
604.114	0.53
604.45	0.53
604.786	0.53
605.122	0.52
605.459	0.52
605.795	0.52
606.131	0.52
606.467	0.52
606.803	0.52
607.139	0.52
607.474	0.52
607.81	0.51
608.146	0.51
608.482	0.51
608.817	0.51
609.153	0.51
609.488	0.51
609.824	0.5
610.159	0.5
610.495	0.5
610.83	0.51
611.165	0.5
611.5	0.5
611.836	0.5
612.171	0.5
612.506	0.5
612.841	0.5
613.176	0.49
613.511	0.49
613.845	0.49
614.18	0.49
614.515	0.49
614.85	0.49
615.184	0.49
615.519	0.49
615.854	0.48
616.188	0.48
616.523	0.48
616.857	0.48
617.191	0.47
617.526	0.47
617.86	0.47
618.194	0.47
618.528	0.47
618.862	0.47
619.196	0.47
619.53	0.47
619.864	0.47
620.198	0.47
620.532	0.46
620.866	0.46
621.2	0.46
621.533	0.45
621.867	0.46
622.201	0.45
622.534	0.45
622.868	0.46
623.201	0.45
623.534	0.45
623.868	0.44
624.201	0.44
624.534	0.44
624.868	0.44
625.201	0.44
625.534	0.44
625.867	0.43
626.2	0.43
626.533	0.43
626.865	0.43
627.198	0.43
627.531	0.43
627.864	0.42
628.196	0.42
628.529	0.42
628.862	0.41
629.194	0.41
629.527	0.41
629.859	0.41
630.191	0.4
630.524	0.4
630.856	0.4
631.188	0.4
631.52	0.4
631.852	0.4
632.184	0.39
632.516	0.39
632.848	0.39
633.18	0.39
633.512	0.39
633.844	0.38
634.175	0.38
634.507	0.38
634.839	0.38
635.17	0.37
635.502	0.37
635.833	0.37
636.165	0.36
636.496	0.36
636.827	0.36
637.159	0.36
637.49	0.35
637.821	0.35
638.152	0.35
638.483	0.35
638.814	0.34
639.145	0.35
639.476	0.34
639.807	0.34
640.137	0.34
640.468	0.33
640.799	0.33
641.129	0.33
641.46	0.33
641.791	0.33
642.121	0.32
642.451	0.32
642.782	0.31
643.112	0.31
643.442	0.31
643.773	0.31
644.103	0.31
644.433	0.31
644.763	0.31
645.093	0.31
645.423	0.31
645.753	0.3
646.082	0.3
646.412	0.3
646.742	0.3
647.072	0.3
647.401	0.29
647.731	0.29
648.06	0.29
648.39	0.29
648.719	0.29
649.048	0.29
649.378	0.28
649.707	0.28
650.036	0.28
650.365	0.28
650.694	0.28
651.023	0.28
651.352	0.28
651.681	0.28
652.01	0.28
652.339	0.27
652.668	0.27
652.996	0.27
653.325	0.27
653.654	0.28
653.982	0.27
654.311	0.27
654.639	0.27
654.967	0.27
655.296	0.27
655.624	0.27
655.952	0.27
656.28	0.27
656.609	0.27
656.937	0.26
657.265	0.26
657.593	0.14
657.92	0.05
658.248	0.01
658.576	0.03
658.904	0.12
659.231	0.21
659.559	0.25
659.887	0.25
660.214	0.25
660.542	0.25
660.869	0.25
661.196	0.25
661.524	0.24
661.851	0.24
662.178	0.24
662.505	0.24
662.832	0.24
663.159	0.24
663.486	0.24
663.813	0.24
664.14	0.24
664.467	0.24
664.794	0.24
665.12	0.24
665.447	0.24
665.774	0.23
666.1	0.24
666.427	0.23
666.753	0.23
667.079	0.23
667.406	0.23
667.732	0.23
668.058	0.23
668.384	0.23
668.71	0.22
669.036	0.22
669.362	0.22
669.688	0.22
670.014	0.22
670.34	0.22
670.666	0.21
670.991	0.21
671.317	0.21
671.643	0.21
671.968	0.21
672.294	0.21
672.619	0.2
672.945	0.2
673.27	0.2
673.595	0.2
673.92	0.2
674.246	0.2
674.571	0.2
674.896	0.2
675.221	0.19
675.546	0.19
675.87	0.2
676.195	0.19
676.52	0.19
676.845	0.19
677.169	0.18
677.494	0.18
677.819	0.18
678.143	0.18
678.468	0.18
678.792	0.18
679.116	0.18
679.44	0.17
679.765	0.17
680.089	0.17
680.413	0.17
680.737	0.17
681.061	0.16
681.385	0.16
681.709	0.16
682.033	0.16
682.356	0.16
682.68	0.16
683.004	0.16
683.327	0.15
683.651	0.15
683.974	0.15
684.298	0.15
684.621	0.15
684.944	0.15
685.268	0.15
685.591	0.14
685.914	0.14
686.237	0.14
686.56	0.14
686.883	0.13
687.206	0.13
687.529	0.13
687.852	0.13
688.175	0.13
688.497	0.13
688.82	0.13
689.142	0.12
689.465	0.12
689.787	0.12
690.11	0.12
690.432	0.12
690.755	0.11
691.077	0.11
691.399	0.11
691.721	0.11
692.043	0.11
692.365	0.11
692.687	0.11
693.009	0.11
693.331	0.11
693.653	0.1
693.974	0.11
694.296	0.1
694.618	0.1
694.939	0.1
695.261	0.1
695.582	0.1
695.904	0.1
696.225	0.1
696.546	0.1
696.868	0.09
697.189	0.09
697.51	0.09
697.831	0.09
698.152	0.09
698.473	0.09
698.794	0.08
699.114	0.09
699.435	0.07
699.756	0.08
700.077	0.08
700.397	0.08
700.718	0.08
701.038	0.08
701.359	0.08
701.679	0.08
701.999	0.08
702.32	0.08
702.64	0.08
702.96	0.08
703.28	0.08
703.6	0.08
703.92	0.08
704.24	0.08
704.56	0.07
704.879	0.07
705.199	0.08
705.519	0.08
705.838	0.08
706.158	0.08
706.478	0.08
706.797	0.08
707.116	0.08
707.436	0.08
707.755	0.08
708.074	0.08
708.393	0.07
708.712	0.07
709.031	0.06
709.35	0.06
709.669	0.06
709.988	0.06
710.307	0.06
710.626	0.06
710.944	0.07
711.263	0.07
711.582	0.07
711.9	0.07
712.219	0.07
712.537	0.07
712.855	0.07
713.174	0.07
713.492	0.07
713.81	0.07
714.128	0.07
714.446	0.07
714.764	0.07
715.082	0.06
715.4	0.07
715.718	0.07
716.035	0.06
716.353	0.07
716.671	0.07
716.988	0.07
717.306	0.06
717.623	0.07
717.941	0.07
718.258	0.08
718.575	0.08
718.893	0.08
719.21	0.07
719.527	0.07
719.844	0.07
720.161	0.07
720.478	0.07
720.795	0.07
721.112	0.07
721.428	0.08
721.745	0.07
722.062	0.07
722.378	0.07
722.695	0.07
723.011	0.07
723.328	0.07
723.644	0.07
723.96	0.08
724.276	0.08
724.593	0.08
724.909	0.08
725.225	0.08
725.541	0.08
725.857	0.08
726.173	0.08
726.488	0.08
726.804	0.08
727.12	0.08
727.435	0.08
727.751	0.08
728.067	0.08
728.382	0.08
728.697	0.08
729.013	0.08
729.328	0.08
729.643	0.08
729.958	0.08
730.273	0.08
730.588	0.08
730.903	0.08
731.218	0.08
731.533	0.08
731.848	0.07
732.163	0.08
732.477	0.07
732.792	0.07
733.107	0.07
733.421	0.07
733.736	0.07
734.05	0.08
734.364	0.07
734.678	0.08
734.993	0.07
735.307	0.07
735.621	0.07
735.935	0.07
736.249	0.07
736.563	0.07
736.877	0.07
737.19	0.07
737.504	0.07
737.818	0.07
738.131	0.07
738.445	0.07
738.758	0.07
739.072	0.07
739.385	0.07
739.698	0.07
740.012	0.07
740.325	0.07
740.638	0.07
740.951	0.07
741.264	0.07
741.577	0.07
741.89	0.07
742.203	0.07
742.515	0.07
742.828	0.07
743.141	0.07
743.453	0.07
743.766	0.06
744.078	0.06
744.391	0.06
744.703	0.06
745.015	0.06
745.327	0.06
745.639	0.06
745.952	0.06
746.264	0.06
746.575	0.06
746.887	0.06
747.199	0.06
747.511	0.06
747.823	0.06
748.134	0.06
748.446	0.06
748.757	0.06
749.069	0.05
749.38	0.05
749.692	0.05
750.003	0.05
750.314	0.05
750.625	0.05
750.936	0.05
751.248	0.05
751.559	0.06
751.869	0.06
752.18	0.05
752.491	0.05
752.802	0.05
753.112	0.05
753.423	0.05
753.734	0.05
754.044	0.05
754.355	0.05
754.665	0.05
754.975	0.05
755.285	0.05
755.596	0.05
755.906	0.04
756.216	0.05
756.526	0.05
756.836	0.05
757.146	0.04
757.455	0.04
757.765	0.04
758.075	0.04
758.385	0.04
758.694	0.04
759.004	0.04
759.313	0.04
759.622	0.04
759.932	0.04
760.241	0.04
760.55	0.04
760.859	0.04
761.168	0.04
761.477	0.04
761.786	0.04
762.095	0.04
762.404	0.03
762.713	0.04
763.021	0.04
763.33	0.04
763.639	0.04
763.947	0.04
764.256	0.04
764.564	0.04
764.872	0.04
765.181	0.04
765.489	0.04
765.797	0.03
766.105	0.04
766.413	0.04
766.721	0.04
767.029	0.04
767.337	0.04
767.644	0.04
767.952	0.04
768.26	0.04
768.567	0.04
768.875	0.04
769.182	0.04
769.49	0.04
769.797	0.04
770.104	0.04
770.411	0.04
770.718	0.04
771.026	0.04
771.333	0.04
771.639	0.04
771.946	0.04
772.253	0.04
772.56	0.04
772.867	0.04
773.173	0.04
773.48	0.04
773.786	0.04
774.093	0.04
774.399	0.04
774.705	0.04
775.012	0.04
775.318	0.04
775.624	0.04
775.93	0.04
776.236	0.04
776.542	0.04
776.848	0.04
777.154	0.04
777.459	0.04
777.765	0.03
778.071	0.04
778.376	0.03
778.682	0.04
778.987	0.04
779.292	0.04
779.598	0.04
779.903	0.04
780.208	0.04
780.513	0.04
780.818	0.04
781.123	0.04
781.428	0.03
781.733	0.04
782.038	0.04
782.343	0.04
782.647	0.04
782.952	0.04
783.256	0.04
783.561	0.04
783.865	0.04
784.17	0.04
784.474	0.05
784.778	0.05
785.082	0.04
785.386	0.05
785.69	0.05
785.994	0.05
786.298	0.04
786.602	0.05
786.906	0.04
787.209	0.04
787.513	0.05
787.817	0.05
788.12	0.05
788.424	0.05
788.727	0.05
789.03	0.05
789.333	0.05
789.637	0.05
789.94	0.05
790.243	0.05
790.546	0.05
790.849	0.05
791.152	0.05
791.454	0.05
791.757	0.05
792.06	0.05
792.362	0.05
792.665	0.05
792.967	0.05
793.27	0.05
793.572	0.05
793.874	0.05
794.177	0.05
794.479	0.05
794.781	0.05
795.083	0.05
795.385	0.05
795.687	0.05
795.989	0.04
796.29	0.05
796.592	0.05
796.894	0.05
797.195	0.06
797.497	0.06
797.798	0.06
798.1	0.06
798.401	0.05
798.702	0.05
799.003	0.05
799.304	0.05
799.605	0.05
799.906	0.05
800.207	0.05
800.508	0.05
800.809	0.05
801.11	0.05
801.41	0.05
801.711	0.06
802.011	0.05
802.312	0.05
802.612	0.06
802.913	0.06
803.213	0.05
803.513	0.05
803.813	0.05
804.113	0.05
804.413	0.05
804.713	0.05
805.013	0.05
805.313	0.05
805.613	0.05
805.912	0.05
806.212	0.05
806.511	0.05
806.811	0.06
807.11	0.05
807.41	0.06
807.709	0.06
808.008	0.06
808.307	0.06
808.606	0.06
808.905	0.06
809.204	0.06
809.503	0.06
809.802	0.06
810.101	0.06
810.399	0.06
810.698	0.06
810.997	0.06
811.295	0.06
811.593	0.06
811.892	0.06
812.19	0.06
812.488	0.06
812.786	0.06
813.084	0.05
813.383	0.06
813.68	0.06
813.978	0.05
814.276	0.06
814.574	0.06
814.872	0.07
815.169	0.07
815.467	0.07
815.764	0.07
816.062	0.07
816.359	0.07
816.656	0.07
816.954	0.07
817.251	0.07
817.548	0.07
817.845	0.07
818.142	0.07
818.439	0.07
818.735	0.07
819.032	0.07
819.329	0.07
819.626	0.07
819.922	0.07
820.219	0.07
820.515	0.07
820.811	0.07
821.108	0.08
821.404	0.07
821.7	0.07
821.996	0.08
822.292	0.07
822.588	0.07
822.884	0.08
823.18	0.08
823.475	0.07
823.771	0.08
824.067	0.08
824.362	0.08
824.658	0.07
824.953	0.08
825.249	0.07
825.544	0.08
825.839	0.08
826.134	0.08
826.429	0.07
826.724	0.08
827.019	0.07
827.314	0.08
827.609	0.07
827.904	0.09
828.198	0.08
828.493	0.08
828.787	0.08
829.082	0.07
829.376	0.08
829.671	0.08
829.965	0.08
830.259	0.08
830.553	0.08
830.847	0.08
831.141	0.08
831.435	0.08
831.729	0.09
832.023	0.08
832.317	0.09
832.61	0.09
832.904	0.09
833.197	0.09
833.491	0.09
833.784	0.09
834.077	0.09
834.371	0.09
834.664	0.08
834.957	0.08
835.25	0.08
835.543	0.08
835.836	0.08
836.129	0.08
836.421	0.09
836.714	0.08
837.007	0.08
837.299	0.09
837.592	0.08
837.884	0.09
838.177	0.09
838.469	0.08
838.761	0.08
839.053	0.08
839.345	0.09
839.637	0.08
839.929	0.09
840.221	0.09
840.513	0.08
840.805	0.09
841.096	0.08
841.388	0.09
841.68	0.09
841.971	0.09
842.262	0.09
842.554	0.09
842.845	0.09
843.136	0.09
843.427	0.09
843.718	0.09
844.009	0.09
844.3	0.09
844.591	0.09
844.882	0.08
845.173	0.09
845.463	0.1
845.754	0.1
846.044	0.11
846.335	0.1
846.625	0.1
846.915	0.09
847.206	0.1
847.496	0.11
847.786	0.1
848.076	0.1
848.366	0.1
848.656	0.1
848.945	0.1
849.235	0.09
849.525	0.1
849.814	0.1
850.104	0.1
850.393	0.1
850.683	0.1
850.972	0.09
851.261	0.1
851.551	0.11
851.84	0.11
852.129	0.1
852.418	0.1
852.707	0.11
852.995	0.1
853.284	0.11
853.573	0.1
853.862	0.1
854.15	0.09
854.439	0.09
854.727	0.1
855.015	0.1
855.304	0.1
855.592	0.11
855.88	0.12
856.168	0.11
856.456	0.11
856.744	0.12
857.032	0.12
857.32	0.12
857.607	0.12
857.895	0.12
858.183	0.12
858.47	0.09
858.757	0.13
859.045	0.12
859.332	0.12
859.619	0.11
859.907	0.12
860.194	0.11
860.481	0.12
860.768	0.12
861.054	0.13
861.341	0.11
861.628	0.11
861.915	0.12
862.201	0.12
862.488	0.13
862.774	0.12
863.061	0.12
863.347	0.1
863.633	0.11
863.919	0.12
864.205	0.1
864.491	0.11
864.777	0.12
865.063	0.12
865.349	0.1
865.635	0.11
865.92	0.1
866.206	0.12
866.492	0.13
866.777	0.12
867.062	0.1
867.348	0.12
867.633	0.1
867.918	0.13
868.203	0.13
868.488	0.13
868.773	0.11
869.058	0.1
869.343	0.12
869.628	0.09
869.912	0.1
870.197	0.12
870.482	0.12
870.766	0.11
871.05	0.09
871.335	0.16
871.619	0.08
871.903	0.17
872.187	0.11
872.471	0.13
872.755	0.07
873.039	0.14
873.323	0.09
873.607	0.16
873.89	0.15
874.174	0.12
874.458	0.11
874.741	0.12
875.024	0.11
875.308	0.12
875.591	0.12
875.874	0.08
876.157	0.16
876.44	0.14
876.723	0.12
877.006	0.13
877.289	0.1
877.572	0.1
877.854	0.08
878.137	0.06
878.42	0.1
878.702	0.21
878.984	0.12
879.267	0.1
879.549	0.1
879.831	0.17
880.113	0.18
880.395	0.12
880.677	0.13
880.959	0.07
