Data from Rubpy_BV_1500_EDTA_Buffered_Absorbance_14-41-01-570.txt Node
Date: Wed Jul 01 14:41:01 BST 2026
User: fpm-admin
Spectrometer: OFX00224
Trigger mode: 0
Integration Time (sec): 7.000000E-2
Scans to average: 3
Nonlinearity correction enabled: false
Boxcar width: 0
Storing dark spectrum: false
XAxis mode: Wavelengths
Number of Pixels in Spectrum: 2136
>>>>>Begin Spectral Data<<<<<
154.91	-0
155.289	0.33
155.669	-0
156.048	-0.25
156.428	-0
156.807	0.68
157.186	-0.38
157.566	1.04
157.945	-0.29
158.325	0.04
158.704	-0.54
159.083	-0
159.462	1.51
159.842	0.1
160.221	-0
160.6	-0
160.979	-0.63
161.359	-0.02
161.738	-0
162.117	-0.31
162.496	-0.34
162.875	0.18
163.254	0.07
163.633	-0.33
164.012	-0.24
164.391	0.09
164.77	0.06
165.149	0.85
165.528	-0
165.907	-0.05
166.286	-0.49
166.665	-0
167.044	-0
167.423	0.54
167.802	-0
168.181	-0.05
168.559	0.1
168.938	-0.1
169.317	-0
169.696	-0.05
170.074	-0.24
170.453	-0
170.832	0.49
171.21	0.94
171.589	0.88
171.968	-0.86
172.346	1.69
172.725	-0
173.103	-0
173.482	-0.7
173.861	-0
174.239	-0.6
174.617	-0
174.996	0.28
175.374	0.08
175.753	-0.18
176.131	-0
176.51	0.29
176.888	-0
177.266	-0
177.645	0.11
178.023	1
178.401	-0.12
178.779	-0.1
179.158	0.18
179.536	-0
179.914	0.14
180.292	0.17
180.67	-0
181.048	-0.14
181.427	-0.07
181.805	0.04
182.183	-0
182.561	0.5
182.939	-0
183.317	-0
183.695	0.76
184.073	-0
184.451	-0.49
184.829	-0
185.206	-0
185.584	0.62
185.962	-0
186.34	0.41
186.718	-0
187.096	-0
187.473	0.28
187.851	-0
188.229	0.06
188.607	0.28
188.984	0.58
189.362	0.5
189.74	0.31
190.117	0.4
190.495	0.19
190.872	0.44
191.25	0.41
191.627	0.16
192.005	0.28
192.382	0.48
192.76	0.48
193.137	0.25
193.515	0.17
193.892	0.41
194.269	0.09
194.647	0.63
195.024	0.25
195.401	0.34
195.779	0.35
196.156	0.3
196.533	0.61
196.91	0.25
197.288	0.5
197.665	0.42
198.042	0.31
198.419	0.49
198.796	0.22
199.173	0.52
199.55	0.26
199.927	0.39
200.304	0.53
200.681	0.34
201.058	0.28
201.435	0.29
201.812	0.4
202.189	0.43
202.566	0.31
202.943	0.38
203.32	0.34
203.697	0.34
204.073	0.39
204.45	0.18
204.827	0.48
205.204	0.36
205.58	0.28
205.957	0.41
206.334	0.48
206.71	0.3
207.087	0.5
207.464	0.24
207.84	0.26
208.217	0.36
208.593	0.4
208.97	0.4
209.346	0.48
209.723	0.34
210.099	0.31
210.476	0.43
210.852	0.34
211.228	0.34
211.605	0.22
211.981	0.4
212.357	0.35
212.733	0.25
213.11	0.3
213.486	0.31
213.862	0.43
214.238	0.31
214.614	0.21
214.991	0.26
215.367	0.41
215.743	0.18
216.119	0.53
216.495	0.27
216.871	0.36
217.247	0.31
217.623	0.25
217.999	0.28
218.375	0.47
218.751	0.27
219.127	0.4
219.502	0.34
219.878	0.36
220.254	0.29
220.63	0.32
221.006	0.31
221.381	0.3
221.757	0.36
222.133	0.26
222.508	0.5
222.884	0.34
223.26	0.28
223.635	0.4
224.011	0.39
224.386	0.45
224.762	0.5
225.137	0.35
225.513	0.41
225.888	0.38
226.264	0.46
226.639	0.4
227.014	0.43
227.39	0.4
227.765	0.41
228.14	0.35
228.516	0.35
228.891	0.45
229.266	0.38
229.641	0.37
230.017	0.4
230.392	0.44
230.767	0.29
231.142	0.4
231.517	0.33
231.892	0.57
232.267	0.44
232.642	0.3
233.017	0.32
233.392	0.39
233.767	0.31
234.142	0.51
234.517	0.46
234.892	0.51
235.267	0.58
235.641	0.35
236.016	0.43
236.391	0.46
236.766	0.27
237.14	0.29
237.515	0.42
237.89	0.41
238.264	0.48
238.639	0.59
239.014	0.36
239.388	0.27
239.763	0.35
240.137	0.31
240.512	0.32
240.886	0.4
241.261	0.21
241.635	0.33
242.009	0.46
242.384	0.5
242.758	0.34
243.132	0.3
243.507	0.37
243.881	0.35
244.255	0.51
244.629	0.44
245.004	0.34
245.378	0.46
245.752	0.33
246.126	0.36
246.5	0.33
246.874	0.45
247.248	0.5
247.622	0.38
247.996	0.45
248.37	0.31
248.744	0.41
249.118	0.47
249.492	0.41
249.866	0.32
250.24	0.37
250.613	0.36
250.987	0.4
251.361	0.43
251.735	0.39
252.108	0.42
252.482	0.43
252.856	0.3
253.229	0.32
253.603	0.39
253.977	0.3
254.35	0.29
254.724	0.29
255.097	0.37
255.471	0.31
255.844	0.44
256.218	0.36
256.591	0.5
256.964	0.28
257.338	0.45
257.711	0.36
258.084	0.32
258.458	0.3
258.831	0.5
259.204	0.35
259.577	0.39
259.95	0.35
260.323	0.29
260.697	0.36
261.07	0.36
261.443	0.51
261.816	0.36
262.189	0.45
262.562	0.33
262.935	0.39
263.308	0.44
263.68	0.41
264.053	0.43
264.426	0.32
264.799	0.42
265.172	0.43
265.545	0.49
265.917	0.45
266.29	0.46
266.663	0.34
267.035	0.35
267.408	0.31
267.781	0.5
268.153	0.38
268.526	0.38
268.898	0.34
269.271	0.48
269.643	0.47
270.016	0.31
270.388	0.41
270.76	0.43
271.133	0.28
271.505	0.36
271.877	0.4
272.25	0.43
272.622	0.56
272.994	0.37
273.366	0.41
273.739	0.41
274.111	0.37
274.483	0.38
274.855	0.45
275.227	0.45
275.599	0.22
275.971	0.3
276.343	0.28
276.715	0.38
277.087	0.43
277.459	0.41
277.831	0.51
278.203	0.37
278.574	0.43
278.946	0.26
279.318	0.37
279.69	0.37
280.061	0.4
280.433	0.34
280.805	0.36
281.176	0.54
281.548	0.34
281.92	0.41
282.291	0.36
282.663	0.35
283.034	0.41
283.406	0.29
283.777	0.41
284.148	0.28
284.52	0.46
284.891	0.44
285.262	0.5
285.634	0.32
286.005	0.36
286.376	0.37
286.747	0.4
287.119	0.33
287.49	0.38
287.861	0.26
288.232	0.44
288.603	0.38
288.974	0.46
289.345	0.4
289.716	0.31
290.087	0.42
290.458	0.47
290.829	0.36
291.2	0.38
291.571	0.45
291.941	0.47
292.312	0.36
292.683	0.45
293.054	0.5
293.424	0.29
293.795	0.28
294.166	0.33
294.536	0.41
294.907	0.47
295.277	0.43
295.648	0.35
296.018	0.37
296.389	0.37
296.759	0.47
297.13	0.37
297.5	0.43
297.871	0.41
298.241	0.34
298.611	0.43
298.981	0.42
299.352	0.4
299.722	0.5
300.092	0.32
300.462	0.45
300.832	0.39
301.202	0.41
301.573	0.39
301.943	0.37
302.313	0.43
302.683	0.43
303.053	0.5
303.422	0.4
303.792	0.37
304.162	0.37
304.532	0.3
304.902	0.27
305.272	0.35
305.641	0.4
306.011	0.33
306.381	0.3
306.75	0.29
307.12	0.33
307.49	0.3
307.859	0.31
308.229	0.35
308.598	0.33
308.968	0.28
309.337	0.26
309.707	0.28
310.076	0.29
310.445	0.28
310.815	0.29
311.184	0.28
311.553	0.28
311.923	0.28
312.292	0.27
312.661	0.29
313.03	0.3
313.399	0.32
313.768	0.3
314.137	0.29
314.506	0.29
314.875	0.32
315.244	0.31
315.613	0.33
315.982	0.32
316.351	0.3
316.72	0.34
317.089	0.33
317.458	0.34
317.826	0.35
318.195	0.36
318.564	0.35
318.933	0.36
319.301	0.37
319.67	0.36
320.038	0.37
320.407	0.38
320.775	0.38
321.144	0.39
321.512	0.39
321.881	0.4
322.249	0.4
322.618	0.4
322.986	0.42
323.354	0.43
323.723	0.43
324.091	0.44
324.459	0.45
324.827	0.45
325.195	0.46
325.564	0.45
325.932	0.47
326.3	0.47
326.668	0.48
327.036	0.49
327.404	0.5
327.772	0.5
328.14	0.51
328.508	0.52
328.875	0.53
329.243	0.54
329.611	0.54
329.979	0.56
330.346	0.56
330.714	0.57
331.082	0.58
331.449	0.58
331.817	0.6
332.185	0.61
332.552	0.62
332.92	0.63
333.287	0.64
333.655	0.66
334.022	0.67
334.389	0.68
334.757	0.69
335.124	0.7
335.491	0.73
335.859	0.73
336.226	0.75
336.593	0.75
336.96	0.78
337.327	0.79
337.695	0.8
338.062	0.82
338.429	0.83
338.796	0.85
339.163	0.86
339.53	0.87
339.897	0.9
340.263	0.89
340.63	0.92
340.997	0.94
341.364	0.96
341.731	0.97
342.097	1
342.464	0.99
342.831	1.02
343.197	1.04
343.564	1.06
343.931	1.07
344.297	1.08
344.664	1.12
345.03	1.13
345.396	1.13
345.763	1.14
346.129	1.17
346.496	1.18
346.862	1.19
347.228	1.22
347.594	1.23
347.961	1.26
348.327	1.26
348.693	1.28
349.059	1.3
349.425	1.29
349.791	1.34
350.157	1.34
350.523	1.35
350.889	1.35
351.255	1.37
351.621	1.39
351.987	1.4
352.353	1.42
352.719	1.44
353.084	1.47
353.45	1.46
353.816	1.48
354.181	1.48
354.547	1.52
354.913	1.54
355.278	1.55
355.644	1.56
356.009	1.58
356.375	1.6
356.74	1.61
357.106	1.63
357.471	1.68
357.836	1.63
358.202	1.71
358.567	1.68
358.932	1.73
359.297	1.72
359.663	1.76
360.028	1.76
360.393	1.8
360.758	1.8
361.123	1.79
361.488	1.85
361.853	1.85
362.218	1.86
362.583	1.92
362.948	1.89
363.312	1.94
363.677	1.9
364.042	1.91
364.407	1.94
364.772	1.97
365.136	1.98
365.501	2.01
365.865	1.97
366.23	1.97
366.595	1.97
366.959	1.99
367.324	2.04
367.688	2.04
368.052	1.99
368.417	2.12
368.781	2.05
369.145	2.04
369.51	2.06
369.874	2.07
370.238	2.13
370.602	2.11
370.967	2.03
371.331	2.09
371.695	2.06
372.059	2.05
372.423	2.14
372.787	2.04
373.151	2.16
373.515	2.05
373.878	2.01
374.242	2.06
374.606	2.1
374.97	2.1
375.334	2.01
375.697	2.09
376.061	1.97
376.425	2.07
376.788	2.07
377.152	2.02
377.515	1.98
377.879	1.99
378.242	2.03
378.606	1.96
378.969	1.95
379.333	1.98
379.696	1.96
380.059	1.94
380.422	1.91
380.786	1.87
381.149	1.87
381.512	1.84
381.875	1.82
382.238	1.81
382.601	1.79
382.964	1.73
383.327	1.76
383.69	1.72
384.053	1.75
384.416	1.69
384.779	1.7
385.142	1.66
385.504	1.62
385.867	1.62
386.23	1.61
386.593	1.62
386.955	1.58
387.318	1.57
387.68	1.59
388.043	1.58
388.405	1.57
388.768	1.54
389.13	1.54
389.493	1.53
389.855	1.5
390.217	1.52
390.58	1.51
390.942	1.46
391.304	1.48
391.666	1.46
392.028	1.43
392.391	1.39
392.753	1.37
393.115	1.37
393.477	1.34
393.839	1.32
394.201	1.31
394.563	1.3
394.924	1.3
395.286	1.3
395.648	1.3
396.01	1.3
396.371	1.33
396.733	1.33
397.095	1.34
397.456	1.37
397.818	1.38
398.18	1.4
398.541	1.44
398.903	1.46
399.264	1.47
399.625	1.5
399.987	1.54
400.348	1.55
400.709	1.6
401.071	1.57
401.432	1.58
401.793	1.6
402.154	1.56
402.515	1.54
402.876	1.56
403.238	1.49
403.599	1.47
403.96	1.43
404.32	1.38
404.681	1.35
405.042	1.28
405.403	1.24
405.764	1.18
406.125	1.12
406.485	1.07
406.846	1.01
407.207	0.97
407.567	0.92
407.928	0.88
408.288	0.84
408.649	0.79
409.009	0.75
409.37	0.71
409.73	0.68
410.091	0.65
410.451	0.6
410.811	0.57
411.171	0.55
411.532	0.52
411.892	0.51
412.252	0.48
412.612	0.46
412.972	0.44
413.332	0.42
413.692	0.4
414.052	0.38
414.412	0.38
414.772	0.36
415.132	0.35
415.492	0.34
415.851	0.33
416.211	0.32
416.571	0.31
416.931	0.3
417.29	0.3
417.65	0.29
418.009	0.28
418.369	0.27
418.728	0.26
419.088	0.26
419.447	0.25
419.807	0.25
420.166	0.25
420.525	0.24
420.884	0.22
421.244	0.23
421.603	0.23
421.962	0.22
422.321	0.22
422.68	0.21
423.039	0.21
423.398	0.21
423.757	0.2
424.116	0.21
424.475	0.21
424.834	0.2
425.193	0.2
425.551	0.19
425.91	0.2
426.269	0.19
426.628	0.19
426.986	0.19
427.345	0.18
427.703	0.18
428.062	0.19
428.42	0.18
428.779	0.18
429.137	0.18
429.496	0.17
429.854	0.17
430.212	0.18
430.57	0.18
430.929	0.18
431.287	0.17
431.645	0.17
432.003	0.18
432.361	0.17
432.719	0.17
433.077	0.17
433.435	0.17
433.793	0.17
434.151	0.17
434.509	0.18
434.866	0.18
435.224	0.17
435.582	0.17
435.94	0.18
436.297	0.16
436.655	0.17
437.012	0.17
437.37	0.17
437.727	0.17
438.085	0.18
438.442	0.17
438.8	0.17
439.157	0.17
439.514	0.18
439.872	0.17
440.229	0.18
440.586	0.17
440.943	0.18
441.3	0.18
441.657	0.18
442.014	0.18
442.371	0.18
442.728	0.18
443.085	0.18
443.442	0.18
443.799	0.18
444.156	0.18
444.513	0.18
444.869	0.18
445.226	0.19
445.583	0.18
445.939	0.19
446.296	0.19
446.652	0.19
447.009	0.2
447.365	0.18
447.722	0.19
448.078	0.2
448.434	0.2
448.791	0.2
449.147	0.2
449.503	0.2
449.859	0.2
450.215	0.2
450.571	0.2
450.928	0.2
451.284	0.21
451.64	0.21
451.995	0.21
452.351	0.21
452.707	0.22
453.063	0.22
453.419	0.22
453.775	0.21
454.13	0.21
454.486	0.23
454.842	0.22
455.197	0.21
455.553	0.23
455.908	0.23
456.264	0.23
456.619	0.22
456.975	0.22
457.33	0.24
457.685	0.24
458.04	0.24
458.396	0.25
458.751	0.24
459.106	0.24
459.461	0.26
459.816	0.24
460.171	0.25
460.526	0.24
460.881	0.25
461.236	0.26
461.591	0.27
461.946	0.26
462.301	0.26
462.655	0.27
463.01	0.27
463.365	0.27
463.719	0.27
464.074	0.26
464.428	0.28
464.783	0.27
465.137	0.28
465.492	0.29
465.846	0.28
466.201	0.28
466.555	0.28
466.909	0.28
467.263	0.29
467.618	0.29
467.972	0.3
468.326	0.3
468.68	0.31
469.034	0.31
469.388	0.32
469.742	0.31
470.096	0.32
470.45	0.32
470.804	0.33
471.157	0.32
471.511	0.33
471.865	0.33
472.218	0.34
472.572	0.34
472.926	0.35
473.279	0.35
473.633	0.35
473.986	0.37
474.34	0.36
474.693	0.37
475.046	0.37
475.4	0.38
475.753	0.38
476.106	0.39
476.459	0.4
476.812	0.4
477.165	0.4
477.519	0.41
477.872	0.41
478.224	0.42
478.577	0.43
478.93	0.42
479.283	0.43
479.636	0.44
479.989	0.45
480.341	0.45
480.694	0.46
481.047	0.46
481.399	0.46
481.752	0.47
482.104	0.47
482.457	0.49
482.809	0.48
483.162	0.49
483.514	0.49
483.866	0.49
484.219	0.5
484.571	0.51
484.923	0.52
485.275	0.52
485.627	0.52
485.979	0.52
486.331	0.53
486.683	0.53
487.035	0.53
487.387	0.54
487.739	0.55
488.091	0.55
488.443	0.56
488.794	0.56
489.146	0.57
489.498	0.57
489.849	0.58
490.201	0.59
490.552	0.59
490.904	0.59
491.255	0.6
491.607	0.59
491.958	0.6
492.309	0.61
492.661	0.61
493.012	0.62
493.363	0.63
493.714	0.62
494.065	0.63
494.416	0.64
494.767	0.65
495.118	0.65
495.469	0.65
495.82	0.66
496.171	0.66
496.522	0.67
496.872	0.68
497.223	0.68
497.574	0.69
497.924	0.68
498.275	0.69
498.626	0.7
498.976	0.71
499.327	0.7
499.677	0.7
500.027	0.72
500.378	0.72
500.728	0.72
501.078	0.73
501.428	0.73
501.779	0.74
502.129	0.74
502.479	0.76
502.829	0.75
503.179	0.76
503.529	0.76
503.879	0.77
504.229	0.77
504.578	0.79
504.928	0.79
505.278	0.78
505.628	0.8
505.977	0.8
506.327	0.8
506.676	0.81
507.026	0.81
507.375	0.82
507.725	0.81
508.074	0.83
508.424	0.82
508.773	0.83
509.122	0.84
509.471	0.84
509.82	0.84
510.17	0.85
510.519	0.87
510.868	0.87
511.217	0.86
511.566	0.87
511.915	0.88
512.263	0.88
512.612	0.89
512.961	0.89
513.31	0.89
513.659	0.9
514.007	0.9
514.356	0.9
514.704	0.91
515.053	0.92
515.401	0.92
515.75	0.92
516.098	0.92
516.447	0.93
516.795	0.94
517.143	0.93
517.491	0.94
517.839	0.94
518.188	0.94
518.536	0.95
518.884	0.95
519.232	0.96
519.58	0.95
519.928	0.96
520.275	0.96
520.623	0.96
520.971	0.98
521.319	0.98
521.666	0.98
522.014	0.98
522.362	1
522.709	0.99
523.057	0.99
523.404	1.01
523.752	1
524.099	1
524.446	1.01
524.794	1.01
525.141	1.01
525.488	1.01
525.835	1.02
526.182	1.01
526.529	1.02
526.876	1.03
527.223	1.04
527.57	1.03
527.917	1.04
528.264	1.02
528.611	1.03
528.958	1.04
529.304	1.04
529.651	1.04
529.998	1.04
530.344	1.04
530.691	1.05
531.037	1.06
531.384	1.06
531.73	1.06
532.076	1.06
532.423	1.05
532.769	1.06
533.115	1.07
533.461	1.07
533.807	1.06
534.154	1.07
534.5	1.09
534.846	1.07
535.192	1.08
535.537	1.08
535.883	1.08
536.229	1.1
536.575	1.08
536.921	1.08
537.266	1.1
537.612	1.1
537.957	1.09
538.303	1.1
538.649	1.1
538.994	1.1
539.339	1.1
539.685	1.11
540.03	1.1
540.375	1.11
540.721	1.11
541.066	1.1
541.411	1.11
541.756	1.11
542.101	1.11
542.446	1.11
542.791	1.11
543.136	1.11
543.481	1.11
543.825	1.11
544.17	1.11
544.515	1.12
544.86	1.11
545.204	1.11
545.549	1.11
545.893	1.11
546.238	1.13
546.582	1.12
546.927	1.12
547.271	1.12
547.615	1.13
547.96	1.12
548.304	1.13
548.648	1.13
548.992	1.13
549.336	1.13
549.68	1.12
550.024	1.13
550.368	1.13
550.712	1.13
551.056	1.13
551.4	1.13
551.743	1.13
552.087	1.13
552.431	1.12
552.774	1.12
553.118	1.13
553.462	1.12
553.805	1.13
554.148	1.13
554.492	1.12
554.835	1.12
555.178	1.12
555.522	1.12
555.865	1.12
556.208	1.12
556.551	1.12
556.894	1.12
557.237	1.12
557.58	1.12
557.923	1.11
558.266	1.11
558.609	1.12
558.952	1.11
559.294	1.12
559.637	1.11
559.98	1.11
560.322	1.11
560.665	1.11
561.007	1.11
561.35	1.1
561.692	1.11
562.034	1.1
562.377	1.1
562.719	1.1
563.061	1.1
563.403	1.1
563.745	1.09
564.088	1.1
564.43	1.09
564.772	1.1
565.113	1.1
565.455	1.1
565.797	1.09
566.139	1.09
566.481	1.08
566.822	1.09
567.164	1.08
567.506	1.08
567.847	1.07
568.189	1.08
568.53	1.07
568.872	1.08
569.213	1.07
569.554	1.06
569.895	1.06
570.237	1.06
570.578	1.06
570.919	1.05
571.26	1.05
571.601	1.05
571.942	1.06
572.283	1.05
572.624	1.04
572.965	1.05
573.306	1.04
573.646	1.04
573.987	1.04
574.328	1.03
574.668	1.03
575.009	1.03
575.349	1.02
575.69	1.02
576.03	1.02
576.37	1.01
576.711	1.01
577.051	1.01
577.391	1.01
577.731	1.02
578.072	1
578.412	1.01
578.752	1
579.092	1
579.431	0.99
579.771	0.97
580.111	0.96
580.451	0.97
580.791	0.98
581.13	0.99
581.47	0.98
581.81	0.99
582.149	0.98
582.489	0.97
582.828	0.96
583.167	0.94
583.507	0.9
583.846	0.89
584.185	0.92
584.525	0.94
584.864	0.97
585.203	0.97
585.542	0.98
585.881	0.96
586.22	0.97
586.559	0.96
586.898	0.94
587.236	0.94
587.575	0.93
587.914	0.94
588.252	0.95
588.591	0.95
588.93	0.95
589.268	0.95
589.607	0.94
589.945	0.94
590.283	0.94
590.622	0.95
590.96	0.95
591.298	0.95
591.636	0.95
591.974	0.95
592.313	0.94
592.651	0.95
592.989	0.95
593.326	0.95
593.664	0.94
594.002	0.94
594.34	0.94
594.678	0.93
595.015	0.93
595.353	0.92
595.691	0.93
596.028	0.94
596.366	0.94
596.703	0.94
597.04	0.93
597.378	0.93
597.715	0.94
598.052	0.94
598.389	0.94
598.726	0.93
599.064	0.93
599.401	0.93
599.738	0.93
600.074	0.93
600.411	0.92
600.748	0.92
601.085	0.91
601.422	0.91
601.758	0.91
602.095	0.91
602.432	0.91
602.768	0.9
603.105	0.91
603.441	0.91
603.777	0.92
604.114	0.91
604.45	0.91
604.786	0.9
605.122	0.91
605.459	0.9
605.795	0.9
606.131	0.89
606.467	0.9
606.803	0.89
607.139	0.89
607.474	0.89
607.81	0.88
608.146	0.88
608.482	0.89
608.817	0.88
609.153	0.88
609.488	0.87
609.824	0.87
610.159	0.87
610.495	0.87
610.83	0.86
611.165	0.86
611.5	0.86
611.836	0.86
612.171	0.86
612.506	0.86
612.841	0.85
613.176	0.84
613.511	0.84
613.845	0.84
614.18	0.84
614.515	0.84
614.85	0.84
615.184	0.83
615.519	0.82
615.854	0.82
616.188	0.82
616.523	0.82
616.857	0.81
617.191	0.81
617.526	0.8
617.86	0.81
618.194	0.8
618.528	0.8
618.862	0.8
619.196	0.8
619.53	0.79
619.864	0.79
620.198	0.79
620.532	0.79
620.866	0.79
621.2	0.78
621.533	0.77
621.867	0.78
622.201	0.77
622.534	0.77
622.868	0.77
623.201	0.77
623.534	0.76
623.868	0.76
624.201	0.75
624.534	0.75
624.868	0.75
625.201	0.74
625.534	0.74
625.867	0.74
626.2	0.73
626.533	0.73
626.865	0.73
627.198	0.72
627.531	0.73
627.864	0.71
628.196	0.72
628.529	0.71
628.862	0.71
629.194	0.7
629.527	0.7
629.859	0.69
630.191	0.69
630.524	0.69
630.856	0.68
631.188	0.68
631.52	0.68
631.852	0.67
632.184	0.66
632.516	0.66
632.848	0.66
633.18	0.66
633.512	0.65
633.844	0.65
634.175	0.65
634.507	0.64
634.839	0.64
635.17	0.63
635.502	0.63
635.833	0.63
636.165	0.62
636.496	0.61
636.827	0.61
637.159	0.61
637.49	0.6
637.821	0.59
638.152	0.6
638.483	0.59
638.814	0.59
639.145	0.58
639.476	0.58
639.807	0.58
640.137	0.58
640.468	0.57
640.799	0.57
641.129	0.56
641.46	0.56
641.791	0.56
642.121	0.55
642.451	0.54
642.782	0.54
643.112	0.54
643.442	0.54
643.773	0.54
644.103	0.53
644.433	0.53
644.763	0.53
645.093	0.53
645.423	0.52
645.753	0.52
646.082	0.51
646.412	0.51
646.742	0.51
647.072	0.5
647.401	0.51
647.731	0.5
648.06	0.5
648.39	0.5
648.719	0.49
649.048	0.49
649.378	0.49
649.707	0.48
650.036	0.48
650.365	0.48
650.694	0.48
651.023	0.48
651.352	0.47
651.681	0.47
652.01	0.47
652.339	0.47
652.668	0.47
652.996	0.47
653.325	0.47
653.654	0.47
653.982	0.47
654.311	0.47
654.639	0.47
654.967	0.46
655.296	0.46
655.624	0.46
655.952	0.45
656.28	0.45
656.609	0.45
656.937	0.45
657.265	0.44
657.593	0.32
657.92	0.21
658.248	0.17
658.576	0.2
658.904	0.3
659.231	0.39
659.559	0.44
659.887	0.43
660.214	0.43
660.542	0.43
660.869	0.43
661.196	0.43
661.524	0.43
661.851	0.42
662.178	0.42
662.505	0.42
662.832	0.42
663.159	0.42
663.486	0.41
663.813	0.41
664.14	0.41
664.467	0.41
664.794	0.41
665.12	0.41
665.447	0.4
665.774	0.4
666.1	0.4
666.427	0.4
666.753	0.4
667.079	0.4
667.406	0.39
667.732	0.39
668.058	0.39
668.384	0.39
668.71	0.38
669.036	0.38
669.362	0.38
669.688	0.38
670.014	0.38
670.34	0.37
670.666	0.37
670.991	0.36
671.317	0.36
671.643	0.36
671.968	0.36
672.294	0.36
672.619	0.35
672.945	0.35
673.27	0.35
673.595	0.35
673.92	0.34
674.246	0.34
674.571	0.34
674.896	0.34
675.221	0.33
675.546	0.33
675.87	0.33
676.195	0.33
676.52	0.32
676.845	0.32
677.169	0.31
677.494	0.32
677.819	0.31
678.143	0.31
678.468	0.31
678.792	0.3
679.116	0.3
679.44	0.3
679.765	0.29
680.089	0.29
680.413	0.29
680.737	0.29
681.061	0.28
681.385	0.28
681.709	0.28
682.033	0.27
682.356	0.27
682.68	0.27
683.004	0.27
683.327	0.26
683.651	0.26
683.974	0.26
684.298	0.26
684.621	0.25
684.944	0.25
685.268	0.25
685.591	0.24
685.914	0.24
686.237	0.24
686.56	0.24
686.883	0.23
687.206	0.23
687.529	0.22
687.852	0.22
688.175	0.22
688.497	0.22
688.82	0.22
689.142	0.22
689.465	0.21
689.787	0.21
690.11	0.21
690.432	0.2
690.755	0.2
691.077	0.2
691.399	0.2
691.721	0.2
692.043	0.2
692.365	0.2
692.687	0.19
693.009	0.19
693.331	0.19
693.653	0.18
693.974	0.19
694.296	0.18
694.618	0.18
694.939	0.18
695.261	0.17
695.582	0.17
695.904	0.17
696.225	0.17
696.546	0.17
696.868	0.16
697.189	0.16
697.51	0.16
697.831	0.16
698.152	0.16
698.473	0.16
698.794	0.15
699.114	0.15
699.435	0.14
699.756	0.14
700.077	0.15
700.397	0.15
700.718	0.15
701.038	0.15
701.359	0.15
701.679	0.15
701.999	0.15
702.32	0.14
702.64	0.14
702.96	0.14
703.28	0.14
703.6	0.14
703.92	0.14
704.24	0.14
704.56	0.13
704.879	0.13
705.199	0.13
705.519	0.13
705.838	0.13
706.158	0.14
706.478	0.14
706.797	0.14
707.116	0.14
707.436	0.13
707.755	0.13
708.074	0.13
708.393	0.13
708.712	0.12
709.031	0.11
709.35	0.11
709.669	0.11
709.988	0.11
710.307	0.11
710.626	0.12
710.944	0.13
711.263	0.12
711.582	0.13
711.9	0.13
712.219	0.12
712.537	0.12
712.855	0.13
713.174	0.13
713.492	0.12
713.81	0.13
714.128	0.12
714.446	0.12
714.764	0.12
715.082	0.11
715.4	0.12
715.718	0.12
716.035	0.12
716.353	0.12
716.671	0.12
716.988	0.12
717.306	0.12
717.623	0.12
717.941	0.13
718.258	0.13
718.575	0.13
718.893	0.13
719.21	0.13
719.527	0.13
719.844	0.13
720.161	0.13
720.478	0.13
720.795	0.13
721.112	0.13
721.428	0.13
721.745	0.13
722.062	0.13
722.378	0.13
722.695	0.13
723.011	0.13
723.328	0.13
723.644	0.13
723.96	0.14
724.276	0.14
724.593	0.14
724.909	0.14
725.225	0.13
725.541	0.14
725.857	0.14
726.173	0.14
726.488	0.14
726.804	0.13
727.12	0.13
727.435	0.13
727.751	0.13
728.067	0.13
728.382	0.13
728.697	0.13
729.013	0.13
729.328	0.13
729.643	0.13
729.958	0.13
730.273	0.13
730.588	0.13
730.903	0.14
731.218	0.13
731.533	0.13
731.848	0.13
732.163	0.13
732.477	0.13
732.792	0.13
733.107	0.12
733.421	0.13
733.736	0.13
734.05	0.13
734.364	0.13
734.678	0.13
734.993	0.12
735.307	0.13
735.621	0.12
735.935	0.12
736.249	0.13
736.563	0.12
736.877	0.13
737.19	0.12
737.504	0.12
737.818	0.12
738.131	0.12
738.445	0.12
738.758	0.12
739.072	0.12
739.385	0.12
739.698	0.12
740.012	0.12
740.325	0.12
740.638	0.12
740.951	0.12
741.264	0.11
741.577	0.12
741.89	0.12
742.203	0.12
742.515	0.12
742.828	0.12
743.141	0.12
743.453	0.11
743.766	0.11
744.078	0.11
744.391	0.11
744.703	0.11
745.015	0.11
745.327	0.11
745.639	0.11
745.952	0.11
746.264	0.1
746.575	0.1
746.887	0.1
747.199	0.1
747.511	0.1
747.823	0.1
748.134	0.1
748.446	0.09
748.757	0.09
749.069	0.09
749.38	0.09
749.692	0.09
750.003	0.09
750.314	0.09
750.625	0.09
750.936	0.09
751.248	0.09
751.559	0.09
751.869	0.09
752.18	0.09
752.491	0.09
752.802	0.09
753.112	0.09
753.423	0.08
753.734	0.09
754.044	0.09
754.355	0.09
754.665	0.08
754.975	0.08
755.285	0.08
755.596	0.08
755.906	0.08
756.216	0.08
756.526	0.08
756.836	0.08
757.146	0.08
757.455	0.08
757.765	0.08
758.075	0.07
758.385	0.07
758.694	0.07
759.004	0.07
759.313	0.07
759.622	0.07
759.932	0.07
760.241	0.07
760.55	0.08
760.859	0.07
761.168	0.07
761.477	0.07
761.786	0.07
762.095	0.07
762.404	0.07
762.713	0.07
763.021	0.07
763.33	0.07
763.639	0.07
763.947	0.07
764.256	0.07
764.564	0.07
764.872	0.07
765.181	0.07
765.489	0.07
765.797	0.06
766.105	0.07
766.413	0.06
766.721	0.06
767.029	0.07
767.337	0.07
767.644	0.07
767.952	0.07
768.26	0.07
768.567	0.07
768.875	0.07
769.182	0.07
769.49	0.07
769.797	0.07
770.104	0.07
770.411	0.07
770.718	0.06
771.026	0.06
771.333	0.06
771.639	0.07
771.946	0.07
772.253	0.07
772.56	0.07
772.867	0.07
773.173	0.07
773.48	0.07
773.786	0.07
774.093	0.06
774.399	0.07
774.705	0.07
775.012	0.07
775.318	0.07
775.624	0.07
775.93	0.07
776.236	0.07
776.542	0.07
776.848	0.07
777.154	0.07
777.459	0.07
777.765	0.07
778.071	0.07
778.376	0.07
778.682	0.07
778.987	0.07
779.292	0.07
779.598	0.07
779.903	0.07
780.208	0.07
780.513	0.07
780.818	0.07
781.123	0.07
781.428	0.07
781.733	0.07
782.038	0.07
782.343	0.07
782.647	0.07
782.952	0.07
783.256	0.07
783.561	0.07
783.865	0.07
784.17	0.08
784.474	0.08
784.778	0.08
785.082	0.08
785.386	0.08
785.69	0.08
785.994	0.08
786.298	0.08
786.602	0.08
786.906	0.08
787.209	0.08
787.513	0.08
787.817	0.08
788.12	0.08
788.424	0.08
788.727	0.08
789.03	0.08
789.333	0.08
789.637	0.08
789.94	0.08
790.243	0.08
790.546	0.08
790.849	0.08
791.152	0.08
791.454	0.08
791.757	0.08
792.06	0.09
792.362	0.09
792.665	0.09
792.967	0.09
793.27	0.09
793.572	0.09
793.874	0.08
794.177	0.08
794.479	0.09
794.781	0.08
795.083	0.08
795.385	0.09
795.687	0.08
795.989	0.08
796.29	0.08
796.592	0.09
796.894	0.09
797.195	0.1
797.497	0.1
797.798	0.1
798.1	0.1
798.401	0.1
798.702	0.09
799.003	0.09
799.304	0.09
799.605	0.09
799.906	0.09
800.207	0.09
800.508	0.09
800.809	0.09
801.11	0.09
801.41	0.1
801.711	0.1
802.011	0.09
802.312	0.1
802.612	0.1
802.913	0.1
803.213	0.1
803.513	0.1
803.813	0.09
804.113	0.09
804.413	0.09
804.713	0.09
805.013	0.09
805.313	0.1
805.613	0.1
805.912	0.1
806.212	0.09
806.511	0.1
806.811	0.1
807.11	0.1
807.41	0.11
807.709	0.11
808.008	0.1
808.307	0.1
808.606	0.11
808.905	0.1
809.204	0.11
809.503	0.11
809.802	0.11
810.101	0.11
810.399	0.11
810.698	0.11
810.997	0.11
811.295	0.1
811.593	0.11
811.892	0.11
812.19	0.11
812.488	0.1
812.786	0.1
813.084	0.1
813.383	0.11
813.68	0.1
813.978	0.11
814.276	0.11
814.574	0.11
814.872	0.12
815.169	0.12
815.467	0.12
815.764	0.12
816.062	0.12
816.359	0.12
816.656	0.13
816.954	0.13
817.251	0.12
817.548	0.13
817.845	0.13
818.142	0.12
818.439	0.12
818.735	0.12
819.032	0.12
819.329	0.12
819.626	0.12
819.922	0.13
820.219	0.13
820.515	0.13
820.811	0.13
821.108	0.13
821.404	0.13
821.7	0.13
821.996	0.13
822.292	0.13
822.588	0.13
822.884	0.13
823.18	0.13
823.475	0.14
823.771	0.14
824.067	0.13
824.362	0.13
824.658	0.13
824.953	0.13
825.249	0.13
825.544	0.13
825.839	0.13
826.134	0.13
826.429	0.13
826.724	0.13
827.019	0.13
827.314	0.14
827.609	0.13
827.904	0.14
828.198	0.14
828.493	0.14
828.787	0.14
829.082	0.14
829.376	0.14
829.671	0.14
829.965	0.14
830.259	0.15
830.553	0.15
830.847	0.14
831.141	0.15
831.435	0.15
831.729	0.15
832.023	0.15
832.317	0.15
832.61	0.15
832.904	0.15
833.197	0.15
833.491	0.15
833.784	0.15
834.077	0.15
834.371	0.15
834.664	0.15
834.957	0.15
835.25	0.15
835.543	0.15
835.836	0.15
836.129	0.14
836.421	0.15
836.714	0.15
837.007	0.15
837.299	0.16
837.592	0.15
837.884	0.16
838.177	0.16
838.469	0.16
838.761	0.16
839.053	0.16
839.345	0.16
839.637	0.16
839.929	0.17
840.221	0.17
840.513	0.16
840.805	0.16
841.096	0.16
841.388	0.16
841.68	0.17
841.971	0.16
842.262	0.16
842.554	0.17
842.845	0.16
843.136	0.17
843.427	0.17
843.718	0.17
844.009	0.17
844.3	0.18
844.591	0.17
844.882	0.16
845.173	0.17
845.463	0.17
845.754	0.17
846.044	0.18
846.335	0.18
846.625	0.18
846.915	0.18
847.206	0.18
847.496	0.19
847.786	0.19
848.076	0.19
848.366	0.18
848.656	0.19
848.945	0.18
849.235	0.17
849.525	0.17
849.814	0.18
850.104	0.19
850.393	0.19
850.683	0.18
850.972	0.18
851.261	0.19
851.551	0.19
851.84	0.19
852.129	0.19
852.418	0.19
852.707	0.2
852.995	0.18
853.284	0.19
853.573	0.19
853.862	0.19
854.15	0.18
854.439	0.19
854.727	0.19
855.015	0.19
855.304	0.19
855.592	0.2
855.88	0.19
856.168	0.19
856.456	0.18
856.744	0.21
857.032	0.21
857.32	0.2
857.607	0.21
857.895	0.19
858.183	0.2
858.47	0.19
858.757	0.2
859.045	0.21
859.332	0.22
859.619	0.19
859.907	0.21
860.194	0.21
860.481	0.2
860.768	0.2
861.054	0.22
861.341	0.21
861.628	0.21
861.915	0.22
862.201	0.22
862.488	0.21
862.774	0.21
863.061	0.2
863.347	0.2
863.633	0.21
863.919	0.2
864.205	0.19
864.491	0.21
864.777	0.22
865.063	0.22
865.349	0.22
865.635	0.23
865.92	0.2
866.206	0.21
866.492	0.25
866.777	0.22
867.062	0.23
867.348	0.21
867.633	0.2
867.918	0.22
868.203	0.21
868.488	0.21
868.773	0.21
869.058	0.19
869.343	0.22
869.628	0.22
869.912	0.2
870.197	0.2
870.482	0.22
870.766	0.21
871.05	0.17
871.335	0.2
871.619	0.21
871.903	0.23
872.187	0.19
872.471	0.23
872.755	0.14
873.039	0.2
873.323	0.21
873.607	0.21
873.89	0.27
874.174	0.22
874.458	0.21
874.741	0.24
875.024	0.18
875.308	0.22
875.591	0.2
875.874	0.21
876.157	0.3
876.44	0.29
876.723	0.26
877.006	0.2
877.289	0.2
877.572	0.22
877.854	0.22
878.137	0.23
878.42	0.13
878.702	0.26
878.984	0.23
879.267	0.19
879.549	0.21
879.831	0.22
880.113	0.2
880.395	0.16
880.677	0.09
880.959	0.18
