Data from Rubpy_BV_1500_EDTA_Buffered_Absorbance_14-25-44-745.txt Node
Date: Wed Jul 01 14:25:44 BST 2026
User: fpm-admin
Spectrometer: OFX00224
Trigger mode: 0
Integration Time (sec): 7.000000E-2
Scans to average: 3
Nonlinearity correction enabled: false
Boxcar width: 0
Storing dark spectrum: false
XAxis mode: Wavelengths
Number of Pixels in Spectrum: 2136
>>>>>Begin Spectral Data<<<<<
154.91	1.08
155.289	0.87
155.669	-0
156.048	-0.39
156.428	-0
156.807	0.78
157.186	-0
157.566	1.34
157.945	-0
158.325	0.2
158.704	-0
159.083	0.03
159.462	0.43
159.842	-0
160.221	-0.16
160.6	-0
160.979	-0.36
161.359	-0.18
161.738	-0
162.117	-0.34
162.496	-0.59
162.875	-0.49
163.254	0.03
163.633	-0.3
164.012	-0.19
164.391	-0.2
164.77	-0.04
165.149	0.11
165.528	-0
165.907	-0.18
166.286	-0.75
166.665	-0
167.044	-0
167.423	-0
167.802	-0
168.181	0.4
168.559	0.08
168.938	-0.09
169.317	0.28
169.696	0.15
170.074	-0.24
170.453	0.14
170.832	0.04
171.21	-0.06
171.589	0.66
171.968	-0.57
172.346	-0
172.725	-0
173.103	0.28
173.482	-0
173.861	0.87
174.239	-1.27
174.617	-0
174.996	0.08
175.374	-0.1
175.753	-0.63
176.131	-0
176.51	0.59
176.888	-0
177.266	-0
177.645	0.02
178.023	-0
178.401	-0.17
178.779	0.05
179.158	-0.04
179.536	-0.11
179.914	0.1
180.292	0.37
180.67	-0
181.048	0.09
181.427	0.26
181.805	0.04
182.183	-0
182.561	0.26
182.939	-0
183.317	0.16
183.695	0.04
184.073	-0
184.451	0.56
184.829	-0
185.206	-0.1
185.584	0.54
185.962	-0
186.34	-0
186.718	-0.4
187.096	-0
187.473	-0.12
187.851	-0
188.229	-0
188.607	0.14
188.984	0.17
189.362	0.17
189.74	0.33
190.117	0.15
190.495	0.21
190.872	0.18
191.25	0.34
191.627	0.17
192.005	0.21
192.382	0.35
192.76	0.19
193.137	0.1
193.515	0.1
193.892	0.07
194.269	0.05
194.647	0.27
195.024	0.09
195.401	0.11
195.779	0.1
196.156	0.16
196.533	0.28
196.91	0.14
197.288	0.26
197.665	0.17
198.042	0.21
198.419	0.3
198.796	0.15
199.173	0.13
199.55	0.17
199.927	0.27
200.304	0.18
200.681	0.29
201.058	0.17
201.435	0.19
201.812	0.37
202.189	0.17
202.566	0.25
202.943	0.06
203.32	0.18
203.697	0.23
204.073	0.2
204.45	0.25
204.827	0.27
205.204	0.15
205.58	0.15
205.957	0.23
206.334	0.26
206.71	0.16
207.087	0.32
207.464	0.18
207.84	0.14
208.217	0.2
208.593	0.21
208.97	0.32
209.346	0.32
209.723	0.15
210.099	0.21
210.476	0.15
210.852	0.2
211.228	0.25
211.605	0.23
211.981	0.2
212.357	0.22
212.733	0.09
213.11	0.15
213.486	0.26
213.862	0.14
214.238	0.22
214.614	0.16
214.991	0.19
215.367	0.21
215.743	0.18
216.119	0.28
216.495	0.19
216.871	0.29
217.247	0.15
217.623	0.16
217.999	0.1
218.375	0.27
218.751	0.25
219.127	0.18
219.502	0.24
219.878	0.24
220.254	0.2
220.63	0.33
221.006	0.3
221.381	0.35
221.757	0.33
222.133	0.24
222.508	0.31
222.884	0.37
223.26	0.24
223.635	0.22
224.011	0.49
224.386	0.41
224.762	0.3
225.137	0.22
225.513	0.27
225.888	0.33
226.264	0.3
226.639	0.16
227.014	0.22
227.39	0.21
227.765	0.29
228.14	0.29
228.516	0.35
228.891	0.27
229.266	0.26
229.641	0.33
230.017	0.24
230.392	0.2
230.767	0.2
231.142	0.2
231.517	0.17
231.892	0.35
232.267	0.14
232.642	0.26
233.017	0.22
233.392	0.31
233.767	0.25
234.142	0.24
234.517	0.33
234.892	0.28
235.267	0.26
235.641	0.23
236.016	0.22
236.391	0.34
236.766	0.23
237.14	0.32
237.515	0.26
237.89	0.28
238.264	0.39
238.639	0.28
239.014	0.22
239.388	0.17
239.763	0.26
240.137	0.13
240.512	0.32
240.886	0.27
241.261	0.27
241.635	0.18
242.009	0.27
242.384	0.37
242.758	0.25
243.132	0.18
243.507	0.21
243.881	0.14
244.255	0.2
244.629	0.2
245.004	0.24
245.378	0.23
245.752	0.25
246.126	0.36
246.5	0.24
246.874	0.2
247.248	0.25
247.622	0.12
247.996	0.23
248.37	0.27
248.744	0.25
249.118	0.34
249.492	0.23
249.866	0.16
250.24	0.21
250.613	0.25
250.987	0.29
251.361	0.21
251.735	0.56
252.108	0.41
252.482	0.22
252.856	0.29
253.229	0.25
253.603	0.24
253.977	0.26
254.35	0.29
254.724	0.24
255.097	0.23
255.471	0.24
255.844	0.25
256.218	0.23
256.591	0.24
256.964	0.25
257.338	0.21
257.711	0.28
258.084	0.27
258.458	0.21
258.831	0.37
259.204	0.3
259.577	0.29
259.95	0.24
260.323	0.26
260.697	0.17
261.07	0.24
261.443	0.27
261.816	0.27
262.189	0.35
262.562	0.18
262.935	0.25
263.308	0.2
263.68	0.2
264.053	0.21
264.426	0.29
264.799	0.32
265.172	0.24
265.545	0.33
265.917	0.23
266.29	0.33
266.663	0.28
267.035	0.26
267.408	0.21
267.781	0.34
268.153	0.29
268.526	0.29
268.898	0.2
269.271	0.23
269.643	0.36
270.016	0.22
270.388	0.32
270.76	0.22
271.133	0.24
271.505	0.31
271.877	0.23
272.25	0.27
272.622	0.34
272.994	0.31
273.366	0.25
273.739	0.29
274.111	0.35
274.483	0.24
274.855	0.27
275.227	0.35
275.599	0.21
275.971	0.28
276.343	0.23
276.715	0.26
277.087	0.31
277.459	0.21
277.831	0.36
278.203	0.31
278.574	0.31
278.946	0.25
279.318	0.29
279.69	0.24
280.061	0.3
280.433	0.17
280.805	0.19
281.176	0.3
281.548	0.32
281.92	0.3
282.291	0.29
282.663	0.26
283.034	0.29
283.406	0.24
283.777	0.22
284.148	0.19
284.52	0.24
284.891	0.28
285.262	0.31
285.634	0.22
286.005	0.31
286.376	0.32
286.747	0.27
287.119	0.29
287.49	0.21
287.861	0.26
288.232	0.33
288.603	0.25
288.974	0.31
289.345	0.27
289.716	0.2
290.087	0.23
290.458	0.32
290.829	0.23
291.2	0.24
291.571	0.2
291.941	0.23
292.312	0.28
292.683	0.31
293.054	0.29
293.424	0.31
293.795	0.21
294.166	0.28
294.536	0.26
294.907	0.23
295.277	0.26
295.648	0.2
296.018	0.19
296.389	0.22
296.759	0.3
297.13	0.32
297.5	0.28
297.871	0.23
298.241	0.22
298.611	0.4
298.981	0.29
299.352	0.22
299.722	0.26
300.092	0.27
300.462	0.31
300.832	0.27
301.202	0.34
301.573	0.24
301.943	0.2
302.313	0.27
302.683	0.26
303.053	0.38
303.422	0.24
303.792	0.26
304.162	0.27
304.532	0.3
304.902	0.25
305.272	0.19
305.641	0.26
306.011	0.27
306.381	0.21
306.75	0.23
307.12	0.25
307.49	0.26
307.859	0.21
308.229	0.24
308.598	0.25
308.968	0.17
309.337	0.19
309.707	0.17
310.076	0.2
310.445	0.19
310.815	0.19
311.184	0.2
311.553	0.17
311.923	0.18
312.292	0.19
312.661	0.21
313.03	0.22
313.399	0.2
313.768	0.2
314.137	0.2
314.506	0.18
314.875	0.22
315.244	0.22
315.613	0.23
315.982	0.23
316.351	0.2
316.72	0.21
317.089	0.22
317.458	0.24
317.826	0.21
318.195	0.22
318.564	0.22
318.933	0.24
319.301	0.23
319.67	0.25
320.038	0.24
320.407	0.26
320.775	0.25
321.144	0.25
321.512	0.27
321.881	0.27
322.249	0.28
322.618	0.27
322.986	0.27
323.354	0.27
323.723	0.28
324.091	0.29
324.459	0.28
324.827	0.28
325.195	0.3
325.564	0.3
325.932	0.3
326.3	0.3
326.668	0.31
327.036	0.32
327.404	0.33
327.772	0.33
328.14	0.33
328.508	0.35
328.875	0.34
329.243	0.35
329.611	0.36
329.979	0.36
330.346	0.36
330.714	0.36
331.082	0.37
331.449	0.38
331.817	0.39
332.185	0.39
332.552	0.4
332.92	0.41
333.287	0.42
333.655	0.42
334.022	0.43
334.389	0.43
334.757	0.45
335.124	0.44
335.491	0.47
335.859	0.47
336.226	0.48
336.593	0.49
336.96	0.51
337.327	0.5
337.695	0.52
338.062	0.52
338.429	0.53
338.796	0.54
339.163	0.55
339.53	0.56
339.897	0.57
340.263	0.58
340.63	0.6
340.997	0.6
341.364	0.62
341.731	0.62
342.097	0.63
342.464	0.64
342.831	0.65
343.197	0.67
343.564	0.68
343.931	0.69
344.297	0.69
344.664	0.71
345.03	0.73
345.396	0.72
345.763	0.74
346.129	0.75
346.496	0.76
346.862	0.76
347.228	0.78
347.594	0.79
347.961	0.8
348.327	0.81
348.693	0.81
349.059	0.83
349.425	0.84
349.791	0.85
350.157	0.86
350.523	0.87
350.889	0.87
351.255	0.88
351.621	0.9
351.987	0.9
352.353	0.92
352.719	0.94
353.084	0.95
353.45	0.94
353.816	0.97
354.181	0.96
354.547	0.98
354.913	0.99
355.278	1.01
355.644	1.01
356.009	1.03
356.375	1.05
356.74	1.07
357.106	1.07
357.471	1.08
357.836	1.1
358.202	1.11
358.567	1.12
358.932	1.13
359.297	1.15
359.663	1.16
360.028	1.18
360.393	1.18
360.758	1.22
361.123	1.23
361.488	1.23
361.853	1.25
362.218	1.27
362.583	1.26
362.948	1.29
363.312	1.32
363.677	1.33
364.042	1.33
364.407	1.37
364.772	1.38
365.136	1.37
365.501	1.38
365.865	1.41
366.23	1.39
366.595	1.41
366.959	1.44
367.324	1.43
367.688	1.44
368.052	1.47
368.417	1.46
368.781	1.48
369.145	1.51
369.51	1.5
369.874	1.5
370.238	1.51
370.602	1.5
370.967	1.51
371.331	1.53
371.695	1.51
372.059	1.54
372.423	1.53
372.787	1.53
373.151	1.52
373.515	1.53
373.878	1.53
374.242	1.49
374.606	1.51
374.97	1.49
375.334	1.47
375.697	1.49
376.061	1.45
376.425	1.45
376.788	1.43
377.152	1.43
377.515	1.41
377.879	1.41
378.242	1.38
378.606	1.37
378.969	1.34
379.333	1.35
379.696	1.31
380.059	1.3
380.422	1.29
380.786	1.28
381.149	1.27
381.512	1.24
381.875	1.22
382.238	1.21
382.601	1.2
382.964	1.19
383.327	1.16
383.69	1.15
384.053	1.14
384.416	1.15
384.779	1.13
385.142	1.12
385.504	1.11
385.867	1.09
386.23	1.08
386.593	1.08
386.955	1.06
387.318	1.06
387.68	1.05
388.043	1.06
388.405	1.05
388.768	1.05
389.13	1.04
389.493	1.03
389.855	1.03
390.217	1.01
390.58	1.02
390.942	1
391.304	0.99
391.666	0.97
392.028	0.95
392.391	0.96
392.753	0.93
393.115	0.92
393.477	0.91
393.839	0.9
394.201	0.88
394.563	0.88
394.924	0.88
395.286	0.88
395.648	0.88
396.01	0.88
396.371	0.89
396.733	0.91
397.095	0.92
397.456	0.93
397.818	0.94
398.18	0.96
398.541	0.98
398.903	1
399.264	1.02
399.625	1.04
399.987	1.06
400.348	1.07
400.709	1.09
401.071	1.1
401.432	1.11
401.793	1.1
402.154	1.09
402.515	1.08
402.876	1.07
403.238	1.04
403.599	1.02
403.96	0.99
404.32	0.95
404.681	0.93
405.042	0.89
405.403	0.86
405.764	0.81
406.125	0.78
406.485	0.74
406.846	0.7
407.207	0.66
407.567	0.63
407.928	0.61
408.288	0.57
408.649	0.53
409.009	0.51
409.37	0.48
409.73	0.45
410.091	0.43
410.451	0.41
410.811	0.39
411.171	0.37
411.532	0.35
411.892	0.34
412.252	0.32
412.612	0.31
412.972	0.29
413.332	0.28
413.692	0.28
414.052	0.26
414.412	0.25
414.772	0.24
415.132	0.23
415.492	0.23
415.851	0.21
416.211	0.21
416.571	0.2
416.931	0.2
417.29	0.19
417.65	0.19
418.009	0.19
418.369	0.19
418.728	0.18
419.088	0.17
419.447	0.17
419.807	0.16
420.166	0.16
420.525	0.15
420.884	0.15
421.244	0.15
421.603	0.15
421.962	0.15
422.321	0.15
422.68	0.14
423.039	0.14
423.398	0.14
423.757	0.14
424.116	0.14
424.475	0.14
424.834	0.13
425.193	0.12
425.551	0.13
425.91	0.13
426.269	0.12
426.628	0.12
426.986	0.13
427.345	0.12
427.703	0.12
428.062	0.12
428.42	0.12
428.779	0.12
429.137	0.12
429.496	0.11
429.854	0.12
430.212	0.11
430.57	0.12
430.929	0.11
431.287	0.11
431.645	0.11
432.003	0.11
432.361	0.1
432.719	0.12
433.077	0.12
433.435	0.12
433.793	0.11
434.151	0.11
434.509	0.11
434.866	0.11
435.224	0.11
435.582	0.11
435.94	0.12
436.297	0.11
436.655	0.1
437.012	0.11
437.37	0.11
437.727	0.11
438.085	0.11
438.442	0.11
438.8	0.11
439.157	0.11
439.514	0.11
439.872	0.11
440.229	0.11
440.586	0.11
440.943	0.11
441.3	0.11
441.657	0.11
442.014	0.11
442.371	0.12
442.728	0.11
443.085	0.12
443.442	0.11
443.799	0.11
444.156	0.11
444.513	0.11
444.869	0.12
445.226	0.13
445.583	0.12
445.939	0.12
446.296	0.13
446.652	0.12
447.009	0.12
447.365	0.12
447.722	0.12
448.078	0.13
448.434	0.12
448.791	0.13
449.147	0.12
449.503	0.12
449.859	0.13
450.215	0.13
450.571	0.13
450.928	0.13
451.284	0.13
451.64	0.13
451.995	0.13
452.351	0.14
452.707	0.14
453.063	0.13
453.419	0.13
453.775	0.13
454.13	0.14
454.486	0.14
454.842	0.14
455.197	0.13
455.553	0.14
455.908	0.14
456.264	0.14
456.619	0.15
456.975	0.13
457.33	0.15
457.685	0.14
458.04	0.15
458.396	0.15
458.751	0.15
459.106	0.15
459.461	0.16
459.816	0.15
460.171	0.15
460.526	0.15
460.881	0.16
461.236	0.15
461.591	0.16
461.946	0.16
462.301	0.16
462.655	0.17
463.01	0.17
463.365	0.16
463.719	0.16
464.074	0.16
464.428	0.16
464.783	0.16
465.137	0.17
465.492	0.18
465.846	0.17
466.201	0.17
466.555	0.17
466.909	0.17
467.263	0.17
467.618	0.18
467.972	0.19
468.326	0.19
468.68	0.18
469.034	0.19
469.388	0.19
469.742	0.19
470.096	0.19
470.45	0.2
470.804	0.21
471.157	0.2
471.511	0.2
471.865	0.21
472.218	0.21
472.572	0.21
472.926	0.21
473.279	0.22
473.633	0.22
473.986	0.22
474.34	0.23
474.693	0.23
475.046	0.23
475.4	0.23
475.753	0.24
476.106	0.25
476.459	0.24
476.812	0.25
477.165	0.25
477.519	0.25
477.872	0.25
478.224	0.26
478.577	0.26
478.93	0.27
479.283	0.27
479.636	0.27
479.989	0.28
480.341	0.27
480.694	0.28
481.047	0.28
481.399	0.28
481.752	0.29
482.104	0.3
482.457	0.3
482.809	0.3
483.162	0.3
483.514	0.3
483.866	0.31
484.219	0.31
484.571	0.32
484.923	0.32
485.275	0.33
485.627	0.32
485.979	0.33
486.331	0.32
486.683	0.34
487.035	0.33
487.387	0.33
487.739	0.34
488.091	0.35
488.443	0.35
488.794	0.35
489.146	0.35
489.498	0.36
489.849	0.36
490.201	0.36
490.552	0.37
490.904	0.37
491.255	0.37
491.607	0.37
491.958	0.38
492.309	0.38
492.661	0.38
493.012	0.39
493.363	0.38
493.714	0.39
494.065	0.39
494.416	0.4
494.767	0.4
495.118	0.41
495.469	0.41
495.82	0.41
496.171	0.42
496.522	0.41
496.872	0.42
497.223	0.42
497.574	0.42
497.924	0.43
498.275	0.43
498.626	0.43
498.976	0.44
499.327	0.44
499.677	0.44
500.027	0.45
500.378	0.45
500.728	0.45
501.078	0.46
501.428	0.46
501.779	0.46
502.129	0.47
502.479	0.46
502.829	0.47
503.179	0.47
503.529	0.47
503.879	0.48
504.229	0.48
504.578	0.49
504.928	0.49
505.278	0.49
505.628	0.5
505.977	0.5
506.327	0.5
506.676	0.5
507.026	0.51
507.375	0.51
507.725	0.51
508.074	0.52
508.424	0.52
508.773	0.52
509.122	0.52
509.471	0.53
509.82	0.53
510.17	0.52
510.519	0.53
510.868	0.54
511.217	0.54
511.566	0.54
511.915	0.54
512.263	0.54
512.612	0.56
512.961	0.55
513.31	0.55
513.659	0.56
514.007	0.56
514.356	0.56
514.704	0.56
515.053	0.57
515.401	0.58
515.75	0.58
516.098	0.57
516.447	0.58
516.795	0.58
517.143	0.58
517.491	0.58
517.839	0.58
518.188	0.59
518.536	0.59
518.884	0.6
519.232	0.59
519.58	0.6
519.928	0.6
520.275	0.6
520.623	0.6
520.971	0.61
521.319	0.61
521.666	0.61
522.014	0.61
522.362	0.62
522.709	0.62
523.057	0.62
523.404	0.62
523.752	0.62
524.099	0.63
524.446	0.64
524.794	0.63
525.141	0.63
525.488	0.64
525.835	0.63
526.182	0.64
526.529	0.64
526.876	0.65
527.223	0.65
527.57	0.64
527.917	0.64
528.264	0.65
528.611	0.65
528.958	0.65
529.304	0.66
529.651	0.65
529.998	0.66
530.344	0.65
530.691	0.66
531.037	0.66
531.384	0.66
531.73	0.66
532.076	0.66
532.423	0.67
532.769	0.67
533.115	0.66
533.461	0.67
533.807	0.67
534.154	0.68
534.5	0.68
534.846	0.68
535.192	0.67
535.537	0.67
535.883	0.67
536.229	0.68
536.575	0.68
536.921	0.68
537.266	0.69
537.612	0.69
537.957	0.69
538.303	0.69
538.649	0.69
538.994	0.69
539.339	0.69
539.685	0.7
540.03	0.69
540.375	0.7
540.721	0.68
541.066	0.69
541.411	0.7
541.756	0.7
542.101	0.7
542.446	0.7
542.791	0.69
543.136	0.69
543.481	0.69
543.825	0.7
544.17	0.7
544.515	0.7
544.86	0.71
545.204	0.7
545.549	0.7
545.893	0.7
546.238	0.71
546.582	0.71
546.927	0.71
547.271	0.7
547.615	0.71
547.96	0.71
548.304	0.71
548.648	0.71
548.992	0.71
549.336	0.71
549.68	0.71
550.024	0.72
550.368	0.71
550.712	0.71
551.056	0.71
551.4	0.71
551.743	0.71
552.087	0.71
552.431	0.7
552.774	0.71
553.118	0.71
553.462	0.71
553.805	0.71
554.148	0.71
554.492	0.71
554.835	0.71
555.178	0.71
555.522	0.71
555.865	0.71
556.208	0.71
556.551	0.71
556.894	0.7
557.237	0.71
557.58	0.7
557.923	0.7
558.266	0.7
558.609	0.7
558.952	0.7
559.294	0.7
559.637	0.7
559.98	0.71
560.322	0.7
560.665	0.7
561.007	0.7
561.35	0.7
561.692	0.7
562.034	0.7
562.377	0.69
562.719	0.7
563.061	0.7
563.403	0.69
563.745	0.7
564.088	0.69
564.43	0.69
564.772	0.69
565.113	0.69
565.455	0.69
565.797	0.68
566.139	0.69
566.481	0.69
566.822	0.68
567.164	0.68
567.506	0.68
567.847	0.69
568.189	0.68
568.53	0.67
568.872	0.68
569.213	0.68
569.554	0.67
569.895	0.68
570.237	0.67
570.578	0.67
570.919	0.67
571.26	0.66
571.601	0.67
571.942	0.66
572.283	0.66
572.624	0.66
572.965	0.66
573.306	0.66
573.646	0.65
573.987	0.65
574.328	0.65
574.668	0.65
575.009	0.65
575.349	0.64
575.69	0.64
576.03	0.64
576.37	0.64
576.711	0.63
577.051	0.64
577.391	0.64
577.731	0.64
578.072	0.63
578.412	0.63
578.752	0.63
579.092	0.63
579.431	0.62
579.771	0.6
580.111	0.59
580.451	0.6
580.791	0.62
581.13	0.62
581.47	0.62
581.81	0.62
582.149	0.62
582.489	0.62
582.828	0.6
583.167	0.58
583.507	0.54
583.846	0.53
584.185	0.56
584.525	0.58
584.864	0.6
585.203	0.61
585.542	0.61
585.881	0.61
586.22	0.61
586.559	0.6
586.898	0.59
587.236	0.58
587.575	0.58
587.914	0.59
588.252	0.6
588.591	0.6
588.93	0.6
589.268	0.6
589.607	0.6
589.945	0.59
590.283	0.6
590.622	0.6
590.96	0.6
591.298	0.6
591.636	0.6
591.974	0.61
592.313	0.6
592.651	0.6
592.989	0.6
593.326	0.6
593.664	0.6
594.002	0.6
594.34	0.6
594.678	0.59
595.015	0.59
595.353	0.58
595.691	0.59
596.028	0.6
596.366	0.6
596.703	0.6
597.04	0.6
597.378	0.6
597.715	0.6
598.052	0.6
598.389	0.6
598.726	0.6
599.064	0.6
599.401	0.59
599.738	0.59
600.074	0.59
600.411	0.59
600.748	0.59
601.085	0.58
601.422	0.58
601.758	0.58
602.095	0.58
602.432	0.58
602.768	0.58
603.105	0.58
603.441	0.58
603.777	0.59
604.114	0.58
604.45	0.58
604.786	0.58
605.122	0.58
605.459	0.58
605.795	0.57
606.131	0.57
606.467	0.58
606.803	0.57
607.139	0.57
607.474	0.57
607.81	0.56
608.146	0.57
608.482	0.57
608.817	0.56
609.153	0.56
609.488	0.56
609.824	0.55
610.159	0.55
610.495	0.55
610.83	0.55
611.165	0.55
611.5	0.55
611.836	0.55
612.171	0.55
612.506	0.55
612.841	0.55
613.176	0.54
613.511	0.54
613.845	0.54
614.18	0.54
614.515	0.54
614.85	0.54
615.184	0.53
615.519	0.53
615.854	0.53
616.188	0.53
616.523	0.53
616.857	0.52
617.191	0.52
617.526	0.52
617.86	0.52
618.194	0.52
618.528	0.52
618.862	0.52
619.196	0.52
619.53	0.52
619.864	0.51
620.198	0.51
620.532	0.51
620.866	0.51
621.2	0.51
621.533	0.5
621.867	0.5
622.201	0.5
622.534	0.5
622.868	0.5
623.201	0.5
623.534	0.49
623.868	0.49
624.201	0.49
624.534	0.49
624.868	0.49
625.201	0.48
625.534	0.48
625.867	0.48
626.2	0.47
626.533	0.48
626.865	0.47
627.198	0.47
627.531	0.47
627.864	0.46
628.196	0.46
628.529	0.46
628.862	0.45
629.194	0.45
629.527	0.45
629.859	0.45
630.191	0.44
630.524	0.44
630.856	0.44
631.188	0.44
631.52	0.43
631.852	0.43
632.184	0.43
632.516	0.42
632.848	0.43
633.18	0.43
633.512	0.42
633.844	0.42
634.175	0.42
634.507	0.41
634.839	0.41
635.17	0.41
635.502	0.4
635.833	0.4
636.165	0.4
636.496	0.4
636.827	0.4
637.159	0.39
637.49	0.39
637.821	0.39
638.152	0.38
638.483	0.38
638.814	0.38
639.145	0.38
639.476	0.37
639.807	0.37
640.137	0.37
640.468	0.37
640.799	0.36
641.129	0.36
641.46	0.36
641.791	0.36
642.121	0.36
642.451	0.35
642.782	0.35
643.112	0.35
643.442	0.35
643.773	0.34
644.103	0.34
644.433	0.34
644.763	0.34
645.093	0.34
645.423	0.34
645.753	0.34
646.082	0.33
646.412	0.33
646.742	0.33
647.072	0.33
647.401	0.33
647.731	0.32
648.06	0.32
648.39	0.32
648.719	0.32
649.048	0.32
649.378	0.32
649.707	0.31
650.036	0.31
650.365	0.31
650.694	0.31
651.023	0.31
651.352	0.31
651.681	0.31
652.01	0.3
652.339	0.3
652.668	0.3
652.996	0.3
653.325	0.3
653.654	0.3
653.982	0.3
654.311	0.3
654.639	0.3
654.967	0.3
655.296	0.3
655.624	0.3
655.952	0.29
656.28	0.29
656.609	0.29
656.937	0.29
657.265	0.29
657.593	0.17
657.92	0.07
658.248	0.03
658.576	0.05
658.904	0.15
659.231	0.23
659.559	0.28
659.887	0.28
660.214	0.27
660.542	0.28
660.869	0.27
661.196	0.28
661.524	0.27
661.851	0.27
662.178	0.27
662.505	0.27
662.832	0.27
663.159	0.27
663.486	0.27
663.813	0.27
664.14	0.26
664.467	0.26
664.794	0.26
665.12	0.26
665.447	0.26
665.774	0.26
666.1	0.26
666.427	0.26
666.753	0.26
667.079	0.26
667.406	0.25
667.732	0.25
668.058	0.26
668.384	0.25
668.71	0.25
669.036	0.25
669.362	0.24
669.688	0.24
670.014	0.24
670.34	0.24
670.666	0.24
670.991	0.24
671.317	0.24
671.643	0.24
671.968	0.23
672.294	0.23
672.619	0.23
672.945	0.23
673.27	0.22
673.595	0.22
673.92	0.22
674.246	0.22
674.571	0.22
674.896	0.22
675.221	0.22
675.546	0.21
675.87	0.22
676.195	0.21
676.52	0.21
676.845	0.21
677.169	0.2
677.494	0.21
677.819	0.2
678.143	0.2
678.468	0.2
678.792	0.2
679.116	0.19
679.44	0.19
679.765	0.19
680.089	0.19
680.413	0.19
680.737	0.19
681.061	0.18
681.385	0.18
681.709	0.18
682.033	0.17
682.356	0.17
682.68	0.17
683.004	0.18
683.327	0.17
683.651	0.16
683.974	0.17
684.298	0.17
684.621	0.16
684.944	0.16
685.268	0.16
685.591	0.16
685.914	0.16
686.237	0.16
686.56	0.15
686.883	0.15
687.206	0.14
687.529	0.14
687.852	0.14
688.175	0.14
688.497	0.14
688.82	0.14
689.142	0.14
689.465	0.14
689.787	0.14
690.11	0.13
690.432	0.13
690.755	0.13
691.077	0.13
691.399	0.13
691.721	0.13
692.043	0.13
692.365	0.12
692.687	0.12
693.009	0.12
693.331	0.12
693.653	0.11
693.974	0.12
694.296	0.12
694.618	0.11
694.939	0.11
695.261	0.11
695.582	0.11
695.904	0.11
696.225	0.11
696.546	0.11
696.868	0.11
697.189	0.1
697.51	0.1
697.831	0.1
698.152	0.1
698.473	0.1
698.794	0.1
699.114	0.09
699.435	0.08
699.756	0.09
700.077	0.09
700.397	0.09
700.718	0.09
701.038	0.09
701.359	0.09
701.679	0.09
701.999	0.09
702.32	0.09
702.64	0.09
702.96	0.09
703.28	0.09
703.6	0.09
703.92	0.08
704.24	0.08
704.56	0.08
704.879	0.08
705.199	0.08
705.519	0.08
705.838	0.09
706.158	0.09
706.478	0.09
706.797	0.09
707.116	0.09
707.436	0.09
707.755	0.09
708.074	0.08
708.393	0.08
708.712	0.08
709.031	0.07
709.35	0.07
709.669	0.06
709.988	0.07
710.307	0.07
710.626	0.07
710.944	0.08
711.263	0.08
711.582	0.08
711.9	0.08
712.219	0.08
712.537	0.08
712.855	0.08
713.174	0.08
713.492	0.08
713.81	0.08
714.128	0.08
714.446	0.08
714.764	0.08
715.082	0.07
715.4	0.07
715.718	0.07
716.035	0.07
716.353	0.08
716.671	0.08
716.988	0.08
717.306	0.07
717.623	0.08
717.941	0.08
718.258	0.08
718.575	0.09
718.893	0.09
719.21	0.08
719.527	0.08
719.844	0.08
720.161	0.08
720.478	0.08
720.795	0.08
721.112	0.08
721.428	0.08
721.745	0.08
722.062	0.08
722.378	0.08
722.695	0.08
723.011	0.08
723.328	0.08
723.644	0.08
723.96	0.08
724.276	0.08
724.593	0.09
724.909	0.09
725.225	0.09
725.541	0.09
725.857	0.09
726.173	0.09
726.488	0.09
726.804	0.09
727.12	0.08
727.435	0.08
727.751	0.09
728.067	0.09
728.382	0.09
728.697	0.08
729.013	0.09
729.328	0.08
729.643	0.09
729.958	0.08
730.273	0.08
730.588	0.08
730.903	0.09
731.218	0.08
731.533	0.09
731.848	0.09
732.163	0.09
732.477	0.08
732.792	0.08
733.107	0.08
733.421	0.08
733.736	0.08
734.05	0.08
734.364	0.08
734.678	0.08
734.993	0.08
735.307	0.08
735.621	0.08
735.935	0.08
736.249	0.08
736.563	0.08
736.877	0.08
737.19	0.08
737.504	0.08
737.818	0.07
738.131	0.08
738.445	0.08
738.758	0.08
739.072	0.08
739.385	0.08
739.698	0.08
740.012	0.08
740.325	0.08
740.638	0.07
740.951	0.08
741.264	0.07
741.577	0.07
741.89	0.07
742.203	0.08
742.515	0.08
742.828	0.08
743.141	0.07
743.453	0.07
743.766	0.07
744.078	0.07
744.391	0.07
744.703	0.07
745.015	0.07
745.327	0.07
745.639	0.07
745.952	0.07
746.264	0.07
746.575	0.07
746.887	0.07
747.199	0.07
747.511	0.06
747.823	0.06
748.134	0.07
748.446	0.06
748.757	0.06
749.069	0.06
749.38	0.06
749.692	0.06
750.003	0.06
750.314	0.06
750.625	0.06
750.936	0.06
751.248	0.06
751.559	0.06
751.869	0.06
752.18	0.06
752.491	0.06
752.802	0.06
753.112	0.06
753.423	0.06
753.734	0.06
754.044	0.06
754.355	0.06
754.665	0.05
754.975	0.05
755.285	0.05
755.596	0.05
755.906	0.05
756.216	0.05
756.526	0.05
756.836	0.05
757.146	0.05
757.455	0.05
757.765	0.04
758.075	0.04
758.385	0.04
758.694	0.05
759.004	0.04
759.313	0.04
759.622	0.04
759.932	0.04
760.241	0.05
760.55	0.05
760.859	0.05
761.168	0.04
761.477	0.04
761.786	0.04
762.095	0.04
762.404	0.04
762.713	0.04
763.021	0.04
763.33	0.04
763.639	0.05
763.947	0.04
764.256	0.04
764.564	0.04
764.872	0.04
765.181	0.04
765.489	0.04
765.797	0.04
766.105	0.04
766.413	0.04
766.721	0.04
767.029	0.04
767.337	0.05
767.644	0.05
767.952	0.04
768.26	0.04
768.567	0.04
768.875	0.04
769.182	0.04
769.49	0.04
769.797	0.04
770.104	0.04
770.411	0.04
770.718	0.04
771.026	0.04
771.333	0.05
771.639	0.05
771.946	0.04
772.253	0.04
772.56	0.04
772.867	0.04
773.173	0.04
773.48	0.04
773.786	0.04
774.093	0.04
774.399	0.04
774.705	0.04
775.012	0.04
775.318	0.04
775.624	0.04
775.93	0.04
776.236	0.05
776.542	0.04
776.848	0.05
777.154	0.05
777.459	0.04
777.765	0.04
778.071	0.04
778.376	0.04
778.682	0.04
778.987	0.04
779.292	0.04
779.598	0.04
779.903	0.05
780.208	0.04
780.513	0.04
780.818	0.04
781.123	0.04
781.428	0.04
781.733	0.04
782.038	0.04
782.343	0.04
782.647	0.04
782.952	0.04
783.256	0.04
783.561	0.04
783.865	0.04
784.17	0.05
784.474	0.05
784.778	0.05
785.082	0.05
785.386	0.05
785.69	0.05
785.994	0.05
786.298	0.05
786.602	0.05
786.906	0.05
787.209	0.05
787.513	0.05
787.817	0.06
788.12	0.05
788.424	0.05
788.727	0.05
789.03	0.05
789.333	0.05
789.637	0.05
789.94	0.05
790.243	0.05
790.546	0.05
790.849	0.05
791.152	0.05
791.454	0.05
791.757	0.05
792.06	0.05
792.362	0.06
792.665	0.05
792.967	0.05
793.27	0.05
793.572	0.05
793.874	0.05
794.177	0.05
794.479	0.06
794.781	0.05
795.083	0.05
795.385	0.05
795.687	0.05
795.989	0.05
796.29	0.05
796.592	0.05
796.894	0.05
797.195	0.06
797.497	0.06
797.798	0.06
798.1	0.06
798.401	0.06
798.702	0.06
799.003	0.05
799.304	0.05
799.605	0.05
799.906	0.05
800.207	0.06
800.508	0.06
800.809	0.06
801.11	0.05
801.41	0.06
801.711	0.06
802.011	0.06
802.312	0.06
802.612	0.06
802.913	0.06
803.213	0.06
803.513	0.06
803.813	0.06
804.113	0.06
804.413	0.05
804.713	0.05
805.013	0.05
805.313	0.06
805.613	0.06
805.912	0.06
806.212	0.06
806.511	0.06
806.811	0.06
807.11	0.05
807.41	0.06
807.709	0.07
808.008	0.07
808.307	0.06
808.606	0.06
808.905	0.06
809.204	0.07
809.503	0.07
809.802	0.07
810.101	0.07
810.399	0.07
810.698	0.07
810.997	0.07
811.295	0.06
811.593	0.07
811.892	0.07
812.19	0.06
812.488	0.06
812.786	0.06
813.084	0.06
813.383	0.07
813.68	0.06
813.978	0.06
814.276	0.07
814.574	0.07
814.872	0.07
815.169	0.07
815.467	0.07
815.764	0.07
816.062	0.07
816.359	0.07
816.656	0.08
816.954	0.08
817.251	0.07
817.548	0.07
817.845	0.07
818.142	0.07
818.439	0.07
818.735	0.08
819.032	0.07
819.329	0.07
819.626	0.07
819.922	0.07
820.219	0.08
820.515	0.08
820.811	0.08
821.108	0.08
821.404	0.08
821.7	0.08
821.996	0.08
822.292	0.08
822.588	0.08
822.884	0.08
823.18	0.09
823.475	0.08
823.771	0.08
824.067	0.08
824.362	0.08
824.658	0.08
824.953	0.08
825.249	0.08
825.544	0.09
825.839	0.08
826.134	0.08
826.429	0.08
826.724	0.08
827.019	0.08
827.314	0.08
827.609	0.09
827.904	0.09
828.198	0.09
828.493	0.08
828.787	0.08
829.082	0.08
829.376	0.08
829.671	0.09
829.965	0.08
830.259	0.09
830.553	0.09
830.847	0.09
831.141	0.09
831.435	0.09
831.729	0.09
832.023	0.09
832.317	0.09
832.61	0.1
832.904	0.09
833.197	0.1
833.491	0.1
833.784	0.09
834.077	0.09
834.371	0.09
834.664	0.09
834.957	0.09
835.25	0.09
835.543	0.09
835.836	0.08
836.129	0.08
836.421	0.09
836.714	0.09
837.007	0.09
837.299	0.1
837.592	0.09
837.884	0.1
838.177	0.09
838.469	0.09
838.761	0.09
839.053	0.08
839.345	0.09
839.637	0.09
839.929	0.1
840.221	0.09
840.513	0.1
840.805	0.09
841.096	0.09
841.388	0.09
841.68	0.1
841.971	0.09
842.262	0.1
842.554	0.09
842.845	0.1
843.136	0.1
843.427	0.1
843.718	0.1
844.009	0.1
844.3	0.1
844.591	0.1
844.882	0.09
845.173	0.1
845.463	0.09
845.754	0.1
846.044	0.11
846.335	0.11
846.625	0.11
846.915	0.11
847.206	0.11
847.496	0.12
847.786	0.11
848.076	0.1
848.366	0.11
848.656	0.1
848.945	0.1
849.235	0.11
849.525	0.1
849.814	0.1
850.104	0.11
850.393	0.11
850.683	0.11
850.972	0.1
851.261	0.11
851.551	0.11
851.84	0.12
852.129	0.11
852.418	0.11
852.707	0.1
852.995	0.1
853.284	0.11
853.573	0.11
853.862	0.11
854.15	0.1
854.439	0.11
854.727	0.1
855.015	0.11
855.304	0.11
855.592	0.12
855.88	0.11
856.168	0.12
856.456	0.12
856.744	0.12
857.032	0.13
857.32	0.11
857.607	0.12
857.895	0.12
858.183	0.12
858.47	0.11
858.757	0.12
859.045	0.12
859.332	0.13
859.619	0.12
859.907	0.12
860.194	0.11
860.481	0.12
860.768	0.12
861.054	0.13
861.341	0.11
861.628	0.13
861.915	0.13
862.201	0.13
862.488	0.13
862.774	0.13
863.061	0.12
863.347	0.11
863.633	0.13
863.919	0.11
864.205	0.11
864.491	0.1
864.777	0.11
865.063	0.13
865.349	0.11
865.635	0.13
865.92	0.1
866.206	0.12
866.492	0.12
866.777	0.12
867.062	0.12
867.348	0.12
867.633	0.12
867.918	0.15
868.203	0.13
868.488	0.14
868.773	0.12
869.058	0.13
869.343	0.16
869.628	0.13
869.912	0.12
870.197	0.12
870.482	0.14
870.766	0.14
871.05	0.12
871.335	0.14
871.619	0.1
871.903	0.13
872.187	0.11
872.471	0.12
872.755	0.11
873.039	0.13
873.323	0.11
873.607	0.13
873.89	0.15
874.174	0.12
874.458	0.11
874.741	0.11
875.024	0.15
875.308	0.08
875.591	0.13
875.874	0.11
876.157	0.15
876.44	0.15
876.723	0.15
877.006	0.05
877.289	0.11
877.572	0.15
877.854	0.14
878.137	0.05
878.42	0.12
878.702	0.18
878.984	0.07
879.267	0.13
879.549	0.08
879.831	0.13
880.113	0.12
880.395	0.14
880.677	0.05
880.959	0.08
