Data from Rubpy_BV_1500_EDTA_Buffered_Absorbance_14-30-52-662.txt Node
Date: Wed Jul 01 14:30:52 BST 2026
User: fpm-admin
Spectrometer: OFX00224
Trigger mode: 0
Integration Time (sec): 7.000000E-2
Scans to average: 3
Nonlinearity correction enabled: false
Boxcar width: 0
Storing dark spectrum: false
XAxis mode: Wavelengths
Number of Pixels in Spectrum: 2136
>>>>>Begin Spectral Data<<<<<
154.91	0.3
155.289	0.15
155.669	-1.35
156.048	0.03
156.428	-0
156.807	-0
157.186	-0.4
157.566	-0.12
157.945	-0.17
158.325	-0
158.704	-0
159.083	0.16
159.462	0.16
159.842	0.1
160.221	-0.13
160.6	-0
160.979	-0.36
161.359	0.09
161.738	-0.03
162.117	-0.31
162.496	-0.5
162.875	0.18
163.254	0.22
163.633	-0.15
164.012	-0.2
164.391	0.29
164.77	0.02
165.149	0.46
165.528	-0.76
165.907	-0.26
166.286	-0.72
166.665	-0
167.044	1.23
167.423	0.7
167.802	-0
168.181	0.32
168.559	-0.01
168.938	-0.11
169.317	0.8
169.696	-0.09
170.074	-0
170.453	-0.14
170.832	0.49
171.21	1.11
171.589	0.46
171.968	-0.51
172.346	0.07
172.725	-0
173.103	-0
173.482	-0.7
173.861	-0
174.239	-0.78
174.617	0.09
174.996	0.33
175.374	0.2
175.753	-0.2
176.131	-0
176.51	0.07
176.888	0.44
177.266	-0
177.645	-0.03
178.023	-0
178.401	-0.05
178.779	-0.05
179.158	0.59
179.536	0.07
179.914	-0
180.292	0.57
180.67	-0
181.048	0.18
181.427	-0
181.805	0.23
182.183	-0.3
182.561	0.68
182.939	-0
183.317	-0
183.695	-0.13
184.073	-0
184.451	0.04
184.829	-0
185.206	-0
185.584	0.24
185.962	-0
186.34	-0
186.718	-0.6
187.096	-0
187.473	-0.07
187.851	-0
188.229	0.46
188.607	0.21
188.984	0.3
189.362	0.3
189.74	0.22
190.117	0.08
190.495	0.22
190.872	0.29
191.25	0.26
191.627	0.24
192.005	0.16
192.382	0.35
192.76	0.33
193.137	0.27
193.515	0.18
193.892	0.35
194.269	0.15
194.647	0.29
195.024	0.14
195.401	0.32
195.779	0.21
196.156	0.4
196.533	0.51
196.91	0.24
197.288	0.36
197.665	0.13
198.042	0.21
198.419	0.31
198.796	0.25
199.173	0.24
199.55	0.3
199.927	0.4
200.304	0.26
200.681	0.34
201.058	0.25
201.435	0.24
201.812	0.42
202.189	0.29
202.566	0.18
202.943	0.24
203.32	0.2
203.697	0.3
204.073	0.09
204.45	0.28
204.827	0.55
205.204	0.19
205.58	0.29
205.957	0.25
206.334	0.33
206.71	0.33
207.087	0.43
207.464	0.34
207.84	0.26
208.217	0.27
208.593	0.31
208.97	0.24
209.346	0.35
209.723	0.27
210.099	0.24
210.476	0.24
210.852	0.34
211.228	0.24
211.605	0.3
211.981	0.22
212.357	0.32
212.733	0.23
213.11	0.36
213.486	0.23
213.862	0.3
214.238	0.38
214.614	0.2
214.991	0.12
215.367	0.21
215.743	0.18
216.119	0.32
216.495	0.19
216.871	0.2
217.247	0.14
217.623	0.21
217.999	0.21
218.375	0.23
218.751	0.24
219.127	0.27
219.502	0.39
219.878	0.29
220.254	0.28
220.63	0.36
221.006	0.23
221.381	0.37
221.757	0.49
222.133	0.3
222.508	0.31
222.884	0.44
223.26	0.21
223.635	0.33
224.011	0.51
224.386	0.31
224.762	0.45
225.137	0.42
225.513	0.31
225.888	0.44
226.264	0.3
226.639	0.35
227.014	0.32
227.39	0.24
227.765	0.32
228.14	0.3
228.516	0.22
228.891	0.46
229.266	0.44
229.641	0.27
230.017	0.32
230.392	0.36
230.767	0.31
231.142	0.32
231.517	0.25
231.892	0.42
232.267	0.32
232.642	0.4
233.017	0.3
233.392	0.23
233.767	0.34
234.142	0.3
234.517	0.22
234.892	0.45
235.267	0.29
235.641	0.23
236.016	0.25
236.391	0.4
236.766	0.57
237.14	0.25
237.515	0.24
237.89	0.42
238.264	0.28
238.639	0.3
239.014	0.3
239.388	0.18
239.763	0.3
240.137	0.43
240.512	0.19
240.886	0.3
241.261	0.36
241.635	0.25
242.009	0.31
242.384	0.34
242.758	0.28
243.132	0.38
243.507	0.36
243.881	0.34
244.255	0.27
244.629	0.35
245.004	0.26
245.378	0.24
245.752	0.25
246.126	0.38
246.5	0.35
246.874	0.43
247.248	0.23
247.622	0.32
247.996	0.28
248.37	0.22
248.744	0.37
249.118	0.31
249.492	0.48
249.866	0.41
250.24	0.33
250.613	0.25
250.987	0.48
251.361	0.3
251.735	0.32
252.108	0.33
252.482	0.25
252.856	0.43
253.229	0.38
253.603	0.38
253.977	0.31
254.35	0.36
254.724	0.28
255.097	0.31
255.471	0.43
255.844	0.27
256.218	0.21
256.591	0.34
256.964	0.25
257.338	0.27
257.711	0.36
258.084	0.26
258.458	0.3
258.831	0.44
259.204	0.34
259.577	0.24
259.95	0.31
260.323	0.26
260.697	0.34
261.07	0.29
261.443	0.4
261.816	0.29
262.189	0.34
262.562	0.31
262.935	0.33
263.308	0.35
263.68	0.33
264.053	0.37
264.426	0.3
264.799	0.36
265.172	0.36
265.545	0.36
265.917	0.36
266.29	0.4
266.663	0.28
267.035	0.27
267.408	0.34
267.781	0.26
268.153	0.34
268.526	0.26
268.898	0.3
269.271	0.34
269.643	0.33
270.016	0.23
270.388	0.39
270.76	0.38
271.133	0.24
271.505	0.25
271.877	0.36
272.25	0.41
272.622	0.48
272.994	0.35
273.366	0.31
273.739	0.49
274.111	0.3
274.483	0.34
274.855	0.34
275.227	0.32
275.599	0.26
275.971	0.26
276.343	0.26
276.715	0.33
277.087	0.35
277.459	0.43
277.831	0.41
278.203	0.37
278.574	0.31
278.946	0.26
279.318	0.4
279.69	0.3
280.061	0.3
280.433	0.32
280.805	0.31
281.176	0.29
281.548	0.32
281.92	0.38
282.291	0.39
282.663	0.42
283.034	0.3
283.406	0.44
283.777	0.34
284.148	0.33
284.52	0.37
284.891	0.31
285.262	0.3
285.634	0.31
286.005	0.36
286.376	0.36
286.747	0.36
287.119	0.36
287.49	0.39
287.861	0.4
288.232	0.36
288.603	0.39
288.974	0.36
289.345	0.35
289.716	0.37
290.087	0.29
290.458	0.4
290.829	0.34
291.2	0.41
291.571	0.36
291.941	0.34
292.312	0.3
292.683	0.32
293.054	0.28
293.424	0.4
293.795	0.29
294.166	0.3
294.536	0.31
294.907	0.36
295.277	0.38
295.648	0.43
296.018	0.24
296.389	0.3
296.759	0.25
297.13	0.35
297.5	0.37
297.871	0.34
298.241	0.33
298.611	0.44
298.981	0.33
299.352	0.28
299.722	0.4
300.092	0.35
300.462	0.38
300.832	0.31
301.202	0.31
301.573	0.3
301.943	0.3
302.313	0.32
302.683	0.34
303.053	0.43
303.422	0.33
303.792	0.35
304.162	0.33
304.532	0.34
304.902	0.29
305.272	0.3
305.641	0.26
306.011	0.29
306.381	0.23
306.75	0.29
307.12	0.31
307.49	0.25
307.859	0.29
308.229	0.28
308.598	0.32
308.968	0.22
309.337	0.27
309.707	0.31
310.076	0.28
310.445	0.29
310.815	0.28
311.184	0.25
311.553	0.24
311.923	0.27
312.292	0.27
312.661	0.29
313.03	0.28
313.399	0.29
313.768	0.27
314.137	0.28
314.506	0.28
314.875	0.28
315.244	0.29
315.613	0.33
315.982	0.3
316.351	0.29
316.72	0.32
317.089	0.32
317.458	0.32
317.826	0.33
318.195	0.33
318.564	0.34
318.933	0.35
319.301	0.35
319.67	0.36
320.038	0.35
320.407	0.35
320.775	0.36
321.144	0.37
321.512	0.38
321.881	0.38
322.249	0.39
322.618	0.39
322.986	0.41
323.354	0.39
323.723	0.41
324.091	0.42
324.459	0.42
324.827	0.41
325.195	0.43
325.564	0.44
325.932	0.44
326.3	0.44
326.668	0.47
327.036	0.47
327.404	0.48
327.772	0.48
328.14	0.48
328.508	0.48
328.875	0.49
329.243	0.52
329.611	0.51
329.979	0.52
330.346	0.53
330.714	0.54
331.082	0.54
331.449	0.55
331.817	0.57
332.185	0.57
332.552	0.59
332.92	0.6
333.287	0.6
333.655	0.62
334.022	0.63
334.389	0.65
334.757	0.66
335.124	0.67
335.491	0.68
335.859	0.69
336.226	0.7
336.593	0.72
336.96	0.73
337.327	0.75
337.695	0.76
338.062	0.77
338.429	0.78
338.796	0.79
339.163	0.81
339.53	0.83
339.897	0.84
340.263	0.87
340.63	0.87
340.997	0.88
341.364	0.9
341.731	0.92
342.097	0.94
342.464	0.94
342.831	0.96
343.197	0.97
343.564	1.01
343.931	1.01
344.297	1.02
344.664	1.04
345.03	1.05
345.396	1.06
345.763	1.09
346.129	1.09
346.496	1.12
346.862	1.13
347.228	1.13
347.594	1.15
347.961	1.18
348.327	1.18
348.693	1.2
349.059	1.23
349.425	1.23
349.791	1.24
350.157	1.27
350.523	1.28
350.889	1.27
351.255	1.29
351.621	1.31
351.987	1.34
352.353	1.35
352.719	1.37
353.084	1.37
353.45	1.38
353.816	1.41
354.181	1.42
354.547	1.42
354.913	1.45
355.278	1.48
355.644	1.48
356.009	1.49
356.375	1.51
356.74	1.53
357.106	1.55
357.471	1.58
357.836	1.56
358.202	1.59
358.567	1.61
358.932	1.64
359.297	1.64
359.663	1.68
360.028	1.7
360.393	1.69
360.758	1.71
361.123	1.74
361.488	1.76
361.853	1.74
362.218	1.8
362.583	1.8
362.948	1.79
363.312	1.81
363.677	1.85
364.042	1.81
364.407	1.85
364.772	1.87
365.136	1.88
365.501	1.91
365.865	1.91
366.23	1.93
366.595	1.9
366.959	1.93
367.324	1.93
367.688	1.91
368.052	1.9
368.417	1.97
368.781	1.92
369.145	2
369.51	1.98
369.874	2
370.238	2.01
370.602	1.98
370.967	1.97
371.331	2.03
371.695	2
372.059	2.02
372.423	2.06
372.787	1.98
373.151	2.03
373.515	1.99
373.878	1.97
374.242	1.97
374.606	2
374.97	1.99
375.334	1.94
375.697	1.96
376.061	1.95
376.425	1.99
376.788	1.91
377.152	1.91
377.515	1.9
377.879	1.87
378.242	1.92
378.606	1.9
378.969	1.86
379.333	1.89
379.696	1.81
380.059	1.8
380.422	1.8
380.786	1.77
381.149	1.76
381.512	1.77
381.875	1.72
382.238	1.69
382.601	1.69
382.964	1.67
383.327	1.63
383.69	1.65
384.053	1.61
384.416	1.59
384.779	1.57
385.142	1.58
385.504	1.54
385.867	1.55
386.23	1.53
386.593	1.53
386.955	1.5
387.318	1.5
387.68	1.48
388.043	1.48
388.405	1.47
388.768	1.45
389.13	1.46
389.493	1.43
389.855	1.44
390.217	1.42
390.58	1.42
390.942	1.39
391.304	1.38
391.666	1.37
392.028	1.32
392.391	1.31
392.753	1.3
393.115	1.28
393.477	1.28
393.839	1.25
394.201	1.24
394.563	1.23
394.924	1.23
395.286	1.23
395.648	1.22
396.01	1.22
396.371	1.24
396.733	1.25
397.095	1.26
397.456	1.28
397.818	1.28
398.18	1.32
398.541	1.34
398.903	1.37
399.264	1.4
399.625	1.43
399.987	1.46
400.348	1.47
400.709	1.48
401.071	1.49
401.432	1.49
401.793	1.48
402.154	1.47
402.515	1.46
402.876	1.45
403.238	1.41
403.599	1.38
403.96	1.34
404.32	1.3
404.681	1.26
405.042	1.21
405.403	1.17
405.764	1.11
406.125	1.07
406.485	1.02
406.846	0.96
407.207	0.92
407.567	0.87
407.928	0.83
408.288	0.78
408.649	0.74
409.009	0.7
409.37	0.67
409.73	0.63
410.091	0.6
410.451	0.57
410.811	0.54
411.171	0.52
411.532	0.49
411.892	0.48
412.252	0.45
412.612	0.43
412.972	0.41
413.332	0.4
413.692	0.38
414.052	0.36
414.412	0.35
414.772	0.34
415.132	0.33
415.492	0.32
415.851	0.31
416.211	0.3
416.571	0.29
416.931	0.28
417.29	0.28
417.65	0.26
418.009	0.27
418.369	0.26
418.728	0.25
419.088	0.25
419.447	0.24
419.807	0.23
420.166	0.23
420.525	0.22
420.884	0.22
421.244	0.22
421.603	0.21
421.962	0.21
422.321	0.2
422.68	0.2
423.039	0.19
423.398	0.2
423.757	0.19
424.116	0.19
424.475	0.19
424.834	0.19
425.193	0.19
425.551	0.19
425.91	0.18
426.269	0.18
426.628	0.18
426.986	0.17
427.345	0.17
427.703	0.17
428.062	0.17
428.42	0.17
428.779	0.17
429.137	0.17
429.496	0.16
429.854	0.17
430.212	0.16
430.57	0.16
430.929	0.16
431.287	0.16
431.645	0.15
432.003	0.16
432.361	0.16
432.719	0.17
433.077	0.16
433.435	0.16
433.793	0.16
434.151	0.17
434.509	0.17
434.866	0.16
435.224	0.16
435.582	0.15
435.94	0.17
436.297	0.16
436.655	0.16
437.012	0.16
437.37	0.17
437.727	0.16
438.085	0.16
438.442	0.17
438.8	0.16
439.157	0.16
439.514	0.17
439.872	0.16
440.229	0.17
440.586	0.16
440.943	0.17
441.3	0.16
441.657	0.16
442.014	0.17
442.371	0.16
442.728	0.16
443.085	0.18
443.442	0.17
443.799	0.16
444.156	0.17
444.513	0.17
444.869	0.18
445.226	0.16
445.583	0.18
445.939	0.17
446.296	0.18
446.652	0.18
447.009	0.18
447.365	0.18
447.722	0.18
448.078	0.18
448.434	0.18
448.791	0.18
449.147	0.18
449.503	0.19
449.859	0.19
450.215	0.18
450.571	0.19
450.928	0.2
451.284	0.19
451.64	0.19
451.995	0.2
452.351	0.2
452.707	0.21
453.063	0.2
453.419	0.2
453.775	0.21
454.13	0.21
454.486	0.21
454.842	0.21
455.197	0.2
455.553	0.23
455.908	0.22
456.264	0.21
456.619	0.22
456.975	0.21
457.33	0.22
457.685	0.23
458.04	0.22
458.396	0.22
458.751	0.23
459.106	0.23
459.461	0.22
459.816	0.24
460.171	0.24
460.526	0.24
460.881	0.24
461.236	0.24
461.591	0.24
461.946	0.24
462.301	0.24
462.655	0.25
463.01	0.25
463.365	0.25
463.719	0.25
464.074	0.25
464.428	0.25
464.783	0.26
465.137	0.26
465.492	0.27
465.846	0.26
466.201	0.26
466.555	0.27
466.909	0.26
467.263	0.27
467.618	0.28
467.972	0.28
468.326	0.29
468.68	0.29
469.034	0.28
469.388	0.3
469.742	0.29
470.096	0.29
470.45	0.3
470.804	0.31
471.157	0.3
471.511	0.31
471.865	0.32
472.218	0.32
472.572	0.32
472.926	0.33
473.279	0.33
473.633	0.33
473.986	0.34
474.34	0.34
474.693	0.35
475.046	0.35
475.4	0.36
475.753	0.36
476.106	0.36
476.459	0.37
476.812	0.37
477.165	0.38
477.519	0.38
477.872	0.38
478.224	0.4
478.577	0.41
478.93	0.39
479.283	0.4
479.636	0.42
479.989	0.42
480.341	0.42
480.694	0.42
481.047	0.43
481.399	0.43
481.752	0.44
482.104	0.45
482.457	0.45
482.809	0.45
483.162	0.45
483.514	0.46
483.866	0.46
484.219	0.46
484.571	0.47
484.923	0.47
485.275	0.48
485.627	0.49
485.979	0.48
486.331	0.49
486.683	0.5
487.035	0.5
487.387	0.5
487.739	0.51
488.091	0.52
488.443	0.52
488.794	0.52
489.146	0.53
489.498	0.53
489.849	0.54
490.201	0.54
490.552	0.54
490.904	0.55
491.255	0.55
491.607	0.55
491.958	0.56
492.309	0.57
492.661	0.57
493.012	0.58
493.363	0.58
493.714	0.58
494.065	0.59
494.416	0.59
494.767	0.6
495.118	0.6
495.469	0.6
495.82	0.61
496.171	0.62
496.522	0.62
496.872	0.63
497.223	0.63
497.574	0.63
497.924	0.64
498.275	0.64
498.626	0.65
498.976	0.65
499.327	0.66
499.677	0.65
500.027	0.66
500.378	0.67
500.728	0.66
501.078	0.68
501.428	0.68
501.779	0.69
502.129	0.69
502.479	0.7
502.829	0.7
503.179	0.7
503.529	0.7
503.879	0.71
504.229	0.72
504.578	0.72
504.928	0.73
505.278	0.73
505.628	0.74
505.977	0.74
506.327	0.75
506.676	0.74
507.026	0.76
507.375	0.76
507.725	0.76
508.074	0.76
508.424	0.77
508.773	0.78
509.122	0.77
509.471	0.78
509.82	0.78
510.17	0.77
510.519	0.79
510.868	0.81
511.217	0.8
511.566	0.81
511.915	0.8
512.263	0.81
512.612	0.81
512.961	0.82
513.31	0.82
513.659	0.83
514.007	0.83
514.356	0.83
514.704	0.84
515.053	0.84
515.401	0.85
515.75	0.86
516.098	0.85
516.447	0.86
516.795	0.86
517.143	0.86
517.491	0.87
517.839	0.87
518.188	0.87
518.536	0.88
518.884	0.88
519.232	0.88
519.58	0.88
519.928	0.89
520.275	0.9
520.623	0.9
520.971	0.91
521.319	0.91
521.666	0.91
522.014	0.91
522.362	0.91
522.709	0.92
523.057	0.91
523.404	0.92
523.752	0.92
524.099	0.93
524.446	0.93
524.794	0.94
525.141	0.93
525.488	0.94
525.835	0.94
526.182	0.95
526.529	0.95
526.876	0.95
527.223	0.96
527.57	0.95
527.917	0.95
528.264	0.96
528.611	0.95
528.958	0.97
529.304	0.96
529.651	0.97
529.998	0.97
530.344	0.97
530.691	0.97
531.037	0.98
531.384	0.98
531.73	0.98
532.076	0.98
532.423	0.99
532.769	0.98
533.115	0.99
533.461	0.99
533.807	0.99
534.154	1
534.5	1
534.846	0.99
535.192	1
535.537	1
535.883	1
536.229	1
536.575	1.01
536.921	1.01
537.266	1.01
537.612	1
537.957	1.01
538.303	1.02
538.649	1.01
538.994	1.02
539.339	1.02
539.685	1.02
540.03	1.02
540.375	1.03
540.721	1.02
541.066	1.02
541.411	1.03
541.756	1.02
542.101	1.03
542.446	1.03
542.791	1.03
543.136	1.03
543.481	1.03
543.825	1.03
544.17	1.03
544.515	1.03
544.86	1.03
545.204	1.02
545.549	1.03
545.893	1.03
546.238	1.04
546.582	1.05
546.927	1.04
547.271	1.04
547.615	1.05
547.96	1.04
548.304	1.04
548.648	1.05
548.992	1.03
549.336	1.05
549.68	1.04
550.024	1.05
550.368	1.04
550.712	1.04
551.056	1.04
551.4	1.04
551.743	1.04
552.087	1.04
552.431	1.05
552.774	1.03
553.118	1.04
553.462	1.04
553.805	1.04
554.148	1.04
554.492	1.04
554.835	1.03
555.178	1.04
555.522	1.04
555.865	1.04
556.208	1.03
556.551	1.04
556.894	1.03
557.237	1.03
557.58	1.04
557.923	1.03
558.266	1.03
558.609	1.02
558.952	1.03
559.294	1.04
559.637	1.03
559.98	1.03
560.322	1.03
560.665	1.02
561.007	1.03
561.35	1.02
561.692	1.02
562.034	1.02
562.377	1.02
562.719	1.02
563.061	1.02
563.403	1.01
563.745	1.01
564.088	1.02
564.43	1.02
564.772	1.01
565.113	1.01
565.455	1.01
565.797	1.01
566.139	1
566.481	1
566.822	1
567.164	1
567.506	1
567.847	0.99
568.189	0.99
568.53	0.99
568.872	0.99
569.213	0.99
569.554	0.98
569.895	0.98
570.237	0.98
570.578	0.98
570.919	0.98
571.26	0.98
571.601	0.98
571.942	0.97
572.283	0.97
572.624	0.97
572.965	0.96
573.306	0.96
573.646	0.96
573.987	0.96
574.328	0.95
574.668	0.95
575.009	0.95
575.349	0.94
575.69	0.94
576.03	0.94
576.37	0.95
576.711	0.94
577.051	0.94
577.391	0.93
577.731	0.93
578.072	0.93
578.412	0.93
578.752	0.93
579.092	0.92
579.431	0.91
579.771	0.9
580.111	0.88
580.451	0.89
580.791	0.91
581.13	0.91
581.47	0.91
581.81	0.91
582.149	0.91
582.489	0.91
582.828	0.89
583.167	0.87
583.507	0.83
583.846	0.82
584.185	0.84
584.525	0.87
584.864	0.89
585.203	0.89
585.542	0.89
585.881	0.89
586.22	0.89
586.559	0.88
586.898	0.87
587.236	0.86
587.575	0.86
587.914	0.87
588.252	0.88
588.591	0.88
588.93	0.88
589.268	0.88
589.607	0.88
589.945	0.87
590.283	0.88
590.622	0.87
590.96	0.88
591.298	0.87
591.636	0.87
591.974	0.88
592.313	0.88
592.651	0.88
592.989	0.87
593.326	0.87
593.664	0.87
594.002	0.88
594.34	0.87
594.678	0.86
595.015	0.86
595.353	0.85
595.691	0.86
596.028	0.87
596.366	0.86
596.703	0.87
597.04	0.87
597.378	0.86
597.715	0.87
598.052	0.87
598.389	0.87
598.726	0.87
599.064	0.86
599.401	0.86
599.738	0.86
600.074	0.86
600.411	0.86
600.748	0.85
601.085	0.85
601.422	0.84
601.758	0.84
602.095	0.84
602.432	0.84
602.768	0.84
603.105	0.84
603.441	0.84
603.777	0.85
604.114	0.84
604.45	0.84
604.786	0.84
605.122	0.84
605.459	0.83
605.795	0.83
606.131	0.83
606.467	0.83
606.803	0.82
607.139	0.82
607.474	0.82
607.81	0.82
608.146	0.82
608.482	0.82
608.817	0.81
609.153	0.81
609.488	0.81
609.824	0.8
610.159	0.8
610.495	0.8
610.83	0.8
611.165	0.8
611.5	0.79
611.836	0.8
612.171	0.79
612.506	0.79
612.841	0.79
613.176	0.78
613.511	0.78
613.845	0.78
614.18	0.78
614.515	0.78
614.85	0.77
615.184	0.77
615.519	0.77
615.854	0.76
616.188	0.76
616.523	0.75
616.857	0.75
617.191	0.75
617.526	0.75
617.86	0.75
618.194	0.74
618.528	0.75
618.862	0.74
619.196	0.74
619.53	0.74
619.864	0.74
620.198	0.74
620.532	0.73
620.866	0.73
621.2	0.72
621.533	0.72
621.867	0.72
622.201	0.71
622.534	0.71
622.868	0.72
623.201	0.71
623.534	0.7
623.868	0.7
624.201	0.7
624.534	0.7
624.868	0.69
625.201	0.69
625.534	0.69
625.867	0.68
626.2	0.68
626.533	0.68
626.865	0.68
627.198	0.67
627.531	0.67
627.864	0.67
628.196	0.66
628.529	0.66
628.862	0.65
629.194	0.65
629.527	0.65
629.859	0.64
630.191	0.64
630.524	0.64
630.856	0.63
631.188	0.63
631.52	0.62
631.852	0.62
632.184	0.62
632.516	0.61
632.848	0.61
633.18	0.61
633.512	0.61
633.844	0.6
634.175	0.6
634.507	0.6
634.839	0.59
635.17	0.59
635.502	0.59
635.833	0.58
636.165	0.58
636.496	0.57
636.827	0.56
637.159	0.56
637.49	0.56
637.821	0.55
638.152	0.55
638.483	0.55
638.814	0.54
639.145	0.54
639.476	0.53
639.807	0.53
640.137	0.53
640.468	0.53
640.799	0.52
641.129	0.52
641.46	0.52
641.791	0.51
642.121	0.51
642.451	0.51
642.782	0.5
643.112	0.5
643.442	0.5
643.773	0.5
644.103	0.49
644.433	0.49
644.763	0.49
645.093	0.48
645.423	0.48
645.753	0.48
646.082	0.47
646.412	0.47
646.742	0.47
647.072	0.47
647.401	0.47
647.731	0.46
648.06	0.46
648.39	0.46
648.719	0.45
649.048	0.45
649.378	0.45
649.707	0.45
650.036	0.45
650.365	0.45
650.694	0.44
651.023	0.44
651.352	0.44
651.681	0.44
652.01	0.44
652.339	0.44
652.668	0.44
652.996	0.43
653.325	0.44
653.654	0.44
653.982	0.43
654.311	0.43
654.639	0.43
654.967	0.43
655.296	0.42
655.624	0.42
655.952	0.42
656.28	0.42
656.609	0.42
656.937	0.42
657.265	0.41
657.593	0.29
657.92	0.19
658.248	0.14
658.576	0.17
658.904	0.27
659.231	0.35
659.559	0.4
659.887	0.4
660.214	0.4
660.542	0.4
660.869	0.4
661.196	0.39
661.524	0.39
661.851	0.39
662.178	0.38
662.505	0.38
662.832	0.38
663.159	0.39
663.486	0.38
663.813	0.38
664.14	0.38
664.467	0.37
664.794	0.38
665.12	0.38
665.447	0.37
665.774	0.37
666.1	0.37
666.427	0.37
666.753	0.37
667.079	0.36
667.406	0.36
667.732	0.36
668.058	0.36
668.384	0.36
668.71	0.36
669.036	0.35
669.362	0.35
669.688	0.35
670.014	0.35
670.34	0.35
670.666	0.34
670.991	0.34
671.317	0.34
671.643	0.34
671.968	0.33
672.294	0.33
672.619	0.33
672.945	0.32
673.27	0.32
673.595	0.32
673.92	0.32
674.246	0.31
674.571	0.31
674.896	0.31
675.221	0.31
675.546	0.31
675.87	0.31
676.195	0.3
676.52	0.3
676.845	0.3
677.169	0.29
677.494	0.29
677.819	0.29
678.143	0.29
678.468	0.29
678.792	0.28
679.116	0.28
679.44	0.28
679.765	0.27
680.089	0.27
680.413	0.27
680.737	0.26
681.061	0.26
681.385	0.26
681.709	0.26
682.033	0.25
682.356	0.25
682.68	0.25
683.004	0.25
683.327	0.24
683.651	0.24
683.974	0.24
684.298	0.24
684.621	0.24
684.944	0.23
685.268	0.23
685.591	0.23
685.914	0.23
686.237	0.22
686.56	0.22
686.883	0.21
687.206	0.21
687.529	0.21
687.852	0.2
688.175	0.2
688.497	0.2
688.82	0.2
689.142	0.2
689.465	0.2
689.787	0.19
690.11	0.19
690.432	0.19
690.755	0.19
691.077	0.18
691.399	0.18
691.721	0.18
692.043	0.18
692.365	0.18
692.687	0.18
693.009	0.17
693.331	0.17
693.653	0.17
693.974	0.17
694.296	0.17
694.618	0.16
694.939	0.16
695.261	0.16
695.582	0.16
695.904	0.16
696.225	0.16
696.546	0.16
696.868	0.15
697.189	0.15
697.51	0.15
697.831	0.15
698.152	0.15
698.473	0.15
698.794	0.14
699.114	0.14
699.435	0.13
699.756	0.13
700.077	0.14
700.397	0.14
700.718	0.14
701.038	0.14
701.359	0.14
701.679	0.14
701.999	0.14
702.32	0.13
702.64	0.13
702.96	0.13
703.28	0.13
703.6	0.13
703.92	0.12
704.24	0.12
704.56	0.12
704.879	0.12
705.199	0.12
705.519	0.12
705.838	0.13
706.158	0.13
706.478	0.13
706.797	0.13
707.116	0.13
707.436	0.12
707.755	0.12
708.074	0.12
708.393	0.12
708.712	0.11
709.031	0.1
709.35	0.1
709.669	0.1
709.988	0.1
710.307	0.1
710.626	0.11
710.944	0.11
711.263	0.11
711.582	0.11
711.9	0.12
712.219	0.11
712.537	0.11
712.855	0.11
713.174	0.12
713.492	0.12
713.81	0.12
714.128	0.12
714.446	0.12
714.764	0.11
715.082	0.11
715.4	0.11
715.718	0.11
716.035	0.11
716.353	0.12
716.671	0.11
716.988	0.11
717.306	0.11
717.623	0.12
717.941	0.12
718.258	0.12
718.575	0.12
718.893	0.12
719.21	0.12
719.527	0.12
719.844	0.12
720.161	0.12
720.478	0.12
720.795	0.12
721.112	0.12
721.428	0.12
721.745	0.12
722.062	0.12
722.378	0.12
722.695	0.12
723.011	0.12
723.328	0.12
723.644	0.12
723.96	0.12
724.276	0.12
724.593	0.12
724.909	0.12
725.225	0.12
725.541	0.13
725.857	0.13
726.173	0.13
726.488	0.13
726.804	0.12
727.12	0.12
727.435	0.12
727.751	0.12
728.067	0.12
728.382	0.12
728.697	0.12
729.013	0.13
729.328	0.12
729.643	0.12
729.958	0.12
730.273	0.12
730.588	0.12
730.903	0.12
731.218	0.12
731.533	0.12
731.848	0.12
732.163	0.12
732.477	0.12
732.792	0.12
733.107	0.11
733.421	0.12
733.736	0.12
734.05	0.12
734.364	0.12
734.678	0.12
734.993	0.11
735.307	0.12
735.621	0.11
735.935	0.12
736.249	0.12
736.563	0.12
736.877	0.11
737.19	0.11
737.504	0.11
737.818	0.11
738.131	0.11
738.445	0.11
738.758	0.11
739.072	0.11
739.385	0.11
739.698	0.11
740.012	0.11
740.325	0.11
740.638	0.11
740.951	0.11
741.264	0.11
741.577	0.11
741.89	0.11
742.203	0.11
742.515	0.11
742.828	0.11
743.141	0.11
743.453	0.1
743.766	0.1
744.078	0.1
744.391	0.1
744.703	0.1
745.015	0.1
745.327	0.1
745.639	0.1
745.952	0.1
746.264	0.09
746.575	0.1
746.887	0.09
747.199	0.09
747.511	0.09
747.823	0.09
748.134	0.09
748.446	0.09
748.757	0.09
749.069	0.08
749.38	0.08
749.692	0.09
750.003	0.08
750.314	0.09
750.625	0.09
750.936	0.09
751.248	0.09
751.559	0.09
751.869	0.09
752.18	0.09
752.491	0.08
752.802	0.08
753.112	0.08
753.423	0.08
753.734	0.08
754.044	0.08
754.355	0.08
754.665	0.08
754.975	0.08
755.285	0.07
755.596	0.08
755.906	0.08
756.216	0.08
756.526	0.08
756.836	0.08
757.146	0.07
757.455	0.07
757.765	0.07
758.075	0.07
758.385	0.06
758.694	0.06
759.004	0.06
759.313	0.06
759.622	0.07
759.932	0.07
760.241	0.07
760.55	0.07
760.859	0.07
761.168	0.07
761.477	0.06
761.786	0.06
762.095	0.06
762.404	0.06
762.713	0.06
763.021	0.06
763.33	0.07
763.639	0.07
763.947	0.06
764.256	0.06
764.564	0.07
764.872	0.06
765.181	0.06
765.489	0.06
765.797	0.06
766.105	0.06
766.413	0.06
766.721	0.06
767.029	0.06
767.337	0.06
767.644	0.07
767.952	0.07
768.26	0.06
768.567	0.06
768.875	0.06
769.182	0.06
769.49	0.06
769.797	0.06
770.104	0.06
770.411	0.06
770.718	0.06
771.026	0.06
771.333	0.06
771.639	0.07
771.946	0.06
772.253	0.06
772.56	0.06
772.867	0.07
773.173	0.06
773.48	0.06
773.786	0.06
774.093	0.06
774.399	0.06
774.705	0.06
775.012	0.06
775.318	0.06
775.624	0.06
775.93	0.06
776.236	0.07
776.542	0.07
776.848	0.06
777.154	0.07
777.459	0.06
777.765	0.06
778.071	0.06
778.376	0.06
778.682	0.06
778.987	0.07
779.292	0.06
779.598	0.06
779.903	0.06
780.208	0.07
780.513	0.07
780.818	0.06
781.123	0.06
781.428	0.06
781.733	0.06
782.038	0.06
782.343	0.06
782.647	0.06
782.952	0.06
783.256	0.06
783.561	0.06
783.865	0.07
784.17	0.07
784.474	0.07
784.778	0.07
785.082	0.07
785.386	0.07
785.69	0.07
785.994	0.07
786.298	0.07
786.602	0.08
786.906	0.07
787.209	0.07
787.513	0.07
787.817	0.08
788.12	0.08
788.424	0.07
788.727	0.08
789.03	0.07
789.333	0.08
789.637	0.08
789.94	0.07
790.243	0.08
790.546	0.08
790.849	0.08
791.152	0.08
791.454	0.08
791.757	0.08
792.06	0.08
792.362	0.08
792.665	0.08
792.967	0.08
793.27	0.08
793.572	0.08
793.874	0.08
794.177	0.08
794.479	0.08
794.781	0.08
795.083	0.08
795.385	0.08
795.687	0.08
795.989	0.08
796.29	0.08
796.592	0.08
796.894	0.08
797.195	0.09
797.497	0.09
797.798	0.09
798.1	0.09
798.401	0.09
798.702	0.09
799.003	0.09
799.304	0.08
799.605	0.09
799.906	0.09
800.207	0.08
800.508	0.09
800.809	0.08
801.11	0.08
801.41	0.09
801.711	0.09
802.011	0.09
802.312	0.09
802.612	0.09
802.913	0.09
803.213	0.09
803.513	0.09
803.813	0.09
804.113	0.09
804.413	0.08
804.713	0.08
805.013	0.08
805.313	0.08
805.613	0.09
805.912	0.09
806.212	0.09
806.511	0.09
806.811	0.09
807.11	0.09
807.41	0.09
807.709	0.1
808.008	0.1
808.307	0.09
808.606	0.1
808.905	0.1
809.204	0.1
809.503	0.1
809.802	0.1
810.101	0.09
810.399	0.09
810.698	0.1
810.997	0.1
811.295	0.1
811.593	0.1
811.892	0.1
812.19	0.1
812.488	0.09
812.786	0.1
813.084	0.09
813.383	0.1
813.68	0.09
813.978	0.1
814.276	0.1
814.574	0.1
814.872	0.11
815.169	0.11
815.467	0.1
815.764	0.11
816.062	0.11
816.359	0.11
816.656	0.11
816.954	0.11
817.251	0.11
817.548	0.11
817.845	0.11
818.142	0.11
818.439	0.11
818.735	0.11
819.032	0.11
819.329	0.11
819.626	0.11
819.922	0.11
820.219	0.12
820.515	0.11
820.811	0.12
821.108	0.12
821.404	0.12
821.7	0.11
821.996	0.12
822.292	0.12
822.588	0.12
822.884	0.12
823.18	0.12
823.475	0.12
823.771	0.12
824.067	0.12
824.362	0.12
824.658	0.12
824.953	0.12
825.249	0.12
825.544	0.12
825.839	0.12
826.134	0.12
826.429	0.12
826.724	0.12
827.019	0.12
827.314	0.13
827.609	0.13
827.904	0.13
828.198	0.13
828.493	0.12
828.787	0.13
829.082	0.12
829.376	0.12
829.671	0.13
829.965	0.13
830.259	0.14
830.553	0.14
830.847	0.13
831.141	0.13
831.435	0.14
831.729	0.14
832.023	0.13
832.317	0.14
832.61	0.14
832.904	0.14
833.197	0.13
833.491	0.14
833.784	0.14
834.077	0.14
834.371	0.13
834.664	0.13
834.957	0.14
835.25	0.14
835.543	0.13
835.836	0.13
836.129	0.13
836.421	0.13
836.714	0.14
837.007	0.14
837.299	0.14
837.592	0.14
837.884	0.14
838.177	0.13
838.469	0.14
838.761	0.14
839.053	0.14
839.345	0.15
839.637	0.14
839.929	0.14
840.221	0.14
840.513	0.15
840.805	0.14
841.096	0.14
841.388	0.14
841.68	0.15
841.971	0.14
842.262	0.15
842.554	0.14
842.845	0.14
843.136	0.15
843.427	0.16
843.718	0.15
844.009	0.15
844.3	0.15
844.591	0.15
844.882	0.15
845.173	0.15
845.463	0.15
845.754	0.16
846.044	0.16
846.335	0.16
846.625	0.16
846.915	0.17
847.206	0.16
847.496	0.17
847.786	0.17
848.076	0.16
848.366	0.17
848.656	0.16
848.945	0.15
849.235	0.16
849.525	0.16
849.814	0.17
850.104	0.17
850.393	0.17
850.683	0.17
850.972	0.16
851.261	0.16
851.551	0.17
851.84	0.16
852.129	0.16
852.418	0.16
852.707	0.16
852.995	0.17
853.284	0.17
853.573	0.18
853.862	0.17
854.15	0.17
854.439	0.16
854.727	0.17
855.015	0.17
855.304	0.17
855.592	0.19
855.88	0.17
856.168	0.18
856.456	0.18
856.744	0.17
857.032	0.19
857.32	0.18
857.607	0.18
857.895	0.19
858.183	0.18
858.47	0.17
858.757	0.18
859.045	0.18
859.332	0.19
859.619	0.18
859.907	0.18
860.194	0.19
860.481	0.18
860.768	0.18
861.054	0.2
861.341	0.18
861.628	0.18
861.915	0.19
862.201	0.2
862.488	0.2
862.774	0.18
863.061	0.17
863.347	0.18
863.633	0.19
863.919	0.17
864.205	0.17
864.491	0.19
864.777	0.19
865.063	0.2
865.349	0.21
865.635	0.19
865.92	0.18
866.206	0.2
866.492	0.19
866.777	0.19
867.062	0.2
867.348	0.2
867.633	0.19
867.918	0.16
868.203	0.21
868.488	0.21
868.773	0.18
869.058	0.19
869.343	0.18
869.628	0.18
869.912	0.17
870.197	0.19
870.482	0.19
870.766	0.18
871.05	0.17
871.335	0.18
871.619	0.17
871.903	0.2
872.187	0.17
872.471	0.19
872.755	0.12
873.039	0.19
873.323	0.21
873.607	0.2
873.89	0.2
874.174	0.18
874.458	0.25
874.741	0.22
875.024	0.2
875.308	0.17
875.591	0.26
875.874	0.18
876.157	0.2
876.44	0.19
876.723	0.18
877.006	0.27
877.289	0.17
877.572	0.26
877.854	0.16
878.137	0.13
878.42	0.2
878.702	0.22
878.984	0.1
879.267	0.22
879.549	0.19
879.831	0.22
880.113	0.25
880.395	0.24
880.677	0.18
880.959	0.22
