Data from Rubpy_BV_1500_EDTA_Buffered_Absorbance_14-14-40-585.txt Node
Date: Wed Jul 01 14:14:40 BST 2026
User: fpm-admin
Spectrometer: OFX00224
Trigger mode: 0
Integration Time (sec): 7.000000E-2
Scans to average: 3
Nonlinearity correction enabled: false
Boxcar width: 0
Storing dark spectrum: false
XAxis mode: Wavelengths
Number of Pixels in Spectrum: 2136
>>>>>Begin Spectral Data<<<<<
154.91	0.04
155.289	0.48
155.669	-0
156.048	-0.28
156.428	-0
156.807	-0
157.186	-0.67
157.566	0.14
157.945	-0.17
158.325	-0.1
158.704	-0
159.083	-0.58
159.462	-0
159.842	0.14
160.221	-0.26
160.6	-0.6
160.979	-0.23
161.359	0.41
161.738	-0
162.117	0.19
162.496	0.04
162.875	0.6
163.254	0.16
163.633	-0
164.012	-0
164.391	-0.03
164.77	0.25
165.149	0.27
165.528	-0.76
165.907	0.12
166.286	0.22
166.665	-0
167.044	0.49
167.423	-0
167.802	-0
168.181	0.92
168.559	-0.06
168.938	-0.2
169.317	-0.09
169.696	-0
170.074	-0.1
170.453	0.51
170.832	0.15
171.21	-0.18
171.589	0.11
171.968	-0.4
172.346	0.99
172.725	-0
173.103	-0
173.482	-1.13
173.861	-0
174.239	-0
174.617	-0
174.996	0.28
175.374	1.71
175.753	-0.44
176.131	-0
176.51	-0.1
176.888	-0
177.266	-0
177.645	-0.11
178.023	-0
178.401	-0.14
178.779	-0.15
179.158	1.44
179.536	-0
179.914	-0.09
180.292	0.3
180.67	-0.48
181.048	-0.02
181.427	-0
181.805	-0.18
182.183	-0
182.561	0.38
182.939	-0
183.317	0.73
183.695	0.36
184.073	-0
184.451	-0.39
184.829	-0
185.206	-0.6
185.584	-0
185.962	-0
186.34	-0
186.718	-0.9
187.096	-0.6
187.473	-0.32
187.851	-0
188.229	0.31
188.607	0.1
188.984	0.25
189.362	0.17
189.74	0.12
190.117	0.14
190.495	-0.05
190.872	0.1
191.25	0.18
191.627	-0.07
192.005	0.24
192.382	0.21
192.76	0.18
193.137	0.08
193.515	0.04
193.892	0.1
194.269	0.05
194.647	0.1
195.024	-0.02
195.401	0.15
195.779	0.05
196.156	0.22
196.533	0.12
196.91	0.13
197.288	0.13
197.665	0.1
198.042	0.12
198.419	0.12
198.796	0.08
199.173	0.12
199.55	0.12
199.927	0.16
200.304	0.2
200.681	0.12
201.058	0.14
201.435	0.11
201.812	0.25
202.189	0.09
202.566	0.11
202.943	0.13
203.32	0.11
203.697	0.11
204.073	0.09
204.45	0.13
204.827	0.26
205.204	0.1
205.58	0.2
205.957	0.06
206.334	0.03
206.71	0.01
207.087	0.19
207.464	0.08
207.84	0.1
208.217	0.12
208.593	0.18
208.97	0.24
209.346	0.25
209.723	0.11
210.099	0.14
210.476	0.2
210.852	0.11
211.228	0.14
211.605	0.16
211.981	0.2
212.357	0.16
212.733	0.08
213.11	0.16
213.486	0.07
213.862	0.11
214.238	0.24
214.614	0.14
214.991	0.12
215.367	0.03
215.743	0.15
216.119	0.15
216.495	0.25
216.871	0.16
217.247	0.12
217.623	0.12
217.999	0.11
218.375	0.23
218.751	0.16
219.127	0.15
219.502	0.08
219.878	0.07
220.254	0.14
220.63	0.23
221.006	0.06
221.381	0.17
221.757	0.22
222.133	0.19
222.508	0.17
222.884	0.16
223.26	0.06
223.635	0.11
224.011	0.15
224.386	0.2
224.762	0.18
225.137	0.27
225.513	0.13
225.888	0.22
226.264	0.21
226.639	0.11
227.014	0.14
227.39	0.14
227.765	0.2
228.14	0.15
228.516	0.06
228.891	0.19
229.266	0.15
229.641	0.1
230.017	0.18
230.392	0.2
230.767	0.19
231.142	0.11
231.517	0.08
231.892	0.18
232.267	0.08
232.642	0.13
233.017	0.18
233.392	0.14
233.767	0.13
234.142	0.15
234.517	0.18
234.892	0.19
235.267	0.18
235.641	0.09
236.016	0.18
236.391	0.26
236.766	0.15
237.14	0.13
237.515	0.07
237.89	0.2
238.264	0.14
238.639	0.06
239.014	0.14
239.388	0.1
239.763	0.14
240.137	0.04
240.512	0.16
240.886	0.09
241.261	0.08
241.635	0.12
242.009	0.12
242.384	0.12
242.758	0.1
243.132	0.03
243.507	0.13
243.881	0.09
244.255	0.12
244.629	0.13
245.004	0.19
245.378	0.15
245.752	0.14
246.126	0.16
246.5	0.07
246.874	0.06
247.248	0.16
247.622	0.12
247.996	0.07
248.37	0.08
248.744	0.18
249.118	0.19
249.492	0.2
249.866	0.14
250.24	0.19
250.613	0.22
250.987	0.19
251.361	0.07
251.735	0.16
252.108	0.13
252.482	0.05
252.856	0.15
253.229	0.17
253.603	0.11
253.977	0.11
254.35	0.19
254.724	0.05
255.097	0.02
255.471	0.14
255.844	0.17
256.218	0.14
256.591	0.15
256.964	0.12
257.338	0.01
257.711	0.15
258.084	0.17
258.458	0.04
258.831	0.08
259.204	0.14
259.577	0.17
259.95	0.13
260.323	0.19
260.697	0.17
261.07	0.12
261.443	0.17
261.816	0.1
262.189	0.12
262.562	0.12
262.935	0.12
263.308	0.04
263.68	0.11
264.053	0.22
264.426	0.19
264.799	0.15
265.172	0.18
265.545	0.2
265.917	0.11
266.29	0.11
266.663	0.14
267.035	0.09
267.408	0.11
267.781	0.16
268.153	0.18
268.526	0.08
268.898	0.17
269.271	0.1
269.643	0.13
270.016	0.12
270.388	0.15
270.76	0.24
271.133	0.1
271.505	0.12
271.877	0.12
272.25	0.12
272.622	0.23
272.994	0.12
273.366	0.12
273.739	0.21
274.111	0.16
274.483	0.15
274.855	0.08
275.227	0.17
275.599	0.05
275.971	0.14
276.343	0.13
276.715	0.14
277.087	0.21
277.459	0.16
277.831	0.23
278.203	0.17
278.574	0.11
278.946	0.12
279.318	0.09
279.69	0.1
280.061	0.15
280.433	0.13
280.805	0.09
281.176	0.12
281.548	0.2
281.92	0.2
282.291	0.09
282.663	0.14
283.034	0.08
283.406	0.07
283.777	0.15
284.148	0.13
284.52	0.19
284.891	0.1
285.262	0.2
285.634	0.1
286.005	0.13
286.376	0.22
286.747	0.11
287.119	0.1
287.49	0.16
287.861	0.12
288.232	0.21
288.603	0.18
288.974	0.18
289.345	0.17
289.716	0.09
290.087	0.16
290.458	0.15
290.829	0.13
291.2	0.13
291.571	0.11
291.941	0.1
292.312	0.1
292.683	0.16
293.054	0.17
293.424	0.11
293.795	0.13
294.166	0.12
294.536	0.14
294.907	0.18
295.277	0.17
295.648	0.21
296.018	0.12
296.389	0.13
296.759	0.1
297.13	0.11
297.5	0.11
297.871	0.16
298.241	0.12
298.611	0.19
298.981	0.16
299.352	0.1
299.722	0.16
300.092	0.16
300.462	0.08
300.832	0.19
301.202	0.16
301.573	0.12
301.943	0.1
302.313	0.12
302.683	0.17
303.053	0.18
303.422	0.13
303.792	0.12
304.162	0.15
304.532	0.17
304.902	0.07
305.272	0.13
305.641	0.11
306.011	0.12
306.381	0.11
306.75	0.11
307.12	0.13
307.49	0.12
307.859	0.12
308.229	0.08
308.598	0.13
308.968	0.05
309.337	0.08
309.707	0.08
310.076	0.1
310.445	0.12
310.815	0.08
311.184	0.09
311.553	0.06
311.923	0.1
312.292	0.08
312.661	0.11
313.03	0.11
313.399	0.08
313.768	0.09
314.137	0.09
314.506	0.07
314.875	0.1
315.244	0.09
315.613	0.1
315.982	0.1
316.351	0.08
316.72	0.11
317.089	0.09
317.458	0.1
317.826	0.1
318.195	0.1
318.564	0.09
318.933	0.11
319.301	0.1
319.67	0.11
320.038	0.09
320.407	0.11
320.775	0.11
321.144	0.1
321.512	0.12
321.881	0.12
322.249	0.1
322.618	0.11
322.986	0.12
323.354	0.12
323.723	0.12
324.091	0.12
324.459	0.12
324.827	0.11
325.195	0.12
325.564	0.12
325.932	0.12
326.3	0.12
326.668	0.13
327.036	0.12
327.404	0.14
327.772	0.13
328.14	0.14
328.508	0.13
328.875	0.13
329.243	0.15
329.611	0.14
329.979	0.14
330.346	0.14
330.714	0.14
331.082	0.15
331.449	0.14
331.817	0.16
332.185	0.15
332.552	0.16
332.92	0.16
333.287	0.16
333.655	0.17
334.022	0.17
334.389	0.17
334.757	0.17
335.124	0.17
335.491	0.18
335.859	0.19
336.226	0.19
336.593	0.19
336.96	0.19
337.327	0.2
337.695	0.2
338.062	0.2
338.429	0.2
338.796	0.21
339.163	0.21
339.53	0.22
339.897	0.22
340.263	0.22
340.63	0.23
340.997	0.23
341.364	0.24
341.731	0.24
342.097	0.25
342.464	0.25
342.831	0.25
343.197	0.26
343.564	0.26
343.931	0.27
344.297	0.27
344.664	0.27
345.03	0.28
345.396	0.27
345.763	0.29
346.129	0.29
346.496	0.3
346.862	0.3
347.228	0.3
347.594	0.31
347.961	0.31
348.327	0.32
348.693	0.32
349.059	0.32
349.425	0.32
349.791	0.33
350.157	0.34
350.523	0.34
350.889	0.34
351.255	0.35
351.621	0.35
351.987	0.35
352.353	0.36
352.719	0.36
353.084	0.37
353.45	0.37
353.816	0.38
354.181	0.38
354.547	0.38
354.913	0.39
355.278	0.4
355.644	0.4
356.009	0.41
356.375	0.41
356.74	0.42
357.106	0.42
357.471	0.42
357.836	0.44
358.202	0.44
358.567	0.45
358.932	0.45
359.297	0.46
359.663	0.46
360.028	0.47
360.393	0.48
360.758	0.48
361.123	0.49
361.488	0.5
361.853	0.51
362.218	0.52
362.583	0.52
362.948	0.52
363.312	0.53
363.677	0.54
364.042	0.54
364.407	0.55
364.772	0.56
365.136	0.56
365.501	0.57
365.865	0.58
366.23	0.58
366.595	0.58
366.959	0.59
367.324	0.6
367.688	0.6
368.052	0.61
368.417	0.61
368.781	0.62
369.145	0.63
369.51	0.63
369.874	0.64
370.238	0.64
370.602	0.64
370.967	0.64
371.331	0.65
371.695	0.66
372.059	0.66
372.423	0.67
372.787	0.66
373.151	0.66
373.515	0.66
373.878	0.65
374.242	0.64
374.606	0.65
374.97	0.65
375.334	0.63
375.697	0.63
376.061	0.62
376.425	0.62
376.788	0.62
377.152	0.61
377.515	0.61
377.879	0.6
378.242	0.59
378.606	0.59
378.969	0.58
379.333	0.58
379.696	0.57
380.059	0.56
380.422	0.55
380.786	0.56
381.149	0.55
381.512	0.54
381.875	0.54
382.238	0.54
382.601	0.53
382.964	0.53
383.327	0.52
383.69	0.52
384.053	0.51
384.416	0.51
384.779	0.51
385.142	0.5
385.504	0.5
385.867	0.5
386.23	0.5
386.593	0.5
386.955	0.51
387.318	0.51
387.68	0.51
388.043	0.51
388.405	0.52
388.768	0.51
389.13	0.51
389.493	0.51
389.855	0.5
390.217	0.5
390.58	0.5
390.942	0.5
391.304	0.5
391.666	0.49
392.028	0.48
392.391	0.48
392.753	0.47
393.115	0.47
393.477	0.46
393.839	0.47
394.201	0.45
394.563	0.45
394.924	0.46
395.286	0.46
395.648	0.46
396.01	0.46
396.371	0.47
396.733	0.48
397.095	0.49
397.456	0.5
397.818	0.51
398.18	0.52
398.541	0.54
398.903	0.55
399.264	0.57
399.625	0.58
399.987	0.59
400.348	0.6
400.709	0.61
401.071	0.62
401.432	0.63
401.793	0.62
402.154	0.62
402.515	0.61
402.876	0.6
403.238	0.59
403.599	0.57
403.96	0.56
404.32	0.54
404.681	0.52
405.042	0.5
405.403	0.47
405.764	0.46
406.125	0.43
406.485	0.4
406.846	0.39
407.207	0.37
407.567	0.34
407.928	0.33
408.288	0.31
408.649	0.29
409.009	0.27
409.37	0.26
409.73	0.24
410.091	0.23
410.451	0.22
410.811	0.2
411.171	0.2
411.532	0.18
411.892	0.18
412.252	0.17
412.612	0.16
412.972	0.15
413.332	0.15
413.692	0.14
414.052	0.13
414.412	0.13
414.772	0.12
415.132	0.12
415.492	0.12
415.851	0.12
416.211	0.11
416.571	0.1
416.931	0.1
417.29	0.09
417.65	0.09
418.009	0.1
418.369	0.09
418.728	0.09
419.088	0.09
419.447	0.08
419.807	0.08
420.166	0.09
420.525	0.08
420.884	0.07
421.244	0.07
421.603	0.07
421.962	0.08
422.321	0.08
422.68	0.07
423.039	0.07
423.398	0.07
423.757	0.07
424.116	0.07
424.475	0.07
424.834	0.07
425.193	0.07
425.551	0.06
425.91	0.06
426.269	0.06
426.628	0.06
426.986	0.06
427.345	0.06
427.703	0.06
428.062	0.05
428.42	0.06
428.779	0.06
429.137	0.06
429.496	0.05
429.854	0.05
430.212	0.06
430.57	0.05
430.929	0.05
431.287	0.05
431.645	0.05
432.003	0.05
432.361	0.05
432.719	0.06
433.077	0.05
433.435	0.05
433.793	0.05
434.151	0.05
434.509	0.05
434.866	0.05
435.224	0.05
435.582	0.05
435.94	0.06
436.297	0.04
436.655	0.04
437.012	0.05
437.37	0.05
437.727	0.05
438.085	0.05
438.442	0.04
438.8	0.05
439.157	0.05
439.514	0.06
439.872	0.05
440.229	0.05
440.586	0.04
440.943	0.06
441.3	0.05
441.657	0.05
442.014	0.06
442.371	0.05
442.728	0.04
443.085	0.06
443.442	0.05
443.799	0.04
444.156	0.05
444.513	0.04
444.869	0.05
445.226	0.05
445.583	0.05
445.939	0.05
446.296	0.05
446.652	0.05
447.009	0.05
447.365	0.05
447.722	0.05
448.078	0.05
448.434	0.05
448.791	0.05
449.147	0.05
449.503	0.05
449.859	0.05
450.215	0.05
450.571	0.05
450.928	0.05
451.284	0.05
451.64	0.05
451.995	0.05
452.351	0.06
452.707	0.07
453.063	0.05
453.419	0.05
453.775	0.06
454.13	0.05
454.486	0.06
454.842	0.05
455.197	0.05
455.553	0.05
455.908	0.05
456.264	0.05
456.619	0.05
456.975	0.05
457.33	0.05
457.685	0.06
458.04	0.05
458.396	0.05
458.751	0.05
459.106	0.06
459.461	0.06
459.816	0.06
460.171	0.05
460.526	0.06
460.881	0.06
461.236	0.05
461.591	0.06
461.946	0.05
462.301	0.06
462.655	0.06
463.01	0.07
463.365	0.06
463.719	0.06
464.074	0.05
464.428	0.06
464.783	0.05
465.137	0.06
465.492	0.06
465.846	0.05
466.201	0.05
466.555	0.05
466.909	0.06
467.263	0.05
467.618	0.06
467.972	0.06
468.326	0.06
468.68	0.06
469.034	0.06
469.388	0.07
469.742	0.06
470.096	0.06
470.45	0.07
470.804	0.07
471.157	0.06
471.511	0.07
471.865	0.07
472.218	0.07
472.572	0.07
472.926	0.07
473.279	0.07
473.633	0.08
473.986	0.07
474.34	0.08
474.693	0.08
475.046	0.08
475.4	0.08
475.753	0.08
476.106	0.09
476.459	0.09
476.812	0.09
477.165	0.09
477.519	0.09
477.872	0.08
478.224	0.09
478.577	0.1
478.93	0.09
479.283	0.09
479.636	0.1
479.989	0.1
480.341	0.1
480.694	0.1
481.047	0.1
481.399	0.1
481.752	0.1
482.104	0.11
482.457	0.11
482.809	0.11
483.162	0.11
483.514	0.11
483.866	0.11
484.219	0.11
484.571	0.12
484.923	0.12
485.275	0.12
485.627	0.12
485.979	0.12
486.331	0.12
486.683	0.12
487.035	0.13
487.387	0.12
487.739	0.12
488.091	0.13
488.443	0.13
488.794	0.13
489.146	0.13
489.498	0.13
489.849	0.13
490.201	0.14
490.552	0.14
490.904	0.14
491.255	0.14
491.607	0.14
491.958	0.15
492.309	0.14
492.661	0.14
493.012	0.15
493.363	0.15
493.714	0.15
494.065	0.15
494.416	0.15
494.767	0.15
495.118	0.15
495.469	0.15
495.82	0.16
496.171	0.16
496.522	0.16
496.872	0.16
497.223	0.16
497.574	0.16
497.924	0.16
498.275	0.16
498.626	0.17
498.976	0.17
499.327	0.17
499.677	0.17
500.027	0.17
500.378	0.18
500.728	0.17
501.078	0.17
501.428	0.18
501.779	0.18
502.129	0.18
502.479	0.18
502.829	0.18
503.179	0.18
503.529	0.18
503.879	0.18
504.229	0.19
504.578	0.19
504.928	0.19
505.278	0.19
505.628	0.19
505.977	0.19
506.327	0.2
506.676	0.19
507.026	0.2
507.375	0.2
507.725	0.2
508.074	0.2
508.424	0.2
508.773	0.2
509.122	0.21
509.471	0.21
509.82	0.2
510.17	0.2
510.519	0.21
510.868	0.21
511.217	0.21
511.566	0.21
511.915	0.21
512.263	0.21
512.612	0.22
512.961	0.22
513.31	0.22
513.659	0.22
514.007	0.22
514.356	0.22
514.704	0.22
515.053	0.23
515.401	0.23
515.75	0.23
516.098	0.23
516.447	0.23
516.795	0.23
517.143	0.23
517.491	0.23
517.839	0.23
518.188	0.23
518.536	0.24
518.884	0.24
519.232	0.24
519.58	0.24
519.928	0.23
520.275	0.23
520.623	0.24
520.971	0.24
521.319	0.24
521.666	0.24
522.014	0.24
522.362	0.24
522.709	0.25
523.057	0.24
523.404	0.25
523.752	0.24
524.099	0.25
524.446	0.25
524.794	0.25
525.141	0.25
525.488	0.26
525.835	0.26
526.182	0.25
526.529	0.26
526.876	0.26
527.223	0.26
527.57	0.26
527.917	0.26
528.264	0.26
528.611	0.26
528.958	0.26
529.304	0.26
529.651	0.26
529.998	0.27
530.344	0.26
530.691	0.27
531.037	0.26
531.384	0.27
531.73	0.27
532.076	0.27
532.423	0.27
532.769	0.27
533.115	0.27
533.461	0.27
533.807	0.27
534.154	0.27
534.5	0.27
534.846	0.27
535.192	0.27
535.537	0.27
535.883	0.28
536.229	0.28
536.575	0.28
536.921	0.28
537.266	0.28
537.612	0.28
537.957	0.28
538.303	0.28
538.649	0.29
538.994	0.29
539.339	0.28
539.685	0.28
540.03	0.28
540.375	0.29
540.721	0.29
541.066	0.29
541.411	0.28
541.756	0.29
542.101	0.29
542.446	0.29
542.791	0.29
543.136	0.29
543.481	0.29
543.825	0.29
544.17	0.29
544.515	0.29
544.86	0.29
545.204	0.29
545.549	0.29
545.893	0.29
546.238	0.3
546.582	0.3
546.927	0.3
547.271	0.29
547.615	0.3
547.96	0.3
548.304	0.3
548.648	0.3
548.992	0.3
549.336	0.3
549.68	0.3
550.024	0.3
550.368	0.3
550.712	0.3
551.056	0.3
551.4	0.3
551.743	0.3
552.087	0.3
552.431	0.3
552.774	0.3
553.118	0.3
553.462	0.3
553.805	0.3
554.148	0.3
554.492	0.3
554.835	0.3
555.178	0.3
555.522	0.3
555.865	0.3
556.208	0.31
556.551	0.3
556.894	0.3
557.237	0.3
557.58	0.3
557.923	0.3
558.266	0.3
558.609	0.3
558.952	0.3
559.294	0.31
559.637	0.3
559.98	0.3
560.322	0.3
560.665	0.3
561.007	0.31
561.35	0.3
561.692	0.3
562.034	0.31
562.377	0.3
562.719	0.3
563.061	0.3
563.403	0.3
563.745	0.3
564.088	0.3
564.43	0.3
564.772	0.3
565.113	0.3
565.455	0.3
565.797	0.3
566.139	0.3
566.481	0.3
566.822	0.3
567.164	0.3
567.506	0.3
567.847	0.3
568.189	0.3
568.53	0.3
568.872	0.3
569.213	0.3
569.554	0.29
569.895	0.29
570.237	0.3
570.578	0.29
570.919	0.29
571.26	0.29
571.601	0.29
571.942	0.29
572.283	0.29
572.624	0.29
572.965	0.29
573.306	0.28
573.646	0.28
573.987	0.28
574.328	0.28
574.668	0.29
575.009	0.29
575.349	0.28
575.69	0.28
576.03	0.28
576.37	0.27
576.711	0.27
577.051	0.28
577.391	0.28
577.731	0.28
578.072	0.28
578.412	0.28
578.752	0.28
579.092	0.27
579.431	0.26
579.771	0.25
580.111	0.24
580.451	0.25
580.791	0.27
581.13	0.27
581.47	0.27
581.81	0.27
582.149	0.27
582.489	0.27
582.828	0.26
583.167	0.24
583.507	0.2
583.846	0.19
584.185	0.22
584.525	0.24
584.864	0.26
585.203	0.27
585.542	0.27
585.881	0.27
586.22	0.27
586.559	0.26
586.898	0.25
587.236	0.25
587.575	0.25
587.914	0.25
588.252	0.26
588.591	0.27
588.93	0.27
589.268	0.26
589.607	0.26
589.945	0.26
590.283	0.27
590.622	0.27
590.96	0.27
591.298	0.27
591.636	0.27
591.974	0.27
592.313	0.27
592.651	0.28
592.989	0.27
593.326	0.27
593.664	0.28
594.002	0.27
594.34	0.27
594.678	0.27
595.015	0.26
595.353	0.26
595.691	0.27
596.028	0.27
596.366	0.27
596.703	0.28
597.04	0.28
597.378	0.27
597.715	0.28
598.052	0.28
598.389	0.28
598.726	0.28
599.064	0.28
599.401	0.28
599.738	0.28
600.074	0.28
600.411	0.28
600.748	0.27
601.085	0.27
601.422	0.26
601.758	0.26
602.095	0.27
602.432	0.27
602.768	0.27
603.105	0.27
603.441	0.27
603.777	0.28
604.114	0.28
604.45	0.27
604.786	0.27
605.122	0.27
605.459	0.27
605.795	0.27
606.131	0.27
606.467	0.27
606.803	0.27
607.139	0.27
607.474	0.27
607.81	0.27
608.146	0.27
608.482	0.27
608.817	0.26
609.153	0.26
609.488	0.26
609.824	0.26
610.159	0.26
610.495	0.26
610.83	0.27
611.165	0.26
611.5	0.26
611.836	0.26
612.171	0.26
612.506	0.26
612.841	0.26
613.176	0.26
613.511	0.26
613.845	0.26
614.18	0.26
614.515	0.26
614.85	0.26
615.184	0.26
615.519	0.26
615.854	0.26
616.188	0.26
616.523	0.25
616.857	0.25
617.191	0.25
617.526	0.25
617.86	0.25
618.194	0.25
618.528	0.25
618.862	0.25
619.196	0.25
619.53	0.25
619.864	0.25
620.198	0.25
620.532	0.25
620.866	0.25
621.2	0.25
621.533	0.24
621.867	0.24
622.201	0.24
622.534	0.24
622.868	0.24
623.201	0.24
623.534	0.24
623.868	0.24
624.201	0.23
624.534	0.24
624.868	0.24
625.201	0.23
625.534	0.23
625.867	0.23
626.2	0.23
626.533	0.23
626.865	0.23
627.198	0.23
627.531	0.23
627.864	0.23
628.196	0.23
628.529	0.23
628.862	0.22
629.194	0.22
629.527	0.22
629.859	0.22
630.191	0.22
630.524	0.22
630.856	0.22
631.188	0.22
631.52	0.21
631.852	0.21
632.184	0.21
632.516	0.21
632.848	0.21
633.18	0.21
633.512	0.2
633.844	0.2
634.175	0.21
634.507	0.2
634.839	0.2
635.17	0.2
635.502	0.2
635.833	0.2
636.165	0.19
636.496	0.19
636.827	0.19
637.159	0.19
637.49	0.19
637.821	0.19
638.152	0.19
638.483	0.19
638.814	0.19
639.145	0.18
639.476	0.18
639.807	0.18
640.137	0.18
640.468	0.18
640.799	0.18
641.129	0.17
641.46	0.18
641.791	0.18
642.121	0.17
642.451	0.18
642.782	0.17
643.112	0.17
643.442	0.17
643.773	0.17
644.103	0.16
644.433	0.16
644.763	0.17
645.093	0.16
645.423	0.16
645.753	0.16
646.082	0.16
646.412	0.16
646.742	0.16
647.072	0.16
647.401	0.16
647.731	0.16
648.06	0.15
648.39	0.16
648.719	0.15
649.048	0.15
649.378	0.15
649.707	0.15
650.036	0.15
650.365	0.15
650.694	0.15
651.023	0.15
651.352	0.15
651.681	0.15
652.01	0.15
652.339	0.15
652.668	0.15
652.996	0.15
653.325	0.15
653.654	0.15
653.982	0.15
654.311	0.15
654.639	0.15
654.967	0.15
655.296	0.15
655.624	0.15
655.952	0.15
656.28	0.15
656.609	0.15
656.937	0.14
657.265	0.14
657.593	0.04
657.92	0
658.248	0
658.576	0
658.904	0.02
659.231	0.09
659.559	0.13
659.887	0.14
660.214	0.14
660.542	0.14
660.869	0.14
661.196	0.14
661.524	0.14
661.851	0.13
662.178	0.13
662.505	0.14
662.832	0.14
663.159	0.14
663.486	0.14
663.813	0.14
664.14	0.13
664.467	0.13
664.794	0.14
665.12	0.13
665.447	0.13
665.774	0.13
666.1	0.13
666.427	0.13
666.753	0.13
667.079	0.13
667.406	0.13
667.732	0.13
668.058	0.13
668.384	0.13
668.71	0.12
669.036	0.12
669.362	0.12
669.688	0.13
670.014	0.12
670.34	0.12
670.666	0.12
670.991	0.12
671.317	0.12
671.643	0.12
671.968	0.12
672.294	0.12
672.619	0.12
672.945	0.12
673.27	0.11
673.595	0.11
673.92	0.11
674.246	0.11
674.571	0.11
674.896	0.11
675.221	0.11
675.546	0.11
675.87	0.11
676.195	0.1
676.52	0.11
676.845	0.11
677.169	0.1
677.494	0.1
677.819	0.1
678.143	0.1
678.468	0.1
678.792	0.1
679.116	0.1
679.44	0.09
679.765	0.09
680.089	0.09
680.413	0.09
680.737	0.09
681.061	0.09
681.385	0.09
681.709	0.09
682.033	0.08
682.356	0.09
682.68	0.09
683.004	0.09
683.327	0.08
683.651	0.08
683.974	0.08
684.298	0.08
684.621	0.08
684.944	0.08
685.268	0.08
685.591	0.08
685.914	0.08
686.237	0.08
686.56	0.08
686.883	0.07
687.206	0.07
687.529	0.07
687.852	0.07
688.175	0.07
688.497	0.07
688.82	0.07
689.142	0.07
689.465	0.07
689.787	0.07
690.11	0.07
690.432	0.06
690.755	0.06
691.077	0.06
691.399	0.06
691.721	0.06
692.043	0.06
692.365	0.06
692.687	0.06
693.009	0.06
693.331	0.06
693.653	0.05
693.974	0.06
694.296	0.06
694.618	0.05
694.939	0.06
695.261	0.06
695.582	0.05
695.904	0.06
696.225	0.06
696.546	0.06
696.868	0.06
697.189	0.05
697.51	0.05
697.831	0.05
698.152	0.05
698.473	0.05
698.794	0.04
699.114	0.04
699.435	0.03
699.756	0.04
700.077	0.04
700.397	0.04
700.718	0.05
701.038	0.04
701.359	0.05
701.679	0.05
701.999	0.05
702.32	0.05
702.64	0.04
702.96	0.04
703.28	0.04
703.6	0.04
703.92	0.04
704.24	0.04
704.56	0.04
704.879	0.04
705.199	0.04
705.519	0.04
705.838	0.04
706.158	0.04
706.478	0.04
706.797	0.04
707.116	0.04
707.436	0.04
707.755	0.04
708.074	0.04
708.393	0.04
708.712	0.03
709.031	0.03
709.35	0.03
709.669	0.02
709.988	0.03
710.307	0.03
710.626	0.03
710.944	0.04
711.263	0.03
711.582	0.04
711.9	0.04
712.219	0.04
712.537	0.04
712.855	0.04
713.174	0.04
713.492	0.04
713.81	0.04
714.128	0.04
714.446	0.04
714.764	0.04
715.082	0.03
715.4	0.04
715.718	0.03
716.035	0.03
716.353	0.03
716.671	0.04
716.988	0.03
717.306	0.03
717.623	0.04
717.941	0.04
718.258	0.04
718.575	0.04
718.893	0.04
719.21	0.04
719.527	0.04
719.844	0.04
720.161	0.04
720.478	0.04
720.795	0.04
721.112	0.04
721.428	0.04
721.745	0.04
722.062	0.04
722.378	0.04
722.695	0.04
723.011	0.04
723.328	0.04
723.644	0.04
723.96	0.05
724.276	0.05
724.593	0.04
724.909	0.04
725.225	0.05
725.541	0.05
725.857	0.04
726.173	0.04
726.488	0.05
726.804	0.05
727.12	0.05
727.435	0.04
727.751	0.04
728.067	0.05
728.382	0.05
728.697	0.05
729.013	0.05
729.328	0.05
729.643	0.04
729.958	0.04
730.273	0.04
730.588	0.04
730.903	0.04
731.218	0.04
731.533	0.05
731.848	0.04
732.163	0.04
732.477	0.04
732.792	0.04
733.107	0.04
733.421	0.04
733.736	0.04
734.05	0.04
734.364	0.04
734.678	0.04
734.993	0.04
735.307	0.04
735.621	0.04
735.935	0.04
736.249	0.04
736.563	0.04
736.877	0.04
737.19	0.04
737.504	0.04
737.818	0.04
738.131	0.04
738.445	0.04
738.758	0.04
739.072	0.04
739.385	0.04
739.698	0.04
740.012	0.04
740.325	0.04
740.638	0.04
740.951	0.04
741.264	0.04
741.577	0.04
741.89	0.04
742.203	0.04
742.515	0.04
742.828	0.03
743.141	0.04
743.453	0.04
743.766	0.03
744.078	0.04
744.391	0.03
744.703	0.03
745.015	0.04
745.327	0.04
745.639	0.04
745.952	0.04
746.264	0.03
746.575	0.04
746.887	0.04
747.199	0.04
747.511	0.04
747.823	0.04
748.134	0.04
748.446	0.03
748.757	0.03
749.069	0.03
749.38	0.03
749.692	0.03
750.003	0.03
750.314	0.03
750.625	0.03
750.936	0.03
751.248	0.03
751.559	0.03
751.869	0.03
752.18	0.03
752.491	0.03
752.802	0.03
753.112	0.03
753.423	0.03
753.734	0.03
754.044	0.03
754.355	0.03
754.665	0.03
754.975	0.03
755.285	0.03
755.596	0.03
755.906	0.03
756.216	0.03
756.526	0.03
756.836	0.03
757.146	0.03
757.455	0.02
757.765	0.02
758.075	0.02
758.385	0.02
758.694	0.02
759.004	0.02
759.313	0.02
759.622	0.02
759.932	0.02
760.241	0.02
760.55	0.02
760.859	0.02
761.168	0.02
761.477	0.02
761.786	0.02
762.095	0.02
762.404	0.01
762.713	0.02
763.021	0.02
763.33	0.02
763.639	0.02
763.947	0.02
764.256	0.02
764.564	0.02
764.872	0.02
765.181	0.02
765.489	0.02
765.797	0.02
766.105	0.02
766.413	0.02
766.721	0.02
767.029	0.02
767.337	0.02
767.644	0.02
767.952	0.02
768.26	0.02
768.567	0.02
768.875	0.02
769.182	0.02
769.49	0.02
769.797	0.01
770.104	0.02
770.411	0.02
770.718	0.02
771.026	0.02
771.333	0.02
771.639	0.02
771.946	0.02
772.253	0.02
772.56	0.02
772.867	0.02
773.173	0.02
773.48	0.02
773.786	0.02
774.093	0.02
774.399	0.02
774.705	0.02
775.012	0.02
775.318	0.02
775.624	0.02
775.93	0.02
776.236	0.02
776.542	0.02
776.848	0.02
777.154	0.02
777.459	0.02
777.765	0.02
778.071	0.02
778.376	0.02
778.682	0.02
778.987	0.02
779.292	0.02
779.598	0.02
779.903	0.02
780.208	0.02
780.513	0.02
780.818	0.02
781.123	0.02
781.428	0.02
781.733	0.02
782.038	0.02
782.343	0.02
782.647	0.02
782.952	0.02
783.256	0.02
783.561	0.02
783.865	0.02
784.17	0.02
784.474	0.02
784.778	0.02
785.082	0.02
785.386	0.02
785.69	0.02
785.994	0.02
786.298	0.02
786.602	0.02
786.906	0.02
787.209	0.02
787.513	0.02
787.817	0.02
788.12	0.02
788.424	0.02
788.727	0.02
789.03	0.02
789.333	0.02
789.637	0.02
789.94	0.02
790.243	0.02
790.546	0.02
790.849	0.02
791.152	0.02
791.454	0.02
791.757	0.02
792.06	0.02
792.362	0.02
792.665	0.02
792.967	0.01
793.27	0.02
793.572	0.02
793.874	0.02
794.177	0.02
794.479	0.02
794.781	0.02
795.083	0.02
795.385	0.02
795.687	0.02
795.989	0.02
796.29	0.02
796.592	0.02
796.894	0.02
797.195	0.02
797.497	0.02
797.798	0.02
798.1	0.02
798.401	0.02
798.702	0.02
799.003	0.02
799.304	0.02
799.605	0.02
799.906	0.02
800.207	0.02
800.508	0.02
800.809	0.02
801.11	0.02
801.41	0.02
801.711	0.02
802.011	0.02
802.312	0.02
802.612	0.02
802.913	0.02
803.213	0.02
803.513	0.02
803.813	0.02
804.113	0.02
804.413	0.01
804.713	0.02
805.013	0.02
805.313	0.02
805.613	0.02
805.912	0.02
806.212	0.02
806.511	0.02
806.811	0.02
807.11	0.01
807.41	0.02
807.709	0.02
808.008	0.02
808.307	0.02
808.606	0.03
808.905	0.02
809.204	0.03
809.503	0.03
809.802	0.03
810.101	0.02
810.399	0.03
810.698	0.03
810.997	0.03
811.295	0.03
811.593	0.02
811.892	0.03
812.19	0.02
812.488	0.02
812.786	0.02
813.084	0.02
813.383	0.03
813.68	0.02
813.978	0.02
814.276	0.03
814.574	0.02
814.872	0.02
815.169	0.03
815.467	0.02
815.764	0.02
816.062	0.02
816.359	0.02
816.656	0.03
816.954	0.02
817.251	0.03
817.548	0.03
817.845	0.03
818.142	0.03
818.439	0.02
818.735	0.02
819.032	0.02
819.329	0.02
819.626	0.02
819.922	0.02
820.219	0.02
820.515	0.02
820.811	0.03
821.108	0.03
821.404	0.03
821.7	0.03
821.996	0.03
822.292	0.03
822.588	0.03
822.884	0.03
823.18	0.04
823.475	0.03
823.771	0.03
824.067	0.03
824.362	0.03
824.658	0.03
824.953	0.03
825.249	0.02
825.544	0.03
825.839	0.03
826.134	0.03
826.429	0.03
826.724	0.03
827.019	0.03
827.314	0.03
827.609	0.03
827.904	0.03
828.198	0.03
828.493	0.03
828.787	0.03
829.082	0.02
829.376	0.03
829.671	0.03
829.965	0.03
830.259	0.03
830.553	0.03
830.847	0.03
831.141	0.03
831.435	0.03
831.729	0.04
832.023	0.03
832.317	0.04
832.61	0.03
832.904	0.03
833.197	0.03
833.491	0.03
833.784	0.03
834.077	0.03
834.371	0.03
834.664	0.03
834.957	0.03
835.25	0.03
835.543	0.03
835.836	0.03
836.129	0.02
836.421	0.03
836.714	0.03
837.007	0.03
837.299	0.03
837.592	0.03
837.884	0.04
838.177	0.04
838.469	0.03
838.761	0.04
839.053	0.03
839.345	0.03
839.637	0.03
839.929	0.04
840.221	0.04
840.513	0.04
840.805	0.03
841.096	0.03
841.388	0.03
841.68	0.03
841.971	0.03
842.262	0.03
842.554	0.03
842.845	0.03
843.136	0.03
843.427	0.04
843.718	0.03
844.009	0.03
844.3	0.04
844.591	0.04
844.882	0.04
845.173	0.04
845.463	0.04
845.754	0.04
846.044	0.04
846.335	0.04
846.625	0.04
846.915	0.04
847.206	0.04
847.496	0.04
847.786	0.04
848.076	0.04
848.366	0.04
848.656	0.04
848.945	0.04
849.235	0.04
849.525	0.03
849.814	0.04
850.104	0.04
850.393	0.05
850.683	0.04
850.972	0.04
851.261	0.04
851.551	0.05
851.84	0.04
852.129	0.04
852.418	0.04
852.707	0.04
852.995	0.04
853.284	0.04
853.573	0.04
853.862	0.04
854.15	0.04
854.439	0.03
854.727	0.04
855.015	0.04
855.304	0.04
855.592	0.04
855.88	0.05
856.168	0.04
856.456	0.04
856.744	0.04
857.032	0.05
857.32	0.05
857.607	0.04
857.895	0.05
858.183	0.04
858.47	0.04
858.757	0.06
859.045	0.05
859.332	0.05
859.619	0.05
859.907	0.06
860.194	0.04
860.481	0.04
860.768	0.06
861.054	0.06
861.341	0.04
861.628	0.04
861.915	0.06
862.201	0.06
862.488	0.05
862.774	0.05
863.061	0.05
863.347	0.02
863.633	0.05
863.919	0.06
864.205	0.03
864.491	0.03
864.777	0.02
865.063	0.05
865.349	0.05
865.635	0.04
865.92	0.06
866.206	0.03
866.492	0.05
866.777	0.05
867.062	0.05
867.348	0.03
867.633	0.04
867.918	0.02
868.203	0.04
868.488	0.06
868.773	0.04
869.058	0.06
869.343	0.04
869.628	0.03
869.912	0.04
870.197	0.04
870.482	0.04
870.766	0.04
871.05	0.02
871.335	0.03
871.619	0.06
871.903	0.07
872.187	0.04
872.471	0.01
872.755	0.01
873.039	0.03
873.323	0.03
873.607	0.03
873.89	0.06
874.174	0.01
874.458	0.04
874.741	0.07
875.024	0.03
875.308	0.04
875.591	0.1
875.874	0.07
876.157	0.08
876.44	0.05
876.723	0.07
877.006	0.05
877.289	0.02
877.572	0.05
877.854	0.05
878.137	-0.02
878.42	0.05
878.702	0.06
878.984	0.08
879.267	0.05
879.549	0.01
879.831	0.01
880.113	0.13
880.395	0.05
880.677	0.08
880.959	0.01
