Data from Rubpy_BV_1500_EDTA_Buffered_Absorbance_14-26-48-575.txt Node
Date: Wed Jul 01 14:26:48 BST 2026
User: fpm-admin
Spectrometer: OFX00224
Trigger mode: 0
Integration Time (sec): 7.000000E-2
Scans to average: 3
Nonlinearity correction enabled: false
Boxcar width: 0
Storing dark spectrum: false
XAxis mode: Wavelengths
Number of Pixels in Spectrum: 2136
>>>>>Begin Spectral Data<<<<<
154.91	-0
155.289	0.52
155.669	-0
156.048	-0.03
156.428	-0
156.807	0.6
157.186	-0
157.566	0.3
157.945	1.18
158.325	-0.21
158.704	-0
159.083	-0
159.462	0.18
159.842	-0.06
160.221	-0.48
160.6	-0
160.979	-0.14
161.359	-0.2
161.738	-0
162.117	-0.13
162.496	-0.55
162.875	0.78
163.254	1.52
163.633	1.18
164.012	-0
164.391	0.79
164.77	0.03
165.149	0.59
165.528	-0
165.907	-0
166.286	-0.56
166.665	0.25
167.044	-0.12
167.423	-0
167.802	-0
168.181	-0.2
168.559	-0.06
168.938	-0.24
169.317	0.02
169.696	0.08
170.074	-0.51
170.453	0.02
170.832	0.49
171.21	-0.21
171.589	-0.1
171.968	-0
172.346	0.19
172.725	-0
173.103	-0
173.482	-0.81
173.861	-0
174.239	-0.54
174.617	0.53
174.996	-0
175.374	-0.02
175.753	-0.56
176.131	-0.35
176.51	-0.21
176.888	-0
177.266	-0
177.645	-0.05
178.023	-0
178.401	-0.14
178.779	0.07
179.158	0.28
179.536	0.03
179.914	-0.45
180.292	0.03
180.67	-0
181.048	-0.28
181.427	0.14
181.805	1.08
182.183	-0.52
182.561	-0.06
182.939	-0
183.317	-0.46
183.695	-0.25
184.073	-0
184.451	-0
184.829	0.13
185.206	-0.51
185.584	0.54
185.962	-0
186.34	-0
186.718	-0
187.096	-0
187.473	-0.14
187.851	-0
188.229	0.24
188.607	0.17
188.984	0.37
189.362	0.42
189.74	0.13
190.117	0.21
190.495	0.19
190.872	0.29
191.25	0.28
191.627	0.11
192.005	0.21
192.382	0.27
192.76	0.27
193.137	0.35
193.515	0.26
193.892	0.31
194.269	0.15
194.647	0.49
195.024	0.24
195.401	0.17
195.779	0.22
196.156	0.31
196.533	0.27
196.91	0.17
197.288	0.29
197.665	0.22
198.042	0.26
198.419	0.41
198.796	0.36
199.173	0.29
199.55	0.2
199.927	0.35
200.304	0.31
200.681	0.33
201.058	0.27
201.435	0.33
201.812	0.37
202.189	0.27
202.566	0.18
202.943	0.28
203.32	0.29
203.697	0.24
204.073	0.23
204.45	0.11
204.827	0.37
205.204	0.25
205.58	0.36
205.957	0.25
206.334	0.27
206.71	0.21
207.087	0.34
207.464	0.28
207.84	0.28
208.217	0.25
208.593	0.4
208.97	0.37
209.346	0.19
209.723	0.28
210.099	0.38
210.476	0.27
210.852	0.15
211.228	0.24
211.605	0.31
211.981	0.12
212.357	0.3
212.733	0.18
213.11	0.21
213.486	0.16
213.862	0.29
214.238	0.31
214.614	0.28
214.991	0.29
215.367	0.16
215.743	0.16
216.119	0.3
216.495	0.3
216.871	0.21
217.247	0.33
217.623	0.14
217.999	0.34
218.375	0.14
218.751	0.3
219.127	0.39
219.502	0.3
219.878	0.46
220.254	0.21
220.63	0.4
221.006	0.2
221.381	0.31
221.757	0.59
222.133	0.25
222.508	0.29
222.884	0.35
223.26	0.27
223.635	0.28
224.011	0.32
224.386	0.46
224.762	0.48
225.137	0.29
225.513	0.3
225.888	0.39
226.264	0.32
226.639	0.26
227.014	0.36
227.39	0.26
227.765	0.42
228.14	0.34
228.516	0.46
228.891	0.29
229.266	0.37
229.641	0.35
230.017	0.21
230.392	0.29
230.767	0.23
231.142	0.18
231.517	0.16
231.892	0.34
232.267	0.29
232.642	0.23
233.017	0.27
233.392	0.27
233.767	0.28
234.142	0.47
234.517	0.29
234.892	0.37
235.267	0.27
235.641	0.24
236.016	0.29
236.391	0.3
236.766	0.27
237.14	0.31
237.515	0.35
237.89	0.35
238.264	0.36
238.639	0.22
239.014	0.23
239.388	0.16
239.763	0.35
240.137	0.29
240.512	0.32
240.886	0.33
241.261	0.36
241.635	0.2
242.009	0.35
242.384	0.48
242.758	0.33
243.132	0.22
243.507	0.25
243.881	0.27
244.255	0.24
244.629	0.27
245.004	0.26
245.378	0.32
245.752	0.26
246.126	0.39
246.5	0.31
246.874	0.18
247.248	0.45
247.622	0.21
247.996	0.2
248.37	0.23
248.744	0.2
249.118	0.32
249.492	0.39
249.866	0.24
250.24	0.42
250.613	0.33
250.987	0.37
251.361	0.23
251.735	0.47
252.108	0.4
252.482	0.27
252.856	0.28
253.229	0.36
253.603	0.33
253.977	0.24
254.35	0.33
254.724	0.28
255.097	0.36
255.471	0.36
255.844	0.38
256.218	0.33
256.591	0.42
256.964	0.31
257.338	0.23
257.711	0.37
258.084	0.43
258.458	0.31
258.831	0.34
259.204	0.33
259.577	0.29
259.95	0.31
260.323	0.29
260.697	0.36
261.07	0.36
261.443	0.28
261.816	0.31
262.189	0.31
262.562	0.27
262.935	0.28
263.308	0.34
263.68	0.22
264.053	0.35
264.426	0.52
264.799	0.36
265.172	0.32
265.545	0.4
265.917	0.29
266.29	0.27
266.663	0.35
267.035	0.27
267.408	0.3
267.781	0.36
268.153	0.31
268.526	0.24
268.898	0.33
269.271	0.34
269.643	0.28
270.016	0.28
270.388	0.29
270.76	0.36
271.133	0.23
271.505	0.41
271.877	0.43
272.25	0.3
272.622	0.42
272.994	0.34
273.366	0.28
273.739	0.37
274.111	0.29
274.483	0.29
274.855	0.26
275.227	0.39
275.599	0.26
275.971	0.26
276.343	0.36
276.715	0.37
277.087	0.32
277.459	0.25
277.831	0.32
278.203	0.34
278.574	0.31
278.946	0.29
279.318	0.34
279.69	0.25
280.061	0.27
280.433	0.31
280.805	0.22
281.176	0.36
281.548	0.39
281.92	0.32
282.291	0.22
282.663	0.35
283.034	0.34
283.406	0.23
283.777	0.3
284.148	0.27
284.52	0.32
284.891	0.31
285.262	0.32
285.634	0.31
286.005	0.29
286.376	0.41
286.747	0.29
287.119	0.34
287.49	0.34
287.861	0.27
288.232	0.36
288.603	0.33
288.974	0.42
289.345	0.33
289.716	0.25
290.087	0.35
290.458	0.53
290.829	0.14
291.2	0.35
291.571	0.3
291.941	0.31
292.312	0.24
292.683	0.34
293.054	0.37
293.424	0.23
293.795	0.3
294.166	0.25
294.536	0.37
294.907	0.31
295.277	0.38
295.648	0.31
296.018	0.23
296.389	0.3
296.759	0.28
297.13	0.29
297.5	0.29
297.871	0.34
298.241	0.3
298.611	0.35
298.981	0.35
299.352	0.36
299.722	0.43
300.092	0.3
300.462	0.31
300.832	0.34
301.202	0.39
301.573	0.3
301.943	0.3
302.313	0.41
302.683	0.39
303.053	0.41
303.422	0.3
303.792	0.25
304.162	0.31
304.532	0.33
304.902	0.2
305.272	0.26
305.641	0.3
306.011	0.31
306.381	0.26
306.75	0.23
307.12	0.24
307.49	0.26
307.859	0.27
308.229	0.26
308.598	0.27
308.968	0.21
309.337	0.22
309.707	0.23
310.076	0.21
310.445	0.24
310.815	0.22
311.184	0.21
311.553	0.21
311.923	0.22
312.292	0.21
312.661	0.22
313.03	0.24
313.399	0.24
313.768	0.24
314.137	0.25
314.506	0.22
314.875	0.24
315.244	0.25
315.613	0.25
315.982	0.26
316.351	0.23
316.72	0.24
317.089	0.26
317.458	0.27
317.826	0.26
318.195	0.26
318.564	0.27
318.933	0.28
319.301	0.26
319.67	0.28
320.038	0.28
320.407	0.29
320.775	0.28
321.144	0.29
321.512	0.32
321.881	0.3
322.249	0.32
322.618	0.3
322.986	0.32
323.354	0.31
323.723	0.33
324.091	0.34
324.459	0.32
324.827	0.33
325.195	0.34
325.564	0.35
325.932	0.35
326.3	0.35
326.668	0.36
327.036	0.37
327.404	0.38
327.772	0.37
328.14	0.38
328.508	0.4
328.875	0.39
329.243	0.41
329.611	0.42
329.979	0.41
330.346	0.42
330.714	0.43
331.082	0.43
331.449	0.44
331.817	0.45
332.185	0.46
332.552	0.46
332.92	0.47
333.287	0.47
333.655	0.48
334.022	0.49
334.389	0.5
334.757	0.52
335.124	0.52
335.491	0.54
335.859	0.54
336.226	0.55
336.593	0.57
336.96	0.58
337.327	0.58
337.695	0.6
338.062	0.6
338.429	0.61
338.796	0.63
339.163	0.63
339.53	0.64
339.897	0.66
340.263	0.67
340.63	0.68
340.997	0.69
341.364	0.71
341.731	0.72
342.097	0.73
342.464	0.75
342.831	0.76
343.197	0.76
343.564	0.77
343.931	0.78
344.297	0.8
344.664	0.82
345.03	0.83
345.396	0.83
345.763	0.86
346.129	0.86
346.496	0.87
346.862	0.88
347.228	0.89
347.594	0.91
347.961	0.92
348.327	0.93
348.693	0.95
349.059	0.95
349.425	0.96
349.791	0.97
350.157	0.98
350.523	1
350.889	1.02
351.255	1.02
351.621	1.04
351.987	1.05
352.353	1.06
352.719	1.07
353.084	1.08
353.45	1.08
353.816	1.1
354.181	1.11
354.547	1.14
354.913	1.15
355.278	1.16
355.644	1.17
356.009	1.19
356.375	1.21
356.74	1.22
357.106	1.24
357.471	1.23
357.836	1.25
358.202	1.28
358.567	1.28
358.932	1.31
359.297	1.33
359.663	1.33
360.028	1.36
360.393	1.36
360.758	1.36
361.123	1.4
361.488	1.43
361.853	1.43
362.218	1.45
362.583	1.45
362.948	1.46
363.312	1.49
363.677	1.5
364.042	1.52
364.407	1.54
364.772	1.56
365.136	1.57
365.501	1.57
365.865	1.59
366.23	1.59
366.595	1.6
366.959	1.63
367.324	1.63
367.688	1.64
368.052	1.65
368.417	1.67
368.781	1.65
369.145	1.66
369.51	1.7
369.874	1.68
370.238	1.7
370.602	1.74
370.967	1.71
371.331	1.69
371.695	1.74
372.059	1.74
372.423	1.78
372.787	1.72
373.151	1.77
373.515	1.71
373.878	1.69
374.242	1.69
374.606	1.7
374.97	1.66
375.334	1.64
375.697	1.67
376.061	1.64
376.425	1.63
376.788	1.65
377.152	1.64
377.515	1.59
377.879	1.59
378.242	1.58
378.606	1.55
378.969	1.53
379.333	1.54
379.696	1.5
380.059	1.5
380.422	1.47
380.786	1.46
381.149	1.44
381.512	1.42
381.875	1.4
382.238	1.39
382.601	1.37
382.964	1.35
383.327	1.34
383.69	1.32
384.053	1.3
384.416	1.3
384.779	1.27
385.142	1.27
385.504	1.26
385.867	1.26
386.23	1.26
386.593	1.24
386.955	1.23
387.318	1.23
387.68	1.21
388.043	1.21
388.405	1.21
388.768	1.2
389.13	1.2
389.493	1.18
389.855	1.15
390.217	1.16
390.58	1.16
390.942	1.13
391.304	1.13
391.666	1.11
392.028	1.09
392.391	1.07
392.753	1.06
393.115	1.06
393.477	1.03
393.839	1.03
394.201	1.01
394.563	1.01
394.924	1
395.286	1
395.648	1
396.01	1.01
396.371	1.02
396.733	1.03
397.095	1.04
397.456	1.06
397.818	1.06
398.18	1.09
398.541	1.12
398.903	1.14
399.264	1.15
399.625	1.18
399.987	1.22
400.348	1.23
400.709	1.24
401.071	1.25
401.432	1.25
401.793	1.25
402.154	1.25
402.515	1.23
402.876	1.22
403.238	1.18
403.599	1.16
403.96	1.13
404.32	1.09
404.681	1.05
405.042	1.03
405.403	0.97
405.764	0.93
406.125	0.9
406.485	0.85
406.846	0.8
407.207	0.75
407.567	0.72
407.928	0.68
408.288	0.64
408.649	0.61
409.009	0.57
409.37	0.55
409.73	0.52
410.091	0.49
410.451	0.47
410.811	0.44
411.171	0.42
411.532	0.4
411.892	0.39
412.252	0.37
412.612	0.35
412.972	0.33
413.332	0.32
413.692	0.31
414.052	0.3
414.412	0.29
414.772	0.28
415.132	0.26
415.492	0.26
415.851	0.25
416.211	0.25
416.571	0.23
416.931	0.23
417.29	0.23
417.65	0.22
418.009	0.21
418.369	0.21
418.728	0.2
419.088	0.2
419.447	0.19
419.807	0.19
420.166	0.19
420.525	0.18
420.884	0.17
421.244	0.17
421.603	0.17
421.962	0.17
422.321	0.17
422.68	0.17
423.039	0.15
423.398	0.16
423.757	0.16
424.116	0.16
424.475	0.16
424.834	0.15
425.193	0.14
425.551	0.14
425.91	0.14
426.269	0.14
426.628	0.14
426.986	0.14
427.345	0.14
427.703	0.14
428.062	0.14
428.42	0.14
428.779	0.14
429.137	0.14
429.496	0.13
429.854	0.13
430.212	0.13
430.57	0.14
430.929	0.13
431.287	0.12
431.645	0.12
432.003	0.13
432.361	0.12
432.719	0.13
433.077	0.13
433.435	0.14
433.793	0.13
434.151	0.13
434.509	0.13
434.866	0.13
435.224	0.13
435.582	0.13
435.94	0.14
436.297	0.12
436.655	0.12
437.012	0.13
437.37	0.13
437.727	0.12
438.085	0.13
438.442	0.12
438.8	0.12
439.157	0.13
439.514	0.13
439.872	0.12
440.229	0.13
440.586	0.13
440.943	0.13
441.3	0.13
441.657	0.13
442.014	0.14
442.371	0.13
442.728	0.13
443.085	0.14
443.442	0.13
443.799	0.13
444.156	0.12
444.513	0.13
444.869	0.13
445.226	0.14
445.583	0.14
445.939	0.13
446.296	0.14
446.652	0.14
447.009	0.14
447.365	0.14
447.722	0.14
448.078	0.14
448.434	0.14
448.791	0.14
449.147	0.14
449.503	0.15
449.859	0.15
450.215	0.15
450.571	0.15
450.928	0.15
451.284	0.15
451.64	0.15
451.995	0.15
452.351	0.16
452.707	0.17
453.063	0.15
453.419	0.16
453.775	0.17
454.13	0.16
454.486	0.16
454.842	0.17
455.197	0.16
455.553	0.16
455.908	0.17
456.264	0.17
456.619	0.16
456.975	0.16
457.33	0.16
457.685	0.17
458.04	0.17
458.396	0.17
458.751	0.17
459.106	0.18
459.461	0.18
459.816	0.18
460.171	0.19
460.526	0.18
460.881	0.19
461.236	0.18
461.591	0.19
461.946	0.18
462.301	0.19
462.655	0.2
463.01	0.19
463.365	0.19
463.719	0.19
464.074	0.19
464.428	0.19
464.783	0.19
465.137	0.2
465.492	0.2
465.846	0.19
466.201	0.2
466.555	0.2
466.909	0.2
467.263	0.2
467.618	0.21
467.972	0.22
468.326	0.22
468.68	0.22
469.034	0.22
469.388	0.22
469.742	0.22
470.096	0.22
470.45	0.23
470.804	0.24
471.157	0.23
471.511	0.24
471.865	0.24
472.218	0.24
472.572	0.24
472.926	0.25
473.279	0.25
473.633	0.25
473.986	0.26
474.34	0.26
474.693	0.27
475.046	0.26
475.4	0.27
475.753	0.28
476.106	0.28
476.459	0.29
476.812	0.29
477.165	0.29
477.519	0.29
477.872	0.29
478.224	0.31
478.577	0.31
478.93	0.31
479.283	0.31
479.636	0.32
479.989	0.32
480.341	0.32
480.694	0.33
481.047	0.33
481.399	0.33
481.752	0.34
482.104	0.34
482.457	0.34
482.809	0.34
483.162	0.35
483.514	0.35
483.866	0.36
484.219	0.36
484.571	0.37
484.923	0.37
485.275	0.37
485.627	0.38
485.979	0.38
486.331	0.38
486.683	0.38
487.035	0.39
487.387	0.38
487.739	0.39
488.091	0.4
488.443	0.4
488.794	0.41
489.146	0.4
489.498	0.41
489.849	0.42
490.201	0.42
490.552	0.42
490.904	0.42
491.255	0.43
491.607	0.43
491.958	0.44
492.309	0.44
492.661	0.44
493.012	0.44
493.363	0.45
493.714	0.46
494.065	0.46
494.416	0.46
494.767	0.46
495.118	0.47
495.469	0.47
495.82	0.47
496.171	0.48
496.522	0.48
496.872	0.48
497.223	0.48
497.574	0.49
497.924	0.5
498.275	0.5
498.626	0.5
498.976	0.51
499.327	0.51
499.677	0.51
500.027	0.51
500.378	0.52
500.728	0.52
501.078	0.52
501.428	0.52
501.779	0.53
502.129	0.53
502.479	0.54
502.829	0.54
503.179	0.54
503.529	0.55
503.879	0.55
504.229	0.56
504.578	0.56
504.928	0.56
505.278	0.57
505.628	0.58
505.977	0.57
506.327	0.58
506.676	0.58
507.026	0.58
507.375	0.59
507.725	0.59
508.074	0.59
508.424	0.6
508.773	0.6
509.122	0.6
509.471	0.61
509.82	0.61
510.17	0.61
510.519	0.62
510.868	0.62
511.217	0.62
511.566	0.62
511.915	0.63
512.263	0.63
512.612	0.63
512.961	0.64
513.31	0.64
513.659	0.65
514.007	0.65
514.356	0.64
514.704	0.65
515.053	0.66
515.401	0.67
515.75	0.66
516.098	0.67
516.447	0.66
516.795	0.67
517.143	0.68
517.491	0.67
517.839	0.67
518.188	0.68
518.536	0.68
518.884	0.69
519.232	0.69
519.58	0.69
519.928	0.69
520.275	0.69
520.623	0.7
520.971	0.7
521.319	0.71
521.666	0.7
522.014	0.71
522.362	0.71
522.709	0.71
523.057	0.72
523.404	0.72
523.752	0.71
524.099	0.72
524.446	0.72
524.794	0.73
525.141	0.73
525.488	0.73
525.835	0.73
526.182	0.74
526.529	0.73
526.876	0.74
527.223	0.75
527.57	0.74
527.917	0.74
528.264	0.75
528.611	0.75
528.958	0.75
529.304	0.76
529.651	0.75
529.998	0.76
530.344	0.76
530.691	0.76
531.037	0.76
531.384	0.76
531.73	0.76
532.076	0.77
532.423	0.76
532.769	0.77
533.115	0.78
533.461	0.77
533.807	0.77
534.154	0.78
534.5	0.78
534.846	0.77
535.192	0.78
535.537	0.78
535.883	0.78
536.229	0.78
536.575	0.78
536.921	0.79
537.266	0.79
537.612	0.8
537.957	0.78
538.303	0.79
538.649	0.8
538.994	0.8
539.339	0.79
539.685	0.8
540.03	0.8
540.375	0.8
540.721	0.8
541.066	0.8
541.411	0.8
541.756	0.8
542.101	0.8
542.446	0.8
542.791	0.81
543.136	0.8
543.481	0.8
543.825	0.81
544.17	0.81
544.515	0.81
544.86	0.81
545.204	0.8
545.549	0.81
545.893	0.81
546.238	0.81
546.582	0.81
546.927	0.8
547.271	0.82
547.615	0.81
547.96	0.82
548.304	0.82
548.648	0.81
548.992	0.82
549.336	0.82
549.68	0.82
550.024	0.82
550.368	0.81
550.712	0.82
551.056	0.82
551.4	0.81
551.743	0.82
552.087	0.82
552.431	0.82
552.774	0.81
553.118	0.82
553.462	0.82
553.805	0.81
554.148	0.82
554.492	0.81
554.835	0.81
555.178	0.81
555.522	0.81
555.865	0.82
556.208	0.82
556.551	0.82
556.894	0.81
557.237	0.81
557.58	0.81
557.923	0.81
558.266	0.81
558.609	0.81
558.952	0.8
559.294	0.81
559.637	0.81
559.98	0.8
560.322	0.81
560.665	0.8
561.007	0.81
561.35	0.8
561.692	0.81
562.034	0.8
562.377	0.8
562.719	0.8
563.061	0.8
563.403	0.8
563.745	0.8
564.088	0.8
564.43	0.8
564.772	0.8
565.113	0.79
565.455	0.79
565.797	0.79
566.139	0.79
566.481	0.79
566.822	0.79
567.164	0.78
567.506	0.79
567.847	0.79
568.189	0.79
568.53	0.78
568.872	0.78
569.213	0.78
569.554	0.77
569.895	0.77
570.237	0.78
570.578	0.77
570.919	0.77
571.26	0.77
571.601	0.77
571.942	0.77
572.283	0.76
572.624	0.76
572.965	0.76
573.306	0.76
573.646	0.75
573.987	0.75
574.328	0.75
574.668	0.75
575.009	0.74
575.349	0.75
575.69	0.74
576.03	0.74
576.37	0.74
576.711	0.73
577.051	0.73
577.391	0.73
577.731	0.74
578.072	0.73
578.412	0.73
578.752	0.73
579.092	0.72
579.431	0.72
579.771	0.7
580.111	0.68
580.451	0.7
580.791	0.72
581.13	0.72
581.47	0.72
581.81	0.72
582.149	0.71
582.489	0.71
582.828	0.7
583.167	0.68
583.507	0.64
583.846	0.62
584.185	0.65
584.525	0.68
584.864	0.69
585.203	0.71
585.542	0.71
585.881	0.7
586.22	0.7
586.559	0.7
586.898	0.68
587.236	0.68
587.575	0.67
587.914	0.68
588.252	0.69
588.591	0.69
588.93	0.69
589.268	0.69
589.607	0.69
589.945	0.69
590.283	0.69
590.622	0.69
590.96	0.7
591.298	0.7
591.636	0.69
591.974	0.7
592.313	0.69
592.651	0.7
592.989	0.7
593.326	0.69
593.664	0.69
594.002	0.69
594.34	0.69
594.678	0.68
595.015	0.68
595.353	0.67
595.691	0.68
596.028	0.69
596.366	0.69
596.703	0.69
597.04	0.69
597.378	0.69
597.715	0.69
598.052	0.69
598.389	0.69
598.726	0.69
599.064	0.69
599.401	0.69
599.738	0.68
600.074	0.68
600.411	0.68
600.748	0.68
601.085	0.67
601.422	0.67
601.758	0.67
602.095	0.66
602.432	0.67
602.768	0.67
603.105	0.67
603.441	0.67
603.777	0.68
604.114	0.67
604.45	0.67
604.786	0.67
605.122	0.67
605.459	0.67
605.795	0.66
606.131	0.66
606.467	0.66
606.803	0.66
607.139	0.66
607.474	0.65
607.81	0.65
608.146	0.65
608.482	0.65
608.817	0.65
609.153	0.65
609.488	0.64
609.824	0.64
610.159	0.64
610.495	0.64
610.83	0.64
611.165	0.64
611.5	0.64
611.836	0.63
612.171	0.63
612.506	0.63
612.841	0.63
613.176	0.62
613.511	0.63
613.845	0.62
614.18	0.62
614.515	0.62
614.85	0.62
615.184	0.61
615.519	0.61
615.854	0.61
616.188	0.61
616.523	0.61
616.857	0.6
617.191	0.6
617.526	0.59
617.86	0.59
618.194	0.59
618.528	0.6
618.862	0.6
619.196	0.59
619.53	0.59
619.864	0.59
620.198	0.59
620.532	0.58
620.866	0.58
621.2	0.58
621.533	0.57
621.867	0.57
622.201	0.57
622.534	0.57
622.868	0.57
623.201	0.57
623.534	0.57
623.868	0.57
624.201	0.56
624.534	0.56
624.868	0.55
625.201	0.55
625.534	0.55
625.867	0.55
626.2	0.55
626.533	0.54
626.865	0.54
627.198	0.54
627.531	0.54
627.864	0.53
628.196	0.53
628.529	0.53
628.862	0.52
629.194	0.52
629.527	0.51
629.859	0.51
630.191	0.51
630.524	0.51
630.856	0.51
631.188	0.5
631.52	0.5
631.852	0.5
632.184	0.49
632.516	0.49
632.848	0.49
633.18	0.49
633.512	0.49
633.844	0.48
634.175	0.48
634.507	0.48
634.839	0.48
635.17	0.47
635.502	0.47
635.833	0.46
636.165	0.46
636.496	0.46
636.827	0.45
637.159	0.45
637.49	0.45
637.821	0.44
638.152	0.44
638.483	0.44
638.814	0.44
639.145	0.43
639.476	0.43
639.807	0.43
640.137	0.43
640.468	0.42
640.799	0.42
641.129	0.41
641.46	0.42
641.791	0.41
642.121	0.41
642.451	0.41
642.782	0.4
643.112	0.4
643.442	0.4
643.773	0.4
644.103	0.39
644.433	0.39
644.763	0.39
645.093	0.39
645.423	0.39
645.753	0.39
646.082	0.38
646.412	0.38
646.742	0.37
647.072	0.38
647.401	0.37
647.731	0.37
648.06	0.37
648.39	0.37
648.719	0.36
649.048	0.37
649.378	0.36
649.707	0.36
650.036	0.36
650.365	0.36
650.694	0.36
651.023	0.36
651.352	0.35
651.681	0.35
652.01	0.35
652.339	0.35
652.668	0.35
652.996	0.35
653.325	0.35
653.654	0.35
653.982	0.35
654.311	0.35
654.639	0.34
654.967	0.34
655.296	0.34
655.624	0.34
655.952	0.34
656.28	0.34
656.609	0.34
656.937	0.34
657.265	0.33
657.593	0.21
657.92	0.11
658.248	0.07
658.576	0.09
658.904	0.19
659.231	0.27
659.559	0.32
659.887	0.32
660.214	0.32
660.542	0.32
660.869	0.32
661.196	0.32
661.524	0.31
661.851	0.31
662.178	0.31
662.505	0.31
662.832	0.31
663.159	0.31
663.486	0.31
663.813	0.31
664.14	0.3
664.467	0.3
664.794	0.3
665.12	0.3
665.447	0.3
665.774	0.3
666.1	0.3
666.427	0.3
666.753	0.3
667.079	0.3
667.406	0.29
667.732	0.29
668.058	0.29
668.384	0.29
668.71	0.29
669.036	0.28
669.362	0.28
669.688	0.28
670.014	0.28
670.34	0.28
670.666	0.28
670.991	0.27
671.317	0.27
671.643	0.27
671.968	0.27
672.294	0.27
672.619	0.26
672.945	0.26
673.27	0.26
673.595	0.26
673.92	0.25
674.246	0.25
674.571	0.25
674.896	0.25
675.221	0.25
675.546	0.25
675.87	0.25
676.195	0.25
676.52	0.24
676.845	0.24
677.169	0.24
677.494	0.24
677.819	0.24
678.143	0.23
678.468	0.23
678.792	0.23
679.116	0.22
679.44	0.22
679.765	0.22
680.089	0.22
680.413	0.21
680.737	0.22
681.061	0.21
681.385	0.21
681.709	0.2
682.033	0.2
682.356	0.2
682.68	0.2
683.004	0.2
683.327	0.2
683.651	0.19
683.974	0.19
684.298	0.19
684.621	0.19
684.944	0.19
685.268	0.19
685.591	0.18
685.914	0.18
686.237	0.18
686.56	0.18
686.883	0.17
687.206	0.17
687.529	0.17
687.852	0.16
688.175	0.16
688.497	0.17
688.82	0.16
689.142	0.16
689.465	0.16
689.787	0.16
690.11	0.15
690.432	0.15
690.755	0.15
691.077	0.15
691.399	0.14
691.721	0.15
692.043	0.15
692.365	0.14
692.687	0.14
693.009	0.14
693.331	0.14
693.653	0.13
693.974	0.14
694.296	0.13
694.618	0.13
694.939	0.13
695.261	0.13
695.582	0.13
695.904	0.13
696.225	0.13
696.546	0.12
696.868	0.12
697.189	0.12
697.51	0.12
697.831	0.12
698.152	0.12
698.473	0.12
698.794	0.11
699.114	0.11
699.435	0.1
699.756	0.1
700.077	0.11
700.397	0.11
700.718	0.11
701.038	0.11
701.359	0.11
701.679	0.11
701.999	0.11
702.32	0.1
702.64	0.1
702.96	0.1
703.28	0.1
703.6	0.1
703.92	0.1
704.24	0.1
704.56	0.09
704.879	0.1
705.199	0.1
705.519	0.1
705.838	0.1
706.158	0.1
706.478	0.1
706.797	0.1
707.116	0.1
707.436	0.1
707.755	0.1
708.074	0.1
708.393	0.09
708.712	0.09
709.031	0.08
709.35	0.08
709.669	0.08
709.988	0.08
710.307	0.08
710.626	0.08
710.944	0.09
711.263	0.09
711.582	0.09
711.9	0.09
712.219	0.09
712.537	0.09
712.855	0.09
713.174	0.09
713.492	0.09
713.81	0.09
714.128	0.09
714.446	0.09
714.764	0.09
715.082	0.08
715.4	0.09
715.718	0.09
716.035	0.09
716.353	0.09
716.671	0.09
716.988	0.09
717.306	0.09
717.623	0.09
717.941	0.1
718.258	0.1
718.575	0.1
718.893	0.1
719.21	0.1
719.527	0.1
719.844	0.09
720.161	0.09
720.478	0.1
720.795	0.1
721.112	0.1
721.428	0.1
721.745	0.1
722.062	0.09
722.378	0.1
722.695	0.1
723.011	0.1
723.328	0.1
723.644	0.1
723.96	0.1
724.276	0.1
724.593	0.1
724.909	0.1
725.225	0.1
725.541	0.1
725.857	0.1
726.173	0.1
726.488	0.1
726.804	0.1
727.12	0.1
727.435	0.1
727.751	0.1
728.067	0.1
728.382	0.1
728.697	0.1
729.013	0.1
729.328	0.1
729.643	0.1
729.958	0.1
730.273	0.1
730.588	0.1
730.903	0.1
731.218	0.1
731.533	0.1
731.848	0.1
732.163	0.1
732.477	0.1
732.792	0.1
733.107	0.09
733.421	0.09
733.736	0.09
734.05	0.1
734.364	0.1
734.678	0.1
734.993	0.09
735.307	0.1
735.621	0.09
735.935	0.09
736.249	0.09
736.563	0.09
736.877	0.09
737.19	0.09
737.504	0.09
737.818	0.09
738.131	0.09
738.445	0.09
738.758	0.09
739.072	0.09
739.385	0.09
739.698	0.09
740.012	0.09
740.325	0.09
740.638	0.09
740.951	0.09
741.264	0.09
741.577	0.09
741.89	0.09
742.203	0.09
742.515	0.09
742.828	0.09
743.141	0.09
743.453	0.09
743.766	0.08
744.078	0.09
744.391	0.08
744.703	0.08
745.015	0.08
745.327	0.08
745.639	0.08
745.952	0.08
746.264	0.08
746.575	0.08
746.887	0.08
747.199	0.08
747.511	0.08
747.823	0.08
748.134	0.08
748.446	0.07
748.757	0.07
749.069	0.07
749.38	0.07
749.692	0.07
750.003	0.07
750.314	0.07
750.625	0.07
750.936	0.07
751.248	0.07
751.559	0.07
751.869	0.07
752.18	0.07
752.491	0.07
752.802	0.07
753.112	0.06
753.423	0.06
753.734	0.07
754.044	0.06
754.355	0.07
754.665	0.06
754.975	0.06
755.285	0.06
755.596	0.06
755.906	0.06
756.216	0.06
756.526	0.06
756.836	0.06
757.146	0.06
757.455	0.06
757.765	0.05
758.075	0.05
758.385	0.05
758.694	0.05
759.004	0.05
759.313	0.05
759.622	0.05
759.932	0.05
760.241	0.06
760.55	0.05
760.859	0.05
761.168	0.05
761.477	0.05
761.786	0.05
762.095	0.05
762.404	0.05
762.713	0.05
763.021	0.05
763.33	0.05
763.639	0.05
763.947	0.05
764.256	0.05
764.564	0.05
764.872	0.05
765.181	0.05
765.489	0.05
765.797	0.05
766.105	0.05
766.413	0.05
766.721	0.05
767.029	0.05
767.337	0.05
767.644	0.05
767.952	0.05
768.26	0.05
768.567	0.05
768.875	0.05
769.182	0.05
769.49	0.05
769.797	0.05
770.104	0.05
770.411	0.05
770.718	0.05
771.026	0.05
771.333	0.05
771.639	0.05
771.946	0.05
772.253	0.05
772.56	0.05
772.867	0.05
773.173	0.05
773.48	0.05
773.786	0.05
774.093	0.05
774.399	0.05
774.705	0.05
775.012	0.05
775.318	0.05
775.624	0.05
775.93	0.05
776.236	0.05
776.542	0.05
776.848	0.05
777.154	0.05
777.459	0.05
777.765	0.05
778.071	0.04
778.376	0.05
778.682	0.05
778.987	0.05
779.292	0.05
779.598	0.05
779.903	0.05
780.208	0.05
780.513	0.05
780.818	0.05
781.123	0.05
781.428	0.04
781.733	0.05
782.038	0.05
782.343	0.05
782.647	0.05
782.952	0.05
783.256	0.05
783.561	0.05
783.865	0.05
784.17	0.05
784.474	0.05
784.778	0.06
785.082	0.05
785.386	0.06
785.69	0.06
785.994	0.06
786.298	0.06
786.602	0.06
786.906	0.05
787.209	0.06
787.513	0.06
787.817	0.06
788.12	0.06
788.424	0.06
788.727	0.06
789.03	0.06
789.333	0.06
789.637	0.06
789.94	0.06
790.243	0.06
790.546	0.06
790.849	0.06
791.152	0.06
791.454	0.06
791.757	0.06
792.06	0.06
792.362	0.07
792.665	0.06
792.967	0.06
793.27	0.06
793.572	0.06
793.874	0.06
794.177	0.06
794.479	0.07
794.781	0.06
795.083	0.06
795.385	0.06
795.687	0.06
795.989	0.06
796.29	0.06
796.592	0.06
796.894	0.06
797.195	0.07
797.497	0.07
797.798	0.07
798.1	0.07
798.401	0.07
798.702	0.07
799.003	0.06
799.304	0.06
799.605	0.07
799.906	0.07
800.207	0.07
800.508	0.07
800.809	0.07
801.11	0.06
801.41	0.07
801.711	0.07
802.011	0.07
802.312	0.07
802.612	0.07
802.913	0.07
803.213	0.07
803.513	0.07
803.813	0.07
804.113	0.06
804.413	0.06
804.713	0.06
805.013	0.06
805.313	0.06
805.613	0.07
805.912	0.07
806.212	0.07
806.511	0.07
806.811	0.07
807.11	0.07
807.41	0.07
807.709	0.07
808.008	0.07
808.307	0.08
808.606	0.08
808.905	0.08
809.204	0.08
809.503	0.08
809.802	0.08
810.101	0.08
810.399	0.07
810.698	0.08
810.997	0.08
811.295	0.08
811.593	0.08
811.892	0.08
812.19	0.08
812.488	0.07
812.786	0.07
813.084	0.07
813.383	0.08
813.68	0.07
813.978	0.07
814.276	0.08
814.574	0.08
814.872	0.08
815.169	0.08
815.467	0.08
815.764	0.08
816.062	0.09
816.359	0.09
816.656	0.1
816.954	0.09
817.251	0.09
817.548	0.09
817.845	0.09
818.142	0.09
818.439	0.09
818.735	0.09
819.032	0.09
819.329	0.08
819.626	0.08
819.922	0.08
820.219	0.09
820.515	0.09
820.811	0.09
821.108	0.09
821.404	0.09
821.7	0.09
821.996	0.1
822.292	0.09
822.588	0.09
822.884	0.09
823.18	0.09
823.475	0.1
823.771	0.09
824.067	0.1
824.362	0.1
824.658	0.09
824.953	0.09
825.249	0.09
825.544	0.1
825.839	0.1
826.134	0.1
826.429	0.09
826.724	0.09
827.019	0.1
827.314	0.1
827.609	0.1
827.904	0.1
828.198	0.09
828.493	0.1
828.787	0.1
829.082	0.1
829.376	0.1
829.671	0.11
829.965	0.1
830.259	0.11
830.553	0.1
830.847	0.1
831.141	0.11
831.435	0.1
831.729	0.11
832.023	0.11
832.317	0.11
832.61	0.11
832.904	0.11
833.197	0.11
833.491	0.11
833.784	0.11
834.077	0.11
834.371	0.11
834.664	0.1
834.957	0.1
835.25	0.11
835.543	0.1
835.836	0.1
836.129	0.1
836.421	0.1
836.714	0.11
837.007	0.1
837.299	0.11
837.592	0.11
837.884	0.11
838.177	0.11
838.469	0.1
838.761	0.1
839.053	0.1
839.345	0.11
839.637	0.11
839.929	0.12
840.221	0.11
840.513	0.11
840.805	0.11
841.096	0.11
841.388	0.11
841.68	0.11
841.971	0.11
842.262	0.11
842.554	0.11
842.845	0.11
843.136	0.12
843.427	0.11
843.718	0.12
844.009	0.11
844.3	0.12
844.591	0.12
844.882	0.12
845.173	0.12
845.463	0.12
845.754	0.12
846.044	0.13
846.335	0.12
846.625	0.13
846.915	0.12
847.206	0.13
847.496	0.13
847.786	0.13
848.076	0.12
848.366	0.12
848.656	0.12
848.945	0.12
849.235	0.13
849.525	0.12
849.814	0.12
850.104	0.13
850.393	0.13
850.683	0.13
850.972	0.12
851.261	0.12
851.551	0.13
851.84	0.13
852.129	0.12
852.418	0.12
852.707	0.13
852.995	0.12
853.284	0.12
853.573	0.13
853.862	0.13
854.15	0.12
854.439	0.12
854.727	0.12
855.015	0.14
855.304	0.13
855.592	0.14
855.88	0.13
856.168	0.14
856.456	0.13
856.744	0.14
857.032	0.14
857.32	0.14
857.607	0.15
857.895	0.15
858.183	0.14
858.47	0.14
858.757	0.14
859.045	0.14
859.332	0.15
859.619	0.14
859.907	0.15
860.194	0.15
860.481	0.14
860.768	0.15
861.054	0.14
861.341	0.15
861.628	0.15
861.915	0.15
862.201	0.15
862.488	0.15
862.774	0.15
863.061	0.16
863.347	0.13
863.633	0.14
863.919	0.13
864.205	0.12
864.491	0.15
864.777	0.14
865.063	0.15
865.349	0.15
865.635	0.15
865.92	0.13
866.206	0.15
866.492	0.16
866.777	0.15
867.062	0.14
867.348	0.13
867.633	0.14
867.918	0.13
868.203	0.15
868.488	0.17
868.773	0.13
869.058	0.14
869.343	0.15
869.628	0.13
869.912	0.15
870.197	0.15
870.482	0.16
870.766	0.18
871.05	0.13
871.335	0.15
871.619	0.17
871.903	0.16
872.187	0.14
872.471	0.13
872.755	0.16
873.039	0.14
873.323	0.15
873.607	0.14
873.89	0.17
874.174	0.18
874.458	0.17
874.741	0.15
875.024	0.15
875.308	0.16
875.591	0.16
875.874	0.19
876.157	0.19
876.44	0.18
876.723	0.17
877.006	0.15
877.289	0.07
877.572	0.17
877.854	0.1
878.137	0.07
878.42	0.09
878.702	0.23
878.984	0.13
879.267	0.23
879.549	0.13
879.831	0.14
880.113	0.23
880.395	0.15
880.677	0.13
880.959	0.18
