Data from Rubpy_BV_1500_EDTA_Buffered_Absorbance_14-26-33-752.txt Node
Date: Wed Jul 01 14:26:33 BST 2026
User: fpm-admin
Spectrometer: OFX00224
Trigger mode: 0
Integration Time (sec): 7.000000E-2
Scans to average: 3
Nonlinearity correction enabled: false
Boxcar width: 0
Storing dark spectrum: false
XAxis mode: Wavelengths
Number of Pixels in Spectrum: 2136
>>>>>Begin Spectral Data<<<<<
154.91	-0
155.289	0.29
155.669	-0.48
156.048	-0.16
156.428	-0
156.807	-0
157.186	-0.62
157.566	0.09
157.945	0.06
158.325	0.39
158.704	-0.4
159.083	-0.09
159.462	-0
159.842	0.16
160.221	0.04
160.6	-0.6
160.979	-0.49
161.359	0.09
161.738	-0
162.117	-0.41
162.496	-0.39
162.875	-0
163.254	-0.18
163.633	-0.24
164.012	-0.19
164.391	-0.01
164.77	0.67
165.149	-0.11
165.528	-0
165.907	-0
166.286	-0.51
166.665	-0
167.044	0.13
167.423	0.7
167.802	-0
168.181	-0.11
168.559	-0.01
168.938	0.03
169.317	-0
169.696	0.63
170.074	-0
170.453	-0.12
170.832	0.58
171.21	0.02
171.589	-0.23
171.968	-0
172.346	0.35
172.725	-0
173.103	-0
173.482	-0.85
173.861	0.64
174.239	-0.88
174.617	-0
174.996	0.19
175.374	0.13
175.753	-0.39
176.131	-0
176.51	0.39
176.888	-0
177.266	-0
177.645	-0.04
178.023	-0
178.401	-0.13
178.779	-0.07
179.158	0.14
179.536	0.1
179.914	0.36
180.292	1.24
180.67	-0
181.048	0.05
181.427	0.26
181.805	-0.3
182.183	-0.83
182.561	-0
182.939	-0
183.317	0.2
183.695	0.32
184.073	-0
184.451	-0.04
184.829	-0
185.206	-0.3
185.584	-0
185.962	-0
186.34	-0
186.718	-0.88
187.096	-0
187.473	0.76
187.851	-0.16
188.229	0.79
188.607	0.22
188.984	0.38
189.362	0.4
189.74	0.12
190.117	0.27
190.495	0.18
190.872	0.25
191.25	0.41
191.627	0.15
192.005	0.18
192.382	0.28
192.76	0.25
193.137	0.31
193.515	0.14
193.892	0.23
194.269	0.09
194.647	0.26
195.024	0.12
195.401	0.29
195.779	0.29
196.156	0.22
196.533	0.42
196.91	0.29
197.288	0.42
197.665	0.16
198.042	0.18
198.419	0.23
198.796	0.37
199.173	0.2
199.55	0.19
199.927	0.41
200.304	0.26
200.681	0.24
201.058	0.18
201.435	0.36
201.812	0.26
202.189	0.39
202.566	0.12
202.943	0.34
203.32	0.21
203.697	0.39
204.073	0.23
204.45	0.28
204.827	0.46
205.204	0.18
205.58	0.25
205.957	0.23
206.334	0.23
206.71	0.31
207.087	0.45
207.464	0.21
207.84	0.25
208.217	0.18
208.593	0.3
208.97	0.27
209.346	0.36
209.723	0.24
210.099	0.24
210.476	0.26
210.852	0.22
211.228	0.27
211.605	0.5
211.981	0.21
212.357	0.17
212.733	0.17
213.11	0.21
213.486	0.22
213.862	0.34
214.238	0.35
214.614	0.21
214.991	0.25
215.367	0.13
215.743	0.2
216.119	0.32
216.495	0.26
216.871	0.23
217.247	0.31
217.623	0.23
217.999	0.18
218.375	0.19
218.751	0.27
219.127	0.12
219.502	0.35
219.878	0.36
220.254	0.21
220.63	0.37
221.006	0.3
221.381	0.41
221.757	0.41
222.133	0.28
222.508	0.32
222.884	0.28
223.26	0.19
223.635	0.31
224.011	0.53
224.386	0.31
224.762	0.29
225.137	0.33
225.513	0.3
225.888	0.25
226.264	0.29
226.639	0.28
227.014	0.22
227.39	0.25
227.765	0.22
228.14	0.23
228.516	0.3
228.891	0.3
229.266	0.35
229.641	0.29
230.017	0.32
230.392	0.29
230.767	0.4
231.142	0.21
231.517	0.26
231.892	0.33
232.267	0.17
232.642	0.24
233.017	0.23
233.392	0.23
233.767	0.18
234.142	0.27
234.517	0.32
234.892	0.27
235.267	0.37
235.641	0.18
236.016	0.15
236.391	0.45
236.766	0.27
237.14	0.21
237.515	0.27
237.89	0.48
238.264	0.29
238.639	0.4
239.014	0.19
239.388	0.19
239.763	0.23
240.137	0.2
240.512	0.29
240.886	0.28
241.261	0.21
241.635	0.26
242.009	0.31
242.384	0.38
242.758	0.37
243.132	0.21
243.507	0.26
243.881	0.22
244.255	0.18
244.629	0.23
245.004	0.22
245.378	0.28
245.752	0.29
246.126	0.25
246.5	0.29
246.874	0.21
247.248	0.26
247.622	0.22
247.996	0.29
248.37	0.22
248.744	0.28
249.118	0.32
249.492	0.37
249.866	0.23
250.24	0.29
250.613	0.26
250.987	0.26
251.361	0.25
251.735	0.34
252.108	0.33
252.482	0.2
252.856	0.39
253.229	0.23
253.603	0.22
253.977	0.28
254.35	0.3
254.724	0.26
255.097	0.32
255.471	0.3
255.844	0.3
256.218	0.33
256.591	0.31
256.964	0.19
257.338	0.26
257.711	0.19
258.084	0.26
258.458	0.24
258.831	0.32
259.204	0.31
259.577	0.28
259.95	0.26
260.323	0.31
260.697	0.33
261.07	0.32
261.443	0.42
261.816	0.28
262.189	0.24
262.562	0.24
262.935	0.3
263.308	0.28
263.68	0.2
264.053	0.2
264.426	0.25
264.799	0.33
265.172	0.34
265.545	0.3
265.917	0.32
266.29	0.39
266.663	0.31
267.035	0.24
267.408	0.25
267.781	0.39
268.153	0.36
268.526	0.29
268.898	0.33
269.271	0.31
269.643	0.38
270.016	0.31
270.388	0.24
270.76	0.28
271.133	0.25
271.505	0.36
271.877	0.36
272.25	0.4
272.622	0.31
272.994	0.21
273.366	0.3
273.739	0.25
274.111	0.31
274.483	0.27
274.855	0.25
275.227	0.32
275.599	0.2
275.971	0.29
276.343	0.26
276.715	0.29
277.087	0.39
277.459	0.26
277.831	0.32
278.203	0.26
278.574	0.32
278.946	0.21
279.318	0.36
279.69	0.25
280.061	0.3
280.433	0.21
280.805	0.2
281.176	0.27
281.548	0.34
281.92	0.27
282.291	0.29
282.663	0.31
283.034	0.21
283.406	0.3
283.777	0.28
284.148	0.39
284.52	0.31
284.891	0.31
285.262	0.29
285.634	0.2
286.005	0.34
286.376	0.25
286.747	0.24
287.119	0.27
287.49	0.31
287.861	0.24
288.232	0.34
288.603	0.34
288.974	0.24
289.345	0.33
289.716	0.22
290.087	0.31
290.458	0.4
290.829	0.25
291.2	0.42
291.571	0.34
291.941	0.4
292.312	0.27
292.683	0.26
293.054	0.34
293.424	0.27
293.795	0.21
294.166	0.21
294.536	0.36
294.907	0.43
295.277	0.32
295.648	0.35
296.018	0.26
296.389	0.32
296.759	0.33
297.13	0.33
297.5	0.26
297.871	0.34
298.241	0.21
298.611	0.29
298.981	0.4
299.352	0.24
299.722	0.38
300.092	0.3
300.462	0.31
300.832	0.3
301.202	0.33
301.573	0.25
301.943	0.25
302.313	0.33
302.683	0.32
303.053	0.35
303.422	0.32
303.792	0.28
304.162	0.29
304.532	0.3
304.902	0.27
305.272	0.26
305.641	0.33
306.011	0.25
306.381	0.25
306.75	0.21
307.12	0.25
307.49	0.27
307.859	0.21
308.229	0.23
308.598	0.26
308.968	0.21
309.337	0.22
309.707	0.21
310.076	0.22
310.445	0.23
310.815	0.21
311.184	0.22
311.553	0.19
311.923	0.21
312.292	0.22
312.661	0.2
313.03	0.24
313.399	0.21
313.768	0.23
314.137	0.23
314.506	0.22
314.875	0.22
315.244	0.22
315.613	0.25
315.982	0.25
316.351	0.23
316.72	0.24
317.089	0.25
317.458	0.26
317.826	0.25
318.195	0.26
318.564	0.27
318.933	0.27
319.301	0.26
319.67	0.28
320.038	0.26
320.407	0.27
320.775	0.29
321.144	0.27
321.512	0.29
321.881	0.3
322.249	0.3
322.618	0.29
322.986	0.31
323.354	0.3
323.723	0.32
324.091	0.32
324.459	0.32
324.827	0.32
325.195	0.34
325.564	0.34
325.932	0.34
326.3	0.34
326.668	0.35
327.036	0.34
327.404	0.37
327.772	0.36
328.14	0.36
328.508	0.38
328.875	0.39
329.243	0.4
329.611	0.39
329.979	0.4
330.346	0.41
330.714	0.42
331.082	0.42
331.449	0.42
331.817	0.43
332.185	0.44
332.552	0.45
332.92	0.45
333.287	0.47
333.655	0.47
334.022	0.49
334.389	0.48
334.757	0.5
335.124	0.5
335.491	0.52
335.859	0.53
336.226	0.54
336.593	0.54
336.96	0.55
337.327	0.57
337.695	0.57
338.062	0.58
338.429	0.6
338.796	0.61
339.163	0.62
339.53	0.63
339.897	0.64
340.263	0.65
340.63	0.66
340.997	0.68
341.364	0.69
341.731	0.7
342.097	0.7
342.464	0.72
342.831	0.73
343.197	0.75
343.564	0.76
343.931	0.75
344.297	0.78
344.664	0.78
345.03	0.8
345.396	0.81
345.763	0.83
346.129	0.84
346.496	0.85
346.862	0.86
347.228	0.87
347.594	0.88
347.961	0.9
348.327	0.91
348.693	0.92
349.059	0.93
349.425	0.93
349.791	0.95
350.157	0.96
350.523	0.98
350.889	0.98
351.255	0.99
351.621	1
351.987	1.02
352.353	1.03
352.719	1.04
353.084	1.05
353.45	1.05
353.816	1.07
354.181	1.08
354.547	1.09
354.913	1.11
355.278	1.12
355.644	1.14
356.009	1.16
356.375	1.16
356.74	1.16
357.106	1.18
357.471	1.2
357.836	1.21
358.202	1.25
358.567	1.25
358.932	1.26
359.297	1.29
359.663	1.29
360.028	1.31
360.393	1.34
360.758	1.34
361.123	1.36
361.488	1.37
361.853	1.38
362.218	1.4
362.583	1.42
362.948	1.4
363.312	1.43
363.677	1.47
364.042	1.47
364.407	1.48
364.772	1.52
365.136	1.52
365.501	1.52
365.865	1.54
366.23	1.54
366.595	1.55
366.959	1.56
367.324	1.6
367.688	1.57
368.052	1.59
368.417	1.65
368.781	1.62
369.145	1.62
369.51	1.66
369.874	1.62
370.238	1.66
370.602	1.65
370.967	1.66
371.331	1.69
371.695	1.64
372.059	1.68
372.423	1.69
372.787	1.66
373.151	1.66
373.515	1.68
373.878	1.69
374.242	1.62
374.606	1.67
374.97	1.65
375.334	1.59
375.697	1.61
376.061	1.59
376.425	1.62
376.788	1.58
377.152	1.59
377.515	1.56
377.879	1.54
378.242	1.54
378.606	1.5
378.969	1.48
379.333	1.49
379.696	1.47
380.059	1.44
380.422	1.42
380.786	1.41
381.149	1.39
381.512	1.38
381.875	1.36
382.238	1.35
382.601	1.33
382.964	1.3
383.327	1.29
383.69	1.27
384.053	1.28
384.416	1.25
384.779	1.24
385.142	1.25
385.504	1.23
385.867	1.22
386.23	1.21
386.593	1.21
386.955	1.18
387.318	1.18
387.68	1.17
388.043	1.16
388.405	1.16
388.768	1.17
389.13	1.15
389.493	1.16
389.855	1.14
390.217	1.13
390.58	1.13
390.942	1.11
391.304	1.11
391.666	1.08
392.028	1.07
392.391	1.05
392.753	1.04
393.115	1.03
393.477	1.01
393.839	1
394.201	0.98
394.563	0.98
394.924	0.98
395.286	0.98
395.648	0.98
396.01	0.98
396.371	0.99
396.733	1
397.095	1.01
397.456	1.03
397.818	1.05
398.18	1.07
398.541	1.09
398.903	1.11
399.264	1.13
399.625	1.16
399.987	1.19
400.348	1.2
400.709	1.22
401.071	1.22
401.432	1.22
401.793	1.22
402.154	1.22
402.515	1.2
402.876	1.18
403.238	1.16
403.599	1.13
403.96	1.1
404.32	1.05
404.681	1.03
405.042	0.99
405.403	0.95
405.764	0.9
406.125	0.87
406.485	0.83
406.846	0.78
407.207	0.75
407.567	0.69
407.928	0.67
408.288	0.63
408.649	0.6
409.009	0.56
409.37	0.54
409.73	0.51
410.091	0.48
410.451	0.45
410.811	0.43
411.171	0.41
411.532	0.39
411.892	0.38
412.252	0.36
412.612	0.34
412.972	0.33
413.332	0.31
413.692	0.3
414.052	0.29
414.412	0.28
414.772	0.27
415.132	0.26
415.492	0.25
415.851	0.24
416.211	0.24
416.571	0.23
416.931	0.22
417.29	0.22
417.65	0.21
418.009	0.21
418.369	0.21
418.728	0.2
419.088	0.19
419.447	0.18
419.807	0.18
420.166	0.18
420.525	0.18
420.884	0.17
421.244	0.17
421.603	0.17
421.962	0.17
422.321	0.16
422.68	0.15
423.039	0.15
423.398	0.16
423.757	0.15
424.116	0.16
424.475	0.16
424.834	0.15
425.193	0.15
425.551	0.15
425.91	0.14
426.269	0.13
426.628	0.14
426.986	0.13
427.345	0.14
427.703	0.13
428.062	0.13
428.42	0.13
428.779	0.13
429.137	0.13
429.496	0.13
429.854	0.14
430.212	0.13
430.57	0.13
430.929	0.12
431.287	0.12
431.645	0.12
432.003	0.13
432.361	0.12
432.719	0.13
433.077	0.13
433.435	0.13
433.793	0.13
434.151	0.12
434.509	0.14
434.866	0.13
435.224	0.12
435.582	0.12
435.94	0.13
436.297	0.12
436.655	0.13
437.012	0.12
437.37	0.13
437.727	0.12
438.085	0.13
438.442	0.12
438.8	0.13
439.157	0.12
439.514	0.13
439.872	0.12
440.229	0.13
440.586	0.12
440.943	0.13
441.3	0.13
441.657	0.12
442.014	0.14
442.371	0.13
442.728	0.13
443.085	0.14
443.442	0.14
443.799	0.13
444.156	0.13
444.513	0.13
444.869	0.13
445.226	0.14
445.583	0.14
445.939	0.13
446.296	0.13
446.652	0.14
447.009	0.14
447.365	0.14
447.722	0.14
448.078	0.14
448.434	0.14
448.791	0.15
449.147	0.13
449.503	0.14
449.859	0.14
450.215	0.15
450.571	0.15
450.928	0.14
451.284	0.14
451.64	0.14
451.995	0.14
452.351	0.15
452.707	0.16
453.063	0.14
453.419	0.15
453.775	0.16
454.13	0.16
454.486	0.16
454.842	0.15
455.197	0.15
455.553	0.16
455.908	0.17
456.264	0.17
456.619	0.16
456.975	0.16
457.33	0.17
457.685	0.17
458.04	0.16
458.396	0.16
458.751	0.17
459.106	0.17
459.461	0.17
459.816	0.18
460.171	0.18
460.526	0.18
460.881	0.18
461.236	0.17
461.591	0.18
461.946	0.17
462.301	0.18
462.655	0.19
463.01	0.19
463.365	0.19
463.719	0.19
464.074	0.19
464.428	0.19
464.783	0.18
465.137	0.19
465.492	0.19
465.846	0.2
466.201	0.19
466.555	0.2
466.909	0.2
467.263	0.2
467.618	0.2
467.972	0.21
468.326	0.21
468.68	0.21
469.034	0.21
469.388	0.21
469.742	0.22
470.096	0.22
470.45	0.22
470.804	0.23
471.157	0.22
471.511	0.23
471.865	0.24
472.218	0.24
472.572	0.24
472.926	0.24
473.279	0.25
473.633	0.24
473.986	0.25
474.34	0.26
474.693	0.26
475.046	0.26
475.4	0.26
475.753	0.26
476.106	0.27
476.459	0.28
476.812	0.28
477.165	0.28
477.519	0.29
477.872	0.28
478.224	0.3
478.577	0.29
478.93	0.3
479.283	0.3
479.636	0.31
479.989	0.31
480.341	0.31
480.694	0.32
481.047	0.32
481.399	0.32
481.752	0.33
482.104	0.33
482.457	0.34
482.809	0.34
483.162	0.34
483.514	0.35
483.866	0.35
484.219	0.35
484.571	0.36
484.923	0.36
485.275	0.37
485.627	0.36
485.979	0.37
486.331	0.37
486.683	0.38
487.035	0.37
487.387	0.38
487.739	0.38
488.091	0.39
488.443	0.39
488.794	0.39
489.146	0.39
489.498	0.4
489.849	0.4
490.201	0.41
490.552	0.41
490.904	0.41
491.255	0.41
491.607	0.42
491.958	0.42
492.309	0.42
492.661	0.43
493.012	0.43
493.363	0.43
493.714	0.44
494.065	0.44
494.416	0.45
494.767	0.45
495.118	0.45
495.469	0.46
495.82	0.46
496.171	0.46
496.522	0.46
496.872	0.47
497.223	0.47
497.574	0.47
497.924	0.48
498.275	0.49
498.626	0.48
498.976	0.49
499.327	0.49
499.677	0.49
500.027	0.5
500.378	0.5
500.728	0.51
501.078	0.51
501.428	0.52
501.779	0.51
502.129	0.52
502.479	0.52
502.829	0.52
503.179	0.53
503.529	0.53
503.879	0.53
504.229	0.54
504.578	0.54
504.928	0.55
505.278	0.55
505.628	0.56
505.977	0.56
506.327	0.56
506.676	0.57
507.026	0.57
507.375	0.57
507.725	0.57
508.074	0.58
508.424	0.58
508.773	0.58
509.122	0.59
509.471	0.59
509.82	0.59
510.17	0.59
510.519	0.6
510.868	0.61
511.217	0.61
511.566	0.61
511.915	0.61
512.263	0.61
512.612	0.62
512.961	0.62
513.31	0.62
513.659	0.62
514.007	0.63
514.356	0.63
514.704	0.64
515.053	0.64
515.401	0.64
515.75	0.64
516.098	0.64
516.447	0.65
516.795	0.66
517.143	0.65
517.491	0.66
517.839	0.66
518.188	0.66
518.536	0.67
518.884	0.67
519.232	0.66
519.58	0.68
519.928	0.67
520.275	0.67
520.623	0.68
520.971	0.68
521.319	0.68
521.666	0.69
522.014	0.69
522.362	0.69
522.709	0.69
523.057	0.7
523.404	0.7
523.752	0.7
524.099	0.71
524.446	0.71
524.794	0.71
525.141	0.71
525.488	0.71
525.835	0.71
526.182	0.71
526.529	0.71
526.876	0.72
527.223	0.72
527.57	0.71
527.917	0.72
528.264	0.73
528.611	0.72
528.958	0.73
529.304	0.73
529.651	0.73
529.998	0.73
530.344	0.74
530.691	0.74
531.037	0.74
531.384	0.74
531.73	0.74
532.076	0.75
532.423	0.74
532.769	0.75
533.115	0.75
533.461	0.74
533.807	0.75
534.154	0.75
534.5	0.75
534.846	0.76
535.192	0.75
535.537	0.76
535.883	0.76
536.229	0.76
536.575	0.76
536.921	0.76
537.266	0.76
537.612	0.77
537.957	0.77
538.303	0.77
538.649	0.77
538.994	0.77
539.339	0.78
539.685	0.78
540.03	0.77
540.375	0.78
540.721	0.78
541.066	0.77
541.411	0.78
541.756	0.78
542.101	0.78
542.446	0.78
542.791	0.78
543.136	0.78
543.481	0.78
543.825	0.78
544.17	0.79
544.515	0.78
544.86	0.79
545.204	0.78
545.549	0.79
545.893	0.78
546.238	0.79
546.582	0.79
546.927	0.79
547.271	0.79
547.615	0.79
547.96	0.79
548.304	0.79
548.648	0.79
548.992	0.79
549.336	0.8
549.68	0.8
550.024	0.8
550.368	0.79
550.712	0.79
551.056	0.79
551.4	0.8
551.743	0.79
552.087	0.8
552.431	0.8
552.774	0.79
553.118	0.79
553.462	0.79
553.805	0.79
554.148	0.79
554.492	0.79
554.835	0.79
555.178	0.79
555.522	0.79
555.865	0.79
556.208	0.79
556.551	0.79
556.894	0.79
557.237	0.79
557.58	0.79
557.923	0.79
558.266	0.78
558.609	0.78
558.952	0.78
559.294	0.78
559.637	0.78
559.98	0.79
560.322	0.78
560.665	0.79
561.007	0.78
561.35	0.78
561.692	0.78
562.034	0.78
562.377	0.78
562.719	0.78
563.061	0.77
563.403	0.78
563.745	0.78
564.088	0.78
564.43	0.77
564.772	0.77
565.113	0.78
565.455	0.77
565.797	0.77
566.139	0.77
566.481	0.76
566.822	0.77
567.164	0.76
567.506	0.76
567.847	0.76
568.189	0.76
568.53	0.76
568.872	0.76
569.213	0.76
569.554	0.76
569.895	0.76
570.237	0.75
570.578	0.75
570.919	0.75
571.26	0.75
571.601	0.74
571.942	0.75
572.283	0.74
572.624	0.74
572.965	0.74
573.306	0.74
573.646	0.73
573.987	0.73
574.328	0.73
574.668	0.73
575.009	0.73
575.349	0.72
575.69	0.72
576.03	0.72
576.37	0.72
576.711	0.71
577.051	0.71
577.391	0.71
577.731	0.72
578.072	0.71
578.412	0.71
578.752	0.71
579.092	0.71
579.431	0.69
579.771	0.68
580.111	0.67
580.451	0.68
580.791	0.69
581.13	0.7
581.47	0.7
581.81	0.69
582.149	0.69
582.489	0.69
582.828	0.68
583.167	0.66
583.507	0.62
583.846	0.6
584.185	0.63
584.525	0.65
584.864	0.67
585.203	0.68
585.542	0.69
585.881	0.68
586.22	0.68
586.559	0.68
586.898	0.66
587.236	0.66
587.575	0.66
587.914	0.66
588.252	0.67
588.591	0.67
588.93	0.67
589.268	0.67
589.607	0.67
589.945	0.67
590.283	0.67
590.622	0.67
590.96	0.67
591.298	0.68
591.636	0.68
591.974	0.68
592.313	0.68
592.651	0.68
592.989	0.68
593.326	0.67
593.664	0.67
594.002	0.68
594.34	0.67
594.678	0.67
595.015	0.66
595.353	0.65
595.691	0.66
596.028	0.67
596.366	0.67
596.703	0.67
597.04	0.67
597.378	0.67
597.715	0.67
598.052	0.67
598.389	0.67
598.726	0.67
599.064	0.67
599.401	0.67
599.738	0.67
600.074	0.67
600.411	0.66
600.748	0.66
601.085	0.65
601.422	0.65
601.758	0.65
602.095	0.65
602.432	0.65
602.768	0.65
603.105	0.65
603.441	0.65
603.777	0.65
604.114	0.65
604.45	0.65
604.786	0.65
605.122	0.65
605.459	0.64
605.795	0.65
606.131	0.64
606.467	0.64
606.803	0.64
607.139	0.64
607.474	0.64
607.81	0.63
608.146	0.63
608.482	0.63
608.817	0.63
609.153	0.63
609.488	0.62
609.824	0.63
610.159	0.62
610.495	0.62
610.83	0.62
611.165	0.62
611.5	0.62
611.836	0.61
612.171	0.61
612.506	0.62
612.841	0.62
613.176	0.6
613.511	0.6
613.845	0.6
614.18	0.6
614.515	0.6
614.85	0.6
615.184	0.6
615.519	0.6
615.854	0.59
616.188	0.59
616.523	0.59
616.857	0.58
617.191	0.59
617.526	0.58
617.86	0.58
618.194	0.58
618.528	0.58
618.862	0.58
619.196	0.58
619.53	0.58
619.864	0.57
620.198	0.57
620.532	0.57
620.866	0.57
621.2	0.56
621.533	0.56
621.867	0.56
622.201	0.56
622.534	0.56
622.868	0.56
623.201	0.55
623.534	0.55
623.868	0.54
624.201	0.54
624.534	0.55
624.868	0.54
625.201	0.54
625.534	0.54
625.867	0.53
626.2	0.53
626.533	0.53
626.865	0.53
627.198	0.52
627.531	0.52
627.864	0.52
628.196	0.51
628.529	0.52
628.862	0.51
629.194	0.51
629.527	0.5
629.859	0.5
630.191	0.49
630.524	0.5
630.856	0.49
631.188	0.49
631.52	0.48
631.852	0.49
632.184	0.48
632.516	0.48
632.848	0.48
633.18	0.48
633.512	0.47
633.844	0.47
634.175	0.47
634.507	0.47
634.839	0.46
635.17	0.46
635.502	0.45
635.833	0.45
636.165	0.45
636.496	0.44
636.827	0.44
637.159	0.44
637.49	0.44
637.821	0.43
638.152	0.43
638.483	0.43
638.814	0.42
639.145	0.42
639.476	0.42
639.807	0.42
640.137	0.42
640.468	0.41
640.799	0.41
641.129	0.4
641.46	0.4
641.791	0.4
642.121	0.4
642.451	0.39
642.782	0.39
643.112	0.39
643.442	0.39
643.773	0.38
644.103	0.38
644.433	0.38
644.763	0.38
645.093	0.38
645.423	0.38
645.753	0.37
646.082	0.37
646.412	0.37
646.742	0.37
647.072	0.37
647.401	0.36
647.731	0.36
648.06	0.36
648.39	0.36
648.719	0.36
649.048	0.35
649.378	0.36
649.707	0.35
650.036	0.35
650.365	0.35
650.694	0.34
651.023	0.35
651.352	0.34
651.681	0.34
652.01	0.34
652.339	0.34
652.668	0.34
652.996	0.34
653.325	0.34
653.654	0.34
653.982	0.34
654.311	0.34
654.639	0.34
654.967	0.33
655.296	0.33
655.624	0.33
655.952	0.33
656.28	0.33
656.609	0.33
656.937	0.33
657.265	0.32
657.593	0.21
657.92	0.1
658.248	0.06
658.576	0.09
658.904	0.18
659.231	0.26
659.559	0.31
659.887	0.31
660.214	0.31
660.542	0.31
660.869	0.31
661.196	0.31
661.524	0.3
661.851	0.3
662.178	0.3
662.505	0.3
662.832	0.3
663.159	0.3
663.486	0.3
663.813	0.3
664.14	0.29
664.467	0.29
664.794	0.3
665.12	0.3
665.447	0.29
665.774	0.29
666.1	0.29
666.427	0.29
666.753	0.29
667.079	0.29
667.406	0.28
667.732	0.28
668.058	0.28
668.384	0.28
668.71	0.28
669.036	0.27
669.362	0.28
669.688	0.27
670.014	0.27
670.34	0.27
670.666	0.27
670.991	0.26
671.317	0.27
671.643	0.26
671.968	0.26
672.294	0.26
672.619	0.26
672.945	0.25
673.27	0.25
673.595	0.25
673.92	0.25
674.246	0.25
674.571	0.25
674.896	0.25
675.221	0.24
675.546	0.24
675.87	0.24
676.195	0.24
676.52	0.24
676.845	0.24
677.169	0.23
677.494	0.23
677.819	0.23
678.143	0.23
678.468	0.22
678.792	0.22
679.116	0.22
679.44	0.22
679.765	0.21
680.089	0.21
680.413	0.21
680.737	0.21
681.061	0.2
681.385	0.2
681.709	0.2
682.033	0.2
682.356	0.19
682.68	0.19
683.004	0.2
683.327	0.19
683.651	0.19
683.974	0.19
684.298	0.18
684.621	0.18
684.944	0.18
685.268	0.18
685.591	0.18
685.914	0.18
686.237	0.17
686.56	0.17
686.883	0.17
687.206	0.16
687.529	0.16
687.852	0.16
688.175	0.16
688.497	0.16
688.82	0.16
689.142	0.15
689.465	0.15
689.787	0.15
690.11	0.15
690.432	0.15
690.755	0.14
691.077	0.14
691.399	0.14
691.721	0.14
692.043	0.14
692.365	0.14
692.687	0.14
693.009	0.14
693.331	0.13
693.653	0.13
693.974	0.13
694.296	0.13
694.618	0.13
694.939	0.13
695.261	0.12
695.582	0.12
695.904	0.12
696.225	0.12
696.546	0.12
696.868	0.12
697.189	0.12
697.51	0.12
697.831	0.12
698.152	0.12
698.473	0.11
698.794	0.11
699.114	0.11
699.435	0.09
699.756	0.1
700.077	0.1
700.397	0.11
700.718	0.11
701.038	0.1
701.359	0.11
701.679	0.1
701.999	0.11
702.32	0.1
702.64	0.1
702.96	0.1
703.28	0.1
703.6	0.1
703.92	0.1
704.24	0.1
704.56	0.09
704.879	0.09
705.199	0.1
705.519	0.09
705.838	0.1
706.158	0.1
706.478	0.1
706.797	0.1
707.116	0.1
707.436	0.1
707.755	0.1
708.074	0.1
708.393	0.09
708.712	0.09
709.031	0.08
709.35	0.08
709.669	0.08
709.988	0.07
710.307	0.08
710.626	0.08
710.944	0.09
711.263	0.09
711.582	0.09
711.9	0.09
712.219	0.09
712.537	0.09
712.855	0.09
713.174	0.09
713.492	0.09
713.81	0.09
714.128	0.09
714.446	0.09
714.764	0.09
715.082	0.08
715.4	0.09
715.718	0.09
716.035	0.09
716.353	0.09
716.671	0.09
716.988	0.09
717.306	0.08
717.623	0.09
717.941	0.09
718.258	0.1
718.575	0.1
718.893	0.1
719.21	0.09
719.527	0.09
719.844	0.09
720.161	0.09
720.478	0.09
720.795	0.09
721.112	0.1
721.428	0.09
721.745	0.1
722.062	0.09
722.378	0.09
722.695	0.1
723.011	0.09
723.328	0.09
723.644	0.09
723.96	0.1
724.276	0.1
724.593	0.1
724.909	0.1
725.225	0.1
725.541	0.1
725.857	0.1
726.173	0.1
726.488	0.1
726.804	0.1
727.12	0.1
727.435	0.1
727.751	0.1
728.067	0.1
728.382	0.1
728.697	0.1
729.013	0.1
729.328	0.1
729.643	0.1
729.958	0.1
730.273	0.1
730.588	0.1
730.903	0.1
731.218	0.1
731.533	0.1
731.848	0.1
732.163	0.1
732.477	0.1
732.792	0.09
733.107	0.09
733.421	0.09
733.736	0.09
734.05	0.09
734.364	0.09
734.678	0.1
734.993	0.09
735.307	0.09
735.621	0.09
735.935	0.09
736.249	0.09
736.563	0.09
736.877	0.09
737.19	0.09
737.504	0.09
737.818	0.09
738.131	0.09
738.445	0.09
738.758	0.09
739.072	0.09
739.385	0.09
739.698	0.09
740.012	0.09
740.325	0.09
740.638	0.08
740.951	0.09
741.264	0.08
741.577	0.08
741.89	0.09
742.203	0.09
742.515	0.09
742.828	0.09
743.141	0.09
743.453	0.08
743.766	0.08
744.078	0.08
744.391	0.08
744.703	0.08
745.015	0.08
745.327	0.08
745.639	0.08
745.952	0.08
746.264	0.07
746.575	0.07
746.887	0.07
747.199	0.08
747.511	0.07
747.823	0.07
748.134	0.07
748.446	0.07
748.757	0.07
749.069	0.07
749.38	0.07
749.692	0.07
750.003	0.07
750.314	0.07
750.625	0.07
750.936	0.07
751.248	0.07
751.559	0.07
751.869	0.07
752.18	0.07
752.491	0.07
752.802	0.06
753.112	0.06
753.423	0.06
753.734	0.06
754.044	0.06
754.355	0.06
754.665	0.06
754.975	0.06
755.285	0.06
755.596	0.06
755.906	0.06
756.216	0.06
756.526	0.06
756.836	0.06
757.146	0.06
757.455	0.06
757.765	0.05
758.075	0.05
758.385	0.05
758.694	0.05
759.004	0.05
759.313	0.05
759.622	0.05
759.932	0.05
760.241	0.05
760.55	0.05
760.859	0.05
761.168	0.05
761.477	0.05
761.786	0.05
762.095	0.05
762.404	0.05
762.713	0.05
763.021	0.05
763.33	0.05
763.639	0.05
763.947	0.05
764.256	0.05
764.564	0.05
764.872	0.05
765.181	0.05
765.489	0.05
765.797	0.05
766.105	0.05
766.413	0.04
766.721	0.05
767.029	0.05
767.337	0.05
767.644	0.05
767.952	0.05
768.26	0.05
768.567	0.05
768.875	0.05
769.182	0.05
769.49	0.05
769.797	0.05
770.104	0.05
770.411	0.05
770.718	0.05
771.026	0.05
771.333	0.05
771.639	0.05
771.946	0.05
772.253	0.05
772.56	0.05
772.867	0.05
773.173	0.05
773.48	0.05
773.786	0.05
774.093	0.05
774.399	0.05
774.705	0.05
775.012	0.05
775.318	0.05
775.624	0.05
775.93	0.05
776.236	0.05
776.542	0.05
776.848	0.05
777.154	0.05
777.459	0.05
777.765	0.05
778.071	0.04
778.376	0.04
778.682	0.04
778.987	0.05
779.292	0.05
779.598	0.05
779.903	0.05
780.208	0.05
780.513	0.05
780.818	0.05
781.123	0.05
781.428	0.04
781.733	0.05
782.038	0.05
782.343	0.04
782.647	0.05
782.952	0.05
783.256	0.05
783.561	0.05
783.865	0.05
784.17	0.05
784.474	0.05
784.778	0.05
785.082	0.05
785.386	0.06
785.69	0.05
785.994	0.06
786.298	0.06
786.602	0.06
786.906	0.05
787.209	0.06
787.513	0.06
787.817	0.06
788.12	0.06
788.424	0.06
788.727	0.06
789.03	0.06
789.333	0.05
789.637	0.06
789.94	0.06
790.243	0.06
790.546	0.06
790.849	0.06
791.152	0.06
791.454	0.06
791.757	0.06
792.06	0.06
792.362	0.06
792.665	0.06
792.967	0.06
793.27	0.06
793.572	0.06
793.874	0.06
794.177	0.06
794.479	0.06
794.781	0.06
795.083	0.06
795.385	0.06
795.687	0.06
795.989	0.06
796.29	0.06
796.592	0.06
796.894	0.06
797.195	0.07
797.497	0.06
797.798	0.07
798.1	0.07
798.401	0.06
798.702	0.06
799.003	0.06
799.304	0.06
799.605	0.06
799.906	0.06
800.207	0.06
800.508	0.06
800.809	0.06
801.11	0.06
801.41	0.07
801.711	0.06
802.011	0.07
802.312	0.06
802.612	0.07
802.913	0.07
803.213	0.07
803.513	0.06
803.813	0.07
804.113	0.06
804.413	0.06
804.713	0.06
805.013	0.06
805.313	0.06
805.613	0.06
805.912	0.06
806.212	0.06
806.511	0.07
806.811	0.07
807.11	0.07
807.41	0.07
807.709	0.07
808.008	0.07
808.307	0.07
808.606	0.07
808.905	0.07
809.204	0.08
809.503	0.08
809.802	0.08
810.101	0.07
810.399	0.07
810.698	0.08
810.997	0.08
811.295	0.07
811.593	0.07
811.892	0.08
812.19	0.07
812.488	0.07
812.786	0.07
813.084	0.07
813.383	0.07
813.68	0.07
813.978	0.07
814.276	0.08
814.574	0.08
814.872	0.08
815.169	0.08
815.467	0.08
815.764	0.08
816.062	0.09
816.359	0.08
816.656	0.09
816.954	0.09
817.251	0.09
817.548	0.09
817.845	0.08
818.142	0.08
818.439	0.08
818.735	0.08
819.032	0.08
819.329	0.08
819.626	0.09
819.922	0.08
820.219	0.09
820.515	0.09
820.811	0.09
821.108	0.09
821.404	0.09
821.7	0.09
821.996	0.09
822.292	0.08
822.588	0.09
822.884	0.09
823.18	0.09
823.475	0.09
823.771	0.09
824.067	0.09
824.362	0.09
824.658	0.09
824.953	0.09
825.249	0.09
825.544	0.09
825.839	0.09
826.134	0.09
826.429	0.09
826.724	0.09
827.019	0.09
827.314	0.1
827.609	0.09
827.904	0.1
828.198	0.09
828.493	0.09
828.787	0.09
829.082	0.09
829.376	0.09
829.671	0.1
829.965	0.1
830.259	0.1
830.553	0.1
830.847	0.1
831.141	0.1
831.435	0.1
831.729	0.11
832.023	0.1
832.317	0.11
832.61	0.1
832.904	0.1
833.197	0.1
833.491	0.11
833.784	0.11
834.077	0.1
834.371	0.1
834.664	0.1
834.957	0.1
835.25	0.1
835.543	0.1
835.836	0.1
836.129	0.09
836.421	0.1
836.714	0.1
837.007	0.1
837.299	0.1
837.592	0.1
837.884	0.11
838.177	0.1
838.469	0.11
838.761	0.1
839.053	0.1
839.345	0.1
839.637	0.1
839.929	0.11
840.221	0.11
840.513	0.11
840.805	0.1
841.096	0.1
841.388	0.11
841.68	0.1
841.971	0.1
842.262	0.1
842.554	0.11
842.845	0.11
843.136	0.11
843.427	0.12
843.718	0.12
844.009	0.11
844.3	0.11
844.591	0.12
844.882	0.11
845.173	0.11
845.463	0.11
845.754	0.12
846.044	0.12
846.335	0.12
846.625	0.13
846.915	0.12
847.206	0.12
847.496	0.13
847.786	0.12
848.076	0.12
848.366	0.12
848.656	0.12
848.945	0.12
849.235	0.12
849.525	0.12
849.814	0.12
850.104	0.13
850.393	0.12
850.683	0.12
850.972	0.12
851.261	0.12
851.551	0.13
851.84	0.11
852.129	0.12
852.418	0.11
852.707	0.12
852.995	0.12
853.284	0.13
853.573	0.13
853.862	0.12
854.15	0.11
854.439	0.12
854.727	0.12
855.015	0.13
855.304	0.12
855.592	0.13
855.88	0.13
856.168	0.13
856.456	0.13
856.744	0.14
857.032	0.14
857.32	0.14
857.607	0.13
857.895	0.14
858.183	0.13
858.47	0.12
858.757	0.14
859.045	0.13
859.332	0.15
859.619	0.14
859.907	0.14
860.194	0.15
860.481	0.13
860.768	0.14
861.054	0.13
861.341	0.13
861.628	0.14
861.915	0.15
862.201	0.15
862.488	0.15
862.774	0.14
863.061	0.16
863.347	0.14
863.633	0.15
863.919	0.14
864.205	0.11
864.491	0.14
864.777	0.13
865.063	0.14
865.349	0.15
865.635	0.16
865.92	0.12
866.206	0.14
866.492	0.15
866.777	0.15
867.062	0.12
867.348	0.13
867.633	0.13
867.918	0.14
868.203	0.13
868.488	0.12
868.773	0.14
869.058	0.12
869.343	0.14
869.628	0.13
869.912	0.13
870.197	0.12
870.482	0.17
870.766	0.13
871.05	0.14
871.335	0.15
871.619	0.13
871.903	0.17
872.187	0.12
872.471	0.15
872.755	0.15
873.039	0.11
873.323	0.14
873.607	0.16
873.89	0.14
874.174	0.13
874.458	0.17
874.741	0.12
875.024	0.14
875.308	0.15
875.591	0.13
875.874	0.11
876.157	0.18
876.44	0.17
876.723	0.13
877.006	0.14
877.289	0.11
877.572	0.12
877.854	0.09
878.137	0.09
878.42	0.09
878.702	0.25
878.984	0.12
879.267	0.12
879.549	0.12
879.831	0.21
880.113	0.21
880.395	0.17
880.677	0.15
880.959	0.21
