Data from Rubpy_BV_1500_EDTA_Buffered_Absorbance_14-15-32-653.txt Node
Date: Wed Jul 01 14:15:32 BST 2026
User: fpm-admin
Spectrometer: OFX00224
Trigger mode: 0
Integration Time (sec): 7.000000E-2
Scans to average: 3
Nonlinearity correction enabled: false
Boxcar width: 0
Storing dark spectrum: false
XAxis mode: Wavelengths
Number of Pixels in Spectrum: 2136
>>>>>Begin Spectral Data<<<<<
154.91	-0.26
155.289	0.39
155.669	-1.18
156.048	-0
156.428	-0
156.807	0.1
157.186	-0.6
157.566	-0.04
157.945	0.1
158.325	0.56
158.704	-0
159.083	0.34
159.462	-0
159.842	0.13
160.221	-0.16
160.6	-0
160.979	-0.03
161.359	0.17
161.738	-0.45
162.117	-0.25
162.496	-0.19
162.875	0.48
163.254	-0.12
163.633	-0
164.012	-0.24
164.391	-0
164.77	-0
165.149	0.2
165.528	-0
165.907	-0
166.286	-0.65
166.665	-0.09
167.044	-0
167.423	-0
167.802	-0
168.181	1.1
168.559	0.08
168.938	0.05
169.317	0.55
169.696	0.01
170.074	-0
170.453	0.01
170.832	0.08
171.21	-0.1
171.589	0.13
171.968	-0.24
172.346	0.51
172.725	-0
173.103	-0
173.482	-0
173.861	1.34
174.239	-0.7
174.617	0.53
174.996	1.26
175.374	0.02
175.753	-0.2
176.131	-0
176.51	0.15
176.888	-0
177.266	-0
177.645	-0.05
178.023	0.84
178.401	-0.14
178.779	0.04
179.158	-0
179.536	0.03
179.914	-0.31
180.292	0.1
180.67	-0
181.048	-0.2
181.427	-0
181.805	-0.38
182.183	-0
182.561	0.98
182.939	-0
183.317	0.36
183.695	0.02
184.073	-0
184.451	-0.04
184.829	-0
185.206	-0
185.584	0.24
185.962	-0
186.34	-0
186.718	-0.48
187.096	-0.45
187.473	0.11
187.851	-0.25
188.229	0.2
188.607	0.15
188.984	0.28
189.362	0.15
189.74	0.04
190.117	0.07
190.495	0.07
190.872	0.11
191.25	0.1
191.627	0.05
192.005	0.08
192.382	0.12
192.76	0.09
193.137	0.08
193.515	0.08
193.892	0.08
194.269	0.03
194.647	0.07
195.024	0.1
195.401	0.04
195.779	0.12
196.156	0.17
196.533	0.11
196.91	0.07
197.288	0.18
197.665	0.09
198.042	0.12
198.419	0.12
198.796	0.11
199.173	0.13
199.55	0.09
199.927	0.14
200.304	0.24
200.681	0.1
201.058	0.19
201.435	0.18
201.812	0.17
202.189	0.03
202.566	0.07
202.943	0.14
203.32	0.08
203.697	0.14
204.073	0.07
204.45	0.13
204.827	0.23
205.204	0.03
205.58	0.08
205.957	0.14
206.334	0.17
206.71	0.13
207.087	0.2
207.464	0.12
207.84	0.06
208.217	0.17
208.593	0.07
208.97	0.1
209.346	0.24
209.723	0.06
210.099	0.26
210.476	0.12
210.852	0.05
211.228	0.11
211.605	0.13
211.981	0.1
212.357	0.19
212.733	0.17
213.11	0.11
213.486	0.21
213.862	0.21
214.238	0.12
214.614	0.11
214.991	0.07
215.367	0.19
215.743	0.22
216.119	0.24
216.495	0.17
216.871	0.13
217.247	0.14
217.623	0.05
217.999	0.01
218.375	0.11
218.751	0.11
219.127	0.07
219.502	0.11
219.878	0.14
220.254	0.13
220.63	0.2
221.006	0.1
221.381	0.2
221.757	0.21
222.133	0.02
222.508	0.12
222.884	0.22
223.26	0.08
223.635	0.14
224.011	0.22
224.386	0.18
224.762	0.19
225.137	0.11
225.513	0.17
225.888	0.33
226.264	0.23
226.639	0.13
227.014	0.17
227.39	0.06
227.765	0.25
228.14	0.17
228.516	0.11
228.891	0.18
229.266	0.16
229.641	0.1
230.017	0.27
230.392	0.19
230.767	0.17
231.142	0.15
231.517	0.04
231.892	0.18
232.267	0.08
232.642	0.14
233.017	0.09
233.392	0.18
233.767	0.11
234.142	0.16
234.517	0.19
234.892	0.14
235.267	0.11
235.641	0.11
236.016	0.1
236.391	0.23
236.766	0.09
237.14	0.1
237.515	0.12
237.89	0.1
238.264	0.22
238.639	0.12
239.014	0.14
239.388	0.07
239.763	0.17
240.137	0.17
240.512	0.15
240.886	0.13
241.261	0.11
241.635	0.15
242.009	0.15
242.384	0.14
242.758	0.15
243.132	0.15
243.507	0.17
243.881	0.14
244.255	0.15
244.629	0.1
245.004	0.15
245.378	0.13
245.752	0.08
246.126	0.19
246.5	0.19
246.874	0.03
247.248	0.1
247.622	0.17
247.996	0.07
248.37	0.15
248.744	0.07
249.118	0.14
249.492	0.28
249.866	0.13
250.24	0.15
250.613	0.12
250.987	0.15
251.361	0.15
251.735	0.16
252.108	0.19
252.482	0.12
252.856	0.16
253.229	0.17
253.603	0.15
253.977	0.09
254.35	0.2
254.724	0.12
255.097	0.12
255.471	0.15
255.844	0.21
256.218	0.11
256.591	0.26
256.964	0.11
257.338	0.11
257.711	0.2
258.084	0.19
258.458	0.11
258.831	0.14
259.204	0.18
259.577	0.14
259.95	0.13
260.323	0.07
260.697	0.14
261.07	0.22
261.443	0.27
261.816	0.09
262.189	0.1
262.562	0.08
262.935	0.1
263.308	0.11
263.68	0.11
264.053	0.26
264.426	0.13
264.799	0.13
265.172	0.13
265.545	0.29
265.917	0.1
266.29	0.09
266.663	0.15
267.035	0.1
267.408	0.19
267.781	0.17
268.153	0.17
268.526	0.15
268.898	0.18
269.271	0.12
269.643	0.18
270.016	0.15
270.388	0.24
270.76	0.18
271.133	0.12
271.505	0.17
271.877	0.1
272.25	0.24
272.622	0.3
272.994	0.17
273.366	0.13
273.739	0.17
274.111	0.15
274.483	0.17
274.855	0.17
275.227	0.17
275.599	0.04
275.971	0.12
276.343	0.16
276.715	0.17
277.087	0.13
277.459	0.2
277.831	0.24
278.203	0.13
278.574	0.14
278.946	0.1
279.318	0.16
279.69	0.15
280.061	0.11
280.433	0.07
280.805	0.12
281.176	0.13
281.548	0.18
281.92	0.11
282.291	0.16
282.663	0.18
283.034	0.16
283.406	0.08
283.777	0.16
284.148	0.12
284.52	0.17
284.891	0.11
285.262	0.23
285.634	0.2
286.005	0.19
286.376	0.22
286.747	0.16
287.119	0.11
287.49	0.11
287.861	0.12
288.232	0.19
288.603	0.15
288.974	0.21
289.345	0.18
289.716	0.11
290.087	0.17
290.458	0.2
290.829	0.19
291.2	0.22
291.571	0.18
291.941	0.13
292.312	0.12
292.683	0.14
293.054	0.19
293.424	0.13
293.795	0.13
294.166	0.16
294.536	0.18
294.907	0.15
295.277	0.17
295.648	0.18
296.018	0.13
296.389	0.19
296.759	0.12
297.13	0.24
297.5	0.16
297.871	0.18
298.241	0.13
298.611	0.24
298.981	0.23
299.352	0.14
299.722	0.19
300.092	0.19
300.462	0.19
300.832	0.14
301.202	0.2
301.573	0.16
301.943	0.13
302.313	0.1
302.683	0.21
303.053	0.2
303.422	0.15
303.792	0.13
304.162	0.13
304.532	0.16
304.902	0.1
305.272	0.18
305.641	0.18
306.011	0.14
306.381	0.1
306.75	0.09
307.12	0.1
307.49	0.12
307.859	0.11
308.229	0.13
308.598	0.16
308.968	0.1
309.337	0.12
309.707	0.1
310.076	0.13
310.445	0.14
310.815	0.11
311.184	0.11
311.553	0.09
311.923	0.08
312.292	0.11
312.661	0.13
313.03	0.11
313.399	0.12
313.768	0.13
314.137	0.09
314.506	0.1
314.875	0.11
315.244	0.12
315.613	0.12
315.982	0.13
316.351	0.11
316.72	0.12
317.089	0.12
317.458	0.12
317.826	0.12
318.195	0.12
318.564	0.12
318.933	0.13
319.301	0.12
319.67	0.14
320.038	0.12
320.407	0.14
320.775	0.13
321.144	0.13
321.512	0.15
321.881	0.15
322.249	0.15
322.618	0.14
322.986	0.15
323.354	0.14
323.723	0.16
324.091	0.15
324.459	0.15
324.827	0.15
325.195	0.16
325.564	0.15
325.932	0.15
326.3	0.16
326.668	0.17
327.036	0.17
327.404	0.17
327.772	0.17
328.14	0.18
328.508	0.17
328.875	0.17
329.243	0.18
329.611	0.18
329.979	0.19
330.346	0.18
330.714	0.18
331.082	0.19
331.449	0.19
331.817	0.19
332.185	0.19
332.552	0.21
332.92	0.21
333.287	0.21
333.655	0.21
334.022	0.22
334.389	0.22
334.757	0.22
335.124	0.22
335.491	0.24
335.859	0.23
336.226	0.24
336.593	0.24
336.96	0.25
337.327	0.25
337.695	0.26
338.062	0.26
338.429	0.27
338.796	0.27
339.163	0.28
339.53	0.28
339.897	0.29
340.263	0.29
340.63	0.29
340.997	0.3
341.364	0.3
341.731	0.31
342.097	0.32
342.464	0.32
342.831	0.33
343.197	0.33
343.564	0.34
343.931	0.34
344.297	0.34
344.664	0.35
345.03	0.35
345.396	0.36
345.763	0.37
346.129	0.37
346.496	0.38
346.862	0.38
347.228	0.39
347.594	0.39
347.961	0.4
348.327	0.4
348.693	0.41
349.059	0.42
349.425	0.42
349.791	0.42
350.157	0.43
350.523	0.43
350.889	0.44
351.255	0.44
351.621	0.45
351.987	0.45
352.353	0.47
352.719	0.46
353.084	0.47
353.45	0.47
353.816	0.48
354.181	0.49
354.547	0.5
354.913	0.5
355.278	0.51
355.644	0.51
356.009	0.52
356.375	0.52
356.74	0.54
357.106	0.54
357.471	0.55
357.836	0.56
358.202	0.57
358.567	0.57
358.932	0.57
359.297	0.58
359.663	0.6
360.028	0.61
360.393	0.62
360.758	0.62
361.123	0.62
361.488	0.64
361.853	0.64
362.218	0.65
362.583	0.66
362.948	0.66
363.312	0.67
363.677	0.68
364.042	0.69
364.407	0.7
364.772	0.71
365.136	0.71
365.501	0.72
365.865	0.73
366.23	0.74
366.595	0.74
366.959	0.75
367.324	0.75
367.688	0.75
368.052	0.77
368.417	0.78
368.781	0.77
369.145	0.79
369.51	0.79
369.874	0.8
370.238	0.81
370.602	0.81
370.967	0.82
371.331	0.83
371.695	0.82
372.059	0.83
372.423	0.82
372.787	0.83
373.151	0.83
373.515	0.82
373.878	0.82
374.242	0.82
374.606	0.82
374.97	0.81
375.334	0.81
375.697	0.8
376.061	0.79
376.425	0.78
376.788	0.78
377.152	0.77
377.515	0.77
377.879	0.76
378.242	0.75
378.606	0.74
378.969	0.73
379.333	0.72
379.696	0.71
380.059	0.71
380.422	0.7
380.786	0.7
381.149	0.69
381.512	0.67
381.875	0.68
382.238	0.67
382.601	0.66
382.964	0.65
383.327	0.65
383.69	0.65
384.053	0.64
384.416	0.63
384.779	0.63
385.142	0.63
385.504	0.62
385.867	0.62
386.23	0.62
386.593	0.63
386.955	0.62
387.318	0.62
387.68	0.62
388.043	0.62
388.405	0.63
388.768	0.62
389.13	0.62
389.493	0.61
389.855	0.62
390.217	0.61
390.58	0.61
390.942	0.6
391.304	0.6
391.666	0.6
392.028	0.59
392.391	0.58
392.753	0.57
393.115	0.57
393.477	0.56
393.839	0.56
394.201	0.55
394.563	0.55
394.924	0.55
395.286	0.55
395.648	0.55
396.01	0.56
396.371	0.57
396.733	0.57
397.095	0.58
397.456	0.6
397.818	0.6
398.18	0.62
398.541	0.64
398.903	0.66
399.264	0.67
399.625	0.69
399.987	0.71
400.348	0.72
400.709	0.73
401.071	0.73
401.432	0.74
401.793	0.74
402.154	0.74
402.515	0.73
402.876	0.72
403.238	0.7
403.599	0.68
403.96	0.66
404.32	0.64
404.681	0.63
405.042	0.59
405.403	0.57
405.764	0.54
406.125	0.52
406.485	0.49
406.846	0.46
407.207	0.44
407.567	0.41
407.928	0.39
408.288	0.36
408.649	0.34
409.009	0.33
409.37	0.31
409.73	0.29
410.091	0.28
410.451	0.26
410.811	0.24
411.171	0.23
411.532	0.21
411.892	0.22
412.252	0.2
412.612	0.19
412.972	0.18
413.332	0.17
413.692	0.17
414.052	0.16
414.412	0.16
414.772	0.15
415.132	0.14
415.492	0.14
415.851	0.13
416.211	0.13
416.571	0.12
416.931	0.12
417.29	0.12
417.65	0.12
418.009	0.12
418.369	0.11
418.728	0.11
419.088	0.11
419.447	0.1
419.807	0.1
420.166	0.1
420.525	0.1
420.884	0.09
421.244	0.09
421.603	0.09
421.962	0.09
422.321	0.08
422.68	0.08
423.039	0.07
423.398	0.08
423.757	0.08
424.116	0.08
424.475	0.09
424.834	0.08
425.193	0.08
425.551	0.08
425.91	0.08
426.269	0.07
426.628	0.07
426.986	0.07
427.345	0.08
427.703	0.08
428.062	0.07
428.42	0.06
428.779	0.08
429.137	0.07
429.496	0.06
429.854	0.07
430.212	0.07
430.57	0.06
430.929	0.06
431.287	0.06
431.645	0.06
432.003	0.07
432.361	0.06
432.719	0.07
433.077	0.05
433.435	0.06
433.793	0.06
434.151	0.06
434.509	0.07
434.866	0.06
435.224	0.06
435.582	0.06
435.94	0.07
436.297	0.06
436.655	0.06
437.012	0.06
437.37	0.06
437.727	0.06
438.085	0.07
438.442	0.06
438.8	0.06
439.157	0.06
439.514	0.07
439.872	0.05
440.229	0.06
440.586	0.06
440.943	0.07
441.3	0.07
441.657	0.06
442.014	0.06
442.371	0.05
442.728	0.06
443.085	0.08
443.442	0.07
443.799	0.06
444.156	0.06
444.513	0.06
444.869	0.07
445.226	0.06
445.583	0.07
445.939	0.06
446.296	0.07
446.652	0.06
447.009	0.07
447.365	0.06
447.722	0.07
448.078	0.07
448.434	0.07
448.791	0.07
449.147	0.06
449.503	0.07
449.859	0.07
450.215	0.06
450.571	0.07
450.928	0.06
451.284	0.06
451.64	0.07
451.995	0.07
452.351	0.08
452.707	0.08
453.063	0.06
453.419	0.06
453.775	0.07
454.13	0.06
454.486	0.08
454.842	0.06
455.197	0.07
455.553	0.07
455.908	0.07
456.264	0.07
456.619	0.07
456.975	0.07
457.33	0.07
457.685	0.07
458.04	0.07
458.396	0.07
458.751	0.07
459.106	0.08
459.461	0.07
459.816	0.07
460.171	0.07
460.526	0.07
460.881	0.07
461.236	0.07
461.591	0.08
461.946	0.07
462.301	0.08
462.655	0.08
463.01	0.08
463.365	0.08
463.719	0.08
464.074	0.07
464.428	0.08
464.783	0.08
465.137	0.08
465.492	0.08
465.846	0.08
466.201	0.08
466.555	0.08
466.909	0.08
467.263	0.08
467.618	0.08
467.972	0.09
468.326	0.09
468.68	0.08
469.034	0.08
469.388	0.09
469.742	0.08
470.096	0.08
470.45	0.09
470.804	0.09
471.157	0.08
471.511	0.09
471.865	0.09
472.218	0.1
472.572	0.1
472.926	0.09
473.279	0.1
473.633	0.1
473.986	0.1
474.34	0.1
474.693	0.11
475.046	0.11
475.4	0.11
475.753	0.11
476.106	0.11
476.459	0.11
476.812	0.11
477.165	0.12
477.519	0.12
477.872	0.11
478.224	0.13
478.577	0.13
478.93	0.12
479.283	0.13
479.636	0.13
479.989	0.13
480.341	0.13
480.694	0.14
481.047	0.14
481.399	0.13
481.752	0.14
482.104	0.14
482.457	0.15
482.809	0.15
483.162	0.15
483.514	0.15
483.866	0.15
484.219	0.15
484.571	0.15
484.923	0.16
485.275	0.16
485.627	0.16
485.979	0.16
486.331	0.16
486.683	0.15
487.035	0.16
487.387	0.16
487.739	0.17
488.091	0.17
488.443	0.17
488.794	0.17
489.146	0.17
489.498	0.17
489.849	0.17
490.201	0.18
490.552	0.18
490.904	0.18
491.255	0.18
491.607	0.18
491.958	0.19
492.309	0.19
492.661	0.18
493.012	0.19
493.363	0.19
493.714	0.19
494.065	0.19
494.416	0.2
494.767	0.2
495.118	0.2
495.469	0.2
495.82	0.2
496.171	0.2
496.522	0.2
496.872	0.21
497.223	0.21
497.574	0.21
497.924	0.21
498.275	0.22
498.626	0.21
498.976	0.21
499.327	0.22
499.677	0.22
500.027	0.22
500.378	0.22
500.728	0.22
501.078	0.23
501.428	0.22
501.779	0.23
502.129	0.23
502.479	0.23
502.829	0.23
503.179	0.23
503.529	0.23
503.879	0.24
504.229	0.24
504.578	0.24
504.928	0.24
505.278	0.24
505.628	0.24
505.977	0.25
506.327	0.25
506.676	0.25
507.026	0.25
507.375	0.26
507.725	0.25
508.074	0.26
508.424	0.26
508.773	0.26
509.122	0.26
509.471	0.27
509.82	0.26
510.17	0.27
510.519	0.27
510.868	0.28
511.217	0.27
511.566	0.28
511.915	0.28
512.263	0.28
512.612	0.27
512.961	0.27
513.31	0.28
513.659	0.28
514.007	0.28
514.356	0.28
514.704	0.29
515.053	0.29
515.401	0.29
515.75	0.29
516.098	0.29
516.447	0.3
516.795	0.3
517.143	0.29
517.491	0.3
517.839	0.3
518.188	0.3
518.536	0.3
518.884	0.3
519.232	0.3
519.58	0.31
519.928	0.3
520.275	0.31
520.623	0.31
520.971	0.31
521.319	0.31
521.666	0.31
522.014	0.31
522.362	0.31
522.709	0.31
523.057	0.32
523.404	0.32
523.752	0.32
524.099	0.33
524.446	0.32
524.794	0.32
525.141	0.32
525.488	0.32
525.835	0.33
526.182	0.33
526.529	0.33
526.876	0.33
527.223	0.33
527.57	0.34
527.917	0.33
528.264	0.34
528.611	0.33
528.958	0.34
529.304	0.33
529.651	0.33
529.998	0.34
530.344	0.34
530.691	0.34
531.037	0.34
531.384	0.34
531.73	0.34
532.076	0.34
532.423	0.35
532.769	0.34
533.115	0.35
533.461	0.35
533.807	0.34
534.154	0.35
534.5	0.35
534.846	0.35
535.192	0.35
535.537	0.35
535.883	0.35
536.229	0.35
536.575	0.35
536.921	0.36
537.266	0.36
537.612	0.36
537.957	0.36
538.303	0.36
538.649	0.36
538.994	0.36
539.339	0.36
539.685	0.36
540.03	0.36
540.375	0.36
540.721	0.37
541.066	0.36
541.411	0.37
541.756	0.36
542.101	0.37
542.446	0.36
542.791	0.37
543.136	0.37
543.481	0.37
543.825	0.37
544.17	0.37
544.515	0.37
544.86	0.37
545.204	0.37
545.549	0.37
545.893	0.37
546.238	0.37
546.582	0.38
546.927	0.37
547.271	0.37
547.615	0.38
547.96	0.38
548.304	0.38
548.648	0.38
548.992	0.38
549.336	0.37
549.68	0.38
550.024	0.39
550.368	0.38
550.712	0.38
551.056	0.38
551.4	0.38
551.743	0.38
552.087	0.38
552.431	0.38
552.774	0.38
553.118	0.38
553.462	0.38
553.805	0.38
554.148	0.38
554.492	0.38
554.835	0.38
555.178	0.38
555.522	0.38
555.865	0.38
556.208	0.38
556.551	0.38
556.894	0.38
557.237	0.38
557.58	0.38
557.923	0.38
558.266	0.38
558.609	0.38
558.952	0.38
559.294	0.38
559.637	0.38
559.98	0.38
560.322	0.39
560.665	0.38
561.007	0.38
561.35	0.38
561.692	0.38
562.034	0.38
562.377	0.38
562.719	0.38
563.061	0.38
563.403	0.38
563.745	0.38
564.088	0.38
564.43	0.38
564.772	0.38
565.113	0.38
565.455	0.38
565.797	0.38
566.139	0.38
566.481	0.38
566.822	0.38
567.164	0.37
567.506	0.38
567.847	0.38
568.189	0.37
568.53	0.37
568.872	0.38
569.213	0.37
569.554	0.37
569.895	0.37
570.237	0.37
570.578	0.37
570.919	0.37
571.26	0.37
571.601	0.36
571.942	0.36
572.283	0.36
572.624	0.36
572.965	0.36
573.306	0.36
573.646	0.36
573.987	0.36
574.328	0.36
574.668	0.36
575.009	0.35
575.349	0.36
575.69	0.35
576.03	0.35
576.37	0.35
576.711	0.34
577.051	0.35
577.391	0.35
577.731	0.35
578.072	0.35
578.412	0.35
578.752	0.35
579.092	0.34
579.431	0.33
579.771	0.32
580.111	0.31
580.451	0.32
580.791	0.33
581.13	0.34
581.47	0.34
581.81	0.34
582.149	0.34
582.489	0.34
582.828	0.33
583.167	0.31
583.507	0.27
583.846	0.26
584.185	0.28
584.525	0.31
584.864	0.33
585.203	0.34
585.542	0.34
585.881	0.34
586.22	0.34
586.559	0.33
586.898	0.33
587.236	0.31
587.575	0.31
587.914	0.32
588.252	0.33
588.591	0.34
588.93	0.33
589.268	0.33
589.607	0.33
589.945	0.33
590.283	0.33
590.622	0.34
590.96	0.34
591.298	0.34
591.636	0.34
591.974	0.35
592.313	0.34
592.651	0.34
592.989	0.34
593.326	0.34
593.664	0.34
594.002	0.34
594.34	0.34
594.678	0.33
595.015	0.33
595.353	0.33
595.691	0.33
596.028	0.34
596.366	0.34
596.703	0.34
597.04	0.34
597.378	0.34
597.715	0.35
598.052	0.35
598.389	0.35
598.726	0.35
599.064	0.35
599.401	0.35
599.738	0.34
600.074	0.35
600.411	0.34
600.748	0.34
601.085	0.33
601.422	0.33
601.758	0.33
602.095	0.33
602.432	0.33
602.768	0.33
603.105	0.34
603.441	0.34
603.777	0.34
604.114	0.34
604.45	0.34
604.786	0.34
605.122	0.34
605.459	0.33
605.795	0.34
606.131	0.33
606.467	0.34
606.803	0.33
607.139	0.33
607.474	0.33
607.81	0.33
608.146	0.33
608.482	0.33
608.817	0.33
609.153	0.33
609.488	0.33
609.824	0.32
610.159	0.32
610.495	0.32
610.83	0.33
611.165	0.33
611.5	0.32
611.836	0.32
612.171	0.32
612.506	0.32
612.841	0.32
613.176	0.32
613.511	0.32
613.845	0.32
614.18	0.32
614.515	0.32
614.85	0.32
615.184	0.32
615.519	0.32
615.854	0.31
616.188	0.32
616.523	0.32
616.857	0.31
617.191	0.31
617.526	0.31
617.86	0.31
618.194	0.31
618.528	0.31
618.862	0.31
619.196	0.31
619.53	0.31
619.864	0.3
620.198	0.31
620.532	0.3
620.866	0.3
621.2	0.3
621.533	0.3
621.867	0.3
622.201	0.29
622.534	0.3
622.868	0.3
623.201	0.3
623.534	0.29
623.868	0.3
624.201	0.29
624.534	0.29
624.868	0.29
625.201	0.29
625.534	0.29
625.867	0.29
626.2	0.28
626.533	0.28
626.865	0.28
627.198	0.28
627.531	0.28
627.864	0.28
628.196	0.28
628.529	0.28
628.862	0.27
629.194	0.27
629.527	0.27
629.859	0.27
630.191	0.27
630.524	0.27
630.856	0.27
631.188	0.26
631.52	0.26
631.852	0.26
632.184	0.26
632.516	0.25
632.848	0.25
633.18	0.25
633.512	0.25
633.844	0.25
634.175	0.25
634.507	0.24
634.839	0.25
635.17	0.24
635.502	0.24
635.833	0.24
636.165	0.24
636.496	0.24
636.827	0.24
637.159	0.23
637.49	0.23
637.821	0.23
638.152	0.23
638.483	0.23
638.814	0.23
639.145	0.23
639.476	0.23
639.807	0.22
640.137	0.22
640.468	0.22
640.799	0.22
641.129	0.22
641.46	0.22
641.791	0.22
642.121	0.21
642.451	0.21
642.782	0.21
643.112	0.21
643.442	0.21
643.773	0.21
644.103	0.21
644.433	0.2
644.763	0.2
645.093	0.2
645.423	0.2
645.753	0.2
646.082	0.2
646.412	0.2
646.742	0.19
647.072	0.19
647.401	0.19
647.731	0.19
648.06	0.19
648.39	0.19
648.719	0.19
649.048	0.19
649.378	0.19
649.707	0.19
650.036	0.19
650.365	0.19
650.694	0.19
651.023	0.19
651.352	0.18
651.681	0.18
652.01	0.18
652.339	0.18
652.668	0.18
652.996	0.18
653.325	0.18
653.654	0.18
653.982	0.18
654.311	0.18
654.639	0.18
654.967	0.18
655.296	0.18
655.624	0.18
655.952	0.18
656.28	0.18
656.609	0.18
656.937	0.18
657.265	0.17
657.593	0.07
657.92	0
658.248	-0
658.576	0
658.904	0.04
659.231	0.12
659.559	0.17
659.887	0.17
660.214	0.17
660.542	0.17
660.869	0.17
661.196	0.17
661.524	0.16
661.851	0.17
662.178	0.16
662.505	0.16
662.832	0.16
663.159	0.17
663.486	0.17
663.813	0.17
664.14	0.16
664.467	0.16
664.794	0.16
665.12	0.16
665.447	0.16
665.774	0.16
666.1	0.16
666.427	0.16
666.753	0.16
667.079	0.16
667.406	0.15
667.732	0.15
668.058	0.16
668.384	0.15
668.71	0.15
669.036	0.15
669.362	0.15
669.688	0.15
670.014	0.15
670.34	0.15
670.666	0.14
670.991	0.15
671.317	0.15
671.643	0.15
671.968	0.14
672.294	0.15
672.619	0.14
672.945	0.14
673.27	0.14
673.595	0.14
673.92	0.13
674.246	0.14
674.571	0.13
674.896	0.13
675.221	0.13
675.546	0.13
675.87	0.13
676.195	0.13
676.52	0.13
676.845	0.13
677.169	0.12
677.494	0.13
677.819	0.12
678.143	0.12
678.468	0.12
678.792	0.12
679.116	0.12
679.44	0.12
679.765	0.12
680.089	0.11
680.413	0.11
680.737	0.11
681.061	0.11
681.385	0.11
681.709	0.11
682.033	0.11
682.356	0.11
682.68	0.11
683.004	0.11
683.327	0.11
683.651	0.1
683.974	0.1
684.298	0.1
684.621	0.1
684.944	0.1
685.268	0.1
685.591	0.1
685.914	0.1
686.237	0.09
686.56	0.09
686.883	0.09
687.206	0.09
687.529	0.08
687.852	0.08
688.175	0.09
688.497	0.09
688.82	0.09
689.142	0.08
689.465	0.08
689.787	0.08
690.11	0.08
690.432	0.08
690.755	0.08
691.077	0.08
691.399	0.08
691.721	0.08
692.043	0.08
692.365	0.08
692.687	0.07
693.009	0.07
693.331	0.07
693.653	0.07
693.974	0.07
694.296	0.07
694.618	0.07
694.939	0.07
695.261	0.07
695.582	0.07
695.904	0.07
696.225	0.07
696.546	0.07
696.868	0.07
697.189	0.06
697.51	0.06
697.831	0.06
698.152	0.06
698.473	0.06
698.794	0.05
699.114	0.05
699.435	0.04
699.756	0.05
700.077	0.05
700.397	0.05
700.718	0.05
701.038	0.06
701.359	0.06
701.679	0.06
701.999	0.06
702.32	0.05
702.64	0.05
702.96	0.06
703.28	0.05
703.6	0.05
703.92	0.05
704.24	0.05
704.56	0.05
704.879	0.05
705.199	0.05
705.519	0.05
705.838	0.05
706.158	0.05
706.478	0.05
706.797	0.05
707.116	0.05
707.436	0.05
707.755	0.05
708.074	0.05
708.393	0.05
708.712	0.04
709.031	0.03
709.35	0.03
709.669	0.03
709.988	0.03
710.307	0.04
710.626	0.04
710.944	0.04
711.263	0.04
711.582	0.05
711.9	0.05
712.219	0.04
712.537	0.04
712.855	0.05
713.174	0.05
713.492	0.05
713.81	0.05
714.128	0.05
714.446	0.05
714.764	0.04
715.082	0.04
715.4	0.04
715.718	0.04
716.035	0.04
716.353	0.04
716.671	0.04
716.988	0.04
717.306	0.04
717.623	0.05
717.941	0.05
718.258	0.05
718.575	0.05
718.893	0.05
719.21	0.05
719.527	0.05
719.844	0.05
720.161	0.05
720.478	0.05
720.795	0.05
721.112	0.05
721.428	0.05
721.745	0.05
722.062	0.05
722.378	0.05
722.695	0.05
723.011	0.05
723.328	0.05
723.644	0.05
723.96	0.05
724.276	0.06
724.593	0.06
724.909	0.06
725.225	0.06
725.541	0.06
725.857	0.06
726.173	0.06
726.488	0.06
726.804	0.06
727.12	0.06
727.435	0.05
727.751	0.06
728.067	0.06
728.382	0.06
728.697	0.05
729.013	0.06
729.328	0.05
729.643	0.05
729.958	0.05
730.273	0.05
730.588	0.05
730.903	0.05
731.218	0.05
731.533	0.06
731.848	0.05
732.163	0.05
732.477	0.05
732.792	0.05
733.107	0.05
733.421	0.05
733.736	0.05
734.05	0.05
734.364	0.05
734.678	0.05
734.993	0.05
735.307	0.05
735.621	0.05
735.935	0.05
736.249	0.05
736.563	0.05
736.877	0.05
737.19	0.05
737.504	0.05
737.818	0.05
738.131	0.05
738.445	0.05
738.758	0.05
739.072	0.05
739.385	0.05
739.698	0.05
740.012	0.05
740.325	0.05
740.638	0.05
740.951	0.05
741.264	0.04
741.577	0.04
741.89	0.05
742.203	0.04
742.515	0.04
742.828	0.04
743.141	0.04
743.453	0.04
743.766	0.04
744.078	0.04
744.391	0.04
744.703	0.04
745.015	0.04
745.327	0.04
745.639	0.04
745.952	0.04
746.264	0.04
746.575	0.04
746.887	0.04
747.199	0.04
747.511	0.04
747.823	0.04
748.134	0.04
748.446	0.04
748.757	0.04
749.069	0.04
749.38	0.04
749.692	0.04
750.003	0.04
750.314	0.04
750.625	0.04
750.936	0.04
751.248	0.04
751.559	0.04
751.869	0.04
752.18	0.04
752.491	0.03
752.802	0.04
753.112	0.04
753.423	0.03
753.734	0.03
754.044	0.03
754.355	0.04
754.665	0.03
754.975	0.03
755.285	0.03
755.596	0.03
755.906	0.03
756.216	0.03
756.526	0.03
756.836	0.03
757.146	0.03
757.455	0.03
757.765	0.03
758.075	0.03
758.385	0.03
758.694	0.02
759.004	0.02
759.313	0.02
759.622	0.02
759.932	0.03
760.241	0.03
760.55	0.03
760.859	0.02
761.168	0.02
761.477	0.02
761.786	0.02
762.095	0.02
762.404	0.02
762.713	0.02
763.021	0.02
763.33	0.02
763.639	0.02
763.947	0.02
764.256	0.02
764.564	0.02
764.872	0.02
765.181	0.02
765.489	0.02
765.797	0.02
766.105	0.02
766.413	0.02
766.721	0.02
767.029	0.02
767.337	0.03
767.644	0.03
767.952	0.02
768.26	0.02
768.567	0.02
768.875	0.02
769.182	0.02
769.49	0.02
769.797	0.02
770.104	0.02
770.411	0.02
770.718	0.02
771.026	0.02
771.333	0.02
771.639	0.03
771.946	0.02
772.253	0.02
772.56	0.02
772.867	0.02
773.173	0.02
773.48	0.02
773.786	0.02
774.093	0.02
774.399	0.02
774.705	0.02
775.012	0.02
775.318	0.02
775.624	0.02
775.93	0.02
776.236	0.02
776.542	0.02
776.848	0.02
777.154	0.02
777.459	0.03
777.765	0.02
778.071	0.02
778.376	0.02
778.682	0.02
778.987	0.02
779.292	0.02
779.598	0.02
779.903	0.02
780.208	0.02
780.513	0.02
780.818	0.02
781.123	0.02
781.428	0.02
781.733	0.02
782.038	0.02
782.343	0.02
782.647	0.02
782.952	0.02
783.256	0.02
783.561	0.02
783.865	0.03
784.17	0.03
784.474	0.03
784.778	0.03
785.082	0.03
785.386	0.03
785.69	0.03
785.994	0.03
786.298	0.03
786.602	0.03
786.906	0.02
787.209	0.03
787.513	0.03
787.817	0.03
788.12	0.03
788.424	0.03
788.727	0.03
789.03	0.03
789.333	0.03
789.637	0.02
789.94	0.03
790.243	0.02
790.546	0.02
790.849	0.02
791.152	0.02
791.454	0.02
791.757	0.03
792.06	0.03
792.362	0.03
792.665	0.03
792.967	0.02
793.27	0.02
793.572	0.02
793.874	0.02
794.177	0.03
794.479	0.03
794.781	0.02
795.083	0.02
795.385	0.02
795.687	0.02
795.989	0.02
796.29	0.02
796.592	0.02
796.894	0.02
797.195	0.03
797.497	0.03
797.798	0.03
798.1	0.03
798.401	0.03
798.702	0.02
799.003	0.03
799.304	0.02
799.605	0.02
799.906	0.03
800.207	0.02
800.508	0.03
800.809	0.03
801.11	0.02
801.41	0.03
801.711	0.03
802.011	0.03
802.312	0.03
802.612	0.03
802.913	0.03
803.213	0.03
803.513	0.03
803.813	0.03
804.113	0.02
804.413	0.02
804.713	0.03
805.013	0.02
805.313	0.03
805.613	0.03
805.912	0.03
806.212	0.02
806.511	0.03
806.811	0.03
807.11	0.02
807.41	0.03
807.709	0.03
808.008	0.03
808.307	0.03
808.606	0.03
808.905	0.03
809.204	0.03
809.503	0.04
809.802	0.03
810.101	0.03
810.399	0.03
810.698	0.04
810.997	0.03
811.295	0.04
811.593	0.03
811.892	0.03
812.19	0.04
812.488	0.03
812.786	0.03
813.084	0.03
813.383	0.03
813.68	0.03
813.978	0.03
814.276	0.03
814.574	0.03
814.872	0.03
815.169	0.03
815.467	0.03
815.764	0.04
816.062	0.04
816.359	0.03
816.656	0.03
816.954	0.03
817.251	0.03
817.548	0.04
817.845	0.04
818.142	0.03
818.439	0.03
818.735	0.03
819.032	0.03
819.329	0.03
819.626	0.03
819.922	0.03
820.219	0.03
820.515	0.03
820.811	0.04
821.108	0.04
821.404	0.04
821.7	0.03
821.996	0.04
822.292	0.04
822.588	0.04
822.884	0.04
823.18	0.04
823.475	0.04
823.771	0.04
824.067	0.04
824.362	0.04
824.658	0.04
824.953	0.04
825.249	0.03
825.544	0.04
825.839	0.04
826.134	0.04
826.429	0.04
826.724	0.04
827.019	0.04
827.314	0.04
827.609	0.04
827.904	0.04
828.198	0.04
828.493	0.04
828.787	0.04
829.082	0.04
829.376	0.04
829.671	0.04
829.965	0.04
830.259	0.04
830.553	0.04
830.847	0.04
831.141	0.04
831.435	0.04
831.729	0.04
832.023	0.04
832.317	0.04
832.61	0.04
832.904	0.05
833.197	0.05
833.491	0.05
833.784	0.04
834.077	0.04
834.371	0.05
834.664	0.04
834.957	0.04
835.25	0.04
835.543	0.04
835.836	0.04
836.129	0.03
836.421	0.04
836.714	0.04
837.007	0.04
837.299	0.05
837.592	0.04
837.884	0.04
838.177	0.04
838.469	0.04
838.761	0.05
839.053	0.03
839.345	0.04
839.637	0.04
839.929	0.04
840.221	0.05
840.513	0.04
840.805	0.04
841.096	0.04
841.388	0.04
841.68	0.05
841.971	0.04
842.262	0.04
842.554	0.05
842.845	0.04
843.136	0.04
843.427	0.05
843.718	0.04
844.009	0.04
844.3	0.04
844.591	0.05
844.882	0.05
845.173	0.05
845.463	0.04
845.754	0.05
846.044	0.06
846.335	0.05
846.625	0.05
846.915	0.06
847.206	0.05
847.496	0.05
847.786	0.05
848.076	0.06
848.366	0.05
848.656	0.05
848.945	0.05
849.235	0.05
849.525	0.05
849.814	0.05
850.104	0.06
850.393	0.05
850.683	0.06
850.972	0.05
851.261	0.06
851.551	0.06
851.84	0.05
852.129	0.05
852.418	0.04
852.707	0.05
852.995	0.06
853.284	0.05
853.573	0.05
853.862	0.05
854.15	0.04
854.439	0.05
854.727	0.05
855.015	0.04
855.304	0.04
855.592	0.06
855.88	0.06
856.168	0.05
856.456	0.06
856.744	0.05
857.032	0.06
857.32	0.06
857.607	0.05
857.895	0.06
858.183	0.05
858.47	0.05
858.757	0.07
859.045	0.06
859.332	0.06
859.619	0.05
859.907	0.06
860.194	0.06
860.481	0.05
860.768	0.06
861.054	0.07
861.341	0.05
861.628	0.06
861.915	0.06
862.201	0.08
862.488	0.07
862.774	0.06
863.061	0.06
863.347	0.05
863.633	0.06
863.919	0.05
864.205	0.03
864.491	0.06
864.777	0.04
865.063	0.06
865.349	0.05
865.635	0.05
865.92	0.05
866.206	0.06
866.492	0.06
866.777	0.06
867.062	0.05
867.348	0.04
867.633	0.03
867.918	0.05
868.203	0.08
868.488	0.06
868.773	0.05
869.058	0.03
869.343	0.05
869.628	0.05
869.912	0.04
870.197	0.05
870.482	0.07
870.766	0.03
871.05	0.04
871.335	0.05
871.619	0.03
871.903	0.05
872.187	0.04
872.471	0.04
872.755	0.01
873.039	0.02
873.323	0.08
873.607	0.03
873.89	0.1
874.174	0.04
874.458	0.04
874.741	0.08
875.024	0.05
875.308	0.03
875.591	0.14
875.874	0.07
876.157	0.15
876.44	0.08
876.723	0.03
877.006	0.05
877.289	0.04
877.572	0.12
877.854	0.08
878.137	-0
878.42	0.09
878.702	0.1
878.984	0.03
879.267	0.07
879.549	0.03
879.831	0.11
880.113	0.08
880.395	0.07
880.677	0.07
880.959	-0.02
