Data from Rubpy_BV_1500_EDTA_Buffered_Absorbance_14-25-22-650.txt Node
Date: Wed Jul 01 14:25:22 BST 2026
User: fpm-admin
Spectrometer: OFX00224
Trigger mode: 0
Integration Time (sec): 7.000000E-2
Scans to average: 3
Nonlinearity correction enabled: false
Boxcar width: 0
Storing dark spectrum: false
XAxis mode: Wavelengths
Number of Pixels in Spectrum: 2136
>>>>>Begin Spectral Data<<<<<
154.91	-0
155.289	0.26
155.669	-0.85
156.048	-0.14
156.428	-0
156.807	-0
157.186	-0.18
157.566	-0
157.945	-0
158.325	0.64
158.704	-0.85
159.083	-0
159.462	-0
159.842	0.59
160.221	-0.54
160.6	-0
160.979	-0.4
161.359	0.12
161.738	0.48
162.117	-0
162.496	-0.56
162.875	-0
163.254	0.09
163.633	0.57
164.012	-0.46
164.391	-0.24
164.77	-0.14
165.149	-0.04
165.528	-0.64
165.907	-0
166.286	-0.64
166.665	-0
167.044	0.15
167.423	-0
167.802	-0
168.181	0.25
168.559	0.1
168.938	0.03
169.317	0.28
169.696	0.03
170.074	-0
170.453	0.02
170.832	0.23
171.21	-0.08
171.589	-0.35
171.968	-0
172.346	0.65
172.725	-0.27
173.103	-0
173.482	-0.85
173.861	-0
174.239	-0.3
174.617	-0
174.996	0.16
175.374	0.06
175.753	-0.15
176.131	-0.07
176.51	0.09
176.888	-0
177.266	-0
177.645	-0.02
178.023	-0
178.401	-0.22
178.779	0.14
179.158	-0
179.536	-0.39
179.914	0.04
180.292	0.06
180.67	-0
181.048	-0.02
181.427	0.09
181.805	-0.28
182.183	-0
182.561	0.35
182.939	-0
183.317	-0
183.695	1.36
184.073	-0
184.451	-0.37
184.829	-0
185.206	-0
185.584	0.24
185.962	-0.4
186.34	-0
186.718	-0
187.096	-0.5
187.473	-0.42
187.851	0.18
188.229	0.29
188.607	0.15
188.984	0.22
189.362	0.14
189.74	0.17
190.117	0.34
190.495	0.15
190.872	0.12
191.25	0.26
191.627	0.02
192.005	0.11
192.382	0.16
192.76	0.26
193.137	0.2
193.515	0.07
193.892	0.21
194.269	0.05
194.647	0.38
195.024	0.19
195.401	0.23
195.779	0.16
196.156	0.25
196.533	0.32
196.91	0.28
197.288	0.25
197.665	0.14
198.042	0.2
198.419	0.15
198.796	0.25
199.173	0.14
199.55	0.17
199.927	0.24
200.304	0.36
200.681	0.3
201.058	0.25
201.435	0.18
201.812	0.27
202.189	0.26
202.566	0.21
202.943	0.13
203.32	0.13
203.697	0.07
204.073	0.17
204.45	0.16
204.827	0.3
205.204	0.16
205.58	0.09
205.957	0.15
206.334	0.08
206.71	0.16
207.087	0.33
207.464	0.16
207.84	0.14
208.217	0.3
208.593	0.3
208.97	0.2
209.346	0.24
209.723	0.17
210.099	0.21
210.476	0.14
210.852	0.24
211.228	0.18
211.605	0.16
211.981	0.1
212.357	0.24
212.733	0.18
213.11	0.16
213.486	0.19
213.862	0.16
214.238	0.27
214.614	0.26
214.991	0.08
215.367	0.18
215.743	0.23
216.119	0.36
216.495	0.25
216.871	0.3
217.247	0.15
217.623	0.25
217.999	0.17
218.375	0.28
218.751	0.29
219.127	0.3
219.502	0.15
219.878	0.17
220.254	0.18
220.63	0.23
221.006	0.12
221.381	0.22
221.757	0.38
222.133	0.26
222.508	0.26
222.884	0.29
223.26	0.22
223.635	0.21
224.011	0.28
224.386	0.25
224.762	0.25
225.137	0.23
225.513	0.23
225.888	0.22
226.264	0.37
226.639	0.28
227.014	0.27
227.39	0.27
227.765	0.28
228.14	0.31
228.516	0.3
228.891	0.29
229.266	0.37
229.641	0.19
230.017	0.32
230.392	0.3
230.767	0.2
231.142	0.21
231.517	0.21
231.892	0.33
232.267	0.25
232.642	0.13
233.017	0.23
233.392	0.17
233.767	0.26
234.142	0.21
234.517	0.24
234.892	0.25
235.267	0.39
235.641	0.13
236.016	0.29
236.391	0.38
236.766	0.36
237.14	0.25
237.515	0.15
237.89	0.24
238.264	0.26
238.639	0.32
239.014	0.25
239.388	0.12
239.763	0.24
240.137	0.22
240.512	0.28
240.886	0.31
241.261	0.27
241.635	0.19
242.009	0.22
242.384	0.2
242.758	0.24
243.132	0.17
243.507	0.26
243.881	0.19
244.255	0.23
244.629	0.21
245.004	0.25
245.378	0.27
245.752	0.29
246.126	0.35
246.5	0.25
246.874	0.15
247.248	0.25
247.622	0.29
247.996	0.33
248.37	0.21
248.744	0.32
249.118	0.3
249.492	0.49
249.866	0.26
250.24	0.24
250.613	0.21
250.987	0.39
251.361	0.3
251.735	0.31
252.108	0.31
252.482	0.16
252.856	0.26
253.229	0.24
253.603	0.18
253.977	0.38
254.35	0.34
254.724	0.21
255.097	0.21
255.471	0.28
255.844	0.24
256.218	0.27
256.591	0.39
256.964	0.21
257.338	0.16
257.711	0.19
258.084	0.17
258.458	0.16
258.831	0.37
259.204	0.29
259.577	0.25
259.95	0.22
260.323	0.24
260.697	0.15
261.07	0.19
261.443	0.27
261.816	0.2
262.189	0.22
262.562	0.25
262.935	0.28
263.308	0.15
263.68	0.17
264.053	0.22
264.426	0.3
264.799	0.29
265.172	0.28
265.545	0.3
265.917	0.26
266.29	0.24
266.663	0.24
267.035	0.22
267.408	0.2
267.781	0.21
268.153	0.26
268.526	0.22
268.898	0.3
269.271	0.22
269.643	0.35
270.016	0.19
270.388	0.21
270.76	0.24
271.133	0.24
271.505	0.25
271.877	0.27
272.25	0.33
272.622	0.27
272.994	0.22
273.366	0.18
273.739	0.23
274.111	0.27
274.483	0.29
274.855	0.27
275.227	0.19
275.599	0.12
275.971	0.26
276.343	0.22
276.715	0.31
277.087	0.31
277.459	0.27
277.831	0.29
278.203	0.25
278.574	0.27
278.946	0.18
279.318	0.25
279.69	0.21
280.061	0.24
280.433	0.25
280.805	0.22
281.176	0.25
281.548	0.27
281.92	0.24
282.291	0.24
282.663	0.26
283.034	0.21
283.406	0.17
283.777	0.23
284.148	0.27
284.52	0.26
284.891	0.29
285.262	0.26
285.634	0.24
286.005	0.28
286.376	0.32
286.747	0.23
287.119	0.25
287.49	0.28
287.861	0.24
288.232	0.31
288.603	0.3
288.974	0.29
289.345	0.25
289.716	0.23
290.087	0.24
290.458	0.33
290.829	0.21
291.2	0.27
291.571	0.24
291.941	0.26
292.312	0.25
292.683	0.26
293.054	0.28
293.424	0.31
293.795	0.24
294.166	0.22
294.536	0.25
294.907	0.25
295.277	0.25
295.648	0.25
296.018	0.18
296.389	0.3
296.759	0.24
297.13	0.25
297.5	0.24
297.871	0.28
298.241	0.23
298.611	0.33
298.981	0.34
299.352	0.25
299.722	0.31
300.092	0.24
300.462	0.28
300.832	0.28
301.202	0.32
301.573	0.25
301.943	0.22
302.313	0.32
302.683	0.29
303.053	0.29
303.422	0.28
303.792	0.24
304.162	0.24
304.532	0.22
304.902	0.18
305.272	0.24
305.641	0.26
306.011	0.25
306.381	0.23
306.75	0.26
307.12	0.21
307.49	0.22
307.859	0.21
308.229	0.2
308.598	0.23
308.968	0.22
309.337	0.17
309.707	0.22
310.076	0.2
310.445	0.2
310.815	0.18
311.184	0.19
311.553	0.16
311.923	0.2
312.292	0.18
312.661	0.2
313.03	0.21
313.399	0.18
313.768	0.19
314.137	0.19
314.506	0.18
314.875	0.18
315.244	0.21
315.613	0.21
315.982	0.21
316.351	0.2
316.72	0.22
317.089	0.21
317.458	0.22
317.826	0.21
318.195	0.21
318.564	0.21
318.933	0.24
319.301	0.24
319.67	0.24
320.038	0.23
320.407	0.24
320.775	0.24
321.144	0.24
321.512	0.26
321.881	0.25
322.249	0.26
322.618	0.26
322.986	0.26
323.354	0.26
323.723	0.27
324.091	0.27
324.459	0.27
324.827	0.27
325.195	0.29
325.564	0.29
325.932	0.29
326.3	0.29
326.668	0.29
327.036	0.3
327.404	0.31
327.772	0.3
328.14	0.31
328.508	0.32
328.875	0.32
329.243	0.33
329.611	0.33
329.979	0.34
330.346	0.34
330.714	0.35
331.082	0.36
331.449	0.36
331.817	0.37
332.185	0.37
332.552	0.38
332.92	0.39
333.287	0.39
333.655	0.39
334.022	0.41
334.389	0.42
334.757	0.43
335.124	0.42
335.491	0.44
335.859	0.45
336.226	0.45
336.593	0.47
336.96	0.47
337.327	0.49
337.695	0.49
338.062	0.49
338.429	0.5
338.796	0.52
339.163	0.53
339.53	0.53
339.897	0.55
340.263	0.55
340.63	0.56
340.997	0.58
341.364	0.58
341.731	0.59
342.097	0.6
342.464	0.61
342.831	0.62
343.197	0.62
343.564	0.64
343.931	0.64
344.297	0.65
344.664	0.66
345.03	0.68
345.396	0.69
345.763	0.7
346.129	0.7
346.496	0.72
346.862	0.72
347.228	0.74
347.594	0.75
347.961	0.76
348.327	0.77
348.693	0.79
349.059	0.79
349.425	0.79
349.791	0.81
350.157	0.82
350.523	0.82
350.889	0.83
351.255	0.84
351.621	0.86
351.987	0.86
352.353	0.87
352.719	0.88
353.084	0.9
353.45	0.89
353.816	0.91
354.181	0.93
354.547	0.93
354.913	0.95
355.278	0.96
355.644	0.96
356.009	0.99
356.375	0.99
356.74	1.01
357.106	1
357.471	1.02
357.836	1.04
358.202	1.05
358.567	1.07
358.932	1.09
359.297	1.1
359.663	1.11
360.028	1.13
360.393	1.14
360.758	1.15
361.123	1.17
361.488	1.17
361.853	1.19
362.218	1.22
362.583	1.22
362.948	1.22
363.312	1.24
363.677	1.25
364.042	1.27
364.407	1.28
364.772	1.31
365.136	1.31
365.501	1.31
365.865	1.34
366.23	1.34
366.595	1.34
366.959	1.36
367.324	1.38
367.688	1.38
368.052	1.41
368.417	1.4
368.781	1.39
369.145	1.42
369.51	1.44
369.874	1.43
370.238	1.44
370.602	1.45
370.967	1.44
371.331	1.45
371.695	1.46
372.059	1.46
372.423	1.46
372.787	1.46
373.151	1.45
373.515	1.45
373.878	1.44
374.242	1.44
374.606	1.43
374.97	1.41
375.334	1.4
375.697	1.4
376.061	1.37
376.425	1.38
376.788	1.37
377.152	1.36
377.515	1.35
377.879	1.33
378.242	1.32
378.606	1.3
378.969	1.27
379.333	1.28
379.696	1.26
380.059	1.25
380.422	1.22
380.786	1.22
381.149	1.21
381.512	1.18
381.875	1.17
382.238	1.15
382.601	1.14
382.964	1.13
383.327	1.1
383.69	1.11
384.053	1.09
384.416	1.08
384.779	1.06
385.142	1.07
385.504	1.04
385.867	1.04
386.23	1.03
386.593	1.02
386.955	1
387.318	1.01
387.68	1.01
388.043	1.01
388.405	1
388.768	0.99
389.13	0.98
389.493	0.98
389.855	0.97
390.217	0.97
390.58	0.97
390.942	0.94
391.304	0.94
391.666	0.92
392.028	0.91
392.391	0.89
392.753	0.88
393.115	0.87
393.477	0.86
393.839	0.85
394.201	0.84
394.563	0.83
394.924	0.83
395.286	0.83
395.648	0.83
396.01	0.83
396.371	0.84
396.733	0.85
397.095	0.86
397.456	0.88
397.818	0.89
398.18	0.91
398.541	0.93
398.903	0.95
399.264	0.98
399.625	0.99
399.987	1.01
400.348	1.03
400.709	1.04
401.071	1.04
401.432	1.04
401.793	1.04
402.154	1.04
402.515	1.02
402.876	1.01
403.238	1
403.599	0.97
403.96	0.94
404.32	0.9
404.681	0.88
405.042	0.84
405.403	0.8
405.764	0.77
406.125	0.74
406.485	0.7
406.846	0.66
407.207	0.63
407.567	0.59
407.928	0.56
408.288	0.54
408.649	0.51
409.009	0.48
409.37	0.46
409.73	0.43
410.091	0.4
410.451	0.39
410.811	0.37
411.171	0.35
411.532	0.33
411.892	0.32
412.252	0.3
412.612	0.29
412.972	0.28
413.332	0.27
413.692	0.26
414.052	0.24
414.412	0.24
414.772	0.23
415.132	0.22
415.492	0.21
415.851	0.21
416.211	0.2
416.571	0.19
416.931	0.18
417.29	0.19
417.65	0.18
418.009	0.19
418.369	0.17
418.728	0.16
419.088	0.16
419.447	0.15
419.807	0.16
420.166	0.15
420.525	0.15
420.884	0.14
421.244	0.14
421.603	0.14
421.962	0.14
422.321	0.13
422.68	0.13
423.039	0.13
423.398	0.13
423.757	0.13
424.116	0.13
424.475	0.13
424.834	0.13
425.193	0.12
425.551	0.12
425.91	0.12
426.269	0.12
426.628	0.12
426.986	0.12
427.345	0.11
427.703	0.11
428.062	0.12
428.42	0.11
428.779	0.12
429.137	0.11
429.496	0.1
429.854	0.11
430.212	0.11
430.57	0.11
430.929	0.11
431.287	0.1
431.645	0.1
432.003	0.1
432.361	0.1
432.719	0.12
433.077	0.1
433.435	0.11
433.793	0.11
434.151	0.11
434.509	0.11
434.866	0.11
435.224	0.11
435.582	0.1
435.94	0.11
436.297	0.1
436.655	0.1
437.012	0.11
437.37	0.11
437.727	0.11
438.085	0.11
438.442	0.11
438.8	0.1
439.157	0.1
439.514	0.11
439.872	0.11
440.229	0.11
440.586	0.11
440.943	0.11
441.3	0.11
441.657	0.1
442.014	0.11
442.371	0.11
442.728	0.1
443.085	0.12
443.442	0.11
443.799	0.11
444.156	0.11
444.513	0.11
444.869	0.11
445.226	0.12
445.583	0.12
445.939	0.12
446.296	0.12
446.652	0.12
447.009	0.11
447.365	0.11
447.722	0.12
448.078	0.12
448.434	0.12
448.791	0.13
449.147	0.11
449.503	0.12
449.859	0.12
450.215	0.12
450.571	0.12
450.928	0.12
451.284	0.12
451.64	0.13
451.995	0.13
452.351	0.13
452.707	0.14
453.063	0.12
453.419	0.12
453.775	0.13
454.13	0.14
454.486	0.14
454.842	0.13
455.197	0.13
455.553	0.14
455.908	0.14
456.264	0.13
456.619	0.13
456.975	0.14
457.33	0.13
457.685	0.14
458.04	0.13
458.396	0.14
458.751	0.14
459.106	0.14
459.461	0.15
459.816	0.14
460.171	0.14
460.526	0.15
460.881	0.14
461.236	0.15
461.591	0.16
461.946	0.15
462.301	0.15
462.655	0.16
463.01	0.16
463.365	0.16
463.719	0.15
464.074	0.15
464.428	0.15
464.783	0.15
465.137	0.16
465.492	0.17
465.846	0.16
466.201	0.16
466.555	0.17
466.909	0.17
467.263	0.16
467.618	0.17
467.972	0.17
468.326	0.18
468.68	0.17
469.034	0.17
469.388	0.18
469.742	0.18
470.096	0.18
470.45	0.19
470.804	0.19
471.157	0.19
471.511	0.18
471.865	0.19
472.218	0.2
472.572	0.2
472.926	0.21
473.279	0.21
473.633	0.21
473.986	0.21
474.34	0.22
474.693	0.21
475.046	0.22
475.4	0.22
475.753	0.23
476.106	0.23
476.459	0.23
476.812	0.24
477.165	0.24
477.519	0.24
477.872	0.24
478.224	0.25
478.577	0.25
478.93	0.25
479.283	0.25
479.636	0.26
479.989	0.27
480.341	0.26
480.694	0.27
481.047	0.27
481.399	0.28
481.752	0.28
482.104	0.27
482.457	0.28
482.809	0.29
483.162	0.29
483.514	0.29
483.866	0.29
484.219	0.3
484.571	0.3
484.923	0.3
485.275	0.31
485.627	0.31
485.979	0.31
486.331	0.31
486.683	0.32
487.035	0.32
487.387	0.32
487.739	0.33
488.091	0.33
488.443	0.33
488.794	0.33
489.146	0.33
489.498	0.34
489.849	0.34
490.201	0.34
490.552	0.35
490.904	0.34
491.255	0.36
491.607	0.36
491.958	0.36
492.309	0.37
492.661	0.36
493.012	0.36
493.363	0.37
493.714	0.37
494.065	0.38
494.416	0.38
494.767	0.39
495.118	0.38
495.469	0.39
495.82	0.39
496.171	0.39
496.522	0.39
496.872	0.4
497.223	0.4
497.574	0.4
497.924	0.41
498.275	0.41
498.626	0.41
498.976	0.41
499.327	0.42
499.677	0.42
500.027	0.42
500.378	0.42
500.728	0.43
501.078	0.43
501.428	0.44
501.779	0.44
502.129	0.45
502.479	0.44
502.829	0.44
503.179	0.45
503.529	0.46
503.879	0.46
504.229	0.46
504.578	0.46
504.928	0.46
505.278	0.47
505.628	0.47
505.977	0.47
506.327	0.47
506.676	0.48
507.026	0.48
507.375	0.49
507.725	0.49
508.074	0.49
508.424	0.5
508.773	0.49
509.122	0.5
509.471	0.5
509.82	0.5
510.17	0.5
510.519	0.51
510.868	0.52
511.217	0.51
511.566	0.52
511.915	0.52
512.263	0.52
512.612	0.52
512.961	0.52
513.31	0.53
513.659	0.53
514.007	0.53
514.356	0.53
514.704	0.54
515.053	0.55
515.401	0.55
515.75	0.55
516.098	0.54
516.447	0.55
516.795	0.55
517.143	0.56
517.491	0.56
517.839	0.56
518.188	0.57
518.536	0.57
518.884	0.57
519.232	0.57
519.58	0.57
519.928	0.57
520.275	0.57
520.623	0.57
520.971	0.58
521.319	0.58
521.666	0.58
522.014	0.58
522.362	0.58
522.709	0.59
523.057	0.59
523.404	0.59
523.752	0.59
524.099	0.6
524.446	0.59
524.794	0.6
525.141	0.6
525.488	0.6
525.835	0.6
526.182	0.61
526.529	0.61
526.876	0.61
527.223	0.62
527.57	0.61
527.917	0.61
528.264	0.61
528.611	0.62
528.958	0.62
529.304	0.62
529.651	0.62
529.998	0.62
530.344	0.62
530.691	0.63
531.037	0.63
531.384	0.63
531.73	0.63
532.076	0.63
532.423	0.64
532.769	0.64
533.115	0.63
533.461	0.64
533.807	0.64
534.154	0.64
534.5	0.64
534.846	0.64
535.192	0.64
535.537	0.64
535.883	0.65
536.229	0.65
536.575	0.64
536.921	0.65
537.266	0.66
537.612	0.65
537.957	0.66
538.303	0.65
538.649	0.65
538.994	0.66
539.339	0.65
539.685	0.66
540.03	0.66
540.375	0.66
540.721	0.66
541.066	0.65
541.411	0.66
541.756	0.67
542.101	0.66
542.446	0.66
542.791	0.66
543.136	0.67
543.481	0.67
543.825	0.67
544.17	0.67
544.515	0.67
544.86	0.67
545.204	0.67
545.549	0.67
545.893	0.67
546.238	0.67
546.582	0.67
546.927	0.67
547.271	0.67
547.615	0.67
547.96	0.67
548.304	0.68
548.648	0.67
548.992	0.67
549.336	0.67
549.68	0.67
550.024	0.68
550.368	0.68
550.712	0.67
551.056	0.67
551.4	0.67
551.743	0.68
552.087	0.67
552.431	0.67
552.774	0.67
553.118	0.67
553.462	0.68
553.805	0.67
554.148	0.67
554.492	0.67
554.835	0.67
555.178	0.67
555.522	0.67
555.865	0.67
556.208	0.67
556.551	0.67
556.894	0.67
557.237	0.67
557.58	0.67
557.923	0.67
558.266	0.67
558.609	0.66
558.952	0.66
559.294	0.67
559.637	0.67
559.98	0.67
560.322	0.67
560.665	0.66
561.007	0.67
561.35	0.66
561.692	0.66
562.034	0.66
562.377	0.66
562.719	0.65
563.061	0.66
563.403	0.66
563.745	0.67
564.088	0.66
564.43	0.66
564.772	0.65
565.113	0.65
565.455	0.66
565.797	0.65
566.139	0.65
566.481	0.65
566.822	0.65
567.164	0.65
567.506	0.64
567.847	0.65
568.189	0.65
568.53	0.65
568.872	0.64
569.213	0.64
569.554	0.64
569.895	0.64
570.237	0.64
570.578	0.63
570.919	0.63
571.26	0.63
571.601	0.63
571.942	0.63
572.283	0.63
572.624	0.63
572.965	0.62
573.306	0.62
573.646	0.62
573.987	0.62
574.328	0.61
574.668	0.62
575.009	0.61
575.349	0.61
575.69	0.61
576.03	0.61
576.37	0.61
576.711	0.6
577.051	0.6
577.391	0.6
577.731	0.61
578.072	0.6
578.412	0.6
578.752	0.6
579.092	0.6
579.431	0.59
579.771	0.57
580.111	0.56
580.451	0.57
580.791	0.58
581.13	0.59
581.47	0.59
581.81	0.58
582.149	0.58
582.489	0.59
582.828	0.57
583.167	0.55
583.507	0.51
583.846	0.5
584.185	0.53
584.525	0.55
584.864	0.57
585.203	0.58
585.542	0.58
585.881	0.58
586.22	0.58
586.559	0.57
586.898	0.56
587.236	0.55
587.575	0.55
587.914	0.56
588.252	0.57
588.591	0.57
588.93	0.57
589.268	0.57
589.607	0.56
589.945	0.57
590.283	0.57
590.622	0.57
590.96	0.57
591.298	0.57
591.636	0.57
591.974	0.57
592.313	0.57
592.651	0.57
592.989	0.57
593.326	0.57
593.664	0.57
594.002	0.57
594.34	0.56
594.678	0.56
595.015	0.56
595.353	0.55
595.691	0.56
596.028	0.57
596.366	0.57
596.703	0.57
597.04	0.57
597.378	0.57
597.715	0.57
598.052	0.57
598.389	0.57
598.726	0.56
599.064	0.57
599.401	0.56
599.738	0.56
600.074	0.56
600.411	0.56
600.748	0.56
601.085	0.55
601.422	0.55
601.758	0.54
602.095	0.55
602.432	0.54
602.768	0.54
603.105	0.55
603.441	0.55
603.777	0.56
604.114	0.55
604.45	0.55
604.786	0.55
605.122	0.55
605.459	0.54
605.795	0.54
606.131	0.54
606.467	0.54
606.803	0.54
607.139	0.54
607.474	0.53
607.81	0.54
608.146	0.53
608.482	0.54
608.817	0.53
609.153	0.53
609.488	0.52
609.824	0.52
610.159	0.53
610.495	0.52
610.83	0.52
611.165	0.52
611.5	0.52
611.836	0.52
612.171	0.52
612.506	0.52
612.841	0.52
613.176	0.51
613.511	0.51
613.845	0.51
614.18	0.51
614.515	0.51
614.85	0.51
615.184	0.51
615.519	0.5
615.854	0.5
616.188	0.5
616.523	0.5
616.857	0.5
617.191	0.5
617.526	0.49
617.86	0.49
618.194	0.49
618.528	0.49
618.862	0.49
619.196	0.49
619.53	0.49
619.864	0.48
620.198	0.48
620.532	0.48
620.866	0.48
621.2	0.48
621.533	0.47
621.867	0.47
622.201	0.47
622.534	0.47
622.868	0.47
623.201	0.47
623.534	0.46
623.868	0.46
624.201	0.46
624.534	0.46
624.868	0.46
625.201	0.46
625.534	0.46
625.867	0.45
626.2	0.45
626.533	0.45
626.865	0.45
627.198	0.44
627.531	0.44
627.864	0.44
628.196	0.44
628.529	0.43
628.862	0.43
629.194	0.43
629.527	0.42
629.859	0.42
630.191	0.42
630.524	0.42
630.856	0.42
631.188	0.41
631.52	0.41
631.852	0.41
632.184	0.4
632.516	0.41
632.848	0.4
633.18	0.4
633.512	0.4
633.844	0.4
634.175	0.39
634.507	0.39
634.839	0.39
635.17	0.39
635.502	0.38
635.833	0.38
636.165	0.38
636.496	0.38
636.827	0.37
637.159	0.37
637.49	0.37
637.821	0.37
638.152	0.36
638.483	0.36
638.814	0.36
639.145	0.36
639.476	0.35
639.807	0.35
640.137	0.35
640.468	0.35
640.799	0.34
641.129	0.34
641.46	0.34
641.791	0.34
642.121	0.33
642.451	0.33
642.782	0.33
643.112	0.33
643.442	0.33
643.773	0.33
644.103	0.32
644.433	0.32
644.763	0.32
645.093	0.32
645.423	0.32
645.753	0.32
646.082	0.31
646.412	0.31
646.742	0.31
647.072	0.31
647.401	0.31
647.731	0.31
648.06	0.3
648.39	0.3
648.719	0.3
649.048	0.3
649.378	0.3
649.707	0.3
650.036	0.3
650.365	0.29
650.694	0.29
651.023	0.29
651.352	0.29
651.681	0.29
652.01	0.29
652.339	0.29
652.668	0.28
652.996	0.28
653.325	0.28
653.654	0.28
653.982	0.28
654.311	0.28
654.639	0.28
654.967	0.28
655.296	0.28
655.624	0.28
655.952	0.28
656.28	0.28
656.609	0.28
656.937	0.28
657.265	0.27
657.593	0.15
657.92	0.06
658.248	0.02
658.576	0.04
658.904	0.13
659.231	0.21
659.559	0.26
659.887	0.26
660.214	0.26
660.542	0.26
660.869	0.26
661.196	0.26
661.524	0.26
661.851	0.25
662.178	0.25
662.505	0.25
662.832	0.25
663.159	0.25
663.486	0.25
663.813	0.25
664.14	0.25
664.467	0.25
664.794	0.25
665.12	0.25
665.447	0.25
665.774	0.25
666.1	0.25
666.427	0.25
666.753	0.24
667.079	0.24
667.406	0.24
667.732	0.24
668.058	0.24
668.384	0.23
668.71	0.24
669.036	0.23
669.362	0.23
669.688	0.23
670.014	0.23
670.34	0.23
670.666	0.23
670.991	0.22
671.317	0.22
671.643	0.22
671.968	0.22
672.294	0.22
672.619	0.22
672.945	0.21
673.27	0.21
673.595	0.21
673.92	0.21
674.246	0.2
674.571	0.21
674.896	0.21
675.221	0.2
675.546	0.2
675.87	0.2
676.195	0.2
676.52	0.2
676.845	0.2
677.169	0.19
677.494	0.19
677.819	0.19
678.143	0.19
678.468	0.19
678.792	0.19
679.116	0.18
679.44	0.18
679.765	0.18
680.089	0.18
680.413	0.18
680.737	0.18
681.061	0.17
681.385	0.17
681.709	0.17
682.033	0.16
682.356	0.16
682.68	0.16
683.004	0.17
683.327	0.16
683.651	0.16
683.974	0.16
684.298	0.15
684.621	0.15
684.944	0.15
685.268	0.15
685.591	0.15
685.914	0.15
686.237	0.14
686.56	0.14
686.883	0.14
687.206	0.14
687.529	0.13
687.852	0.13
688.175	0.13
688.497	0.13
688.82	0.13
689.142	0.13
689.465	0.13
689.787	0.13
690.11	0.13
690.432	0.12
690.755	0.12
691.077	0.12
691.399	0.12
691.721	0.12
692.043	0.12
692.365	0.12
692.687	0.12
693.009	0.11
693.331	0.11
693.653	0.11
693.974	0.11
694.296	0.11
694.618	0.11
694.939	0.11
695.261	0.1
695.582	0.1
695.904	0.1
696.225	0.1
696.546	0.1
696.868	0.1
697.189	0.1
697.51	0.09
697.831	0.1
698.152	0.1
698.473	0.09
698.794	0.09
699.114	0.09
699.435	0.07
699.756	0.08
700.077	0.09
700.397	0.09
700.718	0.09
701.038	0.09
701.359	0.09
701.679	0.09
701.999	0.09
702.32	0.08
702.64	0.08
702.96	0.08
703.28	0.08
703.6	0.08
703.92	0.08
704.24	0.08
704.56	0.08
704.879	0.08
705.199	0.08
705.519	0.08
705.838	0.08
706.158	0.08
706.478	0.08
706.797	0.08
707.116	0.09
707.436	0.08
707.755	0.08
708.074	0.08
708.393	0.08
708.712	0.07
709.031	0.06
709.35	0.06
709.669	0.06
709.988	0.06
710.307	0.06
710.626	0.07
710.944	0.07
711.263	0.07
711.582	0.07
711.9	0.08
712.219	0.07
712.537	0.07
712.855	0.07
713.174	0.07
713.492	0.07
713.81	0.08
714.128	0.07
714.446	0.07
714.764	0.07
715.082	0.07
715.4	0.07
715.718	0.07
716.035	0.07
716.353	0.07
716.671	0.07
716.988	0.07
717.306	0.07
717.623	0.07
717.941	0.08
718.258	0.08
718.575	0.08
718.893	0.08
719.21	0.08
719.527	0.07
719.844	0.07
720.161	0.07
720.478	0.08
720.795	0.08
721.112	0.08
721.428	0.08
721.745	0.08
722.062	0.08
722.378	0.08
722.695	0.08
723.011	0.08
723.328	0.08
723.644	0.08
723.96	0.08
724.276	0.08
724.593	0.08
724.909	0.08
725.225	0.08
725.541	0.08
725.857	0.08
726.173	0.08
726.488	0.09
726.804	0.08
727.12	0.08
727.435	0.08
727.751	0.08
728.067	0.08
728.382	0.08
728.697	0.08
729.013	0.08
729.328	0.08
729.643	0.08
729.958	0.08
730.273	0.08
730.588	0.08
730.903	0.08
731.218	0.08
731.533	0.08
731.848	0.08
732.163	0.08
732.477	0.08
732.792	0.08
733.107	0.07
733.421	0.08
733.736	0.08
734.05	0.08
734.364	0.07
734.678	0.08
734.993	0.07
735.307	0.08
735.621	0.07
735.935	0.08
736.249	0.07
736.563	0.08
736.877	0.07
737.19	0.07
737.504	0.07
737.818	0.07
738.131	0.07
738.445	0.07
738.758	0.07
739.072	0.07
739.385	0.07
739.698	0.07
740.012	0.07
740.325	0.07
740.638	0.07
740.951	0.07
741.264	0.07
741.577	0.07
741.89	0.07
742.203	0.07
742.515	0.07
742.828	0.07
743.141	0.07
743.453	0.07
743.766	0.07
744.078	0.07
744.391	0.07
744.703	0.07
745.015	0.07
745.327	0.07
745.639	0.06
745.952	0.06
746.264	0.06
746.575	0.06
746.887	0.06
747.199	0.06
747.511	0.06
747.823	0.06
748.134	0.06
748.446	0.06
748.757	0.06
749.069	0.06
749.38	0.06
749.692	0.06
750.003	0.06
750.314	0.06
750.625	0.06
750.936	0.06
751.248	0.06
751.559	0.06
751.869	0.06
752.18	0.06
752.491	0.05
752.802	0.06
753.112	0.05
753.423	0.05
753.734	0.05
754.044	0.05
754.355	0.06
754.665	0.05
754.975	0.05
755.285	0.05
755.596	0.05
755.906	0.05
756.216	0.05
756.526	0.05
756.836	0.05
757.146	0.05
757.455	0.04
757.765	0.04
758.075	0.04
758.385	0.04
758.694	0.04
759.004	0.04
759.313	0.04
759.622	0.04
759.932	0.04
760.241	0.04
760.55	0.04
760.859	0.04
761.168	0.04
761.477	0.04
761.786	0.04
762.095	0.04
762.404	0.04
762.713	0.04
763.021	0.04
763.33	0.04
763.639	0.04
763.947	0.04
764.256	0.04
764.564	0.04
764.872	0.04
765.181	0.04
765.489	0.04
765.797	0.04
766.105	0.04
766.413	0.04
766.721	0.04
767.029	0.04
767.337	0.04
767.644	0.05
767.952	0.04
768.26	0.04
768.567	0.04
768.875	0.04
769.182	0.04
769.49	0.04
769.797	0.04
770.104	0.04
770.411	0.04
770.718	0.04
771.026	0.04
771.333	0.04
771.639	0.05
771.946	0.04
772.253	0.04
772.56	0.04
772.867	0.04
773.173	0.04
773.48	0.04
773.786	0.04
774.093	0.04
774.399	0.04
774.705	0.04
775.012	0.04
775.318	0.04
775.624	0.04
775.93	0.04
776.236	0.04
776.542	0.04
776.848	0.04
777.154	0.04
777.459	0.04
777.765	0.04
778.071	0.04
778.376	0.04
778.682	0.04
778.987	0.04
779.292	0.04
779.598	0.04
779.903	0.04
780.208	0.04
780.513	0.04
780.818	0.04
781.123	0.04
781.428	0.04
781.733	0.04
782.038	0.04
782.343	0.04
782.647	0.04
782.952	0.04
783.256	0.04
783.561	0.04
783.865	0.04
784.17	0.05
784.474	0.05
784.778	0.05
785.082	0.05
785.386	0.05
785.69	0.05
785.994	0.05
786.298	0.05
786.602	0.05
786.906	0.04
787.209	0.05
787.513	0.05
787.817	0.05
788.12	0.05
788.424	0.05
788.727	0.05
789.03	0.05
789.333	0.05
789.637	0.05
789.94	0.05
790.243	0.05
790.546	0.05
790.849	0.05
791.152	0.05
791.454	0.05
791.757	0.05
792.06	0.05
792.362	0.05
792.665	0.05
792.967	0.05
793.27	0.05
793.572	0.05
793.874	0.05
794.177	0.05
794.479	0.05
794.781	0.05
795.083	0.05
795.385	0.05
795.687	0.05
795.989	0.04
796.29	0.05
796.592	0.05
796.894	0.05
797.195	0.06
797.497	0.06
797.798	0.06
798.1	0.06
798.401	0.05
798.702	0.05
799.003	0.05
799.304	0.05
799.605	0.05
799.906	0.05
800.207	0.05
800.508	0.05
800.809	0.05
801.11	0.05
801.41	0.05
801.711	0.06
802.011	0.05
802.312	0.06
802.612	0.06
802.913	0.06
803.213	0.06
803.513	0.05
803.813	0.05
804.113	0.05
804.413	0.04
804.713	0.05
805.013	0.05
805.313	0.05
805.613	0.06
805.912	0.06
806.212	0.05
806.511	0.06
806.811	0.05
807.11	0.05
807.41	0.06
807.709	0.06
808.008	0.06
808.307	0.06
808.606	0.06
808.905	0.06
809.204	0.07
809.503	0.07
809.802	0.06
810.101	0.06
810.399	0.06
810.698	0.07
810.997	0.06
811.295	0.06
811.593	0.06
811.892	0.06
812.19	0.06
812.488	0.06
812.786	0.06
813.084	0.06
813.383	0.06
813.68	0.06
813.978	0.06
814.276	0.06
814.574	0.07
814.872	0.07
815.169	0.07
815.467	0.07
815.764	0.06
816.062	0.07
816.359	0.07
816.656	0.07
816.954	0.07
817.251	0.07
817.548	0.07
817.845	0.07
818.142	0.07
818.439	0.06
818.735	0.07
819.032	0.07
819.329	0.07
819.626	0.07
819.922	0.07
820.219	0.07
820.515	0.07
820.811	0.08
821.108	0.08
821.404	0.08
821.7	0.07
821.996	0.08
822.292	0.08
822.588	0.07
822.884	0.08
823.18	0.08
823.475	0.08
823.771	0.08
824.067	0.08
824.362	0.08
824.658	0.07
824.953	0.08
825.249	0.07
825.544	0.08
825.839	0.08
826.134	0.08
826.429	0.08
826.724	0.07
827.019	0.08
827.314	0.08
827.609	0.08
827.904	0.08
828.198	0.08
828.493	0.07
828.787	0.08
829.082	0.08
829.376	0.07
829.671	0.08
829.965	0.08
830.259	0.08
830.553	0.09
830.847	0.09
831.141	0.08
831.435	0.08
831.729	0.09
832.023	0.08
832.317	0.09
832.61	0.09
832.904	0.09
833.197	0.09
833.491	0.09
833.784	0.09
834.077	0.08
834.371	0.09
834.664	0.08
834.957	0.09
835.25	0.09
835.543	0.08
835.836	0.08
836.129	0.08
836.421	0.08
836.714	0.09
837.007	0.08
837.299	0.09
837.592	0.08
837.884	0.09
838.177	0.09
838.469	0.09
838.761	0.09
839.053	0.08
839.345	0.09
839.637	0.09
839.929	0.09
840.221	0.09
840.513	0.09
840.805	0.09
841.096	0.08
841.388	0.09
841.68	0.09
841.971	0.09
842.262	0.09
842.554	0.09
842.845	0.09
843.136	0.09
843.427	0.1
843.718	0.1
844.009	0.09
844.3	0.09
844.591	0.09
844.882	0.09
845.173	0.09
845.463	0.09
845.754	0.09
846.044	0.11
846.335	0.1
846.625	0.11
846.915	0.11
847.206	0.1
847.496	0.11
847.786	0.1
848.076	0.1
848.366	0.1
848.656	0.09
848.945	0.1
849.235	0.1
849.525	0.1
849.814	0.1
850.104	0.1
850.393	0.1
850.683	0.11
850.972	0.11
851.261	0.11
851.551	0.11
851.84	0.1
852.129	0.11
852.418	0.11
852.707	0.1
852.995	0.1
853.284	0.1
853.573	0.11
853.862	0.1
854.15	0.1
854.439	0.1
854.727	0.1
855.015	0.11
855.304	0.11
855.592	0.11
855.88	0.11
856.168	0.11
856.456	0.11
856.744	0.12
857.032	0.11
857.32	0.12
857.607	0.12
857.895	0.11
858.183	0.11
858.47	0.1
858.757	0.12
859.045	0.12
859.332	0.12
859.619	0.11
859.907	0.12
860.194	0.12
860.481	0.11
860.768	0.1
861.054	0.12
861.341	0.12
861.628	0.12
861.915	0.12
862.201	0.13
862.488	0.11
862.774	0.13
863.061	0.13
863.347	0.11
863.633	0.12
863.919	0.12
864.205	0.1
864.491	0.1
864.777	0.1
865.063	0.12
865.349	0.1
865.635	0.12
865.92	0.11
866.206	0.13
866.492	0.12
866.777	0.13
867.062	0.1
867.348	0.1
867.633	0.11
867.918	0.1
868.203	0.13
868.488	0.12
868.773	0.13
869.058	0.13
869.343	0.14
869.628	0.11
869.912	0.1
870.197	0.1
870.482	0.12
870.766	0.15
871.05	0.09
871.335	0.12
871.619	0.12
871.903	0.13
872.187	0.12
872.471	0.09
872.755	0.09
873.039	0.11
873.323	0.15
873.607	0.1
873.89	0.16
874.174	0.11
874.458	0.15
874.741	0.18
875.024	0.1
875.308	0.12
875.591	0.11
875.874	0.13
876.157	0.13
876.44	0.13
876.723	0.15
877.006	0.11
877.289	0.1
877.572	0.11
877.854	0.11
878.137	0.03
878.42	0.05
878.702	0.11
878.984	0.16
879.267	0.1
879.549	0.12
879.831	0.18
880.113	0.18
880.395	0.16
880.677	0.13
880.959	0.09
