Data from Rubpy_BV_1500_EDTA_Buffered_Absorbance_14-15-04-596.txt Node
Date: Wed Jul 01 14:15:04 BST 2026
User: fpm-admin
Spectrometer: OFX00224
Trigger mode: 0
Integration Time (sec): 7.000000E-2
Scans to average: 3
Nonlinearity correction enabled: false
Boxcar width: 0
Storing dark spectrum: false
XAxis mode: Wavelengths
Number of Pixels in Spectrum: 2136
>>>>>Begin Spectral Data<<<<<
154.91	-0
155.289	0.06
155.669	-0
156.048	-0
156.428	-0
156.807	-0
157.186	0.06
157.566	-0
157.945	-0.26
158.325	-0
158.704	-0
159.083	-0.19
159.462	0.43
159.842	0.13
160.221	-0
160.6	-0.78
160.979	-0.36
161.359	0.24
161.738	-0.1
162.117	-0.18
162.496	-0.68
162.875	0.12
163.254	0.07
163.633	-0.05
164.012	-0.44
164.391	-0.23
164.77	0.2
165.149	0.07
165.528	-0.62
165.907	-0.05
166.286	-0.48
166.665	-0
167.044	0.05
167.423	-0
167.802	-0
168.181	0.02
168.559	-0.15
168.938	-0.33
169.317	-0.24
169.696	0.13
170.074	-0.57
170.453	-0.18
170.832	-0
171.21	-0.05
171.589	0.04
171.968	-0
172.346	0.79
172.725	-0
173.103	0.13
173.482	-0
173.861	-0
174.239	-1.04
174.617	-0.03
174.996	0.44
175.374	0.01
175.753	-0.53
176.131	-0.07
176.51	-0.44
176.888	0.8
177.266	-0
177.645	-0.1
178.023	-0
178.401	-0.19
178.779	-0.14
179.158	0.56
179.536	-0.29
179.914	0.17
180.292	-0.03
180.67	-0
181.048	-0.23
181.427	-0.59
181.805	-0
182.183	-0.34
182.561	0.58
182.939	-0
183.317	-0.29
183.695	-0.05
184.073	-0
184.451	-0
184.829	-0
185.206	-0
185.584	-0.06
185.962	-0.52
186.34	-0
186.718	-0
187.096	-0
187.473	-0.23
187.851	-0
188.229	0.19
188.607	0.23
188.984	0.23
189.362	0.23
189.74	0.16
190.117	0
190.495	0.06
190.872	0.14
191.25	0.27
191.627	0.04
192.005	-0.01
192.382	0.13
192.76	0.12
193.137	0.1
193.515	0.08
193.892	0.05
194.269	0.05
194.647	0.11
195.024	0.09
195.401	0.19
195.779	0.15
196.156	0.18
196.533	0.28
196.91	0.13
197.288	0.13
197.665	0.08
198.042	0.18
198.419	0.21
198.796	0.16
199.173	0.15
199.55	0.11
199.927	0.23
200.304	0.22
200.681	0.21
201.058	0.19
201.435	0.15
201.812	0.35
202.189	0.18
202.566	0.11
202.943	0.15
203.32	0.14
203.697	0.12
204.073	0.08
204.45	0.1
204.827	0.26
205.204	0.07
205.58	0.09
205.957	0.21
206.334	0.16
206.71	0.11
207.087	0.21
207.464	0.09
207.84	0.09
208.217	0.16
208.593	0.11
208.97	0.21
209.346	0.22
209.723	0.14
210.099	0.16
210.476	0.23
210.852	0.2
211.228	0.11
211.605	0.21
211.981	0.15
212.357	0.17
212.733	0.13
213.11	0.14
213.486	0.08
213.862	0.22
214.238	0.17
214.614	0.07
214.991	0.15
215.367	0.1
215.743	0.15
216.119	0.19
216.495	0.19
216.871	0.2
217.247	0.12
217.623	0.09
217.999	0.05
218.375	0.18
218.751	0.19
219.127	0.12
219.502	0.14
219.878	0.17
220.254	0.15
220.63	0.17
221.006	0.11
221.381	0.18
221.757	0.32
222.133	0.14
222.508	0.14
222.884	0.18
223.26	0.12
223.635	0.2
224.011	0.22
224.386	0.23
224.762	0.11
225.137	0.28
225.513	0.2
225.888	0.17
226.264	0.18
226.639	0.23
227.014	0.13
227.39	0.12
227.765	0.21
228.14	0.2
228.516	0.16
228.891	0.23
229.266	0.2
229.641	0.06
230.017	0.2
230.392	0.26
230.767	0.11
231.142	0.08
231.517	0.19
231.892	0.3
232.267	0.16
232.642	0.19
233.017	0.13
233.392	0.16
233.767	0.2
234.142	0.12
234.517	0.17
234.892	0.14
235.267	0.18
235.641	0.12
236.016	0.16
236.391	0.18
236.766	0.17
237.14	0.18
237.515	0.15
237.89	0.3
238.264	0.29
238.639	0.11
239.014	0.11
239.388	0.09
239.763	0.14
240.137	0.14
240.512	0.18
240.886	0.14
241.261	0.17
241.635	0.17
242.009	0.25
242.384	0.22
242.758	0.22
243.132	0.09
243.507	0.12
243.881	0.16
244.255	0.15
244.629	0.19
245.004	0.18
245.378	0.18
245.752	0.16
246.126	0.28
246.5	0.16
246.874	0.09
247.248	0.18
247.622	0.14
247.996	0.13
248.37	0.21
248.744	0.14
249.118	0.23
249.492	0.18
249.866	0.16
250.24	0.22
250.613	0.16
250.987	0.23
251.361	0.17
251.735	0.13
252.108	0.21
252.482	0.06
252.856	0.17
253.229	0.21
253.603	0.14
253.977	0.06
254.35	0.27
254.724	0.15
255.097	0.12
255.471	0.2
255.844	0.19
256.218	0.13
256.591	0.19
256.964	0.1
257.338	0.08
257.711	0.12
258.084	0.21
258.458	0.13
258.831	0.21
259.204	0.11
259.577	0.15
259.95	0.17
260.323	0.17
260.697	0.19
261.07	0.16
261.443	0.13
261.816	0.12
262.189	0.19
262.562	0.17
262.935	0.2
263.308	0.18
263.68	0.11
264.053	0.27
264.426	0.13
264.799	0.18
265.172	0.15
265.545	0.16
265.917	0.07
266.29	0.16
266.663	0.2
267.035	0.18
267.408	0.16
267.781	0.17
268.153	0.19
268.526	0.19
268.898	0.17
269.271	0.11
269.643	0.2
270.016	0.19
270.388	0.28
270.76	0.12
271.133	0.09
271.505	0.18
271.877	0.19
272.25	0.19
272.622	0.21
272.994	0.16
273.366	0.2
273.739	0.12
274.111	0.12
274.483	0.16
274.855	0.18
275.227	0.15
275.599	0.07
275.971	0.08
276.343	0.11
276.715	0.24
277.087	0.21
277.459	0.11
277.831	0.2
278.203	0.18
278.574	0.16
278.946	0.15
279.318	0.12
279.69	0.16
280.061	0.21
280.433	0.15
280.805	0.09
281.176	0.18
281.548	0.21
281.92	0.12
282.291	0.24
282.663	0.17
283.034	0.15
283.406	0.15
283.777	0.18
284.148	0.21
284.52	0.22
284.891	0.1
285.262	0.22
285.634	0.15
286.005	0.26
286.376	0.23
286.747	0.12
287.119	0.12
287.49	0.25
287.861	0.17
288.232	0.21
288.603	0.22
288.974	0.21
289.345	0.18
289.716	0.14
290.087	0.23
290.458	0.25
290.829	0.13
291.2	0.22
291.571	0.15
291.941	0.16
292.312	0.21
292.683	0.14
293.054	0.22
293.424	0.15
293.795	0.19
294.166	0.2
294.536	0.13
294.907	0.27
295.277	0.2
295.648	0.15
296.018	0.14
296.389	0.19
296.759	0.16
297.13	0.2
297.5	0.2
297.871	0.16
298.241	0.16
298.611	0.25
298.981	0.18
299.352	0.16
299.722	0.16
300.092	0.16
300.462	0.19
300.832	0.16
301.202	0.2
301.573	0.16
301.943	0.13
302.313	0.13
302.683	0.17
303.053	0.18
303.422	0.18
303.792	0.17
304.162	0.13
304.532	0.18
304.902	0.06
305.272	0.17
305.641	0.09
306.011	0.15
306.381	0.12
306.75	0.14
307.12	0.1
307.49	0.16
307.859	0.15
308.229	0.17
308.598	0.14
308.968	0.14
309.337	0.12
309.707	0.13
310.076	0.1
310.445	0.11
310.815	0.12
311.184	0.1
311.553	0.08
311.923	0.1
312.292	0.1
312.661	0.11
313.03	0.13
313.399	0.1
313.768	0.09
314.137	0.11
314.506	0.08
314.875	0.1
315.244	0.11
315.613	0.11
315.982	0.12
316.351	0.09
316.72	0.12
317.089	0.11
317.458	0.12
317.826	0.1
318.195	0.11
318.564	0.12
318.933	0.13
319.301	0.11
319.67	0.13
320.038	0.12
320.407	0.12
320.775	0.12
321.144	0.13
321.512	0.13
321.881	0.13
322.249	0.13
322.618	0.12
322.986	0.13
323.354	0.13
323.723	0.13
324.091	0.13
324.459	0.14
324.827	0.13
325.195	0.14
325.564	0.13
325.932	0.14
326.3	0.15
326.668	0.15
327.036	0.15
327.404	0.15
327.772	0.15
328.14	0.15
328.508	0.16
328.875	0.15
329.243	0.17
329.611	0.16
329.979	0.17
330.346	0.16
330.714	0.17
331.082	0.17
331.449	0.17
331.817	0.18
332.185	0.18
332.552	0.18
332.92	0.19
333.287	0.19
333.655	0.19
334.022	0.19
334.389	0.19
334.757	0.2
335.124	0.2
335.491	0.21
335.859	0.21
336.226	0.22
336.593	0.22
336.96	0.22
337.327	0.23
337.695	0.23
338.062	0.24
338.429	0.23
338.796	0.24
339.163	0.25
339.53	0.25
339.897	0.25
340.263	0.26
340.63	0.26
340.997	0.26
341.364	0.27
341.731	0.27
342.097	0.28
342.464	0.29
342.831	0.29
343.197	0.29
343.564	0.3
343.931	0.3
344.297	0.31
344.664	0.31
345.03	0.32
345.396	0.32
345.763	0.34
346.129	0.33
346.496	0.33
346.862	0.33
347.228	0.34
347.594	0.35
347.961	0.36
348.327	0.36
348.693	0.36
349.059	0.37
349.425	0.37
349.791	0.38
350.157	0.38
350.523	0.38
350.889	0.39
351.255	0.4
351.621	0.4
351.987	0.41
352.353	0.41
352.719	0.41
353.084	0.42
353.45	0.42
353.816	0.43
354.181	0.43
354.547	0.44
354.913	0.44
355.278	0.46
355.644	0.46
356.009	0.47
356.375	0.47
356.74	0.47
357.106	0.48
357.471	0.49
357.836	0.5
358.202	0.5
358.567	0.51
358.932	0.52
359.297	0.52
359.663	0.53
360.028	0.54
360.393	0.55
360.758	0.55
361.123	0.56
361.488	0.57
361.853	0.58
362.218	0.59
362.583	0.59
362.948	0.59
363.312	0.6
363.677	0.62
364.042	0.62
364.407	0.63
364.772	0.63
365.136	0.64
365.501	0.64
365.865	0.65
366.23	0.66
366.595	0.66
366.959	0.66
367.324	0.67
367.688	0.68
368.052	0.69
368.417	0.69
368.781	0.69
369.145	0.7
369.51	0.71
369.874	0.71
370.238	0.73
370.602	0.73
370.967	0.72
371.331	0.73
371.695	0.74
372.059	0.75
372.423	0.75
372.787	0.75
373.151	0.74
373.515	0.74
373.878	0.74
374.242	0.74
374.606	0.73
374.97	0.73
375.334	0.72
375.697	0.72
376.061	0.71
376.425	0.7
376.788	0.7
377.152	0.69
377.515	0.68
377.879	0.68
378.242	0.67
378.606	0.67
378.969	0.65
379.333	0.65
379.696	0.64
380.059	0.63
380.422	0.64
380.786	0.62
381.149	0.62
381.512	0.61
381.875	0.61
382.238	0.6
382.601	0.59
382.964	0.59
383.327	0.58
383.69	0.58
384.053	0.58
384.416	0.57
384.779	0.57
385.142	0.57
385.504	0.56
385.867	0.57
386.23	0.56
386.593	0.56
386.955	0.56
387.318	0.57
387.68	0.57
388.043	0.57
388.405	0.57
388.768	0.57
389.13	0.57
389.493	0.56
389.855	0.56
390.217	0.56
390.58	0.56
390.942	0.55
391.304	0.55
391.666	0.54
392.028	0.54
392.391	0.54
392.753	0.53
393.115	0.53
393.477	0.51
393.839	0.51
394.201	0.5
394.563	0.5
394.924	0.51
395.286	0.51
395.648	0.51
396.01	0.51
396.371	0.52
396.733	0.53
397.095	0.54
397.456	0.55
397.818	0.56
398.18	0.58
398.541	0.59
398.903	0.6
399.264	0.62
399.625	0.64
399.987	0.65
400.348	0.67
400.709	0.67
401.071	0.68
401.432	0.68
401.793	0.69
402.154	0.68
402.515	0.67
402.876	0.67
403.238	0.64
403.599	0.64
403.96	0.62
404.32	0.59
404.681	0.58
405.042	0.55
405.403	0.52
405.764	0.5
406.125	0.48
406.485	0.45
406.846	0.42
407.207	0.4
407.567	0.38
407.928	0.36
408.288	0.34
408.649	0.32
409.009	0.3
409.37	0.28
409.73	0.26
410.091	0.25
410.451	0.24
410.811	0.22
411.171	0.22
411.532	0.2
411.892	0.2
412.252	0.18
412.612	0.18
412.972	0.17
413.332	0.15
413.692	0.16
414.052	0.15
414.412	0.14
414.772	0.13
415.132	0.13
415.492	0.12
415.851	0.12
416.211	0.12
416.571	0.12
416.931	0.11
417.29	0.11
417.65	0.11
418.009	0.1
418.369	0.1
418.728	0.1
419.088	0.1
419.447	0.09
419.807	0.09
420.166	0.09
420.525	0.09
420.884	0.08
421.244	0.08
421.603	0.09
421.962	0.09
422.321	0.08
422.68	0.08
423.039	0.07
423.398	0.08
423.757	0.08
424.116	0.08
424.475	0.08
424.834	0.07
425.193	0.08
425.551	0.07
425.91	0.07
426.269	0.06
426.628	0.07
426.986	0.07
427.345	0.07
427.703	0.06
428.062	0.07
428.42	0.06
428.779	0.06
429.137	0.07
429.496	0.05
429.854	0.06
430.212	0.06
430.57	0.06
430.929	0.06
431.287	0.05
431.645	0.05
432.003	0.06
432.361	0.06
432.719	0.06
433.077	0.05
433.435	0.06
433.793	0.06
434.151	0.06
434.509	0.06
434.866	0.06
435.224	0.05
435.582	0.05
435.94	0.06
436.297	0.05
436.655	0.05
437.012	0.05
437.37	0.06
437.727	0.05
438.085	0.06
438.442	0.06
438.8	0.05
439.157	0.05
439.514	0.06
439.872	0.05
440.229	0.06
440.586	0.05
440.943	0.06
441.3	0.06
441.657	0.06
442.014	0.06
442.371	0.05
442.728	0.05
443.085	0.06
443.442	0.06
443.799	0.05
444.156	0.05
444.513	0.06
444.869	0.05
445.226	0.06
445.583	0.06
445.939	0.05
446.296	0.06
446.652	0.07
447.009	0.06
447.365	0.05
447.722	0.05
448.078	0.06
448.434	0.06
448.791	0.07
449.147	0.05
449.503	0.05
449.859	0.05
450.215	0.07
450.571	0.06
450.928	0.06
451.284	0.06
451.64	0.06
451.995	0.06
452.351	0.07
452.707	0.07
453.063	0.06
453.419	0.06
453.775	0.06
454.13	0.06
454.486	0.07
454.842	0.06
455.197	0.06
455.553	0.07
455.908	0.06
456.264	0.06
456.619	0.06
456.975	0.05
457.33	0.07
457.685	0.07
458.04	0.06
458.396	0.07
458.751	0.06
459.106	0.07
459.461	0.07
459.816	0.07
460.171	0.07
460.526	0.07
460.881	0.07
461.236	0.06
461.591	0.07
461.946	0.07
462.301	0.07
462.655	0.07
463.01	0.07
463.365	0.06
463.719	0.06
464.074	0.07
464.428	0.07
464.783	0.06
465.137	0.07
465.492	0.07
465.846	0.06
466.201	0.07
466.555	0.07
466.909	0.06
467.263	0.07
467.618	0.07
467.972	0.07
468.326	0.07
468.68	0.07
469.034	0.07
469.388	0.08
469.742	0.07
470.096	0.07
470.45	0.08
470.804	0.08
471.157	0.07
471.511	0.07
471.865	0.08
472.218	0.08
472.572	0.09
472.926	0.08
473.279	0.08
473.633	0.08
473.986	0.09
474.34	0.09
474.693	0.09
475.046	0.09
475.4	0.1
475.753	0.09
476.106	0.1
476.459	0.1
476.812	0.1
477.165	0.1
477.519	0.11
477.872	0.1
478.224	0.11
478.577	0.11
478.93	0.11
479.283	0.11
479.636	0.12
479.989	0.12
480.341	0.11
480.694	0.12
481.047	0.12
481.399	0.12
481.752	0.12
482.104	0.12
482.457	0.12
482.809	0.13
483.162	0.13
483.514	0.13
483.866	0.13
484.219	0.13
484.571	0.13
484.923	0.14
485.275	0.14
485.627	0.14
485.979	0.14
486.331	0.14
486.683	0.14
487.035	0.14
487.387	0.15
487.739	0.15
488.091	0.15
488.443	0.15
488.794	0.15
489.146	0.15
489.498	0.15
489.849	0.15
490.201	0.16
490.552	0.16
490.904	0.16
491.255	0.16
491.607	0.16
491.958	0.16
492.309	0.17
492.661	0.16
493.012	0.17
493.363	0.17
493.714	0.17
494.065	0.18
494.416	0.17
494.767	0.17
495.118	0.18
495.469	0.18
495.82	0.18
496.171	0.18
496.522	0.18
496.872	0.18
497.223	0.18
497.574	0.19
497.924	0.19
498.275	0.19
498.626	0.19
498.976	0.19
499.327	0.19
499.677	0.2
500.027	0.19
500.378	0.2
500.728	0.2
501.078	0.2
501.428	0.2
501.779	0.2
502.129	0.21
502.479	0.2
502.829	0.21
503.179	0.21
503.529	0.21
503.879	0.21
504.229	0.21
504.578	0.21
504.928	0.22
505.278	0.21
505.628	0.22
505.977	0.22
506.327	0.22
506.676	0.23
507.026	0.22
507.375	0.23
507.725	0.23
508.074	0.23
508.424	0.23
508.773	0.23
509.122	0.24
509.471	0.23
509.82	0.23
510.17	0.23
510.519	0.24
510.868	0.24
511.217	0.24
511.566	0.25
511.915	0.24
512.263	0.24
512.612	0.25
512.961	0.25
513.31	0.25
513.659	0.25
514.007	0.26
514.356	0.25
514.704	0.25
515.053	0.26
515.401	0.26
515.75	0.26
516.098	0.26
516.447	0.26
516.795	0.26
517.143	0.27
517.491	0.26
517.839	0.27
518.188	0.26
518.536	0.27
518.884	0.27
519.232	0.27
519.58	0.27
519.928	0.27
520.275	0.27
520.623	0.27
520.971	0.28
521.319	0.28
521.666	0.28
522.014	0.27
522.362	0.28
522.709	0.28
523.057	0.28
523.404	0.29
523.752	0.28
524.099	0.29
524.446	0.29
524.794	0.29
525.141	0.29
525.488	0.29
525.835	0.29
526.182	0.29
526.529	0.29
526.876	0.3
527.223	0.29
527.57	0.3
527.917	0.3
528.264	0.3
528.611	0.3
528.958	0.3
529.304	0.29
529.651	0.3
529.998	0.3
530.344	0.3
530.691	0.3
531.037	0.3
531.384	0.3
531.73	0.31
532.076	0.31
532.423	0.31
532.769	0.31
533.115	0.31
533.461	0.31
533.807	0.31
534.154	0.31
534.5	0.32
534.846	0.31
535.192	0.31
535.537	0.31
535.883	0.31
536.229	0.31
536.575	0.31
536.921	0.32
537.266	0.32
537.612	0.32
537.957	0.32
538.303	0.32
538.649	0.32
538.994	0.32
539.339	0.32
539.685	0.33
540.03	0.33
540.375	0.32
540.721	0.33
541.066	0.32
541.411	0.32
541.756	0.33
542.101	0.33
542.446	0.33
542.791	0.33
543.136	0.33
543.481	0.33
543.825	0.33
544.17	0.33
544.515	0.33
544.86	0.33
545.204	0.33
545.549	0.33
545.893	0.34
546.238	0.33
546.582	0.34
546.927	0.33
547.271	0.34
547.615	0.33
547.96	0.33
548.304	0.34
548.648	0.34
548.992	0.34
549.336	0.34
549.68	0.34
550.024	0.34
550.368	0.34
550.712	0.34
551.056	0.34
551.4	0.34
551.743	0.34
552.087	0.34
552.431	0.34
552.774	0.34
553.118	0.34
553.462	0.34
553.805	0.34
554.148	0.34
554.492	0.34
554.835	0.34
555.178	0.34
555.522	0.34
555.865	0.34
556.208	0.35
556.551	0.34
556.894	0.34
557.237	0.34
557.58	0.34
557.923	0.34
558.266	0.34
558.609	0.34
558.952	0.34
559.294	0.34
559.637	0.34
559.98	0.34
560.322	0.34
560.665	0.34
561.007	0.35
561.35	0.34
561.692	0.34
562.034	0.34
562.377	0.34
562.719	0.34
563.061	0.34
563.403	0.34
563.745	0.34
564.088	0.34
564.43	0.34
564.772	0.34
565.113	0.34
565.455	0.34
565.797	0.34
566.139	0.34
566.481	0.34
566.822	0.34
567.164	0.34
567.506	0.34
567.847	0.34
568.189	0.33
568.53	0.33
568.872	0.34
569.213	0.33
569.554	0.33
569.895	0.33
570.237	0.33
570.578	0.33
570.919	0.33
571.26	0.33
571.601	0.33
571.942	0.33
572.283	0.33
572.624	0.32
572.965	0.32
573.306	0.32
573.646	0.32
573.987	0.32
574.328	0.32
574.668	0.32
575.009	0.32
575.349	0.32
575.69	0.32
576.03	0.31
576.37	0.31
576.711	0.31
577.051	0.31
577.391	0.31
577.731	0.32
578.072	0.31
578.412	0.31
578.752	0.31
579.092	0.31
579.431	0.3
579.771	0.28
580.111	0.27
580.451	0.28
580.791	0.3
581.13	0.31
581.47	0.3
581.81	0.31
582.149	0.3
582.489	0.31
582.828	0.29
583.167	0.27
583.507	0.23
583.846	0.22
584.185	0.25
584.525	0.27
584.864	0.29
585.203	0.3
585.542	0.31
585.881	0.31
586.22	0.31
586.559	0.3
586.898	0.29
587.236	0.28
587.575	0.28
587.914	0.29
588.252	0.3
588.591	0.3
588.93	0.3
589.268	0.3
589.607	0.3
589.945	0.3
590.283	0.3
590.622	0.3
590.96	0.31
591.298	0.31
591.636	0.31
591.974	0.31
592.313	0.31
592.651	0.31
592.989	0.31
593.326	0.31
593.664	0.31
594.002	0.31
594.34	0.3
594.678	0.3
595.015	0.3
595.353	0.29
595.691	0.3
596.028	0.31
596.366	0.31
596.703	0.31
597.04	0.31
597.378	0.31
597.715	0.31
598.052	0.31
598.389	0.31
598.726	0.31
599.064	0.31
599.401	0.31
599.738	0.31
600.074	0.31
600.411	0.31
600.748	0.31
601.085	0.3
601.422	0.3
601.758	0.3
602.095	0.3
602.432	0.3
602.768	0.3
603.105	0.31
603.441	0.31
603.777	0.31
604.114	0.31
604.45	0.31
604.786	0.31
605.122	0.31
605.459	0.3
605.795	0.31
606.131	0.3
606.467	0.3
606.803	0.3
607.139	0.3
607.474	0.3
607.81	0.3
608.146	0.3
608.482	0.3
608.817	0.3
609.153	0.3
609.488	0.29
609.824	0.29
610.159	0.29
610.495	0.29
610.83	0.3
611.165	0.3
611.5	0.29
611.836	0.29
612.171	0.29
612.506	0.29
612.841	0.29
613.176	0.29
613.511	0.29
613.845	0.29
614.18	0.29
614.515	0.29
614.85	0.29
615.184	0.29
615.519	0.29
615.854	0.29
616.188	0.29
616.523	0.28
616.857	0.28
617.191	0.28
617.526	0.28
617.86	0.28
618.194	0.28
618.528	0.28
618.862	0.28
619.196	0.28
619.53	0.28
619.864	0.28
620.198	0.28
620.532	0.27
620.866	0.28
621.2	0.28
621.533	0.27
621.867	0.27
622.201	0.27
622.534	0.27
622.868	0.27
623.201	0.27
623.534	0.27
623.868	0.26
624.201	0.26
624.534	0.27
624.868	0.26
625.201	0.26
625.534	0.26
625.867	0.26
626.2	0.26
626.533	0.25
626.865	0.25
627.198	0.25
627.531	0.25
627.864	0.25
628.196	0.25
628.529	0.25
628.862	0.25
629.194	0.25
629.527	0.25
629.859	0.25
630.191	0.24
630.524	0.24
630.856	0.24
631.188	0.24
631.52	0.24
631.852	0.24
632.184	0.24
632.516	0.23
632.848	0.23
633.18	0.23
633.512	0.23
633.844	0.23
634.175	0.23
634.507	0.22
634.839	0.22
635.17	0.22
635.502	0.22
635.833	0.22
636.165	0.22
636.496	0.22
636.827	0.21
637.159	0.21
637.49	0.21
637.821	0.21
638.152	0.21
638.483	0.21
638.814	0.21
639.145	0.21
639.476	0.2
639.807	0.21
640.137	0.2
640.468	0.2
640.799	0.2
641.129	0.2
641.46	0.2
641.791	0.2
642.121	0.2
642.451	0.2
642.782	0.19
643.112	0.19
643.442	0.19
643.773	0.19
644.103	0.19
644.433	0.19
644.763	0.18
645.093	0.18
645.423	0.18
645.753	0.18
646.082	0.18
646.412	0.18
646.742	0.18
647.072	0.18
647.401	0.18
647.731	0.18
648.06	0.17
648.39	0.18
648.719	0.17
649.048	0.17
649.378	0.17
649.707	0.17
650.036	0.17
650.365	0.17
650.694	0.17
651.023	0.17
651.352	0.17
651.681	0.17
652.01	0.16
652.339	0.17
652.668	0.16
652.996	0.17
653.325	0.16
653.654	0.17
653.982	0.17
654.311	0.17
654.639	0.17
654.967	0.17
655.296	0.16
655.624	0.16
655.952	0.16
656.28	0.17
656.609	0.16
656.937	0.16
657.265	0.16
657.593	0.05
657.92	0
658.248	0
658.576	0
658.904	0.03
659.231	0.11
659.559	0.15
659.887	0.16
660.214	0.16
660.542	0.15
660.869	0.15
661.196	0.15
661.524	0.15
661.851	0.15
662.178	0.15
662.505	0.15
662.832	0.15
663.159	0.16
663.486	0.15
663.813	0.15
664.14	0.15
664.467	0.15
664.794	0.15
665.12	0.15
665.447	0.15
665.774	0.15
666.1	0.15
666.427	0.15
666.753	0.14
667.079	0.14
667.406	0.14
667.732	0.14
668.058	0.14
668.384	0.14
668.71	0.14
669.036	0.14
669.362	0.14
669.688	0.14
670.014	0.14
670.34	0.14
670.666	0.13
670.991	0.13
671.317	0.13
671.643	0.13
671.968	0.13
672.294	0.13
672.619	0.13
672.945	0.13
673.27	0.12
673.595	0.13
673.92	0.12
674.246	0.12
674.571	0.12
674.896	0.12
675.221	0.12
675.546	0.12
675.87	0.12
676.195	0.12
676.52	0.12
676.845	0.12
677.169	0.12
677.494	0.12
677.819	0.12
678.143	0.11
678.468	0.11
678.792	0.11
679.116	0.11
679.44	0.1
679.765	0.11
680.089	0.1
680.413	0.1
680.737	0.1
681.061	0.1
681.385	0.1
681.709	0.1
682.033	0.1
682.356	0.1
682.68	0.1
683.004	0.1
683.327	0.09
683.651	0.09
683.974	0.09
684.298	0.09
684.621	0.09
684.944	0.09
685.268	0.09
685.591	0.09
685.914	0.09
686.237	0.09
686.56	0.08
686.883	0.08
687.206	0.08
687.529	0.08
687.852	0.08
688.175	0.08
688.497	0.08
688.82	0.08
689.142	0.08
689.465	0.07
689.787	0.07
690.11	0.07
690.432	0.07
690.755	0.07
691.077	0.07
691.399	0.07
691.721	0.07
692.043	0.07
692.365	0.07
692.687	0.07
693.009	0.07
693.331	0.07
693.653	0.06
693.974	0.06
694.296	0.06
694.618	0.06
694.939	0.06
695.261	0.06
695.582	0.06
695.904	0.06
696.225	0.06
696.546	0.06
696.868	0.06
697.189	0.06
697.51	0.06
697.831	0.06
698.152	0.06
698.473	0.05
698.794	0.05
699.114	0.05
699.435	0.04
699.756	0.04
700.077	0.05
700.397	0.05
700.718	0.05
701.038	0.05
701.359	0.05
701.679	0.05
701.999	0.05
702.32	0.05
702.64	0.05
702.96	0.05
703.28	0.05
703.6	0.05
703.92	0.04
704.24	0.04
704.56	0.04
704.879	0.04
705.199	0.04
705.519	0.04
705.838	0.05
706.158	0.05
706.478	0.05
706.797	0.05
707.116	0.05
707.436	0.05
707.755	0.05
708.074	0.05
708.393	0.04
708.712	0.04
709.031	0.03
709.35	0.03
709.669	0.03
709.988	0.03
710.307	0.03
710.626	0.04
710.944	0.04
711.263	0.04
711.582	0.04
711.9	0.04
712.219	0.04
712.537	0.04
712.855	0.04
713.174	0.04
713.492	0.04
713.81	0.04
714.128	0.04
714.446	0.04
714.764	0.04
715.082	0.04
715.4	0.04
715.718	0.04
716.035	0.04
716.353	0.04
716.671	0.04
716.988	0.04
717.306	0.04
717.623	0.04
717.941	0.05
718.258	0.05
718.575	0.05
718.893	0.05
719.21	0.04
719.527	0.04
719.844	0.04
720.161	0.04
720.478	0.04
720.795	0.04
721.112	0.04
721.428	0.05
721.745	0.05
722.062	0.04
722.378	0.05
722.695	0.05
723.011	0.05
723.328	0.05
723.644	0.05
723.96	0.05
724.276	0.05
724.593	0.05
724.909	0.05
725.225	0.05
725.541	0.05
725.857	0.05
726.173	0.05
726.488	0.05
726.804	0.05
727.12	0.05
727.435	0.05
727.751	0.05
728.067	0.05
728.382	0.05
728.697	0.05
729.013	0.05
729.328	0.05
729.643	0.05
729.958	0.05
730.273	0.05
730.588	0.05
730.903	0.05
731.218	0.05
731.533	0.05
731.848	0.05
732.163	0.05
732.477	0.05
732.792	0.05
733.107	0.04
733.421	0.05
733.736	0.04
734.05	0.05
734.364	0.05
734.678	0.05
734.993	0.04
735.307	0.05
735.621	0.04
735.935	0.05
736.249	0.04
736.563	0.05
736.877	0.05
737.19	0.04
737.504	0.04
737.818	0.04
738.131	0.04
738.445	0.04
738.758	0.04
739.072	0.05
739.385	0.04
739.698	0.04
740.012	0.04
740.325	0.04
740.638	0.04
740.951	0.04
741.264	0.04
741.577	0.04
741.89	0.04
742.203	0.04
742.515	0.04
742.828	0.04
743.141	0.04
743.453	0.04
743.766	0.04
744.078	0.04
744.391	0.04
744.703	0.04
745.015	0.04
745.327	0.04
745.639	0.04
745.952	0.04
746.264	0.04
746.575	0.04
746.887	0.04
747.199	0.04
747.511	0.04
747.823	0.04
748.134	0.04
748.446	0.04
748.757	0.04
749.069	0.03
749.38	0.03
749.692	0.03
750.003	0.03
750.314	0.03
750.625	0.03
750.936	0.03
751.248	0.03
751.559	0.03
751.869	0.03
752.18	0.03
752.491	0.03
752.802	0.03
753.112	0.03
753.423	0.03
753.734	0.03
754.044	0.03
754.355	0.03
754.665	0.03
754.975	0.03
755.285	0.03
755.596	0.03
755.906	0.03
756.216	0.03
756.526	0.03
756.836	0.03
757.146	0.03
757.455	0.03
757.765	0.02
758.075	0.02
758.385	0.02
758.694	0.02
759.004	0.02
759.313	0.02
759.622	0.02
759.932	0.02
760.241	0.03
760.55	0.02
760.859	0.02
761.168	0.02
761.477	0.02
761.786	0.02
762.095	0.02
762.404	0.02
762.713	0.02
763.021	0.02
763.33	0.02
763.639	0.02
763.947	0.02
764.256	0.02
764.564	0.02
764.872	0.02
765.181	0.02
765.489	0.02
765.797	0.02
766.105	0.02
766.413	0.02
766.721	0.02
767.029	0.02
767.337	0.02
767.644	0.02
767.952	0.02
768.26	0.02
768.567	0.02
768.875	0.02
769.182	0.02
769.49	0.02
769.797	0.02
770.104	0.02
770.411	0.02
770.718	0.02
771.026	0.02
771.333	0.02
771.639	0.02
771.946	0.02
772.253	0.02
772.56	0.02
772.867	0.02
773.173	0.02
773.48	0.02
773.786	0.02
774.093	0.02
774.399	0.02
774.705	0.02
775.012	0.02
775.318	0.02
775.624	0.02
775.93	0.02
776.236	0.02
776.542	0.02
776.848	0.02
777.154	0.02
777.459	0.02
777.765	0.02
778.071	0.02
778.376	0.02
778.682	0.02
778.987	0.02
779.292	0.02
779.598	0.02
779.903	0.02
780.208	0.02
780.513	0.02
780.818	0.02
781.123	0.02
781.428	0.02
781.733	0.02
782.038	0.02
782.343	0.02
782.647	0.02
782.952	0.02
783.256	0.02
783.561	0.02
783.865	0.02
784.17	0.03
784.474	0.03
784.778	0.03
785.082	0.02
785.386	0.03
785.69	0.03
785.994	0.02
786.298	0.03
786.602	0.03
786.906	0.02
787.209	0.02
787.513	0.03
787.817	0.03
788.12	0.03
788.424	0.02
788.727	0.02
789.03	0.02
789.333	0.02
789.637	0.02
789.94	0.02
790.243	0.02
790.546	0.02
790.849	0.02
791.152	0.02
791.454	0.02
791.757	0.02
792.06	0.02
792.362	0.02
792.665	0.02
792.967	0.02
793.27	0.02
793.572	0.02
793.874	0.02
794.177	0.02
794.479	0.02
794.781	0.02
795.083	0.02
795.385	0.02
795.687	0.02
795.989	0.02
796.29	0.02
796.592	0.02
796.894	0.02
797.195	0.02
797.497	0.02
797.798	0.03
798.1	0.03
798.401	0.02
798.702	0.02
799.003	0.02
799.304	0.02
799.605	0.02
799.906	0.02
800.207	0.02
800.508	0.02
800.809	0.03
801.11	0.02
801.41	0.02
801.711	0.03
802.011	0.02
802.312	0.02
802.612	0.03
802.913	0.02
803.213	0.03
803.513	0.02
803.813	0.03
804.113	0.02
804.413	0.02
804.713	0.02
805.013	0.02
805.313	0.02
805.613	0.03
805.912	0.02
806.212	0.02
806.511	0.02
806.811	0.02
807.11	0.02
807.41	0.03
807.709	0.02
808.008	0.03
808.307	0.03
808.606	0.03
808.905	0.03
809.204	0.03
809.503	0.03
809.802	0.03
810.101	0.03
810.399	0.03
810.698	0.03
810.997	0.03
811.295	0.03
811.593	0.03
811.892	0.03
812.19	0.03
812.488	0.02
812.786	0.03
813.084	0.03
813.383	0.03
813.68	0.03
813.978	0.03
814.276	0.03
814.574	0.03
814.872	0.03
815.169	0.03
815.467	0.03
815.764	0.03
816.062	0.03
816.359	0.03
816.656	0.03
816.954	0.03
817.251	0.03
817.548	0.03
817.845	0.03
818.142	0.03
818.439	0.03
818.735	0.03
819.032	0.03
819.329	0.02
819.626	0.03
819.922	0.03
820.219	0.03
820.515	0.03
820.811	0.03
821.108	0.03
821.404	0.03
821.7	0.03
821.996	0.04
822.292	0.04
822.588	0.03
822.884	0.04
823.18	0.04
823.475	0.03
823.771	0.04
824.067	0.04
824.362	0.04
824.658	0.03
824.953	0.03
825.249	0.03
825.544	0.04
825.839	0.04
826.134	0.04
826.429	0.04
826.724	0.04
827.019	0.04
827.314	0.04
827.609	0.04
827.904	0.04
828.198	0.03
828.493	0.03
828.787	0.04
829.082	0.03
829.376	0.03
829.671	0.04
829.965	0.03
830.259	0.04
830.553	0.04
830.847	0.04
831.141	0.04
831.435	0.03
831.729	0.04
832.023	0.04
832.317	0.04
832.61	0.04
832.904	0.04
833.197	0.04
833.491	0.04
833.784	0.04
834.077	0.03
834.371	0.03
834.664	0.04
834.957	0.03
835.25	0.03
835.543	0.03
835.836	0.03
836.129	0.03
836.421	0.03
836.714	0.04
837.007	0.04
837.299	0.04
837.592	0.04
837.884	0.04
838.177	0.04
838.469	0.04
838.761	0.04
839.053	0.03
839.345	0.04
839.637	0.04
839.929	0.05
840.221	0.05
840.513	0.04
840.805	0.04
841.096	0.03
841.388	0.04
841.68	0.04
841.971	0.04
842.262	0.04
842.554	0.04
842.845	0.03
843.136	0.04
843.427	0.04
843.718	0.04
844.009	0.04
844.3	0.04
844.591	0.04
844.882	0.04
845.173	0.04
845.463	0.05
845.754	0.05
846.044	0.05
846.335	0.05
846.625	0.05
846.915	0.05
847.206	0.04
847.496	0.05
847.786	0.04
848.076	0.04
848.366	0.04
848.656	0.04
848.945	0.04
849.235	0.04
849.525	0.05
849.814	0.04
850.104	0.05
850.393	0.06
850.683	0.05
850.972	0.04
851.261	0.05
851.551	0.05
851.84	0.04
852.129	0.05
852.418	0.05
852.707	0.04
852.995	0.04
853.284	0.05
853.573	0.04
853.862	0.04
854.15	0.03
854.439	0.04
854.727	0.05
855.015	0.05
855.304	0.04
855.592	0.04
855.88	0.05
856.168	0.04
856.456	0.05
856.744	0.05
857.032	0.07
857.32	0.05
857.607	0.06
857.895	0.06
858.183	0.05
858.47	0.04
858.757	0.06
859.045	0.06
859.332	0.05
859.619	0.06
859.907	0.05
860.194	0.05
860.481	0.06
860.768	0.06
861.054	0.06
861.341	0.05
861.628	0.06
861.915	0.05
862.201	0.04
862.488	0.05
862.774	0.06
863.061	0.06
863.347	0.04
863.633	0.06
863.919	0.06
864.205	0.04
864.491	0.07
864.777	0.04
865.063	0.06
865.349	0.05
865.635	0.06
865.92	0.04
866.206	0.05
866.492	0.05
866.777	0.06
867.062	0.06
867.348	0.05
867.633	0.03
867.918	0.04
868.203	0.06
868.488	0.06
868.773	0.03
869.058	0.04
869.343	0.05
869.628	0.04
869.912	0.06
870.197	0.04
870.482	0.05
870.766	0.05
871.05	0.04
871.335	0.06
871.619	0.03
871.903	0.1
872.187	0.06
872.471	0.06
872.755	0.04
873.039	0.03
873.323	0.06
873.607	0.07
873.89	0.09
874.174	0.04
874.458	0.01
874.741	0.11
875.024	0.04
875.308	0.05
875.591	0.05
875.874	0.07
876.157	0.04
876.44	0.07
876.723	0.1
877.006	0.05
877.289	0.05
877.572	0.04
877.854	0.07
878.137	0.04
878.42	0.01
878.702	0.06
878.984	0.06
879.267	0.04
879.549	0.06
879.831	0.05
880.113	0.12
880.395	0.12
880.677	0.07
880.959	-0.01
