Data from Rubpy_BV_1500_EDTA_Buffered_Absorbance_14-15-21-634.txt Node
Date: Wed Jul 01 14:15:21 BST 2026
User: fpm-admin
Spectrometer: OFX00224
Trigger mode: 0
Integration Time (sec): 7.000000E-2
Scans to average: 3
Nonlinearity correction enabled: false
Boxcar width: 0
Storing dark spectrum: false
XAxis mode: Wavelengths
Number of Pixels in Spectrum: 2136
>>>>>Begin Spectral Data<<<<<
154.91	-0
155.289	0.1
155.669	-0
156.048	-0
156.428	-0
156.807	-0
157.186	-0.7
157.566	-0.29
157.945	-0.03
158.325	1.34
158.704	-0
159.083	-0.03
159.462	0.46
159.842	0.06
160.221	0.74
160.6	-0
160.979	-0.4
161.359	-0.04
161.738	-0
162.117	0.45
162.496	-0.41
162.875	0.3
163.254	0.18
163.633	-0.05
164.012	-0.22
164.391	0.97
164.77	0.25
165.149	0.34
165.528	-0
165.907	-0.1
166.286	-0.87
166.665	-0
167.044	0.12
167.423	-0
167.802	-0
168.181	0.22
168.559	-0.01
168.938	-0.1
169.317	-0.06
169.696	-0.1
170.074	-0.51
170.453	0.05
170.832	0.13
171.21	-0.1
171.589	-0
171.968	-0
172.346	0.35
172.725	-0
173.103	-0
173.482	-0
173.861	-0
174.239	-0.98
174.617	-0
174.996	0.86
175.374	-0.11
175.753	-0.5
176.131	0.38
176.51	-0.02
176.888	0.85
177.266	-0
177.645	-0.09
178.023	-0
178.401	-0.12
178.779	-0.07
179.158	0.2
179.536	0.3
179.914	-0.35
180.292	0.07
180.67	-0
181.048	0.18
181.427	-0.6
181.805	-0
182.183	-0.6
182.561	-0
182.939	-0
183.317	0.03
183.695	-0.14
184.073	0.8
184.451	-0.28
184.829	-0
185.206	-0
185.584	-0.11
185.962	-0
186.34	-0
186.718	-0.88
187.096	-0
187.473	-0
187.851	-0.41
188.229	0.43
188.607	0.15
188.984	0.13
189.362	0.22
189.74	0.06
190.117	0.01
190.495	0.06
190.872	0.08
191.25	0.09
191.627	0.06
192.005	0.02
192.382	0.34
192.76	0.19
193.137	0.09
193.515	0.07
193.892	0.15
194.269	0.08
194.647	0.21
195.024	0.09
195.401	0.05
195.779	0.12
196.156	0.15
196.533	0.08
196.91	0.19
197.288	0.2
197.665	0.16
198.042	0.16
198.419	0.21
198.796	0.1
199.173	0.19
199.55	0.04
199.927	0.19
200.304	0.18
200.681	0.23
201.058	0.03
201.435	0.17
201.812	0.15
202.189	0.08
202.566	0.06
202.943	0.12
203.32	0.06
203.697	0.11
204.073	0.12
204.45	0.04
204.827	0.18
205.204	0.08
205.58	0.21
205.957	0.14
206.334	0.17
206.71	0.13
207.087	0.26
207.464	0.07
207.84	0.06
208.217	0.2
208.593	0.16
208.97	0.22
209.346	0.27
209.723	0.1
210.099	0.16
210.476	0.17
210.852	0.19
211.228	0.09
211.605	0.24
211.981	0.11
212.357	0.03
212.733	0.02
213.11	0.16
213.486	0.13
213.862	0.11
214.238	0.1
214.614	0.07
214.991	0.09
215.367	0.1
215.743	0.12
216.119	0.16
216.495	0.16
216.871	0.11
217.247	0.25
217.623	0.18
217.999	0.06
218.375	0.16
218.751	0.13
219.127	0.17
219.502	0.26
219.878	0.21
220.254	0.17
220.63	0.16
221.006	0.16
221.381	0.19
221.757	0.32
222.133	0.09
222.508	0.19
222.884	0.21
223.26	0.1
223.635	0.18
224.011	0.3
224.386	0.26
224.762	0.19
225.137	0.21
225.513	0.19
225.888	0.09
226.264	0.2
226.639	0.19
227.014	0.11
227.39	0.13
227.765	0.18
228.14	0.21
228.516	0.17
228.891	0.26
229.266	0.24
229.641	0.12
230.017	0.15
230.392	0.23
230.767	0.21
231.142	0.17
231.517	0.2
231.892	0.2
232.267	0.21
232.642	0.14
233.017	0.13
233.392	0.14
233.767	0.13
234.142	0.14
234.517	0.19
234.892	0.14
235.267	0.23
235.641	0.07
236.016	0.19
236.391	0.19
236.766	0.27
237.14	0.12
237.515	0.25
237.89	0.18
238.264	0.25
238.639	0.06
239.014	0.17
239.388	0.07
239.763	0.06
240.137	0.09
240.512	0.15
240.886	0.14
241.261	0.18
241.635	0.07
242.009	0.2
242.384	0.22
242.758	0.3
243.132	0.11
243.507	0.18
243.881	0.13
244.255	0.15
244.629	0.17
245.004	0.12
245.378	0.19
245.752	0.08
246.126	0.28
246.5	0.26
246.874	0.1
247.248	0.17
247.622	0.01
247.996	0.08
248.37	0.19
248.744	0.12
249.118	0.22
249.492	0.17
249.866	0.11
250.24	0.2
250.613	0.2
250.987	0.16
251.361	0.14
251.735	0.22
252.108	0.18
252.482	0.07
252.856	0.2
253.229	0.22
253.603	0.22
253.977	0.12
254.35	0.2
254.724	0.14
255.097	0.11
255.471	0.23
255.844	0.2
256.218	0.14
256.591	0.15
256.964	0.13
257.338	0.16
257.711	0.13
258.084	0.15
258.458	0.06
258.831	0.28
259.204	0.14
259.577	0.16
259.95	0.14
260.323	0.12
260.697	0.19
261.07	0.19
261.443	0.16
261.816	0.1
262.189	0.16
262.562	0.1
262.935	0.08
263.308	0.15
263.68	0.1
264.053	0.2
264.426	0.2
264.799	0.24
265.172	0.19
265.545	0.18
265.917	0.15
266.29	0.19
266.663	0.16
267.035	0.16
267.408	0.14
267.781	0.2
268.153	0.2
268.526	0.15
268.898	0.11
269.271	0.09
269.643	0.22
270.016	0.18
270.388	0.22
270.76	0.18
271.133	0.09
271.505	0.15
271.877	0.18
272.25	0.16
272.622	0.24
272.994	0.17
273.366	0.16
273.739	0.16
274.111	0.14
274.483	0.24
274.855	0.17
275.227	0.21
275.599	0.12
275.971	0.08
276.343	0.13
276.715	0.17
277.087	0.19
277.459	0.11
277.831	0.28
278.203	0.25
278.574	0.17
278.946	0.17
279.318	0.18
279.69	0.14
280.061	0.19
280.433	0.11
280.805	0.16
281.176	0.18
281.548	0.19
281.92	0.14
282.291	0.14
282.663	0.18
283.034	0.11
283.406	0.2
283.777	0.15
284.148	0.2
284.52	0.23
284.891	0.18
285.262	0.23
285.634	0.19
286.005	0.16
286.376	0.26
286.747	0.11
287.119	0.13
287.49	0.23
287.861	0.12
288.232	0.18
288.603	0.18
288.974	0.19
289.345	0.17
289.716	0.11
290.087	0.16
290.458	0.2
290.829	0.12
291.2	0.11
291.571	0.15
291.941	0.19
292.312	0.18
292.683	0.16
293.054	0.18
293.424	0.13
293.795	0.14
294.166	0.12
294.536	0.18
294.907	0.2
295.277	0.21
295.648	0.22
296.018	0.11
296.389	0.18
296.759	0.16
297.13	0.2
297.5	0.21
297.871	0.17
298.241	0.14
298.611	0.22
298.981	0.21
299.352	0.14
299.722	0.19
300.092	0.15
300.462	0.09
300.832	0.14
301.202	0.19
301.573	0.11
301.943	0.16
302.313	0.16
302.683	0.19
303.053	0.17
303.422	0.19
303.792	0.16
304.162	0.18
304.532	0.18
304.902	0.12
305.272	0.12
305.641	0.14
306.011	0.14
306.381	0.11
306.75	0.17
307.12	0.17
307.49	0.15
307.859	0.13
308.229	0.14
308.598	0.17
308.968	0.11
309.337	0.12
309.707	0.1
310.076	0.11
310.445	0.11
310.815	0.12
311.184	0.1
311.553	0.07
311.923	0.1
312.292	0.1
312.661	0.12
313.03	0.12
313.399	0.13
313.768	0.12
314.137	0.12
314.506	0.1
314.875	0.11
315.244	0.11
315.613	0.11
315.982	0.11
316.351	0.1
316.72	0.12
317.089	0.12
317.458	0.12
317.826	0.11
318.195	0.12
318.564	0.11
318.933	0.14
319.301	0.13
319.67	0.14
320.038	0.11
320.407	0.13
320.775	0.14
321.144	0.13
321.512	0.14
321.881	0.14
322.249	0.15
322.618	0.14
322.986	0.14
323.354	0.15
323.723	0.15
324.091	0.15
324.459	0.13
324.827	0.14
325.195	0.15
325.564	0.15
325.932	0.15
326.3	0.15
326.668	0.16
327.036	0.15
327.404	0.17
327.772	0.16
328.14	0.16
328.508	0.16
328.875	0.17
329.243	0.18
329.611	0.18
329.979	0.18
330.346	0.18
330.714	0.18
331.082	0.18
331.449	0.18
331.817	0.19
332.185	0.18
332.552	0.19
332.92	0.2
333.287	0.2
333.655	0.2
334.022	0.21
334.389	0.21
334.757	0.22
335.124	0.22
335.491	0.22
335.859	0.23
336.226	0.23
336.593	0.24
336.96	0.24
337.327	0.24
337.695	0.24
338.062	0.25
338.429	0.25
338.796	0.26
339.163	0.26
339.53	0.27
339.897	0.27
340.263	0.28
340.63	0.28
340.997	0.29
341.364	0.29
341.731	0.29
342.097	0.31
342.464	0.3
342.831	0.31
343.197	0.32
343.564	0.33
343.931	0.33
344.297	0.33
344.664	0.34
345.03	0.34
345.396	0.34
345.763	0.36
346.129	0.36
346.496	0.36
346.862	0.37
347.228	0.37
347.594	0.38
347.961	0.38
348.327	0.39
348.693	0.39
349.059	0.4
349.425	0.4
349.791	0.4
350.157	0.41
350.523	0.42
350.889	0.42
351.255	0.43
351.621	0.43
351.987	0.44
352.353	0.44
352.719	0.44
353.084	0.45
353.45	0.45
353.816	0.46
354.181	0.47
354.547	0.47
354.913	0.48
355.278	0.49
355.644	0.49
356.009	0.5
356.375	0.5
356.74	0.51
357.106	0.52
357.471	0.53
357.836	0.54
358.202	0.54
358.567	0.55
358.932	0.55
359.297	0.56
359.663	0.57
360.028	0.58
360.393	0.59
360.758	0.6
361.123	0.6
361.488	0.61
361.853	0.62
362.218	0.62
362.583	0.63
362.948	0.64
363.312	0.65
363.677	0.66
364.042	0.67
364.407	0.68
364.772	0.68
365.136	0.69
365.501	0.69
365.865	0.7
366.23	0.7
366.595	0.71
366.959	0.72
367.324	0.72
367.688	0.73
368.052	0.74
368.417	0.74
368.781	0.74
369.145	0.75
369.51	0.76
369.874	0.77
370.238	0.78
370.602	0.78
370.967	0.78
371.331	0.79
371.695	0.79
372.059	0.8
372.423	0.8
372.787	0.8
373.151	0.79
373.515	0.8
373.878	0.8
374.242	0.79
374.606	0.79
374.97	0.77
375.334	0.77
375.697	0.77
376.061	0.76
376.425	0.76
376.788	0.75
377.152	0.75
377.515	0.73
377.879	0.72
378.242	0.71
378.606	0.71
378.969	0.7
379.333	0.69
379.696	0.69
380.059	0.68
380.422	0.67
380.786	0.67
381.149	0.66
381.512	0.64
381.875	0.65
382.238	0.63
382.601	0.63
382.964	0.63
383.327	0.62
383.69	0.62
384.053	0.61
384.416	0.61
384.779	0.6
385.142	0.6
385.504	0.61
385.867	0.6
386.23	0.6
386.593	0.6
386.955	0.59
387.318	0.6
387.68	0.6
388.043	0.6
388.405	0.61
388.768	0.6
389.13	0.6
389.493	0.6
389.855	0.59
390.217	0.6
390.58	0.59
390.942	0.59
391.304	0.58
391.666	0.57
392.028	0.57
392.391	0.57
392.753	0.55
393.115	0.55
393.477	0.55
393.839	0.54
394.201	0.53
394.563	0.53
394.924	0.54
395.286	0.54
395.648	0.54
396.01	0.54
396.371	0.55
396.733	0.56
397.095	0.57
397.456	0.58
397.818	0.59
398.18	0.61
398.541	0.62
398.903	0.64
399.264	0.65
399.625	0.67
399.987	0.68
400.348	0.7
400.709	0.71
401.071	0.72
401.432	0.72
401.793	0.73
402.154	0.71
402.515	0.71
402.876	0.7
403.238	0.68
403.599	0.67
403.96	0.65
404.32	0.62
404.681	0.6
405.042	0.58
405.403	0.55
405.764	0.53
406.125	0.49
406.485	0.47
406.846	0.44
407.207	0.43
407.567	0.4
407.928	0.37
408.288	0.36
408.649	0.34
409.009	0.31
409.37	0.3
409.73	0.28
410.091	0.26
410.451	0.25
410.811	0.24
411.171	0.23
411.532	0.22
411.892	0.21
412.252	0.19
412.612	0.19
412.972	0.18
413.332	0.16
413.692	0.16
414.052	0.16
414.412	0.15
414.772	0.14
415.132	0.14
415.492	0.14
415.851	0.13
416.211	0.13
416.571	0.12
416.931	0.12
417.29	0.11
417.65	0.11
418.009	0.11
418.369	0.11
418.728	0.11
419.088	0.1
419.447	0.1
419.807	0.1
420.166	0.1
420.525	0.09
420.884	0.09
421.244	0.09
421.603	0.09
421.962	0.09
422.321	0.08
422.68	0.08
423.039	0.08
423.398	0.08
423.757	0.08
424.116	0.08
424.475	0.08
424.834	0.07
425.193	0.07
425.551	0.08
425.91	0.07
426.269	0.07
426.628	0.07
426.986	0.07
427.345	0.07
427.703	0.07
428.062	0.07
428.42	0.06
428.779	0.07
429.137	0.06
429.496	0.05
429.854	0.07
430.212	0.07
430.57	0.06
430.929	0.07
431.287	0.06
431.645	0.06
432.003	0.06
432.361	0.06
432.719	0.07
433.077	0.06
433.435	0.06
433.793	0.06
434.151	0.07
434.509	0.07
434.866	0.06
435.224	0.06
435.582	0.06
435.94	0.07
436.297	0.06
436.655	0.06
437.012	0.05
437.37	0.05
437.727	0.05
438.085	0.06
438.442	0.06
438.8	0.06
439.157	0.06
439.514	0.07
439.872	0.06
440.229	0.07
440.586	0.06
440.943	0.06
441.3	0.06
441.657	0.06
442.014	0.06
442.371	0.05
442.728	0.06
443.085	0.07
443.442	0.07
443.799	0.06
444.156	0.06
444.513	0.06
444.869	0.06
445.226	0.06
445.583	0.06
445.939	0.06
446.296	0.07
446.652	0.07
447.009	0.06
447.365	0.05
447.722	0.07
448.078	0.07
448.434	0.06
448.791	0.06
449.147	0.05
449.503	0.07
449.859	0.07
450.215	0.06
450.571	0.07
450.928	0.06
451.284	0.07
451.64	0.06
451.995	0.06
452.351	0.07
452.707	0.08
453.063	0.07
453.419	0.06
453.775	0.07
454.13	0.07
454.486	0.08
454.842	0.06
455.197	0.06
455.553	0.06
455.908	0.06
456.264	0.07
456.619	0.06
456.975	0.07
457.33	0.07
457.685	0.07
458.04	0.07
458.396	0.07
458.751	0.07
459.106	0.07
459.461	0.07
459.816	0.07
460.171	0.07
460.526	0.07
460.881	0.07
461.236	0.07
461.591	0.08
461.946	0.07
462.301	0.07
462.655	0.07
463.01	0.07
463.365	0.07
463.719	0.06
464.074	0.07
464.428	0.07
464.783	0.07
465.137	0.07
465.492	0.07
465.846	0.07
466.201	0.07
466.555	0.07
466.909	0.07
467.263	0.07
467.618	0.07
467.972	0.08
468.326	0.08
468.68	0.08
469.034	0.08
469.388	0.09
469.742	0.08
470.096	0.08
470.45	0.09
470.804	0.09
471.157	0.08
471.511	0.08
471.865	0.09
472.218	0.09
472.572	0.09
472.926	0.1
473.279	0.09
473.633	0.1
473.986	0.1
474.34	0.1
474.693	0.1
475.046	0.1
475.4	0.1
475.753	0.1
476.106	0.11
476.459	0.11
476.812	0.11
477.165	0.11
477.519	0.11
477.872	0.11
478.224	0.11
478.577	0.12
478.93	0.12
479.283	0.12
479.636	0.13
479.989	0.13
480.341	0.12
480.694	0.13
481.047	0.13
481.399	0.13
481.752	0.13
482.104	0.13
482.457	0.14
482.809	0.14
483.162	0.14
483.514	0.14
483.866	0.14
484.219	0.14
484.571	0.15
484.923	0.15
485.275	0.15
485.627	0.15
485.979	0.15
486.331	0.15
486.683	0.15
487.035	0.16
487.387	0.15
487.739	0.16
488.091	0.16
488.443	0.16
488.794	0.16
489.146	0.16
489.498	0.16
489.849	0.17
490.201	0.17
490.552	0.17
490.904	0.17
491.255	0.17
491.607	0.18
491.958	0.18
492.309	0.18
492.661	0.18
493.012	0.17
493.363	0.18
493.714	0.18
494.065	0.19
494.416	0.19
494.767	0.19
495.118	0.19
495.469	0.19
495.82	0.19
496.171	0.19
496.522	0.2
496.872	0.2
497.223	0.2
497.574	0.2
497.924	0.2
498.275	0.21
498.626	0.2
498.976	0.21
499.327	0.21
499.677	0.22
500.027	0.21
500.378	0.21
500.728	0.22
501.078	0.22
501.428	0.22
501.779	0.22
502.129	0.22
502.479	0.22
502.829	0.22
503.179	0.22
503.529	0.23
503.879	0.22
504.229	0.23
504.578	0.23
504.928	0.23
505.278	0.23
505.628	0.24
505.977	0.24
506.327	0.24
506.676	0.24
507.026	0.24
507.375	0.25
507.725	0.24
508.074	0.25
508.424	0.25
508.773	0.25
509.122	0.25
509.471	0.25
509.82	0.25
510.17	0.25
510.519	0.26
510.868	0.26
511.217	0.26
511.566	0.26
511.915	0.26
512.263	0.26
512.612	0.27
512.961	0.26
513.31	0.27
513.659	0.27
514.007	0.27
514.356	0.27
514.704	0.27
515.053	0.28
515.401	0.28
515.75	0.28
516.098	0.28
516.447	0.28
516.795	0.29
517.143	0.28
517.491	0.28
517.839	0.29
518.188	0.28
518.536	0.29
518.884	0.29
519.232	0.29
519.58	0.29
519.928	0.29
520.275	0.29
520.623	0.3
520.971	0.3
521.319	0.3
521.666	0.3
522.014	0.3
522.362	0.3
522.709	0.3
523.057	0.3
523.404	0.3
523.752	0.31
524.099	0.31
524.446	0.31
524.794	0.31
525.141	0.3
525.488	0.31
525.835	0.31
526.182	0.31
526.529	0.31
526.876	0.32
527.223	0.31
527.57	0.32
527.917	0.32
528.264	0.32
528.611	0.31
528.958	0.32
529.304	0.32
529.651	0.32
529.998	0.32
530.344	0.32
530.691	0.33
531.037	0.33
531.384	0.33
531.73	0.33
532.076	0.33
532.423	0.33
532.769	0.33
533.115	0.33
533.461	0.33
533.807	0.33
534.154	0.34
534.5	0.34
534.846	0.33
535.192	0.33
535.537	0.34
535.883	0.34
536.229	0.34
536.575	0.34
536.921	0.34
537.266	0.34
537.612	0.34
537.957	0.34
538.303	0.35
538.649	0.35
538.994	0.34
539.339	0.35
539.685	0.35
540.03	0.35
540.375	0.35
540.721	0.35
541.066	0.35
541.411	0.35
541.756	0.35
542.101	0.35
542.446	0.35
542.791	0.35
543.136	0.36
543.481	0.36
543.825	0.36
544.17	0.35
544.515	0.35
544.86	0.36
545.204	0.36
545.549	0.36
545.893	0.36
546.238	0.36
546.582	0.36
546.927	0.36
547.271	0.36
547.615	0.36
547.96	0.36
548.304	0.36
548.648	0.36
548.992	0.36
549.336	0.36
549.68	0.36
550.024	0.37
550.368	0.36
550.712	0.37
551.056	0.37
551.4	0.37
551.743	0.37
552.087	0.37
552.431	0.37
552.774	0.36
553.118	0.36
553.462	0.36
553.805	0.36
554.148	0.36
554.492	0.36
554.835	0.37
555.178	0.36
555.522	0.37
555.865	0.37
556.208	0.37
556.551	0.37
556.894	0.36
557.237	0.36
557.58	0.37
557.923	0.36
558.266	0.37
558.609	0.36
558.952	0.36
559.294	0.37
559.637	0.37
559.98	0.36
560.322	0.37
560.665	0.37
561.007	0.37
561.35	0.36
561.692	0.37
562.034	0.37
562.377	0.37
562.719	0.36
563.061	0.36
563.403	0.36
563.745	0.37
564.088	0.36
564.43	0.36
564.772	0.36
565.113	0.36
565.455	0.36
565.797	0.36
566.139	0.36
566.481	0.36
566.822	0.36
567.164	0.36
567.506	0.36
567.847	0.36
568.189	0.36
568.53	0.36
568.872	0.36
569.213	0.36
569.554	0.36
569.895	0.36
570.237	0.36
570.578	0.35
570.919	0.36
571.26	0.35
571.601	0.35
571.942	0.35
572.283	0.35
572.624	0.34
572.965	0.35
573.306	0.35
573.646	0.35
573.987	0.34
574.328	0.34
574.668	0.35
575.009	0.34
575.349	0.34
575.69	0.34
576.03	0.34
576.37	0.33
576.711	0.33
577.051	0.33
577.391	0.33
577.731	0.34
578.072	0.34
578.412	0.33
578.752	0.33
579.092	0.33
579.431	0.32
579.771	0.3
580.111	0.29
580.451	0.3
580.791	0.32
581.13	0.33
581.47	0.33
581.81	0.33
582.149	0.32
582.489	0.33
582.828	0.32
583.167	0.29
583.507	0.26
583.846	0.24
584.185	0.27
584.525	0.3
584.864	0.32
585.203	0.33
585.542	0.33
585.881	0.33
586.22	0.33
586.559	0.32
586.898	0.31
587.236	0.3
587.575	0.3
587.914	0.31
588.252	0.32
588.591	0.32
588.93	0.32
589.268	0.32
589.607	0.32
589.945	0.32
590.283	0.32
590.622	0.32
590.96	0.33
591.298	0.33
591.636	0.33
591.974	0.33
592.313	0.33
592.651	0.33
592.989	0.33
593.326	0.33
593.664	0.32
594.002	0.33
594.34	0.32
594.678	0.32
595.015	0.32
595.353	0.31
595.691	0.32
596.028	0.33
596.366	0.33
596.703	0.33
597.04	0.33
597.378	0.33
597.715	0.33
598.052	0.33
598.389	0.33
598.726	0.34
599.064	0.33
599.401	0.33
599.738	0.33
600.074	0.33
600.411	0.33
600.748	0.32
601.085	0.32
601.422	0.32
601.758	0.32
602.095	0.32
602.432	0.32
602.768	0.32
603.105	0.32
603.441	0.33
603.777	0.33
604.114	0.33
604.45	0.33
604.786	0.32
605.122	0.33
605.459	0.32
605.795	0.32
606.131	0.32
606.467	0.32
606.803	0.32
607.139	0.32
607.474	0.32
607.81	0.32
608.146	0.32
608.482	0.32
608.817	0.32
609.153	0.31
609.488	0.31
609.824	0.31
610.159	0.31
610.495	0.31
610.83	0.31
611.165	0.31
611.5	0.31
611.836	0.31
612.171	0.31
612.506	0.31
612.841	0.31
613.176	0.31
613.511	0.31
613.845	0.31
614.18	0.31
614.515	0.31
614.85	0.31
615.184	0.31
615.519	0.31
615.854	0.3
616.188	0.31
616.523	0.3
616.857	0.3
617.191	0.3
617.526	0.3
617.86	0.3
618.194	0.29
618.528	0.3
618.862	0.3
619.196	0.29
619.53	0.3
619.864	0.29
620.198	0.3
620.532	0.29
620.866	0.29
621.2	0.29
621.533	0.29
621.867	0.29
622.201	0.29
622.534	0.29
622.868	0.29
623.201	0.29
623.534	0.28
623.868	0.28
624.201	0.28
624.534	0.28
624.868	0.28
625.201	0.28
625.534	0.28
625.867	0.28
626.2	0.27
626.533	0.28
626.865	0.27
627.198	0.27
627.531	0.27
627.864	0.27
628.196	0.27
628.529	0.27
628.862	0.26
629.194	0.26
629.527	0.26
629.859	0.26
630.191	0.26
630.524	0.26
630.856	0.26
631.188	0.25
631.52	0.25
631.852	0.25
632.184	0.25
632.516	0.25
632.848	0.25
633.18	0.24
633.512	0.24
633.844	0.24
634.175	0.24
634.507	0.24
634.839	0.24
635.17	0.23
635.502	0.23
635.833	0.23
636.165	0.23
636.496	0.23
636.827	0.23
637.159	0.23
637.49	0.23
637.821	0.22
638.152	0.22
638.483	0.22
638.814	0.22
639.145	0.22
639.476	0.22
639.807	0.22
640.137	0.21
640.468	0.21
640.799	0.21
641.129	0.21
641.46	0.21
641.791	0.21
642.121	0.21
642.451	0.21
642.782	0.2
643.112	0.2
643.442	0.2
643.773	0.2
644.103	0.2
644.433	0.2
644.763	0.2
645.093	0.2
645.423	0.19
645.753	0.19
646.082	0.19
646.412	0.19
646.742	0.19
647.072	0.19
647.401	0.19
647.731	0.19
648.06	0.18
648.39	0.19
648.719	0.19
649.048	0.18
649.378	0.18
649.707	0.18
650.036	0.18
650.365	0.18
650.694	0.18
651.023	0.18
651.352	0.18
651.681	0.18
652.01	0.18
652.339	0.18
652.668	0.17
652.996	0.17
653.325	0.18
653.654	0.18
653.982	0.18
654.311	0.17
654.639	0.17
654.967	0.17
655.296	0.17
655.624	0.17
655.952	0.17
656.28	0.17
656.609	0.17
656.937	0.17
657.265	0.17
657.593	0.06
657.92	0
658.248	0
658.576	0
658.904	0.04
659.231	0.12
659.559	0.16
659.887	0.16
660.214	0.16
660.542	0.16
660.869	0.16
661.196	0.17
661.524	0.16
661.851	0.16
662.178	0.16
662.505	0.16
662.832	0.16
663.159	0.16
663.486	0.16
663.813	0.16
664.14	0.16
664.467	0.16
664.794	0.16
665.12	0.16
665.447	0.15
665.774	0.16
666.1	0.16
666.427	0.15
666.753	0.15
667.079	0.15
667.406	0.15
667.732	0.15
668.058	0.15
668.384	0.15
668.71	0.15
669.036	0.15
669.362	0.15
669.688	0.15
670.014	0.14
670.34	0.14
670.666	0.14
670.991	0.14
671.317	0.14
671.643	0.14
671.968	0.14
672.294	0.14
672.619	0.14
672.945	0.14
673.27	0.13
673.595	0.14
673.92	0.13
674.246	0.13
674.571	0.13
674.896	0.13
675.221	0.13
675.546	0.13
675.87	0.13
676.195	0.13
676.52	0.13
676.845	0.13
677.169	0.12
677.494	0.12
677.819	0.12
678.143	0.12
678.468	0.12
678.792	0.12
679.116	0.11
679.44	0.11
679.765	0.11
680.089	0.11
680.413	0.11
680.737	0.11
681.061	0.11
681.385	0.11
681.709	0.1
682.033	0.1
682.356	0.1
682.68	0.1
683.004	0.11
683.327	0.1
683.651	0.1
683.974	0.1
684.298	0.1
684.621	0.1
684.944	0.1
685.268	0.1
685.591	0.09
685.914	0.09
686.237	0.09
686.56	0.09
686.883	0.09
687.206	0.08
687.529	0.08
687.852	0.08
688.175	0.08
688.497	0.09
688.82	0.08
689.142	0.08
689.465	0.08
689.787	0.08
690.11	0.08
690.432	0.08
690.755	0.07
691.077	0.08
691.399	0.07
691.721	0.07
692.043	0.07
692.365	0.07
692.687	0.07
693.009	0.07
693.331	0.07
693.653	0.07
693.974	0.07
694.296	0.07
694.618	0.07
694.939	0.07
695.261	0.06
695.582	0.06
695.904	0.06
696.225	0.07
696.546	0.07
696.868	0.06
697.189	0.06
697.51	0.06
697.831	0.06
698.152	0.06
698.473	0.06
698.794	0.05
699.114	0.05
699.435	0.04
699.756	0.05
700.077	0.05
700.397	0.05
700.718	0.05
701.038	0.06
701.359	0.06
701.679	0.06
701.999	0.05
702.32	0.05
702.64	0.05
702.96	0.05
703.28	0.05
703.6	0.05
703.92	0.05
704.24	0.05
704.56	0.04
704.879	0.04
705.199	0.05
705.519	0.05
705.838	0.05
706.158	0.05
706.478	0.05
706.797	0.05
707.116	0.05
707.436	0.05
707.755	0.05
708.074	0.05
708.393	0.04
708.712	0.04
709.031	0.03
709.35	0.03
709.669	0.03
709.988	0.03
710.307	0.03
710.626	0.04
710.944	0.04
711.263	0.04
711.582	0.04
711.9	0.04
712.219	0.04
712.537	0.04
712.855	0.04
713.174	0.05
713.492	0.04
713.81	0.05
714.128	0.04
714.446	0.04
714.764	0.04
715.082	0.04
715.4	0.04
715.718	0.04
716.035	0.04
716.353	0.04
716.671	0.04
716.988	0.04
717.306	0.04
717.623	0.04
717.941	0.05
718.258	0.05
718.575	0.05
718.893	0.05
719.21	0.05
719.527	0.05
719.844	0.05
720.161	0.05
720.478	0.05
720.795	0.05
721.112	0.05
721.428	0.05
721.745	0.05
722.062	0.05
722.378	0.05
722.695	0.05
723.011	0.05
723.328	0.05
723.644	0.05
723.96	0.05
724.276	0.06
724.593	0.05
724.909	0.05
725.225	0.06
725.541	0.06
725.857	0.05
726.173	0.05
726.488	0.06
726.804	0.05
727.12	0.05
727.435	0.05
727.751	0.05
728.067	0.05
728.382	0.06
728.697	0.05
729.013	0.06
729.328	0.05
729.643	0.05
729.958	0.05
730.273	0.05
730.588	0.05
730.903	0.05
731.218	0.05
731.533	0.05
731.848	0.05
732.163	0.05
732.477	0.05
732.792	0.05
733.107	0.05
733.421	0.05
733.736	0.05
734.05	0.05
734.364	0.05
734.678	0.05
734.993	0.05
735.307	0.05
735.621	0.05
735.935	0.05
736.249	0.05
736.563	0.05
736.877	0.05
737.19	0.05
737.504	0.05
737.818	0.05
738.131	0.05
738.445	0.05
738.758	0.05
739.072	0.05
739.385	0.05
739.698	0.05
740.012	0.05
740.325	0.05
740.638	0.04
740.951	0.04
741.264	0.04
741.577	0.04
741.89	0.04
742.203	0.04
742.515	0.04
742.828	0.04
743.141	0.04
743.453	0.04
743.766	0.04
744.078	0.04
744.391	0.04
744.703	0.04
745.015	0.04
745.327	0.04
745.639	0.04
745.952	0.04
746.264	0.04
746.575	0.04
746.887	0.04
747.199	0.04
747.511	0.04
747.823	0.04
748.134	0.04
748.446	0.04
748.757	0.04
749.069	0.04
749.38	0.04
749.692	0.04
750.003	0.04
750.314	0.04
750.625	0.04
750.936	0.04
751.248	0.04
751.559	0.03
751.869	0.04
752.18	0.04
752.491	0.03
752.802	0.03
753.112	0.03
753.423	0.03
753.734	0.03
754.044	0.03
754.355	0.04
754.665	0.03
754.975	0.03
755.285	0.03
755.596	0.03
755.906	0.03
756.216	0.03
756.526	0.03
756.836	0.03
757.146	0.03
757.455	0.03
757.765	0.03
758.075	0.03
758.385	0.02
758.694	0.02
759.004	0.02
759.313	0.02
759.622	0.02
759.932	0.02
760.241	0.03
760.55	0.02
760.859	0.02
761.168	0.02
761.477	0.02
761.786	0.02
762.095	0.02
762.404	0.02
762.713	0.02
763.021	0.02
763.33	0.02
763.639	0.02
763.947	0.02
764.256	0.02
764.564	0.02
764.872	0.02
765.181	0.02
765.489	0.02
765.797	0.02
766.105	0.02
766.413	0.02
766.721	0.02
767.029	0.02
767.337	0.02
767.644	0.02
767.952	0.02
768.26	0.02
768.567	0.02
768.875	0.02
769.182	0.02
769.49	0.02
769.797	0.02
770.104	0.02
770.411	0.02
770.718	0.02
771.026	0.02
771.333	0.02
771.639	0.02
771.946	0.02
772.253	0.02
772.56	0.02
772.867	0.02
773.173	0.02
773.48	0.02
773.786	0.02
774.093	0.02
774.399	0.02
774.705	0.02
775.012	0.02
775.318	0.02
775.624	0.02
775.93	0.02
776.236	0.02
776.542	0.02
776.848	0.02
777.154	0.02
777.459	0.02
777.765	0.02
778.071	0.02
778.376	0.02
778.682	0.02
778.987	0.02
779.292	0.02
779.598	0.02
779.903	0.02
780.208	0.02
780.513	0.02
780.818	0.02
781.123	0.02
781.428	0.02
781.733	0.02
782.038	0.02
782.343	0.02
782.647	0.02
782.952	0.02
783.256	0.02
783.561	0.02
783.865	0.02
784.17	0.02
784.474	0.03
784.778	0.03
785.082	0.03
785.386	0.03
785.69	0.03
785.994	0.03
786.298	0.03
786.602	0.03
786.906	0.02
787.209	0.03
787.513	0.03
787.817	0.03
788.12	0.03
788.424	0.03
788.727	0.03
789.03	0.02
789.333	0.02
789.637	0.02
789.94	0.02
790.243	0.02
790.546	0.02
790.849	0.02
791.152	0.02
791.454	0.02
791.757	0.02
792.06	0.03
792.362	0.02
792.665	0.02
792.967	0.02
793.27	0.02
793.572	0.02
793.874	0.02
794.177	0.02
794.479	0.02
794.781	0.02
795.083	0.02
795.385	0.02
795.687	0.02
795.989	0.02
796.29	0.02
796.592	0.03
796.894	0.02
797.195	0.03
797.497	0.03
797.798	0.03
798.1	0.03
798.401	0.02
798.702	0.02
799.003	0.02
799.304	0.02
799.605	0.02
799.906	0.02
800.207	0.03
800.508	0.03
800.809	0.03
801.11	0.02
801.41	0.03
801.711	0.02
802.011	0.03
802.312	0.03
802.612	0.03
802.913	0.03
803.213	0.03
803.513	0.03
803.813	0.03
804.113	0.03
804.413	0.02
804.713	0.03
805.013	0.02
805.313	0.02
805.613	0.03
805.912	0.02
806.212	0.02
806.511	0.03
806.811	0.02
807.11	0.02
807.41	0.03
807.709	0.03
808.008	0.03
808.307	0.03
808.606	0.03
808.905	0.03
809.204	0.04
809.503	0.03
809.802	0.03
810.101	0.03
810.399	0.03
810.698	0.04
810.997	0.03
811.295	0.03
811.593	0.03
811.892	0.03
812.19	0.03
812.488	0.03
812.786	0.03
813.084	0.03
813.383	0.03
813.68	0.03
813.978	0.03
814.276	0.03
814.574	0.03
814.872	0.03
815.169	0.03
815.467	0.03
815.764	0.03
816.062	0.03
816.359	0.03
816.656	0.04
816.954	0.03
817.251	0.03
817.548	0.03
817.845	0.04
818.142	0.04
818.439	0.03
818.735	0.03
819.032	0.03
819.329	0.03
819.626	0.03
819.922	0.03
820.219	0.03
820.515	0.03
820.811	0.03
821.108	0.03
821.404	0.03
821.7	0.03
821.996	0.04
822.292	0.04
822.588	0.04
822.884	0.04
823.18	0.04
823.475	0.04
823.771	0.04
824.067	0.04
824.362	0.04
824.658	0.04
824.953	0.04
825.249	0.03
825.544	0.04
825.839	0.04
826.134	0.04
826.429	0.04
826.724	0.04
827.019	0.04
827.314	0.04
827.609	0.04
827.904	0.04
828.198	0.04
828.493	0.03
828.787	0.04
829.082	0.04
829.376	0.04
829.671	0.04
829.965	0.04
830.259	0.04
830.553	0.04
830.847	0.04
831.141	0.04
831.435	0.04
831.729	0.04
832.023	0.04
832.317	0.04
832.61	0.04
832.904	0.04
833.197	0.04
833.491	0.04
833.784	0.04
834.077	0.04
834.371	0.04
834.664	0.04
834.957	0.04
835.25	0.04
835.543	0.04
835.836	0.03
836.129	0.03
836.421	0.03
836.714	0.03
837.007	0.03
837.299	0.04
837.592	0.04
837.884	0.04
838.177	0.04
838.469	0.04
838.761	0.04
839.053	0.03
839.345	0.04
839.637	0.04
839.929	0.04
840.221	0.05
840.513	0.04
840.805	0.04
841.096	0.04
841.388	0.04
841.68	0.05
841.971	0.04
842.262	0.04
842.554	0.04
842.845	0.03
843.136	0.04
843.427	0.04
843.718	0.04
844.009	0.04
844.3	0.04
844.591	0.05
844.882	0.04
845.173	0.05
845.463	0.04
845.754	0.05
846.044	0.05
846.335	0.05
846.625	0.05
846.915	0.06
847.206	0.04
847.496	0.05
847.786	0.05
848.076	0.05
848.366	0.05
848.656	0.05
848.945	0.04
849.235	0.04
849.525	0.04
849.814	0.04
850.104	0.05
850.393	0.06
850.683	0.05
850.972	0.04
851.261	0.06
851.551	0.06
851.84	0.05
852.129	0.04
852.418	0.04
852.707	0.04
852.995	0.04
853.284	0.05
853.573	0.05
853.862	0.05
854.15	0.04
854.439	0.04
854.727	0.04
855.015	0.05
855.304	0.05
855.592	0.06
855.88	0.05
856.168	0.05
856.456	0.06
856.744	0.07
857.032	0.05
857.32	0.04
857.607	0.06
857.895	0.06
858.183	0.06
858.47	0.05
858.757	0.06
859.045	0.06
859.332	0.06
859.619	0.05
859.907	0.06
860.194	0.05
860.481	0.05
860.768	0.05
861.054	0.05
861.341	0.05
861.628	0.06
861.915	0.07
862.201	0.07
862.488	0.07
862.774	0.06
863.061	0.07
863.347	0.03
863.633	0.05
863.919	0.05
864.205	0.03
864.491	0.05
864.777	0.04
865.063	0.07
865.349	0.06
865.635	0.05
865.92	0.07
866.206	0.05
866.492	0.06
866.777	0.04
867.062	0.05
867.348	0.04
867.633	0.04
867.918	0.03
868.203	0.05
868.488	0.05
868.773	0.05
869.058	0.06
869.343	0.06
869.628	0.01
869.912	0.03
870.197	0.05
870.482	0.05
870.766	0.05
871.05	0.04
871.335	0.04
871.619	0.02
871.903	0.07
872.187	0.04
872.471	-0
872.755	0.03
873.039	0.04
873.323	0.01
873.607	0.03
873.89	0.06
874.174	0.05
874.458	0.07
874.741	0.06
875.024	0.04
875.308	0.03
875.591	0.03
875.874	0.05
876.157	0.09
876.44	0.07
876.723	0.08
877.006	0.04
877.289	0.03
877.572	0.1
877.854	0.03
878.137	-0
878.42	0.03
878.702	0.06
878.984	0.01
879.267	0.08
879.549	0.08
879.831	0.07
880.113	0.15
880.395	0.06
880.677	0.08
880.959	-0.01
