Data from Rubpy_BV_1500_EDTA_Buffered_Absorbance_14-26-05-666.txt Node
Date: Wed Jul 01 14:26:05 BST 2026
User: fpm-admin
Spectrometer: OFX00224
Trigger mode: 0
Integration Time (sec): 7.000000E-2
Scans to average: 3
Nonlinearity correction enabled: false
Boxcar width: 0
Storing dark spectrum: false
XAxis mode: Wavelengths
Number of Pixels in Spectrum: 2136
>>>>>Begin Spectral Data<<<<<
154.91	-0
155.289	-0
155.669	-0
156.048	-0
156.428	0.03
156.807	0.78
157.186	-0
157.566	-0.06
157.945	-0
158.325	-0.18
158.704	-0.78
159.083	0.51
159.462	0.23
159.842	-0
160.221	-0.51
160.6	-1.2
160.979	0.11
161.359	-0.06
161.738	-0
162.117	-0.3
162.496	-0.21
162.875	-0.4
163.254	-0
163.633	-0
164.012	0.13
164.391	-0
164.77	0.07
165.149	-0
165.528	-0
165.907	0.36
166.286	-0
166.665	-0.09
167.044	-0
167.423	0.16
167.802	-0
168.181	-0.09
168.559	0.1
168.938	-0.1
169.317	-0
169.696	0.15
170.074	0.6
170.453	0.12
170.832	0.19
171.21	0.81
171.589	0.25
171.968	-0.35
172.346	0.69
172.725	-0.21
173.103	-0
173.482	-1.08
173.861	-0
174.239	-0
174.617	0.13
174.996	0.78
175.374	0.67
175.753	-0.27
176.131	-0
176.51	-0
176.888	-0
177.266	-0
177.645	-0.03
178.023	-0
178.401	-0.18
178.779	0.03
179.158	-0
179.536	-0
179.914	0.1
180.292	0.64
180.67	-0.85
181.048	-0
181.427	-0
181.805	-0.5
182.183	-0.26
182.561	0.38
182.939	-0
183.317	-0.12
183.695	0.88
184.073	0.16
184.451	-0.28
184.829	-0
185.206	-0
185.584	-0
185.962	-0
186.34	-0
186.718	-1.18
187.096	-0.86
187.473	-0.34
187.851	-0
188.229	-0
188.607	0.16
188.984	0.17
189.362	0.28
189.74	0.19
190.117	0.23
190.495	0.11
190.872	0.15
191.25	0.33
191.627	0.11
192.005	0.08
192.382	0.24
192.76	0.21
193.137	0.2
193.515	0.06
193.892	0.11
194.269	0.12
194.647	0.18
195.024	0.17
195.401	0.19
195.779	0.2
196.156	0.22
196.533	0.23
196.91	0.12
197.288	0.24
197.665	0.16
198.042	0.18
198.419	0.28
198.796	0.12
199.173	0.25
199.55	0.23
199.927	0.25
200.304	0.26
200.681	0.22
201.058	0.23
201.435	0.18
201.812	0.3
202.189	0.17
202.566	0.21
202.943	0.14
203.32	0.11
203.697	0.17
204.073	0.15
204.45	0.2
204.827	0.27
205.204	0.13
205.58	0.28
205.957	0.18
206.334	0.13
206.71	0.15
207.087	0.24
207.464	0.19
207.84	0.09
208.217	0.26
208.593	0.16
208.97	0.22
209.346	0.34
209.723	0.1
210.099	0.2
210.476	0.22
210.852	0.18
211.228	0.18
211.605	0.28
211.981	0.1
212.357	0.19
212.733	0.19
213.11	0.18
213.486	0.18
213.862	0.18
214.238	0.21
214.614	0.2
214.991	0.16
215.367	0.15
215.743	0.17
216.119	0.14
216.495	0.31
216.871	0.23
217.247	0.18
217.623	0.17
217.999	0.16
218.375	0.16
218.751	0.24
219.127	0.22
219.502	0.26
219.878	0.21
220.254	0.16
220.63	0.3
221.006	0.14
221.381	0.22
221.757	0.3
222.133	0.21
222.508	0.25
222.884	0.27
223.26	0.13
223.635	0.19
224.011	0.48
224.386	0.38
224.762	0.28
225.137	0.32
225.513	0.25
225.888	0.29
226.264	0.36
226.639	0.18
227.014	0.24
227.39	0.12
227.765	0.3
228.14	0.19
228.516	0.21
228.891	0.26
229.266	0.27
229.641	0.25
230.017	0.2
230.392	0.23
230.767	0.23
231.142	0.19
231.517	0.21
231.892	0.35
232.267	0.17
232.642	0.28
233.017	0.15
233.392	0.3
233.767	0.22
234.142	0.22
234.517	0.31
234.892	0.25
235.267	0.21
235.641	0.15
236.016	0.13
236.391	0.33
236.766	0.25
237.14	0.2
237.515	0.24
237.89	0.16
238.264	0.26
238.639	0.19
239.014	0.28
239.388	0.23
239.763	0.18
240.137	0.25
240.512	0.19
240.886	0.22
241.261	0.12
241.635	0.25
242.009	0.22
242.384	0.25
242.758	0.2
243.132	0.22
243.507	0.23
243.881	0.16
244.255	0.35
244.629	0.16
245.004	0.28
245.378	0.2
245.752	0.24
246.126	0.29
246.5	0.17
246.874	0.16
247.248	0.19
247.622	0.13
247.996	0.2
248.37	0.22
248.744	0.24
249.118	0.21
249.492	0.24
249.866	0.25
250.24	0.32
250.613	0.2
250.987	0.26
251.361	0.24
251.735	0.28
252.108	0.19
252.482	0.17
252.856	0.23
253.229	0.35
253.603	0.21
253.977	0.15
254.35	0.22
254.724	0.17
255.097	0.24
255.471	0.29
255.844	0.3
256.218	0.16
256.591	0.27
256.964	0.2
257.338	0.19
257.711	0.21
258.084	0.25
258.458	0.16
258.831	0.25
259.204	0.22
259.577	0.24
259.95	0.26
260.323	0.19
260.697	0.25
261.07	0.3
261.443	0.18
261.816	0.21
262.189	0.26
262.562	0.2
262.935	0.32
263.308	0.18
263.68	0.14
264.053	0.27
264.426	0.3
264.799	0.25
265.172	0.25
265.545	0.21
265.917	0.19
266.29	0.17
266.663	0.26
267.035	0.21
267.408	0.24
267.781	0.28
268.153	0.29
268.526	0.27
268.898	0.25
269.271	0.18
269.643	0.19
270.016	0.17
270.388	0.27
270.76	0.25
271.133	0.26
271.505	0.31
271.877	0.27
272.25	0.21
272.622	0.32
272.994	0.22
273.366	0.21
273.739	0.24
274.111	0.24
274.483	0.2
274.855	0.25
275.227	0.22
275.599	0.16
275.971	0.21
276.343	0.19
276.715	0.26
277.087	0.31
277.459	0.22
277.831	0.27
278.203	0.23
278.574	0.22
278.946	0.25
279.318	0.3
279.69	0.21
280.061	0.22
280.433	0.23
280.805	0.23
281.176	0.27
281.548	0.27
281.92	0.34
282.291	0.25
282.663	0.3
283.034	0.22
283.406	0.24
283.777	0.14
284.148	0.34
284.52	0.36
284.891	0.28
285.262	0.28
285.634	0.21
286.005	0.41
286.376	0.29
286.747	0.25
287.119	0.23
287.49	0.24
287.861	0.26
288.232	0.3
288.603	0.29
288.974	0.26
289.345	0.19
289.716	0.24
290.087	0.28
290.458	0.27
290.829	0.21
291.2	0.26
291.571	0.24
291.941	0.21
292.312	0.26
292.683	0.35
293.054	0.29
293.424	0.34
293.795	0.28
294.166	0.27
294.536	0.35
294.907	0.28
295.277	0.31
295.648	0.34
296.018	0.21
296.389	0.28
296.759	0.28
297.13	0.32
297.5	0.26
297.871	0.37
298.241	0.27
298.611	0.32
298.981	0.34
299.352	0.23
299.722	0.32
300.092	0.29
300.462	0.23
300.832	0.26
301.202	0.3
301.573	0.25
301.943	0.26
302.313	0.25
302.683	0.24
303.053	0.29
303.422	0.3
303.792	0.24
304.162	0.25
304.532	0.24
304.902	0.16
305.272	0.25
305.641	0.23
306.011	0.26
306.381	0.21
306.75	0.25
307.12	0.23
307.49	0.24
307.859	0.23
308.229	0.24
308.598	0.2
308.968	0.18
309.337	0.19
309.707	0.2
310.076	0.22
310.445	0.19
310.815	0.19
311.184	0.18
311.553	0.15
311.923	0.19
312.292	0.2
312.661	0.22
313.03	0.19
313.399	0.19
313.768	0.22
314.137	0.2
314.506	0.2
314.875	0.22
315.244	0.22
315.613	0.22
315.982	0.23
316.351	0.21
316.72	0.24
317.089	0.23
317.458	0.23
317.826	0.24
318.195	0.24
318.564	0.25
318.933	0.24
319.301	0.25
319.67	0.26
320.038	0.25
320.407	0.26
320.775	0.27
321.144	0.26
321.512	0.27
321.881	0.28
322.249	0.27
322.618	0.27
322.986	0.29
323.354	0.29
323.723	0.29
324.091	0.3
324.459	0.29
324.827	0.3
325.195	0.31
325.564	0.31
325.932	0.33
326.3	0.32
326.668	0.33
327.036	0.33
327.404	0.34
327.772	0.34
328.14	0.36
328.508	0.35
328.875	0.35
329.243	0.36
329.611	0.37
329.979	0.37
330.346	0.38
330.714	0.39
331.082	0.39
331.449	0.38
331.817	0.4
332.185	0.4
332.552	0.42
332.92	0.43
333.287	0.44
333.655	0.44
334.022	0.44
334.389	0.46
334.757	0.47
335.124	0.48
335.491	0.49
335.859	0.49
336.226	0.5
336.593	0.51
336.96	0.53
337.327	0.54
337.695	0.54
338.062	0.55
338.429	0.56
338.796	0.57
339.163	0.58
339.53	0.59
339.897	0.61
340.263	0.61
340.63	0.62
340.997	0.63
341.364	0.64
341.731	0.66
342.097	0.67
342.464	0.67
342.831	0.68
343.197	0.69
343.564	0.71
343.931	0.72
344.297	0.73
344.664	0.74
345.03	0.75
345.396	0.77
345.763	0.77
346.129	0.78
346.496	0.8
346.862	0.8
347.228	0.82
347.594	0.83
347.961	0.84
348.327	0.86
348.693	0.86
349.059	0.87
349.425	0.88
349.791	0.9
350.157	0.91
350.523	0.91
350.889	0.93
351.255	0.94
351.621	0.93
351.987	0.96
352.353	0.96
352.719	0.97
353.084	0.98
353.45	0.99
353.816	1.02
354.181	1.02
354.547	1.04
354.913	1.05
355.278	1.06
355.644	1.05
356.009	1.08
356.375	1.08
356.74	1.1
357.106	1.12
357.471	1.14
357.836	1.15
358.202	1.17
358.567	1.17
358.932	1.2
359.297	1.21
359.663	1.23
360.028	1.24
360.393	1.24
360.758	1.27
361.123	1.28
361.488	1.29
361.853	1.3
362.218	1.32
362.583	1.32
362.948	1.32
363.312	1.37
363.677	1.38
364.042	1.39
364.407	1.41
364.772	1.41
365.136	1.43
365.501	1.43
365.865	1.46
366.23	1.46
366.595	1.46
366.959	1.48
367.324	1.49
367.688	1.52
368.052	1.52
368.417	1.53
368.781	1.54
369.145	1.54
369.51	1.54
369.874	1.56
370.238	1.57
370.602	1.56
370.967	1.57
371.331	1.57
371.695	1.57
372.059	1.57
372.423	1.58
372.787	1.58
373.151	1.59
373.515	1.57
373.878	1.56
374.242	1.56
374.606	1.55
374.97	1.55
375.334	1.52
375.697	1.54
376.061	1.51
376.425	1.5
376.788	1.49
377.152	1.48
377.515	1.46
377.879	1.47
378.242	1.44
378.606	1.41
378.969	1.4
379.333	1.39
379.696	1.39
380.059	1.37
380.422	1.33
380.786	1.33
381.149	1.32
381.512	1.3
381.875	1.28
382.238	1.26
382.601	1.25
382.964	1.24
383.327	1.22
383.69	1.22
384.053	1.2
384.416	1.18
384.779	1.17
385.142	1.17
385.504	1.15
385.867	1.14
386.23	1.15
386.593	1.13
386.955	1.13
387.318	1.12
387.68	1.12
388.043	1.11
388.405	1.1
388.768	1.09
389.13	1.1
389.493	1.08
389.855	1.08
390.217	1.06
390.58	1.06
390.942	1.04
391.304	1.04
391.666	1.02
392.028	1
392.391	0.99
392.753	0.98
393.115	0.96
393.477	0.95
393.839	0.94
394.201	0.93
394.563	0.93
394.924	0.93
395.286	0.92
395.648	0.92
396.01	0.92
396.371	0.94
396.733	0.95
397.095	0.95
397.456	0.98
397.818	0.99
398.18	1.01
398.541	1.02
398.903	1.06
399.264	1.07
399.625	1.09
399.987	1.11
400.348	1.13
400.709	1.14
401.071	1.15
401.432	1.16
401.793	1.15
402.154	1.14
402.515	1.13
402.876	1.13
403.238	1.08
403.599	1.07
403.96	1.04
404.32	1
404.681	0.96
405.042	0.93
405.403	0.9
405.764	0.85
406.125	0.82
406.485	0.77
406.846	0.74
407.207	0.7
407.567	0.67
407.928	0.63
408.288	0.59
408.649	0.56
409.009	0.52
409.37	0.5
409.73	0.48
410.091	0.45
410.451	0.42
410.811	0.41
411.171	0.39
411.532	0.37
411.892	0.36
412.252	0.34
412.612	0.33
412.972	0.31
413.332	0.29
413.692	0.28
414.052	0.27
414.412	0.26
414.772	0.25
415.132	0.25
415.492	0.24
415.851	0.23
416.211	0.22
416.571	0.21
416.931	0.21
417.29	0.2
417.65	0.2
418.009	0.2
418.369	0.19
418.728	0.19
419.088	0.18
419.447	0.18
419.807	0.17
420.166	0.17
420.525	0.17
420.884	0.16
421.244	0.16
421.603	0.16
421.962	0.16
422.321	0.15
422.68	0.15
423.039	0.14
423.398	0.14
423.757	0.14
424.116	0.14
424.475	0.14
424.834	0.14
425.193	0.14
425.551	0.14
425.91	0.13
426.269	0.12
426.628	0.13
426.986	0.13
427.345	0.13
427.703	0.13
428.062	0.12
428.42	0.12
428.779	0.12
429.137	0.12
429.496	0.12
429.854	0.12
430.212	0.12
430.57	0.12
430.929	0.11
431.287	0.12
431.645	0.11
432.003	0.12
432.361	0.11
432.719	0.12
433.077	0.12
433.435	0.12
433.793	0.12
434.151	0.12
434.509	0.13
434.866	0.12
435.224	0.12
435.582	0.11
435.94	0.12
436.297	0.12
436.655	0.11
437.012	0.11
437.37	0.11
437.727	0.12
438.085	0.12
438.442	0.12
438.8	0.11
439.157	0.12
439.514	0.12
439.872	0.12
440.229	0.12
440.586	0.12
440.943	0.12
441.3	0.12
441.657	0.12
442.014	0.12
442.371	0.12
442.728	0.12
443.085	0.13
443.442	0.12
443.799	0.12
444.156	0.11
444.513	0.12
444.869	0.12
445.226	0.12
445.583	0.13
445.939	0.11
446.296	0.13
446.652	0.12
447.009	0.13
447.365	0.13
447.722	0.13
448.078	0.13
448.434	0.13
448.791	0.13
449.147	0.13
449.503	0.13
449.859	0.13
450.215	0.13
450.571	0.13
450.928	0.13
451.284	0.14
451.64	0.14
451.995	0.13
452.351	0.14
452.707	0.15
453.063	0.13
453.419	0.14
453.775	0.14
454.13	0.14
454.486	0.15
454.842	0.15
455.197	0.15
455.553	0.15
455.908	0.14
456.264	0.15
456.619	0.15
456.975	0.14
457.33	0.15
457.685	0.16
458.04	0.15
458.396	0.16
458.751	0.16
459.106	0.17
459.461	0.17
459.816	0.17
460.171	0.16
460.526	0.16
460.881	0.16
461.236	0.16
461.591	0.18
461.946	0.17
462.301	0.16
462.655	0.17
463.01	0.18
463.365	0.18
463.719	0.17
464.074	0.17
464.428	0.18
464.783	0.18
465.137	0.18
465.492	0.18
465.846	0.18
466.201	0.18
466.555	0.18
466.909	0.19
467.263	0.19
467.618	0.19
467.972	0.2
468.326	0.2
468.68	0.2
469.034	0.2
469.388	0.2
469.742	0.2
470.096	0.2
470.45	0.21
470.804	0.22
471.157	0.21
471.511	0.21
471.865	0.22
472.218	0.23
472.572	0.22
472.926	0.23
473.279	0.23
473.633	0.23
473.986	0.24
474.34	0.23
474.693	0.24
475.046	0.25
475.4	0.25
475.753	0.25
476.106	0.25
476.459	0.26
476.812	0.26
477.165	0.26
477.519	0.27
477.872	0.26
478.224	0.28
478.577	0.28
478.93	0.28
479.283	0.28
479.636	0.29
479.989	0.29
480.341	0.29
480.694	0.29
481.047	0.3
481.399	0.3
481.752	0.31
482.104	0.31
482.457	0.31
482.809	0.32
483.162	0.32
483.514	0.32
483.866	0.33
484.219	0.33
484.571	0.33
484.923	0.34
485.275	0.34
485.627	0.34
485.979	0.34
486.331	0.35
486.683	0.35
487.035	0.35
487.387	0.35
487.739	0.36
488.091	0.36
488.443	0.37
488.794	0.37
489.146	0.37
489.498	0.38
489.849	0.38
490.201	0.38
490.552	0.38
490.904	0.39
491.255	0.39
491.607	0.39
491.958	0.4
492.309	0.4
492.661	0.4
493.012	0.4
493.363	0.41
493.714	0.41
494.065	0.41
494.416	0.41
494.767	0.42
495.118	0.43
495.469	0.42
495.82	0.43
496.171	0.44
496.522	0.44
496.872	0.44
497.223	0.44
497.574	0.45
497.924	0.45
498.275	0.45
498.626	0.45
498.976	0.46
499.327	0.46
499.677	0.47
500.027	0.47
500.378	0.47
500.728	0.47
501.078	0.48
501.428	0.48
501.779	0.48
502.129	0.49
502.479	0.49
502.829	0.49
503.179	0.49
503.529	0.5
503.879	0.51
504.229	0.51
504.578	0.51
504.928	0.51
505.278	0.52
505.628	0.52
505.977	0.52
506.327	0.52
506.676	0.53
507.026	0.53
507.375	0.54
507.725	0.54
508.074	0.54
508.424	0.54
508.773	0.55
509.122	0.55
509.471	0.55
509.82	0.55
510.17	0.55
510.519	0.56
510.868	0.57
511.217	0.57
511.566	0.57
511.915	0.58
512.263	0.57
512.612	0.58
512.961	0.58
513.31	0.58
513.659	0.59
514.007	0.59
514.356	0.59
514.704	0.6
515.053	0.6
515.401	0.6
515.75	0.6
516.098	0.61
516.447	0.61
516.795	0.62
517.143	0.61
517.491	0.61
517.839	0.62
518.188	0.62
518.536	0.62
518.884	0.63
519.232	0.63
519.58	0.63
519.928	0.63
520.275	0.63
520.623	0.65
520.971	0.65
521.319	0.65
521.666	0.64
522.014	0.64
522.362	0.65
522.709	0.65
523.057	0.65
523.404	0.65
523.752	0.66
524.099	0.66
524.446	0.66
524.794	0.66
525.141	0.66
525.488	0.67
525.835	0.67
526.182	0.67
526.529	0.67
526.876	0.67
527.223	0.68
527.57	0.68
527.917	0.67
528.264	0.68
528.611	0.68
528.958	0.68
529.304	0.68
529.651	0.68
529.998	0.69
530.344	0.69
530.691	0.69
531.037	0.7
531.384	0.7
531.73	0.7
532.076	0.7
532.423	0.69
532.769	0.7
533.115	0.7
533.461	0.7
533.807	0.7
534.154	0.7
534.5	0.71
534.846	0.71
535.192	0.71
535.537	0.71
535.883	0.71
536.229	0.72
536.575	0.72
536.921	0.72
537.266	0.72
537.612	0.73
537.957	0.72
538.303	0.73
538.649	0.72
538.994	0.73
539.339	0.72
539.685	0.73
540.03	0.73
540.375	0.72
540.721	0.73
541.066	0.73
541.411	0.73
541.756	0.74
542.101	0.73
542.446	0.73
542.791	0.73
543.136	0.73
543.481	0.73
543.825	0.74
544.17	0.74
544.515	0.74
544.86	0.73
545.204	0.74
545.549	0.73
545.893	0.74
546.238	0.74
546.582	0.74
546.927	0.74
547.271	0.74
547.615	0.74
547.96	0.74
548.304	0.74
548.648	0.75
548.992	0.74
549.336	0.74
549.68	0.75
550.024	0.75
550.368	0.75
550.712	0.75
551.056	0.75
551.4	0.75
551.743	0.74
552.087	0.75
552.431	0.75
552.774	0.74
553.118	0.74
553.462	0.74
553.805	0.74
554.148	0.75
554.492	0.74
554.835	0.74
555.178	0.75
555.522	0.74
555.865	0.74
556.208	0.75
556.551	0.75
556.894	0.75
557.237	0.75
557.58	0.74
557.923	0.74
558.266	0.74
558.609	0.74
558.952	0.74
559.294	0.74
559.637	0.74
559.98	0.74
560.322	0.74
560.665	0.74
561.007	0.74
561.35	0.73
561.692	0.74
562.034	0.73
562.377	0.73
562.719	0.73
563.061	0.73
563.403	0.73
563.745	0.73
564.088	0.73
564.43	0.73
564.772	0.73
565.113	0.73
565.455	0.72
565.797	0.72
566.139	0.72
566.481	0.73
566.822	0.72
567.164	0.72
567.506	0.71
567.847	0.72
568.189	0.71
568.53	0.71
568.872	0.71
569.213	0.72
569.554	0.71
569.895	0.71
570.237	0.71
570.578	0.7
570.919	0.71
571.26	0.7
571.601	0.7
571.942	0.7
572.283	0.7
572.624	0.7
572.965	0.69
573.306	0.69
573.646	0.69
573.987	0.69
574.328	0.69
574.668	0.69
575.009	0.68
575.349	0.68
575.69	0.68
576.03	0.68
576.37	0.67
576.711	0.67
577.051	0.67
577.391	0.67
577.731	0.67
578.072	0.67
578.412	0.67
578.752	0.66
579.092	0.66
579.431	0.65
579.771	0.64
580.111	0.62
580.451	0.63
580.791	0.65
581.13	0.65
581.47	0.65
581.81	0.65
582.149	0.65
582.489	0.65
582.828	0.64
583.167	0.61
583.507	0.57
583.846	0.56
584.185	0.59
584.525	0.61
584.864	0.63
585.203	0.64
585.542	0.64
585.881	0.64
586.22	0.64
586.559	0.64
586.898	0.62
587.236	0.62
587.575	0.61
587.914	0.62
588.252	0.63
588.591	0.63
588.93	0.63
589.268	0.63
589.607	0.63
589.945	0.63
590.283	0.63
590.622	0.63
590.96	0.63
591.298	0.63
591.636	0.63
591.974	0.64
592.313	0.63
592.651	0.64
592.989	0.63
593.326	0.63
593.664	0.63
594.002	0.63
594.34	0.63
594.678	0.62
595.015	0.62
595.353	0.61
595.691	0.62
596.028	0.63
596.366	0.63
596.703	0.63
597.04	0.63
597.378	0.63
597.715	0.63
598.052	0.63
598.389	0.63
598.726	0.63
599.064	0.63
599.401	0.63
599.738	0.62
600.074	0.63
600.411	0.62
600.748	0.62
601.085	0.61
601.422	0.61
601.758	0.61
602.095	0.61
602.432	0.61
602.768	0.61
603.105	0.61
603.441	0.61
603.777	0.62
604.114	0.62
604.45	0.62
604.786	0.61
605.122	0.61
605.459	0.61
605.795	0.6
606.131	0.6
606.467	0.6
606.803	0.6
607.139	0.61
607.474	0.6
607.81	0.59
608.146	0.6
608.482	0.6
608.817	0.59
609.153	0.59
609.488	0.59
609.824	0.58
610.159	0.59
610.495	0.58
610.83	0.59
611.165	0.58
611.5	0.58
611.836	0.58
612.171	0.58
612.506	0.58
612.841	0.58
613.176	0.57
613.511	0.57
613.845	0.57
614.18	0.57
614.515	0.57
614.85	0.56
615.184	0.56
615.519	0.56
615.854	0.56
616.188	0.56
616.523	0.55
616.857	0.55
617.191	0.55
617.526	0.55
617.86	0.54
618.194	0.54
618.528	0.55
618.862	0.55
619.196	0.54
619.53	0.54
619.864	0.54
620.198	0.54
620.532	0.53
620.866	0.53
621.2	0.53
621.533	0.53
621.867	0.53
622.201	0.52
622.534	0.52
622.868	0.52
623.201	0.52
623.534	0.52
623.868	0.51
624.201	0.51
624.534	0.51
624.868	0.51
625.201	0.5
625.534	0.5
625.867	0.5
626.2	0.5
626.533	0.5
626.865	0.49
627.198	0.5
627.531	0.49
627.864	0.49
628.196	0.49
628.529	0.48
628.862	0.48
629.194	0.48
629.527	0.47
629.859	0.47
630.191	0.46
630.524	0.47
630.856	0.47
631.188	0.46
631.52	0.46
631.852	0.46
632.184	0.45
632.516	0.45
632.848	0.45
633.18	0.45
633.512	0.44
633.844	0.44
634.175	0.44
634.507	0.44
634.839	0.43
635.17	0.43
635.502	0.43
635.833	0.43
636.165	0.42
636.496	0.42
636.827	0.41
637.159	0.41
637.49	0.41
637.821	0.4
638.152	0.4
638.483	0.4
638.814	0.4
639.145	0.4
639.476	0.39
639.807	0.39
640.137	0.39
640.468	0.39
640.799	0.38
641.129	0.38
641.46	0.38
641.791	0.38
642.121	0.37
642.451	0.37
642.782	0.37
643.112	0.36
643.442	0.36
643.773	0.36
644.103	0.36
644.433	0.36
644.763	0.36
645.093	0.36
645.423	0.36
645.753	0.35
646.082	0.35
646.412	0.35
646.742	0.34
647.072	0.34
647.401	0.34
647.731	0.34
648.06	0.34
648.39	0.34
648.719	0.33
649.048	0.33
649.378	0.33
649.707	0.33
650.036	0.33
650.365	0.33
650.694	0.33
651.023	0.33
651.352	0.32
651.681	0.32
652.01	0.32
652.339	0.32
652.668	0.32
652.996	0.32
653.325	0.32
653.654	0.32
653.982	0.32
654.311	0.32
654.639	0.31
654.967	0.31
655.296	0.31
655.624	0.31
655.952	0.31
656.28	0.31
656.609	0.31
656.937	0.31
657.265	0.3
657.593	0.19
657.92	0.09
658.248	0.04
658.576	0.07
658.904	0.16
659.231	0.24
659.559	0.29
659.887	0.29
660.214	0.29
660.542	0.29
660.869	0.29
661.196	0.29
661.524	0.28
661.851	0.28
662.178	0.29
662.505	0.28
662.832	0.28
663.159	0.28
663.486	0.28
663.813	0.28
664.14	0.28
664.467	0.28
664.794	0.28
665.12	0.28
665.447	0.27
665.774	0.27
666.1	0.27
666.427	0.27
666.753	0.27
667.079	0.27
667.406	0.26
667.732	0.27
668.058	0.27
668.384	0.26
668.71	0.26
669.036	0.26
669.362	0.26
669.688	0.26
670.014	0.26
670.34	0.25
670.666	0.25
670.991	0.25
671.317	0.25
671.643	0.25
671.968	0.25
672.294	0.25
672.619	0.24
672.945	0.24
673.27	0.24
673.595	0.24
673.92	0.23
674.246	0.23
674.571	0.23
674.896	0.23
675.221	0.23
675.546	0.23
675.87	0.23
676.195	0.22
676.52	0.22
676.845	0.22
677.169	0.22
677.494	0.22
677.819	0.21
678.143	0.21
678.468	0.21
678.792	0.21
679.116	0.21
679.44	0.2
679.765	0.2
680.089	0.2
680.413	0.19
680.737	0.2
681.061	0.19
681.385	0.19
681.709	0.19
682.033	0.18
682.356	0.18
682.68	0.19
683.004	0.19
683.327	0.18
683.651	0.18
683.974	0.17
684.298	0.17
684.621	0.17
684.944	0.17
685.268	0.17
685.591	0.17
685.914	0.16
686.237	0.16
686.56	0.16
686.883	0.15
687.206	0.15
687.529	0.15
687.852	0.15
688.175	0.15
688.497	0.15
688.82	0.15
689.142	0.15
689.465	0.14
689.787	0.14
690.11	0.14
690.432	0.14
690.755	0.14
691.077	0.14
691.399	0.13
691.721	0.13
692.043	0.13
692.365	0.13
692.687	0.13
693.009	0.12
693.331	0.13
693.653	0.12
693.974	0.12
694.296	0.12
694.618	0.12
694.939	0.12
695.261	0.12
695.582	0.12
695.904	0.11
696.225	0.11
696.546	0.11
696.868	0.11
697.189	0.11
697.51	0.11
697.831	0.11
698.152	0.11
698.473	0.1
698.794	0.1
699.114	0.1
699.435	0.09
699.756	0.09
700.077	0.1
700.397	0.1
700.718	0.1
701.038	0.1
701.359	0.1
701.679	0.1
701.999	0.1
702.32	0.1
702.64	0.09
702.96	0.09
703.28	0.09
703.6	0.09
703.92	0.09
704.24	0.09
704.56	0.08
704.879	0.09
705.199	0.09
705.519	0.09
705.838	0.09
706.158	0.09
706.478	0.09
706.797	0.09
707.116	0.09
707.436	0.09
707.755	0.09
708.074	0.09
708.393	0.09
708.712	0.08
709.031	0.07
709.35	0.07
709.669	0.07
709.988	0.07
710.307	0.07
710.626	0.08
710.944	0.08
711.263	0.08
711.582	0.08
711.9	0.09
712.219	0.08
712.537	0.08
712.855	0.08
713.174	0.08
713.492	0.08
713.81	0.09
714.128	0.08
714.446	0.09
714.764	0.08
715.082	0.08
715.4	0.08
715.718	0.08
716.035	0.08
716.353	0.08
716.671	0.08
716.988	0.08
717.306	0.08
717.623	0.09
717.941	0.09
718.258	0.09
718.575	0.09
718.893	0.09
719.21	0.09
719.527	0.09
719.844	0.09
720.161	0.08
720.478	0.09
720.795	0.09
721.112	0.09
721.428	0.09
721.745	0.09
722.062	0.09
722.378	0.09
722.695	0.09
723.011	0.09
723.328	0.09
723.644	0.09
723.96	0.09
724.276	0.09
724.593	0.09
724.909	0.09
725.225	0.09
725.541	0.09
725.857	0.09
726.173	0.09
726.488	0.09
726.804	0.09
727.12	0.09
727.435	0.09
727.751	0.09
728.067	0.09
728.382	0.09
728.697	0.09
729.013	0.09
729.328	0.09
729.643	0.09
729.958	0.09
730.273	0.09
730.588	0.09
730.903	0.09
731.218	0.09
731.533	0.09
731.848	0.09
732.163	0.09
732.477	0.09
732.792	0.09
733.107	0.08
733.421	0.08
733.736	0.08
734.05	0.09
734.364	0.08
734.678	0.09
734.993	0.08
735.307	0.09
735.621	0.08
735.935	0.08
736.249	0.08
736.563	0.09
736.877	0.08
737.19	0.08
737.504	0.09
737.818	0.08
738.131	0.08
738.445	0.08
738.758	0.08
739.072	0.08
739.385	0.08
739.698	0.08
740.012	0.08
740.325	0.08
740.638	0.08
740.951	0.08
741.264	0.08
741.577	0.08
741.89	0.08
742.203	0.08
742.515	0.08
742.828	0.08
743.141	0.08
743.453	0.08
743.766	0.08
744.078	0.08
744.391	0.07
744.703	0.08
745.015	0.08
745.327	0.08
745.639	0.07
745.952	0.07
746.264	0.07
746.575	0.07
746.887	0.07
747.199	0.07
747.511	0.07
747.823	0.07
748.134	0.07
748.446	0.06
748.757	0.07
749.069	0.06
749.38	0.06
749.692	0.06
750.003	0.06
750.314	0.06
750.625	0.06
750.936	0.06
751.248	0.06
751.559	0.06
751.869	0.07
752.18	0.06
752.491	0.06
752.802	0.06
753.112	0.06
753.423	0.06
753.734	0.06
754.044	0.06
754.355	0.06
754.665	0.06
754.975	0.06
755.285	0.06
755.596	0.05
755.906	0.05
756.216	0.05
756.526	0.06
756.836	0.05
757.146	0.05
757.455	0.05
757.765	0.05
758.075	0.05
758.385	0.05
758.694	0.05
759.004	0.05
759.313	0.04
759.622	0.05
759.932	0.05
760.241	0.05
760.55	0.05
760.859	0.05
761.168	0.05
761.477	0.05
761.786	0.05
762.095	0.04
762.404	0.04
762.713	0.04
763.021	0.04
763.33	0.05
763.639	0.05
763.947	0.05
764.256	0.05
764.564	0.05
764.872	0.04
765.181	0.05
765.489	0.05
765.797	0.04
766.105	0.04
766.413	0.04
766.721	0.04
767.029	0.04
767.337	0.05
767.644	0.05
767.952	0.05
768.26	0.05
768.567	0.05
768.875	0.05
769.182	0.04
769.49	0.04
769.797	0.04
770.104	0.04
770.411	0.04
770.718	0.04
771.026	0.04
771.333	0.04
771.639	0.05
771.946	0.05
772.253	0.05
772.56	0.05
772.867	0.05
773.173	0.04
773.48	0.05
773.786	0.04
774.093	0.04
774.399	0.05
774.705	0.04
775.012	0.04
775.318	0.04
775.624	0.04
775.93	0.05
776.236	0.04
776.542	0.05
776.848	0.05
777.154	0.04
777.459	0.04
777.765	0.04
778.071	0.04
778.376	0.04
778.682	0.04
778.987	0.04
779.292	0.05
779.598	0.04
779.903	0.04
780.208	0.05
780.513	0.04
780.818	0.04
781.123	0.04
781.428	0.04
781.733	0.04
782.038	0.04
782.343	0.05
782.647	0.04
782.952	0.04
783.256	0.04
783.561	0.04
783.865	0.05
784.17	0.05
784.474	0.05
784.778	0.05
785.082	0.05
785.386	0.05
785.69	0.05
785.994	0.05
786.298	0.05
786.602	0.05
786.906	0.05
787.209	0.05
787.513	0.05
787.817	0.06
788.12	0.05
788.424	0.05
788.727	0.05
789.03	0.05
789.333	0.05
789.637	0.05
789.94	0.06
790.243	0.05
790.546	0.06
790.849	0.05
791.152	0.05
791.454	0.06
791.757	0.06
792.06	0.06
792.362	0.06
792.665	0.06
792.967	0.05
793.27	0.06
793.572	0.06
793.874	0.06
794.177	0.06
794.479	0.06
794.781	0.05
795.083	0.05
795.385	0.05
795.687	0.05
795.989	0.05
796.29	0.06
796.592	0.06
796.894	0.06
797.195	0.06
797.497	0.06
797.798	0.06
798.1	0.06
798.401	0.06
798.702	0.06
799.003	0.06
799.304	0.06
799.605	0.06
799.906	0.06
800.207	0.06
800.508	0.06
800.809	0.06
801.11	0.06
801.41	0.06
801.711	0.06
802.011	0.06
802.312	0.06
802.612	0.06
802.913	0.06
803.213	0.07
803.513	0.06
803.813	0.06
804.113	0.06
804.413	0.05
804.713	0.06
805.013	0.06
805.313	0.05
805.613	0.06
805.912	0.06
806.212	0.06
806.511	0.07
806.811	0.06
807.11	0.06
807.41	0.07
807.709	0.07
808.008	0.07
808.307	0.06
808.606	0.07
808.905	0.07
809.204	0.07
809.503	0.07
809.802	0.07
810.101	0.07
810.399	0.07
810.698	0.07
810.997	0.07
811.295	0.07
811.593	0.07
811.892	0.07
812.19	0.07
812.488	0.07
812.786	0.06
813.084	0.07
813.383	0.07
813.68	0.06
813.978	0.07
814.276	0.07
814.574	0.07
814.872	0.08
815.169	0.08
815.467	0.08
815.764	0.07
816.062	0.08
816.359	0.08
816.656	0.08
816.954	0.08
817.251	0.08
817.548	0.08
817.845	0.08
818.142	0.08
818.439	0.08
818.735	0.08
819.032	0.08
819.329	0.07
819.626	0.07
819.922	0.08
820.219	0.08
820.515	0.08
820.811	0.09
821.108	0.08
821.404	0.08
821.7	0.08
821.996	0.09
822.292	0.08
822.588	0.08
822.884	0.09
823.18	0.09
823.475	0.09
823.771	0.09
824.067	0.09
824.362	0.08
824.658	0.08
824.953	0.08
825.249	0.08
825.544	0.09
825.839	0.09
826.134	0.08
826.429	0.09
826.724	0.08
827.019	0.09
827.314	0.09
827.609	0.09
827.904	0.1
828.198	0.09
828.493	0.09
828.787	0.09
829.082	0.09
829.376	0.09
829.671	0.09
829.965	0.09
830.259	0.09
830.553	0.09
830.847	0.09
831.141	0.09
831.435	0.1
831.729	0.1
832.023	0.1
832.317	0.1
832.61	0.1
832.904	0.1
833.197	0.1
833.491	0.1
833.784	0.1
834.077	0.1
834.371	0.09
834.664	0.1
834.957	0.1
835.25	0.09
835.543	0.09
835.836	0.1
836.129	0.08
836.421	0.1
836.714	0.09
837.007	0.09
837.299	0.1
837.592	0.09
837.884	0.1
838.177	0.1
838.469	0.1
838.761	0.09
839.053	0.09
839.345	0.1
839.637	0.09
839.929	0.1
840.221	0.1
840.513	0.1
840.805	0.1
841.096	0.1
841.388	0.1
841.68	0.1
841.971	0.1
842.262	0.1
842.554	0.1
842.845	0.09
843.136	0.1
843.427	0.11
843.718	0.1
844.009	0.1
844.3	0.11
844.591	0.11
844.882	0.1
845.173	0.1
845.463	0.1
845.754	0.11
846.044	0.11
846.335	0.11
846.625	0.11
846.915	0.12
847.206	0.11
847.496	0.12
847.786	0.11
848.076	0.11
848.366	0.11
848.656	0.1
848.945	0.11
849.235	0.11
849.525	0.11
849.814	0.11
850.104	0.12
850.393	0.11
850.683	0.11
850.972	0.12
851.261	0.12
851.551	0.12
851.84	0.11
852.129	0.11
852.418	0.11
852.707	0.12
852.995	0.11
853.284	0.12
853.573	0.11
853.862	0.11
854.15	0.1
854.439	0.11
854.727	0.12
855.015	0.12
855.304	0.11
855.592	0.12
855.88	0.11
856.168	0.12
856.456	0.12
856.744	0.12
857.032	0.13
857.32	0.12
857.607	0.12
857.895	0.12
858.183	0.12
858.47	0.11
858.757	0.13
859.045	0.13
859.332	0.13
859.619	0.12
859.907	0.13
860.194	0.13
860.481	0.12
860.768	0.12
861.054	0.13
861.341	0.12
861.628	0.14
861.915	0.15
862.201	0.13
862.488	0.14
862.774	0.14
863.061	0.15
863.347	0.11
863.633	0.13
863.919	0.11
864.205	0.11
864.491	0.13
864.777	0.11
865.063	0.13
865.349	0.13
865.635	0.13
865.92	0.12
866.206	0.13
866.492	0.15
866.777	0.14
867.062	0.11
867.348	0.14
867.633	0.15
867.918	0.14
868.203	0.16
868.488	0.14
868.773	0.12
869.058	0.13
869.343	0.14
869.628	0.13
869.912	0.12
870.197	0.12
870.482	0.13
870.766	0.14
871.05	0.08
871.335	0.14
871.619	0.11
871.903	0.13
872.187	0.13
872.471	0.13
872.755	0.08
873.039	0.13
873.323	0.12
873.607	0.12
873.89	0.14
874.174	0.12
874.458	0.1
874.741	0.14
875.024	0.11
875.308	0.08
875.591	0.11
875.874	0.11
876.157	0.2
876.44	0.13
876.723	0.12
877.006	0.09
877.289	0.07
877.572	0.12
877.854	0.06
878.137	0.06
878.42	0.08
878.702	0.12
878.984	0.12
879.267	0.1
879.549	0.13
879.831	0.17
880.113	0.16
880.395	0.13
880.677	0.17
880.959	0.05
