Data from Rubpy_BV_1500_EDTA_Buffered_Absorbance_14-14-50-684.txt Node
Date: Wed Jul 01 14:14:50 BST 2026
User: fpm-admin
Spectrometer: OFX00224
Trigger mode: 0
Integration Time (sec): 7.000000E-2
Scans to average: 3
Nonlinearity correction enabled: false
Boxcar width: 0
Storing dark spectrum: false
XAxis mode: Wavelengths
Number of Pixels in Spectrum: 2136
>>>>>Begin Spectral Data<<<<<
154.91	-0
155.289	0.28
155.669	-0.78
156.048	-0
156.428	-0
156.807	-0
157.186	-0.27
157.566	0.17
157.945	-0
158.325	-0.18
158.704	-0
159.083	-0.42
159.462	-0
159.842	-0.11
160.221	-0.39
160.6	-1.11
160.979	-0.44
161.359	-0
161.738	-0
162.117	-0.42
162.496	-0.51
162.875	0.08
163.254	1.04
163.633	-0.12
164.012	-0.15
164.391	-0.02
164.77	0.25
165.149	-0
165.528	-0
165.907	-0
166.286	-0
166.665	-0.16
167.044	0.17
167.423	-0
167.802	-0
168.181	-0
168.559	0.02
168.938	-0.31
169.317	-0
169.696	0.44
170.074	-0.27
170.453	-0.06
170.832	0.13
171.21	0.37
171.589	0.41
171.968	-0
172.346	0.65
172.725	-0
173.103	-0
173.482	-1.29
173.861	-0
174.239	-0
174.617	1.43
174.996	0.38
175.374	0.35
175.753	-0.53
176.131	0.48
176.51	-0.12
176.888	-0
177.266	1
177.645	-0.05
178.023	1.1
178.401	-0.16
178.779	0.03
179.158	0.12
179.536	-0.47
179.914	-0.18
180.292	0.16
180.67	-0
181.048	0.39
181.427	0.26
181.805	0.38
182.183	-0
182.561	0.02
182.939	-0
183.317	0.06
183.695	-0.07
184.073	-0
184.451	-0.44
184.829	-0
185.206	-0.44
185.584	-0.22
185.962	-0
186.34	-0
186.718	-0
187.096	-0.71
187.473	0.16
187.851	-0.09
188.229	0.33
188.607	0.13
188.984	0.14
189.362	0.18
189.74	0.12
190.117	0.04
190.495	-0
190.872	0.15
191.25	0.19
191.627	0
192.005	0.04
192.382	0.1
192.76	0.26
193.137	0.16
193.515	0.05
193.892	0.05
194.269	0.01
194.647	0.21
195.024	0.07
195.401	0.06
195.779	0.02
196.156	0.14
196.533	0.07
196.91	0.14
197.288	0.11
197.665	0.14
198.042	0.33
198.419	0.2
198.796	0.25
199.173	0.12
199.55	0.05
199.927	0.22
200.304	0.28
200.681	0.12
201.058	0.19
201.435	0.21
201.812	0.11
202.189	0.08
202.566	0.05
202.943	0.06
203.32	0.14
203.697	0.16
204.073	0.15
204.45	0.07
204.827	0.22
205.204	0.12
205.58	0.06
205.957	0.06
206.334	0.1
206.71	0.08
207.087	0.12
207.464	0.12
207.84	0.09
208.217	0.13
208.593	0.12
208.97	0.14
209.346	0.17
209.723	0.16
210.099	0.08
210.476	0.13
210.852	0.07
211.228	0.08
211.605	0.07
211.981	0.03
212.357	0.15
212.733	0.04
213.11	0.13
213.486	0.07
213.862	0.08
214.238	0.15
214.614	0.06
214.991	0.04
215.367	0.1
215.743	0.13
216.119	0.16
216.495	0.27
216.871	0.17
217.247	0.14
217.623	0.01
217.999	0.16
218.375	0.08
218.751	0.17
219.127	0.19
219.502	0.09
219.878	0.15
220.254	0.12
220.63	0.17
221.006	0.16
221.381	0.17
221.757	0.2
222.133	0.11
222.508	0.27
222.884	0.13
223.26	0.04
223.635	0.18
224.011	0.23
224.386	0.16
224.762	0.15
225.137	0.17
225.513	0.19
225.888	0.13
226.264	0.19
226.639	0.17
227.014	0.14
227.39	0.08
227.765	0.17
228.14	0.15
228.516	0.08
228.891	0.18
229.266	0.17
229.641	0.2
230.017	0.2
230.392	0.17
230.767	0.11
231.142	0.13
231.517	0.1
231.892	0.23
232.267	0.15
232.642	0.05
233.017	0.11
233.392	0.08
233.767	0.1
234.142	0.06
234.517	0.21
234.892	0.15
235.267	0.18
235.641	0.03
236.016	0.03
236.391	0.21
236.766	0.16
237.14	0.11
237.515	0.05
237.89	0.12
238.264	0.16
238.639	0.03
239.014	0.06
239.388	0.09
239.763	0.12
240.137	0.09
240.512	0.16
240.886	0.21
241.261	0.05
241.635	0.05
242.009	0.15
242.384	0.18
242.758	0.09
243.132	0.21
243.507	0.1
243.881	0.07
244.255	0.13
244.629	0.06
245.004	0.11
245.378	0.17
245.752	0.18
246.126	0.17
246.5	0.08
246.874	0.03
247.248	0.14
247.622	0.03
247.996	0.13
248.37	0.13
248.744	0.05
249.118	0.11
249.492	0.13
249.866	0.02
250.24	0.18
250.613	0.1
250.987	0.2
251.361	0.14
251.735	0.18
252.108	0.12
252.482	0.06
252.856	0.2
253.229	0.19
253.603	0.17
253.977	0.11
254.35	0.16
254.724	0.13
255.097	0.1
255.471	0.17
255.844	0.13
256.218	0.2
256.591	0.25
256.964	0.09
257.338	0.08
257.711	0.1
258.084	0.11
258.458	0.07
258.831	0.21
259.204	0.23
259.577	0.14
259.95	0.13
260.323	0.15
260.697	0.17
261.07	0.15
261.443	0.15
261.816	0.14
262.189	0.12
262.562	0.1
262.935	0.14
263.308	0.16
263.68	0.11
264.053	0.24
264.426	0.19
264.799	0.14
265.172	0.09
265.545	0.19
265.917	0.1
266.29	0.05
266.663	0.17
267.035	0.13
267.408	0.09
267.781	0.14
268.153	0.17
268.526	0.11
268.898	0.14
269.271	0.09
269.643	0.16
270.016	0.15
270.388	0.21
270.76	0.08
271.133	0.12
271.505	0.17
271.877	0.16
272.25	0.2
272.622	0.19
272.994	0.19
273.366	0.09
273.739	0.11
274.111	0.09
274.483	0.07
274.855	0.14
275.227	0.1
275.599	0.07
275.971	0.1
276.343	0.1
276.715	0.14
277.087	0.13
277.459	0.13
277.831	0.21
278.203	0.18
278.574	0.13
278.946	0.06
279.318	0.13
279.69	0.1
280.061	0.12
280.433	0.16
280.805	0.11
281.176	0.12
281.548	0.19
281.92	0.14
282.291	0.08
282.663	0.14
283.034	0.13
283.406	0.13
283.777	0.15
284.148	0.11
284.52	0.18
284.891	0.12
285.262	0.17
285.634	0.09
286.005	0.07
286.376	0.18
286.747	0.14
287.119	0.14
287.49	0.1
287.861	0.09
288.232	0.15
288.603	0.16
288.974	0.11
289.345	0.15
289.716	0.14
290.087	0.18
290.458	0.18
290.829	0.09
291.2	0.2
291.571	0.09
291.941	0.08
292.312	0.2
292.683	0.09
293.054	0.16
293.424	0.11
293.795	0.1
294.166	0.11
294.536	0.2
294.907	0.26
295.277	0.2
295.648	0.16
296.018	0.19
296.389	0.12
296.759	0.08
297.13	0.16
297.5	0.16
297.871	0.13
298.241	0.15
298.611	0.22
298.981	0.12
299.352	0.12
299.722	0.22
300.092	0.18
300.462	0.1
300.832	0.14
301.202	0.15
301.573	0.13
301.943	0.11
302.313	0.1
302.683	0.21
303.053	0.17
303.422	0.17
303.792	0.12
304.162	0.12
304.532	0.16
304.902	0.09
305.272	0.13
305.641	0.12
306.011	0.11
306.381	0.08
306.75	0.1
307.12	0.1
307.49	0.13
307.859	0.12
308.229	0.1
308.598	0.09
308.968	0.08
309.337	0.1
309.707	0.1
310.076	0.08
310.445	0.13
310.815	0.08
311.184	0.1
311.553	0.08
311.923	0.08
312.292	0.09
312.661	0.1
313.03	0.12
313.399	0.1
313.768	0.11
314.137	0.09
314.506	0.09
314.875	0.09
315.244	0.1
315.613	0.1
315.982	0.11
316.351	0.08
316.72	0.1
317.089	0.11
317.458	0.1
317.826	0.1
318.195	0.12
318.564	0.11
318.933	0.11
319.301	0.11
319.67	0.12
320.038	0.11
320.407	0.11
320.775	0.11
321.144	0.13
321.512	0.13
321.881	0.13
322.249	0.12
322.618	0.12
322.986	0.12
323.354	0.12
323.723	0.13
324.091	0.12
324.459	0.13
324.827	0.13
325.195	0.13
325.564	0.13
325.932	0.12
326.3	0.13
326.668	0.14
327.036	0.14
327.404	0.14
327.772	0.14
328.14	0.14
328.508	0.15
328.875	0.15
329.243	0.16
329.611	0.15
329.979	0.15
330.346	0.15
330.714	0.15
331.082	0.16
331.449	0.16
331.817	0.16
332.185	0.17
332.552	0.17
332.92	0.18
333.287	0.18
333.655	0.18
334.022	0.18
334.389	0.18
334.757	0.18
335.124	0.19
335.491	0.19
335.859	0.2
336.226	0.2
336.593	0.21
336.96	0.21
337.327	0.21
337.695	0.21
338.062	0.22
338.429	0.22
338.796	0.22
339.163	0.23
339.53	0.23
339.897	0.24
340.263	0.24
340.63	0.25
340.997	0.25
341.364	0.25
341.731	0.26
342.097	0.26
342.464	0.26
342.831	0.27
343.197	0.27
343.564	0.28
343.931	0.28
344.297	0.29
344.664	0.29
345.03	0.29
345.396	0.3
345.763	0.31
346.129	0.31
346.496	0.31
346.862	0.32
347.228	0.32
347.594	0.33
347.961	0.33
348.327	0.34
348.693	0.34
349.059	0.34
349.425	0.35
349.791	0.35
350.157	0.36
350.523	0.36
350.889	0.36
351.255	0.37
351.621	0.36
351.987	0.38
352.353	0.38
352.719	0.39
353.084	0.4
353.45	0.39
353.816	0.4
354.181	0.4
354.547	0.41
354.913	0.42
355.278	0.42
355.644	0.43
356.009	0.43
356.375	0.44
356.74	0.44
357.106	0.45
357.471	0.45
357.836	0.46
358.202	0.47
358.567	0.48
358.932	0.47
359.297	0.48
359.663	0.5
360.028	0.51
360.393	0.51
360.758	0.52
361.123	0.52
361.488	0.53
361.853	0.54
362.218	0.54
362.583	0.55
362.948	0.56
363.312	0.56
363.677	0.57
364.042	0.57
364.407	0.59
364.772	0.6
365.136	0.6
365.501	0.61
365.865	0.61
366.23	0.62
366.595	0.63
366.959	0.62
367.324	0.63
367.688	0.63
368.052	0.64
368.417	0.65
368.781	0.65
369.145	0.66
369.51	0.66
369.874	0.67
370.238	0.68
370.602	0.67
370.967	0.68
371.331	0.69
371.695	0.69
372.059	0.7
372.423	0.7
372.787	0.7
373.151	0.7
373.515	0.69
373.878	0.69
374.242	0.69
374.606	0.69
374.97	0.68
375.334	0.67
375.697	0.67
376.061	0.66
376.425	0.66
376.788	0.65
377.152	0.64
377.515	0.65
377.879	0.64
378.242	0.63
378.606	0.63
378.969	0.61
379.333	0.61
379.696	0.6
380.059	0.59
380.422	0.59
380.786	0.58
381.149	0.57
381.512	0.57
381.875	0.56
382.238	0.56
382.601	0.55
382.964	0.55
383.327	0.55
383.69	0.55
384.053	0.54
384.416	0.54
384.779	0.54
385.142	0.53
385.504	0.53
385.867	0.53
386.23	0.53
386.593	0.53
386.955	0.53
387.318	0.53
387.68	0.53
388.043	0.53
388.405	0.53
388.768	0.54
389.13	0.54
389.493	0.53
389.855	0.53
390.217	0.53
390.58	0.54
390.942	0.53
391.304	0.52
391.666	0.52
392.028	0.51
392.391	0.51
392.753	0.5
393.115	0.49
393.477	0.48
393.839	0.48
394.201	0.48
394.563	0.48
394.924	0.48
395.286	0.48
395.648	0.48
396.01	0.48
396.371	0.49
396.733	0.5
397.095	0.51
397.456	0.52
397.818	0.53
398.18	0.55
398.541	0.56
398.903	0.58
399.264	0.59
399.625	0.61
399.987	0.62
400.348	0.63
400.709	0.64
401.071	0.65
401.432	0.65
401.793	0.65
402.154	0.64
402.515	0.64
402.876	0.63
403.238	0.62
403.599	0.6
403.96	0.58
404.32	0.56
404.681	0.54
405.042	0.52
405.403	0.49
405.764	0.47
406.125	0.45
406.485	0.43
406.846	0.4
407.207	0.38
407.567	0.36
407.928	0.34
408.288	0.32
408.649	0.3
409.009	0.28
409.37	0.27
409.73	0.25
410.091	0.24
410.451	0.23
410.811	0.22
411.171	0.2
411.532	0.19
411.892	0.18
412.252	0.18
412.612	0.17
412.972	0.16
413.332	0.15
413.692	0.15
414.052	0.14
414.412	0.14
414.772	0.13
415.132	0.12
415.492	0.12
415.851	0.11
416.211	0.11
416.571	0.1
416.931	0.1
417.29	0.1
417.65	0.1
418.009	0.1
418.369	0.1
418.728	0.09
419.088	0.09
419.447	0.08
419.807	0.09
420.166	0.08
420.525	0.08
420.884	0.08
421.244	0.08
421.603	0.08
421.962	0.08
422.321	0.08
422.68	0.07
423.039	0.07
423.398	0.07
423.757	0.07
424.116	0.08
424.475	0.07
424.834	0.07
425.193	0.06
425.551	0.07
425.91	0.07
426.269	0.06
426.628	0.06
426.986	0.06
427.345	0.07
427.703	0.06
428.062	0.06
428.42	0.06
428.779	0.07
429.137	0.06
429.496	0.06
429.854	0.06
430.212	0.06
430.57	0.05
430.929	0.05
431.287	0.06
431.645	0.05
432.003	0.05
432.361	0.05
432.719	0.06
433.077	0.05
433.435	0.05
433.793	0.06
434.151	0.05
434.509	0.05
434.866	0.06
435.224	0.04
435.582	0.05
435.94	0.06
436.297	0.05
436.655	0.05
437.012	0.05
437.37	0.05
437.727	0.06
438.085	0.05
438.442	0.04
438.8	0.05
439.157	0.05
439.514	0.06
439.872	0.05
440.229	0.06
440.586	0.04
440.943	0.06
441.3	0.05
441.657	0.05
442.014	0.05
442.371	0.05
442.728	0.05
443.085	0.06
443.442	0.05
443.799	0.05
444.156	0.05
444.513	0.04
444.869	0.05
445.226	0.05
445.583	0.06
445.939	0.05
446.296	0.06
446.652	0.05
447.009	0.05
447.365	0.05
447.722	0.06
448.078	0.06
448.434	0.05
448.791	0.05
449.147	0.05
449.503	0.05
449.859	0.06
450.215	0.05
450.571	0.06
450.928	0.06
451.284	0.06
451.64	0.06
451.995	0.05
452.351	0.07
452.707	0.06
453.063	0.05
453.419	0.05
453.775	0.06
454.13	0.06
454.486	0.07
454.842	0.06
455.197	0.06
455.553	0.06
455.908	0.05
456.264	0.06
456.619	0.06
456.975	0.05
457.33	0.06
457.685	0.06
458.04	0.06
458.396	0.07
458.751	0.05
459.106	0.06
459.461	0.07
459.816	0.06
460.171	0.07
460.526	0.06
460.881	0.06
461.236	0.05
461.591	0.07
461.946	0.06
462.301	0.06
462.655	0.07
463.01	0.06
463.365	0.06
463.719	0.06
464.074	0.06
464.428	0.06
464.783	0.06
465.137	0.06
465.492	0.06
465.846	0.06
466.201	0.06
466.555	0.06
466.909	0.05
467.263	0.06
467.618	0.06
467.972	0.07
468.326	0.07
468.68	0.06
469.034	0.06
469.388	0.07
469.742	0.06
470.096	0.06
470.45	0.07
470.804	0.08
471.157	0.07
471.511	0.07
471.865	0.08
472.218	0.08
472.572	0.08
472.926	0.08
473.279	0.07
473.633	0.08
473.986	0.08
474.34	0.09
474.693	0.08
475.046	0.09
475.4	0.08
475.753	0.09
476.106	0.09
476.459	0.09
476.812	0.09
477.165	0.1
477.519	0.1
477.872	0.09
478.224	0.1
478.577	0.1
478.93	0.1
479.283	0.1
479.636	0.1
479.989	0.11
480.341	0.1
480.694	0.11
481.047	0.11
481.399	0.11
481.752	0.11
482.104	0.11
482.457	0.12
482.809	0.11
483.162	0.12
483.514	0.12
483.866	0.12
484.219	0.12
484.571	0.12
484.923	0.13
485.275	0.13
485.627	0.13
485.979	0.13
486.331	0.13
486.683	0.13
487.035	0.13
487.387	0.13
487.739	0.14
488.091	0.14
488.443	0.14
488.794	0.14
489.146	0.14
489.498	0.14
489.849	0.14
490.201	0.15
490.552	0.15
490.904	0.15
491.255	0.15
491.607	0.15
491.958	0.15
492.309	0.16
492.661	0.15
493.012	0.15
493.363	0.16
493.714	0.16
494.065	0.16
494.416	0.16
494.767	0.16
495.118	0.17
495.469	0.17
495.82	0.16
496.171	0.17
496.522	0.17
496.872	0.17
497.223	0.17
497.574	0.18
497.924	0.17
498.275	0.18
498.626	0.17
498.976	0.18
499.327	0.18
499.677	0.18
500.027	0.17
500.378	0.18
500.728	0.18
501.078	0.19
501.428	0.19
501.779	0.19
502.129	0.2
502.479	0.19
502.829	0.19
503.179	0.19
503.529	0.19
503.879	0.2
504.229	0.2
504.578	0.2
504.928	0.2
505.278	0.2
505.628	0.21
505.977	0.2
506.327	0.21
506.676	0.21
507.026	0.21
507.375	0.21
507.725	0.21
508.074	0.21
508.424	0.22
508.773	0.21
509.122	0.22
509.471	0.22
509.82	0.22
510.17	0.22
510.519	0.22
510.868	0.23
511.217	0.22
511.566	0.23
511.915	0.23
512.263	0.22
512.612	0.23
512.961	0.23
513.31	0.23
513.659	0.23
514.007	0.24
514.356	0.24
514.704	0.24
515.053	0.24
515.401	0.24
515.75	0.24
516.098	0.24
516.447	0.25
516.795	0.25
517.143	0.24
517.491	0.24
517.839	0.25
518.188	0.24
518.536	0.25
518.884	0.25
519.232	0.25
519.58	0.25
519.928	0.25
520.275	0.25
520.623	0.25
520.971	0.26
521.319	0.26
521.666	0.26
522.014	0.26
522.362	0.26
522.709	0.26
523.057	0.26
523.404	0.26
523.752	0.27
524.099	0.27
524.446	0.27
524.794	0.27
525.141	0.26
525.488	0.27
525.835	0.27
526.182	0.27
526.529	0.27
526.876	0.27
527.223	0.28
527.57	0.28
527.917	0.28
528.264	0.28
528.611	0.27
528.958	0.28
529.304	0.28
529.651	0.27
529.998	0.28
530.344	0.28
530.691	0.28
531.037	0.28
531.384	0.29
531.73	0.29
532.076	0.28
532.423	0.29
532.769	0.29
533.115	0.29
533.461	0.29
533.807	0.29
534.154	0.29
534.5	0.29
534.846	0.29
535.192	0.29
535.537	0.29
535.883	0.29
536.229	0.29
536.575	0.29
536.921	0.3
537.266	0.3
537.612	0.3
537.957	0.3
538.303	0.3
538.649	0.3
538.994	0.3
539.339	0.3
539.685	0.3
540.03	0.3
540.375	0.3
540.721	0.3
541.066	0.3
541.411	0.3
541.756	0.31
542.101	0.31
542.446	0.3
542.791	0.31
543.136	0.31
543.481	0.31
543.825	0.31
544.17	0.31
544.515	0.31
544.86	0.31
545.204	0.31
545.549	0.31
545.893	0.31
546.238	0.32
546.582	0.31
546.927	0.31
547.271	0.31
547.615	0.32
547.96	0.31
548.304	0.32
548.648	0.31
548.992	0.32
549.336	0.31
549.68	0.31
550.024	0.32
550.368	0.32
550.712	0.32
551.056	0.32
551.4	0.32
551.743	0.32
552.087	0.32
552.431	0.32
552.774	0.32
553.118	0.32
553.462	0.32
553.805	0.32
554.148	0.32
554.492	0.32
554.835	0.32
555.178	0.32
555.522	0.32
555.865	0.32
556.208	0.32
556.551	0.32
556.894	0.32
557.237	0.32
557.58	0.32
557.923	0.32
558.266	0.32
558.609	0.32
558.952	0.32
559.294	0.32
559.637	0.32
559.98	0.32
560.322	0.32
560.665	0.32
561.007	0.32
561.35	0.32
561.692	0.32
562.034	0.32
562.377	0.32
562.719	0.32
563.061	0.32
563.403	0.32
563.745	0.32
564.088	0.32
564.43	0.32
564.772	0.32
565.113	0.32
565.455	0.32
565.797	0.31
566.139	0.32
566.481	0.31
566.822	0.32
567.164	0.31
567.506	0.31
567.847	0.32
568.189	0.32
568.53	0.31
568.872	0.31
569.213	0.32
569.554	0.31
569.895	0.31
570.237	0.31
570.578	0.31
570.919	0.31
571.26	0.31
571.601	0.31
571.942	0.31
572.283	0.31
572.624	0.3
572.965	0.3
573.306	0.3
573.646	0.3
573.987	0.3
574.328	0.3
574.668	0.3
575.009	0.3
575.349	0.3
575.69	0.29
576.03	0.29
576.37	0.29
576.711	0.29
577.051	0.29
577.391	0.29
577.731	0.3
578.072	0.29
578.412	0.29
578.752	0.29
579.092	0.29
579.431	0.28
579.771	0.26
580.111	0.25
580.451	0.27
580.791	0.28
581.13	0.29
581.47	0.28
581.81	0.29
582.149	0.28
582.489	0.29
582.828	0.28
583.167	0.25
583.507	0.22
583.846	0.2
584.185	0.23
584.525	0.25
584.864	0.27
585.203	0.28
585.542	0.29
585.881	0.28
586.22	0.29
586.559	0.28
586.898	0.27
587.236	0.26
587.575	0.26
587.914	0.27
588.252	0.28
588.591	0.29
588.93	0.28
589.268	0.28
589.607	0.28
589.945	0.28
590.283	0.28
590.622	0.28
590.96	0.29
591.298	0.29
591.636	0.29
591.974	0.29
592.313	0.29
592.651	0.29
592.989	0.29
593.326	0.29
593.664	0.29
594.002	0.29
594.34	0.29
594.678	0.28
595.015	0.28
595.353	0.27
595.691	0.28
596.028	0.29
596.366	0.29
596.703	0.29
597.04	0.29
597.378	0.29
597.715	0.3
598.052	0.29
598.389	0.3
598.726	0.29
599.064	0.29
599.401	0.29
599.738	0.29
600.074	0.29
600.411	0.29
600.748	0.29
601.085	0.28
601.422	0.28
601.758	0.28
602.095	0.28
602.432	0.28
602.768	0.28
603.105	0.29
603.441	0.29
603.777	0.29
604.114	0.29
604.45	0.29
604.786	0.29
605.122	0.29
605.459	0.28
605.795	0.29
606.131	0.28
606.467	0.28
606.803	0.28
607.139	0.29
607.474	0.28
607.81	0.28
608.146	0.29
608.482	0.28
608.817	0.28
609.153	0.28
609.488	0.28
609.824	0.28
610.159	0.28
610.495	0.28
610.83	0.28
611.165	0.28
611.5	0.28
611.836	0.28
612.171	0.27
612.506	0.28
612.841	0.28
613.176	0.27
613.511	0.27
613.845	0.27
614.18	0.27
614.515	0.27
614.85	0.27
615.184	0.27
615.519	0.27
615.854	0.27
616.188	0.27
616.523	0.27
616.857	0.27
617.191	0.26
617.526	0.26
617.86	0.26
618.194	0.26
618.528	0.26
618.862	0.26
619.196	0.26
619.53	0.26
619.864	0.26
620.198	0.26
620.532	0.26
620.866	0.26
621.2	0.26
621.533	0.25
621.867	0.26
622.201	0.25
622.534	0.25
622.868	0.26
623.201	0.25
623.534	0.25
623.868	0.25
624.201	0.25
624.534	0.25
624.868	0.25
625.201	0.24
625.534	0.25
625.867	0.25
626.2	0.24
626.533	0.24
626.865	0.24
627.198	0.24
627.531	0.24
627.864	0.24
628.196	0.24
628.529	0.23
628.862	0.24
629.194	0.23
629.527	0.23
629.859	0.23
630.191	0.23
630.524	0.23
630.856	0.23
631.188	0.23
631.52	0.22
631.852	0.22
632.184	0.22
632.516	0.22
632.848	0.22
633.18	0.22
633.512	0.22
633.844	0.21
634.175	0.21
634.507	0.21
634.839	0.21
635.17	0.21
635.502	0.21
635.833	0.21
636.165	0.21
636.496	0.2
636.827	0.2
637.159	0.2
637.49	0.2
637.821	0.2
638.152	0.2
638.483	0.19
638.814	0.19
639.145	0.19
639.476	0.19
639.807	0.19
640.137	0.19
640.468	0.19
640.799	0.19
641.129	0.19
641.46	0.19
641.791	0.19
642.121	0.19
642.451	0.18
642.782	0.18
643.112	0.18
643.442	0.18
643.773	0.18
644.103	0.18
644.433	0.17
644.763	0.18
645.093	0.17
645.423	0.17
645.753	0.17
646.082	0.17
646.412	0.17
646.742	0.17
647.072	0.17
647.401	0.17
647.731	0.17
648.06	0.16
648.39	0.16
648.719	0.16
649.048	0.16
649.378	0.16
649.707	0.16
650.036	0.16
650.365	0.16
650.694	0.16
651.023	0.16
651.352	0.16
651.681	0.16
652.01	0.16
652.339	0.16
652.668	0.15
652.996	0.15
653.325	0.16
653.654	0.16
653.982	0.15
654.311	0.16
654.639	0.16
654.967	0.16
655.296	0.15
655.624	0.15
655.952	0.15
656.28	0.16
656.609	0.15
656.937	0.15
657.265	0.15
657.593	0.05
657.92	0
658.248	0
658.576	0
658.904	0.02
659.231	0.1
659.559	0.14
659.887	0.15
660.214	0.15
660.542	0.15
660.869	0.14
661.196	0.15
661.524	0.14
661.851	0.14
662.178	0.14
662.505	0.14
662.832	0.14
663.159	0.15
663.486	0.14
663.813	0.14
664.14	0.14
664.467	0.14
664.794	0.14
665.12	0.14
665.447	0.14
665.774	0.14
666.1	0.14
666.427	0.14
666.753	0.13
667.079	0.13
667.406	0.13
667.732	0.13
668.058	0.13
668.384	0.13
668.71	0.13
669.036	0.13
669.362	0.13
669.688	0.13
670.014	0.13
670.34	0.13
670.666	0.13
670.991	0.12
671.317	0.13
671.643	0.13
671.968	0.12
672.294	0.12
672.619	0.12
672.945	0.12
673.27	0.12
673.595	0.12
673.92	0.12
674.246	0.12
674.571	0.12
674.896	0.12
675.221	0.11
675.546	0.11
675.87	0.12
676.195	0.12
676.52	0.11
676.845	0.11
677.169	0.11
677.494	0.11
677.819	0.11
678.143	0.11
678.468	0.11
678.792	0.1
679.116	0.1
679.44	0.1
679.765	0.1
680.089	0.1
680.413	0.1
680.737	0.1
681.061	0.09
681.385	0.09
681.709	0.09
682.033	0.09
682.356	0.09
682.68	0.09
683.004	0.09
683.327	0.09
683.651	0.09
683.974	0.09
684.298	0.09
684.621	0.09
684.944	0.09
685.268	0.09
685.591	0.08
685.914	0.08
686.237	0.08
686.56	0.08
686.883	0.08
687.206	0.07
687.529	0.07
687.852	0.07
688.175	0.07
688.497	0.07
688.82	0.07
689.142	0.07
689.465	0.07
689.787	0.07
690.11	0.07
690.432	0.07
690.755	0.07
691.077	0.07
691.399	0.06
691.721	0.06
692.043	0.07
692.365	0.06
692.687	0.07
693.009	0.06
693.331	0.06
693.653	0.06
693.974	0.06
694.296	0.06
694.618	0.06
694.939	0.06
695.261	0.06
695.582	0.06
695.904	0.06
696.225	0.06
696.546	0.06
696.868	0.06
697.189	0.05
697.51	0.05
697.831	0.05
698.152	0.05
698.473	0.05
698.794	0.05
699.114	0.05
699.435	0.04
699.756	0.04
700.077	0.04
700.397	0.05
700.718	0.05
701.038	0.05
701.359	0.05
701.679	0.05
701.999	0.05
702.32	0.05
702.64	0.05
702.96	0.05
703.28	0.05
703.6	0.04
703.92	0.04
704.24	0.04
704.56	0.04
704.879	0.04
705.199	0.04
705.519	0.04
705.838	0.04
706.158	0.04
706.478	0.04
706.797	0.05
707.116	0.05
707.436	0.05
707.755	0.04
708.074	0.04
708.393	0.04
708.712	0.04
709.031	0.03
709.35	0.03
709.669	0.03
709.988	0.03
710.307	0.03
710.626	0.03
710.944	0.04
711.263	0.04
711.582	0.04
711.9	0.04
712.219	0.04
712.537	0.04
712.855	0.04
713.174	0.04
713.492	0.04
713.81	0.04
714.128	0.04
714.446	0.04
714.764	0.04
715.082	0.03
715.4	0.04
715.718	0.04
716.035	0.04
716.353	0.04
716.671	0.04
716.988	0.04
717.306	0.04
717.623	0.04
717.941	0.04
718.258	0.04
718.575	0.04
718.893	0.04
719.21	0.04
719.527	0.04
719.844	0.04
720.161	0.04
720.478	0.04
720.795	0.04
721.112	0.04
721.428	0.04
721.745	0.04
722.062	0.04
722.378	0.04
722.695	0.05
723.011	0.04
723.328	0.04
723.644	0.04
723.96	0.05
724.276	0.05
724.593	0.05
724.909	0.05
725.225	0.05
725.541	0.05
725.857	0.05
726.173	0.05
726.488	0.05
726.804	0.05
727.12	0.05
727.435	0.05
727.751	0.05
728.067	0.05
728.382	0.05
728.697	0.05
729.013	0.05
729.328	0.05
729.643	0.05
729.958	0.05
730.273	0.05
730.588	0.05
730.903	0.05
731.218	0.05
731.533	0.05
731.848	0.05
732.163	0.05
732.477	0.04
732.792	0.04
733.107	0.04
733.421	0.04
733.736	0.04
734.05	0.04
734.364	0.04
734.678	0.05
734.993	0.04
735.307	0.04
735.621	0.04
735.935	0.04
736.249	0.04
736.563	0.05
736.877	0.04
737.19	0.04
737.504	0.04
737.818	0.04
738.131	0.04
738.445	0.04
738.758	0.04
739.072	0.04
739.385	0.04
739.698	0.04
740.012	0.04
740.325	0.04
740.638	0.04
740.951	0.04
741.264	0.04
741.577	0.04
741.89	0.04
742.203	0.04
742.515	0.04
742.828	0.04
743.141	0.04
743.453	0.04
743.766	0.04
744.078	0.04
744.391	0.04
744.703	0.04
745.015	0.04
745.327	0.04
745.639	0.04
745.952	0.04
746.264	0.04
746.575	0.04
746.887	0.04
747.199	0.04
747.511	0.04
747.823	0.04
748.134	0.04
748.446	0.04
748.757	0.04
749.069	0.03
749.38	0.03
749.692	0.03
750.003	0.03
750.314	0.03
750.625	0.03
750.936	0.03
751.248	0.03
751.559	0.03
751.869	0.03
752.18	0.03
752.491	0.03
752.802	0.03
753.112	0.03
753.423	0.03
753.734	0.03
754.044	0.03
754.355	0.03
754.665	0.03
754.975	0.03
755.285	0.03
755.596	0.03
755.906	0.03
756.216	0.03
756.526	0.03
756.836	0.03
757.146	0.03
757.455	0.02
757.765	0.02
758.075	0.02
758.385	0.02
758.694	0.02
759.004	0.02
759.313	0.02
759.622	0.02
759.932	0.02
760.241	0.02
760.55	0.02
760.859	0.02
761.168	0.02
761.477	0.02
761.786	0.02
762.095	0.02
762.404	0.02
762.713	0.02
763.021	0.02
763.33	0.02
763.639	0.02
763.947	0.02
764.256	0.02
764.564	0.02
764.872	0.02
765.181	0.02
765.489	0.02
765.797	0.02
766.105	0.02
766.413	0.02
766.721	0.02
767.029	0.02
767.337	0.02
767.644	0.02
767.952	0.02
768.26	0.02
768.567	0.02
768.875	0.02
769.182	0.02
769.49	0.02
769.797	0.02
770.104	0.02
770.411	0.02
770.718	0.02
771.026	0.02
771.333	0.02
771.639	0.02
771.946	0.02
772.253	0.02
772.56	0.02
772.867	0.02
773.173	0.02
773.48	0.02
773.786	0.02
774.093	0.02
774.399	0.02
774.705	0.02
775.012	0.02
775.318	0.02
775.624	0.02
775.93	0.02
776.236	0.02
776.542	0.02
776.848	0.02
777.154	0.02
777.459	0.02
777.765	0.02
778.071	0.02
778.376	0.02
778.682	0.02
778.987	0.02
779.292	0.02
779.598	0.02
779.903	0.02
780.208	0.02
780.513	0.02
780.818	0.02
781.123	0.02
781.428	0.02
781.733	0.02
782.038	0.02
782.343	0.02
782.647	0.02
782.952	0.02
783.256	0.02
783.561	0.02
783.865	0.02
784.17	0.02
784.474	0.02
784.778	0.03
785.082	0.03
785.386	0.03
785.69	0.02
785.994	0.02
786.298	0.03
786.602	0.02
786.906	0.02
787.209	0.02
787.513	0.02
787.817	0.02
788.12	0.02
788.424	0.02
788.727	0.02
789.03	0.02
789.333	0.02
789.637	0.02
789.94	0.02
790.243	0.02
790.546	0.02
790.849	0.02
791.152	0.02
791.454	0.02
791.757	0.02
792.06	0.02
792.362	0.02
792.665	0.02
792.967	0.02
793.27	0.02
793.572	0.02
793.874	0.02
794.177	0.02
794.479	0.02
794.781	0.02
795.083	0.02
795.385	0.02
795.687	0.02
795.989	0.02
796.29	0.02
796.592	0.02
796.894	0.02
797.195	0.02
797.497	0.02
797.798	0.02
798.1	0.02
798.401	0.02
798.702	0.02
799.003	0.02
799.304	0.02
799.605	0.02
799.906	0.02
800.207	0.02
800.508	0.02
800.809	0.02
801.11	0.02
801.41	0.03
801.711	0.02
802.011	0.02
802.312	0.02
802.612	0.02
802.913	0.03
803.213	0.03
803.513	0.02
803.813	0.02
804.113	0.02
804.413	0.02
804.713	0.02
805.013	0.02
805.313	0.02
805.613	0.02
805.912	0.02
806.212	0.02
806.511	0.02
806.811	0.02
807.11	0.02
807.41	0.02
807.709	0.02
808.008	0.02
808.307	0.02
808.606	0.03
808.905	0.03
809.204	0.03
809.503	0.03
809.802	0.03
810.101	0.03
810.399	0.03
810.698	0.03
810.997	0.03
811.295	0.02
811.593	0.02
811.892	0.03
812.19	0.03
812.488	0.02
812.786	0.02
813.084	0.02
813.383	0.03
813.68	0.02
813.978	0.02
814.276	0.03
814.574	0.03
814.872	0.03
815.169	0.03
815.467	0.03
815.764	0.02
816.062	0.03
816.359	0.02
816.656	0.03
816.954	0.03
817.251	0.02
817.548	0.03
817.845	0.03
818.142	0.03
818.439	0.02
818.735	0.02
819.032	0.02
819.329	0.02
819.626	0.02
819.922	0.02
820.219	0.03
820.515	0.03
820.811	0.03
821.108	0.03
821.404	0.03
821.7	0.03
821.996	0.04
822.292	0.03
822.588	0.03
822.884	0.04
823.18	0.04
823.475	0.03
823.771	0.03
824.067	0.04
824.362	0.04
824.658	0.03
824.953	0.03
825.249	0.03
825.544	0.03
825.839	0.03
826.134	0.03
826.429	0.04
826.724	0.04
827.019	0.04
827.314	0.04
827.609	0.03
827.904	0.03
828.198	0.04
828.493	0.03
828.787	0.03
829.082	0.03
829.376	0.03
829.671	0.03
829.965	0.03
830.259	0.03
830.553	0.04
830.847	0.03
831.141	0.03
831.435	0.03
831.729	0.04
832.023	0.03
832.317	0.04
832.61	0.03
832.904	0.03
833.197	0.03
833.491	0.04
833.784	0.04
834.077	0.03
834.371	0.03
834.664	0.03
834.957	0.04
835.25	0.03
835.543	0.03
835.836	0.03
836.129	0.02
836.421	0.03
836.714	0.03
837.007	0.03
837.299	0.04
837.592	0.03
837.884	0.04
838.177	0.04
838.469	0.04
838.761	0.03
839.053	0.03
839.345	0.04
839.637	0.03
839.929	0.04
840.221	0.04
840.513	0.04
840.805	0.03
841.096	0.03
841.388	0.03
841.68	0.04
841.971	0.03
842.262	0.03
842.554	0.03
842.845	0.03
843.136	0.03
843.427	0.04
843.718	0.04
844.009	0.03
844.3	0.03
844.591	0.04
844.882	0.04
845.173	0.04
845.463	0.04
845.754	0.04
846.044	0.05
846.335	0.04
846.625	0.04
846.915	0.05
847.206	0.04
847.496	0.05
847.786	0.04
848.076	0.04
848.366	0.05
848.656	0.04
848.945	0.03
849.235	0.04
849.525	0.04
849.814	0.04
850.104	0.04
850.393	0.05
850.683	0.05
850.972	0.04
851.261	0.03
851.551	0.05
851.84	0.04
852.129	0.04
852.418	0.04
852.707	0.05
852.995	0.04
853.284	0.04
853.573	0.05
853.862	0.04
854.15	0.03
854.439	0.04
854.727	0.03
855.015	0.04
855.304	0.04
855.592	0.04
855.88	0.05
856.168	0.04
856.456	0.04
856.744	0.05
857.032	0.05
857.32	0.05
857.607	0.04
857.895	0.06
858.183	0.05
858.47	0.05
858.757	0.05
859.045	0.06
859.332	0.05
859.619	0.04
859.907	0.05
860.194	0.06
860.481	0.04
860.768	0.06
861.054	0.06
861.341	0.05
861.628	0.05
861.915	0.05
862.201	0.05
862.488	0.06
862.774	0.05
863.061	0.06
863.347	0.03
863.633	0.05
863.919	0.04
864.205	0.04
864.491	0.05
864.777	0.03
865.063	0.05
865.349	0.05
865.635	0.05
865.92	0.05
866.206	0.07
866.492	0.07
866.777	0.04
867.062	0.05
867.348	0.03
867.633	0.04
867.918	0.03
868.203	0.06
868.488	0.04
868.773	0.04
869.058	0.04
869.343	0.04
869.628	0.05
869.912	0.05
870.197	0.03
870.482	0.06
870.766	0.04
871.05	0.02
871.335	0.05
871.619	0.04
871.903	0.08
872.187	0.04
872.471	-0.02
872.755	0.02
873.039	0.01
873.323	0.07
873.607	0.06
873.89	0.05
874.174	0.05
874.458	0
874.741	0.03
875.024	0.04
875.308	0.03
875.591	0.08
875.874	0.03
876.157	0.07
876.44	0.08
876.723	0.05
877.006	-0.01
877.289	0.05
877.572	0.06
877.854	0.04
878.137	0
878.42	0.01
878.702	0.03
878.984	0.04
879.267	0.11
879.549	0.08
879.831	0.02
880.113	0.09
880.395	0.05
880.677	-0.01
880.959	-0.01
