Data from Rubpy_BV_1500_EDTA_Buffered_Absorbance_14-37-58-576.txt Node
Date: Wed Jul 01 14:37:58 BST 2026
User: fpm-admin
Spectrometer: OFX00224
Trigger mode: 0
Integration Time (sec): 7.000000E-2
Scans to average: 3
Nonlinearity correction enabled: false
Boxcar width: 0
Storing dark spectrum: false
XAxis mode: Wavelengths
Number of Pixels in Spectrum: 2136
>>>>>Begin Spectral Data<<<<<
154.91	-0.1
155.289	1.82
155.669	-0.7
156.048	-0.23
156.428	-0
156.807	-0
157.186	-0
157.566	0.3
157.945	0.06
158.325	0.06
158.704	-0
159.083	-0
159.462	0.73
159.842	0.51
160.221	-0.07
160.6	-0.3
160.979	-0
161.359	0.54
161.738	0.7
162.117	0.19
162.496	-0.45
162.875	-0.28
163.254	0.34
163.633	0.33
164.012	-0
164.391	0.06
164.77	-0
165.149	-0
165.528	-0
165.907	-0
166.286	-0
166.665	0.14
167.044	-0
167.423	0.46
167.802	-0
168.181	0.25
168.559	0.38
168.938	-0.17
169.317	0.8
169.696	0.48
170.074	-0
170.453	0.16
170.832	-0
171.21	-0.05
171.589	0.06
171.968	-0.95
172.346	0.79
172.725	-0
173.103	-0
173.482	-0.78
173.861	0.34
174.239	-0
174.617	0.07
174.996	-0.07
175.374	0.22
175.753	-0.03
176.131	-0
176.51	0.07
176.888	-0
177.266	-0
177.645	0.16
178.023	0.77
178.401	-0.13
178.779	0.11
179.158	0.42
179.536	-0
179.914	0.12
180.292	0.81
180.67	-0.95
181.048	-0
181.427	-0.34
181.805	-0.7
182.183	-0
182.561	0.12
182.939	-0
183.317	-0
183.695	0.08
184.073	-0
184.451	-0
184.829	-0
185.206	-0
185.584	-0
185.962	-0
186.34	-0
186.718	-0.88
187.096	-0.56
187.473	0.28
187.851	-0
188.229	0.26
188.607	0.26
188.984	0.39
189.362	0.36
189.74	0.28
190.117	0.24
190.495	0.26
190.872	0.35
191.25	0.16
191.627	0.2
192.005	0.29
192.382	0.34
192.76	0.35
193.137	0.33
193.515	0.12
193.892	0.26
194.269	0.2
194.647	0.41
195.024	0.22
195.401	0.24
195.779	0.29
196.156	0.39
196.533	0.34
196.91	0.36
197.288	0.26
197.665	0.24
198.042	0.3
198.419	0.34
198.796	0.32
199.173	0.34
199.55	0.21
199.927	0.36
200.304	0.41
200.681	0.2
201.058	0.37
201.435	0.22
201.812	0.37
202.189	0.33
202.566	0.36
202.943	0.23
203.32	0.34
203.697	0.36
204.073	0.31
204.45	0.28
204.827	0.52
205.204	0.3
205.58	0.33
205.957	0.31
206.334	0.26
206.71	0.31
207.087	0.37
207.464	0.31
207.84	0.24
208.217	0.3
208.593	0.51
208.97	0.31
209.346	0.39
209.723	0.24
210.099	0.35
210.476	0.33
210.852	0.34
211.228	0.3
211.605	0.28
211.981	0.21
212.357	0.33
212.733	0.26
213.11	0.46
213.486	0.26
213.862	0.29
214.238	0.5
214.614	0.39
214.991	0.28
215.367	0.17
215.743	0.29
216.119	0.57
216.495	0.32
216.871	0.39
217.247	0.22
217.623	0.27
217.999	0.33
218.375	0.33
218.751	0.29
219.127	0.26
219.502	0.26
219.878	0.35
220.254	0.24
220.63	0.36
221.006	0.22
221.381	0.32
221.757	0.5
222.133	0.21
222.508	0.47
222.884	0.36
223.26	0.39
223.635	0.29
224.011	0.64
224.386	0.36
224.762	0.41
225.137	0.43
225.513	0.35
225.888	0.35
226.264	0.35
226.639	0.34
227.014	0.4
227.39	0.25
227.765	0.37
228.14	0.24
228.516	0.34
228.891	0.36
229.266	0.38
229.641	0.41
230.017	0.25
230.392	0.31
230.767	0.28
231.142	0.25
231.517	0.28
231.892	0.56
232.267	0.4
232.642	0.38
233.017	0.27
233.392	0.36
233.767	0.27
234.142	0.34
234.517	0.35
234.892	0.37
235.267	0.38
235.641	0.27
236.016	0.41
236.391	0.52
236.766	0.39
237.14	0.33
237.515	0.34
237.89	0.28
238.264	0.29
238.639	0.39
239.014	0.26
239.388	0.29
239.763	0.31
240.137	0.21
240.512	0.28
240.886	0.38
241.261	0.35
241.635	0.3
242.009	0.3
242.384	0.34
242.758	0.33
243.132	0.25
243.507	0.25
243.881	0.25
244.255	0.34
244.629	0.31
245.004	0.35
245.378	0.38
245.752	0.28
246.126	0.41
246.5	0.38
246.874	0.26
247.248	0.36
247.622	0.22
247.996	0.43
248.37	0.36
248.744	0.37
249.118	0.4
249.492	0.43
249.866	0.28
250.24	0.38
250.613	0.25
250.987	0.34
251.361	0.33
251.735	0.39
252.108	0.24
252.482	0.32
252.856	0.3
253.229	0.58
253.603	0.38
253.977	0.4
254.35	0.44
254.724	0.29
255.097	0.32
255.471	0.33
255.844	0.35
256.218	0.39
256.591	0.45
256.964	0.24
257.338	0.19
257.711	0.44
258.084	0.32
258.458	0.4
258.831	0.27
259.204	0.34
259.577	0.43
259.95	0.32
260.323	0.32
260.697	0.38
261.07	0.36
261.443	0.48
261.816	0.41
262.189	0.46
262.562	0.35
262.935	0.36
263.308	0.3
263.68	0.22
264.053	0.37
264.426	0.44
264.799	0.43
265.172	0.37
265.545	0.37
265.917	0.33
266.29	0.43
266.663	0.34
267.035	0.26
267.408	0.21
267.781	0.32
268.153	0.51
268.526	0.27
268.898	0.34
269.271	0.31
269.643	0.49
270.016	0.37
270.388	0.47
270.76	0.24
271.133	0.29
271.505	0.43
271.877	0.38
272.25	0.38
272.622	0.56
272.994	0.28
273.366	0.38
273.739	0.37
274.111	0.33
274.483	0.33
274.855	0.36
275.227	0.49
275.599	0.31
275.971	0.38
276.343	0.42
276.715	0.37
277.087	0.34
277.459	0.3
277.831	0.39
278.203	0.45
278.574	0.31
278.946	0.37
279.318	0.3
279.69	0.32
280.061	0.33
280.433	0.35
280.805	0.3
281.176	0.57
281.548	0.41
281.92	0.31
282.291	0.31
282.663	0.43
283.034	0.4
283.406	0.38
283.777	0.36
284.148	0.36
284.52	0.45
284.891	0.38
285.262	0.39
285.634	0.32
286.005	0.41
286.376	0.35
286.747	0.29
287.119	0.41
287.49	0.37
287.861	0.39
288.232	0.42
288.603	0.4
288.974	0.41
289.345	0.36
289.716	0.31
290.087	0.36
290.458	0.4
290.829	0.36
291.2	0.39
291.571	0.32
291.941	0.38
292.312	0.42
292.683	0.38
293.054	0.41
293.424	0.37
293.795	0.34
294.166	0.37
294.536	0.42
294.907	0.38
295.277	0.5
295.648	0.43
296.018	0.37
296.389	0.38
296.759	0.33
297.13	0.29
297.5	0.47
297.871	0.36
298.241	0.33
298.611	0.41
298.981	0.42
299.352	0.29
299.722	0.4
300.092	0.4
300.462	0.36
300.832	0.32
301.202	0.43
301.573	0.37
301.943	0.3
302.313	0.42
302.683	0.41
303.053	0.45
303.422	0.37
303.792	0.32
304.162	0.29
304.532	0.32
304.902	0.28
305.272	0.3
305.641	0.29
306.011	0.34
306.381	0.29
306.75	0.33
307.12	0.26
307.49	0.32
307.859	0.3
308.229	0.34
308.598	0.28
308.968	0.27
309.337	0.23
309.707	0.29
310.076	0.28
310.445	0.3
310.815	0.3
311.184	0.29
311.553	0.27
311.923	0.26
312.292	0.26
312.661	0.29
313.03	0.3
313.399	0.29
313.768	0.32
314.137	0.32
314.506	0.31
314.875	0.3
315.244	0.31
315.613	0.34
315.982	0.34
316.351	0.32
316.72	0.33
317.089	0.33
317.458	0.34
317.826	0.36
318.195	0.35
318.564	0.37
318.933	0.37
319.301	0.36
319.67	0.37
320.038	0.36
320.407	0.39
320.775	0.38
321.144	0.38
321.512	0.4
321.881	0.4
322.249	0.4
322.618	0.41
322.986	0.43
323.354	0.42
323.723	0.44
324.091	0.45
324.459	0.45
324.827	0.45
325.195	0.46
325.564	0.47
325.932	0.47
326.3	0.48
326.668	0.48
327.036	0.49
327.404	0.5
327.772	0.5
328.14	0.52
328.508	0.53
328.875	0.53
329.243	0.55
329.611	0.55
329.979	0.55
330.346	0.57
330.714	0.57
331.082	0.58
331.449	0.59
331.817	0.6
332.185	0.61
332.552	0.62
332.92	0.64
333.287	0.65
333.655	0.67
334.022	0.67
334.389	0.69
334.757	0.69
335.124	0.71
335.491	0.72
335.859	0.73
336.226	0.77
336.593	0.77
336.96	0.78
337.327	0.79
337.695	0.81
338.062	0.82
338.429	0.83
338.796	0.85
339.163	0.86
339.53	0.88
339.897	0.9
340.263	0.92
340.63	0.94
340.997	0.95
341.364	0.96
341.731	0.98
342.097	1
342.464	1
342.831	1.02
343.197	1.03
343.564	1.06
343.931	1.08
344.297	1.09
344.664	1.1
345.03	1.13
345.396	1.14
345.763	1.16
346.129	1.17
346.496	1.18
346.862	1.19
347.228	1.23
347.594	1.25
347.961	1.24
348.327	1.27
348.693	1.27
349.059	1.3
349.425	1.31
349.791	1.33
350.157	1.33
350.523	1.35
350.889	1.37
351.255	1.37
351.621	1.39
351.987	1.41
352.353	1.42
352.719	1.43
353.084	1.43
353.45	1.47
353.816	1.48
354.181	1.5
354.547	1.52
354.913	1.54
355.278	1.56
355.644	1.56
356.009	1.58
356.375	1.6
356.74	1.61
357.106	1.64
357.471	1.63
357.836	1.68
358.202	1.72
358.567	1.69
358.932	1.72
359.297	1.74
359.663	1.76
360.028	1.78
360.393	1.77
360.758	1.84
361.123	1.82
361.488	1.84
361.853	1.86
362.218	1.88
362.583	1.9
362.948	1.88
363.312	1.91
363.677	1.95
364.042	1.91
364.407	1.93
364.772	1.97
365.136	2
365.501	2
365.865	1.97
366.23	2.06
366.595	1.94
366.959	1.98
367.324	2.01
367.688	2.01
368.052	2.02
368.417	2.06
368.781	2.02
369.145	2.07
369.51	2.07
369.874	2.03
370.238	2.11
370.602	2.09
370.967	2.05
371.331	2.02
371.695	2.1
372.059	2.12
372.423	2.06
372.787	2.04
373.151	2.05
373.515	2.11
373.878	2.09
374.242	2.04
374.606	2.05
374.97	2.07
375.334	1.96
375.697	2.02
376.061	2.01
376.425	2
376.788	2.05
377.152	2
377.515	1.98
377.879	2.05
378.242	1.99
378.606	2.02
378.969	1.93
379.333	1.99
379.696	1.92
380.059	1.88
380.422	1.9
380.786	1.81
381.149	1.85
381.512	1.85
381.875	1.84
382.238	1.82
382.601	1.76
382.964	1.77
383.327	1.74
383.69	1.74
384.053	1.71
384.416	1.7
384.779	1.68
385.142	1.68
385.504	1.65
385.867	1.63
386.23	1.65
386.593	1.6
386.955	1.59
387.318	1.59
387.68	1.57
388.043	1.56
388.405	1.56
388.768	1.54
389.13	1.57
389.493	1.52
389.855	1.5
390.217	1.5
390.58	1.5
390.942	1.47
391.304	1.46
391.666	1.44
392.028	1.42
392.391	1.39
392.753	1.38
393.115	1.37
393.477	1.33
393.839	1.31
394.201	1.31
394.563	1.31
394.924	1.3
395.286	1.29
395.648	1.31
396.01	1.3
396.371	1.3
396.733	1.32
397.095	1.33
397.456	1.35
397.818	1.35
398.18	1.39
398.541	1.41
398.903	1.45
399.264	1.48
399.625	1.5
399.987	1.55
400.348	1.55
400.709	1.56
401.071	1.57
401.432	1.56
401.793	1.56
402.154	1.56
402.515	1.52
402.876	1.5
403.238	1.48
403.599	1.43
403.96	1.43
404.32	1.37
404.681	1.33
405.042	1.29
405.403	1.23
405.764	1.19
406.125	1.12
406.485	1.08
406.846	1.03
407.207	0.98
407.567	0.92
407.928	0.87
408.288	0.82
408.649	0.8
409.009	0.75
409.37	0.71
409.73	0.67
410.091	0.64
410.451	0.6
410.811	0.58
411.171	0.55
411.532	0.52
411.892	0.5
412.252	0.48
412.612	0.46
412.972	0.44
413.332	0.42
413.692	0.41
414.052	0.39
414.412	0.37
414.772	0.35
415.132	0.35
415.492	0.33
415.851	0.33
416.211	0.32
416.571	0.3
416.931	0.29
417.29	0.29
417.65	0.28
418.009	0.28
418.369	0.27
418.728	0.26
419.088	0.26
419.447	0.25
419.807	0.24
420.166	0.25
420.525	0.24
420.884	0.23
421.244	0.24
421.603	0.23
421.962	0.22
422.321	0.22
422.68	0.22
423.039	0.21
423.398	0.2
423.757	0.21
424.116	0.21
424.475	0.21
424.834	0.2
425.193	0.2
425.551	0.2
425.91	0.19
426.269	0.19
426.628	0.18
426.986	0.19
427.345	0.18
427.703	0.18
428.062	0.19
428.42	0.17
428.779	0.18
429.137	0.18
429.496	0.17
429.854	0.18
430.212	0.18
430.57	0.17
430.929	0.17
431.287	0.17
431.645	0.17
432.003	0.17
432.361	0.16
432.719	0.17
433.077	0.17
433.435	0.17
433.793	0.17
434.151	0.17
434.509	0.18
434.866	0.17
435.224	0.16
435.582	0.17
435.94	0.18
436.297	0.17
436.655	0.15
437.012	0.17
437.37	0.17
437.727	0.17
438.085	0.18
438.442	0.17
438.8	0.18
439.157	0.17
439.514	0.17
439.872	0.16
440.229	0.17
440.586	0.18
440.943	0.19
441.3	0.17
441.657	0.18
442.014	0.18
442.371	0.17
442.728	0.17
443.085	0.19
443.442	0.19
443.799	0.18
444.156	0.18
444.513	0.19
444.869	0.18
445.226	0.19
445.583	0.2
445.939	0.19
446.296	0.19
446.652	0.19
447.009	0.19
447.365	0.2
447.722	0.2
448.078	0.2
448.434	0.2
448.791	0.2
449.147	0.2
449.503	0.2
449.859	0.2
450.215	0.2
450.571	0.2
450.928	0.2
451.284	0.2
451.64	0.21
451.995	0.21
452.351	0.21
452.707	0.22
453.063	0.21
453.419	0.22
453.775	0.21
454.13	0.22
454.486	0.23
454.842	0.22
455.197	0.22
455.553	0.22
455.908	0.23
456.264	0.23
456.619	0.23
456.975	0.22
457.33	0.24
457.685	0.23
458.04	0.24
458.396	0.25
458.751	0.24
459.106	0.25
459.461	0.25
459.816	0.24
460.171	0.25
460.526	0.25
460.881	0.26
461.236	0.26
461.591	0.26
461.946	0.25
462.301	0.26
462.655	0.28
463.01	0.27
463.365	0.27
463.719	0.27
464.074	0.27
464.428	0.27
464.783	0.27
465.137	0.28
465.492	0.28
465.846	0.28
466.201	0.28
466.555	0.29
466.909	0.28
467.263	0.29
467.618	0.3
467.972	0.31
468.326	0.3
468.68	0.3
469.034	0.31
469.388	0.31
469.742	0.31
470.096	0.31
470.45	0.33
470.804	0.33
471.157	0.33
471.511	0.33
471.865	0.33
472.218	0.34
472.572	0.34
472.926	0.35
473.279	0.35
473.633	0.35
473.986	0.36
474.34	0.37
474.693	0.37
475.046	0.37
475.4	0.38
475.753	0.39
476.106	0.39
476.459	0.4
476.812	0.4
477.165	0.4
477.519	0.41
477.872	0.41
478.224	0.42
478.577	0.42
478.93	0.43
479.283	0.43
479.636	0.44
479.989	0.45
480.341	0.45
480.694	0.46
481.047	0.47
481.399	0.46
481.752	0.47
482.104	0.47
482.457	0.47
482.809	0.48
483.162	0.49
483.514	0.49
483.866	0.5
484.219	0.5
484.571	0.5
484.923	0.51
485.275	0.51
485.627	0.52
485.979	0.53
486.331	0.53
486.683	0.54
487.035	0.54
487.387	0.54
487.739	0.55
488.091	0.55
488.443	0.56
488.794	0.56
489.146	0.57
489.498	0.57
489.849	0.58
490.201	0.58
490.552	0.59
490.904	0.59
491.255	0.59
491.607	0.61
491.958	0.61
492.309	0.62
492.661	0.61
493.012	0.62
493.363	0.63
493.714	0.63
494.065	0.63
494.416	0.64
494.767	0.65
495.118	0.65
495.469	0.65
495.82	0.66
496.171	0.67
496.522	0.67
496.872	0.67
497.223	0.67
497.574	0.68
497.924	0.69
498.275	0.69
498.626	0.69
498.976	0.7
499.327	0.71
499.677	0.71
500.027	0.71
500.378	0.72
500.728	0.73
501.078	0.73
501.428	0.73
501.779	0.74
502.129	0.75
502.479	0.74
502.829	0.75
503.179	0.75
503.529	0.76
503.879	0.77
504.229	0.77
504.578	0.78
504.928	0.79
505.278	0.78
505.628	0.79
505.977	0.79
506.327	0.8
506.676	0.81
507.026	0.81
507.375	0.82
507.725	0.83
508.074	0.83
508.424	0.82
508.773	0.83
509.122	0.84
509.471	0.84
509.82	0.84
510.17	0.85
510.519	0.86
510.868	0.86
511.217	0.86
511.566	0.87
511.915	0.87
512.263	0.87
512.612	0.89
512.961	0.88
513.31	0.89
513.659	0.9
514.007	0.9
514.356	0.9
514.704	0.91
515.053	0.91
515.401	0.92
515.75	0.92
516.098	0.92
516.447	0.93
516.795	0.93
517.143	0.93
517.491	0.94
517.839	0.94
518.188	0.94
518.536	0.95
518.884	0.95
519.232	0.95
519.58	0.95
519.928	0.96
520.275	0.96
520.623	0.97
520.971	0.98
521.319	0.97
521.666	0.97
522.014	0.98
522.362	0.98
522.709	0.98
523.057	0.98
523.404	1
523.752	0.99
524.099	1
524.446	1.01
524.794	1.02
525.141	1.01
525.488	1.02
525.835	1.01
526.182	1.02
526.529	1.02
526.876	1.02
527.223	1.02
527.57	1.03
527.917	1.02
528.264	1.04
528.611	1.02
528.958	1.04
529.304	1.04
529.651	1.03
529.998	1.04
530.344	1.04
530.691	1.05
531.037	1.06
531.384	1.06
531.73	1.06
532.076	1.06
532.423	1.06
532.769	1.06
533.115	1.06
533.461	1.06
533.807	1.07
534.154	1.07
534.5	1.07
534.846	1.06
535.192	1.07
535.537	1.08
535.883	1.08
536.229	1.08
536.575	1.07
536.921	1.09
537.266	1.09
537.612	1.1
537.957	1.1
538.303	1.09
538.649	1.1
538.994	1.1
539.339	1.1
539.685	1.1
540.03	1.1
540.375	1.1
540.721	1.11
541.066	1.1
541.411	1.1
541.756	1.11
542.101	1.1
542.446	1.11
542.791	1.11
543.136	1.11
543.481	1.1
543.825	1.12
544.17	1.12
544.515	1.11
544.86	1.12
545.204	1.12
545.549	1.11
545.893	1.12
546.238	1.12
546.582	1.12
546.927	1.12
547.271	1.12
547.615	1.13
547.96	1.12
548.304	1.12
548.648	1.12
548.992	1.12
549.336	1.12
549.68	1.12
550.024	1.13
550.368	1.13
550.712	1.12
551.056	1.12
551.4	1.13
551.743	1.13
552.087	1.13
552.431	1.12
552.774	1.12
553.118	1.12
553.462	1.12
553.805	1.12
554.148	1.12
554.492	1.11
554.835	1.12
555.178	1.11
555.522	1.11
555.865	1.12
556.208	1.12
556.551	1.12
556.894	1.12
557.237	1.11
557.58	1.11
557.923	1.11
558.266	1.11
558.609	1.11
558.952	1.11
559.294	1.11
559.637	1.11
559.98	1.1
560.322	1.11
560.665	1.1
561.007	1.1
561.35	1.09
561.692	1.1
562.034	1.1
562.377	1.09
562.719	1.09
563.061	1.1
563.403	1.1
563.745	1.09
564.088	1.09
564.43	1.08
564.772	1.09
565.113	1.09
565.455	1.08
565.797	1.08
566.139	1.09
566.481	1.08
566.822	1.08
567.164	1.08
567.506	1.07
567.847	1.08
568.189	1.07
568.53	1.07
568.872	1.07
569.213	1.07
569.554	1.06
569.895	1.06
570.237	1.06
570.578	1.06
570.919	1.05
571.26	1.05
571.601	1.05
571.942	1.05
572.283	1.04
572.624	1.04
572.965	1.04
573.306	1.04
573.646	1.03
573.987	1.03
574.328	1.03
574.668	1.04
575.009	1.02
575.349	1.02
575.69	1.02
576.03	1.01
576.37	1.01
576.711	1.01
577.051	1.01
577.391	1.01
577.731	1
578.072	1.01
578.412	0.99
578.752	1
579.092	0.99
579.431	0.98
579.771	0.96
580.111	0.95
580.451	0.96
580.791	0.98
581.13	0.98
581.47	0.98
581.81	0.98
582.149	0.97
582.489	0.98
582.828	0.96
583.167	0.93
583.507	0.9
583.846	0.89
584.185	0.91
584.525	0.94
584.864	0.95
585.203	0.96
585.542	0.96
585.881	0.96
586.22	0.96
586.559	0.95
586.898	0.94
587.236	0.93
587.575	0.93
587.914	0.94
588.252	0.94
588.591	0.95
588.93	0.94
589.268	0.94
589.607	0.94
589.945	0.94
590.283	0.94
590.622	0.94
590.96	0.94
591.298	0.95
591.636	0.94
591.974	0.94
592.313	0.94
592.651	0.95
592.989	0.94
593.326	0.94
593.664	0.94
594.002	0.94
594.34	0.93
594.678	0.93
595.015	0.92
595.353	0.91
595.691	0.93
596.028	0.93
596.366	0.93
596.703	0.93
597.04	0.93
597.378	0.93
597.715	0.93
598.052	0.93
598.389	0.93
598.726	0.93
599.064	0.93
599.401	0.93
599.738	0.92
600.074	0.92
600.411	0.92
600.748	0.92
601.085	0.91
601.422	0.9
601.758	0.9
602.095	0.91
602.432	0.9
602.768	0.9
603.105	0.91
603.441	0.9
603.777	0.91
604.114	0.91
604.45	0.9
604.786	0.9
605.122	0.9
605.459	0.89
605.795	0.89
606.131	0.88
606.467	0.89
606.803	0.89
607.139	0.89
607.474	0.88
607.81	0.88
608.146	0.88
608.482	0.88
608.817	0.87
609.153	0.87
609.488	0.87
609.824	0.86
610.159	0.87
610.495	0.86
610.83	0.86
611.165	0.86
611.5	0.85
611.836	0.85
612.171	0.85
612.506	0.84
612.841	0.84
613.176	0.84
613.511	0.84
613.845	0.84
614.18	0.83
614.515	0.83
614.85	0.83
615.184	0.83
615.519	0.82
615.854	0.82
616.188	0.81
616.523	0.82
616.857	0.81
617.191	0.81
617.526	0.81
617.86	0.8
618.194	0.8
618.528	0.8
618.862	0.8
619.196	0.79
619.53	0.79
619.864	0.79
620.198	0.79
620.532	0.78
620.866	0.78
621.2	0.77
621.533	0.76
621.867	0.77
622.201	0.77
622.534	0.76
622.868	0.77
623.201	0.76
623.534	0.76
623.868	0.75
624.201	0.75
624.534	0.75
624.868	0.74
625.201	0.74
625.534	0.74
625.867	0.74
626.2	0.73
626.533	0.73
626.865	0.72
627.198	0.72
627.531	0.72
627.864	0.71
628.196	0.71
628.529	0.7
628.862	0.69
629.194	0.7
629.527	0.69
629.859	0.69
630.191	0.69
630.524	0.68
630.856	0.68
631.188	0.67
631.52	0.67
631.852	0.67
632.184	0.66
632.516	0.66
632.848	0.66
633.18	0.65
633.512	0.65
633.844	0.65
634.175	0.64
634.507	0.64
634.839	0.63
635.17	0.63
635.502	0.62
635.833	0.62
636.165	0.62
636.496	0.61
636.827	0.61
637.159	0.61
637.49	0.6
637.821	0.6
638.152	0.59
638.483	0.59
638.814	0.58
639.145	0.58
639.476	0.58
639.807	0.57
640.137	0.57
640.468	0.57
640.799	0.56
641.129	0.55
641.46	0.55
641.791	0.55
642.121	0.55
642.451	0.54
642.782	0.54
643.112	0.54
643.442	0.53
643.773	0.53
644.103	0.53
644.433	0.52
644.763	0.52
645.093	0.52
645.423	0.52
645.753	0.51
646.082	0.51
646.412	0.51
646.742	0.51
647.072	0.5
647.401	0.5
647.731	0.5
648.06	0.49
648.39	0.49
648.719	0.49
649.048	0.49
649.378	0.49
649.707	0.48
650.036	0.48
650.365	0.48
650.694	0.48
651.023	0.48
651.352	0.47
651.681	0.47
652.01	0.47
652.339	0.47
652.668	0.46
652.996	0.47
653.325	0.47
653.654	0.47
653.982	0.46
654.311	0.46
654.639	0.46
654.967	0.46
655.296	0.45
655.624	0.45
655.952	0.45
656.28	0.45
656.609	0.45
656.937	0.45
657.265	0.43
657.593	0.32
657.92	0.21
658.248	0.17
658.576	0.2
658.904	0.3
659.231	0.38
659.559	0.43
659.887	0.43
660.214	0.43
660.542	0.43
660.869	0.42
661.196	0.42
661.524	0.42
661.851	0.42
662.178	0.42
662.505	0.41
662.832	0.41
663.159	0.42
663.486	0.41
663.813	0.41
664.14	0.4
664.467	0.4
664.794	0.41
665.12	0.4
665.447	0.4
665.774	0.4
666.1	0.4
666.427	0.39
666.753	0.39
667.079	0.39
667.406	0.38
667.732	0.38
668.058	0.38
668.384	0.38
668.71	0.38
669.036	0.38
669.362	0.38
669.688	0.37
670.014	0.37
670.34	0.37
670.666	0.36
670.991	0.36
671.317	0.36
671.643	0.36
671.968	0.36
672.294	0.36
672.619	0.35
672.945	0.35
673.27	0.34
673.595	0.34
673.92	0.34
674.246	0.34
674.571	0.34
674.896	0.33
675.221	0.33
675.546	0.33
675.87	0.33
676.195	0.32
676.52	0.32
676.845	0.32
677.169	0.31
677.494	0.31
677.819	0.31
678.143	0.3
678.468	0.3
678.792	0.3
679.116	0.3
679.44	0.29
679.765	0.29
680.089	0.29
680.413	0.29
680.737	0.29
681.061	0.28
681.385	0.28
681.709	0.28
682.033	0.27
682.356	0.27
682.68	0.27
683.004	0.27
683.327	0.26
683.651	0.26
683.974	0.26
684.298	0.25
684.621	0.25
684.944	0.25
685.268	0.24
685.591	0.24
685.914	0.24
686.237	0.24
686.56	0.23
686.883	0.23
687.206	0.22
687.529	0.22
687.852	0.22
688.175	0.22
688.497	0.22
688.82	0.22
689.142	0.22
689.465	0.21
689.787	0.21
690.11	0.21
690.432	0.2
690.755	0.2
691.077	0.2
691.399	0.2
691.721	0.2
692.043	0.2
692.365	0.19
692.687	0.19
693.009	0.19
693.331	0.18
693.653	0.18
693.974	0.18
694.296	0.18
694.618	0.17
694.939	0.18
695.261	0.17
695.582	0.17
695.904	0.17
696.225	0.17
696.546	0.17
696.868	0.16
697.189	0.16
697.51	0.16
697.831	0.16
698.152	0.16
698.473	0.16
698.794	0.15
699.114	0.15
699.435	0.14
699.756	0.14
700.077	0.15
700.397	0.15
700.718	0.15
701.038	0.15
701.359	0.15
701.679	0.15
701.999	0.15
702.32	0.14
702.64	0.14
702.96	0.14
703.28	0.14
703.6	0.14
703.92	0.14
704.24	0.13
704.56	0.13
704.879	0.13
705.199	0.13
705.519	0.13
705.838	0.13
706.158	0.13
706.478	0.13
706.797	0.13
707.116	0.13
707.436	0.13
707.755	0.13
708.074	0.13
708.393	0.13
708.712	0.12
709.031	0.11
709.35	0.11
709.669	0.11
709.988	0.11
710.307	0.11
710.626	0.11
710.944	0.12
711.263	0.12
711.582	0.12
711.9	0.13
712.219	0.12
712.537	0.12
712.855	0.12
713.174	0.12
713.492	0.12
713.81	0.13
714.128	0.12
714.446	0.12
714.764	0.12
715.082	0.11
715.4	0.12
715.718	0.12
716.035	0.12
716.353	0.12
716.671	0.12
716.988	0.12
717.306	0.12
717.623	0.13
717.941	0.13
718.258	0.13
718.575	0.13
718.893	0.13
719.21	0.13
719.527	0.13
719.844	0.13
720.161	0.12
720.478	0.13
720.795	0.13
721.112	0.13
721.428	0.13
721.745	0.13
722.062	0.13
722.378	0.13
722.695	0.13
723.011	0.13
723.328	0.13
723.644	0.13
723.96	0.13
724.276	0.13
724.593	0.13
724.909	0.13
725.225	0.13
725.541	0.13
725.857	0.13
726.173	0.13
726.488	0.13
726.804	0.13
727.12	0.13
727.435	0.13
727.751	0.13
728.067	0.13
728.382	0.13
728.697	0.13
729.013	0.13
729.328	0.13
729.643	0.13
729.958	0.13
730.273	0.13
730.588	0.13
730.903	0.13
731.218	0.13
731.533	0.13
731.848	0.13
732.163	0.13
732.477	0.13
732.792	0.13
733.107	0.12
733.421	0.13
733.736	0.13
734.05	0.13
734.364	0.13
734.678	0.13
734.993	0.12
735.307	0.13
735.621	0.12
735.935	0.13
736.249	0.12
736.563	0.13
736.877	0.12
737.19	0.12
737.504	0.12
737.818	0.12
738.131	0.12
738.445	0.12
738.758	0.12
739.072	0.12
739.385	0.12
739.698	0.12
740.012	0.12
740.325	0.12
740.638	0.11
740.951	0.12
741.264	0.11
741.577	0.11
741.89	0.12
742.203	0.12
742.515	0.12
742.828	0.12
743.141	0.11
743.453	0.11
743.766	0.11
744.078	0.11
744.391	0.11
744.703	0.11
745.015	0.11
745.327	0.11
745.639	0.11
745.952	0.1
746.264	0.1
746.575	0.1
746.887	0.1
747.199	0.1
747.511	0.1
747.823	0.1
748.134	0.1
748.446	0.1
748.757	0.09
749.069	0.09
749.38	0.09
749.692	0.09
750.003	0.09
750.314	0.09
750.625	0.09
750.936	0.09
751.248	0.09
751.559	0.09
751.869	0.09
752.18	0.09
752.491	0.09
752.802	0.09
753.112	0.09
753.423	0.08
753.734	0.09
754.044	0.09
754.355	0.09
754.665	0.08
754.975	0.08
755.285	0.08
755.596	0.08
755.906	0.08
756.216	0.08
756.526	0.08
756.836	0.08
757.146	0.08
757.455	0.08
757.765	0.07
758.075	0.07
758.385	0.07
758.694	0.07
759.004	0.07
759.313	0.07
759.622	0.07
759.932	0.07
760.241	0.07
760.55	0.07
760.859	0.07
761.168	0.07
761.477	0.07
761.786	0.07
762.095	0.07
762.404	0.07
762.713	0.07
763.021	0.07
763.33	0.07
763.639	0.07
763.947	0.07
764.256	0.07
764.564	0.07
764.872	0.07
765.181	0.07
765.489	0.07
765.797	0.07
766.105	0.06
766.413	0.06
766.721	0.07
767.029	0.07
767.337	0.07
767.644	0.07
767.952	0.07
768.26	0.07
768.567	0.07
768.875	0.07
769.182	0.06
769.49	0.07
769.797	0.06
770.104	0.07
770.411	0.06
770.718	0.06
771.026	0.06
771.333	0.07
771.639	0.07
771.946	0.07
772.253	0.07
772.56	0.07
772.867	0.07
773.173	0.07
773.48	0.07
773.786	0.07
774.093	0.07
774.399	0.07
774.705	0.07
775.012	0.07
775.318	0.07
775.624	0.07
775.93	0.07
776.236	0.07
776.542	0.07
776.848	0.07
777.154	0.07
777.459	0.07
777.765	0.07
778.071	0.07
778.376	0.07
778.682	0.07
778.987	0.07
779.292	0.07
779.598	0.07
779.903	0.07
780.208	0.07
780.513	0.07
780.818	0.07
781.123	0.07
781.428	0.07
781.733	0.07
782.038	0.07
782.343	0.07
782.647	0.07
782.952	0.07
783.256	0.07
783.561	0.07
783.865	0.07
784.17	0.08
784.474	0.08
784.778	0.08
785.082	0.08
785.386	0.08
785.69	0.08
785.994	0.08
786.298	0.08
786.602	0.08
786.906	0.08
787.209	0.08
787.513	0.08
787.817	0.08
788.12	0.08
788.424	0.08
788.727	0.08
789.03	0.08
789.333	0.08
789.637	0.08
789.94	0.08
790.243	0.08
790.546	0.09
790.849	0.08
791.152	0.08
791.454	0.09
791.757	0.09
792.06	0.09
792.362	0.09
792.665	0.09
792.967	0.08
793.27	0.08
793.572	0.08
793.874	0.08
794.177	0.09
794.479	0.09
794.781	0.09
795.083	0.09
795.385	0.08
795.687	0.08
795.989	0.08
796.29	0.09
796.592	0.09
796.894	0.09
797.195	0.09
797.497	0.09
797.798	0.1
798.1	0.1
798.401	0.09
798.702	0.09
799.003	0.09
799.304	0.09
799.605	0.09
799.906	0.09
800.207	0.09
800.508	0.09
800.809	0.09
801.11	0.09
801.41	0.09
801.711	0.09
802.011	0.09
802.312	0.09
802.612	0.1
802.913	0.1
803.213	0.1
803.513	0.09
803.813	0.09
804.113	0.09
804.413	0.09
804.713	0.09
805.013	0.09
805.313	0.1
805.613	0.1
805.912	0.1
806.212	0.1
806.511	0.1
806.811	0.1
807.11	0.1
807.41	0.1
807.709	0.1
808.008	0.11
808.307	0.1
808.606	0.11
808.905	0.11
809.204	0.11
809.503	0.11
809.802	0.11
810.101	0.11
810.399	0.1
810.698	0.11
810.997	0.11
811.295	0.11
811.593	0.1
811.892	0.11
812.19	0.1
812.488	0.1
812.786	0.1
813.084	0.1
813.383	0.1
813.68	0.1
813.978	0.1
814.276	0.11
814.574	0.11
814.872	0.12
815.169	0.11
815.467	0.12
815.764	0.11
816.062	0.12
816.359	0.11
816.656	0.12
816.954	0.12
817.251	0.12
817.548	0.12
817.845	0.13
818.142	0.13
818.439	0.12
818.735	0.12
819.032	0.12
819.329	0.12
819.626	0.12
819.922	0.12
820.219	0.13
820.515	0.13
820.811	0.13
821.108	0.13
821.404	0.13
821.7	0.12
821.996	0.13
822.292	0.12
822.588	0.13
822.884	0.13
823.18	0.13
823.475	0.13
823.771	0.13
824.067	0.14
824.362	0.13
824.658	0.13
824.953	0.13
825.249	0.13
825.544	0.13
825.839	0.13
826.134	0.13
826.429	0.13
826.724	0.13
827.019	0.13
827.314	0.13
827.609	0.13
827.904	0.14
828.198	0.13
828.493	0.14
828.787	0.14
829.082	0.13
829.376	0.13
829.671	0.14
829.965	0.14
830.259	0.14
830.553	0.15
830.847	0.14
831.141	0.15
831.435	0.15
831.729	0.15
832.023	0.15
832.317	0.15
832.61	0.15
832.904	0.15
833.197	0.15
833.491	0.15
833.784	0.15
834.077	0.15
834.371	0.15
834.664	0.15
834.957	0.15
835.25	0.15
835.543	0.14
835.836	0.14
836.129	0.14
836.421	0.15
836.714	0.15
837.007	0.15
837.299	0.16
837.592	0.15
837.884	0.15
838.177	0.16
838.469	0.16
838.761	0.15
839.053	0.15
839.345	0.16
839.637	0.16
839.929	0.16
840.221	0.16
840.513	0.16
840.805	0.16
841.096	0.15
841.388	0.16
841.68	0.16
841.971	0.16
842.262	0.17
842.554	0.16
842.845	0.16
843.136	0.17
843.427	0.17
843.718	0.17
844.009	0.17
844.3	0.17
844.591	0.17
844.882	0.17
845.173	0.17
845.463	0.17
845.754	0.18
846.044	0.18
846.335	0.17
846.625	0.18
846.915	0.18
847.206	0.18
847.496	0.19
847.786	0.17
848.076	0.18
848.366	0.18
848.656	0.17
848.945	0.18
849.235	0.18
849.525	0.17
849.814	0.18
850.104	0.18
850.393	0.19
850.683	0.18
850.972	0.18
851.261	0.18
851.551	0.19
851.84	0.19
852.129	0.18
852.418	0.18
852.707	0.19
852.995	0.18
853.284	0.19
853.573	0.18
853.862	0.19
854.15	0.18
854.439	0.19
854.727	0.18
855.015	0.18
855.304	0.19
855.592	0.19
855.88	0.19
856.168	0.18
856.456	0.2
856.744	0.18
857.032	0.21
857.32	0.2
857.607	0.21
857.895	0.2
858.183	0.19
858.47	0.19
858.757	0.19
859.045	0.2
859.332	0.2
859.619	0.2
859.907	0.19
860.194	0.21
860.481	0.19
860.768	0.21
861.054	0.21
861.341	0.2
861.628	0.2
861.915	0.22
862.201	0.22
862.488	0.22
862.774	0.21
863.061	0.2
863.347	0.19
863.633	0.21
863.919	0.19
864.205	0.19
864.491	0.2
864.777	0.21
865.063	0.23
865.349	0.21
865.635	0.22
865.92	0.18
866.206	0.22
866.492	0.25
866.777	0.23
867.062	0.2
867.348	0.2
867.633	0.18
867.918	0.2
868.203	0.21
868.488	0.22
868.773	0.19
869.058	0.2
869.343	0.22
869.628	0.21
869.912	0.2
870.197	0.19
870.482	0.24
870.766	0.2
871.05	0.17
871.335	0.22
871.619	0.19
871.903	0.21
872.187	0.19
872.471	0.26
872.755	0.22
873.039	0.16
873.323	0.23
873.607	0.17
873.89	0.2
874.174	0.23
874.458	0.21
874.741	0.26
875.024	0.2
875.308	0.21
875.591	0.28
875.874	0.18
876.157	0.19
876.44	0.17
876.723	0.25
877.006	0.16
877.289	0.17
877.572	0.22
877.854	0.2
878.137	0.16
878.42	0.1
878.702	0.3
878.984	0.18
879.267	0.27
879.549	0.15
879.831	0.25
880.113	0.19
880.395	0.19
880.677	0.17
880.959	0.16
