Data from Rubpy_BV_1500_EDTA_Buffered_Absorbance_14-14-59-657.txt Node
Date: Wed Jul 01 14:14:59 BST 2026
User: fpm-admin
Spectrometer: OFX00224
Trigger mode: 0
Integration Time (sec): 7.000000E-2
Scans to average: 3
Nonlinearity correction enabled: false
Boxcar width: 0
Storing dark spectrum: false
XAxis mode: Wavelengths
Number of Pixels in Spectrum: 2136
>>>>>Begin Spectral Data<<<<<
154.91	0.6
155.289	0.48
155.669	-0
156.048	-0.19
156.428	-0
156.807	0.54
157.186	-0.65
157.566	-0.1
157.945	0.4
158.325	-0
158.704	-0
159.083	-0.33
159.462	-0
159.842	0.31
160.221	0.74
160.6	-0.3
160.979	-0.38
161.359	0.75
161.738	-0
162.117	-0.3
162.496	-0.32
162.875	-0
163.254	0.2
163.633	0.18
164.012	-0.15
164.391	-0.02
164.77	0.76
165.149	0.7
165.528	0.7
165.907	0.03
166.286	-0.69
166.665	0.06
167.044	-0
167.423	1.07
167.802	-0
168.181	-0
168.559	-0.13
168.938	0.25
169.317	0.62
169.696	0.2
170.074	-0.38
170.453	0.21
170.832	0.53
171.21	-0.34
171.589	0.04
171.968	0.12
172.346	0.43
172.725	-0
173.103	0.16
173.482	-1.18
173.861	-0
174.239	-1.06
174.617	0.83
174.996	0.6
175.374	0.25
175.753	-0.33
176.131	-0
176.51	-0.26
176.888	-0
177.266	-0
177.645	-0.05
178.023	-0
178.401	-0.09
178.779	0.01
179.158	0.31
179.536	-0.48
179.914	-0.28
180.292	0.14
180.67	-0
181.048	-0.23
181.427	-0.04
181.805	-0
182.183	-0
182.561	0.24
182.939	-0
183.317	-0
183.695	-0.22
184.073	-0
184.451	-0
184.829	0.59
185.206	-0
185.584	1.02
185.962	0.48
186.34	1.11
186.718	-0
187.096	-0
187.473	0.16
187.851	-0
188.229	0.1
188.607	0.1
188.984	0.05
189.362	0.22
189.74	0
190.117	0.02
190.495	0.03
190.872	0.15
191.25	0.2
191.627	0.04
192.005	-0
192.382	0.18
192.76	0.2
193.137	0.1
193.515	0.03
193.892	-0
194.269	0.05
194.647	0.21
195.024	0.05
195.401	0.21
195.779	0.03
196.156	0.08
196.533	0.2
196.91	0.16
197.288	0.14
197.665	0.03
198.042	0.15
198.419	0.31
198.796	0.13
199.173	0.31
199.55	0.09
199.927	0.21
200.304	0.25
200.681	0.19
201.058	0.04
201.435	0.18
201.812	0.17
202.189	0.08
202.566	0.01
202.943	0.14
203.32	0.11
203.697	0.15
204.073	0.13
204.45	0.14
204.827	0.26
205.204	0.09
205.58	-0.01
205.957	0.16
206.334	0.12
206.71	0.17
207.087	0.13
207.464	0.14
207.84	0.06
208.217	0.17
208.593	0.17
208.97	0.19
209.346	0.22
209.723	0.17
210.099	0.18
210.476	0.21
210.852	0.1
211.228	0.23
211.605	0.16
211.981	0.12
212.357	0.13
212.733	0.09
213.11	0.15
213.486	0.19
213.862	0.06
214.238	0.23
214.614	0.07
214.991	0.12
215.367	0.13
215.743	0.07
216.119	0.14
216.495	0.09
216.871	0.14
217.247	0.18
217.623	0.09
217.999	0.05
218.375	0.19
218.751	0.09
219.127	0.14
219.502	0.19
219.878	0.12
220.254	0.03
220.63	0.17
221.006	0.15
221.381	0.18
221.757	0.23
222.133	0.06
222.508	0.19
222.884	0.19
223.26	0.19
223.635	0.15
224.011	0.33
224.386	0.13
224.762	0.14
225.137	0.2
225.513	0.13
225.888	0.17
226.264	0.2
226.639	0.25
227.014	0.15
227.39	0.17
227.765	0.21
228.14	0.15
228.516	0.17
228.891	0.17
229.266	0.17
229.641	0.06
230.017	0.17
230.392	0.2
230.767	0.15
231.142	0.1
231.517	0.03
231.892	0.25
232.267	0.12
232.642	0.06
233.017	0.08
233.392	0.11
233.767	0.09
234.142	0.12
234.517	0.18
234.892	0.22
235.267	0.23
235.641	0.05
236.016	0.06
236.391	0.2
236.766	0.24
237.14	0.09
237.515	0.13
237.89	0.13
238.264	0.16
238.639	0.21
239.014	0.09
239.388	0.07
239.763	0.13
240.137	0.11
240.512	0.17
240.886	0.13
241.261	0.12
241.635	0.05
242.009	0.12
242.384	0.14
242.758	0.19
243.132	0.09
243.507	0.14
243.881	0.13
244.255	0.08
244.629	0.23
245.004	0.13
245.378	0.24
245.752	0.19
246.126	0.17
246.5	0.12
246.874	0.15
247.248	0.14
247.622	0.1
247.996	0.11
248.37	0.18
248.744	0.17
249.118	0.2
249.492	0.19
249.866	0.1
250.24	0.24
250.613	0.11
250.987	0.25
251.361	0.14
251.735	0.17
252.108	0.1
252.482	0.09
252.856	0.1
253.229	0.25
253.603	0.08
253.977	0.14
254.35	0.1
254.724	0.1
255.097	0.1
255.471	0.14
255.844	0.13
256.218	0.1
256.591	0.2
256.964	0.17
257.338	0.1
257.711	0.15
258.084	0.19
258.458	0.09
258.831	0.09
259.204	0.16
259.577	0.16
259.95	0.09
260.323	0.12
260.697	0.08
261.07	0.19
261.443	0.14
261.816	0.19
262.189	0.15
262.562	0.08
262.935	0.2
263.308	0.14
263.68	0.06
264.053	0.19
264.426	0.08
264.799	0.13
265.172	0.15
265.545	0.12
265.917	0.12
266.29	0.15
266.663	0.17
267.035	0.16
267.408	0.08
267.781	0.14
268.153	0.21
268.526	0.11
268.898	0.08
269.271	0.16
269.643	0.13
270.016	0.17
270.388	0.2
270.76	0.1
271.133	0.11
271.505	0.16
271.877	0.17
272.25	0.2
272.622	0.24
272.994	0.13
273.366	0.15
273.739	0.14
274.111	0.08
274.483	0.16
274.855	0.16
275.227	0.1
275.599	0.03
275.971	0.13
276.343	0.17
276.715	0.11
277.087	0.22
277.459	0.17
277.831	0.21
278.203	0.2
278.574	0.17
278.946	0.1
279.318	0.16
279.69	0.14
280.061	0.1
280.433	0.05
280.805	0.1
281.176	0.16
281.548	0.16
281.92	0.17
282.291	0.13
282.663	0.18
283.034	0.13
283.406	0.1
283.777	0.08
284.148	0.09
284.52	0.13
284.891	0.1
285.262	0.21
285.634	0.14
286.005	0.23
286.376	0.24
286.747	0.11
287.119	0.12
287.49	0.11
287.861	0.14
288.232	0.19
288.603	0.14
288.974	0.26
289.345	0.14
289.716	0.11
290.087	0.2
290.458	0.22
290.829	0.12
291.2	0.13
291.571	0.09
291.941	0.11
292.312	0.2
292.683	0.16
293.054	0.18
293.424	0.14
293.795	0.11
294.166	0.1
294.536	0.14
294.907	0.22
295.277	0.22
295.648	0.16
296.018	0.13
296.389	0.15
296.759	0.16
297.13	0.15
297.5	0.16
297.871	0.15
298.241	0.1
298.611	0.21
298.981	0.18
299.352	0.18
299.722	0.18
300.092	0.16
300.462	0.08
300.832	0.17
301.202	0.15
301.573	0.15
301.943	0.15
302.313	0.13
302.683	0.18
303.053	0.18
303.422	0.17
303.792	0.11
304.162	0.15
304.532	0.16
304.902	0.11
305.272	0.12
305.641	0.13
306.011	0.14
306.381	0.08
306.75	0.11
307.12	0.09
307.49	0.15
307.859	0.12
308.229	0.12
308.598	0.17
308.968	0.1
309.337	0.1
309.707	0.09
310.076	0.11
310.445	0.1
310.815	0.11
311.184	0.09
311.553	0.08
311.923	0.1
312.292	0.09
312.661	0.11
313.03	0.1
313.399	0.1
313.768	0.12
314.137	0.09
314.506	0.09
314.875	0.11
315.244	0.11
315.613	0.12
315.982	0.12
316.351	0.1
316.72	0.11
317.089	0.12
317.458	0.12
317.826	0.1
318.195	0.11
318.564	0.11
318.933	0.12
319.301	0.11
319.67	0.12
320.038	0.11
320.407	0.12
320.775	0.12
321.144	0.12
321.512	0.13
321.881	0.12
322.249	0.12
322.618	0.12
322.986	0.13
323.354	0.13
323.723	0.14
324.091	0.13
324.459	0.13
324.827	0.13
325.195	0.14
325.564	0.14
325.932	0.14
326.3	0.14
326.668	0.15
327.036	0.14
327.404	0.15
327.772	0.15
328.14	0.15
328.508	0.15
328.875	0.14
329.243	0.17
329.611	0.16
329.979	0.16
330.346	0.16
330.714	0.17
331.082	0.16
331.449	0.16
331.817	0.18
332.185	0.17
332.552	0.17
332.92	0.19
333.287	0.18
333.655	0.18
334.022	0.19
334.389	0.19
334.757	0.2
335.124	0.2
335.491	0.2
335.859	0.21
336.226	0.21
336.593	0.22
336.96	0.22
337.327	0.21
337.695	0.22
338.062	0.22
338.429	0.23
338.796	0.23
339.163	0.24
339.53	0.24
339.897	0.24
340.263	0.25
340.63	0.25
340.997	0.26
341.364	0.27
341.731	0.27
342.097	0.27
342.464	0.28
342.831	0.28
343.197	0.28
343.564	0.29
343.931	0.3
344.297	0.3
344.664	0.31
345.03	0.31
345.396	0.31
345.763	0.32
346.129	0.32
346.496	0.32
346.862	0.33
347.228	0.33
347.594	0.34
347.961	0.35
348.327	0.35
348.693	0.36
349.059	0.36
349.425	0.36
349.791	0.37
350.157	0.37
350.523	0.38
350.889	0.38
351.255	0.38
351.621	0.39
351.987	0.4
352.353	0.41
352.719	0.4
353.084	0.42
353.45	0.41
353.816	0.42
354.181	0.42
354.547	0.43
354.913	0.44
355.278	0.44
355.644	0.45
356.009	0.45
356.375	0.46
356.74	0.46
357.106	0.47
357.471	0.47
357.836	0.48
358.202	0.49
358.567	0.5
358.932	0.5
359.297	0.51
359.663	0.52
360.028	0.53
360.393	0.53
360.758	0.54
361.123	0.55
361.488	0.56
361.853	0.56
362.218	0.57
362.583	0.57
362.948	0.58
363.312	0.59
363.677	0.58
364.042	0.61
364.407	0.62
364.772	0.62
365.136	0.63
365.501	0.62
365.865	0.64
366.23	0.65
366.595	0.65
366.959	0.66
367.324	0.67
367.688	0.66
368.052	0.67
368.417	0.68
368.781	0.68
369.145	0.7
369.51	0.7
369.874	0.7
370.238	0.71
370.602	0.71
370.967	0.71
371.331	0.72
371.695	0.73
372.059	0.73
372.423	0.74
372.787	0.73
373.151	0.72
373.515	0.72
373.878	0.73
374.242	0.72
374.606	0.72
374.97	0.71
375.334	0.71
375.697	0.7
376.061	0.7
376.425	0.69
376.788	0.69
377.152	0.68
377.515	0.67
377.879	0.67
378.242	0.66
378.606	0.65
378.969	0.63
379.333	0.64
379.696	0.63
380.059	0.62
380.422	0.61
380.786	0.6
381.149	0.6
381.512	0.59
381.875	0.59
382.238	0.59
382.601	0.59
382.964	0.57
383.327	0.57
383.69	0.57
384.053	0.57
384.416	0.56
384.779	0.56
385.142	0.56
385.504	0.55
385.867	0.55
386.23	0.55
386.593	0.55
386.955	0.55
387.318	0.55
387.68	0.56
388.043	0.56
388.405	0.56
388.768	0.56
389.13	0.56
389.493	0.55
389.855	0.56
390.217	0.55
390.58	0.55
390.942	0.54
391.304	0.54
391.666	0.53
392.028	0.53
392.391	0.52
392.753	0.51
393.115	0.51
393.477	0.51
393.839	0.51
394.201	0.5
394.563	0.5
394.924	0.5
395.286	0.49
395.648	0.5
396.01	0.51
396.371	0.51
396.733	0.51
397.095	0.53
397.456	0.53
397.818	0.55
398.18	0.57
398.541	0.58
398.903	0.6
399.264	0.62
399.625	0.63
399.987	0.64
400.348	0.65
400.709	0.66
401.071	0.67
401.432	0.67
401.793	0.67
402.154	0.66
402.515	0.66
402.876	0.65
403.238	0.64
403.599	0.62
403.96	0.6
404.32	0.58
404.681	0.56
405.042	0.54
405.403	0.51
405.764	0.49
406.125	0.47
406.485	0.44
406.846	0.41
407.207	0.4
407.567	0.37
407.928	0.35
408.288	0.34
408.649	0.31
409.009	0.29
409.37	0.28
409.73	0.26
410.091	0.25
410.451	0.24
410.811	0.22
411.171	0.21
411.532	0.19
411.892	0.19
412.252	0.18
412.612	0.17
412.972	0.16
413.332	0.15
413.692	0.15
414.052	0.15
414.412	0.14
414.772	0.13
415.132	0.13
415.492	0.12
415.851	0.12
416.211	0.13
416.571	0.12
416.931	0.11
417.29	0.1
417.65	0.1
418.009	0.1
418.369	0.1
418.728	0.1
419.088	0.1
419.447	0.09
419.807	0.09
420.166	0.09
420.525	0.09
420.884	0.08
421.244	0.09
421.603	0.08
421.962	0.08
422.321	0.08
422.68	0.08
423.039	0.07
423.398	0.08
423.757	0.07
424.116	0.07
424.475	0.08
424.834	0.07
425.193	0.07
425.551	0.07
425.91	0.07
426.269	0.06
426.628	0.06
426.986	0.07
427.345	0.07
427.703	0.06
428.062	0.06
428.42	0.06
428.779	0.06
429.137	0.07
429.496	0.05
429.854	0.06
430.212	0.06
430.57	0.05
430.929	0.06
431.287	0.05
431.645	0.05
432.003	0.06
432.361	0.05
432.719	0.06
433.077	0.06
433.435	0.05
433.793	0.06
434.151	0.05
434.509	0.06
434.866	0.06
435.224	0.06
435.582	0.05
435.94	0.06
436.297	0.05
436.655	0.05
437.012	0.05
437.37	0.06
437.727	0.06
438.085	0.06
438.442	0.05
438.8	0.05
439.157	0.06
439.514	0.06
439.872	0.05
440.229	0.05
440.586	0.05
440.943	0.06
441.3	0.05
441.657	0.06
442.014	0.05
442.371	0.06
442.728	0.05
443.085	0.06
443.442	0.06
443.799	0.05
444.156	0.05
444.513	0.05
444.869	0.05
445.226	0.06
445.583	0.06
445.939	0.06
446.296	0.06
446.652	0.06
447.009	0.06
447.365	0.05
447.722	0.06
448.078	0.05
448.434	0.06
448.791	0.07
449.147	0.06
449.503	0.05
449.859	0.06
450.215	0.06
450.571	0.05
450.928	0.06
451.284	0.06
451.64	0.06
451.995	0.05
452.351	0.06
452.707	0.07
453.063	0.06
453.419	0.06
453.775	0.06
454.13	0.06
454.486	0.07
454.842	0.06
455.197	0.05
455.553	0.06
455.908	0.06
456.264	0.06
456.619	0.06
456.975	0.06
457.33	0.06
457.685	0.06
458.04	0.06
458.396	0.06
458.751	0.06
459.106	0.07
459.461	0.06
459.816	0.07
460.171	0.07
460.526	0.06
460.881	0.07
461.236	0.06
461.591	0.07
461.946	0.06
462.301	0.07
462.655	0.07
463.01	0.08
463.365	0.07
463.719	0.06
464.074	0.06
464.428	0.06
464.783	0.07
465.137	0.06
465.492	0.07
465.846	0.06
466.201	0.07
466.555	0.06
466.909	0.06
467.263	0.06
467.618	0.06
467.972	0.07
468.326	0.07
468.68	0.07
469.034	0.07
469.388	0.07
469.742	0.07
470.096	0.07
470.45	0.07
470.804	0.08
471.157	0.07
471.511	0.07
471.865	0.08
472.218	0.08
472.572	0.08
472.926	0.08
473.279	0.08
473.633	0.08
473.986	0.08
474.34	0.09
474.693	0.09
475.046	0.1
475.4	0.09
475.753	0.1
476.106	0.1
476.459	0.1
476.812	0.1
477.165	0.1
477.519	0.1
477.872	0.09
478.224	0.11
478.577	0.11
478.93	0.11
479.283	0.11
479.636	0.12
479.989	0.11
480.341	0.11
480.694	0.11
481.047	0.12
481.399	0.11
481.752	0.12
482.104	0.12
482.457	0.12
482.809	0.12
483.162	0.13
483.514	0.13
483.866	0.13
484.219	0.13
484.571	0.13
484.923	0.13
485.275	0.13
485.627	0.14
485.979	0.14
486.331	0.14
486.683	0.14
487.035	0.14
487.387	0.14
487.739	0.14
488.091	0.15
488.443	0.15
488.794	0.15
489.146	0.15
489.498	0.15
489.849	0.15
490.201	0.15
490.552	0.16
490.904	0.15
491.255	0.16
491.607	0.15
491.958	0.16
492.309	0.16
492.661	0.16
493.012	0.16
493.363	0.17
493.714	0.17
494.065	0.17
494.416	0.17
494.767	0.17
495.118	0.18
495.469	0.17
495.82	0.17
496.171	0.18
496.522	0.17
496.872	0.18
497.223	0.18
497.574	0.18
497.924	0.18
498.275	0.19
498.626	0.18
498.976	0.19
499.327	0.19
499.677	0.19
500.027	0.19
500.378	0.19
500.728	0.19
501.078	0.2
501.428	0.19
501.779	0.2
502.129	0.2
502.479	0.2
502.829	0.2
503.179	0.2
503.529	0.2
503.879	0.21
504.229	0.21
504.578	0.21
504.928	0.21
505.278	0.21
505.628	0.21
505.977	0.21
506.327	0.22
506.676	0.22
507.026	0.22
507.375	0.22
507.725	0.22
508.074	0.23
508.424	0.23
508.773	0.23
509.122	0.23
509.471	0.23
509.82	0.23
510.17	0.22
510.519	0.23
510.868	0.24
511.217	0.24
511.566	0.24
511.915	0.23
512.263	0.24
512.612	0.24
512.961	0.24
513.31	0.24
513.659	0.25
514.007	0.25
514.356	0.24
514.704	0.25
515.053	0.25
515.401	0.25
515.75	0.25
516.098	0.25
516.447	0.26
516.795	0.26
517.143	0.25
517.491	0.26
517.839	0.26
518.188	0.26
518.536	0.26
518.884	0.26
519.232	0.26
519.58	0.26
519.928	0.26
520.275	0.26
520.623	0.27
520.971	0.27
521.319	0.27
521.666	0.27
522.014	0.27
522.362	0.28
522.709	0.28
523.057	0.28
523.404	0.28
523.752	0.28
524.099	0.28
524.446	0.28
524.794	0.28
525.141	0.28
525.488	0.28
525.835	0.28
526.182	0.29
526.529	0.29
526.876	0.29
527.223	0.29
527.57	0.29
527.917	0.29
528.264	0.29
528.611	0.29
528.958	0.29
529.304	0.29
529.651	0.29
529.998	0.3
530.344	0.29
530.691	0.29
531.037	0.3
531.384	0.3
531.73	0.3
532.076	0.3
532.423	0.3
532.769	0.3
533.115	0.3
533.461	0.31
533.807	0.3
534.154	0.3
534.5	0.3
534.846	0.31
535.192	0.31
535.537	0.31
535.883	0.3
536.229	0.31
536.575	0.31
536.921	0.31
537.266	0.31
537.612	0.32
537.957	0.31
538.303	0.32
538.649	0.31
538.994	0.31
539.339	0.31
539.685	0.31
540.03	0.32
540.375	0.32
540.721	0.32
541.066	0.32
541.411	0.32
541.756	0.32
542.101	0.32
542.446	0.32
542.791	0.32
543.136	0.32
543.481	0.32
543.825	0.32
544.17	0.32
544.515	0.32
544.86	0.32
545.204	0.32
545.549	0.32
545.893	0.33
546.238	0.33
546.582	0.33
546.927	0.33
547.271	0.33
547.615	0.33
547.96	0.33
548.304	0.33
548.648	0.33
548.992	0.33
549.336	0.33
549.68	0.33
550.024	0.34
550.368	0.33
550.712	0.33
551.056	0.33
551.4	0.33
551.743	0.33
552.087	0.34
552.431	0.33
552.774	0.33
553.118	0.33
553.462	0.33
553.805	0.33
554.148	0.34
554.492	0.33
554.835	0.33
555.178	0.33
555.522	0.33
555.865	0.34
556.208	0.34
556.551	0.33
556.894	0.33
557.237	0.33
557.58	0.33
557.923	0.33
558.266	0.33
558.609	0.33
558.952	0.33
559.294	0.34
559.637	0.33
559.98	0.34
560.322	0.34
560.665	0.33
561.007	0.34
561.35	0.34
561.692	0.34
562.034	0.33
562.377	0.33
562.719	0.33
563.061	0.33
563.403	0.33
563.745	0.33
564.088	0.33
564.43	0.33
564.772	0.33
565.113	0.33
565.455	0.33
565.797	0.33
566.139	0.33
566.481	0.33
566.822	0.33
567.164	0.33
567.506	0.33
567.847	0.33
568.189	0.33
568.53	0.33
568.872	0.33
569.213	0.33
569.554	0.33
569.895	0.33
570.237	0.33
570.578	0.33
570.919	0.32
571.26	0.32
571.601	0.32
571.942	0.32
572.283	0.32
572.624	0.32
572.965	0.31
573.306	0.32
573.646	0.32
573.987	0.31
574.328	0.31
574.668	0.32
575.009	0.31
575.349	0.31
575.69	0.31
576.03	0.31
576.37	0.3
576.711	0.3
577.051	0.31
577.391	0.31
577.731	0.31
578.072	0.31
578.412	0.31
578.752	0.31
579.092	0.3
579.431	0.29
579.771	0.28
580.111	0.27
580.451	0.28
580.791	0.3
581.13	0.3
581.47	0.3
581.81	0.3
582.149	0.3
582.489	0.3
582.828	0.29
583.167	0.27
583.507	0.23
583.846	0.22
584.185	0.24
584.525	0.27
584.864	0.29
585.203	0.3
585.542	0.3
585.881	0.3
586.22	0.3
586.559	0.29
586.898	0.28
587.236	0.28
587.575	0.28
587.914	0.28
588.252	0.29
588.591	0.3
588.93	0.3
589.268	0.29
589.607	0.29
589.945	0.29
590.283	0.3
590.622	0.3
590.96	0.3
591.298	0.3
591.636	0.3
591.974	0.3
592.313	0.3
592.651	0.3
592.989	0.3
593.326	0.3
593.664	0.3
594.002	0.3
594.34	0.3
594.678	0.3
595.015	0.29
595.353	0.29
595.691	0.29
596.028	0.3
596.366	0.3
596.703	0.3
597.04	0.3
597.378	0.3
597.715	0.31
598.052	0.31
598.389	0.31
598.726	0.31
599.064	0.31
599.401	0.31
599.738	0.31
600.074	0.3
600.411	0.3
600.748	0.3
601.085	0.29
601.422	0.29
601.758	0.29
602.095	0.29
602.432	0.29
602.768	0.29
603.105	0.3
603.441	0.3
603.777	0.3
604.114	0.3
604.45	0.3
604.786	0.3
605.122	0.3
605.459	0.3
605.795	0.3
606.131	0.29
606.467	0.3
606.803	0.3
607.139	0.3
607.474	0.3
607.81	0.29
608.146	0.3
608.482	0.29
608.817	0.29
609.153	0.29
609.488	0.29
609.824	0.29
610.159	0.29
610.495	0.29
610.83	0.29
611.165	0.29
611.5	0.29
611.836	0.29
612.171	0.29
612.506	0.29
612.841	0.29
613.176	0.28
613.511	0.29
613.845	0.28
614.18	0.28
614.515	0.28
614.85	0.28
615.184	0.28
615.519	0.28
615.854	0.28
616.188	0.28
616.523	0.28
616.857	0.28
617.191	0.27
617.526	0.27
617.86	0.27
618.194	0.27
618.528	0.27
618.862	0.27
619.196	0.27
619.53	0.27
619.864	0.27
620.198	0.27
620.532	0.27
620.866	0.27
621.2	0.27
621.533	0.26
621.867	0.27
622.201	0.27
622.534	0.26
622.868	0.27
623.201	0.26
623.534	0.26
623.868	0.26
624.201	0.26
624.534	0.26
624.868	0.26
625.201	0.26
625.534	0.26
625.867	0.26
626.2	0.25
626.533	0.25
626.865	0.25
627.198	0.25
627.531	0.25
627.864	0.25
628.196	0.25
628.529	0.25
628.862	0.24
629.194	0.24
629.527	0.24
629.859	0.24
630.191	0.24
630.524	0.24
630.856	0.24
631.188	0.24
631.52	0.23
631.852	0.23
632.184	0.23
632.516	0.23
632.848	0.23
633.18	0.23
633.512	0.23
633.844	0.22
634.175	0.22
634.507	0.22
634.839	0.22
635.17	0.22
635.502	0.22
635.833	0.22
636.165	0.21
636.496	0.21
636.827	0.21
637.159	0.21
637.49	0.21
637.821	0.21
638.152	0.2
638.483	0.2
638.814	0.2
639.145	0.2
639.476	0.2
639.807	0.2
640.137	0.2
640.468	0.2
640.799	0.2
641.129	0.19
641.46	0.19
641.791	0.19
642.121	0.19
642.451	0.19
642.782	0.19
643.112	0.19
643.442	0.19
643.773	0.18
644.103	0.18
644.433	0.18
644.763	0.18
645.093	0.18
645.423	0.18
645.753	0.18
646.082	0.17
646.412	0.17
646.742	0.17
647.072	0.17
647.401	0.17
647.731	0.17
648.06	0.17
648.39	0.17
648.719	0.17
649.048	0.17
649.378	0.17
649.707	0.17
650.036	0.17
650.365	0.17
650.694	0.16
651.023	0.17
651.352	0.16
651.681	0.16
652.01	0.16
652.339	0.16
652.668	0.16
652.996	0.16
653.325	0.16
653.654	0.16
653.982	0.16
654.311	0.16
654.639	0.16
654.967	0.16
655.296	0.16
655.624	0.16
655.952	0.16
656.28	0.16
656.609	0.16
656.937	0.16
657.265	0.16
657.593	0.05
657.92	0
658.248	-0
658.576	0
658.904	0.03
659.231	0.1
659.559	0.15
659.887	0.15
660.214	0.15
660.542	0.15
660.869	0.15
661.196	0.15
661.524	0.15
661.851	0.15
662.178	0.15
662.505	0.15
662.832	0.15
663.159	0.15
663.486	0.15
663.813	0.15
664.14	0.15
664.467	0.14
664.794	0.15
665.12	0.15
665.447	0.15
665.774	0.14
666.1	0.14
666.427	0.14
666.753	0.14
667.079	0.14
667.406	0.14
667.732	0.14
668.058	0.14
668.384	0.14
668.71	0.14
669.036	0.13
669.362	0.14
669.688	0.14
670.014	0.13
670.34	0.13
670.666	0.13
670.991	0.13
671.317	0.13
671.643	0.13
671.968	0.13
672.294	0.13
672.619	0.13
672.945	0.13
673.27	0.12
673.595	0.12
673.92	0.12
674.246	0.12
674.571	0.12
674.896	0.12
675.221	0.12
675.546	0.12
675.87	0.12
676.195	0.12
676.52	0.12
676.845	0.12
677.169	0.11
677.494	0.11
677.819	0.11
678.143	0.11
678.468	0.11
678.792	0.11
679.116	0.1
679.44	0.1
679.765	0.1
680.089	0.1
680.413	0.1
680.737	0.1
681.061	0.1
681.385	0.1
681.709	0.1
682.033	0.09
682.356	0.1
682.68	0.09
683.004	0.1
683.327	0.09
683.651	0.09
683.974	0.09
684.298	0.09
684.621	0.09
684.944	0.09
685.268	0.09
685.591	0.09
685.914	0.08
686.237	0.08
686.56	0.08
686.883	0.08
687.206	0.08
687.529	0.08
687.852	0.07
688.175	0.08
688.497	0.08
688.82	0.08
689.142	0.08
689.465	0.07
689.787	0.07
690.11	0.07
690.432	0.07
690.755	0.07
691.077	0.07
691.399	0.07
691.721	0.07
692.043	0.07
692.365	0.07
692.687	0.07
693.009	0.06
693.331	0.06
693.653	0.06
693.974	0.06
694.296	0.06
694.618	0.06
694.939	0.06
695.261	0.06
695.582	0.06
695.904	0.06
696.225	0.06
696.546	0.06
696.868	0.06
697.189	0.06
697.51	0.05
697.831	0.05
698.152	0.05
698.473	0.05
698.794	0.05
699.114	0.05
699.435	0.04
699.756	0.04
700.077	0.04
700.397	0.05
700.718	0.05
701.038	0.05
701.359	0.05
701.679	0.05
701.999	0.05
702.32	0.05
702.64	0.05
702.96	0.05
703.28	0.05
703.6	0.05
703.92	0.04
704.24	0.04
704.56	0.04
704.879	0.04
705.199	0.04
705.519	0.04
705.838	0.05
706.158	0.04
706.478	0.05
706.797	0.05
707.116	0.05
707.436	0.05
707.755	0.05
708.074	0.05
708.393	0.04
708.712	0.04
709.031	0.03
709.35	0.03
709.669	0.03
709.988	0.03
710.307	0.03
710.626	0.03
710.944	0.04
711.263	0.04
711.582	0.04
711.9	0.04
712.219	0.04
712.537	0.04
712.855	0.04
713.174	0.04
713.492	0.04
713.81	0.04
714.128	0.04
714.446	0.04
714.764	0.04
715.082	0.03
715.4	0.04
715.718	0.04
716.035	0.04
716.353	0.04
716.671	0.04
716.988	0.04
717.306	0.04
717.623	0.04
717.941	0.04
718.258	0.05
718.575	0.05
718.893	0.04
719.21	0.04
719.527	0.04
719.844	0.04
720.161	0.04
720.478	0.04
720.795	0.04
721.112	0.04
721.428	0.05
721.745	0.05
722.062	0.04
722.378	0.04
722.695	0.05
723.011	0.05
723.328	0.05
723.644	0.05
723.96	0.05
724.276	0.05
724.593	0.05
724.909	0.05
725.225	0.05
725.541	0.05
725.857	0.05
726.173	0.05
726.488	0.05
726.804	0.05
727.12	0.05
727.435	0.05
727.751	0.05
728.067	0.05
728.382	0.05
728.697	0.05
729.013	0.05
729.328	0.05
729.643	0.05
729.958	0.05
730.273	0.05
730.588	0.05
730.903	0.05
731.218	0.05
731.533	0.05
731.848	0.05
732.163	0.05
732.477	0.05
732.792	0.05
733.107	0.04
733.421	0.04
733.736	0.04
734.05	0.05
734.364	0.04
734.678	0.05
734.993	0.04
735.307	0.04
735.621	0.04
735.935	0.04
736.249	0.05
736.563	0.05
736.877	0.04
737.19	0.04
737.504	0.04
737.818	0.04
738.131	0.04
738.445	0.04
738.758	0.04
739.072	0.05
739.385	0.04
739.698	0.04
740.012	0.04
740.325	0.04
740.638	0.04
740.951	0.04
741.264	0.04
741.577	0.04
741.89	0.04
742.203	0.04
742.515	0.04
742.828	0.04
743.141	0.04
743.453	0.04
743.766	0.04
744.078	0.04
744.391	0.04
744.703	0.04
745.015	0.04
745.327	0.04
745.639	0.04
745.952	0.04
746.264	0.04
746.575	0.04
746.887	0.04
747.199	0.04
747.511	0.04
747.823	0.04
748.134	0.04
748.446	0.04
748.757	0.04
749.069	0.03
749.38	0.03
749.692	0.03
750.003	0.03
750.314	0.03
750.625	0.03
750.936	0.03
751.248	0.03
751.559	0.03
751.869	0.03
752.18	0.03
752.491	0.03
752.802	0.03
753.112	0.03
753.423	0.03
753.734	0.03
754.044	0.03
754.355	0.03
754.665	0.03
754.975	0.03
755.285	0.03
755.596	0.03
755.906	0.03
756.216	0.03
756.526	0.03
756.836	0.03
757.146	0.03
757.455	0.03
757.765	0.02
758.075	0.02
758.385	0.02
758.694	0.02
759.004	0.02
759.313	0.02
759.622	0.02
759.932	0.02
760.241	0.03
760.55	0.02
760.859	0.02
761.168	0.02
761.477	0.02
761.786	0.02
762.095	0.02
762.404	0.02
762.713	0.02
763.021	0.02
763.33	0.02
763.639	0.02
763.947	0.02
764.256	0.02
764.564	0.02
764.872	0.02
765.181	0.02
765.489	0.02
765.797	0.02
766.105	0.02
766.413	0.02
766.721	0.02
767.029	0.02
767.337	0.02
767.644	0.02
767.952	0.02
768.26	0.02
768.567	0.02
768.875	0.02
769.182	0.02
769.49	0.02
769.797	0.02
770.104	0.02
770.411	0.02
770.718	0.02
771.026	0.02
771.333	0.02
771.639	0.02
771.946	0.02
772.253	0.02
772.56	0.02
772.867	0.02
773.173	0.02
773.48	0.02
773.786	0.02
774.093	0.02
774.399	0.02
774.705	0.02
775.012	0.02
775.318	0.02
775.624	0.02
775.93	0.02
776.236	0.02
776.542	0.02
776.848	0.02
777.154	0.02
777.459	0.02
777.765	0.02
778.071	0.02
778.376	0.02
778.682	0.02
778.987	0.02
779.292	0.02
779.598	0.02
779.903	0.02
780.208	0.02
780.513	0.02
780.818	0.02
781.123	0.02
781.428	0.02
781.733	0.02
782.038	0.02
782.343	0.02
782.647	0.02
782.952	0.02
783.256	0.02
783.561	0.02
783.865	0.02
784.17	0.02
784.474	0.03
784.778	0.03
785.082	0.02
785.386	0.02
785.69	0.02
785.994	0.02
786.298	0.03
786.602	0.02
786.906	0.02
787.209	0.02
787.513	0.02
787.817	0.03
788.12	0.02
788.424	0.02
788.727	0.02
789.03	0.02
789.333	0.02
789.637	0.02
789.94	0.02
790.243	0.02
790.546	0.02
790.849	0.02
791.152	0.02
791.454	0.02
791.757	0.02
792.06	0.02
792.362	0.02
792.665	0.02
792.967	0.02
793.27	0.02
793.572	0.02
793.874	0.02
794.177	0.02
794.479	0.02
794.781	0.02
795.083	0.02
795.385	0.02
795.687	0.02
795.989	0.02
796.29	0.02
796.592	0.02
796.894	0.02
797.195	0.02
797.497	0.02
797.798	0.02
798.1	0.02
798.401	0.02
798.702	0.02
799.003	0.03
799.304	0.02
799.605	0.02
799.906	0.02
800.207	0.02
800.508	0.02
800.809	0.03
801.11	0.02
801.41	0.02
801.711	0.02
802.011	0.02
802.312	0.02
802.612	0.03
802.913	0.03
803.213	0.03
803.513	0.02
803.813	0.02
804.113	0.02
804.413	0.02
804.713	0.02
805.013	0.02
805.313	0.02
805.613	0.03
805.912	0.02
806.212	0.02
806.511	0.02
806.811	0.02
807.11	0.02
807.41	0.02
807.709	0.02
808.008	0.03
808.307	0.03
808.606	0.03
808.905	0.03
809.204	0.03
809.503	0.03
809.802	0.03
810.101	0.03
810.399	0.03
810.698	0.03
810.997	0.03
811.295	0.03
811.593	0.03
811.892	0.03
812.19	0.03
812.488	0.02
812.786	0.02
813.084	0.02
813.383	0.03
813.68	0.02
813.978	0.03
814.276	0.03
814.574	0.03
814.872	0.03
815.169	0.03
815.467	0.03
815.764	0.03
816.062	0.03
816.359	0.03
816.656	0.03
816.954	0.03
817.251	0.03
817.548	0.03
817.845	0.03
818.142	0.03
818.439	0.03
818.735	0.03
819.032	0.03
819.329	0.03
819.626	0.02
819.922	0.03
820.219	0.03
820.515	0.03
820.811	0.03
821.108	0.03
821.404	0.03
821.7	0.03
821.996	0.03
822.292	0.03
822.588	0.03
822.884	0.04
823.18	0.04
823.475	0.03
823.771	0.04
824.067	0.04
824.362	0.04
824.658	0.03
824.953	0.03
825.249	0.03
825.544	0.04
825.839	0.04
826.134	0.04
826.429	0.03
826.724	0.03
827.019	0.03
827.314	0.04
827.609	0.03
827.904	0.04
828.198	0.03
828.493	0.03
828.787	0.04
829.082	0.03
829.376	0.03
829.671	0.03
829.965	0.03
830.259	0.03
830.553	0.04
830.847	0.03
831.141	0.04
831.435	0.03
831.729	0.04
832.023	0.04
832.317	0.04
832.61	0.04
832.904	0.04
833.197	0.04
833.491	0.03
833.784	0.04
834.077	0.04
834.371	0.04
834.664	0.03
834.957	0.03
835.25	0.03
835.543	0.04
835.836	0.03
836.129	0.03
836.421	0.03
836.714	0.03
837.007	0.03
837.299	0.04
837.592	0.03
837.884	0.04
838.177	0.04
838.469	0.04
838.761	0.03
839.053	0.03
839.345	0.04
839.637	0.04
839.929	0.04
840.221	0.04
840.513	0.04
840.805	0.03
841.096	0.04
841.388	0.03
841.68	0.04
841.971	0.04
842.262	0.04
842.554	0.04
842.845	0.03
843.136	0.03
843.427	0.04
843.718	0.04
844.009	0.04
844.3	0.04
844.591	0.04
844.882	0.04
845.173	0.04
845.463	0.04
845.754	0.04
846.044	0.05
846.335	0.04
846.625	0.05
846.915	0.04
847.206	0.04
847.496	0.05
847.786	0.05
848.076	0.04
848.366	0.04
848.656	0.04
848.945	0.05
849.235	0.04
849.525	0.04
849.814	0.04
850.104	0.04
850.393	0.05
850.683	0.04
850.972	0.04
851.261	0.05
851.551	0.04
851.84	0.04
852.129	0.04
852.418	0.04
852.707	0.04
852.995	0.04
853.284	0.05
853.573	0.04
853.862	0.05
854.15	0.03
854.439	0.04
854.727	0.04
855.015	0.04
855.304	0.04
855.592	0.05
855.88	0.04
856.168	0.04
856.456	0.05
856.744	0.05
857.032	0.05
857.32	0.05
857.607	0.05
857.895	0.06
858.183	0.05
858.47	0.05
858.757	0.06
859.045	0.07
859.332	0.06
859.619	0.05
859.907	0.05
860.194	0.05
860.481	0.05
860.768	0.04
861.054	0.06
861.341	0.05
861.628	0.06
861.915	0.05
862.201	0.06
862.488	0.06
862.774	0.06
863.061	0.06
863.347	0.04
863.633	0.06
863.919	0.06
864.205	0.03
864.491	0.04
864.777	0.05
865.063	0.06
865.349	0.04
865.635	0.04
865.92	0.05
866.206	0.05
866.492	0.06
866.777	0.05
867.062	0.04
867.348	0.04
867.633	0.04
867.918	0.04
868.203	0.06
868.488	0.06
868.773	0.05
869.058	0.08
869.343	0.07
869.628	0.04
869.912	0.05
870.197	0.05
870.482	0.06
870.766	0.06
871.05	0.02
871.335	0.04
871.619	0.05
871.903	0.06
872.187	0.04
872.471	0.05
872.755	0.02
873.039	0.03
873.323	0.05
873.607	0.04
873.89	0.11
874.174	0.04
874.458	0.05
874.741	0.06
875.024	0.07
875.308	0.04
875.591	0.06
875.874	0.06
876.157	0.07
876.44	0.08
876.723	0.09
877.006	0.04
877.289	0.06
877.572	0.07
877.854	0.05
878.137	-0.03
878.42	0.02
878.702	0.05
878.984	0.05
879.267	0.07
879.549	0.08
879.831	0.1
880.113	0.13
880.395	0.08
880.677	0.05
880.959	0.08
