Data from 260730_Fluorescein_EV_EDTA_Blank_Blue_Flow_3_Absorbance__138__16-54-28-895.txt Node

Date: Thu Jul 30 16:54:28 BST 2026
User: fpm-admin
Spectrometer: SR600986
Trigger mode: 0
Integration Time (sec): 8.000000E-3
Scans to average: 3
Nonlinearity correction enabled: true
Boxcar width: 0
Storing dark spectrum: false
XAxis mode: Wavelengths
Number of Pixels in Spectrum: 2048
>>>>>Begin Spectral Data<<<<<
188.613	0.09
189.078	0.09
189.542	0.09
190.007	0.07
190.472	0.08
190.936	0.08
191.401	0.08
191.865	0.08
192.33	0.07
192.794	0.11
193.258	0.1
193.723	0.1
194.187	0.09
194.651	0.09
195.115	0.1
195.579	0.09
196.043	0.09
196.507	0.08
196.971	0.1
197.435	0.08
197.899	0.08
198.363	0.1
198.827	0.1
199.29	0.1
199.754	0.09
200.218	0.07
200.681	0.1
201.145	0.08
201.608	0.11
202.072	0.09
202.535	0.08
202.998	0.07
203.462	0.1
203.925	0.11
204.388	0.08
204.851	0.08
205.314	0.09
205.777	0.09
206.24	0.09
206.703	0.08
207.166	0.09
207.629	0.1
208.092	0.1
208.555	0.09
209.018	0.1
209.48	0.1
209.943	0.09
210.406	0.09
210.868	0.1
211.331	0.1
211.793	0.11
212.256	0.08
212.718	0.1
213.18	0.08
213.643	0.1
214.105	0.1
214.567	0.1
215.029	0.07
215.491	0.09
215.953	0.09
216.415	0.09
216.877	0.09
217.339	0.09
217.801	0.1
218.263	0.09
218.725	0.09
219.186	0.11
219.648	0.08
220.11	0.08
220.571	0.09
221.033	0.09
221.494	0.1
221.956	0.09
222.417	0.08
222.878	0.09
223.34	0.09
223.801	0.1
224.262	0.09
224.723	0.09
225.185	0.09
225.646	0.09
226.107	0.09
226.568	0.1
227.029	0.11
227.489	0.09
227.95	0.1
228.411	0.09
228.872	0.1
229.332	0.09
229.793	0.11
230.254	0.11
230.714	0.1
231.175	0.09
231.635	0.09
232.096	0.09
232.556	0.08
233.016	0.09
233.477	0.11
233.937	0.1
234.397	0.07
234.857	0.1
235.317	0.09
235.777	0.1
236.237	0.1
236.697	0.09
237.157	0.11
237.617	0.11
238.077	0.1
238.537	0.11
238.996	0.1
239.456	0.11
239.916	0.09
240.375	0.11
240.835	0.1
241.294	0.11
241.754	0.11
242.213	0.1
242.672	0.08
243.132	0.08
243.591	0.1
244.05	0.1
244.509	0.1
244.968	0.1
245.427	0.1
245.886	0.11
246.345	0.1
246.804	0.1
247.263	0.1
247.722	0.1
248.181	0.1
248.639	0.1
249.098	0.08
249.557	0.09
250.015	0.09
250.474	0.1
250.932	0.09
251.391	0.1
251.849	0.1
252.308	0.1
252.766	0.11
253.224	0.09
253.682	0.09
254.14	0.1
254.599	0.11
255.057	0.09
255.515	0.1
255.973	0.11
256.431	0.11
256.888	0.11
257.346	0.11
257.804	0.1
258.262	0.1
258.719	0.1
259.177	0.09
259.635	0.1
260.092	0.1
260.55	0.11
261.007	0.1
261.465	0.11
261.922	0.09
262.379	0.11
262.836	0.12
263.294	0.1
263.751	0.1
264.208	0.11
264.665	0.1
265.122	0.12
265.579	0.11
266.036	0.12
266.493	0.12
266.95	0.11
267.406	0.1
267.863	0.12
268.32	0.1
268.777	0.11
269.233	0.11
269.69	0.11
270.146	0.1
270.603	0.11
271.059	0.11
271.515	0.13
271.972	0.12
272.428	0.11
272.884	0.11
273.34	0.11
273.796	0.12
274.253	0.12
274.709	0.11
275.165	0.13
275.62	0.11
276.076	0.13
276.532	0.14
276.988	0.12
277.444	0.14
277.899	0.14
278.355	0.13
278.811	0.14
279.266	0.14
279.722	0.13
280.177	0.14
280.633	0.15
281.088	0.15
281.543	0.15
281.998	0.16
282.454	0.16
282.909	0.16
283.364	0.19
283.819	0.17
284.274	0.19
284.729	0.19
285.184	0.18
285.639	0.2
286.094	0.2
286.548	0.23
287.003	0.23
287.458	0.24
287.913	0.26
288.367	0.28
288.822	0.29
289.276	0.31
289.731	0.32
290.185	0.34
290.639	0.38
291.094	0.39
291.548	0.41
292.002	0.44
292.456	0.46
292.91	0.5
293.365	0.51
293.819	0.56
294.273	0.58
294.726	0.61
295.18	0.63
295.634	0.64
296.088	0.67
296.542	0.69
296.995	0.72
297.449	0.73
297.903	0.75
298.356	0.78
298.81	0.77
299.263	0.78
299.716	0.79
300.17	0.79
300.623	0.78
301.076	0.79
301.53	0.78
301.983	0.77
302.436	0.76
302.889	0.74
303.342	0.72
303.795	0.71
304.248	0.69
304.701	0.68
305.153	0.66
305.606	0.64
306.059	0.63
306.512	0.62
306.964	0.6
307.417	0.59
307.869	0.58
308.322	0.56
308.774	0.55
309.227	0.54
309.679	0.53
310.131	0.52
310.584	0.51
311.036	0.5
311.488	0.49
311.94	0.49
312.392	0.48
312.844	0.48
313.296	0.47
313.748	0.47
314.2	0.46
314.652	0.46
315.103	0.46
315.555	0.46
316.007	0.46
316.458	0.45
316.91	0.45
317.361	0.45
317.813	0.45
318.264	0.45
318.716	0.45
319.167	0.45
319.618	0.45
320.07	0.45
320.521	0.45
320.972	0.44
321.423	0.44
321.874	0.44
322.325	0.44
322.776	0.44
323.227	0.43
323.678	0.43
324.128	0.43
324.579	0.42
325.03	0.42
325.48	0.42
325.931	0.41
326.382	0.41
326.832	0.41
327.283	0.4
327.733	0.4
328.183	0.39
328.634	0.39
329.084	0.39
329.534	0.38
329.984	0.38
330.434	0.38
330.884	0.37
331.334	0.37
331.784	0.36
332.234	0.35
332.684	0.34
333.134	0.33
333.584	0.33
334.034	0.32
334.483	0.32
334.933	0.32
335.382	0.31
335.832	0.3
336.281	0.3
336.731	0.29
337.18	0.28
337.63	0.28
338.079	0.28
338.528	0.27
338.977	0.27
339.426	0.26
339.876	0.26
340.325	0.25
340.774	0.25
341.223	0.24
341.671	0.24
342.12	0.24
342.569	0.23
343.018	0.23
343.467	0.23
343.915	0.22
344.364	0.22
344.812	0.22
345.261	0.22
345.709	0.22
346.158	0.22
346.606	0.21
347.054	0.21
347.503	0.21
347.951	0.21
348.399	0.21
348.847	0.21
349.295	0.21
349.743	0.22
350.191	0.22
350.639	0.22
351.087	0.22
351.535	0.22
351.983	0.22
352.43	0.22
352.878	0.22
353.326	0.23
353.773	0.23
354.221	0.23
354.668	0.23
355.116	0.23
355.563	0.23
356.01	0.24
356.458	0.24
356.905	0.24
357.352	0.24
357.799	0.25
358.246	0.25
358.693	0.25
359.14	0.26
359.587	0.26
360.034	0.26
360.481	0.26
360.928	0.27
361.375	0.27
361.821	0.27
362.268	0.27
362.714	0.27
363.161	0.27
363.608	0.27
364.054	0.28
364.5	0.28
364.947	0.28
365.393	0.28
365.839	0.28
366.285	0.28
366.732	0.28
367.178	0.29
367.624	0.29
368.07	0.29
368.516	0.29
368.962	0.29
369.408	0.29
369.853	0.29
370.299	0.29
370.745	0.3
371.19	0.29
371.636	0.3
372.082	0.3
372.527	0.3
372.973	0.3
373.418	0.3
373.863	0.31
374.309	0.3
374.754	0.31
375.199	0.31
375.644	0.31
376.09	0.31
376.535	0.31
376.98	0.31
377.425	0.32
377.87	0.32
378.314	0.32
378.759	0.32
379.204	0.32
379.649	0.32
380.093	0.32
380.538	0.32
380.983	0.32
381.427	0.32
381.872	0.32
382.316	0.32
382.76	0.33
383.205	0.33
383.649	0.33
384.093	0.33
384.537	0.33
384.982	0.33
385.426	0.33
385.87	0.33
386.314	0.33
386.758	0.33
387.201	0.33
387.645	0.32
388.089	0.32
388.533	0.33
388.976	0.33
389.42	0.33
389.864	0.33
390.307	0.33
390.751	0.33
391.194	0.33
391.638	0.32
392.081	0.32
392.524	0.31
392.967	0.31
393.411	0.32
393.854	0.32
394.297	0.32
394.74	0.33
395.183	0.33
395.626	0.33
396.069	0.33
396.512	0.33
396.954	0.33
397.397	0.32
397.84	0.32
398.282	0.32
398.725	0.32
399.168	0.32
399.61	0.33
400.052	0.33
400.495	0.33
400.937	0.34
401.38	0.34
401.822	0.34
402.264	0.34
402.706	0.34
403.148	0.34
403.59	0.35
404.032	0.35
404.474	0.35
404.916	0.35
405.358	0.35
405.8	0.36
406.241	0.35
406.683	0.36
407.125	0.36
407.566	0.37
408.008	0.37
408.449	0.37
408.891	0.38
409.332	0.38
409.774	0.39
410.215	0.39
410.656	0.4
411.097	0.4
411.539	0.41
411.98	0.41
412.421	0.42
412.862	0.43
413.303	0.43
413.744	0.44
414.184	0.45
414.625	0.45
415.066	0.46
415.507	0.47
415.947	0.48
416.388	0.48
416.828	0.49
417.269	0.5
417.709	0.51
418.15	0.52
418.59	0.52
419.03	0.53
419.471	0.54
419.911	0.55
420.351	0.56
420.791	0.57
421.231	0.57
421.671	0.59
422.111	0.59
422.551	0.6
422.991	0.61
423.431	0.62
423.87	0.63
424.31	0.63
424.75	0.64
425.189	0.65
425.629	0.66
426.068	0.67
426.508	0.67
426.947	0.68
427.386	0.69
427.826	0.7
428.265	0.71
428.704	0.72
429.143	0.73
429.582	0.74
430.021	0.75
430.46	0.75
430.899	0.77
431.338	0.77
431.777	0.78
432.216	0.79
432.655	0.8
433.093	0.81
433.532	0.82
433.971	0.83
434.409	0.84
434.848	0.86
435.286	0.87
435.724	0.88
436.163	0.89
436.601	0.91
437.039	0.92
437.477	0.93
437.916	0.94
438.354	0.96
438.792	0.97
439.23	0.99
439.668	1
440.105	1.02
440.543	1.04
440.981	1.05
441.419	1.06
441.856	1.08
442.294	1.1
442.732	1.11
443.169	1.12
443.607	1.15
444.044	1.16
444.481	1.18
444.919	1.19
445.356	1.21
445.793	1.22
446.23	1.23
446.668	1.25
447.105	1.27
447.542	1.28
447.979	1.29
448.416	1.31
448.852	1.32
449.289	1.33
449.726	1.35
450.163	1.36
450.599	1.37
451.036	1.39
451.473	1.39
451.909	1.4
452.346	1.42
452.782	1.42
453.218	1.43
453.655	1.44
454.091	1.46
454.527	1.45
454.963	1.46
455.399	1.47
455.835	1.48
456.271	1.49
456.707	1.49
457.143	1.5
457.579	1.51
458.015	1.52
458.451	1.52
458.886	1.52
459.322	1.53
459.758	1.54
460.193	1.54
460.629	1.56
461.064	1.55
461.5	1.55
461.935	1.56
462.37	1.56
462.805	1.56
463.241	1.58
463.676	1.58
464.111	1.6
464.546	1.6
464.981	1.6
465.416	1.62
465.851	1.61
466.286	1.62
466.72	1.62
467.155	1.64
467.59	1.64
468.024	1.64
468.459	1.64
468.893	1.65
469.328	1.64
469.762	1.66
470.197	1.65
470.631	1.65
471.065	1.68
471.5	1.68
471.934	1.69
472.368	1.69
472.802	1.7
473.236	1.72
473.67	1.73
474.104	1.74
474.538	1.75
474.972	1.76
475.405	1.76
475.839	1.77
476.273	1.77
476.706	1.78
477.14	1.79
477.573	1.79
478.007	1.79
478.44	1.8
478.874	1.8
479.307	1.8
479.74	1.81
480.173	1.82
480.606	1.83
481.04	1.82
481.473	1.83
481.906	1.84
482.339	1.84
482.771	1.82
483.204	1.84
483.637	1.85
484.07	1.87
484.502	1.87
484.935	1.89
485.368	1.9
485.8	1.91
486.233	1.91
486.665	1.9
487.098	1.89
487.53	1.87
487.962	1.88
488.394	1.86
488.827	1.87
489.259	1.84
489.691	1.83
490.123	1.83
490.555	1.82
490.987	1.82
491.418	1.8
491.85	1.79
492.282	1.8
492.714	1.8
493.145	1.79
493.577	1.78
494.009	1.79
494.44	1.78
494.872	1.77
495.303	1.78
495.734	1.76
496.166	1.77
496.597	1.74
497.028	1.72
497.459	1.71
497.89	1.69
498.321	1.68
498.752	1.66
499.183	1.65
499.614	1.62
500.045	1.6
500.476	1.59
500.906	1.56
501.337	1.54
501.768	1.51
502.198	1.48
502.629	1.46
503.059	1.43
503.49	1.41
503.92	1.37
504.35	1.34
504.781	1.3
505.211	1.26
505.641	1.23
506.071	1.2
506.501	1.15
506.931	1.12
507.361	1.09
507.791	1.05
508.221	1.01
508.651	0.98
509.081	0.94
509.51	0.91
509.94	0.87
510.37	0.84
510.799	0.8
511.229	0.77
511.658	0.74
512.087	0.71
512.517	0.68
512.946	0.65
513.375	0.62
513.804	0.59
514.234	0.57
514.663	0.54
515.092	0.52
515.521	0.49
515.95	0.47
516.378	0.45
516.807	0.42
517.236	0.4
517.665	0.39
518.093	0.37
518.522	0.35
518.951	0.33
519.379	0.32
519.807	0.31
520.236	0.29
520.664	0.27
521.093	0.26
521.521	0.25
521.949	0.24
522.377	0.23
522.805	0.22
523.233	0.21
523.661	0.2
524.089	0.19
524.517	0.18
524.945	0.17
525.373	0.16
525.8	0.16
526.228	0.15
526.656	0.14
527.083	0.14
527.511	0.13
527.938	0.13
528.366	0.12
528.793	0.11
529.22	0.11
529.648	0.11
530.075	0.1
530.502	0.1
530.929	0.1
531.356	0.09
531.783	0.09
532.21	0.08
532.637	0.08
533.064	0.08
533.49	0.07
533.917	0.07
534.344	0.07
534.771	0.07
535.197	0.07
535.624	0.07
536.05	0.06
536.477	0.06
536.903	0.06
537.329	0.06
537.755	0.05
538.182	0.05
538.608	0.05
539.034	0.05
539.46	0.05
539.886	0.05
540.312	0.05
540.738	0.05
541.164	0.05
541.589	0.05
542.015	0.04
542.441	0.04
542.867	0.04
543.292	0.04
543.718	0.04
544.143	0.04
544.569	0.04
544.994	0.04
545.419	0.04
545.845	0.04
546.27	0.04
546.695	0.03
547.12	0.03
547.545	0.03
547.97	0.03
548.395	0.03
548.82	0.03
549.245	0.03
549.67	0.03
550.094	0.03
550.519	0.03
550.944	0.03
551.368	0.03
551.793	0.03
552.217	0.03
552.642	0.03
553.066	0.03
553.49	0.02
553.915	0.03
554.339	0.03
554.763	0.03
555.187	0.02
555.611	0.03
556.035	0.02
556.459	0.03
556.883	0.02
557.307	0.02
557.731	0.02
558.154	0.02
558.578	0.02
559.002	0.02
559.425	0.02
559.849	0.02
560.272	0.02
560.696	0.02
561.119	0.02
561.543	0.02
561.966	0.02
562.389	0.02
562.812	0.02
563.235	0.02
563.658	0.02
564.081	0.02
564.504	0.02
564.927	0.02
565.35	0.02
565.773	0.02
566.196	0.02
566.618	0.02
567.041	0.02
567.463	0.02
567.886	0.02
568.309	0.02
568.731	0.02
569.153	0.02
569.576	0.02
569.998	0.02
570.42	0.02
570.842	0.02
571.264	0.02
571.686	0.02
572.108	0.02
572.53	0.02
572.952	0.02
573.374	0.02
573.796	0.02
574.218	0.02
574.639	0.02
575.061	0.02
575.483	0.02
575.904	0.02
576.326	0.02
576.747	0.02
577.168	0.02
577.59	0.02
578.011	0.02
578.432	0.02
578.853	0.02
579.274	0.02
579.695	0.02
580.116	0.02
580.537	0.01
580.958	0.02
581.379	0.02
581.8	0.02
582.221	0.02
582.641	0.01
583.062	0.02
583.482	0.02
583.903	0.01
584.323	0.01
584.744	0.01
585.164	0.01
585.584	0.01
586.005	0.01
586.425	0.01
586.845	0.01
587.265	0.01
587.685	0.01
588.105	0.01
588.525	0.02
588.945	0.02
589.365	0.02
589.785	0.01
590.204	0.02
590.624	0.01
591.044	0.01
591.463	0.01
591.883	0.01
592.302	0.01
592.721	0.01
593.141	0.01
593.56	0.01
593.979	0.01
594.399	0.01
594.818	0.01
595.237	0.01
595.656	0.01
596.075	0.01
596.494	0.01
596.913	0.01
597.331	0.01
597.75	0.01
598.169	0.01
598.587	0.01
599.006	0.01
599.425	0.01
599.843	0.01
600.262	0.01
600.68	0.01
601.098	0.01
601.517	0.02
601.935	0.01
602.353	0.01
602.771	0.01
603.189	0.01
603.607	0.01
604.025	0.01
604.443	0.01
604.861	0.01
605.279	0.02
605.696	0.01
606.114	0.01
606.532	0.01
606.949	0.01
607.367	0.01
607.784	0.01
608.202	0.01
608.619	0.01
609.036	0.01
609.454	0.01
609.871	0.01
610.288	0.01
610.705	0.01
611.122	0.01
611.539	0.01
611.956	0.01
612.373	0.01
612.79	0.01
613.207	0.01
613.623	0.01
614.04	0.01
614.457	0.01
614.873	0.01
615.29	0.01
615.706	0.01
616.122	0.01
616.539	0.01
616.955	0.01
617.371	0.01
617.788	0.01
618.204	0.01
618.62	0.01
619.036	0.01
619.452	0.01
619.868	0.01
620.284	0.01
620.699	0.01
621.115	0.01
621.531	0.01
621.946	0.01
622.362	0.01
622.778	0.01
623.193	0.01
623.608	0.01
624.024	0.01
624.439	0.01
624.854	0.01
625.27	0.01
625.685	0.01
626.1	0.01
626.515	0.01
626.93	0.01
627.345	0.01
627.76	0.01
628.175	0.01
628.589	0.01
629.004	0.01
629.419	0.01
629.833	0.01
630.248	0.01
630.663	0.01
631.077	0.01
631.491	0.01
631.906	0.01
632.32	0.01
632.734	0.01
633.148	0.01
633.563	0.01
633.977	0.01
634.391	0.01
634.805	0.01
635.219	0.01
635.632	0.01
636.046	0.01
636.46	0.01
636.874	0.01
637.287	0.01
637.701	0.01
638.115	0.01
638.528	0.01
638.941	0.01
639.355	0.01
639.768	0.01
640.181	0.01
640.595	0.01
641.008	0.01
641.421	0.01
641.834	0.01
642.247	0.01
642.66	0.01
643.073	0.01
643.486	0.01
643.898	0.01
644.311	0.01
644.724	0.01
645.136	0.01
645.549	0.01
645.961	0.01
646.374	0.01
646.786	0.01
647.199	0.01
647.611	0.01
648.023	0.01
648.435	0.01
648.847	0.01
649.26	0.01
649.672	0.01
650.084	0.01
650.495	0.01
650.907	0.01
651.319	0.01
651.731	0.01
652.143	0.01
652.554	0.01
652.966	0.01
653.377	0.01
653.789	0.01
654.2	0.01
654.612	0.01
655.023	0
655.434	-0
655.845	-0
656.256	-0
656.668	0.01
657.079	0.01
657.49	0.01
657.901	0.01
658.311	0.01
658.722	0.01
659.133	0.01
659.544	0.01
659.954	0.01
660.365	0.01
660.775	0.01
661.186	0.01
661.596	0.01
662.007	0.01
662.417	0.01
662.827	0.01
663.238	0.01
663.648	0.01
664.058	0.01
664.468	0.01
664.878	0.01
665.288	0.01
665.698	0.01
666.108	0.01
666.517	0.01
666.927	0.01
667.337	0.01
667.746	0.01
668.156	0.01
668.565	0.01
668.975	0.01
669.384	0.01
669.794	0.01
670.203	0.01
670.612	0.01
671.021	0.01
671.43	0.01
671.84	0.01
672.249	0.01
672.658	0.01
673.066	0.01
673.475	0.01
673.884	0.01
674.293	0.01
674.702	0.01
675.11	0.01
675.519	0.01
675.927	0.01
676.336	0.01
676.744	0.01
677.152	0.01
677.561	0.01
677.969	0.01
678.377	0.01
678.785	0.01
679.193	0.01
679.601	0.01
680.009	0.01
680.417	0.01
680.825	0.01
681.233	0.01
681.641	0.01
682.048	0.01
682.456	0.01
682.864	0.01
683.271	0.01
683.679	0.01
684.086	0.01
684.493	0.01
684.901	0.01
685.308	0.01
685.715	0.01
686.122	0.01
686.529	0.01
686.936	0.01
687.343	0.01
687.75	0.01
688.157	0.01
688.564	0.01
688.971	0.01
689.378	0.01
689.784	0.01
690.191	0.01
690.597	0.01
691.004	0.01
691.41	0.01
691.817	0.01
692.223	0.01
692.629	0.01
693.035	0.01
693.442	0.01
693.848	0.01
694.254	0.01
694.66	0.01
695.066	0.01
695.471	0.01
695.877	0.01
696.283	0.01
696.689	0.01
697.094	0.01
697.5	0.01
697.906	0.01
698.311	0.01
698.716	0.01
699.122	0.01
699.527	0.01
699.932	0.01
700.338	0.01
700.743	0.01
701.148	0.01
701.553	0.01
701.958	0.01
702.363	0.01
702.768	0.01
703.173	0.01
703.577	0.01
703.982	0.01
704.387	0.01
704.791	0.01
705.196	0.01
705.6	0.01
706.005	0.01
706.409	0.01
706.814	0.01
707.218	0.01
707.622	0.01
708.026	0.01
708.43	0.01
708.834	0.01
709.238	0.01
709.642	0.01
710.046	0.01
710.45	0.01
710.854	0.01
711.257	0.01
711.661	0.01
712.065	0.01
712.468	0.01
712.872	0.01
713.275	0.01
713.679	0.01
714.082	0.01
714.485	0.01
714.888	0.01
715.291	0.01
715.695	0.01
716.098	0.01
716.501	0.01
716.904	0.01
717.306	0.01
717.709	0.01
718.112	0.01
718.515	0.01
718.917	0.01
719.32	0.01
719.723	0.01
720.125	0.01
720.527	0.01
720.93	0.01
721.332	0.01
721.734	0.01
722.137	0.01
722.539	0.01
722.941	0
723.343	0.01
723.745	0.01
724.147	0.01
724.549	0.01
724.95	0.01
725.352	0.01
725.754	0.01
726.156	0.01
726.557	0.01
726.959	0.01
727.36	0.01
727.762	0.01
728.163	0.01
728.564	0.01
728.966	0.01
729.367	0.01
729.768	0.01
730.169	0.01
730.57	0.01
730.971	0.01
731.372	0.01
731.773	0.01
732.174	0.01
732.574	0.01
732.975	0.01
733.376	0.01
733.776	0.01
734.177	0.01
734.577	0.01
734.978	0.01
735.378	0.01
735.778	0.01
736.179	0.01
736.579	0.01
736.979	0.01
737.379	0.01
737.779	0.01
738.179	0.01
738.579	0.01
738.979	0.01
739.379	0.01
739.778	0.01
740.178	0.01
740.578	0.01
740.977	0.01
741.377	0.01
741.776	0.01
742.176	0.01
742.575	0.01
742.974	0.01
743.374	0.01
743.773	0.01
744.172	0.01
744.571	0.01
744.97	0.01
745.369	0.01
745.768	0.01
746.167	0.01
746.565	0.01
746.964	0.01
747.363	0.01
747.761	0.01
748.16	0.01
748.559	0.01
748.957	0.01
749.355	0.01
749.754	0.01
750.152	0.01
750.55	0.01
750.948	0.01
751.347	0.01
751.745	0.01
752.143	0.01
752.541	0.01
752.938	0.01
753.336	0.01
753.734	0.01
754.132	0.01
754.529	0.01
754.927	0.01
755.325	0.01
755.722	0.01
756.119	0.01
756.517	0.01
756.914	0.01
757.311	0.01
757.709	0.01
758.106	0.01
758.503	0.01
758.9	0.01
759.297	0.01
759.694	0.01
760.091	0.01
760.488	0.01
760.884	0.01
761.281	0.01
761.678	0.01
762.074	0.01
762.471	0.01
762.867	0.01
763.264	0.01
763.66	0.01
764.056	0.01
764.453	0.01
764.849	0.01
765.245	0.01
765.641	0.01
766.037	0.01
766.433	0.01
766.829	0.01
767.225	0.01
767.621	0.01
768.016	0.01
768.412	0.01
768.808	0.01
769.203	0.01
769.599	0.01
769.994	0.01
770.389	0.01
770.785	0.01
771.18	0.01
771.575	0.01
771.971	0.01
772.366	0.01
772.761	0.01
773.156	0.01
773.551	0.01
773.945	0.01
774.34	0.01
774.735	0.01
775.13	0.01
775.524	0.01
775.919	0.01
776.314	0.01
776.708	0.01
777.103	0.01
777.497	0.01
777.891	0.01
778.285	0.01
778.68	0.01
779.074	0.01
779.468	0.01
779.862	0.01
780.256	0.01
780.65	0.01
781.044	0.01
781.438	0.01
781.831	0.01
782.225	0.01
782.619	0.01
783.012	0.01
783.406	0.01
783.799	0.01
784.193	0.01
784.586	0.01
784.979	0.01
785.372	0.01
785.766	0.01
786.159	0.01
786.552	0.01
786.945	0.01
787.338	0.01
787.731	0.01
788.123	0.01
788.516	0.01
788.909	0.01
789.302	0.01
789.694	0.01
790.087	0.01
790.479	0.01
790.872	0.01
791.264	0.01
791.656	0.01
792.049	0.01
792.441	0.01
792.833	0.01
793.225	0.01
793.617	0.01
794.009	0.01
794.401	0.01
794.793	0.01
795.185	0.01
795.576	0.01
795.968	0.01
796.36	0.01
796.751	0.01
797.143	0.01
797.534	0.01
797.926	0.01
798.317	0.01
798.708	0.01
799.1	0.01
799.491	0.01
799.882	0.01
800.273	0.01
800.664	0.01
801.055	0.01
801.446	0.01
801.837	0.01
802.227	0.01
802.618	0.01
803.009	0.01
803.399	0.01
803.79	0.01
804.18	0.01
804.571	0.01
804.961	0.01
805.351	0.01
805.742	0.01
806.132	0.01
806.522	0.01
806.912	0.01
807.302	0.01
807.692	0.01
808.082	0.01
808.472	0.01
808.862	0.01
809.251	0.01
809.641	0.01
810.031	0.01
810.42	0.01
810.81	0.01
811.199	0.01
811.589	0.01
811.978	0.01
812.367	0.01
812.756	0.01
813.146	0.01
813.535	0.01
813.924	0.01
814.313	0.01
814.702	0.01
815.091	0.01
815.479	0.01
815.868	0.01
816.257	0.01
816.645	0.01
817.034	0.01
817.423	0.01
817.811	0.01
818.199	0.01
818.588	0.01
818.976	0.01
819.364	0.01
819.753	0.01
820.141	0.01
820.529	0.01
820.917	0.01
821.305	0.01
821.693	0.01
822.08	0.01
822.468	0.01
822.856	0.01
823.244	0.01
823.631	0.01
824.019	0.01
824.406	0.01
824.794	0.01
825.181	0.01
825.568	0.01
825.956	0.01
826.343	0.01
826.73	0.01
827.117	0.01
827.504	0.01
827.891	0.01
828.278	0.01
828.665	0.01
829.052	0.01
829.438	0.01
829.825	0.01
830.212	0.01
830.598	0.01
830.985	0.01
831.371	0.01
831.757	0.01
832.144	0.01
832.53	0.01
832.916	0.01
833.302	0.01
833.688	0.01
834.075	0.01
834.461	0.01
834.846	0.01
835.232	0.01
835.618	0.01
836.004	0.01
836.39	0.01
836.775	0.01
837.161	0.01
837.546	0.01
837.932	0.01
838.317	0.01
838.702	0.01
839.088	0.01
839.473	0.01
839.858	0.01
840.243	0.01
840.628	0.01
841.013	0.01
841.398	0.01
841.783	0.01
842.168	0.01
842.553	0.01
842.937	0.01
843.322	0.01
843.707	0.01
844.091	0.01
844.476	0.01
844.86	0.01
845.244	0.01
845.629	0.01
846.013	0.01
846.397	0.01
846.781	0.01
847.165	0.01
847.549	0.01
847.933	0.01
848.317	0.01
848.701	0.01
849.085	0.01
849.468	0.01
849.852	0.01
850.236	0.01
850.619	0.01
851.003	0.01
851.386	0.01
851.769	0.01
852.153	0.01
852.536	0.01
852.919	0.01
853.302	0.01
853.685	0.01
854.068	0.01
854.451	0.01
854.834	0.01
855.217	0.01
855.6	0.01
855.982	0.01
856.365	0.01
856.748	0.01
857.13	0.01
857.513	0.01
857.895	0.01
858.277	0.01
858.66	0.01
859.042	0.01
859.424	0.01
859.806	0.01
860.188	0.01
860.57	0.01
860.952	0
861.334	0.01
861.716	0.01
862.098	0.01
862.48	0.01
862.861	0.01
863.243	0.01
863.624	0
864.006	0.01
864.387	0.01
864.769	0.01
865.15	0.01
865.531	0.01
865.912	0.01
866.294	0.01
866.675	0.01
867.056	0.01
867.437	0.01
867.818	0.01
868.198	0.01
868.579	0.01
868.96	0.01
869.341	0.01
869.721	0.01
870.102	0.01
870.482	0.01
870.863	0.01
871.243	0.01
871.623	0.01
872.003	0
872.384	0.01
872.764	0.01
873.144	0.01
873.524	0
873.904	0.01
874.284	0.01
874.664	0.01
875.043	0.01
875.423	0.01
875.803	0.01
876.182	0
876.562	0.01
876.941	0.01
877.321	0.01
877.7	0.01
878.079	0
878.459	0.01
878.838	0.01
879.217	0.01
879.596	0.01
879.975	0.01
880.354	0.01
880.733	0.01
881.112	0.01
881.491	0.01
881.869	0.01
882.248	0.01
882.627	0.01
883.005	0.01
883.384	0.01
883.762	0.01
884.14	0.01
884.519	0.01
884.897	0.01
885.275	0.01
885.653	0.01
886.031	0.01
886.409	0.01
886.787	0.01
887.165	0.01
887.543	0.01
887.921	0.01
888.298	0.01
888.676	0.01
889.054	0.01
889.431	0.01
889.809	0.01
890.186	0.01
890.563	0.01
890.941	0.01
891.318	0.01
891.695	0.01
892.072	0.01
892.449	0.01
892.826	0.01
893.203	0.01
893.58	0.01
893.957	0.01
894.334	0.01
894.71	0.01
895.087	0.01
895.464	0.01
895.84	0.01
896.217	0.01
896.593	0.01
896.969	0.01
897.346	0.01
897.722	0.01
898.098	0.01
898.474	0.01
898.85	0.01
899.226	0.01
899.602	0.01
899.978	0.01
900.354	0.01
900.73	0.01
901.105	0.01
901.481	0.01
901.857	0.01
902.232	0.01
902.608	0.01
902.983	0.01
903.358	0.01
903.734	0.01
904.109	0.01
904.484	0.01
904.859	0.01
905.234	0.01
905.609	0.01
905.984	0.01
906.359	0.01
906.734	0.01
907.108	0.01
907.483	0.01
907.858	0.01
908.232	0.01
908.607	0.01
908.981	0.01
909.356	0.01
909.73	0.01
910.104	0.01
910.478	0.01
910.853	0.01
911.227	0.01
911.601	0.01
911.975	0.01
912.349	0.01
912.722	0.01
913.096	0.01
913.47	0.01
913.844	0.01
914.217	0.01
914.591	0.01
914.964	0.01
915.338	0.01
915.711	0.01
916.084	0.01
916.458	0.01
916.831	0.01
917.204	0.01
917.577	0.01
917.95	0.01
918.323	0.01
918.696	0.01
919.069	0.01
919.441	0.01
919.814	0.01
920.187	0.01
920.559	0.01
920.932	0.01
921.304	0.01
921.677	0.01
922.049	0.01
922.421	0.01
922.794	0.01
923.166	0.01
923.538	0.01
923.91	0.01
924.282	0.01
924.654	0.01
925.026	0.01
925.398	0.01
925.769	0.01
926.141	0.01
926.513	0.01
926.884	0.01
927.256	0.01
927.627	0.01
927.999	0.01
928.37	0.01
928.741	0.01
929.113	0.01
929.484	0.01
929.855	0.01
930.226	0.01
930.597	0.01
930.968	0.01
931.339	0.01
931.709	0.01
932.08	0.01
932.451	0.01
932.821	0.01
933.192	0.01
933.562	0.01
933.933	0.01
934.303	0.01
934.673	0.01
935.044	0.01
935.414	0.01
935.784	0.01
936.154	0.01
936.524	0.01
936.894	0.01
937.264	0.01
937.634	0.01
938.004	0.01
938.373	0.01
938.743	0.01
939.113	0.01
939.482	0.01
939.852	0.01
940.221	0.01
940.59	0.01
940.96	0.01
941.329	0.01
941.698	0.01
942.067	0.01
942.436	0.01
942.805	0.01
943.174	0.01
943.543	0.01
943.912	0.01
944.28	0.01
944.649	0.01
945.018	0.01
945.386	0.01
945.755	0.01
946.123	0.01
946.492	0.01
946.86	0.01
947.228	0.01
947.596	0.01
947.965	0.01
948.333	0.01
948.701	0.01
949.069	0.01
949.437	0.01
949.804	0.01
950.172	0.01
950.54	0.01
950.908	0.01
951.275	0.01
951.643	0.01
952.01	0.01
952.378	0.01
952.745	0.01
953.112	0.01
953.479	0.01
953.847	0.01
954.214	0.01
954.581	0.01
954.948	0.01
955.315	0.01
955.682	0.01
956.048	0.01
956.415	0.01
956.782	0.01
957.148	0.01
957.515	0.01
957.881	0.01
958.248	0.01
958.614	0.01
958.981	0.01
959.347	0.01
959.713	0.01
960.079	0.01
960.445	0.01
960.811	0.01
961.177	0.01
961.543	0.01
961.909	0.01
962.275	0.01
962.641	0.01
963.006	0.01
963.372	0.01
963.737	0.01
964.103	0.01
964.468	0.01
964.834	0.01
965.199	0.01
965.564	0.01
965.929	0.01
966.294	0.01
966.659	0.01
967.024	0.01
967.389	0.01
967.754	0.01
968.119	0.01
968.484	0.01
968.848	0.01
969.213	0.01
969.578	0.01
969.942	0.01
970.307	0.01
970.671	0.01
971.035	0.01
971.399	0.01
971.764	0.01
972.128	0.01
972.492	0.01
972.856	0.01
973.22	0.01
973.584	0.01
973.948	0.01
974.311	0.01
974.675	0.01
975.039	0.01
975.402	0.01
975.766	0.01
976.129	0.01
976.493	0.01
976.856	0.02
977.219	0.01
977.582	0.01
977.946	0.01
978.309	0.01
978.672	0.01
979.035	0.01
979.398	0.01
979.761	0.01
980.123	0.01
980.486	0.01
980.849	0.01
981.211	0.01
981.574	0.01
981.936	0.01
982.299	0.01
982.661	0.01
983.023	0.01
983.386	0.01
983.748	0.01
984.11	0.01
984.472	0.01
984.834	0.01
985.196	0.01
985.558	0.01
985.92	0.01
986.281	0.01
986.643	0.01
987.005	0.01
987.366	0.01
987.728	0.01
988.089	0.01
988.451	0.01
988.812	0.01
989.173	0.01
989.534	0.01
989.895	0.01
990.257	0.01
990.618	0.01
990.979	0.01
991.339	0.01
991.7	0.01
992.061	0.01
992.422	0.01
992.782	0.01
993.143	0.01
993.503	0.01
993.864	0.01
994.224	0.01
994.585	0.01
994.945	0.01
995.305	0.01
995.665	0.01
996.025	0.02
996.385	0.01
996.745	0.01
997.105	0.01
997.465	0.01
997.825	0.02
998.185	0.01
998.544	0.01
998.904	0.01
999.263	0.01
999.623	0.01
999.982	0.01
1000.342	0.01
1000.701	0.01
1001.06	0.01
1001.419	0.01
1001.778	0.01
1002.138	0.01
1002.497	0.01
1002.855	0.01
1003.214	0.01
1003.573	0.01
1003.932	0.01
1004.29	0.01
1004.649	0.01
1005.008	0.01
1005.366	0.01
1005.725	0.02
1006.083	0.01
1006.441	0.01
1006.799	0.01
1007.158	0.01
1007.516	0.01
1007.874	0.01
1008.232	0.01
1008.59	0.01
1008.948	0.02
1009.305	0.01
1009.663	0.01
1010.021	0.02
1010.379	0.01
1010.736	0.02
1011.094	0.01
1011.451	0.02
1011.808	0.02
1012.166	0.01
1012.523	0.01
1012.88	0.01
1013.237	0.02
1013.594	0.01
1013.951	0.01
1014.308	0.02
1014.665	0.01
1015.022	0.02
1015.379	0.01
1015.735	0.01
1016.092	0.02
1016.449	0.02
1016.805	0.01
1017.162	0.01
1017.518	0.01
1017.874	0.01
1018.231	0.01
1018.587	0.01
1018.943	0.01
1019.299	0.01
1019.655	0.01
1020.011	0.01
1020.367	0.01
1020.723	0.02
1021.078	0.01
1021.434	0.02
1021.79	0.01
1022.145	0.01
1022.501	0.01
1022.856	0.02
1023.212	0.02
1023.567	0.02
1023.922	0.02
1024.278	0.02
1024.633	0.01
1024.988	0.01
1025.343	0.01
1025.698	0.01
1026.053	0.01
1026.408	0.01
1026.762	0.02
1027.117	0.02
1027.472	0.01
1027.826	0.02
1028.181	0.02
1028.535	0.02
1028.89	0.02
1029.244	0.01
1029.598	0.01
1029.952	0.01
1030.307	0.01
1030.661	0.02
1031.015	0.02
1031.369	0.02
1031.723	0.01
1032.076	0.02
