Data from Rubpy_EV_600_EDTA_Absorbance_12-06-38-498.txt Node
Date: Mon Jun 29 12:06:38 BST 2026
User: fpm-admin
Spectrometer: OFX00224
Trigger mode: 0
Integration Time (sec): 7.000000E-2
Scans to average: 3
Nonlinearity correction enabled: false
Boxcar width: 0
Storing dark spectrum: false
XAxis mode: Wavelengths
Number of Pixels in Spectrum: 2136
>>>>>Begin Spectral Data<<<<<
154.91	0.09
155.289	-0.17
155.669	0.85
156.048	0.06
156.428	0.39
156.807	0.12
157.186	-0
157.566	-0.02
157.945	-0
158.325	0.05
158.704	-0
159.083	-0
159.462	-0
159.842	-0
160.221	-0
160.6	-0.29
160.979	-0
161.359	0.24
161.738	-0
162.117	-0.08
162.496	-0
162.875	-0
163.254	-0.62
163.633	0.3
164.012	-0.83
164.391	0.92
164.77	1.53
165.149	-0
165.528	-0.93
165.907	-0
166.286	-1.11
166.665	-0
167.044	-0
167.423	0.41
167.802	-0.2
168.181	-0
168.559	-0.46
168.938	-0.48
169.317	-0
169.696	-0
170.074	-0.22
170.453	0.73
170.832	-0
171.21	-0.28
171.589	-0
171.968	-0
172.346	-0
172.725	-0
173.103	0.09
173.482	-0.36
173.861	-0.13
174.239	-0.18
174.617	-0
174.996	-0
175.374	-0
175.753	-0
176.131	-0.31
176.51	-0.26
176.888	-0
177.266	-0.14
177.645	-0.01
178.023	0.36
178.401	0.09
178.779	0.07
179.158	-0
179.536	-0.5
179.914	-0.27
180.292	-1.32
180.67	-0
181.048	-0
181.427	-0
181.805	-0.29
182.183	-0
182.561	0.64
182.939	-0.7
183.317	-0.24
183.695	-0.06
184.073	-0
184.451	0.07
184.829	-1.01
185.206	-0.8
185.584	-0.22
185.962	-0
186.34	-0
186.718	-0
187.096	-0.42
187.473	0.11
187.851	0.19
188.229	0.2
188.607	0.04
188.984	-0.07
189.362	0.04
189.74	0.04
190.117	0.02
190.495	0.07
190.872	-0.07
191.25	0.02
191.627	0.18
192.005	0.08
192.382	0.06
192.76	0.12
193.137	-0.07
193.515	0.02
193.892	0.06
194.269	-0
194.647	-0.11
195.024	-0.03
195.401	-0.02
195.779	0.03
196.156	-0
196.533	0.06
196.91	0.05
197.288	0.09
197.665	0.11
198.042	0.02
198.419	0.01
198.796	0.11
199.173	0.07
199.55	0.04
199.927	0.06
200.304	0.12
200.681	0.13
201.058	0.14
201.435	0.09
201.812	0.1
202.189	0.03
202.566	0.02
202.943	0.06
203.32	0.07
203.697	0.06
204.073	0.02
204.45	-0.04
204.827	0
205.204	-0.06
205.58	0
205.957	0.04
206.334	-0.02
206.71	0.11
207.087	0.09
207.464	-0.02
207.84	0.05
208.217	0.03
208.593	0.11
208.97	0.12
209.346	0.01
209.723	0.01
210.099	-0.02
210.476	0.05
210.852	0.11
211.228	0.03
211.605	0.06
211.981	0.08
212.357	0.04
212.733	0.04
213.11	0.09
213.486	0.21
213.862	0.14
214.238	0.03
214.614	0.02
214.991	0.11
215.367	0.01
215.743	-0.07
216.119	0.07
216.495	0.15
216.871	-0.03
217.247	0.08
217.623	0.1
217.999	-0
218.375	0.01
218.751	-0.08
219.127	0.07
219.502	0.14
219.878	0.09
220.254	0.05
220.63	0.06
221.006	0.06
221.381	0.01
221.757	0.05
222.133	-0.01
222.508	0.09
222.884	0.17
223.26	0.03
223.635	0.01
224.011	-0
224.386	0
224.762	0.06
225.137	0.03
225.513	-0
225.888	0.1
226.264	0.11
226.639	0.14
227.014	0.1
227.39	0.09
227.765	0.05
228.14	-0
228.516	0.05
228.891	0.06
229.266	0.07
229.641	-0.13
230.017	0.12
230.392	0.03
230.767	0.02
231.142	-0.01
231.517	0.06
231.892	0.08
232.267	-0
232.642	-0.04
233.017	0.07
233.392	0.04
233.767	0.13
234.142	0.09
234.517	0.05
234.892	0.06
235.267	-0.08
235.641	0.02
236.016	0.09
236.391	0.17
236.766	0.09
237.14	0.16
237.515	0.15
237.89	0.07
238.264	0.07
238.639	-0.04
239.014	0.11
239.388	0.04
239.763	-0.01
240.137	-0.03
240.512	0.02
240.886	-0.03
241.261	0.01
241.635	0.08
242.009	0.03
242.384	0.08
242.758	0.01
243.132	-0.08
243.507	0.01
243.881	0.14
244.255	0.1
244.629	0.01
245.004	0.09
245.378	0.12
245.752	0.02
246.126	0.11
246.5	0.1
246.874	0.11
247.248	0.04
247.622	0.07
247.996	0.12
248.37	0.11
248.744	0.03
249.118	-0.03
249.492	-0.04
249.866	0.03
250.24	-0.02
250.613	0.03
250.987	0.03
251.361	0.05
251.735	0.05
252.108	0.09
252.482	0.09
252.856	0.07
253.229	0.06
253.603	0.11
253.977	0.11
254.35	0.08
254.724	0.06
255.097	0.04
255.471	0.09
255.844	0.08
256.218	0.07
256.591	0.04
256.964	0.13
257.338	0.01
257.711	0.06
258.084	0.05
258.458	0.03
258.831	0.11
259.204	0.01
259.577	0.1
259.95	0
260.323	-0.01
260.697	0.03
261.07	0.12
261.443	0.04
261.816	0
262.189	0.08
262.562	0.03
262.935	-0.01
263.308	0.04
263.68	0.05
264.053	0
264.426	0.01
264.799	0.06
265.172	0.11
265.545	0.12
265.917	0.09
266.29	0.07
266.663	0.06
267.035	0.06
267.408	0
267.781	0.01
268.153	0.03
268.526	0.02
268.898	0.04
269.271	0.1
269.643	0.02
270.016	0.14
270.388	0.03
270.76	0.03
271.133	0.07
271.505	0.1
271.877	0.08
272.25	0.01
272.622	0.12
272.994	0.05
273.366	0.01
273.739	0.06
274.111	0.06
274.483	0.06
274.855	0.06
275.227	0.04
275.599	0.02
275.971	0.07
276.343	0.04
276.715	0.17
277.087	0.05
277.459	0.04
277.831	0.09
278.203	0.04
278.574	0.1
278.946	0.09
279.318	0.05
279.69	0.08
280.061	0.09
280.433	0.08
280.805	0.14
281.176	0.09
281.548	0.01
281.92	0.02
282.291	-0
282.663	0.01
283.034	0.06
283.406	0.05
283.777	0.02
284.148	0.03
284.52	0.05
284.891	0.07
285.262	0.07
285.634	0.09
286.005	0.11
286.376	0.04
286.747	0.07
287.119	0.02
287.49	0.1
287.861	0.1
288.232	0.04
288.603	0.08
288.974	0.01
289.345	0.06
289.716	0.04
290.087	0.04
290.458	0.04
290.829	0.05
291.2	0.05
291.571	0.01
291.941	0.04
292.312	0.04
292.683	0.01
293.054	0.1
293.424	-0.03
293.795	0.01
294.166	0.1
294.536	0.03
294.907	0.05
295.277	0.05
295.648	0.08
296.018	0.06
296.389	0.04
296.759	0.01
297.13	0.05
297.5	0.02
297.871	0.11
298.241	0.05
298.611	0.06
298.981	0.03
299.352	0.04
299.722	0.01
300.092	0.08
300.462	0.07
300.832	0.05
301.202	0.04
301.573	0.01
301.943	0.04
302.313	0.01
302.683	0.02
303.053	0.04
303.422	0.03
303.792	0.04
304.162	0.04
304.532	0.04
304.902	0.05
305.272	0.04
305.641	0.04
306.011	0.04
306.381	0.04
306.75	0.04
307.12	0.04
307.49	0.05
307.859	0.05
308.229	0.04
308.598	0.05
308.968	0.05
309.337	0.04
309.707	0.05
310.076	0.05
310.445	0.05
310.815	0.05
311.184	0.05
311.553	0.05
311.923	0.05
312.292	0.05
312.661	0.05
313.03	0.05
313.399	0.05
313.768	0.05
314.137	0.05
314.506	0.05
314.875	0.05
315.244	0.05
315.613	0.05
315.982	0.05
316.351	0.05
316.72	0.04
317.089	0.04
317.458	0.05
317.826	0.05
318.195	0.05
318.564	0.05
318.933	0.05
319.301	0.05
319.67	0.05
320.038	0.04
320.407	0.05
320.775	0.05
321.144	0.05
321.512	0.05
321.881	0.05
322.249	0.05
322.618	0.04
322.986	0.05
323.354	0.05
323.723	0.04
324.091	0.03
324.459	0.05
324.827	0.04
325.195	0.04
325.564	0.04
325.932	0.03
326.3	0.04
326.668	0.03
327.036	0.04
327.404	0.04
327.772	0.04
328.14	0.04
328.508	0.04
328.875	0.03
329.243	0.04
329.611	0.04
329.979	0.04
330.346	0.04
330.714	0.04
331.082	0.04
331.449	0.04
331.817	0.04
332.185	0.04
332.552	0.04
332.92	0.04
333.287	0.04
333.655	0.04
334.022	0.04
334.389	0.04
334.757	0.04
335.124	0.04
335.491	0.04
335.859	0.04
336.226	0.04
336.593	0.04
336.96	0.04
337.327	0.04
337.695	0.04
338.062	0.05
338.429	0.05
338.796	0.05
339.163	0.05
339.53	0.05
339.897	0.05
340.263	0.05
340.63	0.06
340.997	0.05
341.364	0.06
341.731	0.05
342.097	0.05
342.464	0.06
342.831	0.05
343.197	0.06
343.564	0.05
343.931	0.06
344.297	0.06
344.664	0.06
345.03	0.07
345.396	0.06
345.763	0.07
346.129	0.07
346.496	0.06
346.862	0.07
347.228	0.07
347.594	0.07
347.961	0.07
348.327	0.07
348.693	0.07
349.059	0.08
349.425	0.07
349.791	0.08
350.157	0.08
350.523	0.08
350.889	0.08
351.255	0.08
351.621	0.08
351.987	0.09
352.353	0.09
352.719	0.09
353.084	0.09
353.45	0.09
353.816	0.09
354.181	0.1
354.547	0.1
354.913	0.1
355.278	0.1
355.644	0.11
356.009	0.11
356.375	0.11
356.74	0.11
357.106	0.12
357.471	0.12
357.836	0.12
358.202	0.12
358.567	0.13
358.932	0.13
359.297	0.13
359.663	0.13
360.028	0.13
360.393	0.14
360.758	0.14
361.123	0.14
361.488	0.14
361.853	0.15
362.218	0.14
362.583	0.15
362.948	0.15
363.312	0.15
363.677	0.15
364.042	0.16
364.407	0.16
364.772	0.16
365.136	0.16
365.501	0.16
365.865	0.17
366.23	0.17
366.595	0.18
366.959	0.18
367.324	0.19
367.688	0.19
368.052	0.2
368.417	0.2
368.781	0.2
369.145	0.21
369.51	0.21
369.874	0.21
370.238	0.21
370.602	0.2
370.967	0.21
371.331	0.2
371.695	0.2
372.059	0.21
372.423	0.21
372.787	0.2
373.151	0.2
373.515	0.21
373.878	0.2
374.242	0.2
374.606	0.2
374.97	0.21
375.334	0.2
375.697	0.21
376.061	0.21
376.425	0.21
376.788	0.21
377.152	0.21
377.515	0.22
377.879	0.22
378.242	0.22
378.606	0.23
378.969	0.22
379.333	0.23
379.696	0.24
380.059	0.24
380.422	0.24
380.786	0.25
381.149	0.25
381.512	0.26
381.875	0.26
382.238	0.27
382.601	0.28
382.964	0.28
383.327	0.29
383.69	0.3
384.053	0.31
384.416	0.31
384.779	0.32
385.142	0.33
385.504	0.34
385.867	0.34
386.23	0.34
386.593	0.35
386.955	0.35
387.318	0.35
387.68	0.35
388.043	0.35
388.405	0.34
388.768	0.33
389.13	0.34
389.493	0.33
389.855	0.33
390.217	0.33
390.58	0.33
390.942	0.34
391.304	0.34
391.666	0.34
392.028	0.34
392.391	0.35
392.753	0.36
393.115	0.37
393.477	0.39
393.839	0.4
394.201	0.42
394.563	0.44
394.924	0.46
395.286	0.48
395.648	0.49
396.01	0.51
396.371	0.53
396.733	0.53
397.095	0.54
397.456	0.55
397.818	0.54
398.18	0.54
398.541	0.54
398.903	0.53
399.264	0.51
399.625	0.5
399.987	0.47
400.348	0.46
400.709	0.43
401.071	0.41
401.432	0.38
401.793	0.35
402.154	0.33
402.515	0.31
402.876	0.29
403.238	0.26
403.599	0.24
403.96	0.23
404.32	0.21
404.681	0.19
405.042	0.19
405.403	0.17
405.764	0.16
406.125	0.15
406.485	0.14
406.846	0.13
407.207	0.12
407.567	0.11
407.928	0.1
408.288	0.1
408.649	0.09
409.009	0.09
409.37	0.08
409.73	0.08
410.091	0.07
410.451	0.07
410.811	0.07
411.171	0.07
411.532	0.06
411.892	0.06
412.252	0.06
412.612	0.06
412.972	0.05
413.332	0.05
413.692	0.04
414.052	0.05
414.412	0.04
414.772	0.04
415.132	0.04
415.492	0.03
415.851	0.04
416.211	0.04
416.571	0.03
416.931	0.04
417.29	0.04
417.65	0.03
418.009	0.04
418.369	0.03
418.728	0.04
419.088	0.03
419.447	0.03
419.807	0.03
420.166	0.03
420.525	0.03
420.884	0.03
421.244	0.03
421.603	0.03
421.962	0.03
422.321	0.02
422.68	0.03
423.039	0.03
423.398	0.02
423.757	0.02
424.116	0.02
424.475	0.03
424.834	0.02
425.193	0.03
425.551	0.02
425.91	0.02
426.269	0.02
426.628	0.02
426.986	0.01
427.345	0.02
427.703	0.02
428.062	0.02
428.42	0.02
428.779	0.02
429.137	0.01
429.496	0.02
429.854	0.01
430.212	0.01
430.57	0.02
430.929	0.01
431.287	0.01
431.645	0
432.003	0.01
432.361	0.01
432.719	0.02
433.077	0.01
433.435	0.02
433.793	0.01
434.151	0.02
434.509	0.01
434.866	0.01
435.224	0.01
435.582	0.01
435.94	0.01
436.297	0.01
436.655	0.01
437.012	0.01
437.37	0.01
437.727	0.01
438.085	0.01
438.442	0.01
438.8	0.01
439.157	0.01
439.514	0.01
439.872	0
440.229	0
440.586	0.01
440.943	0.01
441.3	0.02
441.657	0.01
442.014	0.01
442.371	0.01
442.728	0.01
443.085	0
443.442	0
443.799	0
444.156	0
444.513	0.01
444.869	0.01
445.226	0
445.583	0
445.939	0
446.296	0
446.652	0.01
447.009	0
447.365	-0
447.722	-0
448.078	-0.01
448.434	0
448.791	-0
449.147	0
449.503	-0
449.859	-0
450.215	0
450.571	-0
450.928	-0.01
451.284	-0
451.64	-0
451.995	-0.01
452.351	-0.01
452.707	-0.01
453.063	-0.01
453.419	-0.01
453.775	-0.01
454.13	-0.01
454.486	-0.02
454.842	-0.01
455.197	-0.01
455.553	-0.02
455.908	-0.02
456.264	-0.02
456.619	-0.02
456.975	-0.02
457.33	-0.02
457.685	-0.02
458.04	-0.02
458.396	-0.03
458.751	-0.04
459.106	-0.04
459.461	-0.04
459.816	-0.04
460.171	-0.04
460.526	-0.04
460.881	-0.04
461.236	-0.05
461.591	-0.05
461.946	-0.04
462.301	-0.06
462.655	-0.05
463.01	-0.05
463.365	-0.05
463.719	-0.06
464.074	-0.06
464.428	-0.07
464.783	-0.07
465.137	-0.07
465.492	-0.07
465.846	-0.07
466.201	-0.07
466.555	-0.08
466.909	-0.07
467.263	-0.07
467.618	-0.07
467.972	-0.07
468.326	-0.07
468.68	-0.07
469.034	-0.07
469.388	-0.09
469.742	-0.08
470.096	-0.07
470.45	-0.07
470.804	-0.08
471.157	-0.07
471.511	-0.08
471.865	-0.07
472.218	-0.07
472.572	-0.07
472.926	-0.07
473.279	-0.07
473.633	-0.06
473.986	-0.07
474.34	-0.07
474.693	-0.06
475.046	-0.06
475.4	-0.05
475.753	-0.05
476.106	-0.05
476.459	-0.05
476.812	-0.04
477.165	-0.04
477.519	-0.04
477.872	-0.03
478.224	-0.03
478.577	-0.03
478.93	-0.03
479.283	-0.03
479.636	-0.03
479.989	-0.03
480.341	-0.02
480.694	-0.02
481.047	-0.02
481.399	-0.03
481.752	-0.02
482.104	-0.02
482.457	-0.02
482.809	-0.02
483.162	-0.02
483.514	-0.01
483.866	-0.01
484.219	-0.01
484.571	-0.01
484.923	-0.01
485.275	-0.01
485.627	-0.01
485.979	-0.01
486.331	-0.01
486.683	-0.01
487.035	-0.01
487.387	-0.01
487.739	-0
488.091	-0
488.443	0
488.794	-0
489.146	0
489.498	0
489.849	0
490.201	0
490.552	0.01
490.904	0
491.255	0
491.607	0
491.958	0
492.309	0
492.661	0
493.012	0.01
493.363	0.01
493.714	0.01
494.065	0.01
494.416	0.01
494.767	0.01
495.118	0.01
495.469	0.01
495.82	0.01
496.171	0.01
496.522	0.01
496.872	0.01
497.223	0.01
497.574	0.01
497.924	0.01
498.275	0.02
498.626	0.02
498.976	0.02
499.327	0.02
499.677	0.02
500.027	0.02
500.378	0.01
500.728	0.01
501.078	0.01
501.428	0.02
501.779	0.02
502.129	0.02
502.479	0.02
502.829	0.02
503.179	0.02
503.529	0.02
503.879	0.02
504.229	0.02
504.578	0.02
504.928	0.02
505.278	0.02
505.628	0.02
505.977	0.02
506.327	0.03
506.676	0.03
507.026	0.03
507.375	0.03
507.725	0.02
508.074	0.02
508.424	0.03
508.773	0.03
509.122	0.03
509.471	0.03
509.82	0.03
510.17	0.03
510.519	0.03
510.868	0.03
511.217	0.03
511.566	0.03
511.915	0.03
512.263	0.03
512.612	0.03
512.961	0.03
513.31	0.03
513.659	0.04
514.007	0.04
514.356	0.03
514.704	0.03
515.053	0.03
515.401	0.04
515.75	0.04
516.098	0.04
516.447	0.04
516.795	0.04
517.143	0.04
517.491	0.04
517.839	0.04
518.188	0.04
518.536	0.04
518.884	0.04
519.232	0.04
519.58	0.04
519.928	0.04
520.275	0.05
520.623	0.04
520.971	0.04
521.319	0.04
521.666	0.05
522.014	0.05
522.362	0.04
522.709	0.04
523.057	0.04
523.404	0.05
523.752	0.04
524.099	0.05
524.446	0.05
524.794	0.04
525.141	0.05
525.488	0.04
525.835	0.05
526.182	0.05
526.529	0.05
526.876	0.05
527.223	0.05
527.57	0.05
527.917	0.06
528.264	0.06
528.611	0.05
528.958	0.05
529.304	0.05
529.651	0.05
529.998	0.05
530.344	0.05
530.691	0.05
531.037	0.05
531.384	0.06
531.73	0.05
532.076	0.06
532.423	0.06
532.769	0.06
533.115	0.06
533.461	0.06
533.807	0.06
534.154	0.06
534.5	0.06
534.846	0.06
535.192	0.06
535.537	0.06
535.883	0.06
536.229	0.06
536.575	0.06
536.921	0.06
537.266	0.06
537.612	0.06
537.957	0.07
538.303	0.07
538.649	0.07
538.994	0.07
539.339	0.07
539.685	0.07
540.03	0.07
540.375	0.07
540.721	0.07
541.066	0.07
541.411	0.07
541.756	0.07
542.101	0.08
542.446	0.08
542.791	0.08
543.136	0.08
543.481	0.08
543.825	0.08
544.17	0.08
544.515	0.08
544.86	0.08
545.204	0.08
545.549	0.08
545.893	0.08
546.238	0.09
546.582	0.09
546.927	0.09
547.271	0.09
547.615	0.09
547.96	0.09
548.304	0.09
548.648	0.09
548.992	0.09
549.336	0.09
549.68	0.09
550.024	0.09
550.368	0.09
550.712	0.1
551.056	0.09
551.4	0.1
551.743	0.09
552.087	0.09
552.431	0.1
552.774	0.1
553.118	0.09
553.462	0.09
553.805	0.09
554.148	0.1
554.492	0.1
554.835	0.1
555.178	0.1
555.522	0.1
555.865	0.1
556.208	0.1
556.551	0.1
556.894	0.1
557.237	0.1
557.58	0.1
557.923	0.1
558.266	0.1
558.609	0.1
558.952	0.1
559.294	0.1
559.637	0.11
559.98	0.11
560.322	0.1
560.665	0.1
561.007	0.1
561.35	0.1
561.692	0.1
562.034	0.1
562.377	0.1
562.719	0.1
563.061	0.1
563.403	0.1
563.745	0.11
564.088	0.11
564.43	0.11
564.772	0.11
565.113	0.11
565.455	0.11
565.797	0.11
566.139	0.11
566.481	0.11
566.822	0.11
567.164	0.11
567.506	0.11
567.847	0.11
568.189	0.11
568.53	0.11
568.872	0.11
569.213	0.11
569.554	0.11
569.895	0.11
570.237	0.11
570.578	0.11
570.919	0.11
571.26	0.11
571.601	0.11
571.942	0.11
572.283	0.11
572.624	0.11
572.965	0.11
573.306	0.11
573.646	0.11
573.987	0.11
574.328	0.11
574.668	0.11
575.009	0.11
575.349	0.11
575.69	0.11
576.03	0.11
576.37	0.11
576.711	0.11
577.051	0.11
577.391	0.11
577.731	0.12
578.072	0.11
578.412	0.11
578.752	0.11
579.092	0.11
579.431	0.11
579.771	0.1
580.111	0.1
580.451	0.11
580.791	0.11
581.13	0.11
581.47	0.12
581.81	0.11
582.149	0.11
582.489	0.12
582.828	0.11
583.167	0.1
583.507	0.09
583.846	0.08
584.185	0.09
584.525	0.11
584.864	0.11
585.203	0.12
585.542	0.12
585.881	0.12
586.22	0.12
586.559	0.11
586.898	0.11
587.236	0.11
587.575	0.11
587.914	0.11
588.252	0.12
588.591	0.12
588.93	0.12
589.268	0.12
589.607	0.12
589.945	0.12
590.283	0.12
590.622	0.13
590.96	0.13
591.298	0.13
591.636	0.13
591.974	0.13
592.313	0.13
592.651	0.13
592.989	0.13
593.326	0.13
593.664	0.12
594.002	0.13
594.34	0.13
594.678	0.12
595.015	0.13
595.353	0.12
595.691	0.13
596.028	0.14
596.366	0.14
596.703	0.14
597.04	0.13
597.378	0.13
597.715	0.14
598.052	0.14
598.389	0.14
598.726	0.14
599.064	0.14
599.401	0.13
599.738	0.14
600.074	0.14
600.411	0.14
600.748	0.14
601.085	0.14
601.422	0.14
601.758	0.14
602.095	0.14
602.432	0.14
602.768	0.14
603.105	0.14
603.441	0.14
603.777	0.15
604.114	0.14
604.45	0.15
604.786	0.15
605.122	0.14
605.459	0.14
605.795	0.14
606.131	0.14
606.467	0.14
606.803	0.14
607.139	0.14
607.474	0.14
607.81	0.14
608.146	0.14
608.482	0.14
608.817	0.14
609.153	0.14
609.488	0.14
609.824	0.14
610.159	0.14
610.495	0.14
610.83	0.14
611.165	0.14
611.5	0.14
611.836	0.14
612.171	0.13
612.506	0.14
612.841	0.14
613.176	0.13
613.511	0.14
613.845	0.13
614.18	0.14
614.515	0.14
614.85	0.14
615.184	0.14
615.519	0.13
615.854	0.13
616.188	0.13
616.523	0.13
616.857	0.13
617.191	0.13
617.526	0.13
617.86	0.13
618.194	0.13
618.528	0.13
618.862	0.13
619.196	0.13
619.53	0.13
619.864	0.13
620.198	0.13
620.532	0.13
620.866	0.13
621.2	0.12
621.533	0.13
621.867	0.13
622.201	0.12
622.534	0.12
622.868	0.13
623.201	0.13
623.534	0.12
623.868	0.12
624.201	0.12
624.534	0.12
624.868	0.12
625.201	0.12
625.534	0.12
625.867	0.12
626.2	0.12
626.533	0.12
626.865	0.12
627.198	0.12
627.531	0.11
627.864	0.11
628.196	0.12
628.529	0.11
628.862	0.11
629.194	0.11
629.527	0.11
629.859	0.11
630.191	0.11
630.524	0.11
630.856	0.1
631.188	0.1
631.52	0.1
631.852	0.1
632.184	0.1
632.516	0.1
632.848	0.1
633.18	0.1
633.512	0.09
633.844	0.1
634.175	0.09
634.507	0.09
634.839	0.09
635.17	0.09
635.502	0.09
635.833	0.09
636.165	0.09
636.496	0.09
636.827	0.09
637.159	0.09
637.49	0.09
637.821	0.09
638.152	0.08
638.483	0.08
638.814	0.08
639.145	0.08
639.476	0.08
639.807	0.08
640.137	0.07
640.468	0.07
640.799	0.07
641.129	0.07
641.46	0.07
641.791	0.07
642.121	0.07
642.451	0.08
642.782	0.08
643.112	0.08
643.442	0.07
643.773	0.07
644.103	0.07
644.433	0.07
644.763	0.07
645.093	0.07
645.423	0.07
645.753	0.07
646.082	0.07
646.412	0.07
646.742	0.07
647.072	0.07
647.401	0.07
647.731	0.07
648.06	0.07
648.39	0.07
648.719	0.07
649.048	0.07
649.378	0.06
649.707	0.06
650.036	0.06
650.365	0.06
650.694	0.06
651.023	0.06
651.352	0.06
651.681	0.06
652.01	0.06
652.339	0.06
652.668	0.06
652.996	0.06
653.325	0.06
653.654	0.06
653.982	0.06
654.311	0.06
654.639	0.06
654.967	0.06
655.296	0.06
655.624	0.07
655.952	0.06
656.28	0.07
656.609	0.06
656.937	0.06
657.265	0.06
657.593	0.04
657.92	0
658.248	0
658.576	0
658.904	0
659.231	0.04
659.559	0.07
659.887	0.07
660.214	0.07
660.542	0.07
660.869	0.06
661.196	0.06
661.524	0.06
661.851	0.06
662.178	0.06
662.505	0.06
662.832	0.06
663.159	0.06
663.486	0.05
663.813	0.06
664.14	0.06
664.467	0.06
664.794	0.06
665.12	0.05
665.447	0.05
665.774	0.06
666.1	0.06
666.427	0.06
666.753	0.06
667.079	0.06
667.406	0.05
667.732	0.05
668.058	0.06
668.384	0.05
668.71	0.05
669.036	0.05
669.362	0.05
669.688	0.05
670.014	0.05
670.34	0.05
670.666	0.05
670.991	0.05
671.317	0.05
671.643	0.05
671.968	0.05
672.294	0.04
672.619	0.05
672.945	0.04
673.27	0.05
673.595	0.05
673.92	0.05
674.246	0.05
674.571	0.05
674.896	0.05
675.221	0.05
675.546	0.05
675.87	0.05
676.195	0.05
676.52	0.05
676.845	0.05
677.169	0.04
677.494	0.04
677.819	0.05
678.143	0.04
678.468	0.04
678.792	0.04
679.116	0.04
679.44	0.04
679.765	0.04
680.089	0.04
680.413	0.04
680.737	0.04
681.061	0.03
681.385	0.04
681.709	0.03
682.033	0.03
682.356	0.03
682.68	0.03
683.004	0.03
683.327	0.03
683.651	0.03
683.974	0.03
684.298	0.03
684.621	0.03
684.944	0.02
685.268	0.03
685.591	0.03
685.914	0.02
686.237	0.02
686.56	0.02
686.883	0.02
687.206	0.03
687.529	0.02
687.852	0.03
688.175	0.03
688.497	0.03
688.82	0.03
689.142	0.02
689.465	0.02
689.787	0.02
690.11	0.02
690.432	0.02
690.755	0.02
691.077	0.02
691.399	0.02
691.721	0.01
692.043	0.02
692.365	0.01
692.687	0.02
693.009	0.01
693.331	0.01
693.653	0.02
693.974	0.02
694.296	0.01
694.618	0.01
694.939	0.01
695.261	0.01
695.582	0.01
695.904	0.01
696.225	0.01
696.546	0.01
696.868	0.01
697.189	0.01
697.51	0.01
697.831	0.01
698.152	0.01
698.473	0
698.794	0
699.114	0.01
699.435	0.01
699.756	0.01
700.077	0.01
700.397	0.01
700.718	0.01
701.038	0
701.359	0
701.679	0
701.999	0
702.32	-0
702.64	-0
702.96	-0
703.28	0
703.6	-0
703.92	0
704.24	-0
704.56	-0
704.879	-0
705.199	-0
705.519	-0
705.838	-0.01
706.158	-0
706.478	-0
706.797	-0
707.116	-0
707.436	-0
707.755	-0
708.074	-0
708.393	-0
708.712	-0
709.031	-0
709.35	-0
709.669	-0
709.988	0
710.307	-0
710.626	-0
710.944	0
711.263	0
711.582	-0
711.9	-0
712.219	-0
712.537	-0
712.855	-0
713.174	-0
713.492	-0
713.81	-0
714.128	0
714.446	0
714.764	0
715.082	0
715.4	-0
715.718	0
716.035	0
716.353	0
716.671	0
716.988	-0
717.306	0
717.623	0
717.941	0
718.258	0
718.575	0
718.893	0
719.21	0.01
719.527	0.01
719.844	0.01
720.161	0.01
720.478	0.01
720.795	0.01
721.112	0
721.428	0.01
721.745	0
722.062	0
722.378	0
722.695	0
723.011	0
723.328	0
723.644	0
723.96	-0
724.276	-0.01
724.593	-0
724.909	-0
725.225	-0
725.541	-0
725.857	-0
726.173	-0
726.488	-0
726.804	0
727.12	0
727.435	0
727.751	0
728.067	0
728.382	0
728.697	0
729.013	0
729.328	0.01
729.643	0
729.958	0
730.273	0
730.588	0
730.903	0
731.218	0
731.533	0
731.848	0
732.163	-0
732.477	-0
732.792	0
733.107	0
733.421	0.01
733.736	0
734.05	0
734.364	0
734.678	0
734.993	0
735.307	-0
735.621	0
735.935	-0
736.249	-0
736.563	-0
736.877	0
737.19	-0
737.504	0
737.818	0
738.131	0
738.445	0
738.758	0.01
739.072	0
739.385	0
739.698	0
740.012	-0
740.325	-0
740.638	-0.01
740.951	-0
741.264	-0
741.577	0
741.89	-0
742.203	-0
742.515	-0
742.828	-0
743.141	-0
743.453	-0
743.766	-0.01
744.078	-0
744.391	-0
744.703	-0.01
745.015	-0.01
745.327	-0
745.639	-0.01
745.952	-0.01
746.264	-0
746.575	-0
746.887	-0.01
747.199	-0.01
747.511	-0.01
747.823	-0.01
748.134	-0.01
748.446	-0.01
748.757	-0
749.069	-0.01
749.38	-0.01
749.692	-0
750.003	-0
750.314	-0
750.625	-0
750.936	-0
751.248	-0.01
751.559	-0.01
751.869	-0.01
752.18	-0.01
752.491	-0.01
752.802	-0.01
753.112	-0.01
753.423	-0.02
753.734	-0.02
754.044	-0.02
754.355	-0.02
754.665	-0.02
754.975	-0.02
755.285	-0.01
755.596	-0.01
755.906	-0.01
756.216	-0.01
756.526	-0.01
756.836	-0.01
757.146	-0.01
757.455	-0.01
757.765	-0.01
758.075	-0.01
758.385	-0.02
758.694	-0.02
759.004	-0.02
759.313	-0.02
759.622	-0.02
759.932	-0.02
760.241	-0.02
760.55	-0.02
760.859	-0.02
761.168	-0.02
761.477	-0.02
761.786	-0.02
762.095	-0.02
762.404	-0.02
762.713	-0.02
763.021	-0.02
763.33	-0.02
763.639	-0.02
763.947	-0.02
764.256	-0.02
764.564	-0.02
764.872	-0.02
765.181	-0.02
765.489	-0.02
765.797	-0.02
766.105	-0.03
766.413	-0.03
766.721	-0.03
767.029	-0.03
767.337	-0.03
767.644	-0.03
767.952	-0.03
768.26	-0.03
768.567	-0.03
768.875	-0.03
769.182	-0.03
769.49	-0.03
769.797	-0.03
770.104	-0.03
770.411	-0.03
770.718	-0.03
771.026	-0.03
771.333	-0.03
771.639	-0.03
771.946	-0.03
772.253	-0.03
772.56	-0.03
772.867	-0.03
773.173	-0.03
773.48	-0.03
773.786	-0.03
774.093	-0.02
774.399	-0.02
774.705	-0.02
775.012	-0.02
775.318	-0.02
775.624	-0.02
775.93	-0.02
776.236	-0.02
776.542	-0.02
776.848	-0.03
777.154	-0.03
777.459	-0.03
777.765	-0.03
778.071	-0.03
778.376	-0.03
778.682	-0.03
778.987	-0.03
779.292	-0.03
779.598	-0.03
779.903	-0.03
780.208	-0.03
780.513	-0.03
780.818	-0.03
781.123	-0.03
781.428	-0.03
781.733	-0.03
782.038	-0.03
782.343	-0.03
782.647	-0.03
782.952	-0.02
783.256	-0.02
783.561	-0.03
783.865	-0.02
784.17	-0.02
784.474	-0.02
784.778	-0.02
785.082	-0.02
785.386	-0.02
785.69	-0.02
785.994	-0.02
786.298	-0.03
786.602	-0.03
786.906	-0.03
787.209	-0.03
787.513	-0.03
787.817	-0.03
788.12	-0.03
788.424	-0.03
788.727	-0.03
789.03	-0.03
789.333	-0.03
789.637	-0.03
789.94	-0.03
790.243	-0.03
790.546	-0.03
790.849	-0.03
791.152	-0.03
791.454	-0.03
791.757	-0.03
792.06	-0.03
792.362	-0.03
792.665	-0.03
792.967	-0.03
793.27	-0.03
793.572	-0.03
793.874	-0.03
794.177	-0.03
794.479	-0.03
794.781	-0.03
795.083	-0.03
795.385	-0.03
795.687	-0.02
795.989	-0.02
796.29	-0.02
796.592	-0.01
796.894	-0.01
797.195	-0.01
797.497	-0.02
797.798	-0.02
798.1	-0.02
798.401	-0.03
798.702	-0.03
799.003	-0.03
799.304	-0.03
799.605	-0.03
799.906	-0.03
800.207	-0.03
800.508	-0.03
800.809	-0.03
801.11	-0.03
801.41	-0.03
801.711	-0.03
802.011	-0.03
802.312	-0.03
802.612	-0.02
802.913	-0.03
803.213	-0.03
803.513	-0.03
803.813	-0.03
804.113	-0.03
804.413	-0.03
804.713	-0.03
805.013	-0.04
805.313	-0.03
805.613	-0.03
805.912	-0.03
806.212	-0.03
806.511	-0.03
806.811	-0.03
807.11	-0.03
807.41	-0.03
807.709	-0.03
808.008	-0.03
808.307	-0.03
808.606	-0.03
808.905	-0.02
809.204	-0.02
809.503	-0.02
809.802	-0.02
810.101	-0.02
810.399	-0.02
810.698	-0.02
810.997	-0.02
811.295	-0.02
811.593	-0.02
811.892	-0.02
812.19	-0.02
812.488	-0.02
812.786	-0.02
813.084	-0.02
813.383	-0.02
813.68	-0.02
813.978	-0.02
814.276	-0.02
814.574	-0.02
814.872	-0.02
815.169	-0.01
815.467	-0.01
815.764	-0.01
816.062	-0.02
816.359	-0.02
816.656	-0.01
816.954	-0.02
817.251	-0.02
817.548	-0.02
817.845	-0.03
818.142	-0.02
818.439	-0.02
818.735	-0.02
819.032	-0.02
819.329	-0.02
819.626	-0.02
819.922	-0.02
820.219	-0.02
820.515	-0.02
820.811	-0.02
821.108	-0.02
821.404	-0.03
821.7	-0.02
821.996	-0.02
822.292	-0.02
822.588	-0.02
822.884	-0.02
823.18	-0.02
823.475	-0.02
823.771	-0.02
824.067	-0.02
824.362	-0.02
824.658	-0.02
824.953	-0.03
825.249	-0.02
825.544	-0.02
825.839	-0.03
826.134	-0.03
826.429	-0.02
826.724	-0.02
827.019	-0.02
827.314	-0.02
827.609	-0.02
827.904	-0.02
828.198	-0.01
828.493	-0.01
828.787	-0
829.082	-0.01
829.376	-0.01
829.671	-0.01
829.965	-0.01
830.259	-0.02
830.553	-0.02
830.847	-0.02
831.141	-0.02
831.435	-0.02
831.729	-0.02
832.023	-0.02
832.317	-0.02
832.61	-0.02
832.904	-0.02
833.197	-0.02
833.491	-0.02
833.784	-0.03
834.077	-0.02
834.371	-0.01
834.664	-0.02
834.957	-0.01
835.25	-0.01
835.543	-0.02
835.836	-0.02
836.129	-0.02
836.421	-0.02
836.714	-0.02
837.007	-0.02
837.299	-0.01
837.592	-0.02
837.884	-0.01
838.177	-0.01
838.469	-0.01
838.761	-0.02
839.053	-0.02
839.345	-0.02
839.637	-0.02
839.929	-0.03
840.221	-0.02
840.513	-0.02
840.805	-0.02
841.096	-0.02
841.388	-0
841.68	-0.02
841.971	-0.01
842.262	-0.02
842.554	-0.01
842.845	-0.01
843.136	-0.02
843.427	-0.01
843.718	-0.01
844.009	-0.01
844.3	-0.01
844.591	-0.01
844.882	0
845.173	-0
845.463	-0.01
845.754	-0.01
846.044	-0.02
846.335	-0.01
846.625	-0.01
846.915	-0.02
847.206	-0.01
847.496	-0.01
847.786	-0.01
848.076	-0.01
848.366	0
848.656	0
848.945	-0.02
849.235	-0
849.525	-0.01
849.814	-0.01
850.104	-0
850.393	0.01
850.683	-0
850.972	0.01
851.261	0
851.551	0.01
851.84	0.01
852.129	0
852.418	-0
852.707	-0
852.995	0.01
853.284	0.01
853.573	0
853.862	0.01
854.15	0
854.439	0
854.727	-0.01
855.015	-0.01
855.304	0.01
855.592	-0
855.88	0.01
856.168	-0
856.456	-0.01
856.744	-0
857.032	0.01
857.32	-0.01
857.607	-0.01
857.895	0.01
858.183	0
858.47	-0
858.757	-0.02
859.045	-0
859.332	-0.01
859.619	0.01
859.907	-0.01
860.194	-0.02
860.481	0.01
860.768	0.01
861.054	0.02
861.341	0.01
861.628	0.01
861.915	-0.01
862.201	-0
862.488	-0
862.774	-0.01
863.061	0
863.347	-0
863.633	0.02
863.919	-0
864.205	-0.01
864.491	0
864.777	-0.01
865.063	0.02
865.349	0.02
865.635	0.01
865.92	0
866.206	0.02
866.492	0.03
866.777	0
867.062	0.03
867.348	0.01
867.633	-0
867.918	0.01
868.203	0
868.488	-0
868.773	0.02
869.058	0
869.343	-0.01
869.628	0.03
869.912	0.03
870.197	0.01
870.482	0
870.766	-0.01
871.05	0.02
871.335	0.02
871.619	-0
871.903	-0.02
872.187	0.03
872.471	0.06
872.755	0.09
873.039	-0.01
873.323	0.05
873.607	-0
873.89	0.01
874.174	0.03
874.458	0.03
874.741	0.03
875.024	-0.01
875.308	-0.04
875.591	0.08
875.874	0.05
876.157	0.03
876.44	-0.03
876.723	-0.05
877.006	-0.01
877.289	-0
877.572	0.07
877.854	0.04
878.137	0.03
878.42	0.04
878.702	-0.05
878.984	-0
879.267	0.02
879.549	0.03
879.831	-0.03
880.113	0.03
880.395	-0.08
880.677	0.08
880.959	0.16
