Data from Fluorescein_BV_EDTA_Batch_2_Absorbance__716__13-33-36-210.txt Node

Date: Wed Jul 29 13:33:36 BST 2026
User: fpm-admin
Spectrometer: SR600986
Trigger mode: 0
Integration Time (sec): 5.000000E-2
Scans to average: 3
Nonlinearity correction enabled: true
Boxcar width: 0
Storing dark spectrum: false
XAxis mode: Wavelengths
Number of Pixels in Spectrum: 2048
>>>>>Begin Spectral Data<<<<<
188.613	-0
189.078	-0.02
189.542	0.02
190.007	-0.03
190.472	0
190.936	-0.02
191.401	0.01
191.865	-0.03
192.33	-0.03
192.794	-0.02
193.258	-0.01
193.723	-0
194.187	-0.03
194.651	0.01
195.115	-0.02
195.579	-0.01
196.043	-0
196.507	-0.02
196.971	0
197.435	0
197.899	-0
198.363	-0.03
198.827	-0.02
199.29	0.01
199.754	-0.04
200.218	0.01
200.681	0.02
201.145	-0.02
201.608	-0.01
202.072	-0
202.535	-0.01
202.998	-0.01
203.462	-0.04
203.925	0
204.388	-0.02
204.851	0
205.314	0.02
205.777	-0.01
206.24	-0.01
206.703	-0.02
207.166	0
207.629	-0
208.092	-0.02
208.555	0.01
209.018	-0.02
209.48	-0.03
209.943	-0
210.406	-0.03
210.868	-0.03
211.331	0.02
211.793	-0.02
212.256	0
212.718	-0.01
213.18	-0.02
213.643	-0.05
214.105	-0.02
214.567	-0.01
215.029	-0.01
215.491	0.01
215.953	-0.01
216.415	0.01
216.877	-0
217.339	-0
217.801	0.02
218.263	-0.03
218.725	-0.01
219.186	-0.02
219.648	-0
220.11	0.01
220.571	-0.03
221.033	0.01
221.494	-0.02
221.956	0.01
222.417	-0.03
222.878	-0.01
223.34	-0.03
223.801	-0.01
224.262	-0.04
224.723	-0.03
225.185	-0.03
225.646	0.02
226.107	-0
226.568	-0.02
227.029	-0.03
227.489	0.01
227.95	-0.02
228.411	-0.04
228.872	-0.02
229.332	0.02
229.793	-0.02
230.254	0.01
230.714	0.01
231.175	-0.01
231.635	0.01
232.096	-0.01
232.556	-0.01
233.016	0
233.477	-0.02
233.937	0.02
234.397	-0.03
234.857	-0.02
235.317	-0
235.777	-0.03
236.237	-0.01
236.697	-0.01
237.157	0.03
237.617	-0.03
238.077	0.02
238.537	-0.01
238.996	-0.03
239.456	-0.01
239.916	-0.03
240.375	-0
240.835	-0
241.294	0.01
241.754	0.02
242.213	-0.02
242.672	-0.03
243.132	0.02
243.591	-0.03
244.05	-0.01
244.509	-0.02
244.968	-0.02
245.427	-0
245.886	0.03
246.345	-0
246.804	0.01
247.263	-0.03
247.722	0.01
248.181	-0.02
248.639	0.01
249.098	-0.01
249.557	-0.01
250.015	-0
250.474	-0.04
250.932	0.01
251.391	0.01
251.849	0
252.308	-0.01
252.766	0.02
253.224	-0.02
253.682	-0
254.14	-0.01
254.599	0.04
255.057	-0
255.515	0
255.973	0.02
256.431	-0.05
256.888	-0.01
257.346	-0.01
257.804	-0.02
258.262	0
258.719	0.01
259.177	0.01
259.635	-0.02
260.092	-0.02
260.55	-0.02
261.007	-0.02
261.465	-0.03
261.922	0.01
262.379	-0.02
262.836	-0.03
263.294	0.01
263.751	-0.03
264.208	-0
264.665	-0.03
265.122	0.01
265.579	0.01
266.036	0.03
266.493	-0
266.95	-0.02
267.406	-0.01
267.863	-0
268.32	0
268.777	-0.01
269.233	-0.01
269.69	0.02
270.146	0.01
270.603	-0
271.059	0
271.515	-0.01
271.972	0.02
272.428	-0.01
272.884	-0
273.34	-0.02
273.796	0.02
274.253	-0.01
274.709	-0.02
275.165	-0.05
275.62	0.03
276.076	-0.01
276.532	-0.01
276.988	-0.02
277.444	0
277.899	-0
278.355	0.01
278.811	-0.04
279.266	-0.01
279.722	-0
280.177	0
280.633	0
281.088	-0.04
281.543	-0
281.998	-0.02
282.454	-0.02
282.909	0.01
283.364	0
283.819	-0.03
284.274	-0.02
284.729	0.01
285.184	0
285.639	0.01
286.094	-0.04
286.548	-0.02
287.003	0.01
287.458	0.01
287.913	-0
288.367	-0.02
288.822	-0.01
289.276	-0.02
289.731	-0.01
290.185	0.01
290.639	-0.04
291.094	-0.02
291.548	-0.01
292.002	0.01
292.456	0
292.91	-0.01
293.365	-0.04
293.819	0.02
294.273	0.02
294.726	0.01
295.18	-0.01
295.634	0.03
296.088	0.02
296.542	-0
296.995	-0.02
297.449	-0
297.903	-0.02
298.356	-0.01
298.81	0.02
299.263	0
299.716	0.01
300.17	-0.02
300.623	-0.02
301.076	-0.01
301.53	0.01
301.983	-0.01
302.436	-0
302.889	0
303.342	0
303.795	-0.01
304.248	0.02
304.701	-0.01
305.153	-0
305.606	0.01
306.059	-0
306.512	-0.01
306.964	-0.01
307.417	0.02
307.869	0.01
308.322	0.02
308.774	0.01
309.227	-0.01
309.679	-0.01
310.131	-0
310.584	-0.01
311.036	0
311.488	-0
311.94	0
312.392	0.01
312.844	0.01
313.296	0.03
313.748	0.01
314.2	-0.01
314.652	0.01
315.103	0.01
315.555	-0
316.007	0
316.458	0
316.91	0.01
317.361	0.01
317.813	0.01
318.264	0
318.716	-0
319.167	0
319.618	0.01
320.07	0.01
320.521	0.01
320.972	0
321.423	0.01
321.874	0.01
322.325	0.01
322.776	0.01
323.227	0.01
323.678	0
324.128	0.01
324.579	0.01
325.03	0.01
325.48	0.01
325.931	0.01
326.382	0.01
326.832	0.01
327.283	0.01
327.733	0.01
328.183	0.01
328.634	0.01
329.084	0.01
329.534	0.01
329.984	0.01
330.434	0.01
330.884	0.01
331.334	0.01
331.784	0.01
332.234	0.01
332.684	0.01
333.134	0.01
333.584	0.01
334.034	0.01
334.483	0.01
334.933	0.01
335.382	0.01
335.832	0.01
336.281	0.01
336.731	0.01
337.18	0.01
337.63	0.01
338.079	0.01
338.528	0.01
338.977	0.01
339.426	0.01
339.876	0.01
340.325	0.01
340.774	0.02
341.223	0.02
341.671	0.01
342.12	0.01
342.569	0.02
343.018	0.02
343.467	0.02
343.915	0.02
344.364	0.02
344.812	0.02
345.261	0.02
345.709	0.02
346.158	0.02
346.606	0.02
347.054	0.02
347.503	0.02
347.951	0.02
348.399	0.02
348.847	0.02
349.295	0.02
349.743	0.02
350.191	0.02
350.639	0.02
351.087	0.02
351.535	0.02
351.983	0.02
352.43	0.02
352.878	0.02
353.326	0.02
353.773	0.02
354.221	0.02
354.668	0.03
355.116	0.02
355.563	0.02
356.01	0.03
356.458	0.03
356.905	0.03
357.352	0.03
357.799	0.03
358.246	0.03
358.693	0.03
359.14	0.03
359.587	0.03
360.034	0.03
360.481	0.03
360.928	0.03
361.375	0.03
361.821	0.03
362.268	0.03
362.714	0.03
363.161	0.03
363.608	0.03
364.054	0.03
364.5	0.03
364.947	0.03
365.393	0.03
365.839	0.03
366.285	0.03
366.732	0.03
367.178	0.03
367.624	0.04
368.07	0.04
368.516	0.04
368.962	0.04
369.408	0.04
369.853	0.04
370.299	0.04
370.745	0.04
371.19	0.04
371.636	0.04
372.082	0.04
372.527	0.04
372.973	0.04
373.418	0.04
373.863	0.04
374.309	0.04
374.754	0.04
375.199	0.04
375.644	0.04
376.09	0.04
376.535	0.04
376.98	0.04
377.425	0.04
377.87	0.04
378.314	0.04
378.759	0.04
379.204	0.04
379.649	0.04
380.093	0.04
380.538	0.04
380.983	0.04
381.427	0.04
381.872	0.04
382.316	0.04
382.76	0.04
383.205	0.04
383.649	0.04
384.093	0.04
384.537	0.04
384.982	0.04
385.426	0.05
385.87	0.05
386.314	0.05
386.758	0.05
387.201	0.05
387.645	0.05
388.089	0.05
388.533	0.05
388.976	0.05
389.42	0.05
389.864	0.05
390.307	0.05
390.751	0.05
391.194	0.05
391.638	0.05
392.081	0.05
392.524	0.05
392.967	0.05
393.411	0.05
393.854	0.05
394.297	0.05
394.74	0.05
395.183	0.06
395.626	0.06
396.069	0.06
396.512	0.06
396.954	0.06
397.397	0.07
397.84	0.07
398.282	0.07
398.725	0.07
399.168	0.07
399.61	0.07
400.052	0.07
400.495	0.07
400.937	0.07
401.38	0.07
401.822	0.07
402.264	0.06
402.706	0.06
403.148	0.06
403.59	0.05
404.032	0.05
404.474	0.05
404.916	0.04
405.358	0.04
405.8	0.04
406.241	0.04
406.683	0.03
407.125	0.03
407.566	0.03
408.008	0.03
408.449	0.02
408.891	0.02
409.332	0.02
409.774	0.02
410.215	0.02
410.656	0.02
411.097	0.01
411.539	0.01
411.98	0.01
412.421	0.01
412.862	0.01
413.303	0.01
413.744	0.01
414.184	0.01
414.625	0.01
415.066	0.01
415.507	0.01
415.947	0.01
416.388	0.01
416.828	0.01
417.269	0.01
417.709	0.01
418.15	0
418.59	0.01
419.03	0
419.471	0
419.911	0.01
420.351	0
420.791	0
421.231	0
421.671	0
422.111	0
422.551	0
422.991	0
423.431	-0
423.87	0
424.31	-0
424.75	0
425.189	0
425.629	-0
426.068	-0
426.508	-0
426.947	-0
427.386	-0
427.826	-0
428.265	-0
428.704	-0
429.143	-0
429.582	0
430.021	-0
430.46	-0
430.899	-0
431.338	-0
431.777	-0.01
432.216	-0.01
432.655	-0.01
433.093	-0
433.532	-0.01
433.971	-0.01
434.409	-0.01
434.848	-0.01
435.286	-0.01
435.724	-0.01
436.163	-0.01
436.601	-0.01
437.039	-0.01
437.477	-0.01
437.916	-0.01
438.354	-0.01
438.792	-0.01
439.23	-0.01
439.668	-0.01
440.105	-0.01
440.543	-0.01
440.981	-0.01
441.419	-0.02
441.856	-0.01
442.294	-0.02
442.732	-0.01
443.169	-0.02
443.607	-0.02
444.044	-0.01
444.481	-0.02
444.919	-0.02
445.356	-0.02
445.793	-0.02
446.23	-0.02
446.668	-0.02
447.105	-0.02
447.542	-0.02
447.979	-0.02
448.416	-0.02
448.852	-0.02
449.289	-0.02
449.726	-0.02
450.163	-0.02
450.599	-0.02
451.036	-0.02
451.473	-0.03
451.909	-0.03
452.346	-0.03
452.782	-0.03
453.218	-0.03
453.655	-0.03
454.091	-0.03
454.527	-0.03
454.963	-0.03
455.399	-0.03
455.835	-0.03
456.271	-0.03
456.707	-0.04
457.143	-0.04
457.579	-0.04
458.015	-0.04
458.451	-0.04
458.886	-0.04
459.322	-0.04
459.758	-0.04
460.193	-0.04
460.629	-0.04
461.064	-0.04
461.5	-0.04
461.935	-0.04
462.37	-0.04
462.805	-0.05
463.241	-0.05
463.676	-0.05
464.111	-0.04
464.546	-0.05
464.981	-0.04
465.416	-0.05
465.851	-0.05
466.286	-0.05
466.72	-0.05
467.155	-0.05
467.59	-0.05
468.024	-0.06
468.459	-0.06
468.893	-0.06
469.328	-0.05
469.762	-0.06
470.197	-0.06
470.631	-0.06
471.065	-0.06
471.5	-0.06
471.934	-0.06
472.368	-0.06
472.802	-0.06
473.236	-0.07
473.67	-0.07
474.104	-0.06
474.538	-0.07
474.972	-0.07
475.405	-0.07
475.839	-0.07
476.273	-0.07
476.706	-0.07
477.14	-0.07
477.573	-0.07
478.007	-0.07
478.44	-0.07
478.874	-0.07
479.307	-0.08
479.74	-0.09
480.173	-0.09
480.606	-0.09
481.04	-0.09
481.473	-0.09
481.906	-0.1
482.339	-0.1
482.771	-0.09
483.204	-0.09
483.637	-0.11
484.07	-0.1
484.502	-0.11
484.935	-0.11
485.368	-0.11
485.8	-0.11
486.233	-0.12
486.665	-0.12
487.098	-0.14
487.53	-0.14
487.962	-0.14
488.394	-0.15
488.827	-0.16
489.259	-0.17
489.691	-0.17
490.123	-0.17
490.555	-0.19
490.987	-0.19
491.418	-0.19
491.85	-0.2
492.282	-0.21
492.714	-0.21
493.145	-0.22
493.577	-0.23
494.009	-0.23
494.44	-0.24
494.872	-0.24
495.303	-0.23
495.734	-0.25
496.166	-0.24
496.597	-0.25
497.028	-0.25
497.459	-0.25
497.89	-0.26
498.321	-0.26
498.752	-0.27
499.183	-0.27
499.614	-0.26
500.045	-0.26
500.476	-0.26
500.906	-0.26
501.337	-0.26
501.768	-0.26
502.198	-0.26
502.629	-0.25
503.059	-0.25
503.49	-0.25
503.92	-0.25
504.35	-0.25
504.781	-0.25
505.211	-0.25
505.641	-0.25
506.071	-0.25
506.501	-0.25
506.931	-0.25
507.361	-0.25
507.791	-0.25
508.221	-0.25
508.651	-0.25
509.081	-0.25
509.51	-0.25
509.94	-0.25
510.37	-0.25
510.799	-0.25
511.229	-0.25
511.658	-0.25
512.087	-0.26
512.517	-0.25
512.946	-0.26
513.375	-0.26
513.804	-0.25
514.234	-0.26
514.663	-0.26
515.092	-0.26
515.521	-0.26
515.95	-0.26
516.378	-0.25
516.807	-0.25
517.236	-0.26
517.665	-0.25
518.093	-0.25
518.522	-0.25
518.951	-0.25
519.379	-0.25
519.807	-0.25
520.236	-0.25
520.664	-0.25
521.093	-0.25
521.521	-0.25
521.949	-0.25
522.377	-0.24
522.805	-0.24
523.233	-0.24
523.661	-0.24
524.089	-0.24
524.517	-0.23
524.945	-0.23
525.373	-0.23
525.8	-0.23
526.228	-0.23
526.656	-0.22
527.083	-0.22
527.511	-0.22
527.938	-0.21
528.366	-0.21
528.793	-0.21
529.22	-0.21
529.648	-0.2
530.075	-0.2
530.502	-0.2
530.929	-0.2
531.356	-0.19
531.783	-0.19
532.21	-0.18
532.637	-0.18
533.064	-0.18
533.49	-0.17
533.917	-0.17
534.344	-0.17
534.771	-0.16
535.197	-0.16
535.624	-0.16
536.05	-0.16
536.477	-0.16
536.903	-0.16
537.329	-0.15
537.755	-0.15
538.182	-0.15
538.608	-0.14
539.034	-0.14
539.46	-0.14
539.886	-0.14
540.312	-0.14
540.738	-0.14
541.164	-0.14
541.589	-0.13
542.015	-0.13
542.441	-0.13
542.867	-0.13
543.292	-0.13
543.718	-0.12
544.143	-0.12
544.569	-0.12
544.994	-0.12
545.419	-0.12
545.845	-0.12
546.27	-0.11
546.695	-0.11
547.12	-0.11
547.545	-0.11
547.97	-0.11
548.395	-0.11
548.82	-0.11
549.245	-0.11
549.67	-0.11
550.094	-0.11
550.519	-0.11
550.944	-0.1
551.368	-0.1
551.793	-0.1
552.217	-0.09
552.642	-0.1
553.066	-0.09
553.49	-0.09
553.915	-0.09
554.339	-0.09
554.763	-0.09
555.187	-0.09
555.611	-0.08
556.035	-0.08
556.459	-0.09
556.883	-0.09
557.307	-0.09
557.731	-0.08
558.154	-0.09
558.578	-0.08
559.002	-0.08
559.425	-0.08
559.849	-0.07
560.272	-0.07
560.696	-0.07
561.119	-0.07
561.543	-0.07
561.966	-0.07
562.389	-0.06
562.812	-0.06
563.235	-0.06
563.658	-0.06
564.081	-0.06
564.504	-0.06
564.927	-0.06
565.35	-0.06
565.773	-0.06
566.196	-0.05
566.618	-0.05
567.041	-0.05
567.463	-0.04
567.886	-0.04
568.309	-0.04
568.731	-0.03
569.153	-0.03
569.576	-0.03
569.998	-0.03
570.42	-0.03
570.842	-0.02
571.264	-0.02
571.686	-0.02
572.108	-0.02
572.53	-0.02
572.952	-0.01
573.374	-0.01
573.796	-0.01
574.218	-0.01
574.639	-0.01
575.061	-0.01
575.483	-0.01
575.904	-0.01
576.326	-0.01
576.747	-0
577.168	-0
577.59	-0
578.011	-0
578.432	-0
578.853	-0
579.274	-0
579.695	-0
580.116	-0
580.537	0
580.958	0
581.379	0
581.8	0
582.221	0
582.641	0
583.062	0
583.482	0
583.903	0
584.323	0
584.744	0
585.164	0
585.584	0
586.005	0
586.425	0
586.845	0
587.265	0
587.685	0
588.105	0
588.525	0
588.945	0
589.365	0
589.785	0.01
590.204	0
590.624	0
591.044	0.01
591.463	0.01
591.883	0.01
592.302	0.01
592.721	0.01
593.141	0.01
593.56	0.01
593.979	0.01
594.399	0.01
594.818	0.01
595.237	0.01
595.656	0.01
596.075	0.01
596.494	0.01
596.913	0.01
597.331	0.01
597.75	0.01
598.169	0.02
598.587	0.01
599.006	0.02
599.425	0.02
599.843	0.02
600.262	0.01
600.68	0.01
601.098	0.01
601.517	0.01
601.935	0.01
602.353	0.01
602.771	0.01
603.189	0.01
603.607	0.02
604.025	0.02
604.443	0.02
604.861	0.02
605.279	0.02
605.696	0.02
606.114	0.02
606.532	0.02
606.949	0.02
607.367	0.02
607.784	0.02
608.202	0.02
608.619	0.02
609.036	0.02
609.454	0.01
609.871	0.02
610.288	0.01
610.705	0.01
611.122	0.02
611.539	0.01
611.956	0.01
612.373	0.02
612.79	0.02
613.207	0.02
613.623	0.02
614.04	0.02
614.457	0.02
614.873	0.02
615.29	0.02
615.706	0.02
616.122	0.02
616.539	0.02
616.955	0.01
617.371	0.02
617.788	0.02
618.204	0.02
618.62	0.02
619.036	0.02
619.452	0.02
619.868	0.02
620.284	0.02
620.699	0.02
621.115	0.02
621.531	0.02
621.946	0.02
622.362	0.02
622.778	0.02
623.193	0.02
623.608	0.01
624.024	0.01
624.439	0.02
624.854	0.01
625.27	0.02
625.685	0.01
626.1	0.02
626.515	0.02
626.93	0.01
627.345	0.02
627.76	0.01
628.175	0.02
628.589	0.02
629.004	0.01
629.419	0.01
629.833	0.01
630.248	0.01
630.663	0.01
631.077	0.01
631.491	0.01
631.906	0.01
632.32	0.01
632.734	0.01
633.148	0.01
633.563	0.01
633.977	0.01
634.391	0.01
634.805	0.02
635.219	0.02
635.632	0.02
636.046	0.02
636.46	0.02
636.874	0.02
637.287	0.02
637.701	0.01
638.115	0.01
638.528	0.02
638.941	0.01
639.355	0.01
639.768	0.01
640.181	0.01
640.595	0.01
641.008	0.01
641.421	0.01
641.834	0.02
642.247	0.01
642.66	0.01
643.073	0.01
643.486	0.01
643.898	0.01
644.311	0.01
644.724	0.01
645.136	0.01
645.549	0.01
645.961	0.01
646.374	0.01
646.786	0.01
647.199	0.01
647.611	0.02
648.023	0.02
648.435	0.02
648.847	0.02
649.26	0.01
649.672	0.01
650.084	0.02
650.495	0.02
650.907	0.02
651.319	0.01
651.731	0.01
652.143	0.01
652.554	0.01
652.966	0.01
653.377	0.01
653.789	0.01
654.2	0.02
654.612	0
655.023	-0
655.434	-0
655.845	-0
656.256	0
656.668	0.02
657.079	0.01
657.49	0.01
657.901	0.01
658.311	0.01
658.722	0.01
659.133	0.01
659.544	0.01
659.954	0.01
660.365	0.01
660.775	0.01
661.186	0.01
661.596	0.01
662.007	0.01
662.417	0.01
662.827	0.01
663.238	0.02
663.648	0.01
664.058	0.01
664.468	0.01
664.878	0.01
665.288	0.01
665.698	0.01
666.108	0.01
666.517	0.01
666.927	0.01
667.337	0.01
667.746	0.01
668.156	0.01
668.565	0.01
668.975	0.01
669.384	0.01
669.794	0.01
670.203	0.01
670.612	0.01
671.021	0.01
671.43	0.01
671.84	0.01
672.249	0.01
672.658	0.01
673.066	0.01
673.475	0.01
673.884	0.02
674.293	0.02
674.702	0.02
675.11	0.02
675.519	0.01
675.927	0.01
676.336	0.01
676.744	0.01
677.152	0.01
677.561	0.01
677.969	0.01
678.377	0.01
678.785	0.01
679.193	0.01
679.601	0.01
680.009	0.01
680.417	0.01
680.825	0.01
681.233	0.01
681.641	0.01
682.048	0.01
682.456	0.01
682.864	0.01
683.271	0.01
683.679	0.01
684.086	0.01
684.493	0.01
684.901	0.01
685.308	0.01
685.715	0.01
686.122	0.01
686.529	0
686.936	0.01
687.343	0.01
687.75	0.01
688.157	0.01
688.564	0.01
688.971	0.01
689.378	0.01
689.784	0.01
690.191	0.01
690.597	0.01
691.004	0.01
691.41	0.01
691.817	0.01
692.223	0.01
692.629	0.01
693.035	0
693.442	0.01
693.848	0.01
694.254	0.01
694.66	0.01
695.066	0.01
695.471	0.01
695.877	0.01
696.283	0.01
696.689	0.01
697.094	0
697.5	0.01
697.906	0
698.311	0.01
698.716	0.01
699.122	0.01
699.527	0.01
699.932	0.01
700.338	0.01
700.743	0
701.148	0.01
701.553	0.01
701.958	0.01
702.363	0.01
702.768	0.01
703.173	0.01
703.577	0.01
703.982	0.01
704.387	0.01
704.791	0.01
705.196	0.01
705.6	0.01
706.005	0.01
706.409	0.01
706.814	0.01
707.218	0.01
707.622	0.01
708.026	0.01
708.43	0.01
708.834	0.01
709.238	0.01
709.642	0.01
710.046	0
710.45	0.01
710.854	0
711.257	0.01
711.661	0.01
712.065	0.01
712.468	0.01
712.872	0
713.275	0
713.679	0
714.082	0.01
714.485	0.01
714.888	0.01
715.291	0.01
715.695	0.01
716.098	0.01
716.501	0.01
716.904	0.01
717.306	0.01
717.709	0.01
718.112	0.01
718.515	0.01
718.917	0.01
719.32	0.01
719.723	0.01
720.125	0.01
720.527	0.01
720.93	0.01
721.332	0
721.734	0.01
722.137	0.01
722.539	0
722.941	0
723.343	0
723.745	0.01
724.147	0.01
724.549	0.01
724.95	0.01
725.352	0.01
725.754	0.01
726.156	0.01
726.557	0.01
726.959	0.01
727.36	0.01
727.762	0.01
728.163	0.01
728.564	0.01
728.966	0.01
729.367	0.01
729.768	0
730.169	0.01
730.57	0.01
730.971	0.01
731.372	0
731.773	0.01
732.174	0.01
732.574	0.01
732.975	0.01
733.376	0.01
733.776	0.01
734.177	0.01
734.577	0.01
734.978	0
735.378	0.01
735.778	0.01
736.179	0.01
736.579	0.01
736.979	0.01
737.379	0.01
737.779	0
738.179	0.01
738.579	0.01
738.979	0.01
739.379	0.01
739.778	0.01
740.178	0.01
740.578	0.01
740.977	0.01
741.377	0.01
741.776	0.01
742.176	0.01
742.575	0.01
742.974	0.01
743.374	0.01
743.773	0.01
744.172	0
744.571	0
744.97	0
745.369	0
745.768	0
746.167	0.01
746.565	0
746.964	0.01
747.363	0.01
747.761	0.01
748.16	0.01
748.559	0.01
748.957	0.01
749.355	0.01
749.754	0.01
750.152	0.01
750.55	0
750.948	0
751.347	0
751.745	0
752.143	0
752.541	0
752.938	0.01
753.336	0.01
753.734	0.01
754.132	0.01
754.529	0.01
754.927	0.01
755.325	0
755.722	0.01
756.119	0.01
756.517	0.01
756.914	0.01
757.311	0
757.709	0
758.106	0.01
758.503	0.01
758.9	0
759.297	0
759.694	0
760.091	0
760.488	0
760.884	0
761.281	0
761.678	0
762.074	0
762.471	0
762.867	0
763.264	-0
763.66	0
764.056	0
764.453	0
764.849	0
765.245	0
765.641	0
766.037	0
766.433	0.01
766.829	0
767.225	0
767.621	0
768.016	0
768.412	0
768.808	0
769.203	0
769.599	0
769.994	0
770.389	0
770.785	0
771.18	0
771.575	0
771.971	0
772.366	0
772.761	-0
773.156	0
773.551	0
773.945	-0
774.34	-0
774.735	-0
775.13	-0
775.524	-0
775.919	-0
776.314	-0
776.708	0
777.103	-0
777.497	0
777.891	0
778.285	-0
778.68	-0
779.074	-0
779.468	0
779.862	0
780.256	0.01
780.65	0
781.044	0
781.438	0
781.831	0
782.225	0
782.619	0
783.012	0
783.406	0
783.799	0
784.193	0
784.586	0
784.979	0
785.372	0
785.766	0
786.159	0
786.552	0
786.945	0
787.338	-0
787.731	0
788.123	0
788.516	0
788.909	0
789.302	-0
789.694	-0
790.087	0
790.479	0
790.872	0
791.264	0
791.656	0
792.049	0
792.441	0
792.833	0
793.225	0
793.617	0
794.009	0
794.401	0
794.793	0
795.185	0
795.576	0
795.968	0
796.36	0
796.751	0
797.143	0
797.534	0
797.926	0
798.317	0
798.708	0
799.1	0
799.491	0
799.882	0
800.273	0
800.664	0
801.055	0
801.446	0
801.837	0
802.227	0
802.618	0
803.009	-0
803.399	0
803.79	0
804.18	0
804.571	0
804.961	0
805.351	0
805.742	0
806.132	0
806.522	0
806.912	0
807.302	0
807.692	-0
808.082	-0
808.472	-0
808.862	-0
809.251	-0
809.641	0
810.031	-0
810.42	0
810.81	0
811.199	0
811.589	-0
811.978	-0
812.367	0
812.756	0
813.146	-0
813.535	0
813.924	0
814.313	0
814.702	0
815.091	0
815.479	0
815.868	0
816.257	0
816.645	0
817.034	-0
817.423	-0
817.811	-0
818.199	-0
818.588	0
818.976	0
819.364	0
819.753	0
820.141	0
820.529	0
820.917	0
821.305	0
821.693	-0
822.08	-0
822.468	0
822.856	0
823.244	0
823.631	0
824.019	0
824.406	0
824.794	0
825.181	0
825.568	0
825.956	0
826.343	0
826.73	0
827.117	0
827.504	0
827.891	0
828.278	0
828.665	0
829.052	0
829.438	0
829.825	0.01
830.212	0
830.598	0.01
830.985	0
831.371	0.01
831.757	0
832.144	0.01
832.53	0.01
832.916	0.01
833.302	0
833.688	0.01
834.075	0.01
834.461	0
834.846	0
835.232	0
835.618	0
836.004	0
836.39	0
836.775	0
837.161	0
837.546	0
837.932	0
838.317	0
838.702	0
839.088	0
839.473	0
839.858	0
840.243	0
840.628	0
841.013	0
841.398	0
841.783	0.01
842.168	0.01
842.553	0.01
842.937	0.01
843.322	0.01
843.707	0.01
844.091	0.01
844.476	0.01
844.86	0.01
845.244	0
845.629	0
846.013	0
846.397	0
846.781	0
847.165	0
847.549	0
847.933	0
848.317	0
848.701	0
849.085	0
849.468	0
849.852	0
850.236	0
850.619	0
851.003	0
851.386	0
851.769	0
852.153	0
852.536	0
852.919	0
853.302	0
853.685	-0
854.068	-0
854.451	-0
854.834	-0
855.217	0
855.6	0
855.982	0
856.365	0
856.748	0
857.13	0
857.513	0
857.895	0
858.277	0
858.66	0
859.042	0
859.424	0
859.806	0
860.188	0
860.57	0
860.952	0
861.334	0
861.716	0
862.098	0
862.48	0
862.861	0
863.243	0
863.624	0
864.006	0
864.387	0
864.769	0
865.15	0
865.531	0
865.912	0
866.294	0
866.675	0
867.056	0
867.437	0
867.818	0
868.198	0
868.579	0
868.96	0
869.341	0
869.721	0
870.102	0
870.482	0
870.863	0
871.243	-0
871.623	0
872.003	0
872.384	-0
872.764	0
873.144	0
873.524	-0
873.904	0
874.284	0
874.664	0
875.043	0
875.423	0
875.803	0
876.182	0
876.562	0
876.941	-0
877.321	0
877.7	-0
878.079	-0
878.459	0
878.838	0
879.217	0
879.596	0
879.975	0
880.354	0
880.733	0
881.112	0
881.491	0
881.869	0
882.248	-0
882.627	0
883.005	-0
883.384	-0
883.762	-0
884.14	-0
884.519	-0
884.897	0
885.275	0
885.653	0
886.031	0
886.409	0
886.787	0
887.165	0
887.543	0.01
887.921	0
888.298	0
888.676	0
889.054	0
889.431	0
889.809	0
890.186	0
890.563	0
890.941	0
891.318	0
891.695	0
892.072	0
892.449	0
892.826	0
893.203	0
893.58	0
893.957	0
894.334	0
894.71	0
895.087	0
895.464	0
895.84	0
896.217	0.01
896.593	0
896.969	0
897.346	0
897.722	0
898.098	0
898.474	0
898.85	0.01
899.226	0.01
899.602	0.01
899.978	0.01
900.354	0.01
900.73	0.01
901.105	0.01
901.481	0.01
901.857	0.01
902.232	0.01
902.608	0
902.983	0
903.358	0
903.734	-0
904.109	0
904.484	0
904.859	0
905.234	0
905.609	0
905.984	0
906.359	-0
906.734	0
907.108	0
907.483	0
907.858	0
908.232	0
908.607	0
908.981	0
909.356	-0
909.73	0
910.104	0
910.478	0
910.853	0
911.227	0
911.601	0
911.975	0
912.349	0
912.722	0.01
913.096	0
913.47	0
913.844	0.01
914.217	0
914.591	0.01
914.964	0.01
915.338	0.01
915.711	0.01
916.084	0
916.458	0.01
916.831	0
917.204	0
917.577	0.01
917.95	0
918.323	0
918.696	0
919.069	0
919.441	0
919.814	0
920.187	0
920.559	0.01
920.932	0
921.304	0
921.677	0
922.049	0
922.421	0.01
922.794	0.01
923.166	0
923.538	0
923.91	0
924.282	0.01
924.654	0.01
925.026	0
925.398	0.01
925.769	0.01
926.141	0.01
926.513	0.01
926.884	0.01
927.256	0.01
927.627	0.01
927.999	0
928.37	0.01
928.741	0
929.113	0.01
929.484	0
929.855	0
930.226	0
930.597	0
930.968	0
931.339	0
931.709	0
932.08	-0
932.451	0
932.821	0
933.192	0
933.562	-0
933.933	0
934.303	-0
934.673	0
935.044	0
935.414	0
935.784	0
936.154	0
936.524	0
936.894	0
937.264	0.01
937.634	0.01
938.004	0
938.373	0
938.743	0.01
939.113	0
939.482	0.01
939.852	0
940.221	0.01
940.59	0
940.96	0.01
941.329	0.01
941.698	0.01
942.067	0.01
942.436	0.01
942.805	0.01
943.174	0
943.543	0
943.912	-0
944.28	-0
944.649	0
945.018	0
945.386	0
945.755	0
946.123	0
946.492	0
946.86	0
947.228	0
947.596	0
947.965	0
948.333	-0
948.701	-0
949.069	0
949.437	-0
949.804	-0
950.172	0
950.54	0
950.908	0
951.275	0
951.643	-0
952.01	-0
952.378	0
952.745	-0
953.112	-0
953.479	0
953.847	-0
954.214	0
954.581	-0
954.948	-0
955.315	-0
955.682	-0
956.048	-0
956.415	-0
956.782	0
957.148	0
957.515	0
957.881	0
958.248	0.01
958.614	0
958.981	0.01
959.347	0
959.713	0
960.079	0
960.445	0
960.811	0
961.177	0
961.543	0
961.909	0
962.275	0
962.641	0
963.006	0
963.372	0.01
963.737	0.01
964.103	0
964.468	0.01
964.834	0.01
965.199	0.01
965.564	0.01
965.929	0.01
966.294	0.01
966.659	0
967.024	0
967.389	0
967.754	-0
968.119	0
968.484	0.01
968.848	0
969.213	0
969.578	0
969.942	0.01
970.307	0.01
970.671	0
971.035	0.01
971.399	0.01
971.764	0.01
972.128	0.01
972.492	0
972.856	0.01
973.22	0
973.584	0
973.948	0
974.311	0
974.675	0
975.039	0.01
975.402	0
975.766	0
976.129	0
976.493	0
976.856	0
977.219	0
977.582	0.01
977.946	0.01
978.309	0
978.672	0.01
979.035	0.01
979.398	0.01
979.761	0
980.123	0.01
980.486	0.01
980.849	0.01
981.211	0
981.574	0
981.936	-0
982.299	0
982.661	0.01
983.023	0
983.386	-0
983.748	0
984.11	0
984.472	-0
984.834	0
985.196	0
985.558	-0
985.92	0
986.281	0.01
986.643	0.01
987.005	0.01
987.366	0.01
987.728	0
988.089	0.01
988.451	0.01
988.812	0.01
989.173	0.01
989.534	0.01
989.895	0
990.257	0.01
990.618	0
990.979	0
991.339	0.01
991.7	0
992.061	0.01
992.422	0
992.782	0
993.143	0
993.503	0
993.864	0
994.224	0
994.585	0.01
994.945	0
995.305	0
995.665	0
996.025	-0
996.385	0.01
996.745	0
997.105	0
997.465	0
997.825	0
998.185	-0
998.544	-0
998.904	-0
999.263	0
999.623	0
999.982	0
1000.342	-0
1000.701	-0
1001.06	-0
1001.419	0
1001.778	0
1002.138	0
1002.497	0
1002.855	0
1003.214	0
1003.573	0
1003.932	0.01
1004.29	0.01
1004.649	0
1005.008	0
1005.366	0.01
1005.725	0
1006.083	0.01
1006.441	0.01
1006.799	0.01
1007.158	0
1007.516	0
1007.874	0
1008.232	0.01
1008.59	0
1008.948	0.01
1009.305	0.01
1009.663	0
1010.021	0.01
1010.379	-0
1010.736	0
1011.094	0.01
1011.451	0.01
1011.808	0
1012.166	-0
1012.523	-0
1012.88	-0
1013.237	0
1013.594	-0.01
1013.951	-0
1014.308	-0
1014.665	-0
1015.022	-0
1015.379	0
1015.735	-0
1016.092	-0
1016.449	0
1016.805	0
1017.162	-0
1017.518	-0
1017.874	-0
1018.231	-0.01
1018.587	-0
1018.943	-0
1019.299	-0
1019.655	-0.01
1020.011	0
1020.367	-0
1020.723	0
1021.078	-0
1021.434	-0
1021.79	-0
1022.145	-0
1022.501	-0
1022.856	0
1023.212	-0
1023.567	0
1023.922	-0
1024.278	-0
1024.633	-0
1024.988	0.01
1025.343	0
1025.698	0
1026.053	0.01
1026.408	0
1026.762	0
1027.117	0
1027.472	-0
1027.826	0.01
1028.181	0.01
1028.535	0
1028.89	0
1029.244	-0
1029.598	0
1029.952	-0
1030.307	-0.01
1030.661	0
1031.015	-0
1031.369	-0
1031.723	-0
1032.076	-0
