Data from Rubpy_EV_EDTA_StopFlow_Absorbance_16-30-56-903.txt Node
Date: Tue Jul 07 16:30:56 BST 2026
User: fpm-admin
Spectrometer: OFX00224
Trigger mode: 0
Integration Time (sec): 1.200000E-2
Scans to average: 3
Nonlinearity correction enabled: false
Boxcar width: 0
Storing dark spectrum: false
XAxis mode: Wavelengths
Number of Pixels in Spectrum: 2136
>>>>>Begin Spectral Data<<<<<
154.91	-0
155.289	-0.12
155.669	-0
156.048	-0
156.428	-1.28
156.807	-0
157.186	-0
157.566	-0
157.945	-0.51
158.325	-0.07
158.704	-0
159.083	-0
159.462	-0
159.842	-0
160.221	-0.18
160.6	-0
160.979	-0
161.359	-0.56
161.738	-0
162.117	-0
162.496	-0.4
162.875	0.17
163.254	0.05
163.633	1
164.012	-0.63
164.391	-0
164.77	0.12
165.149	-0
165.528	-0.33
165.907	-0.25
166.286	0.4
166.665	0.26
167.044	-0
167.423	-0
167.802	-0
168.181	-0.14
168.559	-1.04
168.938	0.94
169.317	-0
169.696	-0.86
170.074	0.68
170.453	0.63
170.832	-0.93
171.21	-0.51
171.589	-0
171.968	-0.25
172.346	-0.75
172.725	-0.36
173.103	-0
173.482	-0.64
173.861	0.29
174.239	-0
174.617	-0.17
174.996	-0
175.374	0.08
175.753	-0
176.131	0.7
176.51	0.27
176.888	-0
177.266	-0.1
177.645	0.22
178.023	0.11
178.401	0.36
178.779	0.07
179.158	-0
179.536	-0.05
179.914	-0.22
180.292	0.14
180.67	-0
181.048	0.28
181.427	-0
181.805	-0
182.183	-0.53
182.561	-0
182.939	-0
183.317	-0
183.695	-0
184.073	0.05
184.451	-0.14
184.829	-0
185.206	0.04
185.584	-0
185.962	-0.46
186.34	-0.45
186.718	0.02
187.096	-0
187.473	-0.54
187.851	-0.78
188.229	-0.24
188.607	0.22
188.984	0.28
189.362	0.29
189.74	0.27
190.117	0.14
190.495	0.29
190.872	0.05
191.25	0.16
191.627	0.11
192.005	0.19
192.382	0.11
192.76	0.35
193.137	0.19
193.515	0.34
193.892	0.23
194.269	0.21
194.647	0.23
195.024	0.37
195.401	0.29
195.779	0.41
196.156	0.29
196.533	0.2
196.91	0.26
197.288	0.27
197.665	0.31
198.042	0.17
198.419	0.18
198.796	0.13
199.173	0.25
199.55	0.17
199.927	0.37
200.304	0.2
200.681	0.33
201.058	0.32
201.435	0.35
201.812	0.28
202.189	0.24
202.566	0.28
202.943	0.16
203.32	0.25
203.697	0.12
204.073	0.28
204.45	0.15
204.827	0.26
205.204	0.29
205.58	0.18
205.957	0.25
206.334	0.19
206.71	0.2
207.087	0.11
207.464	0.38
207.84	0.26
208.217	0.31
208.593	0.31
208.97	0.24
209.346	0.26
209.723	0.2
210.099	0.35
210.476	0.19
210.852	0.19
211.228	0.25
211.605	0.23
211.981	0.31
212.357	0.38
212.733	0.22
213.11	0.17
213.486	0.22
213.862	0.33
214.238	0.31
214.614	0.13
214.991	0.24
215.367	0.22
215.743	0.33
216.119	0.31
216.495	0.22
216.871	0.22
217.247	0.32
217.623	0.34
217.999	0.19
218.375	0.18
218.751	0.23
219.127	0.32
219.502	0.3
219.878	0.29
220.254	0.38
220.63	0.23
221.006	0.14
221.381	0.19
221.757	0.36
222.133	0.17
222.508	0.2
222.884	0.38
223.26	0.27
223.635	0.21
224.011	0.16
224.386	0.27
224.762	0.33
225.137	0.3
225.513	0.28
225.888	0.33
226.264	0.37
226.639	0.54
227.014	0.2
227.39	0.23
227.765	0.2
228.14	0.41
228.516	0.23
228.891	0.23
229.266	0.2
229.641	0.36
230.017	0.23
230.392	0.18
230.767	0.36
231.142	0.21
231.517	0.35
231.892	0.21
232.267	0.29
232.642	0.29
233.017	0.11
233.392	0.16
233.767	0.33
234.142	0.2
234.517	0.29
234.892	0.15
235.267	0.25
235.641	0.32
236.016	0.3
236.391	0.3
236.766	0.09
237.14	0.29
237.515	0.26
237.89	0.31
238.264	0.22
238.639	0.38
239.014	0.41
239.388	0.23
239.763	0.25
240.137	0.39
240.512	0.18
240.886	0.28
241.261	0.24
241.635	0.28
242.009	0.39
242.384	0.34
242.758	0.24
243.132	0.26
243.507	0.24
243.881	0.23
244.255	0.42
244.629	0.26
245.004	0.42
245.378	0.18
245.752	0.18
246.126	0.16
246.5	0.24
246.874	0.27
247.248	0.3
247.622	0.04
247.996	0.27
248.37	0.28
248.744	0.22
249.118	0.39
249.492	0.23
249.866	0.23
250.24	0.26
250.613	0.28
250.987	0.46
251.361	0.4
251.735	0.28
252.108	0.34
252.482	0.27
252.856	0.31
253.229	0.39
253.603	0.26
253.977	0.24
254.35	0.17
254.724	0.23
255.097	0.19
255.471	0.2
255.844	0.24
256.218	0.33
256.591	0.16
256.964	0.28
257.338	0.2
257.711	0.34
258.084	0.26
258.458	0.25
258.831	0.39
259.204	0.32
259.577	0.15
259.95	0.3
260.323	0.27
260.697	0.29
261.07	0.29
261.443	0.23
261.816	0.28
262.189	0.28
262.562	0.19
262.935	0.13
263.308	0.17
263.68	0.47
264.053	0.22
264.426	0.25
264.799	0.31
265.172	0.34
265.545	0.25
265.917	0.22
266.29	0.2
266.663	0.27
267.035	0.28
267.408	0.24
267.781	0.24
268.153	0.17
268.526	0.32
268.898	0.28
269.271	0.27
269.643	0.25
270.016	0.22
270.388	0.35
270.76	0.22
271.133	0.26
271.505	0.24
271.877	0.36
272.25	0.19
272.622	0.25
272.994	0.29
273.366	0.2
273.739	0.24
274.111	0.31
274.483	0.29
274.855	0.23
275.227	0.3
275.599	0.23
275.971	0.25
276.343	0.27
276.715	0.26
277.087	0.3
277.459	0.21
277.831	0.24
278.203	0.26
278.574	0.24
278.946	0.28
279.318	0.29
279.69	0.27
280.061	0.22
280.433	0.27
280.805	0.19
281.176	0.26
281.548	0.26
281.92	0.29
282.291	0.23
282.663	0.39
283.034	0.25
283.406	0.22
283.777	0.29
284.148	0.23
284.52	0.17
284.891	0.22
285.262	0.11
285.634	0.3
286.005	0.25
286.376	0.42
286.747	0.26
287.119	0.27
287.49	0.22
287.861	0.28
288.232	0.16
288.603	0.25
288.974	0.22
289.345	0.21
289.716	0.25
290.087	0.24
290.458	0.23
290.829	0.23
291.2	0.22
291.571	0.32
291.941	0.39
292.312	0.25
292.683	0.21
293.054	0.14
293.424	0.36
293.795	0.33
294.166	0.32
294.536	0.24
294.907	0.19
295.277	0.24
295.648	0.31
296.018	0.26
296.389	0.18
296.759	0.19
297.13	0.2
297.5	0.26
297.871	0.3
298.241	0.21
298.611	0.19
298.981	0.28
299.352	0.21
299.722	0.19
300.092	0.26
300.462	0.39
300.832	0.27
301.202	0.22
301.573	0.26
301.943	0.41
302.313	0.23
302.683	0.32
303.053	0.26
303.422	0.25
303.792	0.36
304.162	0.33
304.532	0.3
304.902	0.26
305.272	0.25
305.641	0.3
306.011	0.18
306.381	0.23
306.75	0.24
307.12	0.29
307.49	0.24
307.859	0.24
308.229	0.25
308.598	0.26
308.968	0.32
309.337	0.28
309.707	0.26
310.076	0.26
310.445	0.23
310.815	0.23
311.184	0.18
311.553	0.3
311.923	0.27
312.292	0.25
312.661	0.23
313.03	0.28
313.399	0.24
313.768	0.23
314.137	0.28
314.506	0.25
314.875	0.26
315.244	0.24
315.613	0.27
315.982	0.26
316.351	0.24
316.72	0.24
317.089	0.23
317.458	0.26
317.826	0.27
318.195	0.23
318.564	0.23
318.933	0.24
319.301	0.27
319.67	0.23
320.038	0.25
320.407	0.25
320.775	0.24
321.144	0.23
321.512	0.22
321.881	0.24
322.249	0.23
322.618	0.23
322.986	0.26
323.354	0.26
323.723	0.27
324.091	0.25
324.459	0.24
324.827	0.25
325.195	0.25
325.564	0.25
325.932	0.26
326.3	0.28
326.668	0.27
327.036	0.28
327.404	0.26
327.772	0.26
328.14	0.29
328.508	0.27
328.875	0.28
329.243	0.29
329.611	0.28
329.979	0.29
330.346	0.3
330.714	0.27
331.082	0.3
331.449	0.3
331.817	0.32
332.185	0.31
332.552	0.31
332.92	0.33
333.287	0.33
333.655	0.34
334.022	0.34
334.389	0.35
334.757	0.35
335.124	0.36
335.491	0.36
335.859	0.38
336.226	0.38
336.593	0.37
336.96	0.38
337.327	0.38
337.695	0.4
338.062	0.41
338.429	0.4
338.796	0.41
339.163	0.41
339.53	0.42
339.897	0.43
340.263	0.44
340.63	0.45
340.997	0.46
341.364	0.46
341.731	0.46
342.097	0.47
342.464	0.48
342.831	0.49
343.197	0.49
343.564	0.5
343.931	0.5
344.297	0.52
344.664	0.52
345.03	0.54
345.396	0.55
345.763	0.55
346.129	0.56
346.496	0.56
346.862	0.57
347.228	0.58
347.594	0.58
347.961	0.61
348.327	0.6
348.693	0.62
349.059	0.61
349.425	0.63
349.791	0.64
350.157	0.64
350.523	0.66
350.889	0.66
351.255	0.67
351.621	0.69
351.987	0.7
352.353	0.71
352.719	0.71
353.084	0.74
353.45	0.73
353.816	0.75
354.181	0.77
354.547	0.78
354.913	0.79
355.278	0.78
355.644	0.82
356.009	0.83
356.375	0.83
356.74	0.84
357.106	0.85
357.471	0.87
357.836	0.88
358.202	0.88
358.567	0.92
358.932	0.92
359.297	0.93
359.663	0.93
360.028	0.95
360.393	0.95
360.758	0.95
361.123	0.96
361.488	0.98
361.853	0.98
362.218	0.97
362.583	0.97
362.948	1
363.312	1.01
363.677	1
364.042	1.01
364.407	1.01
364.772	1.03
365.136	1.03
365.501	1.05
365.865	1.05
366.23	1.06
366.595	1.06
366.959	1.05
367.324	1.07
367.688	1.06
368.052	1.08
368.417	1.06
368.781	1.06
369.145	1.06
369.51	1.05
369.874	1.05
370.238	1.05
370.602	1.04
370.967	1.02
371.331	1.02
371.695	1
372.059	0.98
372.423	1
372.787	0.97
373.151	0.97
373.515	0.96
373.878	0.94
374.242	0.94
374.606	0.94
374.97	0.93
375.334	0.92
375.697	0.91
376.061	0.91
376.425	0.9
376.788	0.9
377.152	0.89
377.515	0.89
377.879	0.89
378.242	0.88
378.606	0.89
378.969	0.88
379.333	0.89
379.696	0.88
380.059	0.9
380.422	0.89
380.786	0.9
381.149	0.9
381.512	0.92
381.875	0.92
382.238	0.92
382.601	0.94
382.964	0.95
383.327	0.96
383.69	0.98
384.053	0.98
384.416	0.98
384.779	1
385.142	0.99
385.504	1.01
385.867	1
386.23	1.01
386.593	1
386.955	0.98
387.318	0.98
387.68	0.97
388.043	0.96
388.405	0.95
388.768	0.96
389.13	0.95
389.493	0.94
389.855	0.93
390.217	0.92
390.58	0.93
390.942	0.92
391.304	0.94
391.666	0.96
392.028	0.98
392.391	1.02
392.753	1.02
393.115	1.07
393.477	1.09
393.839	1.13
394.201	1.17
394.563	1.22
394.924	1.22
395.286	1.27
395.648	1.29
396.01	1.3
396.371	1.31
396.733	1.31
397.095	1.33
397.456	1.33
397.818	1.29
398.18	1.27
398.541	1.25
398.903	1.24
399.264	1.18
399.625	1.12
399.987	1.09
400.348	1.04
400.709	0.97
401.071	0.93
401.432	0.86
401.793	0.82
402.154	0.76
402.515	0.71
402.876	0.67
403.238	0.62
403.599	0.58
403.96	0.54
404.32	0.51
404.681	0.48
405.042	0.45
405.403	0.43
405.764	0.39
406.125	0.38
406.485	0.35
406.846	0.33
407.207	0.31
407.567	0.3
407.928	0.29
408.288	0.27
408.649	0.26
409.009	0.25
409.37	0.23
409.73	0.22
410.091	0.22
410.451	0.21
410.811	0.2
411.171	0.2
411.532	0.19
411.892	0.18
412.252	0.19
412.612	0.16
412.972	0.17
413.332	0.16
413.692	0.15
414.052	0.16
414.412	0.15
414.772	0.14
415.132	0.13
415.492	0.14
415.851	0.13
416.211	0.14
416.571	0.13
416.931	0.12
417.29	0.13
417.65	0.12
418.009	0.12
418.369	0.12
418.728	0.11
419.088	0.12
419.447	0.12
419.807	0.11
420.166	0.11
420.525	0.11
420.884	0.12
421.244	0.12
421.603	0.11
421.962	0.1
422.321	0.1
422.68	0.1
423.039	0.1
423.398	0.11
423.757	0.11
424.116	0.11
424.475	0.11
424.834	0.12
425.193	0.09
425.551	0.1
425.91	0.11
426.269	0.11
426.628	0.1
426.986	0.11
427.345	0.1
427.703	0.09
428.062	0.11
428.42	0.09
428.779	0.11
429.137	0.1
429.496	0.09
429.854	0.1
430.212	0.11
430.57	0.09
430.929	0.11
431.287	0.09
431.645	0.09
432.003	0.1
432.361	0.1
432.719	0.1
433.077	0.11
433.435	0.09
433.793	0.1
434.151	0.13
434.509	0.1
434.866	0.09
435.224	0.08
435.582	0.12
435.94	0.11
436.297	0.12
436.655	0.12
437.012	0.11
437.37	0.12
437.727	0.12
438.085	0.08
438.442	0.11
438.8	0.11
439.157	0.1
439.514	0.1
439.872	0.11
440.229	0.11
440.586	0.11
440.943	0.12
441.3	0.1
441.657	0.11
442.014	0.12
442.371	0.11
442.728	0.1
443.085	0.11
443.442	0.09
443.799	0.11
444.156	0.08
444.513	0.09
444.869	0.1
445.226	0.13
445.583	0.1
445.939	0.11
446.296	0.13
446.652	0.11
447.009	0.1
447.365	0.11
447.722	0.12
448.078	0.12
448.434	0.12
448.791	0.11
449.147	0.13
449.503	0.13
449.859	0.13
450.215	0.12
450.571	0.12
450.928	0.13
451.284	0.14
451.64	0.12
451.995	0.14
452.351	0.13
452.707	0.18
453.063	0.15
453.419	0.16
453.775	0.13
454.13	0.13
454.486	0.13
454.842	0.13
455.197	0.12
455.553	0.11
455.908	0.14
456.264	0.14
456.619	0.14
456.975	0.13
457.33	0.13
457.685	0.12
458.04	0.13
458.396	0.14
458.751	0.14
459.106	0.16
459.461	0.17
459.816	0.15
460.171	0.17
460.526	0.15
460.881	0.15
461.236	0.13
461.591	0.16
461.946	0.15
462.301	0.15
462.655	0.15
463.01	0.15
463.365	0.13
463.719	0.15
464.074	0.15
464.428	0.17
464.783	0.14
465.137	0.16
465.492	0.14
465.846	0.15
466.201	0.17
466.555	0.17
466.909	0.15
467.263	0.15
467.618	0.16
467.972	0.16
468.326	0.14
468.68	0.17
469.034	0.15
469.388	0.16
469.742	0.15
470.096	0.18
470.45	0.17
470.804	0.17
471.157	0.16
471.511	0.17
471.865	0.17
472.218	0.16
472.572	0.15
472.926	0.18
473.279	0.18
473.633	0.17
473.986	0.17
474.34	0.17
474.693	0.17
475.046	0.18
475.4	0.19
475.753	0.18
476.106	0.17
476.459	0.19
476.812	0.19
477.165	0.18
477.519	0.19
477.872	0.19
478.224	0.19
478.577	0.19
478.93	0.19
479.283	0.21
479.636	0.2
479.989	0.2
480.341	0.19
480.694	0.21
481.047	0.2
481.399	0.21
481.752	0.2
482.104	0.21
482.457	0.22
482.809	0.21
483.162	0.22
483.514	0.22
483.866	0.22
484.219	0.22
484.571	0.22
484.923	0.22
485.275	0.22
485.627	0.23
485.979	0.22
486.331	0.22
486.683	0.23
487.035	0.23
487.387	0.24
487.739	0.23
488.091	0.24
488.443	0.24
488.794	0.24
489.146	0.25
489.498	0.25
489.849	0.25
490.201	0.25
490.552	0.25
490.904	0.26
491.255	0.25
491.607	0.26
491.958	0.25
492.309	0.26
492.661	0.26
493.012	0.26
493.363	0.26
493.714	0.27
494.065	0.27
494.416	0.27
494.767	0.27
495.118	0.27
495.469	0.28
495.82	0.28
496.171	0.28
496.522	0.28
496.872	0.28
497.223	0.27
497.574	0.29
497.924	0.29
498.275	0.3
498.626	0.29
498.976	0.29
499.327	0.3
499.677	0.3
500.027	0.3
500.378	0.31
500.728	0.3
501.078	0.3
501.428	0.31
501.779	0.31
502.129	0.3
502.479	0.31
502.829	0.32
503.179	0.32
503.529	0.32
503.879	0.32
504.229	0.32
504.578	0.32
504.928	0.33
505.278	0.33
505.628	0.33
505.977	0.34
506.327	0.34
506.676	0.33
507.026	0.34
507.375	0.35
507.725	0.34
508.074	0.35
508.424	0.35
508.773	0.35
509.122	0.35
509.471	0.35
509.82	0.35
510.17	0.35
510.519	0.35
510.868	0.36
511.217	0.35
511.566	0.36
511.915	0.36
512.263	0.37
512.612	0.36
512.961	0.36
513.31	0.37
513.659	0.37
514.007	0.37
514.356	0.37
514.704	0.37
515.053	0.38
515.401	0.38
515.75	0.38
516.098	0.38
516.447	0.39
516.795	0.38
517.143	0.39
517.491	0.39
517.839	0.39
518.188	0.39
518.536	0.4
518.884	0.4
519.232	0.4
519.58	0.4
519.928	0.4
520.275	0.4
520.623	0.4
520.971	0.4
521.319	0.4
521.666	0.41
522.014	0.41
522.362	0.41
522.709	0.42
523.057	0.41
523.404	0.42
523.752	0.41
524.099	0.42
524.446	0.41
524.794	0.41
525.141	0.43
525.488	0.42
525.835	0.42
526.182	0.42
526.529	0.43
526.876	0.43
527.223	0.43
527.57	0.43
527.917	0.43
528.264	0.43
528.611	0.43
528.958	0.43
529.304	0.44
529.651	0.44
529.998	0.44
530.344	0.44
530.691	0.44
531.037	0.44
531.384	0.44
531.73	0.45
532.076	0.45
532.423	0.45
532.769	0.45
533.115	0.45
533.461	0.45
533.807	0.46
534.154	0.45
534.5	0.45
534.846	0.46
535.192	0.46
535.537	0.46
535.883	0.46
536.229	0.46
536.575	0.46
536.921	0.46
537.266	0.47
537.612	0.47
537.957	0.48
538.303	0.48
538.649	0.47
538.994	0.47
539.339	0.47
539.685	0.48
540.03	0.48
540.375	0.48
540.721	0.48
541.066	0.48
541.411	0.48
541.756	0.48
542.101	0.48
542.446	0.49
542.791	0.48
543.136	0.48
543.481	0.49
543.825	0.49
544.17	0.49
544.515	0.5
544.86	0.49
545.204	0.5
545.549	0.5
545.893	0.5
546.238	0.5
546.582	0.5
546.927	0.5
547.271	0.5
547.615	0.5
547.96	0.5
548.304	0.5
548.648	0.51
548.992	0.51
549.336	0.51
549.68	0.51
550.024	0.51
550.368	0.52
550.712	0.51
551.056	0.51
551.4	0.51
551.743	0.52
552.087	0.51
552.431	0.52
552.774	0.51
553.118	0.52
553.462	0.51
553.805	0.51
554.148	0.51
554.492	0.52
554.835	0.52
555.178	0.52
555.522	0.52
555.865	0.52
556.208	0.52
556.551	0.52
556.894	0.52
557.237	0.52
557.58	0.52
557.923	0.52
558.266	0.52
558.609	0.52
558.952	0.52
559.294	0.52
559.637	0.52
559.98	0.52
560.322	0.52
560.665	0.52
561.007	0.52
561.35	0.52
561.692	0.52
562.034	0.51
562.377	0.52
562.719	0.52
563.061	0.52
563.403	0.52
563.745	0.52
564.088	0.52
564.43	0.52
564.772	0.52
565.113	0.52
565.455	0.52
565.797	0.52
566.139	0.52
566.481	0.52
566.822	0.52
567.164	0.52
567.506	0.52
567.847	0.52
568.189	0.52
568.53	0.52
568.872	0.51
569.213	0.51
569.554	0.52
569.895	0.52
570.237	0.51
570.578	0.51
570.919	0.51
571.26	0.51
571.601	0.51
571.942	0.51
572.283	0.51
572.624	0.51
572.965	0.51
573.306	0.51
573.646	0.51
573.987	0.5
574.328	0.5
574.668	0.5
575.009	0.5
575.349	0.5
575.69	0.5
576.03	0.5
576.37	0.5
576.711	0.5
577.051	0.5
577.391	0.5
577.731	0.5
578.072	0.5
578.412	0.49
578.752	0.49
579.092	0.48
579.431	0.48
579.771	0.49
580.111	0.49
580.451	0.49
580.791	0.5
581.13	0.5
581.47	0.5
581.81	0.5
582.149	0.49
582.489	0.48
582.828	0.45
583.167	0.47
583.507	0.48
583.846	0.48
584.185	0.49
584.525	0.49
584.864	0.5
585.203	0.5
585.542	0.5
585.881	0.5
586.22	0.49
586.559	0.49
586.898	0.49
587.236	0.49
587.575	0.5
587.914	0.5
588.252	0.5
588.591	0.5
588.93	0.5
589.268	0.5
589.607	0.5
589.945	0.51
590.283	0.51
590.622	0.51
590.96	0.51
591.298	0.51
591.636	0.51
591.974	0.51
592.313	0.51
592.651	0.51
592.989	0.51
593.326	0.51
593.664	0.52
594.002	0.51
594.34	0.51
594.678	0.51
595.015	0.52
595.353	0.52
595.691	0.52
596.028	0.52
596.366	0.52
596.703	0.53
597.04	0.53
597.378	0.53
597.715	0.53
598.052	0.53
598.389	0.53
598.726	0.53
599.064	0.53
599.401	0.53
599.738	0.52
600.074	0.53
600.411	0.52
600.748	0.53
601.085	0.53
601.422	0.53
601.758	0.52
602.095	0.53
602.432	0.53
602.768	0.53
603.105	0.53
603.441	0.53
603.777	0.52
604.114	0.53
604.45	0.53
604.786	0.53
605.122	0.52
605.459	0.52
605.795	0.53
606.131	0.52
606.467	0.52
606.803	0.52
607.139	0.52
607.474	0.52
607.81	0.52
608.146	0.52
608.482	0.51
608.817	0.51
609.153	0.51
609.488	0.51
609.824	0.51
610.159	0.51
610.495	0.51
610.83	0.51
611.165	0.51
611.5	0.5
611.836	0.5
612.171	0.5
612.506	0.5
612.841	0.5
613.176	0.5
613.511	0.5
613.845	0.49
614.18	0.49
614.515	0.49
614.85	0.49
615.184	0.48
615.519	0.48
615.854	0.48
616.188	0.48
616.523	0.48
616.857	0.48
617.191	0.48
617.526	0.47
617.86	0.47
618.194	0.47
618.528	0.47
618.862	0.47
619.196	0.46
619.53	0.47
619.864	0.47
620.198	0.47
620.532	0.46
620.866	0.46
621.2	0.45
621.533	0.46
621.867	0.46
622.201	0.45
622.534	0.45
622.868	0.45
623.201	0.45
623.534	0.44
623.868	0.45
624.201	0.44
624.534	0.44
624.868	0.44
625.201	0.44
625.534	0.44
625.867	0.43
626.2	0.43
626.533	0.43
626.865	0.43
627.198	0.42
627.531	0.43
627.864	0.42
628.196	0.42
628.529	0.42
628.862	0.42
629.194	0.42
629.527	0.41
629.859	0.41
630.191	0.4
630.524	0.4
630.856	0.4
631.188	0.4
631.52	0.39
631.852	0.39
632.184	0.39
632.516	0.39
632.848	0.38
633.18	0.38
633.512	0.38
633.844	0.38
634.175	0.38
634.507	0.37
634.839	0.37
635.17	0.36
635.502	0.36
635.833	0.36
636.165	0.36
636.496	0.35
636.827	0.35
637.159	0.35
637.49	0.34
637.821	0.34
638.152	0.34
638.483	0.34
638.814	0.34
639.145	0.34
639.476	0.33
639.807	0.33
640.137	0.33
640.468	0.33
640.799	0.32
641.129	0.32
641.46	0.32
641.791	0.32
642.121	0.31
642.451	0.31
642.782	0.31
643.112	0.3
643.442	0.31
643.773	0.31
644.103	0.3
644.433	0.3
644.763	0.3
645.093	0.3
645.423	0.29
645.753	0.3
646.082	0.29
646.412	0.29
646.742	0.29
647.072	0.29
647.401	0.29
647.731	0.29
648.06	0.28
648.39	0.28
648.719	0.28
649.048	0.28
649.378	0.28
649.707	0.28
650.036	0.28
650.365	0.28
650.694	0.28
651.023	0.28
651.352	0.27
651.681	0.28
652.01	0.27
652.339	0.27
652.668	0.27
652.996	0.27
653.325	0.26
653.654	0.27
653.982	0.27
654.311	0.26
654.639	0.27
654.967	0.27
655.296	0.27
655.624	0.27
655.952	0.27
656.28	0.26
656.609	0.25
656.937	0.16
657.265	0.07
657.593	0.06
657.92	0.13
658.248	0.21
658.576	0.25
658.904	0.26
659.231	0.26
659.559	0.26
659.887	0.26
660.214	0.26
660.542	0.26
660.869	0.26
661.196	0.25
661.524	0.26
661.851	0.26
662.178	0.25
662.505	0.25
662.832	0.26
663.159	0.26
663.486	0.25
663.813	0.25
664.14	0.25
664.467	0.25
664.794	0.25
665.12	0.25
665.447	0.25
665.774	0.24
666.1	0.25
666.427	0.25
666.753	0.25
667.079	0.25
667.406	0.25
667.732	0.24
668.058	0.24
668.384	0.24
668.71	0.24
669.036	0.24
669.362	0.24
669.688	0.24
670.014	0.23
670.34	0.23
670.666	0.24
670.991	0.23
671.317	0.23
671.643	0.23
671.968	0.23
672.294	0.23
672.619	0.23
672.945	0.23
673.27	0.22
673.595	0.22
673.92	0.22
674.246	0.22
674.571	0.22
674.896	0.22
675.221	0.22
675.546	0.22
675.87	0.21
676.195	0.21
676.52	0.21
676.845	0.21
677.169	0.21
677.494	0.21
677.819	0.2
678.143	0.2
678.468	0.2
678.792	0.2
679.116	0.2
679.44	0.2
679.765	0.2
680.089	0.19
680.413	0.19
680.737	0.19
681.061	0.19
681.385	0.19
681.709	0.18
682.033	0.19
682.356	0.18
682.68	0.18
683.004	0.18
683.327	0.18
683.651	0.18
683.974	0.18
684.298	0.17
684.621	0.17
684.944	0.17
685.268	0.17
685.591	0.17
685.914	0.16
686.237	0.16
686.56	0.16
686.883	0.16
687.206	0.16
687.529	0.16
687.852	0.15
688.175	0.16
688.497	0.15
688.82	0.15
689.142	0.15
689.465	0.15
689.787	0.15
690.11	0.15
690.432	0.15
690.755	0.14
691.077	0.14
691.399	0.14
691.721	0.14
692.043	0.14
692.365	0.14
692.687	0.14
693.009	0.13
693.331	0.13
693.653	0.13
693.974	0.13
694.296	0.13
694.618	0.13
694.939	0.12
695.261	0.13
695.582	0.13
695.904	0.13
696.225	0.12
696.546	0.12
696.868	0.12
697.189	0.12
697.51	0.12
697.831	0.12
698.152	0.11
698.473	0.11
698.794	0.11
699.114	0.11
699.435	0.11
699.756	0.11
700.077	0.11
700.397	0.11
700.718	0.11
701.038	0.11
701.359	0.11
701.679	0.1
701.999	0.1
702.32	0.1
702.64	0.1
702.96	0.1
703.28	0.1
703.6	0.1
703.92	0.1
704.24	0.1
704.56	0.1
704.879	0.1
705.199	0.1
705.519	0.1
705.838	0.1
706.158	0.1
706.478	0.1
706.797	0.1
707.116	0.1
707.436	0.1
707.755	0.1
708.074	0.1
708.393	0.1
708.712	0.1
709.031	0.1
709.35	0.1
709.669	0.1
709.988	0.1
710.307	0.1
710.626	0.1
710.944	0.1
711.263	0.1
711.582	0.1
711.9	0.1
712.219	0.1
712.537	0.1
712.855	0.1
713.174	0.09
713.492	0.1
713.81	0.09
714.128	0.1
714.446	0.1
714.764	0.1
715.082	0.1
715.4	0.1
715.718	0.1
716.035	0.1
716.353	0.1
716.671	0.1
716.988	0.1
717.306	0.1
717.623	0.1
717.941	0.1
718.258	0.1
718.575	0.1
718.893	0.1
719.21	0.1
719.527	0.1
719.844	0.1
720.161	0.1
720.478	0.1
720.795	0.1
721.112	0.1
721.428	0.1
721.745	0.1
722.062	0.1
722.378	0.1
722.695	0.1
723.011	0.1
723.328	0.1
723.644	0.11
723.96	0.11
724.276	0.1
724.593	0.1
724.909	0.1
725.225	0.1
725.541	0.1
725.857	0.1
726.173	0.11
726.488	0.11
726.804	0.11
727.12	0.11
727.435	0.11
727.751	0.11
728.067	0.11
728.382	0.11
728.697	0.11
729.013	0.11
729.328	0.11
729.643	0.11
729.958	0.11
730.273	0.11
730.588	0.11
730.903	0.11
731.218	0.11
731.533	0.11
731.848	0.11
732.163	0.11
732.477	0.11
732.792	0.11
733.107	0.11
733.421	0.11
733.736	0.11
734.05	0.11
734.364	0.11
734.678	0.11
734.993	0.11
735.307	0.11
735.621	0.11
735.935	0.11
736.249	0.11
736.563	0.11
736.877	0.11
737.19	0.1
737.504	0.11
737.818	0.11
738.131	0.11
738.445	0.11
738.758	0.11
739.072	0.11
739.385	0.11
739.698	0.11
740.012	0.11
740.325	0.11
740.638	0.1
740.951	0.11
741.264	0.1
741.577	0.1
741.89	0.11
742.203	0.11
742.515	0.1
742.828	0.1
743.141	0.1
743.453	0.1
743.766	0.1
744.078	0.1
744.391	0.1
744.703	0.1
745.015	0.1
745.327	0.1
745.639	0.1
745.952	0.1
746.264	0.1
746.575	0.1
746.887	0.1
747.199	0.1
747.511	0.1
747.823	0.1
748.134	0.09
748.446	0.09
748.757	0.09
749.069	0.09
749.38	0.09
749.692	0.09
750.003	0.09
750.314	0.09
750.625	0.09
750.936	0.09
751.248	0.09
751.559	0.09
751.869	0.08
752.18	0.09
752.491	0.09
752.802	0.08
753.112	0.09
753.423	0.09
753.734	0.09
754.044	0.09
754.355	0.08
754.665	0.08
754.975	0.08
755.285	0.09
755.596	0.08
755.906	0.08
756.216	0.08
756.526	0.08
756.836	0.08
757.146	0.08
757.455	0.08
757.765	0.08
758.075	0.08
758.385	0.08
758.694	0.08
759.004	0.08
759.313	0.08
759.622	0.08
759.932	0.08
760.241	0.08
760.55	0.08
760.859	0.08
761.168	0.08
761.477	0.08
761.786	0.08
762.095	0.08
762.404	0.08
762.713	0.07
763.021	0.07
763.33	0.07
763.639	0.08
763.947	0.07
764.256	0.07
764.564	0.07
764.872	0.07
765.181	0.07
765.489	0.07
765.797	0.07
766.105	0.07
766.413	0.07
766.721	0.07
767.029	0.07
767.337	0.07
767.644	0.07
767.952	0.07
768.26	0.07
768.567	0.08
768.875	0.07
769.182	0.07
769.49	0.07
769.797	0.07
770.104	0.08
770.411	0.08
770.718	0.07
771.026	0.07
771.333	0.08
771.639	0.07
771.946	0.07
772.253	0.07
772.56	0.07
772.867	0.07
773.173	0.07
773.48	0.07
773.786	0.07
774.093	0.07
774.399	0.07
774.705	0.07
775.012	0.07
775.318	0.07
775.624	0.07
775.93	0.08
776.236	0.07
776.542	0.07
776.848	0.08
777.154	0.08
777.459	0.07
777.765	0.07
778.071	0.07
778.376	0.07
778.682	0.07
778.987	0.08
779.292	0.07
779.598	0.07
779.903	0.08
780.208	0.08
780.513	0.08
780.818	0.07
781.123	0.08
781.428	0.08
781.733	0.07
782.038	0.08
782.343	0.08
782.647	0.08
782.952	0.08
783.256	0.08
783.561	0.08
783.865	0.08
784.17	0.08
784.474	0.08
784.778	0.08
785.082	0.07
785.386	0.08
785.69	0.09
785.994	0.08
786.298	0.08
786.602	0.08
786.906	0.08
787.209	0.08
787.513	0.08
787.817	0.08
788.12	0.08
788.424	0.08
788.727	0.08
789.03	0.08
789.333	0.08
789.637	0.08
789.94	0.08
790.243	0.08
790.546	0.08
790.849	0.08
791.152	0.08
791.454	0.09
791.757	0.08
792.06	0.08
792.362	0.08
792.665	0.08
792.967	0.08
793.27	0.09
793.572	0.09
793.874	0.09
794.177	0.08
794.479	0.09
794.781	0.09
795.083	0.09
795.385	0.09
795.687	0.09
795.989	0.09
796.29	0.09
796.592	0.09
796.894	0.09
797.195	0.09
797.497	0.09
797.798	0.09
798.1	0.09
798.401	0.09
798.702	0.09
799.003	0.09
799.304	0.09
799.605	0.09
799.906	0.08
800.207	0.09
800.508	0.09
800.809	0.09
801.11	0.09
801.41	0.09
801.711	0.09
802.011	0.09
802.312	0.09
802.612	0.09
802.913	0.1
803.213	0.09
803.513	0.09
803.813	0.09
804.113	0.09
804.413	0.09
804.713	0.09
805.013	0.09
805.313	0.09
805.613	0.1
805.912	0.1
806.212	0.1
806.511	0.1
806.811	0.1
807.11	0.1
807.41	0.09
807.709	0.1
808.008	0.09
808.307	0.09
808.606	0.09
808.905	0.09
809.204	0.1
809.503	0.1
809.802	0.09
810.101	0.1
810.399	0.09
810.698	0.1
810.997	0.1
811.295	0.09
811.593	0.1
811.892	0.1
812.19	0.1
812.488	0.1
812.786	0.1
813.084	0.1
813.383	0.1
813.68	0.1
813.978	0.1
814.276	0.1
814.574	0.1
814.872	0.1
815.169	0.1
815.467	0.1
815.764	0.1
816.062	0.1
816.359	0.11
816.656	0.1
816.954	0.1
817.251	0.11
817.548	0.1
817.845	0.1
818.142	0.11
818.439	0.11
818.735	0.1
819.032	0.11
819.329	0.11
819.626	0.11
819.922	0.1
820.219	0.11
820.515	0.11
820.811	0.11
821.108	0.11
821.404	0.11
821.7	0.12
821.996	0.11
822.292	0.11
822.588	0.11
822.884	0.11
823.18	0.11
823.475	0.11
823.771	0.11
824.067	0.09
824.362	0.11
824.658	0.1
824.953	0.11
825.249	0.11
825.544	0.11
825.839	0.12
826.134	0.11
826.429	0.11
826.724	0.11
827.019	0.12
827.314	0.12
827.609	0.12
827.904	0.11
828.198	0.12
828.493	0.12
828.787	0.11
829.082	0.12
829.376	0.11
829.671	0.12
829.965	0.11
830.259	0.12
830.553	0.11
830.847	0.12
831.141	0.12
831.435	0.12
831.729	0.12
832.023	0.11
832.317	0.13
832.61	0.13
832.904	0.12
833.197	0.12
833.491	0.12
833.784	0.12
834.077	0.11
834.371	0.12
834.664	0.12
834.957	0.12
835.25	0.12
835.543	0.12
835.836	0.12
836.129	0.12
836.421	0.12
836.714	0.11
837.007	0.12
837.299	0.12
837.592	0.12
837.884	0.11
838.177	0.13
838.469	0.12
838.761	0.11
839.053	0.13
839.345	0.12
839.637	0.12
839.929	0.12
840.221	0.12
840.513	0.13
840.805	0.11
841.096	0.12
841.388	0.12
841.68	0.13
841.971	0.12
842.262	0.13
842.554	0.11
842.845	0.12
843.136	0.12
843.427	0.14
843.718	0.14
844.009	0.14
844.3	0.14
844.591	0.12
844.882	0.13
845.173	0.12
845.463	0.14
845.754	0.14
846.044	0.13
846.335	0.14
846.625	0.13
846.915	0.13
847.206	0.12
847.496	0.14
847.786	0.11
848.076	0.11
848.366	0.14
848.656	0.13
848.945	0.13
849.235	0.12
849.525	0.12
849.814	0.12
850.104	0.12
850.393	0.13
850.683	0.14
850.972	0.14
851.261	0.14
851.551	0.13
851.84	0.13
852.129	0.12
852.418	0.12
852.707	0.13
852.995	0.11
853.284	0.12
853.573	0.15
853.862	0.11
854.15	0.13
854.439	0.13
854.727	0.14
855.015	0.13
855.304	0.12
855.592	0.13
855.88	0.15
856.168	0.14
856.456	0.12
856.744	0.13
857.032	0.14
857.32	0.14
857.607	0.12
857.895	0.12
858.183	0.16
858.47	0.14
858.757	0.15
859.045	0.14
859.332	0.14
859.619	0.14
859.907	0.12
860.194	0.16
860.481	0.14
860.768	0.12
861.054	0.15
861.341	0.14
861.628	0.15
861.915	0.13
862.201	0.16
862.488	0.12
862.774	0.09
863.061	0.15
863.347	0.18
863.633	0.16
863.919	0.16
864.205	0.13
864.491	0.16
864.777	0.16
865.063	0.12
865.349	0.09
865.635	0.12
865.92	0.17
866.206	0.12
866.492	0.14
866.777	0.19
867.062	0.12
867.348	0.16
867.633	0.12
867.918	0.13
868.203	0.11
868.488	0.2
868.773	0.15
869.058	0.14
869.343	0.16
869.628	0.16
869.912	0.12
870.197	0.18
870.482	0.17
870.766	0.12
871.05	0.11
871.335	0.19
871.619	0.13
871.903	0.08
872.187	0.09
872.471	0.17
872.755	0.12
873.039	0.13
873.323	0.12
873.607	0.13
873.89	0.22
874.174	0.16
874.458	0.09
874.741	0.12
875.024	0.15
875.308	0.11
875.591	0.2
875.874	0.13
876.157	0.15
876.44	0.15
876.723	0.22
877.006	0.06
877.289	0.18
877.572	0.17
877.854	0.1
878.137	0.07
878.42	0.26
878.702	0.05
878.984	0.42
879.267	0.23
879.549	0.08
879.831	0.16
880.113	0.21
880.395	0.09
880.677	0.11
880.959	0.2
