Data from Rubpy_EV_1500_EDTA_Buffered_Absorbance_14-58-19-996.txt Node
Date: Tue Jun 30 14:58:19 BST 2026
User: fpm-admin
Spectrometer: OFX00224
Trigger mode: 0
Integration Time (sec): 7.000000E-2
Scans to average: 3
Nonlinearity correction enabled: false
Boxcar width: 0
Storing dark spectrum: false
XAxis mode: Wavelengths
Number of Pixels in Spectrum: 2136
>>>>>Begin Spectral Data<<<<<
154.91	0.85
155.289	-0.33
155.669	-0.02
156.048	0.3
156.428	0.52
156.807	1.64
157.186	-0
157.566	0.05
157.945	-0.41
158.325	-0
158.704	-0.95
159.083	-0
159.462	-0.48
159.842	-0
160.221	0.78
160.6	-0
160.979	0.32
161.359	-0.46
161.738	-0
162.117	-0.05
162.496	-0
162.875	-0.4
163.254	-0
163.633	0.18
164.012	0.14
164.391	0.66
164.77	0.51
165.149	-0
165.528	-0
165.907	-0
166.286	-0.56
166.665	-0.15
167.044	0.44
167.423	0.19
167.802	-0
168.181	1.03
168.559	-0.45
168.938	0.71
169.317	-0.06
169.696	-0
170.074	0.52
170.453	-0
170.832	-0
171.21	1.04
171.589	-0
171.968	0.11
172.346	-0
172.725	-0
173.103	-0.15
173.482	-0.81
173.861	0.51
174.239	0.2
174.617	0.32
174.996	-0.38
175.374	0.3
175.753	-0
176.131	-0
176.51	0.44
176.888	-0.25
177.266	-0
177.645	-0.05
178.023	-0
178.401	-0.27
178.779	0.22
179.158	-0.12
179.536	0.25
179.914	-0.24
180.292	-0.19
180.67	-0.01
181.048	-0
181.427	0.62
181.805	0.2
182.183	-0
182.561	-0.07
182.939	-0
183.317	-0
183.695	-0.05
184.073	-0
184.451	0.14
184.829	-0
185.206	-0.18
185.584	-0.26
185.962	-0
186.34	-0
186.718	-0
187.096	-1.38
187.473	-0
187.851	0.08
188.229	1.18
188.607	0.22
188.984	0.13
189.362	0.17
189.74	0.02
190.117	0.09
190.495	0.01
190.872	0.03
191.25	0.12
191.627	0.06
192.005	0.15
192.382	0.11
192.76	0.1
193.137	0.12
193.515	0.13
193.892	0.14
194.269	0.16
194.647	0.09
195.024	0.03
195.401	0.05
195.779	0.2
196.156	0.12
196.533	0.2
196.91	0.09
197.288	0.06
197.665	0.08
198.042	0.03
198.419	0.13
198.796	0.1
199.173	0.07
199.55	-0.01
199.927	0.21
200.304	0.24
200.681	0.12
201.058	0.04
201.435	0.14
201.812	0.17
202.189	0.19
202.566	0.26
202.943	0.02
203.32	0.09
203.697	0.17
204.073	0.09
204.45	0.09
204.827	0.12
205.204	0.17
205.58	0.2
205.957	0.18
206.334	0.12
206.71	0
207.087	0.16
207.464	0.14
207.84	0.11
208.217	0.09
208.593	0.09
208.97	0.22
209.346	0.13
209.723	0.12
210.099	0.1
210.476	0.2
210.852	0.19
211.228	0.11
211.605	0.03
211.981	0.18
212.357	0.17
212.733	0.07
213.11	0.18
213.486	0.07
213.862	0.12
214.238	0.13
214.614	0.21
214.991	0.16
215.367	0.21
215.743	0.16
216.119	0.07
216.495	0.13
216.871	0.18
217.247	0.08
217.623	0.1
217.999	0.15
218.375	0.18
218.751	0.14
219.127	0.16
219.502	0.03
219.878	0.13
220.254	0.15
220.63	0.08
221.006	0.19
221.381	0.13
221.757	0.18
222.133	0.17
222.508	0.08
222.884	0.18
223.26	0.16
223.635	0.14
224.011	0.18
224.386	0.07
224.762	0.06
225.137	0.06
225.513	0.17
225.888	0.14
226.264	0.15
226.639	0.19
227.014	0.13
227.39	0.28
227.765	0.22
228.14	0.15
228.516	0.07
228.891	0.08
229.266	0.06
229.641	0.07
230.017	0.11
230.392	0.08
230.767	0.28
231.142	0.27
231.517	0.25
231.892	0.18
232.267	0.21
232.642	0.19
233.017	0.15
233.392	0.22
233.767	0.21
234.142	0.11
234.517	0.08
234.892	0.03
235.267	0.18
235.641	0.1
236.016	0.07
236.391	0.06
236.766	0.25
237.14	0.15
237.515	0.12
237.89	0.16
238.264	0.15
238.639	0.09
239.014	0.18
239.388	0.14
239.763	0.18
240.137	0.08
240.512	0.14
240.886	0.13
241.261	0.15
241.635	0.23
242.009	0.12
242.384	0.13
242.758	0.1
243.132	0.19
243.507	0.11
243.881	0.17
244.255	0.16
244.629	0.2
245.004	0.11
245.378	0.11
245.752	0.25
246.126	0.15
246.5	0.13
246.874	0.13
247.248	0.03
247.622	0.17
247.996	0.18
248.37	0.09
248.744	0.18
249.118	0.14
249.492	0.17
249.866	0.08
250.24	0.15
250.613	0.07
250.987	0.12
251.361	0.2
251.735	0.18
252.108	0.13
252.482	0.1
252.856	0.15
253.229	0.17
253.603	0.32
253.977	0.16
254.35	0.07
254.724	0.09
255.097	0.12
255.471	0.09
255.844	0.11
256.218	0.18
256.591	0.1
256.964	0.18
257.338	0.17
257.711	0.12
258.084	0.17
258.458	0.18
258.831	0.11
259.204	0.11
259.577	0.21
259.95	0.18
260.323	0.17
260.697	0.18
261.07	0.08
261.443	0.17
261.816	0.15
262.189	0.29
262.562	0.21
262.935	0.13
263.308	0.13
263.68	0.13
264.053	0.22
264.426	0.13
264.799	0.12
265.172	0.2
265.545	0.13
265.917	0.14
266.29	0.17
266.663	0.22
267.035	0.18
267.408	0.15
267.781	0.13
268.153	0.22
268.526	0.17
268.898	0.2
269.271	0.11
269.643	0.14
270.016	0.14
270.388	0.13
270.76	0.09
271.133	0.18
271.505	0.14
271.877	0.18
272.25	0.2
272.622	0.12
272.994	0.13
273.366	0.16
273.739	0.24
274.111	0.06
274.483	0.13
274.855	0.2
275.227	0.11
275.599	0.13
275.971	0.29
276.343	0.17
276.715	0.16
277.087	0.19
277.459	0.17
277.831	0.11
278.203	0.11
278.574	0.14
278.946	0.18
279.318	0.08
279.69	0.16
280.061	0.16
280.433	0.19
280.805	0.17
281.176	0.19
281.548	0.1
281.92	0.12
282.291	0.11
282.663	0.23
283.034	0.15
283.406	0.12
283.777	0.2
284.148	0.08
284.52	0.25
284.891	0.12
285.262	0.21
285.634	0.16
286.005	0.13
286.376	0.11
286.747	0.07
287.119	0.14
287.49	0.1
287.861	0.12
288.232	0.08
288.603	0.16
288.974	0.21
289.345	0.11
289.716	0.19
290.087	0.13
290.458	0.18
290.829	0.17
291.2	0.17
291.571	0.15
291.941	0.2
292.312	0.14
292.683	0.16
293.054	0.22
293.424	0.03
293.795	0.14
294.166	0.14
294.536	0.14
294.907	0.1
295.277	0.18
295.648	0.15
296.018	0.17
296.389	0.2
296.759	0.11
297.13	0.16
297.5	0.12
297.871	0.15
298.241	0.18
298.611	0.15
298.981	0.12
299.352	0.16
299.722	0.18
300.092	0.12
300.462	0.19
300.832	0.13
301.202	0.14
301.573	0.15
301.943	0.16
302.313	0.12
302.683	0.1
303.053	0.13
303.422	0.12
303.792	0.11
304.162	0.12
304.532	0.12
304.902	0.11
305.272	0.12
305.641	0.11
306.011	0.11
306.381	0.11
306.75	0.13
307.12	0.11
307.49	0.11
307.859	0.13
308.229	0.11
308.598	0.13
308.968	0.12
309.337	0.12
309.707	0.12
310.076	0.12
310.445	0.12
310.815	0.13
311.184	0.13
311.553	0.13
311.923	0.13
312.292	0.13
312.661	0.12
313.03	0.13
313.399	0.14
313.768	0.14
314.137	0.13
314.506	0.13
314.875	0.13
315.244	0.13
315.613	0.13
315.982	0.14
316.351	0.13
316.72	0.12
317.089	0.12
317.458	0.13
317.826	0.13
318.195	0.12
318.564	0.13
318.933	0.12
319.301	0.12
319.67	0.12
320.038	0.12
320.407	0.12
320.775	0.12
321.144	0.12
321.512	0.12
321.881	0.11
322.249	0.11
322.618	0.11
322.986	0.11
323.354	0.11
323.723	0.11
324.091	0.11
324.459	0.11
324.827	0.11
325.195	0.11
325.564	0.11
325.932	0.11
326.3	0.11
326.668	0.1
327.036	0.1
327.404	0.11
327.772	0.11
328.14	0.11
328.508	0.11
328.875	0.11
329.243	0.11
329.611	0.11
329.979	0.11
330.346	0.11
330.714	0.11
331.082	0.12
331.449	0.11
331.817	0.12
332.185	0.12
332.552	0.12
332.92	0.12
333.287	0.12
333.655	0.12
334.022	0.12
334.389	0.13
334.757	0.13
335.124	0.13
335.491	0.13
335.859	0.13
336.226	0.13
336.593	0.13
336.96	0.13
337.327	0.13
337.695	0.14
338.062	0.14
338.429	0.14
338.796	0.14
339.163	0.15
339.53	0.15
339.897	0.15
340.263	0.15
340.63	0.16
340.997	0.16
341.364	0.16
341.731	0.16
342.097	0.17
342.464	0.17
342.831	0.17
343.197	0.18
343.564	0.18
343.931	0.17
344.297	0.18
344.664	0.18
345.03	0.18
345.396	0.19
345.763	0.19
346.129	0.19
346.496	0.2
346.862	0.2
347.228	0.2
347.594	0.21
347.961	0.21
348.327	0.21
348.693	0.22
349.059	0.21
349.425	0.22
349.791	0.23
350.157	0.23
350.523	0.23
350.889	0.23
351.255	0.24
351.621	0.24
351.987	0.25
352.353	0.26
352.719	0.25
353.084	0.26
353.45	0.27
353.816	0.27
354.181	0.27
354.547	0.28
354.913	0.29
355.278	0.3
355.644	0.3
356.009	0.3
356.375	0.31
356.74	0.32
357.106	0.32
357.471	0.33
357.836	0.34
358.202	0.35
358.567	0.35
358.932	0.36
359.297	0.37
359.663	0.37
360.028	0.38
360.393	0.38
360.758	0.38
361.123	0.39
361.488	0.39
361.853	0.4
362.218	0.4
362.583	0.4
362.948	0.41
363.312	0.41
363.677	0.42
364.042	0.43
364.407	0.43
364.772	0.44
365.136	0.44
365.501	0.46
365.865	0.46
366.23	0.48
366.595	0.48
366.959	0.49
367.324	0.5
367.688	0.51
368.052	0.51
368.417	0.52
368.781	0.53
369.145	0.53
369.51	0.54
369.874	0.54
370.238	0.54
370.602	0.54
370.967	0.54
371.331	0.53
371.695	0.53
372.059	0.53
372.423	0.52
372.787	0.52
373.151	0.52
373.515	0.52
373.878	0.51
374.242	0.52
374.606	0.51
374.97	0.52
375.334	0.52
375.697	0.52
376.061	0.52
376.425	0.52
376.788	0.53
377.152	0.53
377.515	0.54
377.879	0.54
378.242	0.54
378.606	0.55
378.969	0.56
379.333	0.56
379.696	0.57
380.059	0.58
380.422	0.58
380.786	0.59
381.149	0.61
381.512	0.61
381.875	0.63
382.238	0.64
382.601	0.65
382.964	0.67
383.327	0.68
383.69	0.7
384.053	0.71
384.416	0.74
384.779	0.75
385.142	0.77
385.504	0.78
385.867	0.79
386.23	0.79
386.593	0.81
386.955	0.81
387.318	0.81
387.68	0.8
388.043	0.8
388.405	0.79
388.768	0.79
389.13	0.78
389.493	0.78
389.855	0.77
390.217	0.77
390.58	0.77
390.942	0.76
391.304	0.78
391.666	0.78
392.028	0.8
392.391	0.81
392.753	0.83
393.115	0.87
393.477	0.88
393.839	0.91
394.201	0.96
394.563	1
394.924	1.03
395.286	1.06
395.648	1.11
396.01	1.13
396.371	1.16
396.733	1.18
397.095	1.2
397.456	1.21
397.818	1.21
398.18	1.21
398.541	1.17
398.903	1.17
399.264	1.14
399.625	1.11
399.987	1.07
400.348	1.01
400.709	0.97
401.071	0.91
401.432	0.86
401.793	0.81
402.154	0.75
402.515	0.7
402.876	0.66
403.238	0.61
403.599	0.56
403.96	0.53
404.32	0.49
404.681	0.46
405.042	0.42
405.403	0.4
405.764	0.37
406.125	0.34
406.485	0.32
406.846	0.3
407.207	0.29
407.567	0.26
407.928	0.25
408.288	0.23
408.649	0.22
409.009	0.21
409.37	0.2
409.73	0.19
410.091	0.18
410.451	0.17
410.811	0.17
411.171	0.16
411.532	0.15
411.892	0.14
412.252	0.14
412.612	0.14
412.972	0.13
413.332	0.12
413.692	0.12
414.052	0.11
414.412	0.11
414.772	0.11
415.132	0.1
415.492	0.1
415.851	0.1
416.211	0.09
416.571	0.09
416.931	0.09
417.29	0.09
417.65	0.09
418.009	0.08
418.369	0.08
418.728	0.08
419.088	0.08
419.447	0.07
419.807	0.07
420.166	0.08
420.525	0.07
420.884	0.07
421.244	0.08
421.603	0.06
421.962	0.07
422.321	0.07
422.68	0.07
423.039	0.07
423.398	0.06
423.757	0.07
424.116	0.07
424.475	0.06
424.834	0.06
425.193	0.05
425.551	0.06
425.91	0.06
426.269	0.06
426.628	0.05
426.986	0.05
427.345	0.05
427.703	0.05
428.062	0.06
428.42	0.06
428.779	0.06
429.137	0.06
429.496	0.06
429.854	0.05
430.212	0.06
430.57	0.05
430.929	0.05
431.287	0.05
431.645	0.05
432.003	0.04
432.361	0.05
432.719	0.05
433.077	0.05
433.435	0.05
433.793	0.05
434.151	0.04
434.509	0.04
434.866	0.04
435.224	0.04
435.582	0.05
435.94	0.05
436.297	0.05
436.655	0.04
437.012	0.05
437.37	0.04
437.727	0.04
438.085	0.04
438.442	0.05
438.8	0.04
439.157	0.04
439.514	0.05
439.872	0.03
440.229	0.04
440.586	0.04
440.943	0.04
441.3	0.04
441.657	0.04
442.014	0.04
442.371	0.04
442.728	0.04
443.085	0.03
443.442	0.04
443.799	0.04
444.156	0.03
444.513	0.03
444.869	0.03
445.226	0.03
445.583	0.03
445.939	0.03
446.296	0.04
446.652	0.03
447.009	0.04
447.365	0.02
447.722	0.03
448.078	0.02
448.434	0.03
448.791	0.03
449.147	0.02
449.503	0.02
449.859	0.03
450.215	0.02
450.571	0.03
450.928	0.02
451.284	0.02
451.64	0.02
451.995	0.02
452.351	0.02
452.707	0.02
453.063	0.01
453.419	0.02
453.775	0.02
454.13	0.02
454.486	0.02
454.842	0.01
455.197	0.01
455.553	0
455.908	0.01
456.264	0
456.619	0
456.975	0.01
457.33	-0
457.685	-0.01
458.04	-0
458.396	-0
458.751	-0
459.106	-0.01
459.461	-0.01
459.816	-0.01
460.171	-0.02
460.526	-0.02
460.881	-0.02
461.236	-0.03
461.591	-0.01
461.946	-0.03
462.301	-0.02
462.655	-0.02
463.01	-0.02
463.365	-0.03
463.719	-0.03
464.074	-0.04
464.428	-0.05
464.783	-0.04
465.137	-0.05
465.492	-0.04
465.846	-0.04
466.201	-0.04
466.555	-0.04
466.909	-0.04
467.263	-0.04
467.618	-0.04
467.972	-0.04
468.326	-0.05
468.68	-0.05
469.034	-0.05
469.388	-0.04
469.742	-0.04
470.096	-0.05
470.45	-0.05
470.804	-0.04
471.157	-0.04
471.511	-0.04
471.865	-0.04
472.218	-0.04
472.572	-0.04
472.926	-0.03
473.279	-0.03
473.633	-0.03
473.986	-0.02
474.34	-0.03
474.693	-0.02
475.046	-0.02
475.4	-0.02
475.753	-0.01
476.106	-0.01
476.459	-0.01
476.812	0
477.165	0
477.519	0.01
477.872	0
478.224	0.01
478.577	0.01
478.93	0.02
479.283	0.01
479.636	0.02
479.989	0.02
480.341	0.02
480.694	0.03
481.047	0.03
481.399	0.03
481.752	0.03
482.104	0.03
482.457	0.03
482.809	0.04
483.162	0.04
483.514	0.03
483.866	0.04
484.219	0.04
484.571	0.04
484.923	0.04
485.275	0.04
485.627	0.04
485.979	0.05
486.331	0.05
486.683	0.05
487.035	0.05
487.387	0.05
487.739	0.05
488.091	0.06
488.443	0.06
488.794	0.06
489.146	0.06
489.498	0.06
489.849	0.06
490.201	0.06
490.552	0.06
490.904	0.06
491.255	0.06
491.607	0.07
491.958	0.06
492.309	0.07
492.661	0.07
493.012	0.07
493.363	0.07
493.714	0.07
494.065	0.07
494.416	0.07
494.767	0.07
495.118	0.08
495.469	0.08
495.82	0.08
496.171	0.08
496.522	0.08
496.872	0.08
497.223	0.08
497.574	0.09
497.924	0.09
498.275	0.08
498.626	0.09
498.976	0.09
499.327	0.09
499.677	0.09
500.027	0.09
500.378	0.09
500.728	0.1
501.078	0.1
501.428	0.1
501.779	0.1
502.129	0.1
502.479	0.1
502.829	0.11
503.179	0.1
503.529	0.1
503.879	0.11
504.229	0.1
504.578	0.11
504.928	0.1
505.278	0.11
505.628	0.11
505.977	0.11
506.327	0.11
506.676	0.11
507.026	0.12
507.375	0.11
507.725	0.12
508.074	0.11
508.424	0.12
508.773	0.12
509.122	0.12
509.471	0.13
509.82	0.12
510.17	0.12
510.519	0.12
510.868	0.13
511.217	0.12
511.566	0.13
511.915	0.13
512.263	0.13
512.612	0.13
512.961	0.13
513.31	0.14
513.659	0.13
514.007	0.13
514.356	0.14
514.704	0.14
515.053	0.14
515.401	0.14
515.75	0.14
516.098	0.14
516.447	0.14
516.795	0.14
517.143	0.15
517.491	0.15
517.839	0.15
518.188	0.15
518.536	0.15
518.884	0.15
519.232	0.15
519.58	0.15
519.928	0.15
520.275	0.15
520.623	0.16
520.971	0.16
521.319	0.16
521.666	0.16
522.014	0.16
522.362	0.16
522.709	0.17
523.057	0.16
523.404	0.16
523.752	0.17
524.099	0.17
524.446	0.17
524.794	0.17
525.141	0.18
525.488	0.17
525.835	0.17
526.182	0.18
526.529	0.18
526.876	0.18
527.223	0.18
527.57	0.18
527.917	0.19
528.264	0.18
528.611	0.18
528.958	0.18
529.304	0.19
529.651	0.18
529.998	0.19
530.344	0.19
530.691	0.19
531.037	0.19
531.384	0.19
531.73	0.19
532.076	0.19
532.423	0.2
532.769	0.2
533.115	0.2
533.461	0.2
533.807	0.2
534.154	0.2
534.5	0.2
534.846	0.2
535.192	0.21
535.537	0.21
535.883	0.21
536.229	0.21
536.575	0.22
536.921	0.22
537.266	0.21
537.612	0.22
537.957	0.22
538.303	0.22
538.649	0.22
538.994	0.22
539.339	0.23
539.685	0.22
540.03	0.22
540.375	0.23
540.721	0.23
541.066	0.23
541.411	0.24
541.756	0.23
542.101	0.24
542.446	0.24
542.791	0.24
543.136	0.24
543.481	0.24
543.825	0.24
544.17	0.25
544.515	0.25
544.86	0.25
545.204	0.25
545.549	0.25
545.893	0.26
546.238	0.26
546.582	0.25
546.927	0.26
547.271	0.26
547.615	0.26
547.96	0.27
548.304	0.27
548.648	0.27
548.992	0.27
549.336	0.27
549.68	0.27
550.024	0.28
550.368	0.27
550.712	0.28
551.056	0.28
551.4	0.28
551.743	0.28
552.087	0.28
552.431	0.28
552.774	0.29
553.118	0.29
553.462	0.29
553.805	0.28
554.148	0.29
554.492	0.29
554.835	0.29
555.178	0.29
555.522	0.29
555.865	0.29
556.208	0.29
556.551	0.3
556.894	0.3
557.237	0.3
557.58	0.3
557.923	0.3
558.266	0.3
558.609	0.3
558.952	0.3
559.294	0.31
559.637	0.3
559.98	0.3
560.322	0.31
560.665	0.3
561.007	0.31
561.35	0.31
561.692	0.31
562.034	0.31
562.377	0.31
562.719	0.32
563.061	0.31
563.403	0.32
563.745	0.31
564.088	0.31
564.43	0.31
564.772	0.31
565.113	0.31
565.455	0.31
565.797	0.31
566.139	0.32
566.481	0.32
566.822	0.32
567.164	0.32
567.506	0.32
567.847	0.32
568.189	0.32
568.53	0.32
568.872	0.32
569.213	0.32
569.554	0.32
569.895	0.32
570.237	0.32
570.578	0.32
570.919	0.32
571.26	0.32
571.601	0.32
571.942	0.32
572.283	0.32
572.624	0.32
572.965	0.32
573.306	0.32
573.646	0.32
573.987	0.32
574.328	0.32
574.668	0.32
575.009	0.32
575.349	0.32
575.69	0.32
576.03	0.32
576.37	0.32
576.711	0.31
577.051	0.32
577.391	0.32
577.731	0.32
578.072	0.32
578.412	0.32
578.752	0.32
579.092	0.32
579.431	0.31
579.771	0.31
580.111	0.3
580.451	0.31
580.791	0.31
581.13	0.32
581.47	0.32
581.81	0.32
582.149	0.32
582.489	0.32
582.828	0.32
583.167	0.31
583.507	0.29
583.846	0.27
584.185	0.29
584.525	0.31
584.864	0.32
585.203	0.33
585.542	0.33
585.881	0.33
586.22	0.34
586.559	0.34
586.898	0.33
587.236	0.33
587.575	0.32
587.914	0.33
588.252	0.33
588.591	0.34
588.93	0.34
589.268	0.34
589.607	0.34
589.945	0.35
590.283	0.34
590.622	0.34
590.96	0.35
591.298	0.35
591.636	0.35
591.974	0.35
592.313	0.36
592.651	0.36
592.989	0.36
593.326	0.36
593.664	0.37
594.002	0.37
594.34	0.37
594.678	0.36
595.015	0.36
595.353	0.36
595.691	0.36
596.028	0.37
596.366	0.37
596.703	0.38
597.04	0.37
597.378	0.38
597.715	0.38
598.052	0.38
598.389	0.39
598.726	0.39
599.064	0.39
599.401	0.39
599.738	0.39
600.074	0.39
600.411	0.39
600.748	0.38
601.085	0.38
601.422	0.38
601.758	0.38
602.095	0.39
602.432	0.39
602.768	0.38
603.105	0.39
603.441	0.39
603.777	0.39
604.114	0.39
604.45	0.4
604.786	0.4
605.122	0.4
605.459	0.39
605.795	0.39
606.131	0.39
606.467	0.39
606.803	0.39
607.139	0.39
607.474	0.39
607.81	0.39
608.146	0.39
608.482	0.39
608.817	0.39
609.153	0.38
609.488	0.38
609.824	0.38
610.159	0.38
610.495	0.38
610.83	0.38
611.165	0.38
611.5	0.38
611.836	0.38
612.171	0.38
612.506	0.38
612.841	0.38
613.176	0.38
613.511	0.38
613.845	0.38
614.18	0.37
614.515	0.38
614.85	0.37
615.184	0.37
615.519	0.37
615.854	0.37
616.188	0.37
616.523	0.37
616.857	0.37
617.191	0.36
617.526	0.36
617.86	0.36
618.194	0.36
618.528	0.36
618.862	0.36
619.196	0.36
619.53	0.36
619.864	0.36
620.198	0.35
620.532	0.35
620.866	0.35
621.2	0.35
621.533	0.34
621.867	0.35
622.201	0.35
622.534	0.34
622.868	0.35
623.201	0.34
623.534	0.34
623.868	0.34
624.201	0.34
624.534	0.34
624.868	0.34
625.201	0.34
625.534	0.34
625.867	0.33
626.2	0.33
626.533	0.33
626.865	0.33
627.198	0.33
627.531	0.33
627.864	0.33
628.196	0.32
628.529	0.32
628.862	0.32
629.194	0.32
629.527	0.31
629.859	0.31
630.191	0.31
630.524	0.31
630.856	0.31
631.188	0.31
631.52	0.31
631.852	0.31
632.184	0.3
632.516	0.3
632.848	0.3
633.18	0.3
633.512	0.29
633.844	0.29
634.175	0.29
634.507	0.28
634.839	0.28
635.17	0.28
635.502	0.28
635.833	0.28
636.165	0.28
636.496	0.28
636.827	0.27
637.159	0.27
637.49	0.27
637.821	0.27
638.152	0.27
638.483	0.26
638.814	0.26
639.145	0.26
639.476	0.26
639.807	0.25
640.137	0.25
640.468	0.25
640.799	0.25
641.129	0.25
641.46	0.24
641.791	0.24
642.121	0.24
642.451	0.24
642.782	0.23
643.112	0.23
643.442	0.23
643.773	0.23
644.103	0.23
644.433	0.23
644.763	0.23
645.093	0.22
645.423	0.22
645.753	0.22
646.082	0.22
646.412	0.22
646.742	0.22
647.072	0.22
647.401	0.22
647.731	0.22
648.06	0.22
648.39	0.21
648.719	0.21
649.048	0.21
649.378	0.21
649.707	0.21
650.036	0.21
650.365	0.21
650.694	0.2
651.023	0.21
651.352	0.21
651.681	0.21
652.01	0.21
652.339	0.21
652.668	0.21
652.996	0.21
653.325	0.21
653.654	0.21
653.982	0.21
654.311	0.21
654.639	0.2
654.967	0.21
655.296	0.2
655.624	0.2
655.952	0.2
656.28	0.2
656.609	0.2
656.937	0.2
657.265	0.21
657.593	0.18
657.92	0.05
658.248	0.01
658.576	0.01
658.904	0.07
659.231	0.16
659.559	0.2
659.887	0.2
660.214	0.2
660.542	0.2
660.869	0.2
661.196	0.2
661.524	0.2
661.851	0.2
662.178	0.2
662.505	0.19
662.832	0.19
663.159	0.19
663.486	0.19
663.813	0.19
664.14	0.2
664.467	0.2
664.794	0.19
665.12	0.19
665.447	0.2
665.774	0.19
666.1	0.19
666.427	0.19
666.753	0.19
667.079	0.19
667.406	0.19
667.732	0.19
668.058	0.19
668.384	0.19
668.71	0.19
669.036	0.19
669.362	0.19
669.688	0.19
670.014	0.19
670.34	0.19
670.666	0.19
670.991	0.18
671.317	0.18
671.643	0.18
671.968	0.18
672.294	0.18
672.619	0.18
672.945	0.18
673.27	0.18
673.595	0.18
673.92	0.18
674.246	0.17
674.571	0.17
674.896	0.17
675.221	0.17
675.546	0.17
675.87	0.17
676.195	0.17
676.52	0.16
676.845	0.17
677.169	0.16
677.494	0.17
677.819	0.16
678.143	0.16
678.468	0.16
678.792	0.16
679.116	0.16
679.44	0.16
679.765	0.15
680.089	0.15
680.413	0.15
680.737	0.15
681.061	0.15
681.385	0.15
681.709	0.14
682.033	0.14
682.356	0.14
682.68	0.14
683.004	0.14
683.327	0.14
683.651	0.13
683.974	0.13
684.298	0.14
684.621	0.13
684.944	0.13
685.268	0.13
685.591	0.13
685.914	0.12
686.237	0.13
686.56	0.12
686.883	0.12
687.206	0.12
687.529	0.12
687.852	0.11
688.175	0.11
688.497	0.11
688.82	0.11
689.142	0.11
689.465	0.11
689.787	0.11
690.11	0.11
690.432	0.11
690.755	0.1
691.077	0.11
691.399	0.1
691.721	0.11
692.043	0.1
692.365	0.1
692.687	0.1
693.009	0.1
693.331	0.1
693.653	0.09
693.974	0.1
694.296	0.09
694.618	0.09
694.939	0.09
695.261	0.09
695.582	0.09
695.904	0.09
696.225	0.09
696.546	0.09
696.868	0.08
697.189	0.08
697.51	0.08
697.831	0.08
698.152	0.08
698.473	0.09
698.794	0.08
699.114	0.08
699.435	0.08
699.756	0.08
700.077	0.08
700.397	0.08
700.718	0.08
701.038	0.08
701.359	0.08
701.679	0.08
701.999	0.07
702.32	0.08
702.64	0.08
702.96	0.08
703.28	0.08
703.6	0.08
703.92	0.07
704.24	0.07
704.56	0.07
704.879	0.07
705.199	0.07
705.519	0.07
705.838	0.06
706.158	0.07
706.478	0.07
706.797	0.07
707.116	0.07
707.436	0.07
707.755	0.07
708.074	0.07
708.393	0.07
708.712	0.07
709.031	0.07
709.35	0.06
709.669	0.06
709.988	0.06
710.307	0.06
710.626	0.06
710.944	0.06
711.263	0.06
711.582	0.06
711.9	0.06
712.219	0.06
712.537	0.06
712.855	0.06
713.174	0.06
713.492	0.06
713.81	0.06
714.128	0.06
714.446	0.06
714.764	0.06
715.082	0.05
715.4	0.06
715.718	0.05
716.035	0.05
716.353	0.05
716.671	0.05
716.988	0.06
717.306	0.06
717.623	0.06
717.941	0.06
718.258	0.06
718.575	0.07
718.893	0.06
719.21	0.06
719.527	0.06
719.844	0.07
720.161	0.06
720.478	0.07
720.795	0.07
721.112	0.06
721.428	0.06
721.745	0.06
722.062	0.06
722.378	0.07
722.695	0.07
723.011	0.07
723.328	0.07
723.644	0.07
723.96	0.06
724.276	0.07
724.593	0.06
724.909	0.07
725.225	0.07
725.541	0.07
725.857	0.07
726.173	0.07
726.488	0.07
726.804	0.07
727.12	0.07
727.435	0.07
727.751	0.07
728.067	0.07
728.382	0.07
728.697	0.07
729.013	0.07
729.328	0.07
729.643	0.07
729.958	0.07
730.273	0.07
730.588	0.07
730.903	0.07
731.218	0.07
731.533	0.07
731.848	0.07
732.163	0.07
732.477	0.07
732.792	0.07
733.107	0.07
733.421	0.07
733.736	0.07
734.05	0.07
734.364	0.08
734.678	0.08
734.993	0.07
735.307	0.08
735.621	0.07
735.935	0.07
736.249	0.07
736.563	0.07
736.877	0.07
737.19	0.07
737.504	0.07
737.818	0.07
738.131	0.07
738.445	0.06
738.758	0.07
739.072	0.07
739.385	0.07
739.698	0.07
740.012	0.07
740.325	0.07
740.638	0.06
740.951	0.07
741.264	0.06
741.577	0.06
741.89	0.07
742.203	0.07
742.515	0.07
742.828	0.07
743.141	0.07
743.453	0.07
743.766	0.07
744.078	0.07
744.391	0.07
744.703	0.07
745.015	0.06
745.327	0.06
745.639	0.06
745.952	0.06
746.264	0.06
746.575	0.06
746.887	0.06
747.199	0.06
747.511	0.06
747.823	0.06
748.134	0.06
748.446	0.06
748.757	0.06
749.069	0.05
749.38	0.05
749.692	0.06
750.003	0.05
750.314	0.05
750.625	0.05
750.936	0.05
751.248	0.05
751.559	0.05
751.869	0.05
752.18	0.05
752.491	0.05
752.802	0.05
753.112	0.05
753.423	0.05
753.734	0.05
754.044	0.05
754.355	0.05
754.665	0.04
754.975	0.04
755.285	0.04
755.596	0.04
755.906	0.04
756.216	0.04
756.526	0.04
756.836	0.03
757.146	0.04
757.455	0.04
757.765	0.04
758.075	0.04
758.385	0.04
758.694	0.03
759.004	0.04
759.313	0.04
759.622	0.03
759.932	0.04
760.241	0.03
760.55	0.04
760.859	0.03
761.168	0.03
761.477	0.03
761.786	0.03
762.095	0.03
762.404	0.03
762.713	0.03
763.021	0.03
763.33	0.03
763.639	0.03
763.947	0.03
764.256	0.02
764.564	0.03
764.872	0.02
765.181	0.03
765.489	0.03
765.797	0.03
766.105	0.03
766.413	0.02
766.721	0.03
767.029	0.02
767.337	0.03
767.644	0.03
767.952	0.03
768.26	0.03
768.567	0.03
768.875	0.03
769.182	0.02
769.49	0.02
769.797	0.02
770.104	0.02
770.411	0.02
770.718	0.02
771.026	0.02
771.333	0.02
771.639	0.02
771.946	0.02
772.253	0.02
772.56	0.02
772.867	0.02
773.173	0.02
773.48	0.02
773.786	0.02
774.093	0.01
774.399	0.02
774.705	0.01
775.012	0.01
775.318	0.01
775.624	0.01
775.93	0.01
776.236	0.02
776.542	0.02
776.848	0.02
777.154	0.02
777.459	0.02
777.765	0.02
778.071	0.02
778.376	0.02
778.682	0.02
778.987	0.01
779.292	0.01
779.598	0.02
779.903	0.02
780.208	0.02
780.513	0.02
780.818	0.01
781.123	0.02
781.428	0.02
781.733	0.02
782.038	0.02
782.343	0.02
782.647	0.02
782.952	0.02
783.256	0.02
783.561	0.02
783.865	0.02
784.17	0.02
784.474	0.02
784.778	0.02
785.082	0.02
785.386	0.02
785.69	0.02
785.994	0.02
786.298	0.02
786.602	0.02
786.906	0.01
787.209	0.01
787.513	0.02
787.817	0.02
788.12	0.02
788.424	0.02
788.727	0.02
789.03	0.02
789.333	0.02
789.637	0.02
789.94	0.02
790.243	0.02
790.546	0.02
790.849	0.02
791.152	0.02
791.454	0.02
791.757	0.02
792.06	0.02
792.362	0.02
792.665	0.02
792.967	0.02
793.27	0.02
793.572	0.01
793.874	0.01
794.177	0.02
794.479	0.01
794.781	0.02
795.083	0.02
795.385	0.02
795.687	0.02
795.989	0.02
796.29	0.02
796.592	0.02
796.894	0.02
797.195	0.02
797.497	0.02
797.798	0.02
798.1	0.02
798.401	0.02
798.702	0.02
799.003	0.02
799.304	0.02
799.605	0.02
799.906	0.02
800.207	0.02
800.508	0.02
800.809	0.02
801.11	0.02
801.41	0.02
801.711	0.02
802.011	0.02
802.312	0.02
802.612	0.02
802.913	0.02
803.213	0.03
803.513	0.02
803.813	0.03
804.113	0.03
804.413	0.03
804.713	0.03
805.013	0.03
805.313	0.03
805.613	0.03
805.912	0.03
806.212	0.03
806.511	0.02
806.811	0.02
807.11	0.03
807.41	0.03
807.709	0.02
808.008	0.02
808.307	0.02
808.606	0.02
808.905	0.02
809.204	0.02
809.503	0.02
809.802	0.02
810.101	0.02
810.399	0.02
810.698	0.02
810.997	0.02
811.295	0.02
811.593	0.02
811.892	0.02
812.19	0.02
812.488	0.02
812.786	0.02
813.084	0.02
813.383	0.02
813.68	0.02
813.978	0.02
814.276	0.01
814.574	0.01
814.872	0.01
815.169	0.02
815.467	0.02
815.764	0.02
816.062	0.02
816.359	0.02
816.656	0.02
816.954	0.01
817.251	0.01
817.548	0.01
817.845	0.02
818.142	0.02
818.439	0.02
818.735	0.02
819.032	0.01
819.329	0.02
819.626	0.02
819.922	0.02
820.219	0.02
820.515	0.02
820.811	0.01
821.108	0.01
821.404	0.01
821.7	0.01
821.996	0.01
822.292	0.01
822.588	0.02
822.884	0.02
823.18	0.01
823.475	0.01
823.771	0.02
824.067	0.02
824.362	0.02
824.658	0.02
824.953	0.03
825.249	0.02
825.544	0.03
825.839	0.02
826.134	0.03
826.429	0.02
826.724	0.02
827.019	0.02
827.314	0.02
827.609	0.02
827.904	0.02
828.198	0.01
828.493	0.02
828.787	0.02
829.082	0.01
829.376	0.02
829.671	0.01
829.965	0.02
830.259	0.01
830.553	0.02
830.847	0.02
831.141	0.02
831.435	0.02
831.729	0.02
832.023	0.03
832.317	0.03
832.61	0.02
832.904	0.01
833.197	0.02
833.491	0.03
833.784	0.02
834.077	0.02
834.371	0.03
834.664	0.02
834.957	0.02
835.25	0.02
835.543	0.02
835.836	0.02
836.129	0.03
836.421	0.03
836.714	0.02
837.007	0.02
837.299	0.03
837.592	0.03
837.884	0.03
838.177	0.03
838.469	0.02
838.761	0.03
839.053	0.02
839.345	0.02
839.637	0.03
839.929	0.03
840.221	0.03
840.513	0.03
840.805	0.03
841.096	0.03
841.388	0.02
841.68	0.02
841.971	0.02
842.262	0.03
842.554	0.02
842.845	0.02
843.136	0.02
843.427	0.02
843.718	0.02
844.009	0.02
844.3	0.02
844.591	0.02
844.882	0.02
845.173	0.02
845.463	0.01
845.754	0.02
846.044	0.01
846.335	0.01
846.625	0.02
846.915	0.02
847.206	0.03
847.496	0.03
847.786	0.02
848.076	0.03
848.366	0.02
848.656	0.03
848.945	0.03
849.235	0.03
849.525	0.03
849.814	0.03
850.104	0.03
850.393	0.02
850.683	0.03
850.972	0.02
851.261	0.02
851.551	0.03
851.84	0.02
852.129	0.01
852.418	0.02
852.707	0.01
852.995	0.02
853.284	0.01
853.573	0.02
853.862	0.01
854.15	0
854.439	0.02
854.727	0.01
855.015	0.03
855.304	0.03
855.592	0.03
855.88	0.03
856.168	0.02
856.456	0.02
856.744	0.01
857.032	0.03
857.32	0.02
857.607	0.03
857.895	0.03
858.183	0.03
858.47	0.02
858.757	0.02
859.045	0.03
859.332	0.03
859.619	0.02
859.907	0.03
860.194	0.03
860.481	0.03
860.768	0.03
861.054	0.03
861.341	0.04
861.628	0.03
861.915	0.01
862.201	0.03
862.488	-0
862.774	0.02
863.061	-0
863.347	0.01
863.633	0.03
863.919	0.04
864.205	0.03
864.491	0.04
864.777	0.04
865.063	0.03
865.349	0.02
865.635	-0.02
865.92	0.01
866.206	0.04
866.492	0.03
866.777	0.01
867.062	-0
867.348	-0
867.633	0
867.918	-0.01
868.203	0.04
868.488	0.03
868.773	0.01
869.058	0.02
869.343	0.03
869.628	0.03
869.912	0
870.197	-0
870.482	0.04
870.766	0.03
871.05	0.01
871.335	0.03
871.619	0.04
871.903	0.02
872.187	0
872.471	0.03
872.755	-0.01
873.039	0.06
873.323	0.02
873.607	0.03
873.89	0
874.174	0.01
874.458	0.03
874.741	0.03
875.024	-0.02
875.308	-0.04
875.591	-0.07
875.874	-0.06
876.157	0.1
876.44	-0.03
876.723	0.01
877.006	0.08
877.289	0.04
877.572	-0
877.854	0.02
878.137	0.15
878.42	0.03
878.702	-0.01
878.984	-0.02
879.267	-0
879.549	0.16
879.831	0.03
880.113	0.03
880.395	-0.02
880.677	0.07
880.959	-0.03
