Data from Rubpy_EV_1500_EDTA_Buffered_Absorbance_15-02-05-857.txt Node
Date: Tue Jun 30 15:02:05 BST 2026
User: fpm-admin
Spectrometer: OFX00224
Trigger mode: 0
Integration Time (sec): 7.000000E-2
Scans to average: 3
Nonlinearity correction enabled: false
Boxcar width: 0
Storing dark spectrum: false
XAxis mode: Wavelengths
Number of Pixels in Spectrum: 2136
>>>>>Begin Spectral Data<<<<<
154.91	0.11
155.289	-0
155.669	-0
156.048	-0
156.428	0.15
156.807	0.53
157.186	-0.71
157.566	-0.26
157.945	-0.2
158.325	-1.2
158.704	-1.41
159.083	0.02
159.462	-0
159.842	-0.56
160.221	-0
160.6	0.56
160.979	1.02
161.359	-0.53
161.738	-0
162.117	-0.35
162.496	1.32
162.875	-0.27
163.254	-0
163.633	-0.1
164.012	-0
164.391	-0
164.77	0.27
165.149	-0
165.528	-0.37
165.907	-0
166.286	-0.64
166.665	-0
167.044	0.17
167.423	-0
167.802	-0
168.181	0.12
168.559	0.13
168.938	0.06
169.317	-0
169.696	0.24
170.074	0.29
170.453	-0.44
170.832	-0
171.21	-0.28
171.589	-0
171.968	0.87
172.346	-0.54
172.725	-0.7
173.103	0.64
173.482	-0.48
173.861	-0.07
174.239	-0.24
174.617	1.28
174.996	-0.66
175.374	0.4
175.753	-0.12
176.131	0.25
176.51	0.2
176.888	0.02
177.266	-0
177.645	-0.02
178.023	-0
178.401	-0.23
178.779	-0.15
179.158	-0.22
179.536	-0
179.914	-0.21
180.292	-0
180.67	-0.15
181.048	-0
181.427	-0.11
181.805	0.12
182.183	-0.02
182.561	1.12
182.939	-0
183.317	-0
183.695	-0
184.073	-0.41
184.451	0.21
184.829	-0.38
185.206	-0.16
185.584	-0
185.962	-0.32
186.34	-0.29
186.718	-0
187.096	-0
187.473	-0
187.851	0.03
188.229	-0.08
188.607	0.41
188.984	0.29
189.362	0.16
189.74	0.16
190.117	0.21
190.495	0.19
190.872	0.06
191.25	0.16
191.627	0.21
192.005	0.12
192.382	0.3
192.76	0.13
193.137	0.12
193.515	0.26
193.892	0.16
194.269	0.25
194.647	0.24
195.024	0.21
195.401	0.19
195.779	0.24
196.156	0.25
196.533	0.25
196.91	0.09
197.288	0.21
197.665	0.18
198.042	0.12
198.419	0.2
198.796	0.38
199.173	0.16
199.55	0.23
199.927	0.21
200.304	0.13
200.681	0.13
201.058	0.15
201.435	0.12
201.812	0.17
202.189	0.14
202.566	0.35
202.943	0.15
203.32	0.29
203.697	0.19
204.073	0.2
204.45	0.12
204.827	0.21
205.204	0.27
205.58	0.15
205.957	0.18
206.334	0.33
206.71	0.2
207.087	0.21
207.464	0.27
207.84	0.17
208.217	0.13
208.593	0.26
208.97	0.26
209.346	0.31
209.723	0.23
210.099	0.19
210.476	0.33
210.852	0.19
211.228	0.16
211.605	0.18
211.981	0.21
212.357	0.24
212.733	0.11
213.11	0.3
213.486	0.16
213.862	0.22
214.238	0.13
214.614	0.27
214.991	0.29
215.367	0.31
215.743	0.18
216.119	0.27
216.495	0.13
216.871	0.15
217.247	0.36
217.623	0.23
217.999	0.14
218.375	0.3
218.751	0.23
219.127	0.24
219.502	0.22
219.878	0.14
220.254	0.23
220.63	0.19
221.006	0.22
221.381	0.22
221.757	0.14
222.133	0.38
222.508	0.15
222.884	0.21
223.26	0.25
223.635	0.21
224.011	0.23
224.386	0.22
224.762	0.22
225.137	0.15
225.513	0.2
225.888	0.16
226.264	0.12
226.639	0.18
227.014	0.3
227.39	0.34
227.765	0.32
228.14	0.17
228.516	0.26
228.891	0.3
229.266	0.21
229.641	0.17
230.017	0.29
230.392	0.2
230.767	0.2
231.142	0.29
231.517	0.27
231.892	0.32
232.267	0.22
232.642	0.26
233.017	0.17
233.392	0.26
233.767	0.37
234.142	0.22
234.517	0.12
234.892	0.17
235.267	0.22
235.641	0.18
236.016	0.17
236.391	0.05
236.766	0.21
237.14	0.19
237.515	0.19
237.89	0.35
238.264	0.16
238.639	0.3
239.014	0.23
239.388	0.17
239.763	0.23
240.137	0.15
240.512	0.22
240.886	0.2
241.261	0.23
241.635	0.3
242.009	0.17
242.384	0.2
242.758	0.23
243.132	0.23
243.507	0.25
243.881	0.24
244.255	0.25
244.629	0.25
245.004	0.32
245.378	0.24
245.752	0.15
246.126	0.23
246.5	0.22
246.874	0.23
247.248	0.14
247.622	0.29
247.996	0.27
248.37	0.16
248.744	0.24
249.118	0.21
249.492	0.29
249.866	0.21
250.24	0.28
250.613	0.17
250.987	0.19
251.361	0.14
251.735	0.26
252.108	0.16
252.482	0.17
252.856	0.15
253.229	0.2
253.603	0.21
253.977	0.22
254.35	0.17
254.724	0.17
255.097	0.17
255.471	0.19
255.844	0.24
256.218	0.2
256.591	0.17
256.964	0.23
257.338	0.33
257.711	0.15
258.084	0.27
258.458	0.27
258.831	0.22
259.204	0.16
259.577	0.25
259.95	0.22
260.323	0.22
260.697	0.21
261.07	0.3
261.443	0.2
261.816	0.18
262.189	0.2
262.562	0.3
262.935	0.13
263.308	0.23
263.68	0.24
264.053	0.33
264.426	0.17
264.799	0.21
265.172	0.25
265.545	0.37
265.917	0.16
266.29	0.2
266.663	0.27
267.035	0.2
267.408	0.18
267.781	0.22
268.153	0.19
268.526	0.25
268.898	0.22
269.271	0.23
269.643	0.19
270.016	0.23
270.388	0.27
270.76	0.21
271.133	0.16
271.505	0.28
271.877	0.19
272.25	0.25
272.622	0.21
272.994	0.14
273.366	0.24
273.739	0.28
274.111	0.21
274.483	0.16
274.855	0.25
275.227	0.2
275.599	0.24
275.971	0.28
276.343	0.23
276.715	0.17
277.087	0.22
277.459	0.22
277.831	0.18
278.203	0.23
278.574	0.3
278.946	0.2
279.318	0.18
279.69	0.2
280.061	0.25
280.433	0.29
280.805	0.21
281.176	0.18
281.548	0.19
281.92	0.3
282.291	0.16
282.663	0.24
283.034	0.25
283.406	0.22
283.777	0.23
284.148	0.21
284.52	0.27
284.891	0.24
285.262	0.2
285.634	0.29
286.005	0.24
286.376	0.2
286.747	0.23
287.119	0.22
287.49	0.14
287.861	0.19
288.232	0.16
288.603	0.23
288.974	0.21
289.345	0.18
289.716	0.28
290.087	0.17
290.458	0.24
290.829	0.24
291.2	0.19
291.571	0.21
291.941	0.19
292.312	0.21
292.683	0.27
293.054	0.32
293.424	0.15
293.795	0.18
294.166	0.18
294.536	0.18
294.907	0.17
295.277	0.23
295.648	0.19
296.018	0.25
296.389	0.2
296.759	0.2
297.13	0.28
297.5	0.19
297.871	0.24
298.241	0.19
298.611	0.2
298.981	0.14
299.352	0.19
299.722	0.2
300.092	0.16
300.462	0.21
300.832	0.19
301.202	0.17
301.573	0.19
301.943	0.2
302.313	0.17
302.683	0.16
303.053	0.17
303.422	0.16
303.792	0.16
304.162	0.17
304.532	0.17
304.902	0.16
305.272	0.16
305.641	0.18
306.011	0.17
306.381	0.16
306.75	0.16
307.12	0.17
307.49	0.17
307.859	0.17
308.229	0.17
308.598	0.18
308.968	0.17
309.337	0.18
309.707	0.18
310.076	0.18
310.445	0.19
310.815	0.18
311.184	0.18
311.553	0.19
311.923	0.18
312.292	0.19
312.661	0.2
313.03	0.19
313.399	0.2
313.768	0.19
314.137	0.19
314.506	0.2
314.875	0.19
315.244	0.19
315.613	0.19
315.982	0.19
316.351	0.19
316.72	0.18
317.089	0.18
317.458	0.18
317.826	0.19
318.195	0.18
318.564	0.18
318.933	0.18
319.301	0.17
319.67	0.17
320.038	0.17
320.407	0.16
320.775	0.17
321.144	0.17
321.512	0.16
321.881	0.17
322.249	0.16
322.618	0.17
322.986	0.16
323.354	0.16
323.723	0.16
324.091	0.16
324.459	0.15
324.827	0.16
325.195	0.16
325.564	0.15
325.932	0.15
326.3	0.15
326.668	0.16
327.036	0.15
327.404	0.15
327.772	0.15
328.14	0.16
328.508	0.15
328.875	0.15
329.243	0.15
329.611	0.17
329.979	0.16
330.346	0.16
330.714	0.15
331.082	0.15
331.449	0.16
331.817	0.16
332.185	0.16
332.552	0.17
332.92	0.16
333.287	0.16
333.655	0.17
334.022	0.17
334.389	0.17
334.757	0.17
335.124	0.18
335.491	0.17
335.859	0.17
336.226	0.18
336.593	0.18
336.96	0.18
337.327	0.19
337.695	0.18
338.062	0.19
338.429	0.19
338.796	0.2
339.163	0.2
339.53	0.2
339.897	0.2
340.263	0.21
340.63	0.21
340.997	0.21
341.364	0.22
341.731	0.23
342.097	0.22
342.464	0.23
342.831	0.24
343.197	0.24
343.564	0.24
343.931	0.24
344.297	0.25
344.664	0.25
345.03	0.25
345.396	0.26
345.763	0.26
346.129	0.27
346.496	0.27
346.862	0.27
347.228	0.28
347.594	0.29
347.961	0.28
348.327	0.29
348.693	0.3
349.059	0.3
349.425	0.31
349.791	0.31
350.157	0.31
350.523	0.32
350.889	0.33
351.255	0.34
351.621	0.34
351.987	0.35
352.353	0.35
352.719	0.36
353.084	0.37
353.45	0.38
353.816	0.38
354.181	0.38
354.547	0.39
354.913	0.41
355.278	0.41
355.644	0.42
356.009	0.43
356.375	0.44
356.74	0.45
357.106	0.46
357.471	0.47
357.836	0.48
358.202	0.48
358.567	0.49
358.932	0.5
359.297	0.51
359.663	0.51
360.028	0.53
360.393	0.53
360.758	0.54
361.123	0.55
361.488	0.55
361.853	0.57
362.218	0.56
362.583	0.58
362.948	0.58
363.312	0.58
363.677	0.59
364.042	0.61
364.407	0.61
364.772	0.62
365.136	0.63
365.501	0.64
365.865	0.66
366.23	0.68
366.595	0.69
366.959	0.69
367.324	0.71
367.688	0.72
368.052	0.74
368.417	0.74
368.781	0.76
369.145	0.77
369.51	0.77
369.874	0.78
370.238	0.77
370.602	0.78
370.967	0.78
371.331	0.76
371.695	0.76
372.059	0.76
372.423	0.76
372.787	0.75
373.151	0.76
373.515	0.76
373.878	0.75
374.242	0.75
374.606	0.74
374.97	0.75
375.334	0.75
375.697	0.75
376.061	0.76
376.425	0.76
376.788	0.76
377.152	0.77
377.515	0.78
377.879	0.79
378.242	0.79
378.606	0.8
378.969	0.82
379.333	0.81
379.696	0.84
380.059	0.84
380.422	0.86
380.786	0.87
381.149	0.89
381.512	0.9
381.875	0.92
382.238	0.94
382.601	0.96
382.964	0.99
383.327	1.01
383.69	1.03
384.053	1.05
384.416	1.09
384.779	1.1
385.142	1.13
385.504	1.14
385.867	1.18
386.23	1.17
386.593	1.19
386.955	1.19
387.318	1.19
387.68	1.18
388.043	1.18
388.405	1.17
388.768	1.17
389.13	1.16
389.493	1.14
389.855	1.14
390.217	1.14
390.58	1.13
390.942	1.13
391.304	1.15
391.666	1.17
392.028	1.19
392.391	1.19
392.753	1.23
393.115	1.29
393.477	1.3
393.839	1.35
394.201	1.39
394.563	1.44
394.924	1.51
395.286	1.53
395.648	1.57
396.01	1.62
396.371	1.63
396.733	1.67
397.095	1.69
397.456	1.71
397.818	1.67
398.18	1.67
398.541	1.67
398.903	1.67
399.264	1.62
399.625	1.55
399.987	1.54
400.348	1.48
400.709	1.4
401.071	1.35
401.432	1.27
401.793	1.19
402.154	1.12
402.515	1.05
402.876	0.98
403.238	0.91
403.599	0.85
403.96	0.79
404.32	0.73
404.681	0.68
405.042	0.63
405.403	0.59
405.764	0.55
406.125	0.51
406.485	0.48
406.846	0.45
407.207	0.42
407.567	0.39
407.928	0.37
408.288	0.35
408.649	0.33
409.009	0.31
409.37	0.3
409.73	0.29
410.091	0.27
410.451	0.25
410.811	0.24
411.171	0.23
411.532	0.22
411.892	0.21
412.252	0.21
412.612	0.2
412.972	0.19
413.332	0.18
413.692	0.18
414.052	0.17
414.412	0.16
414.772	0.17
415.132	0.15
415.492	0.15
415.851	0.15
416.211	0.14
416.571	0.14
416.931	0.14
417.29	0.13
417.65	0.13
418.009	0.12
418.369	0.12
418.728	0.12
419.088	0.12
419.447	0.11
419.807	0.11
420.166	0.12
420.525	0.11
420.884	0.1
421.244	0.1
421.603	0.1
421.962	0.1
422.321	0.1
422.68	0.09
423.039	0.09
423.398	0.09
423.757	0.1
424.116	0.1
424.475	0.09
424.834	0.09
425.193	0.09
425.551	0.08
425.91	0.09
426.269	0.08
426.628	0.08
426.986	0.08
427.345	0.08
427.703	0.08
428.062	0.08
428.42	0.08
428.779	0.08
429.137	0.08
429.496	0.08
429.854	0.07
430.212	0.08
430.57	0.07
430.929	0.07
431.287	0.08
431.645	0.07
432.003	0.06
432.361	0.07
432.719	0.07
433.077	0.07
433.435	0.07
433.793	0.07
434.151	0.06
434.509	0.06
434.866	0.07
435.224	0.07
435.582	0.07
435.94	0.07
436.297	0.07
436.655	0.07
437.012	0.06
437.37	0.07
437.727	0.07
438.085	0.06
438.442	0.07
438.8	0.06
439.157	0.05
439.514	0.06
439.872	0.05
440.229	0.06
440.586	0.06
440.943	0.06
441.3	0.06
441.657	0.06
442.014	0.06
442.371	0.06
442.728	0.05
443.085	0.05
443.442	0.06
443.799	0.05
444.156	0.04
444.513	0.05
444.869	0.04
445.226	0.05
445.583	0.05
445.939	0.05
446.296	0.04
446.652	0.04
447.009	0.05
447.365	0.04
447.722	0.04
448.078	0.05
448.434	0.04
448.791	0.04
449.147	0.04
449.503	0.03
449.859	0.04
450.215	0.04
450.571	0.04
450.928	0.04
451.284	0.03
451.64	0.03
451.995	0.04
452.351	0.03
452.707	0.03
453.063	0.03
453.419	0.03
453.775	0.03
454.13	0.03
454.486	0.03
454.842	0.02
455.197	0.03
455.553	0.01
455.908	0.02
456.264	0.01
456.619	0.02
456.975	0.02
457.33	0.01
457.685	0.01
458.04	0.01
458.396	0.01
458.751	0.01
459.106	0
459.461	0
459.816	0
460.171	-0.01
460.526	0
460.881	0
461.236	-0.01
461.591	-0
461.946	-0.02
462.301	-0.01
462.655	-0.01
463.01	-0.01
463.365	-0.02
463.719	-0.02
464.074	-0.03
464.428	-0.04
464.783	-0.03
465.137	-0.03
465.492	-0.03
465.846	-0.03
466.201	-0.03
466.555	-0.03
466.909	-0.03
467.263	-0.03
467.618	-0.03
467.972	-0.03
468.326	-0.03
468.68	-0.04
469.034	-0.04
469.388	-0.04
469.742	-0.03
470.096	-0.04
470.45	-0.03
470.804	-0.03
471.157	-0.04
471.511	-0.03
471.865	-0.03
472.218	-0.03
472.572	-0.03
472.926	-0.02
473.279	-0.02
473.633	-0.02
473.986	-0.01
474.34	-0.01
474.693	-0
475.046	-0.01
475.4	-0
475.753	0
476.106	0
476.459	0.01
476.812	0.02
477.165	0.01
477.519	0.02
477.872	0.02
478.224	0.03
478.577	0.02
478.93	0.03
479.283	0.03
479.636	0.03
479.989	0.04
480.341	0.04
480.694	0.04
481.047	0.04
481.399	0.05
481.752	0.05
482.104	0.05
482.457	0.05
482.809	0.05
483.162	0.06
483.514	0.06
483.866	0.06
484.219	0.06
484.571	0.06
484.923	0.06
485.275	0.06
485.627	0.06
485.979	0.07
486.331	0.07
486.683	0.08
487.035	0.07
487.387	0.08
487.739	0.08
488.091	0.08
488.443	0.08
488.794	0.08
489.146	0.08
489.498	0.08
489.849	0.08
490.201	0.08
490.552	0.09
490.904	0.09
491.255	0.09
491.607	0.09
491.958	0.09
492.309	0.09
492.661	0.09
493.012	0.1
493.363	0.1
493.714	0.1
494.065	0.1
494.416	0.1
494.767	0.1
495.118	0.11
495.469	0.11
495.82	0.11
496.171	0.11
496.522	0.11
496.872	0.11
497.223	0.11
497.574	0.11
497.924	0.12
498.275	0.12
498.626	0.12
498.976	0.12
499.327	0.12
499.677	0.12
500.027	0.13
500.378	0.13
500.728	0.13
501.078	0.13
501.428	0.13
501.779	0.13
502.129	0.14
502.479	0.14
502.829	0.14
503.179	0.14
503.529	0.14
503.879	0.14
504.229	0.14
504.578	0.15
504.928	0.15
505.278	0.15
505.628	0.15
505.977	0.15
506.327	0.15
506.676	0.16
507.026	0.16
507.375	0.16
507.725	0.16
508.074	0.16
508.424	0.16
508.773	0.16
509.122	0.17
509.471	0.17
509.82	0.17
510.17	0.17
510.519	0.17
510.868	0.17
511.217	0.18
511.566	0.18
511.915	0.18
512.263	0.18
512.612	0.18
512.961	0.18
513.31	0.18
513.659	0.18
514.007	0.19
514.356	0.19
514.704	0.19
515.053	0.19
515.401	0.19
515.75	0.2
516.098	0.2
516.447	0.2
516.795	0.2
517.143	0.2
517.491	0.2
517.839	0.21
518.188	0.21
518.536	0.21
518.884	0.21
519.232	0.21
519.58	0.22
519.928	0.21
520.275	0.22
520.623	0.22
520.971	0.22
521.319	0.22
521.666	0.23
522.014	0.22
522.362	0.23
522.709	0.23
523.057	0.23
523.404	0.23
523.752	0.24
524.099	0.23
524.446	0.23
524.794	0.24
525.141	0.24
525.488	0.25
525.835	0.24
526.182	0.25
526.529	0.25
526.876	0.25
527.223	0.26
527.57	0.25
527.917	0.26
528.264	0.26
528.611	0.26
528.958	0.26
529.304	0.26
529.651	0.26
529.998	0.27
530.344	0.27
530.691	0.27
531.037	0.27
531.384	0.27
531.73	0.27
532.076	0.27
532.423	0.28
532.769	0.28
533.115	0.28
533.461	0.28
533.807	0.29
534.154	0.29
534.5	0.29
534.846	0.29
535.192	0.3
535.537	0.29
535.883	0.3
536.229	0.3
536.575	0.31
536.921	0.31
537.266	0.31
537.612	0.31
537.957	0.31
538.303	0.31
538.649	0.32
538.994	0.31
539.339	0.32
539.685	0.32
540.03	0.33
540.375	0.33
540.721	0.33
541.066	0.33
541.411	0.33
541.756	0.34
542.101	0.34
542.446	0.34
542.791	0.34
543.136	0.35
543.481	0.35
543.825	0.35
544.17	0.35
544.515	0.36
544.86	0.36
545.204	0.36
545.549	0.36
545.893	0.37
546.238	0.37
546.582	0.37
546.927	0.37
547.271	0.37
547.615	0.38
547.96	0.38
548.304	0.38
548.648	0.38
548.992	0.39
549.336	0.39
549.68	0.39
550.024	0.39
550.368	0.39
550.712	0.4
551.056	0.4
551.4	0.4
551.743	0.4
552.087	0.4
552.431	0.41
552.774	0.41
553.118	0.41
553.462	0.42
553.805	0.42
554.148	0.42
554.492	0.41
554.835	0.42
555.178	0.42
555.522	0.42
555.865	0.42
556.208	0.42
556.551	0.43
556.894	0.43
557.237	0.43
557.58	0.43
557.923	0.43
558.266	0.43
558.609	0.43
558.952	0.44
559.294	0.44
559.637	0.44
559.98	0.44
560.322	0.45
560.665	0.44
561.007	0.44
561.35	0.45
561.692	0.45
562.034	0.45
562.377	0.45
562.719	0.45
563.061	0.45
563.403	0.46
563.745	0.45
564.088	0.45
564.43	0.45
564.772	0.46
565.113	0.45
565.455	0.46
565.797	0.46
566.139	0.46
566.481	0.46
566.822	0.46
567.164	0.46
567.506	0.46
567.847	0.46
568.189	0.47
568.53	0.47
568.872	0.47
569.213	0.47
569.554	0.47
569.895	0.47
570.237	0.47
570.578	0.47
570.919	0.47
571.26	0.47
571.601	0.47
571.942	0.47
572.283	0.47
572.624	0.47
572.965	0.47
573.306	0.47
573.646	0.47
573.987	0.47
574.328	0.47
574.668	0.47
575.009	0.47
575.349	0.47
575.69	0.47
576.03	0.47
576.37	0.47
576.711	0.46
577.051	0.47
577.391	0.47
577.731	0.47
578.072	0.47
578.412	0.47
578.752	0.47
579.092	0.47
579.431	0.47
579.771	0.46
580.111	0.46
580.451	0.46
580.791	0.47
581.13	0.47
581.47	0.47
581.81	0.48
582.149	0.47
582.489	0.48
582.828	0.48
583.167	0.47
583.507	0.44
583.846	0.42
584.185	0.44
584.525	0.47
584.864	0.48
585.203	0.49
585.542	0.49
585.881	0.49
586.22	0.5
586.559	0.5
586.898	0.49
587.236	0.49
587.575	0.48
587.914	0.49
588.252	0.5
588.591	0.5
588.93	0.51
589.268	0.5
589.607	0.51
589.945	0.51
590.283	0.51
590.622	0.51
590.96	0.52
591.298	0.52
591.636	0.53
591.974	0.52
592.313	0.53
592.651	0.53
592.989	0.54
593.326	0.53
593.664	0.54
594.002	0.54
594.34	0.54
594.678	0.54
595.015	0.54
595.353	0.53
595.691	0.54
596.028	0.55
596.366	0.55
596.703	0.56
597.04	0.56
597.378	0.56
597.715	0.56
598.052	0.56
598.389	0.57
598.726	0.57
599.064	0.57
599.401	0.57
599.738	0.57
600.074	0.58
600.411	0.58
600.748	0.57
601.085	0.57
601.422	0.57
601.758	0.57
602.095	0.57
602.432	0.57
602.768	0.57
603.105	0.57
603.441	0.58
603.777	0.58
604.114	0.58
604.45	0.58
604.786	0.59
605.122	0.59
605.459	0.58
605.795	0.58
606.131	0.58
606.467	0.58
606.803	0.58
607.139	0.58
607.474	0.58
607.81	0.58
608.146	0.58
608.482	0.58
608.817	0.57
609.153	0.57
609.488	0.56
609.824	0.57
610.159	0.57
610.495	0.56
610.83	0.57
611.165	0.57
611.5	0.57
611.836	0.56
612.171	0.56
612.506	0.56
612.841	0.56
613.176	0.56
613.511	0.56
613.845	0.55
614.18	0.55
614.515	0.55
614.85	0.55
615.184	0.55
615.519	0.55
615.854	0.55
616.188	0.55
616.523	0.54
616.857	0.54
617.191	0.54
617.526	0.54
617.86	0.54
618.194	0.54
618.528	0.53
618.862	0.53
619.196	0.53
619.53	0.53
619.864	0.53
620.198	0.53
620.532	0.52
620.866	0.52
621.2	0.52
621.533	0.51
621.867	0.52
622.201	0.51
622.534	0.51
622.868	0.51
623.201	0.51
623.534	0.51
623.868	0.51
624.201	0.5
624.534	0.5
624.868	0.5
625.201	0.5
625.534	0.5
625.867	0.49
626.2	0.49
626.533	0.49
626.865	0.49
627.198	0.49
627.531	0.48
627.864	0.48
628.196	0.48
628.529	0.48
628.862	0.48
629.194	0.48
629.527	0.47
629.859	0.46
630.191	0.47
630.524	0.46
630.856	0.46
631.188	0.46
631.52	0.45
631.852	0.45
632.184	0.45
632.516	0.45
632.848	0.44
633.18	0.44
633.512	0.44
633.844	0.43
634.175	0.42
634.507	0.42
634.839	0.42
635.17	0.42
635.502	0.42
635.833	0.42
636.165	0.41
636.496	0.41
636.827	0.41
637.159	0.4
637.49	0.4
637.821	0.39
638.152	0.39
638.483	0.39
638.814	0.39
639.145	0.38
639.476	0.38
639.807	0.38
640.137	0.37
640.468	0.37
640.799	0.37
641.129	0.36
641.46	0.36
641.791	0.35
642.121	0.36
642.451	0.35
642.782	0.35
643.112	0.34
643.442	0.34
643.773	0.34
644.103	0.34
644.433	0.33
644.763	0.33
645.093	0.33
645.423	0.33
645.753	0.33
646.082	0.33
646.412	0.33
646.742	0.33
647.072	0.33
647.401	0.33
647.731	0.33
648.06	0.33
648.39	0.32
648.719	0.32
649.048	0.32
649.378	0.31
649.707	0.31
650.036	0.32
650.365	0.31
650.694	0.31
651.023	0.31
651.352	0.31
651.681	0.31
652.01	0.31
652.339	0.31
652.668	0.31
652.996	0.31
653.325	0.31
653.654	0.3
653.982	0.31
654.311	0.31
654.639	0.3
654.967	0.31
655.296	0.3
655.624	0.3
655.952	0.3
656.28	0.3
656.609	0.3
656.937	0.3
657.265	0.31
657.593	0.28
657.92	0.14
658.248	0.08
658.576	0.08
658.904	0.16
659.231	0.25
659.559	0.29
659.887	0.29
660.214	0.3
660.542	0.3
660.869	0.3
661.196	0.3
661.524	0.3
661.851	0.3
662.178	0.3
662.505	0.29
662.832	0.29
663.159	0.29
663.486	0.29
663.813	0.29
664.14	0.3
664.467	0.29
664.794	0.29
665.12	0.29
665.447	0.29
665.774	0.29
666.1	0.29
666.427	0.29
666.753	0.29
667.079	0.28
667.406	0.29
667.732	0.29
668.058	0.29
668.384	0.29
668.71	0.28
669.036	0.28
669.362	0.28
669.688	0.28
670.014	0.28
670.34	0.28
670.666	0.28
670.991	0.27
671.317	0.27
671.643	0.27
671.968	0.27
672.294	0.27
672.619	0.27
672.945	0.26
673.27	0.26
673.595	0.26
673.92	0.27
674.246	0.26
674.571	0.26
674.896	0.26
675.221	0.26
675.546	0.26
675.87	0.25
676.195	0.25
676.52	0.25
676.845	0.25
677.169	0.25
677.494	0.25
677.819	0.24
678.143	0.24
678.468	0.24
678.792	0.23
679.116	0.24
679.44	0.23
679.765	0.23
680.089	0.23
680.413	0.22
680.737	0.22
681.061	0.22
681.385	0.22
681.709	0.21
682.033	0.21
682.356	0.21
682.68	0.21
683.004	0.21
683.327	0.2
683.651	0.2
683.974	0.2
684.298	0.2
684.621	0.2
684.944	0.19
685.268	0.19
685.591	0.19
685.914	0.19
686.237	0.19
686.56	0.19
686.883	0.18
687.206	0.18
687.529	0.18
687.852	0.17
688.175	0.17
688.497	0.17
688.82	0.17
689.142	0.17
689.465	0.17
689.787	0.17
690.11	0.17
690.432	0.16
690.755	0.16
691.077	0.16
691.399	0.16
691.721	0.16
692.043	0.15
692.365	0.15
692.687	0.15
693.009	0.15
693.331	0.15
693.653	0.14
693.974	0.14
694.296	0.14
694.618	0.14
694.939	0.14
695.261	0.14
695.582	0.14
695.904	0.14
696.225	0.13
696.546	0.13
696.868	0.13
697.189	0.13
697.51	0.13
697.831	0.12
698.152	0.12
698.473	0.13
698.794	0.12
699.114	0.12
699.435	0.12
699.756	0.11
700.077	0.11
700.397	0.12
700.718	0.11
701.038	0.11
701.359	0.11
701.679	0.11
701.999	0.11
702.32	0.11
702.64	0.11
702.96	0.11
703.28	0.11
703.6	0.11
703.92	0.11
704.24	0.11
704.56	0.1
704.879	0.1
705.199	0.1
705.519	0.1
705.838	0.1
706.158	0.1
706.478	0.1
706.797	0.1
707.116	0.1
707.436	0.1
707.755	0.1
708.074	0.1
708.393	0.1
708.712	0.1
709.031	0.1
709.35	0.1
709.669	0.09
709.988	0.09
710.307	0.09
710.626	0.09
710.944	0.09
711.263	0.09
711.582	0.09
711.9	0.09
712.219	0.09
712.537	0.09
712.855	0.09
713.174	0.09
713.492	0.09
713.81	0.09
714.128	0.09
714.446	0.09
714.764	0.09
715.082	0.09
715.4	0.09
715.718	0.09
716.035	0.08
716.353	0.09
716.671	0.09
716.988	0.09
717.306	0.09
717.623	0.09
717.941	0.09
718.258	0.1
718.575	0.1
718.893	0.1
719.21	0.1
719.527	0.09
719.844	0.1
720.161	0.1
720.478	0.1
720.795	0.1
721.112	0.1
721.428	0.1
721.745	0.1
722.062	0.1
722.378	0.1
722.695	0.1
723.011	0.1
723.328	0.1
723.644	0.1
723.96	0.1
724.276	0.1
724.593	0.1
724.909	0.1
725.225	0.1
725.541	0.1
725.857	0.1
726.173	0.11
726.488	0.1
726.804	0.1
727.12	0.1
727.435	0.11
727.751	0.11
728.067	0.11
728.382	0.11
728.697	0.1
729.013	0.11
729.328	0.11
729.643	0.11
729.958	0.11
730.273	0.11
730.588	0.11
730.903	0.11
731.218	0.11
731.533	0.11
731.848	0.11
732.163	0.11
732.477	0.11
732.792	0.11
733.107	0.1
733.421	0.11
733.736	0.11
734.05	0.11
734.364	0.11
734.678	0.11
734.993	0.11
735.307	0.11
735.621	0.11
735.935	0.11
736.249	0.1
736.563	0.11
736.877	0.1
737.19	0.11
737.504	0.11
737.818	0.1
738.131	0.1
738.445	0.1
738.758	0.1
739.072	0.1
739.385	0.1
739.698	0.1
740.012	0.1
740.325	0.1
740.638	0.1
740.951	0.1
741.264	0.1
741.577	0.1
741.89	0.1
742.203	0.1
742.515	0.1
742.828	0.1
743.141	0.1
743.453	0.1
743.766	0.1
744.078	0.1
744.391	0.1
744.703	0.09
745.015	0.09
745.327	0.09
745.639	0.09
745.952	0.09
746.264	0.09
746.575	0.09
746.887	0.09
747.199	0.09
747.511	0.09
747.823	0.08
748.134	0.08
748.446	0.08
748.757	0.08
749.069	0.08
749.38	0.08
749.692	0.08
750.003	0.08
750.314	0.08
750.625	0.08
750.936	0.08
751.248	0.08
751.559	0.07
751.869	0.07
752.18	0.07
752.491	0.07
752.802	0.07
753.112	0.06
753.423	0.07
753.734	0.07
754.044	0.07
754.355	0.06
754.665	0.06
754.975	0.06
755.285	0.06
755.596	0.06
755.906	0.05
756.216	0.05
756.526	0.05
756.836	0.05
757.146	0.05
757.455	0.05
757.765	0.05
758.075	0.05
758.385	0.05
758.694	0.05
759.004	0.05
759.313	0.05
759.622	0.05
759.932	0.05
760.241	0.05
760.55	0.05
760.859	0.05
761.168	0.05
761.477	0.04
761.786	0.05
762.095	0.04
762.404	0.04
762.713	0.04
763.021	0.04
763.33	0.04
763.639	0.04
763.947	0.03
764.256	0.03
764.564	0.03
764.872	0.03
765.181	0.03
765.489	0.03
765.797	0.04
766.105	0.03
766.413	0.03
766.721	0.03
767.029	0.03
767.337	0.04
767.644	0.04
767.952	0.03
768.26	0.03
768.567	0.03
768.875	0.04
769.182	0.03
769.49	0.03
769.797	0.03
770.104	0.03
770.411	0.03
770.718	0.03
771.026	0.02
771.333	0.03
771.639	0.03
771.946	0.03
772.253	0.03
772.56	0.03
772.867	0.03
773.173	0.03
773.48	0.02
773.786	0.03
774.093	0.02
774.399	0.02
774.705	0.02
775.012	0.02
775.318	0.02
775.624	0.02
775.93	0.02
776.236	0.02
776.542	0.03
776.848	0.02
777.154	0.02
777.459	0.03
777.765	0.02
778.071	0.02
778.376	0.02
778.682	0.02
778.987	0.02
779.292	0.02
779.598	0.02
779.903	0.02
780.208	0.03
780.513	0.02
780.818	0.02
781.123	0.02
781.428	0.02
781.733	0.03
782.038	0.02
782.343	0.02
782.647	0.02
782.952	0.02
783.256	0.02
783.561	0.03
783.865	0.02
784.17	0.03
784.474	0.03
784.778	0.03
785.082	0.02
785.386	0.02
785.69	0.03
785.994	0.02
786.298	0.02
786.602	0.02
786.906	0.02
787.209	0.02
787.513	0.02
787.817	0.02
788.12	0.02
788.424	0.02
788.727	0.02
789.03	0.03
789.333	0.03
789.637	0.03
789.94	0.03
790.243	0.03
790.546	0.03
790.849	0.03
791.152	0.02
791.454	0.02
791.757	0.02
792.06	0.02
792.362	0.02
792.665	0.02
792.967	0.02
793.27	0.02
793.572	0.02
793.874	0.02
794.177	0.02
794.479	0.02
794.781	0.02
795.083	0.02
795.385	0.02
795.687	0.03
795.989	0.02
796.29	0.03
796.592	0.02
796.894	0.02
797.195	0.02
797.497	0.02
797.798	0.02
798.1	0.02
798.401	0.02
798.702	0.02
799.003	0.02
799.304	0.02
799.605	0.02
799.906	0.02
800.207	0.02
800.508	0.02
800.809	0.02
801.11	0.02
801.41	0.02
801.711	0.02
802.011	0.02
802.312	0.02
802.612	0.02
802.913	0.03
803.213	0.03
803.513	0.03
803.813	0.03
804.113	0.03
804.413	0.03
804.713	0.03
805.013	0.03
805.313	0.03
805.613	0.03
805.912	0.03
806.212	0.03
806.511	0.03
806.811	0.03
807.11	0.03
807.41	0.03
807.709	0.03
808.008	0.03
808.307	0.02
808.606	0.02
808.905	0.02
809.204	0.02
809.503	0.02
809.802	0.02
810.101	0.02
810.399	0.02
810.698	0.02
810.997	0.02
811.295	0.02
811.593	0.02
811.892	0.01
812.19	0.02
812.488	0.02
812.786	0.02
813.084	0.02
813.383	0.02
813.68	0.02
813.978	0.02
814.276	0.01
814.574	0.01
814.872	0.02
815.169	0.02
815.467	0.02
815.764	0.02
816.062	0.02
816.359	0.02
816.656	0.02
816.954	0.01
817.251	0.01
817.548	0.01
817.845	0.02
818.142	0.02
818.439	0.02
818.735	0.02
819.032	0.02
819.329	0.02
819.626	0.02
819.922	0.02
820.219	0.02
820.515	0.02
820.811	0.02
821.108	0.02
821.404	0.01
821.7	0.02
821.996	0.02
822.292	0.02
822.588	0.02
822.884	0.02
823.18	0.02
823.475	0.02
823.771	0.02
824.067	0.02
824.362	0.03
824.658	0.03
824.953	0.03
825.249	0.03
825.544	0.03
825.839	0.03
826.134	0.03
826.429	0.02
826.724	0.03
827.019	0.02
827.314	0.02
827.609	0.02
827.904	0.02
828.198	0.02
828.493	0.02
828.787	0.02
829.082	0.02
829.376	0.02
829.671	0.02
829.965	0.02
830.259	0.01
830.553	0.02
830.847	0.02
831.141	0.02
831.435	0.02
831.729	0.02
832.023	0.03
832.317	0.02
832.61	0.02
832.904	0.02
833.197	0.02
833.491	0.03
833.784	0.02
834.077	0.02
834.371	0.03
834.664	0.03
834.957	0.02
835.25	0.02
835.543	0.02
835.836	0.03
836.129	0.03
836.421	0.03
836.714	0.03
837.007	0.02
837.299	0.02
837.592	0.03
837.884	0.03
838.177	0.03
838.469	0.02
838.761	0.03
839.053	0.02
839.345	0.03
839.637	0.03
839.929	0.03
840.221	0.03
840.513	0.02
840.805	0.03
841.096	0.03
841.388	0.02
841.68	0.03
841.971	0.02
842.262	0.02
842.554	0.03
842.845	0.02
843.136	0.02
843.427	0.02
843.718	0.03
844.009	0.02
844.3	0.02
844.591	0.03
844.882	0.01
845.173	0.02
845.463	0.02
845.754	0.03
846.044	0.03
846.335	0.01
846.625	0.03
846.915	0.02
847.206	0.03
847.496	0.03
847.786	0.02
848.076	0.02
848.366	0.02
848.656	0.04
848.945	0.03
849.235	0.03
849.525	0.03
849.814	0.03
850.104	0.03
850.393	0.03
850.683	0.02
850.972	0.03
851.261	0.03
851.551	0.03
851.84	0.02
852.129	0.02
852.418	0.02
852.707	0.01
852.995	0.02
853.284	0.02
853.573	0.02
853.862	0.01
854.15	0
854.439	0.01
854.727	0.03
855.015	0.02
855.304	0.03
855.592	0.02
855.88	0.03
856.168	0.03
856.456	0.02
856.744	0.02
857.032	0.02
857.32	0.02
857.607	0.02
857.895	0.03
858.183	0.04
858.47	0.01
858.757	0.01
859.045	0.03
859.332	0.03
859.619	0.02
859.907	0.02
860.194	0.03
860.481	0.02
860.768	0.04
861.054	0.03
861.341	0.03
861.628	0.04
861.915	0.02
862.201	0.05
862.488	0.03
862.774	0.02
863.061	0.01
863.347	0.03
863.633	0.03
863.919	0
864.205	0.03
864.491	0.05
864.777	0.02
865.063	0
865.349	0.01
865.635	0.01
865.92	0.01
866.206	0.03
866.492	0.05
866.777	0.04
867.062	-0.01
867.348	-0
867.633	-0
867.918	0
868.203	0.03
868.488	0.04
868.773	0.04
869.058	0.01
869.343	0.01
869.628	0.03
869.912	0.04
870.197	0.02
870.482	0.04
870.766	0.03
871.05	0.06
871.335	0.05
871.619	0.05
871.903	0.07
872.187	0.07
872.471	0.04
872.755	0.03
873.039	0.05
873.323	0.07
873.607	0.04
873.89	0.01
874.174	0.03
874.458	0.04
874.741	0.04
875.024	-0.01
875.308	-0.04
875.591	0.02
875.874	-0.03
876.157	0.02
876.44	0.04
876.723	0.06
877.006	0.05
877.289	0.1
877.572	0.07
877.854	0.04
878.137	0.08
878.42	0.07
878.702	0.01
878.984	0.02
879.267	0.1
879.549	0.08
879.831	0.11
880.113	0.06
880.395	0.05
880.677	0.13
880.959	-0.02
