Data from Rubpy_EV_1500_EDTA_Buffered_Absorbance_15-02-41-890.txt Node
Date: Tue Jun 30 15:02:41 BST 2026
User: fpm-admin
Spectrometer: OFX00224
Trigger mode: 0
Integration Time (sec): 7.000000E-2
Scans to average: 3
Nonlinearity correction enabled: false
Boxcar width: 0
Storing dark spectrum: false
XAxis mode: Wavelengths
Number of Pixels in Spectrum: 2136
>>>>>Begin Spectral Data<<<<<
154.91	0.39
155.289	-0.29
155.669	-0.26
156.048	-0.11
156.428	-0
156.807	0.23
157.186	-0.3
157.566	0.95
157.945	-0.46
158.325	-0
158.704	-1.11
159.083	-0
159.462	-0
159.842	-0
160.221	-0.18
160.6	-0
160.979	-0
161.359	0.3
161.738	-0
162.117	-0.49
162.496	-0
162.875	-0.09
163.254	0.3
163.633	0.48
164.012	-0
164.391	-0.03
164.77	-0.15
165.149	0.15
165.528	0.34
165.907	-0.19
166.286	-0.73
166.665	-0
167.044	0.72
167.423	0.17
167.802	-0
168.181	0.52
168.559	-0.33
168.938	0.03
169.317	-0.63
169.696	0.51
170.074	1.04
170.453	-0
170.832	-0
171.21	0.34
171.589	-0.41
171.968	0.26
172.346	-0.06
172.725	-0
173.103	-0.26
173.482	-0
173.861	-0.18
174.239	0.68
174.617	-0.02
174.996	-0.15
175.374	1.3
175.753	-0
176.131	1.2
176.51	0.44
176.888	0.1
177.266	-0
177.645	-0.14
178.023	0.48
178.401	-0.38
178.779	-0.01
179.158	1.43
179.536	-0
179.914	0.44
180.292	0.09
180.67	-0.09
181.048	-0
181.427	0.51
181.805	-0.65
182.183	0.32
182.561	0.11
182.939	-0
183.317	-0.1
183.695	0.73
184.073	-0
184.451	-0.19
184.829	-0.15
185.206	0.02
185.584	-0
185.962	-0
186.34	0.35
186.718	-0
187.096	-1.08
187.473	-0
187.851	0.01
188.229	-0
188.607	0.27
188.984	0.13
189.362	0.26
189.74	0.14
190.117	0.21
190.495	0.14
190.872	0.11
191.25	0.23
191.627	0.2
192.005	0.14
192.382	0.24
192.76	0.2
193.137	0.2
193.515	0.23
193.892	0.19
194.269	0.18
194.647	0.1
195.024	0.16
195.401	0.19
195.779	0.3
196.156	0.33
196.533	0.3
196.91	0.04
197.288	0.06
197.665	0.17
198.042	0.13
198.419	0.23
198.796	0.2
199.173	0.14
199.55	0.13
199.927	0.35
200.304	0.13
200.681	0.24
201.058	0.27
201.435	0.18
201.812	0.21
202.189	0.18
202.566	0.21
202.943	0.03
203.32	0.18
203.697	0.26
204.073	0.08
204.45	0.16
204.827	0.16
205.204	0.23
205.58	0.11
205.957	0.08
206.334	0.19
206.71	0.12
207.087	0.27
207.464	0.21
207.84	0.21
208.217	0.17
208.593	0.23
208.97	0.17
209.346	0.19
209.723	0.24
210.099	0.23
210.476	0.16
210.852	0.33
211.228	0.24
211.605	0.11
211.981	0.2
212.357	0.18
212.733	0.22
213.11	0.26
213.486	0.24
213.862	0.21
214.238	0.14
214.614	0.35
214.991	0.18
215.367	0.23
215.743	0.2
216.119	0.2
216.495	0.12
216.871	0.21
217.247	0.13
217.623	0.11
217.999	0.26
218.375	0.28
218.751	0.11
219.127	0.37
219.502	0.17
219.878	0.23
220.254	0.26
220.63	0.16
221.006	0.16
221.381	0.29
221.757	0.19
222.133	0.37
222.508	0.15
222.884	0.21
223.26	0.27
223.635	0.27
224.011	0.18
224.386	0.12
224.762	0.14
225.137	0.12
225.513	0.3
225.888	0.16
226.264	0.19
226.639	0.27
227.014	0.19
227.39	0.28
227.765	0.33
228.14	0.21
228.516	0.22
228.891	0.12
229.266	0.21
229.641	0.34
230.017	0.17
230.392	0.29
230.767	0.28
231.142	0.4
231.517	0.22
231.892	0.28
232.267	0.15
232.642	0.19
233.017	0.22
233.392	0.25
233.767	0.26
234.142	0.17
234.517	0.24
234.892	0.29
235.267	0.23
235.641	0.18
236.016	0.19
236.391	0.17
236.766	0.3
237.14	0.19
237.515	0.12
237.89	0.12
238.264	0.3
238.639	0.33
239.014	0.2
239.388	0.23
239.763	0.21
240.137	0.1
240.512	0.05
240.886	0.14
241.261	0.18
241.635	0.26
242.009	0.18
242.384	0.33
242.758	0.2
243.132	0.3
243.507	0.29
243.881	0.24
244.255	0.3
244.629	0.21
245.004	0.29
245.378	0.3
245.752	0.26
246.126	0.23
246.5	0.22
246.874	0.35
247.248	0.15
247.622	0.24
247.996	0.26
248.37	0.18
248.744	0.2
249.118	0.22
249.492	0.18
249.866	0.19
250.24	0.28
250.613	0.16
250.987	0.08
251.361	0.17
251.735	0.22
252.108	0.21
252.482	0.13
252.856	0.19
253.229	0.25
253.603	0.33
253.977	0.24
254.35	0.26
254.724	0.14
255.097	0.17
255.471	0.22
255.844	0.26
256.218	0.2
256.591	0.16
256.964	0.22
257.338	0.15
257.711	0.18
258.084	0.24
258.458	0.36
258.831	0.26
259.204	0.17
259.577	0.23
259.95	0.3
260.323	0.2
260.697	0.3
261.07	0.23
261.443	0.17
261.816	0.15
262.189	0.31
262.562	0.22
262.935	0.25
263.308	0.23
263.68	0.16
264.053	0.3
264.426	0.15
264.799	0.25
265.172	0.22
265.545	0.36
265.917	0.14
266.29	0.16
266.663	0.24
267.035	0.18
267.408	0.22
267.781	0.25
268.153	0.23
268.526	0.21
268.898	0.2
269.271	0.27
269.643	0.14
270.016	0.17
270.388	0.23
270.76	0.18
271.133	0.28
271.505	0.28
271.877	0.27
272.25	0.26
272.622	0.27
272.994	0.17
273.366	0.2
273.739	0.32
274.111	0.21
274.483	0.23
274.855	0.26
275.227	0.2
275.599	0.25
275.971	0.28
276.343	0.31
276.715	0.2
277.087	0.2
277.459	0.19
277.831	0.26
278.203	0.21
278.574	0.27
278.946	0.15
279.318	0.13
279.69	0.17
280.061	0.2
280.433	0.2
280.805	0.19
281.176	0.33
281.548	0.12
281.92	0.25
282.291	0.19
282.663	0.23
283.034	0.29
283.406	0.17
283.777	0.25
284.148	0.23
284.52	0.31
284.891	0.24
285.262	0.21
285.634	0.24
286.005	0.22
286.376	0.21
286.747	0.19
287.119	0.29
287.49	0.14
287.861	0.25
288.232	0.1
288.603	0.26
288.974	0.26
289.345	0.19
289.716	0.29
290.087	0.21
290.458	0.2
290.829	0.29
291.2	0.21
291.571	0.2
291.941	0.14
292.312	0.22
292.683	0.23
293.054	0.3
293.424	0.18
293.795	0.15
294.166	0.16
294.536	0.22
294.907	0.25
295.277	0.19
295.648	0.25
296.018	0.24
296.389	0.26
296.759	0.22
297.13	0.25
297.5	0.23
297.871	0.25
298.241	0.21
298.611	0.22
298.981	0.2
299.352	0.21
299.722	0.18
300.092	0.19
300.462	0.15
300.832	0.23
301.202	0.18
301.573	0.2
301.943	0.16
302.313	0.19
302.683	0.17
303.053	0.2
303.422	0.17
303.792	0.16
304.162	0.17
304.532	0.17
304.902	0.17
305.272	0.18
305.641	0.18
306.011	0.17
306.381	0.16
306.75	0.18
307.12	0.16
307.49	0.18
307.859	0.18
308.229	0.17
308.598	0.18
308.968	0.18
309.337	0.19
309.707	0.19
310.076	0.19
310.445	0.19
310.815	0.2
311.184	0.19
311.553	0.19
311.923	0.19
312.292	0.2
312.661	0.2
313.03	0.2
313.399	0.21
313.768	0.21
314.137	0.2
314.506	0.2
314.875	0.2
315.244	0.2
315.613	0.2
315.982	0.19
316.351	0.19
316.72	0.19
317.089	0.19
317.458	0.19
317.826	0.2
318.195	0.19
318.564	0.19
318.933	0.18
319.301	0.18
319.67	0.19
320.038	0.18
320.407	0.18
320.775	0.18
321.144	0.17
321.512	0.18
321.881	0.17
322.249	0.18
322.618	0.18
322.986	0.17
323.354	0.17
323.723	0.16
324.091	0.17
324.459	0.16
324.827	0.17
325.195	0.17
325.564	0.16
325.932	0.16
326.3	0.16
326.668	0.16
327.036	0.16
327.404	0.16
327.772	0.16
328.14	0.16
328.508	0.16
328.875	0.16
329.243	0.16
329.611	0.17
329.979	0.17
330.346	0.16
330.714	0.16
331.082	0.16
331.449	0.16
331.817	0.17
332.185	0.17
332.552	0.17
332.92	0.18
333.287	0.18
333.655	0.18
334.022	0.18
334.389	0.18
334.757	0.18
335.124	0.18
335.491	0.18
335.859	0.19
336.226	0.19
336.593	0.19
336.96	0.2
337.327	0.19
337.695	0.2
338.062	0.2
338.429	0.2
338.796	0.21
339.163	0.21
339.53	0.22
339.897	0.21
340.263	0.22
340.63	0.22
340.997	0.23
341.364	0.23
341.731	0.24
342.097	0.24
342.464	0.24
342.831	0.24
343.197	0.25
343.564	0.26
343.931	0.26
344.297	0.26
344.664	0.27
345.03	0.27
345.396	0.27
345.763	0.28
346.129	0.29
346.496	0.28
346.862	0.29
347.228	0.3
347.594	0.3
347.961	0.3
348.327	0.3
348.693	0.31
349.059	0.32
349.425	0.32
349.791	0.33
350.157	0.33
350.523	0.34
350.889	0.35
351.255	0.36
351.621	0.36
351.987	0.36
352.353	0.37
352.719	0.38
353.084	0.39
353.45	0.39
353.816	0.4
354.181	0.41
354.547	0.42
354.913	0.42
355.278	0.43
355.644	0.44
356.009	0.45
356.375	0.46
356.74	0.47
357.106	0.47
357.471	0.49
357.836	0.5
358.202	0.51
358.567	0.52
358.932	0.53
359.297	0.54
359.663	0.54
360.028	0.55
360.393	0.56
360.758	0.57
361.123	0.58
361.488	0.58
361.853	0.59
362.218	0.6
362.583	0.6
362.948	0.61
363.312	0.61
363.677	0.63
364.042	0.63
364.407	0.64
364.772	0.66
365.136	0.66
365.501	0.68
365.865	0.69
366.23	0.71
366.595	0.71
366.959	0.73
367.324	0.75
367.688	0.77
368.052	0.77
368.417	0.8
368.781	0.79
369.145	0.81
369.51	0.82
369.874	0.81
370.238	0.82
370.602	0.82
370.967	0.82
371.331	0.81
371.695	0.81
372.059	0.81
372.423	0.79
372.787	0.79
373.151	0.79
373.515	0.8
373.878	0.8
374.242	0.78
374.606	0.78
374.97	0.79
375.334	0.79
375.697	0.8
376.061	0.79
376.425	0.79
376.788	0.8
377.152	0.81
377.515	0.81
377.879	0.82
378.242	0.83
378.606	0.83
378.969	0.85
379.333	0.86
379.696	0.87
380.059	0.88
380.422	0.9
380.786	0.91
381.149	0.93
381.512	0.94
381.875	0.97
382.238	0.99
382.601	1.02
382.964	1.03
383.327	1.04
383.69	1.08
384.053	1.11
384.416	1.14
384.779	1.15
385.142	1.18
385.504	1.19
385.867	1.23
386.23	1.22
386.593	1.23
386.955	1.24
387.318	1.24
387.68	1.24
388.043	1.24
388.405	1.22
388.768	1.23
389.13	1.2
389.493	1.21
389.855	1.19
390.217	1.19
390.58	1.18
390.942	1.19
391.304	1.2
391.666	1.22
392.028	1.23
392.391	1.25
392.753	1.28
393.115	1.32
393.477	1.38
393.839	1.4
394.201	1.45
394.563	1.5
394.924	1.54
395.286	1.6
395.648	1.64
396.01	1.66
396.371	1.71
396.733	1.74
397.095	1.76
397.456	1.74
397.818	1.72
398.18	1.74
398.541	1.74
398.903	1.71
399.264	1.66
399.625	1.64
399.987	1.59
400.348	1.53
400.709	1.46
401.071	1.41
401.432	1.31
401.793	1.24
402.154	1.18
402.515	1.1
402.876	1.02
403.238	0.94
403.599	0.89
403.96	0.83
404.32	0.76
404.681	0.71
405.042	0.67
405.403	0.62
405.764	0.58
406.125	0.53
406.485	0.5
406.846	0.47
407.207	0.44
407.567	0.41
407.928	0.39
408.288	0.37
408.649	0.35
409.009	0.33
409.37	0.31
409.73	0.3
410.091	0.28
410.451	0.27
410.811	0.25
411.171	0.25
411.532	0.24
411.892	0.23
412.252	0.22
412.612	0.21
412.972	0.2
413.332	0.19
413.692	0.19
414.052	0.18
414.412	0.17
414.772	0.17
415.132	0.16
415.492	0.16
415.851	0.16
416.211	0.15
416.571	0.15
416.931	0.14
417.29	0.14
417.65	0.13
418.009	0.13
418.369	0.12
418.728	0.13
419.088	0.12
419.447	0.12
419.807	0.11
420.166	0.12
420.525	0.11
420.884	0.11
421.244	0.11
421.603	0.11
421.962	0.1
422.321	0.1
422.68	0.1
423.039	0.1
423.398	0.1
423.757	0.1
424.116	0.1
424.475	0.1
424.834	0.1
425.193	0.09
425.551	0.09
425.91	0.09
426.269	0.08
426.628	0.09
426.986	0.08
427.345	0.08
427.703	0.09
428.062	0.09
428.42	0.08
428.779	0.09
429.137	0.09
429.496	0.08
429.854	0.08
430.212	0.08
430.57	0.08
430.929	0.08
431.287	0.08
431.645	0.08
432.003	0.07
432.361	0.08
432.719	0.07
433.077	0.07
433.435	0.07
433.793	0.07
434.151	0.07
434.509	0.07
434.866	0.07
435.224	0.06
435.582	0.07
435.94	0.07
436.297	0.07
436.655	0.07
437.012	0.07
437.37	0.07
437.727	0.06
438.085	0.06
438.442	0.06
438.8	0.06
439.157	0.06
439.514	0.06
439.872	0.05
440.229	0.06
440.586	0.06
440.943	0.06
441.3	0.06
441.657	0.06
442.014	0.06
442.371	0.06
442.728	0.05
443.085	0.05
443.442	0.06
443.799	0.06
444.156	0.05
444.513	0.05
444.869	0.05
445.226	0.05
445.583	0.05
445.939	0.05
446.296	0.05
446.652	0.06
447.009	0.05
447.365	0.04
447.722	0.05
448.078	0.05
448.434	0.05
448.791	0.05
449.147	0.04
449.503	0.04
449.859	0.03
450.215	0.04
450.571	0.04
450.928	0.03
451.284	0.04
451.64	0.04
451.995	0.04
452.351	0.03
452.707	0.04
453.063	0.03
453.419	0.03
453.775	0.03
454.13	0.04
454.486	0.03
454.842	0.02
455.197	0.03
455.553	0.02
455.908	0.02
456.264	0.02
456.619	0.01
456.975	0.03
457.33	0.02
457.685	0.01
458.04	0.02
458.396	0.01
458.751	0.01
459.106	0
459.461	0
459.816	0
460.171	-0.01
460.526	-0
460.881	-0.01
461.236	-0.01
461.591	-0.01
461.946	-0.02
462.301	-0.01
462.655	-0.01
463.01	-0.01
463.365	-0.02
463.719	-0.01
464.074	-0.02
464.428	-0.03
464.783	-0.02
465.137	-0.03
465.492	-0.03
465.846	-0.03
466.201	-0.03
466.555	-0.03
466.909	-0.02
467.263	-0.02
467.618	-0.02
467.972	-0.02
468.326	-0.03
468.68	-0.04
469.034	-0.04
469.388	-0.03
469.742	-0.03
470.096	-0.03
470.45	-0.03
470.804	-0.03
471.157	-0.03
471.511	-0.03
471.865	-0.03
472.218	-0.03
472.572	-0.03
472.926	-0.02
473.279	-0.02
473.633	-0.01
473.986	-0.01
474.34	-0.02
474.693	-0.01
475.046	-0
475.4	0
475.753	0
476.106	0.01
476.459	0.01
476.812	0.02
477.165	0.02
477.519	0.02
477.872	0.03
478.224	0.02
478.577	0.03
478.93	0.04
479.283	0.03
479.636	0.04
479.989	0.04
480.341	0.05
480.694	0.04
481.047	0.05
481.399	0.05
481.752	0.05
482.104	0.05
482.457	0.06
482.809	0.06
483.162	0.06
483.514	0.06
483.866	0.06
484.219	0.06
484.571	0.06
484.923	0.07
485.275	0.07
485.627	0.07
485.979	0.07
486.331	0.07
486.683	0.08
487.035	0.08
487.387	0.08
487.739	0.08
488.091	0.08
488.443	0.08
488.794	0.08
489.146	0.09
489.498	0.09
489.849	0.08
490.201	0.09
490.552	0.09
490.904	0.1
491.255	0.09
491.607	0.1
491.958	0.09
492.309	0.1
492.661	0.1
493.012	0.1
493.363	0.1
493.714	0.1
494.065	0.1
494.416	0.1
494.767	0.1
495.118	0.11
495.469	0.11
495.82	0.11
496.171	0.11
496.522	0.12
496.872	0.12
497.223	0.12
497.574	0.12
497.924	0.12
498.275	0.13
498.626	0.12
498.976	0.12
499.327	0.13
499.677	0.13
500.027	0.14
500.378	0.13
500.728	0.14
501.078	0.14
501.428	0.14
501.779	0.14
502.129	0.14
502.479	0.14
502.829	0.15
503.179	0.15
503.529	0.15
503.879	0.15
504.229	0.15
504.578	0.15
504.928	0.15
505.278	0.16
505.628	0.16
505.977	0.16
506.327	0.16
506.676	0.16
507.026	0.17
507.375	0.17
507.725	0.17
508.074	0.17
508.424	0.17
508.773	0.17
509.122	0.17
509.471	0.18
509.82	0.18
510.17	0.18
510.519	0.18
510.868	0.18
511.217	0.19
511.566	0.18
511.915	0.19
512.263	0.19
512.612	0.19
512.961	0.19
513.31	0.19
513.659	0.2
514.007	0.2
514.356	0.2
514.704	0.2
515.053	0.2
515.401	0.2
515.75	0.21
516.098	0.21
516.447	0.21
516.795	0.21
517.143	0.21
517.491	0.21
517.839	0.22
518.188	0.22
518.536	0.22
518.884	0.22
519.232	0.22
519.58	0.23
519.928	0.22
520.275	0.23
520.623	0.23
520.971	0.24
521.319	0.23
521.666	0.24
522.014	0.24
522.362	0.24
522.709	0.24
523.057	0.24
523.404	0.24
523.752	0.25
524.099	0.25
524.446	0.25
524.794	0.25
525.141	0.25
525.488	0.26
525.835	0.26
526.182	0.26
526.529	0.26
526.876	0.27
527.223	0.27
527.57	0.27
527.917	0.27
528.264	0.27
528.611	0.27
528.958	0.27
529.304	0.28
529.651	0.27
529.998	0.28
530.344	0.28
530.691	0.28
531.037	0.29
531.384	0.29
531.73	0.29
532.076	0.29
532.423	0.29
532.769	0.29
533.115	0.3
533.461	0.3
533.807	0.3
534.154	0.3
534.5	0.3
534.846	0.31
535.192	0.31
535.537	0.32
535.883	0.31
536.229	0.32
536.575	0.32
536.921	0.32
537.266	0.32
537.612	0.33
537.957	0.33
538.303	0.33
538.649	0.33
538.994	0.33
539.339	0.34
539.685	0.34
540.03	0.34
540.375	0.34
540.721	0.35
541.066	0.35
541.411	0.35
541.756	0.35
542.101	0.36
542.446	0.36
542.791	0.36
543.136	0.37
543.481	0.36
543.825	0.37
544.17	0.37
544.515	0.38
544.86	0.38
545.204	0.38
545.549	0.38
545.893	0.39
546.238	0.39
546.582	0.39
546.927	0.39
547.271	0.4
547.615	0.4
547.96	0.4
548.304	0.4
548.648	0.41
548.992	0.41
549.336	0.41
549.68	0.41
550.024	0.42
550.368	0.42
550.712	0.42
551.056	0.42
551.4	0.42
551.743	0.43
552.087	0.43
552.431	0.43
552.774	0.43
553.118	0.43
553.462	0.43
553.805	0.44
554.148	0.44
554.492	0.44
554.835	0.44
555.178	0.44
555.522	0.44
555.865	0.45
556.208	0.44
556.551	0.45
556.894	0.46
557.237	0.45
557.58	0.45
557.923	0.46
558.266	0.45
558.609	0.46
558.952	0.45
559.294	0.46
559.637	0.46
559.98	0.46
560.322	0.47
560.665	0.46
561.007	0.47
561.35	0.47
561.692	0.47
562.034	0.47
562.377	0.47
562.719	0.48
563.061	0.48
563.403	0.48
563.745	0.48
564.088	0.48
564.43	0.48
564.772	0.48
565.113	0.48
565.455	0.48
565.797	0.48
566.139	0.48
566.481	0.49
566.822	0.49
567.164	0.49
567.506	0.49
567.847	0.49
568.189	0.48
568.53	0.49
568.872	0.49
569.213	0.49
569.554	0.49
569.895	0.49
570.237	0.49
570.578	0.49
570.919	0.5
571.26	0.49
571.601	0.49
571.942	0.49
572.283	0.49
572.624	0.49
572.965	0.49
573.306	0.49
573.646	0.49
573.987	0.49
574.328	0.49
574.668	0.49
575.009	0.5
575.349	0.5
575.69	0.5
576.03	0.49
576.37	0.49
576.711	0.49
577.051	0.49
577.391	0.49
577.731	0.5
578.072	0.5
578.412	0.5
578.752	0.5
579.092	0.5
579.431	0.49
579.771	0.49
580.111	0.48
580.451	0.49
580.791	0.49
581.13	0.5
581.47	0.5
581.81	0.5
582.149	0.5
582.489	0.5
582.828	0.51
583.167	0.5
583.507	0.47
583.846	0.45
584.185	0.47
584.525	0.49
584.864	0.5
585.203	0.51
585.542	0.52
585.881	0.52
586.22	0.53
586.559	0.52
586.898	0.52
587.236	0.52
587.575	0.51
587.914	0.51
588.252	0.53
588.591	0.53
588.93	0.53
589.268	0.53
589.607	0.54
589.945	0.54
590.283	0.54
590.622	0.54
590.96	0.55
591.298	0.55
591.636	0.55
591.974	0.55
592.313	0.56
592.651	0.56
592.989	0.56
593.326	0.56
593.664	0.57
594.002	0.57
594.34	0.57
594.678	0.57
595.015	0.57
595.353	0.57
595.691	0.57
596.028	0.58
596.366	0.58
596.703	0.58
597.04	0.59
597.378	0.59
597.715	0.59
598.052	0.59
598.389	0.6
598.726	0.6
599.064	0.61
599.401	0.6
599.738	0.6
600.074	0.61
600.411	0.61
600.748	0.6
601.085	0.6
601.422	0.6
601.758	0.6
602.095	0.61
602.432	0.6
602.768	0.6
603.105	0.61
603.441	0.61
603.777	0.61
604.114	0.61
604.45	0.61
604.786	0.61
605.122	0.62
605.459	0.61
605.795	0.61
606.131	0.61
606.467	0.61
606.803	0.61
607.139	0.61
607.474	0.61
607.81	0.61
608.146	0.61
608.482	0.61
608.817	0.6
609.153	0.6
609.488	0.6
609.824	0.6
610.159	0.6
610.495	0.59
610.83	0.59
611.165	0.6
611.5	0.59
611.836	0.6
612.171	0.59
612.506	0.59
612.841	0.59
613.176	0.59
613.511	0.58
613.845	0.58
614.18	0.58
614.515	0.58
614.85	0.58
615.184	0.58
615.519	0.58
615.854	0.57
616.188	0.57
616.523	0.57
616.857	0.57
617.191	0.57
617.526	0.56
617.86	0.56
618.194	0.56
618.528	0.56
618.862	0.56
619.196	0.56
619.53	0.56
619.864	0.56
620.198	0.55
620.532	0.55
620.866	0.55
621.2	0.54
621.533	0.54
621.867	0.55
622.201	0.54
622.534	0.54
622.868	0.54
623.201	0.54
623.534	0.53
623.868	0.53
624.201	0.53
624.534	0.53
624.868	0.53
625.201	0.52
625.534	0.53
625.867	0.52
626.2	0.52
626.533	0.52
626.865	0.52
627.198	0.51
627.531	0.51
627.864	0.51
628.196	0.5
628.529	0.51
628.862	0.5
629.194	0.5
629.527	0.49
629.859	0.49
630.191	0.49
630.524	0.49
630.856	0.48
631.188	0.49
631.52	0.48
631.852	0.47
632.184	0.47
632.516	0.47
632.848	0.46
633.18	0.46
633.512	0.46
633.844	0.45
634.175	0.45
634.507	0.45
634.839	0.44
635.17	0.44
635.502	0.44
635.833	0.43
636.165	0.43
636.496	0.43
636.827	0.43
637.159	0.42
637.49	0.42
637.821	0.42
638.152	0.41
638.483	0.41
638.814	0.41
639.145	0.41
639.476	0.4
639.807	0.4
640.137	0.39
640.468	0.39
640.799	0.39
641.129	0.39
641.46	0.38
641.791	0.37
642.121	0.38
642.451	0.37
642.782	0.37
643.112	0.36
643.442	0.36
643.773	0.36
644.103	0.36
644.433	0.36
644.763	0.35
645.093	0.35
645.423	0.35
645.753	0.35
646.082	0.35
646.412	0.34
646.742	0.34
647.072	0.34
647.401	0.34
647.731	0.34
648.06	0.34
648.39	0.34
648.719	0.34
649.048	0.33
649.378	0.33
649.707	0.33
650.036	0.33
650.365	0.33
650.694	0.33
651.023	0.33
651.352	0.33
651.681	0.33
652.01	0.33
652.339	0.33
652.668	0.33
652.996	0.32
653.325	0.32
653.654	0.32
653.982	0.32
654.311	0.32
654.639	0.32
654.967	0.32
655.296	0.32
655.624	0.32
655.952	0.32
656.28	0.31
656.609	0.32
656.937	0.32
657.265	0.33
657.593	0.3
657.92	0.15
658.248	0.1
658.576	0.09
658.904	0.18
659.231	0.27
659.559	0.31
659.887	0.31
660.214	0.32
660.542	0.31
660.869	0.31
661.196	0.31
661.524	0.31
661.851	0.31
662.178	0.31
662.505	0.31
662.832	0.31
663.159	0.31
663.486	0.3
663.813	0.31
664.14	0.31
664.467	0.31
664.794	0.3
665.12	0.31
665.447	0.31
665.774	0.31
666.1	0.31
666.427	0.3
666.753	0.3
667.079	0.3
667.406	0.3
667.732	0.3
668.058	0.3
668.384	0.3
668.71	0.3
669.036	0.3
669.362	0.3
669.688	0.3
670.014	0.3
670.34	0.3
670.666	0.29
670.991	0.29
671.317	0.29
671.643	0.29
671.968	0.29
672.294	0.28
672.619	0.28
672.945	0.28
673.27	0.28
673.595	0.28
673.92	0.28
674.246	0.27
674.571	0.27
674.896	0.27
675.221	0.27
675.546	0.27
675.87	0.27
676.195	0.27
676.52	0.26
676.845	0.26
677.169	0.26
677.494	0.26
677.819	0.25
678.143	0.25
678.468	0.25
678.792	0.24
679.116	0.25
679.44	0.24
679.765	0.24
680.089	0.24
680.413	0.24
680.737	0.24
681.061	0.23
681.385	0.23
681.709	0.23
682.033	0.22
682.356	0.22
682.68	0.22
683.004	0.22
683.327	0.22
683.651	0.21
683.974	0.21
684.298	0.21
684.621	0.21
684.944	0.2
685.268	0.2
685.591	0.2
685.914	0.2
686.237	0.2
686.56	0.2
686.883	0.19
687.206	0.19
687.529	0.19
687.852	0.18
688.175	0.18
688.497	0.18
688.82	0.18
689.142	0.18
689.465	0.18
689.787	0.18
690.11	0.17
690.432	0.17
690.755	0.17
691.077	0.16
691.399	0.16
691.721	0.16
692.043	0.16
692.365	0.16
692.687	0.16
693.009	0.15
693.331	0.15
693.653	0.15
693.974	0.15
694.296	0.15
694.618	0.15
694.939	0.15
695.261	0.14
695.582	0.14
695.904	0.14
696.225	0.14
696.546	0.14
696.868	0.14
697.189	0.13
697.51	0.13
697.831	0.13
698.152	0.13
698.473	0.14
698.794	0.13
699.114	0.13
699.435	0.12
699.756	0.12
700.077	0.12
700.397	0.12
700.718	0.12
701.038	0.12
701.359	0.12
701.679	0.12
701.999	0.12
702.32	0.12
702.64	0.12
702.96	0.12
703.28	0.12
703.6	0.12
703.92	0.11
704.24	0.11
704.56	0.11
704.879	0.11
705.199	0.11
705.519	0.1
705.838	0.1
706.158	0.11
706.478	0.11
706.797	0.11
707.116	0.11
707.436	0.11
707.755	0.11
708.074	0.11
708.393	0.11
708.712	0.11
709.031	0.1
709.35	0.1
709.669	0.1
709.988	0.1
710.307	0.1
710.626	0.1
710.944	0.1
711.263	0.1
711.582	0.1
711.9	0.1
712.219	0.1
712.537	0.1
712.855	0.1
713.174	0.1
713.492	0.1
713.81	0.1
714.128	0.09
714.446	0.1
714.764	0.09
715.082	0.09
715.4	0.09
715.718	0.09
716.035	0.09
716.353	0.09
716.671	0.09
716.988	0.09
717.306	0.1
717.623	0.1
717.941	0.1
718.258	0.1
718.575	0.1
718.893	0.1
719.21	0.1
719.527	0.1
719.844	0.1
720.161	0.1
720.478	0.1
720.795	0.1
721.112	0.1
721.428	0.1
721.745	0.1
722.062	0.1
722.378	0.11
722.695	0.1
723.011	0.11
723.328	0.11
723.644	0.1
723.96	0.11
724.276	0.1
724.593	0.11
724.909	0.11
725.225	0.11
725.541	0.11
725.857	0.11
726.173	0.11
726.488	0.11
726.804	0.11
727.12	0.11
727.435	0.11
727.751	0.11
728.067	0.11
728.382	0.12
728.697	0.11
729.013	0.11
729.328	0.11
729.643	0.11
729.958	0.11
730.273	0.11
730.588	0.11
730.903	0.11
731.218	0.11
731.533	0.11
731.848	0.12
732.163	0.12
732.477	0.12
732.792	0.11
733.107	0.11
733.421	0.11
733.736	0.11
734.05	0.11
734.364	0.12
734.678	0.12
734.993	0.11
735.307	0.11
735.621	0.11
735.935	0.11
736.249	0.11
736.563	0.11
736.877	0.11
737.19	0.11
737.504	0.11
737.818	0.11
738.131	0.11
738.445	0.11
738.758	0.11
739.072	0.11
739.385	0.1
739.698	0.1
740.012	0.1
740.325	0.1
740.638	0.11
740.951	0.1
741.264	0.1
741.577	0.1
741.89	0.1
742.203	0.1
742.515	0.11
742.828	0.11
743.141	0.11
743.453	0.11
743.766	0.1
744.078	0.1
744.391	0.1
744.703	0.1
745.015	0.1
745.327	0.1
745.639	0.09
745.952	0.09
746.264	0.09
746.575	0.1
746.887	0.09
747.199	0.09
747.511	0.09
747.823	0.09
748.134	0.09
748.446	0.08
748.757	0.09
749.069	0.08
749.38	0.08
749.692	0.08
750.003	0.08
750.314	0.08
750.625	0.08
750.936	0.08
751.248	0.08
751.559	0.08
751.869	0.08
752.18	0.07
752.491	0.07
752.802	0.07
753.112	0.07
753.423	0.07
753.734	0.07
754.044	0.07
754.355	0.07
754.665	0.07
754.975	0.07
755.285	0.06
755.596	0.06
755.906	0.06
756.216	0.06
756.526	0.06
756.836	0.06
757.146	0.06
757.455	0.05
757.765	0.06
758.075	0.06
758.385	0.05
758.694	0.05
759.004	0.05
759.313	0.05
759.622	0.05
759.932	0.05
760.241	0.05
760.55	0.05
760.859	0.05
761.168	0.05
761.477	0.05
761.786	0.05
762.095	0.05
762.404	0.05
762.713	0.05
763.021	0.04
763.33	0.04
763.639	0.04
763.947	0.04
764.256	0.04
764.564	0.04
764.872	0.04
765.181	0.04
765.489	0.04
765.797	0.04
766.105	0.04
766.413	0.04
766.721	0.03
767.029	0.03
767.337	0.04
767.644	0.04
767.952	0.03
768.26	0.04
768.567	0.04
768.875	0.04
769.182	0.03
769.49	0.03
769.797	0.03
770.104	0.03
770.411	0.03
770.718	0.03
771.026	0.03
771.333	0.03
771.639	0.03
771.946	0.03
772.253	0.03
772.56	0.03
772.867	0.03
773.173	0.03
773.48	0.03
773.786	0.03
774.093	0.03
774.399	0.02
774.705	0.02
775.012	0.02
775.318	0.02
775.624	0.02
775.93	0.03
776.236	0.03
776.542	0.03
776.848	0.03
777.154	0.03
777.459	0.03
777.765	0.03
778.071	0.02
778.376	0.03
778.682	0.02
778.987	0.02
779.292	0.02
779.598	0.02
779.903	0.02
780.208	0.03
780.513	0.03
780.818	0.02
781.123	0.02
781.428	0.03
781.733	0.03
782.038	0.02
782.343	0.02
782.647	0.02
782.952	0.03
783.256	0.02
783.561	0.03
783.865	0.03
784.17	0.03
784.474	0.03
784.778	0.03
785.082	0.02
785.386	0.02
785.69	0.03
785.994	0.02
786.298	0.02
786.602	0.02
786.906	0.02
787.209	0.02
787.513	0.02
787.817	0.02
788.12	0.02
788.424	0.02
788.727	0.03
789.03	0.03
789.333	0.03
789.637	0.03
789.94	0.03
790.243	0.03
790.546	0.03
790.849	0.03
791.152	0.02
791.454	0.03
791.757	0.03
792.06	0.03
792.362	0.03
792.665	0.02
792.967	0.02
793.27	0.02
793.572	0.02
793.874	0.02
794.177	0.02
794.479	0.02
794.781	0.02
795.083	0.02
795.385	0.02
795.687	0.02
795.989	0.02
796.29	0.02
796.592	0.02
796.894	0.02
797.195	0.02
797.497	0.02
797.798	0.02
798.1	0.02
798.401	0.02
798.702	0.02
799.003	0.02
799.304	0.02
799.605	0.02
799.906	0.02
800.207	0.02
800.508	0.02
800.809	0.03
801.11	0.02
801.41	0.02
801.711	0.03
802.011	0.03
802.312	0.03
802.612	0.03
802.913	0.03
803.213	0.03
803.513	0.03
803.813	0.03
804.113	0.03
804.413	0.03
804.713	0.03
805.013	0.03
805.313	0.03
805.613	0.03
805.912	0.03
806.212	0.03
806.511	0.03
806.811	0.03
807.11	0.03
807.41	0.03
807.709	0.03
808.008	0.03
808.307	0.03
808.606	0.02
808.905	0.02
809.204	0.02
809.503	0.02
809.802	0.02
810.101	0.02
810.399	0.02
810.698	0.02
810.997	0.02
811.295	0.02
811.593	0.02
811.892	0.02
812.19	0.02
812.488	0.03
812.786	0.02
813.084	0.02
813.383	0.02
813.68	0.02
813.978	0.02
814.276	0.02
814.574	0.02
814.872	0.01
815.169	0.02
815.467	0.02
815.764	0.02
816.062	0.02
816.359	0.02
816.656	0.02
816.954	0.01
817.251	0.01
817.548	0.01
817.845	0.02
818.142	0.02
818.439	0.02
818.735	0.02
819.032	0.02
819.329	0.03
819.626	0.02
819.922	0.02
820.219	0.02
820.515	0.02
820.811	0.02
821.108	0.02
821.404	0.02
821.7	0.01
821.996	0.02
822.292	0.02
822.588	0.02
822.884	0.02
823.18	0.01
823.475	0.02
823.771	0.02
824.067	0.02
824.362	0.02
824.658	0.03
824.953	0.03
825.249	0.03
825.544	0.03
825.839	0.03
826.134	0.03
826.429	0.03
826.724	0.03
827.019	0.02
827.314	0.02
827.609	0.03
827.904	0.02
828.198	0.02
828.493	0.02
828.787	0.02
829.082	0.02
829.376	0.02
829.671	0.02
829.965	0.02
830.259	0.02
830.553	0.02
830.847	0.02
831.141	0.02
831.435	0.02
831.729	0.02
832.023	0.03
832.317	0.02
832.61	0.03
832.904	0.01
833.197	0.02
833.491	0.02
833.784	0.02
834.077	0.02
834.371	0.03
834.664	0.03
834.957	0.03
835.25	0.02
835.543	0.02
835.836	0.03
836.129	0.03
836.421	0.03
836.714	0.03
837.007	0.02
837.299	0.03
837.592	0.03
837.884	0.03
838.177	0.03
838.469	0.03
838.761	0.03
839.053	0.03
839.345	0.03
839.637	0.03
839.929	0.03
840.221	0.04
840.513	0.03
840.805	0.03
841.096	0.03
841.388	0.02
841.68	0.03
841.971	0.02
842.262	0.02
842.554	0.03
842.845	0.02
843.136	0.02
843.427	0.02
843.718	0.03
844.009	0.02
844.3	0.02
844.591	0.03
844.882	0.02
845.173	0.02
845.463	0.02
845.754	0.03
846.044	0.03
846.335	0.02
846.625	0.02
846.915	0.02
847.206	0.03
847.496	0.03
847.786	0.03
848.076	0.03
848.366	0.03
848.656	0.03
848.945	0.02
849.235	0.03
849.525	0.02
849.814	0.03
850.104	0.03
850.393	0.03
850.683	0.02
850.972	0.03
851.261	0.02
851.551	0.03
851.84	0.02
852.129	0.02
852.418	0.02
852.707	0.02
852.995	0.03
853.284	0.01
853.573	0.02
853.862	0.02
854.15	0.02
854.439	0.03
854.727	0.02
855.015	0.02
855.304	0.02
855.592	0.03
855.88	0.04
856.168	0.02
856.456	0.02
856.744	0.02
857.032	0.03
857.32	0.02
857.607	0.03
857.895	0.03
858.183	0.05
858.47	0.02
858.757	0.02
859.045	0.03
859.332	0.03
859.619	0.01
859.907	0.02
860.194	0.02
860.481	0.03
860.768	0.02
861.054	0.02
861.341	0.05
861.628	0.03
861.915	0.04
862.201	0.02
862.488	0.04
862.774	0.03
863.061	0.02
863.347	-0.01
863.633	0.02
863.919	0.03
864.205	0.04
864.491	0.02
864.777	0.03
865.063	0.03
865.349	0.02
865.635	0.02
865.92	0.01
866.206	0.01
866.492	0.02
866.777	0.03
867.062	0.01
867.348	0.01
867.633	0.03
867.918	0.01
868.203	0.03
868.488	0.04
868.773	0.03
869.058	0.01
869.343	0
869.628	0.01
869.912	0.02
870.197	-0.01
870.482	0.07
870.766	0.04
871.05	0.05
871.335	0.02
871.619	0.02
871.903	0.06
872.187	0.06
872.471	-0.01
872.755	0.06
873.039	0.05
873.323	0.06
873.607	0.05
873.89	0.04
874.174	-0.01
874.458	0.02
874.741	0.01
875.024	0.04
875.308	-0.01
875.591	-0.01
875.874	-0.02
876.157	0.08
876.44	0.01
876.723	0.05
877.006	0.14
877.289	0.1
877.572	0.08
877.854	0.05
878.137	0.13
878.42	-0.01
878.702	0.04
878.984	0.01
879.267	0
879.549	0.05
879.831	0.06
880.113	0.09
880.395	0.02
880.677	0.11
880.959	0.01
