Data from Rubpy_EV_1500_EDTA_Buffered_Absorbance_15-09-57-945.txt Node
Date: Tue Jun 30 15:09:57 BST 2026
User: fpm-admin
Spectrometer: OFX00224
Trigger mode: 0
Integration Time (sec): 7.000000E-2
Scans to average: 3
Nonlinearity correction enabled: false
Boxcar width: 0
Storing dark spectrum: false
XAxis mode: Wavelengths
Number of Pixels in Spectrum: 2136
>>>>>Begin Spectral Data<<<<<
154.91	-0
155.289	-0.6
155.669	1.08
156.048	0.52
156.428	-0
156.807	1.04
157.186	-0.52
157.566	0.59
157.945	-0.24
158.325	-1.48
158.704	-1.53
159.083	0.12
159.462	-0.68
159.842	-0
160.221	0.38
160.6	0.65
160.979	0.92
161.359	-0.6
161.738	-0
162.117	-0.4
162.496	-0
162.875	-0.21
163.254	-0.12
163.633	-0.07
164.012	-0
164.391	-0
164.77	0.15
165.149	-0
165.528	-0
165.907	-0.29
166.286	-0.48
166.665	-0
167.044	0.33
167.423	-0
167.802	-0
168.181	0.13
168.559	-0.22
168.938	-0.05
169.317	-0
169.696	-0
170.074	0.01
170.453	-0.18
170.832	0.03
171.21	-0.3
171.589	0.15
171.968	-0
172.346	-0.15
172.725	-1.18
173.103	-0.38
173.482	-0.89
173.861	-0.21
174.239	0.07
174.617	-0.1
174.996	0.48
175.374	-0
175.753	-0.14
176.131	0.16
176.51	0.07
176.888	-0.31
177.266	-0
177.645	-0.01
178.023	0.58
178.401	-0.29
178.779	-0.1
179.158	0.26
179.536	-0
179.914	-0
180.292	-0
180.67	-0.13
181.048	-0
181.427	-0
181.805	-0.42
182.183	0.25
182.561	0.35
182.939	-1.28
183.317	-0
183.695	0.39
184.073	-0.35
184.451	0.38
184.829	-0.28
185.206	-0.15
185.584	-0
185.962	0.65
186.34	0.12
186.718	-0
187.096	-1.38
187.473	-0
187.851	-0.01
188.229	-0
188.607	0.24
188.984	0.37
189.362	0.24
189.74	0.2
190.117	0.26
190.495	0.3
190.872	0.17
191.25	0.34
191.627	0.17
192.005	0.25
192.382	0.31
192.76	0.25
193.137	0.12
193.515	0.34
193.892	0.22
194.269	0.35
194.647	0.24
195.024	0.14
195.401	0.14
195.779	0.28
196.156	0.23
196.533	0.16
196.91	0.13
197.288	0.12
197.665	0.16
198.042	0.16
198.419	0.24
198.796	0.14
199.173	0.21
199.55	0.11
199.927	0.24
200.304	0.28
200.681	0.18
201.058	0.23
201.435	0.18
201.812	0.29
202.189	0.34
202.566	0.48
202.943	0.1
203.32	0.28
203.697	0.23
204.073	0.27
204.45	0.17
204.827	0.33
205.204	0.4
205.58	0.3
205.957	0.2
206.334	0.3
206.71	0.21
207.087	0.41
207.464	0.26
207.84	0.23
208.217	0.28
208.593	0.27
208.97	0.28
209.346	0.23
209.723	0.27
210.099	0.2
210.476	0.29
210.852	0.26
211.228	0.3
211.605	0.33
211.981	0.42
212.357	0.27
212.733	0.22
213.11	0.4
213.486	0.23
213.862	0.24
214.238	0.18
214.614	0.28
214.991	0.36
215.367	0.3
215.743	0.37
216.119	0.31
216.495	0.21
216.871	0.38
217.247	0.09
217.623	0.19
217.999	0.16
218.375	0.34
218.751	0.41
219.127	0.34
219.502	0.33
219.878	0.29
220.254	0.31
220.63	0.41
221.006	0.19
221.381	0.23
221.757	0.29
222.133	0.41
222.508	0.26
222.884	0.26
223.26	0.28
223.635	0.32
224.011	0.23
224.386	0.21
224.762	0.22
225.137	0.23
225.513	0.23
225.888	0.35
226.264	0.35
226.639	0.3
227.014	0.39
227.39	0.24
227.765	0.31
228.14	0.21
228.516	0.29
228.891	0.25
229.266	0.34
229.641	0.19
230.017	0.21
230.392	0.25
230.767	0.48
231.142	0.29
231.517	0.27
231.892	0.3
232.267	0.29
232.642	0.26
233.017	0.17
233.392	0.35
233.767	0.44
234.142	0.32
234.517	0.13
234.892	0.17
235.267	0.29
235.641	0.22
236.016	0.21
236.391	0.23
236.766	0.21
237.14	0.18
237.515	0.32
237.89	0.33
238.264	0.39
238.639	0.38
239.014	0.25
239.388	0.23
239.763	0.31
240.137	0.18
240.512	0.24
240.886	0.47
241.261	0.42
241.635	0.37
242.009	0.2
242.384	0.39
242.758	0.25
243.132	0.28
243.507	0.37
243.881	0.27
244.255	0.26
244.629	0.28
245.004	0.4
245.378	0.28
245.752	0.29
246.126	0.3
246.5	0.25
246.874	0.25
247.248	0.21
247.622	0.25
247.996	0.26
248.37	0.27
248.744	0.37
249.118	0.26
249.492	0.29
249.866	0.29
250.24	0.34
250.613	0.25
250.987	0.19
251.361	0.22
251.735	0.37
252.108	0.26
252.482	0.24
252.856	0.11
253.229	0.28
253.603	0.49
253.977	0.4
254.35	0.25
254.724	0.19
255.097	0.23
255.471	0.28
255.844	0.34
256.218	0.27
256.591	0.2
256.964	0.35
257.338	0.26
257.711	0.2
258.084	0.26
258.458	0.28
258.831	0.43
259.204	0.29
259.577	0.35
259.95	0.24
260.323	0.28
260.697	0.33
261.07	0.32
261.443	0.28
261.816	0.25
262.189	0.21
262.562	0.33
262.935	0.24
263.308	0.26
263.68	0.34
264.053	0.46
264.426	0.26
264.799	0.38
265.172	0.23
265.545	0.37
265.917	0.22
266.29	0.37
266.663	0.31
267.035	0.25
267.408	0.3
267.781	0.26
268.153	0.27
268.526	0.31
268.898	0.27
269.271	0.26
269.643	0.2
270.016	0.28
270.388	0.29
270.76	0.27
271.133	0.25
271.505	0.31
271.877	0.3
272.25	0.26
272.622	0.4
272.994	0.32
273.366	0.26
273.739	0.36
274.111	0.25
274.483	0.29
274.855	0.28
275.227	0.31
275.599	0.23
275.971	0.26
276.343	0.33
276.715	0.25
277.087	0.26
277.459	0.26
277.831	0.27
278.203	0.38
278.574	0.29
278.946	0.33
279.318	0.28
279.69	0.23
280.061	0.28
280.433	0.32
280.805	0.27
281.176	0.35
281.548	0.26
281.92	0.36
282.291	0.27
282.663	0.34
283.034	0.32
283.406	0.29
283.777	0.27
284.148	0.24
284.52	0.39
284.891	0.35
285.262	0.25
285.634	0.38
286.005	0.3
286.376	0.23
286.747	0.3
287.119	0.26
287.49	0.19
287.861	0.29
288.232	0.21
288.603	0.29
288.974	0.28
289.345	0.24
289.716	0.37
290.087	0.26
290.458	0.24
290.829	0.33
291.2	0.27
291.571	0.3
291.941	0.24
292.312	0.32
292.683	0.3
293.054	0.41
293.424	0.18
293.795	0.23
294.166	0.32
294.536	0.21
294.907	0.25
295.277	0.35
295.648	0.33
296.018	0.34
296.389	0.29
296.759	0.29
297.13	0.31
297.5	0.24
297.871	0.3
298.241	0.21
298.611	0.23
298.981	0.29
299.352	0.29
299.722	0.31
300.092	0.27
300.462	0.32
300.832	0.26
301.202	0.27
301.573	0.23
301.943	0.24
302.313	0.23
302.683	0.25
303.053	0.23
303.422	0.23
303.792	0.24
304.162	0.24
304.532	0.25
304.902	0.22
305.272	0.24
305.641	0.24
306.011	0.25
306.381	0.24
306.75	0.25
307.12	0.23
307.49	0.24
307.859	0.25
308.229	0.25
308.598	0.27
308.968	0.25
309.337	0.27
309.707	0.26
310.076	0.27
310.445	0.27
310.815	0.27
311.184	0.27
311.553	0.28
311.923	0.28
312.292	0.28
312.661	0.29
313.03	0.28
313.399	0.29
313.768	0.29
314.137	0.29
314.506	0.29
314.875	0.29
315.244	0.29
315.613	0.28
315.982	0.28
316.351	0.28
316.72	0.27
317.089	0.27
317.458	0.28
317.826	0.28
318.195	0.27
318.564	0.26
318.933	0.27
319.301	0.26
319.67	0.26
320.038	0.26
320.407	0.26
320.775	0.26
321.144	0.25
321.512	0.25
321.881	0.25
322.249	0.25
322.618	0.25
322.986	0.25
323.354	0.24
323.723	0.24
324.091	0.24
324.459	0.24
324.827	0.23
325.195	0.24
325.564	0.23
325.932	0.23
326.3	0.23
326.668	0.23
327.036	0.23
327.404	0.24
327.772	0.23
328.14	0.23
328.508	0.23
328.875	0.22
329.243	0.23
329.611	0.24
329.979	0.24
330.346	0.24
330.714	0.24
331.082	0.23
331.449	0.23
331.817	0.25
332.185	0.24
332.552	0.24
332.92	0.25
333.287	0.25
333.655	0.26
334.022	0.25
334.389	0.26
334.757	0.26
335.124	0.26
335.491	0.27
335.859	0.27
336.226	0.27
336.593	0.27
336.96	0.28
337.327	0.28
337.695	0.28
338.062	0.29
338.429	0.29
338.796	0.3
339.163	0.3
339.53	0.31
339.897	0.31
340.263	0.31
340.63	0.32
340.997	0.33
341.364	0.33
341.731	0.34
342.097	0.34
342.464	0.35
342.831	0.36
343.197	0.37
343.564	0.37
343.931	0.37
344.297	0.38
344.664	0.38
345.03	0.39
345.396	0.4
345.763	0.4
346.129	0.41
346.496	0.41
346.862	0.42
347.228	0.42
347.594	0.43
347.961	0.43
348.327	0.44
348.693	0.45
349.059	0.45
349.425	0.46
349.791	0.47
350.157	0.48
350.523	0.48
350.889	0.5
351.255	0.5
351.621	0.51
351.987	0.52
352.353	0.54
352.719	0.54
353.084	0.55
353.45	0.56
353.816	0.57
354.181	0.59
354.547	0.6
354.913	0.61
355.278	0.62
355.644	0.63
356.009	0.64
356.375	0.65
356.74	0.67
357.106	0.68
357.471	0.69
357.836	0.71
358.202	0.73
358.567	0.74
358.932	0.75
359.297	0.77
359.663	0.77
360.028	0.79
360.393	0.79
360.758	0.81
361.123	0.82
361.488	0.82
361.853	0.83
362.218	0.84
362.583	0.84
362.948	0.86
363.312	0.88
363.677	0.88
364.042	0.9
364.407	0.91
364.772	0.93
365.136	0.93
365.501	0.95
365.865	0.97
366.23	0.99
366.595	1.01
366.959	1.03
367.324	1.03
367.688	1.08
368.052	1.07
368.417	1.11
368.781	1.11
369.145	1.13
369.51	1.12
369.874	1.13
370.238	1.13
370.602	1.14
370.967	1.11
371.331	1.12
371.695	1.11
372.059	1.12
372.423	1.09
372.787	1.1
373.151	1.1
373.515	1.09
373.878	1.09
374.242	1.08
374.606	1.08
374.97	1.09
375.334	1.08
375.697	1.09
376.061	1.1
376.425	1.1
376.788	1.13
377.152	1.12
377.515	1.12
377.879	1.14
378.242	1.14
378.606	1.17
378.969	1.17
379.333	1.19
379.696	1.2
380.059	1.2
380.422	1.22
380.786	1.24
381.149	1.27
381.512	1.29
381.875	1.3
382.238	1.34
382.601	1.38
382.964	1.4
383.327	1.42
383.69	1.46
384.053	1.48
384.416	1.53
384.779	1.54
385.142	1.58
385.504	1.59
385.867	1.64
386.23	1.65
386.593	1.63
386.955	1.65
387.318	1.63
387.68	1.64
388.043	1.65
388.405	1.64
388.768	1.64
389.13	1.63
389.493	1.61
389.855	1.61
390.217	1.62
390.58	1.6
390.942	1.58
391.304	1.61
391.666	1.61
392.028	1.64
392.391	1.68
392.753	1.68
393.115	1.75
393.477	1.77
393.839	1.79
394.201	1.86
394.563	1.91
394.924	1.99
395.286	1.99
395.648	2.02
396.01	2.06
396.371	2.03
396.733	2.09
397.095	2.07
397.456	2.04
397.818	2.01
398.18	2.01
398.541	2.02
398.903	2.06
399.264	1.99
399.625	1.99
399.987	1.99
400.348	1.91
400.709	1.87
401.071	1.8
401.432	1.7
401.793	1.63
402.154	1.54
402.515	1.45
402.876	1.37
403.238	1.29
403.599	1.2
403.96	1.12
404.32	1.04
404.681	0.98
405.042	0.9
405.403	0.84
405.764	0.78
406.125	0.73
406.485	0.69
406.846	0.64
407.207	0.6
407.567	0.56
407.928	0.54
408.288	0.5
408.649	0.47
409.009	0.45
409.37	0.42
409.73	0.41
410.091	0.39
410.451	0.37
410.811	0.35
411.171	0.33
411.532	0.32
411.892	0.31
412.252	0.3
412.612	0.28
412.972	0.28
413.332	0.26
413.692	0.26
414.052	0.25
414.412	0.24
414.772	0.23
415.132	0.22
415.492	0.22
415.851	0.22
416.211	0.21
416.571	0.2
416.931	0.19
417.29	0.19
417.65	0.18
418.009	0.18
418.369	0.18
418.728	0.17
419.088	0.17
419.447	0.16
419.807	0.17
420.166	0.16
420.525	0.16
420.884	0.15
421.244	0.16
421.603	0.15
421.962	0.15
422.321	0.14
422.68	0.14
423.039	0.14
423.398	0.13
423.757	0.14
424.116	0.13
424.475	0.13
424.834	0.13
425.193	0.13
425.551	0.12
425.91	0.12
426.269	0.12
426.628	0.12
426.986	0.11
427.345	0.12
427.703	0.12
428.062	0.12
428.42	0.11
428.779	0.11
429.137	0.11
429.496	0.11
429.854	0.11
430.212	0.11
430.57	0.11
430.929	0.11
431.287	0.1
431.645	0.11
432.003	0.1
432.361	0.11
432.719	0.11
433.077	0.1
433.435	0.1
433.793	0.1
434.151	0.09
434.509	0.09
434.866	0.09
435.224	0.1
435.582	0.1
435.94	0.1
436.297	0.1
436.655	0.1
437.012	0.09
437.37	0.09
437.727	0.1
438.085	0.08
438.442	0.09
438.8	0.09
439.157	0.08
439.514	0.09
439.872	0.08
440.229	0.09
440.586	0.09
440.943	0.08
441.3	0.09
441.657	0.08
442.014	0.09
442.371	0.09
442.728	0.08
443.085	0.07
443.442	0.08
443.799	0.08
444.156	0.07
444.513	0.08
444.869	0.08
445.226	0.07
445.583	0.07
445.939	0.07
446.296	0.07
446.652	0.07
447.009	0.08
447.365	0.07
447.722	0.07
448.078	0.06
448.434	0.07
448.791	0.07
449.147	0.06
449.503	0.06
449.859	0.06
450.215	0.06
450.571	0.06
450.928	0.06
451.284	0.06
451.64	0.06
451.995	0.06
452.351	0.06
452.707	0.06
453.063	0.05
453.419	0.05
453.775	0.05
454.13	0.06
454.486	0.06
454.842	0.04
455.197	0.04
455.553	0.04
455.908	0.05
456.264	0.04
456.619	0.04
456.975	0.04
457.33	0.04
457.685	0.03
458.04	0.03
458.396	0.03
458.751	0.03
459.106	0.04
459.461	0.02
459.816	0.03
460.171	0.02
460.526	0.02
460.881	0.02
461.236	0.01
461.591	0.02
461.946	0.01
462.301	0.01
462.655	0.01
463.01	0.01
463.365	0
463.719	0.01
464.074	-0
464.428	-0.02
464.783	-0
465.137	-0.01
465.492	-0.01
465.846	-0.01
466.201	-0
466.555	-0.01
466.909	-0.01
467.263	-0
467.618	-0
467.972	-0.01
468.326	-0.01
468.68	-0.02
469.034	-0.01
469.388	-0.01
469.742	-0.01
470.096	-0.01
470.45	-0.01
470.804	-0.01
471.157	-0.01
471.511	-0.01
471.865	-0
472.218	-0
472.572	-0
472.926	0.01
473.279	0
473.633	0.01
473.986	0.01
474.34	0.01
474.693	0.01
475.046	0.03
475.4	0.03
475.753	0.03
476.106	0.04
476.459	0.04
476.812	0.05
477.165	0.05
477.519	0.05
477.872	0.05
478.224	0.06
478.577	0.06
478.93	0.07
479.283	0.06
479.636	0.07
479.989	0.07
480.341	0.07
480.694	0.08
481.047	0.08
481.399	0.09
481.752	0.09
482.104	0.09
482.457	0.1
482.809	0.09
483.162	0.09
483.514	0.09
483.866	0.1
484.219	0.1
484.571	0.1
484.923	0.1
485.275	0.11
485.627	0.11
485.979	0.11
486.331	0.11
486.683	0.12
487.035	0.12
487.387	0.13
487.739	0.13
488.091	0.13
488.443	0.12
488.794	0.12
489.146	0.13
489.498	0.13
489.849	0.13
490.201	0.13
490.552	0.14
490.904	0.14
491.255	0.14
491.607	0.14
491.958	0.14
492.309	0.15
492.661	0.14
493.012	0.15
493.363	0.15
493.714	0.15
494.065	0.16
494.416	0.15
494.767	0.16
495.118	0.16
495.469	0.16
495.82	0.17
496.171	0.17
496.522	0.17
496.872	0.17
497.223	0.17
497.574	0.18
497.924	0.18
498.275	0.18
498.626	0.18
498.976	0.18
499.327	0.18
499.677	0.18
500.027	0.19
500.378	0.19
500.728	0.2
501.078	0.2
501.428	0.2
501.779	0.2
502.129	0.21
502.479	0.21
502.829	0.21
503.179	0.21
503.529	0.21
503.879	0.21
504.229	0.21
504.578	0.22
504.928	0.22
505.278	0.23
505.628	0.23
505.977	0.23
506.327	0.23
506.676	0.23
507.026	0.24
507.375	0.24
507.725	0.24
508.074	0.24
508.424	0.25
508.773	0.24
509.122	0.25
509.471	0.25
509.82	0.26
510.17	0.25
510.519	0.26
510.868	0.26
511.217	0.26
511.566	0.27
511.915	0.27
512.263	0.27
512.612	0.27
512.961	0.27
513.31	0.28
513.659	0.28
514.007	0.28
514.356	0.29
514.704	0.29
515.053	0.29
515.401	0.29
515.75	0.29
516.098	0.29
516.447	0.3
516.795	0.3
517.143	0.3
517.491	0.3
517.839	0.31
518.188	0.31
518.536	0.31
518.884	0.32
519.232	0.31
519.58	0.32
519.928	0.32
520.275	0.32
520.623	0.32
520.971	0.33
521.319	0.33
521.666	0.33
522.014	0.33
522.362	0.34
522.709	0.34
523.057	0.34
523.404	0.34
523.752	0.35
524.099	0.35
524.446	0.35
524.794	0.35
525.141	0.36
525.488	0.36
525.835	0.37
526.182	0.37
526.529	0.37
526.876	0.37
527.223	0.38
527.57	0.37
527.917	0.38
528.264	0.38
528.611	0.38
528.958	0.38
529.304	0.38
529.651	0.39
529.998	0.39
530.344	0.39
530.691	0.4
531.037	0.4
531.384	0.39
531.73	0.4
532.076	0.4
532.423	0.41
532.769	0.41
533.115	0.42
533.461	0.42
533.807	0.42
534.154	0.42
534.5	0.43
534.846	0.43
535.192	0.43
535.537	0.44
535.883	0.44
536.229	0.45
536.575	0.45
536.921	0.45
537.266	0.45
537.612	0.46
537.957	0.46
538.303	0.46
538.649	0.46
538.994	0.46
539.339	0.47
539.685	0.47
540.03	0.48
540.375	0.48
540.721	0.48
541.066	0.48
541.411	0.49
541.756	0.49
542.101	0.5
542.446	0.5
542.791	0.5
543.136	0.5
543.481	0.51
543.825	0.52
544.17	0.52
544.515	0.52
544.86	0.52
545.204	0.53
545.549	0.53
545.893	0.54
546.238	0.54
546.582	0.55
546.927	0.55
547.271	0.55
547.615	0.55
547.96	0.56
548.304	0.56
548.648	0.56
548.992	0.57
549.336	0.57
549.68	0.58
550.024	0.57
550.368	0.57
550.712	0.58
551.056	0.58
551.4	0.59
551.743	0.59
552.087	0.59
552.431	0.59
552.774	0.59
553.118	0.6
553.462	0.61
553.805	0.61
554.148	0.61
554.492	0.61
554.835	0.61
555.178	0.61
555.522	0.61
555.865	0.62
556.208	0.61
556.551	0.62
556.894	0.62
557.237	0.63
557.58	0.63
557.923	0.63
558.266	0.63
558.609	0.63
558.952	0.64
559.294	0.64
559.637	0.64
559.98	0.64
560.322	0.64
560.665	0.64
561.007	0.64
561.35	0.65
561.692	0.66
562.034	0.65
562.377	0.65
562.719	0.65
563.061	0.66
563.403	0.66
563.745	0.65
564.088	0.66
564.43	0.66
564.772	0.65
565.113	0.66
565.455	0.66
565.797	0.66
566.139	0.67
566.481	0.67
566.822	0.67
567.164	0.67
567.506	0.67
567.847	0.67
568.189	0.67
568.53	0.68
568.872	0.67
569.213	0.67
569.554	0.68
569.895	0.68
570.237	0.68
570.578	0.68
570.919	0.68
571.26	0.68
571.601	0.68
571.942	0.68
572.283	0.68
572.624	0.68
572.965	0.68
573.306	0.68
573.646	0.68
573.987	0.68
574.328	0.67
574.668	0.68
575.009	0.68
575.349	0.68
575.69	0.68
576.03	0.68
576.37	0.68
576.711	0.68
577.051	0.68
577.391	0.68
577.731	0.69
578.072	0.68
578.412	0.68
578.752	0.69
579.092	0.69
579.431	0.68
579.771	0.68
580.111	0.67
580.451	0.67
580.791	0.68
581.13	0.69
581.47	0.69
581.81	0.7
582.149	0.7
582.489	0.7
582.828	0.7
583.167	0.69
583.507	0.66
583.846	0.64
584.185	0.66
584.525	0.69
584.864	0.69
585.203	0.7
585.542	0.71
585.881	0.71
586.22	0.72
586.559	0.72
586.898	0.72
587.236	0.71
587.575	0.71
587.914	0.71
588.252	0.72
588.591	0.73
588.93	0.73
589.268	0.73
589.607	0.74
589.945	0.74
590.283	0.74
590.622	0.74
590.96	0.74
591.298	0.75
591.636	0.76
591.974	0.76
592.313	0.76
592.651	0.77
592.989	0.77
593.326	0.77
593.664	0.77
594.002	0.78
594.34	0.78
594.678	0.79
595.015	0.78
595.353	0.78
595.691	0.78
596.028	0.79
596.366	0.8
596.703	0.8
597.04	0.8
597.378	0.81
597.715	0.81
598.052	0.81
598.389	0.82
598.726	0.82
599.064	0.83
599.401	0.82
599.738	0.83
600.074	0.83
600.411	0.83
600.748	0.83
601.085	0.83
601.422	0.83
601.758	0.83
602.095	0.82
602.432	0.83
602.768	0.83
603.105	0.83
603.441	0.83
603.777	0.83
604.114	0.84
604.45	0.84
604.786	0.84
605.122	0.84
605.459	0.84
605.795	0.84
606.131	0.83
606.467	0.83
606.803	0.83
607.139	0.83
607.474	0.83
607.81	0.83
608.146	0.83
608.482	0.83
608.817	0.82
609.153	0.82
609.488	0.82
609.824	0.82
610.159	0.82
610.495	0.81
610.83	0.82
611.165	0.82
611.5	0.82
611.836	0.81
612.171	0.8
612.506	0.81
612.841	0.8
613.176	0.8
613.511	0.8
613.845	0.79
614.18	0.8
614.515	0.79
614.85	0.79
615.184	0.79
615.519	0.79
615.854	0.79
616.188	0.78
616.523	0.78
616.857	0.78
617.191	0.78
617.526	0.77
617.86	0.77
618.194	0.77
618.528	0.76
618.862	0.76
619.196	0.77
619.53	0.76
619.864	0.76
620.198	0.76
620.532	0.76
620.866	0.74
621.2	0.74
621.533	0.74
621.867	0.74
622.201	0.74
622.534	0.73
622.868	0.73
623.201	0.73
623.534	0.73
623.868	0.73
624.201	0.72
624.534	0.72
624.868	0.72
625.201	0.72
625.534	0.72
625.867	0.72
626.2	0.71
626.533	0.7
626.865	0.7
627.198	0.7
627.531	0.69
627.864	0.69
628.196	0.69
628.529	0.69
628.862	0.69
629.194	0.68
629.527	0.68
629.859	0.67
630.191	0.67
630.524	0.67
630.856	0.66
631.188	0.66
631.52	0.65
631.852	0.64
632.184	0.64
632.516	0.64
632.848	0.63
633.18	0.63
633.512	0.62
633.844	0.62
634.175	0.61
634.507	0.61
634.839	0.61
635.17	0.6
635.502	0.6
635.833	0.6
636.165	0.59
636.496	0.59
636.827	0.58
637.159	0.58
637.49	0.58
637.821	0.57
638.152	0.56
638.483	0.56
638.814	0.56
639.145	0.55
639.476	0.54
639.807	0.54
640.137	0.54
640.468	0.53
640.799	0.53
641.129	0.52
641.46	0.52
641.791	0.51
642.121	0.51
642.451	0.51
642.782	0.51
643.112	0.5
643.442	0.5
643.773	0.49
644.103	0.49
644.433	0.49
644.763	0.48
645.093	0.48
645.423	0.48
645.753	0.48
646.082	0.47
646.412	0.48
646.742	0.47
647.072	0.47
647.401	0.47
647.731	0.47
648.06	0.47
648.39	0.46
648.719	0.46
649.048	0.46
649.378	0.46
649.707	0.45
650.036	0.45
650.365	0.45
650.694	0.45
651.023	0.45
651.352	0.45
651.681	0.45
652.01	0.45
652.339	0.45
652.668	0.44
652.996	0.44
653.325	0.44
653.654	0.44
653.982	0.44
654.311	0.44
654.639	0.44
654.967	0.44
655.296	0.44
655.624	0.44
655.952	0.44
656.28	0.44
656.609	0.44
656.937	0.44
657.265	0.45
657.593	0.42
657.92	0.28
658.248	0.21
658.576	0.2
658.904	0.28
659.231	0.38
659.559	0.42
659.887	0.43
660.214	0.43
660.542	0.43
660.869	0.43
661.196	0.43
661.524	0.43
661.851	0.43
662.178	0.43
662.505	0.43
662.832	0.42
663.159	0.42
663.486	0.42
663.813	0.42
664.14	0.42
664.467	0.42
664.794	0.42
665.12	0.42
665.447	0.42
665.774	0.42
666.1	0.42
666.427	0.42
666.753	0.42
667.079	0.41
667.406	0.41
667.732	0.41
668.058	0.41
668.384	0.41
668.71	0.41
669.036	0.41
669.362	0.41
669.688	0.4
670.014	0.4
670.34	0.41
670.666	0.4
670.991	0.4
671.317	0.4
671.643	0.39
671.968	0.39
672.294	0.39
672.619	0.39
672.945	0.38
673.27	0.38
673.595	0.38
673.92	0.39
674.246	0.38
674.571	0.37
674.896	0.37
675.221	0.37
675.546	0.37
675.87	0.37
676.195	0.36
676.52	0.36
676.845	0.36
677.169	0.36
677.494	0.36
677.819	0.35
678.143	0.35
678.468	0.34
678.792	0.34
679.116	0.34
679.44	0.34
679.765	0.34
680.089	0.33
680.413	0.33
680.737	0.32
681.061	0.32
681.385	0.32
681.709	0.31
682.033	0.31
682.356	0.3
682.68	0.3
683.004	0.3
683.327	0.3
683.651	0.29
683.974	0.29
684.298	0.29
684.621	0.29
684.944	0.28
685.268	0.28
685.591	0.28
685.914	0.28
686.237	0.28
686.56	0.27
686.883	0.27
687.206	0.26
687.529	0.26
687.852	0.25
688.175	0.25
688.497	0.25
688.82	0.25
689.142	0.25
689.465	0.24
689.787	0.24
690.11	0.24
690.432	0.23
690.755	0.23
691.077	0.23
691.399	0.23
691.721	0.23
692.043	0.22
692.365	0.22
692.687	0.22
693.009	0.21
693.331	0.21
693.653	0.21
693.974	0.21
694.296	0.21
694.618	0.2
694.939	0.2
695.261	0.2
695.582	0.2
695.904	0.2
696.225	0.19
696.546	0.19
696.868	0.19
697.189	0.19
697.51	0.18
697.831	0.18
698.152	0.18
698.473	0.18
698.794	0.18
699.114	0.18
699.435	0.17
699.756	0.17
700.077	0.17
700.397	0.17
700.718	0.17
701.038	0.16
701.359	0.17
701.679	0.16
701.999	0.16
702.32	0.17
702.64	0.16
702.96	0.17
703.28	0.16
703.6	0.16
703.92	0.16
704.24	0.16
704.56	0.16
704.879	0.15
705.199	0.15
705.519	0.15
705.838	0.15
706.158	0.15
706.478	0.15
706.797	0.15
707.116	0.15
707.436	0.15
707.755	0.15
708.074	0.15
708.393	0.15
708.712	0.15
709.031	0.14
709.35	0.14
709.669	0.14
709.988	0.14
710.307	0.14
710.626	0.14
710.944	0.14
711.263	0.14
711.582	0.13
711.9	0.14
712.219	0.14
712.537	0.14
712.855	0.13
713.174	0.13
713.492	0.13
713.81	0.14
714.128	0.14
714.446	0.14
714.764	0.13
715.082	0.13
715.4	0.13
715.718	0.13
716.035	0.13
716.353	0.13
716.671	0.13
716.988	0.13
717.306	0.13
717.623	0.13
717.941	0.14
718.258	0.14
718.575	0.14
718.893	0.14
719.21	0.14
719.527	0.14
719.844	0.14
720.161	0.14
720.478	0.14
720.795	0.14
721.112	0.14
721.428	0.14
721.745	0.14
722.062	0.14
722.378	0.15
722.695	0.15
723.011	0.15
723.328	0.15
723.644	0.15
723.96	0.15
724.276	0.15
724.593	0.15
724.909	0.15
725.225	0.15
725.541	0.15
725.857	0.15
726.173	0.15
726.488	0.16
726.804	0.15
727.12	0.15
727.435	0.15
727.751	0.16
728.067	0.16
728.382	0.16
728.697	0.16
729.013	0.16
729.328	0.15
729.643	0.16
729.958	0.16
730.273	0.16
730.588	0.16
730.903	0.15
731.218	0.16
731.533	0.16
731.848	0.16
732.163	0.16
732.477	0.16
732.792	0.16
733.107	0.15
733.421	0.16
733.736	0.15
734.05	0.16
734.364	0.16
734.678	0.16
734.993	0.16
735.307	0.16
735.621	0.16
735.935	0.16
736.249	0.15
736.563	0.15
736.877	0.15
737.19	0.16
737.504	0.15
737.818	0.15
738.131	0.15
738.445	0.15
738.758	0.15
739.072	0.15
739.385	0.15
739.698	0.15
740.012	0.15
740.325	0.15
740.638	0.15
740.951	0.14
741.264	0.14
741.577	0.14
741.89	0.14
742.203	0.14
742.515	0.15
742.828	0.15
743.141	0.15
743.453	0.14
743.766	0.14
744.078	0.14
744.391	0.14
744.703	0.14
745.015	0.14
745.327	0.14
745.639	0.13
745.952	0.13
746.264	0.13
746.575	0.13
746.887	0.13
747.199	0.13
747.511	0.12
747.823	0.12
748.134	0.12
748.446	0.12
748.757	0.12
749.069	0.12
749.38	0.12
749.692	0.12
750.003	0.11
750.314	0.11
750.625	0.12
750.936	0.11
751.248	0.11
751.559	0.11
751.869	0.11
752.18	0.1
752.491	0.1
752.802	0.1
753.112	0.1
753.423	0.1
753.734	0.1
754.044	0.1
754.355	0.09
754.665	0.09
754.975	0.09
755.285	0.09
755.596	0.08
755.906	0.08
756.216	0.08
756.526	0.08
756.836	0.08
757.146	0.08
757.455	0.08
757.765	0.08
758.075	0.08
758.385	0.08
758.694	0.07
759.004	0.07
759.313	0.07
759.622	0.07
759.932	0.07
760.241	0.07
760.55	0.07
760.859	0.07
761.168	0.07
761.477	0.07
761.786	0.07
762.095	0.07
762.404	0.07
762.713	0.06
763.021	0.06
763.33	0.06
763.639	0.06
763.947	0.06
764.256	0.05
764.564	0.05
764.872	0.05
765.181	0.06
765.489	0.06
765.797	0.05
766.105	0.05
766.413	0.05
766.721	0.05
767.029	0.05
767.337	0.05
767.644	0.05
767.952	0.05
768.26	0.05
768.567	0.05
768.875	0.05
769.182	0.05
769.49	0.05
769.797	0.04
770.104	0.04
770.411	0.04
770.718	0.04
771.026	0.04
771.333	0.04
771.639	0.04
771.946	0.04
772.253	0.04
772.56	0.04
772.867	0.04
773.173	0.04
773.48	0.04
773.786	0.04
774.093	0.04
774.399	0.04
774.705	0.04
775.012	0.03
775.318	0.04
775.624	0.04
775.93	0.04
776.236	0.04
776.542	0.04
776.848	0.04
777.154	0.04
777.459	0.04
777.765	0.04
778.071	0.04
778.376	0.04
778.682	0.04
778.987	0.04
779.292	0.03
779.598	0.04
779.903	0.04
780.208	0.04
780.513	0.04
780.818	0.04
781.123	0.04
781.428	0.04
781.733	0.04
782.038	0.04
782.343	0.04
782.647	0.04
782.952	0.04
783.256	0.04
783.561	0.04
783.865	0.04
784.17	0.04
784.474	0.04
784.778	0.04
785.082	0.04
785.386	0.04
785.69	0.04
785.994	0.04
786.298	0.04
786.602	0.04
786.906	0.03
787.209	0.03
787.513	0.04
787.817	0.04
788.12	0.03
788.424	0.04
788.727	0.04
789.03	0.04
789.333	0.04
789.637	0.04
789.94	0.04
790.243	0.04
790.546	0.04
790.849	0.04
791.152	0.03
791.454	0.04
791.757	0.04
792.06	0.04
792.362	0.04
792.665	0.04
792.967	0.03
793.27	0.03
793.572	0.03
793.874	0.03
794.177	0.03
794.479	0.03
794.781	0.03
795.083	0.04
795.385	0.03
795.687	0.03
795.989	0.03
796.29	0.03
796.592	0.03
796.894	0.03
797.195	0.03
797.497	0.03
797.798	0.03
798.1	0.03
798.401	0.03
798.702	0.03
799.003	0.03
799.304	0.03
799.605	0.03
799.906	0.03
800.207	0.03
800.508	0.04
800.809	0.04
801.11	0.03
801.41	0.04
801.711	0.04
802.011	0.04
802.312	0.04
802.612	0.04
802.913	0.04
803.213	0.04
803.513	0.04
803.813	0.04
804.113	0.04
804.413	0.04
804.713	0.05
805.013	0.04
805.313	0.04
805.613	0.04
805.912	0.04
806.212	0.05
806.511	0.04
806.811	0.04
807.11	0.04
807.41	0.04
807.709	0.04
808.008	0.04
808.307	0.04
808.606	0.04
808.905	0.03
809.204	0.03
809.503	0.03
809.802	0.03
810.101	0.04
810.399	0.03
810.698	0.03
810.997	0.03
811.295	0.03
811.593	0.03
811.892	0.03
812.19	0.03
812.488	0.03
812.786	0.04
813.084	0.03
813.383	0.03
813.68	0.03
813.978	0.03
814.276	0.03
814.574	0.02
814.872	0.02
815.169	0.03
815.467	0.03
815.764	0.03
816.062	0.03
816.359	0.03
816.656	0.03
816.954	0.02
817.251	0.02
817.548	0.02
817.845	0.03
818.142	0.03
818.439	0.03
818.735	0.03
819.032	0.03
819.329	0.03
819.626	0.03
819.922	0.03
820.219	0.03
820.515	0.03
820.811	0.03
821.108	0.03
821.404	0.02
821.7	0.02
821.996	0.03
822.292	0.03
822.588	0.03
822.884	0.03
823.18	0.03
823.475	0.03
823.771	0.03
824.067	0.03
824.362	0.04
824.658	0.04
824.953	0.04
825.249	0.04
825.544	0.04
825.839	0.04
826.134	0.04
826.429	0.04
826.724	0.04
827.019	0.03
827.314	0.03
827.609	0.04
827.904	0.04
828.198	0.03
828.493	0.04
828.787	0.03
829.082	0.03
829.376	0.03
829.671	0.03
829.965	0.03
830.259	0.03
830.553	0.03
830.847	0.03
831.141	0.04
831.435	0.03
831.729	0.04
832.023	0.04
832.317	0.04
832.61	0.04
832.904	0.03
833.197	0.04
833.491	0.04
833.784	0.03
834.077	0.04
834.371	0.05
834.664	0.04
834.957	0.04
835.25	0.03
835.543	0.04
835.836	0.04
836.129	0.04
836.421	0.03
836.714	0.04
837.007	0.04
837.299	0.04
837.592	0.05
837.884	0.04
838.177	0.04
838.469	0.04
838.761	0.05
839.053	0.04
839.345	0.04
839.637	0.04
839.929	0.04
840.221	0.04
840.513	0.04
840.805	0.04
841.096	0.04
841.388	0.03
841.68	0.04
841.971	0.04
842.262	0.03
842.554	0.04
842.845	0.03
843.136	0.02
843.427	0.03
843.718	0.04
844.009	0.03
844.3	0.04
844.591	0.03
844.882	0.03
845.173	0.04
845.463	0.03
845.754	0.04
846.044	0.04
846.335	0.03
846.625	0.04
846.915	0.03
847.206	0.04
847.496	0.04
847.786	0.04
848.076	0.04
848.366	0.03
848.656	0.05
848.945	0.04
849.235	0.04
849.525	0.05
849.814	0.05
850.104	0.05
850.393	0.04
850.683	0.05
850.972	0.04
851.261	0.04
851.551	0.04
851.84	0.03
852.129	0.04
852.418	0.03
852.707	0.02
852.995	0.04
853.284	0.03
853.573	0.03
853.862	0.02
854.15	0.02
854.439	0.04
854.727	0.04
855.015	0.03
855.304	0.02
855.592	0.04
855.88	0.04
856.168	0.05
856.456	0.04
856.744	0.04
857.032	0.04
857.32	0.03
857.607	0.03
857.895	0.02
858.183	0.06
858.47	0.04
858.757	0.03
859.045	0.04
859.332	0.05
859.619	0.03
859.907	0.03
860.194	0.03
860.481	0.04
860.768	0.06
861.054	0.04
861.341	0.04
861.628	0.06
861.915	0.03
862.201	0.04
862.488	0.04
862.774	0.03
863.061	0.01
863.347	0.02
863.633	0.04
863.919	0.02
864.205	0.04
864.491	0.06
864.777	0.04
865.063	0.05
865.349	0.04
865.635	0.01
865.92	0.02
866.206	0.05
866.492	0.05
866.777	0.04
867.062	0.01
867.348	0.02
867.633	0.04
867.918	-0.01
868.203	0.05
868.488	0.06
868.773	0.04
869.058	0.05
869.343	0.02
869.628	0.05
869.912	0.02
870.197	0.02
870.482	0.08
870.766	0.07
871.05	0.06
871.335	0.06
871.619	0.05
871.903	0.05
872.187	0.05
872.471	0.02
872.755	0.05
873.039	0.06
873.323	0.06
873.607	0.04
873.89	0.05
874.174	0.04
874.458	0.1
874.741	0.05
875.024	0.05
875.308	0.02
875.591	0.11
875.874	0.01
876.157	0.07
876.44	0.02
876.723	0.14
877.006	0.07
877.289	0.13
877.572	0.08
877.854	0.01
878.137	0.06
878.42	0.06
878.702	0.03
878.984	0.03
879.267	0.06
879.549	0.12
879.831	0.13
880.113	0.17
880.395	0.14
880.677	0.13
880.959	0.1
