Data from Rubpy_EV_1500_EDTA_Buffered_Absorbance_15-10-33-063.txt Node
Date: Tue Jun 30 15:10:33 BST 2026
User: fpm-admin
Spectrometer: OFX00224
Trigger mode: 0
Integration Time (sec): 7.000000E-2
Scans to average: 3
Nonlinearity correction enabled: false
Boxcar width: 0
Storing dark spectrum: false
XAxis mode: Wavelengths
Number of Pixels in Spectrum: 2136
>>>>>Begin Spectral Data<<<<<
154.91	-0
155.289	-0.13
155.669	0.12
156.048	-0.04
156.428	-0.2
156.807	0.56
157.186	-0.18
157.566	-0.23
157.945	0.3
158.325	-0
158.704	-1.3
159.083	-0
159.462	-0.8
159.842	-0.64
160.221	-0.15
160.6	-0
160.979	0.21
161.359	0.3
161.738	-0
162.117	-0.4
162.496	-0.06
162.875	-0
163.254	-0.03
163.633	1.08
164.012	-0
164.391	-0
164.77	0.19
165.149	1.02
165.528	-0
165.907	-0
166.286	-0.44
166.665	-0
167.044	0.18
167.423	0.39
167.802	-0
168.181	0.17
168.559	0.03
168.938	0.41
169.317	-0.36
169.696	0.72
170.074	0.2
170.453	0.6
170.832	0.03
171.21	1.04
171.589	-0
171.968	0.17
172.346	-0.54
172.725	-0
173.103	-0.15
173.482	-0
173.861	-0
174.239	0.58
174.617	0.02
174.996	-0.22
175.374	-0
175.753	-0.03
176.131	0.16
176.51	0.37
176.888	0.41
177.266	-0
177.645	-0.03
178.023	1.45
178.401	-0.18
178.779	0.03
179.158	0.13
179.536	-0
179.914	-0
180.292	0.52
180.67	-0.24
181.048	0.06
181.427	-0.04
181.805	-0
182.183	0.16
182.561	0.17
182.939	-0
183.317	-0
183.695	-0
184.073	-0.23
184.451	-0
184.829	-0.63
185.206	-0.17
185.584	-0.29
185.962	0.65
186.34	-0.31
186.718	-0
187.096	-0
187.473	-0
187.851	-0
188.229	-0.38
188.607	0.27
188.984	0.31
189.362	0.26
189.74	0.14
190.117	0.23
190.495	0.19
190.872	0.06
191.25	0.3
191.627	0.16
192.005	0.34
192.382	0.18
192.76	0.2
193.137	0.23
193.515	0.32
193.892	0.27
194.269	0.32
194.647	0.22
195.024	0.23
195.401	0.24
195.779	0.31
196.156	0.28
196.533	0.45
196.91	0.12
197.288	0.22
197.665	0.14
198.042	0.11
198.419	0.19
198.796	0.23
199.173	0.23
199.55	0.24
199.927	0.34
200.304	0.33
200.681	0.24
201.058	0.25
201.435	0.25
201.812	0.3
202.189	0.25
202.566	0.29
202.943	0.15
203.32	0.26
203.697	0.29
204.073	0.19
204.45	0.14
204.827	0.17
205.204	0.3
205.58	0.17
205.957	0.17
206.334	0.36
206.71	0.19
207.087	0.3
207.464	0.26
207.84	0.29
208.217	0.25
208.593	0.18
208.97	0.25
209.346	0.39
209.723	0.27
210.099	0.23
210.476	0.4
210.852	0.27
211.228	0.24
211.605	0.19
211.981	0.41
212.357	0.3
212.733	0.27
213.11	0.37
213.486	0.21
213.862	0.18
214.238	0.23
214.614	0.49
214.991	0.26
215.367	0.27
215.743	0.29
216.119	0.14
216.495	0.29
216.871	0.57
217.247	0.14
217.623	0.22
217.999	0.17
218.375	0.38
218.751	0.21
219.127	0.34
219.502	0.25
219.878	0.22
220.254	0.24
220.63	0.48
221.006	0.26
221.381	0.26
221.757	0.3
222.133	0.55
222.508	0.17
222.884	0.21
223.26	0.26
223.635	0.25
224.011	0.27
224.386	0.27
224.762	0.25
225.137	0.15
225.513	0.32
225.888	0.21
226.264	0.28
226.639	0.23
227.014	0.29
227.39	0.24
227.765	0.32
228.14	0.27
228.516	0.28
228.891	0.21
229.266	0.31
229.641	0.09
230.017	0.2
230.392	0.23
230.767	0.37
231.142	0.32
231.517	0.25
231.892	0.26
232.267	0.29
232.642	0.36
233.017	0.31
233.392	0.36
233.767	0.2
234.142	0.31
234.517	0.14
234.892	0.21
235.267	0.3
235.641	0.28
236.016	0.16
236.391	0.09
236.766	0.18
237.14	0.29
237.515	0.38
237.89	0.27
238.264	0.25
238.639	0.33
239.014	0.4
239.388	0.28
239.763	0.34
240.137	0.24
240.512	0.26
240.886	0.22
241.261	0.19
241.635	0.37
242.009	0.31
242.384	0.3
242.758	0.3
243.132	0.15
243.507	0.3
243.881	0.32
244.255	0.29
244.629	0.31
245.004	0.16
245.378	0.28
245.752	0.16
246.126	0.2
246.5	0.21
246.874	0.23
247.248	0.13
247.622	0.22
247.996	0.36
248.37	0.25
248.744	0.25
249.118	0.27
249.492	0.47
249.866	0.17
250.24	0.35
250.613	0.38
250.987	0.08
251.361	0.28
251.735	0.3
252.108	0.28
252.482	0.2
252.856	0.25
253.229	0.24
253.603	0.3
253.977	0.35
254.35	0.23
254.724	0.27
255.097	0.17
255.471	0.27
255.844	0.3
256.218	0.29
256.591	0.15
256.964	0.32
257.338	0.27
257.711	0.25
258.084	0.28
258.458	0.34
258.831	0.36
259.204	0.21
259.577	0.33
259.95	0.28
260.323	0.21
260.697	0.2
261.07	0.3
261.443	0.27
261.816	0.22
262.189	0.34
262.562	0.3
262.935	0.39
263.308	0.33
263.68	0.25
264.053	0.38
264.426	0.26
264.799	0.33
265.172	0.35
265.545	0.29
265.917	0.23
266.29	0.19
266.663	0.32
267.035	0.26
267.408	0.24
267.781	0.28
268.153	0.31
268.526	0.27
268.898	0.3
269.271	0.32
269.643	0.22
270.016	0.34
270.388	0.29
270.76	0.22
271.133	0.26
271.505	0.39
271.877	0.26
272.25	0.34
272.622	0.27
272.994	0.27
273.366	0.34
273.739	0.3
274.111	0.25
274.483	0.23
274.855	0.34
275.227	0.24
275.599	0.26
275.971	0.3
276.343	0.25
276.715	0.19
277.087	0.33
277.459	0.26
277.831	0.25
278.203	0.23
278.574	0.35
278.946	0.26
279.318	0.23
279.69	0.23
280.061	0.31
280.433	0.25
280.805	0.26
281.176	0.3
281.548	0.24
281.92	0.25
282.291	0.21
282.663	0.3
283.034	0.34
283.406	0.26
283.777	0.37
284.148	0.27
284.52	0.38
284.891	0.29
285.262	0.19
285.634	0.26
286.005	0.32
286.376	0.24
286.747	0.3
287.119	0.31
287.49	0.2
287.861	0.26
288.232	0.26
288.603	0.35
288.974	0.32
289.345	0.23
289.716	0.35
290.087	0.3
290.458	0.3
290.829	0.31
291.2	0.24
291.571	0.32
291.941	0.28
292.312	0.28
292.683	0.32
293.054	0.43
293.424	0.16
293.795	0.24
294.166	0.27
294.536	0.36
294.907	0.27
295.277	0.3
295.648	0.25
296.018	0.28
296.389	0.28
296.759	0.26
297.13	0.28
297.5	0.28
297.871	0.26
298.241	0.21
298.611	0.34
298.981	0.21
299.352	0.32
299.722	0.31
300.092	0.23
300.462	0.24
300.832	0.26
301.202	0.24
301.573	0.25
301.943	0.26
302.313	0.22
302.683	0.24
303.053	0.24
303.422	0.22
303.792	0.24
304.162	0.22
304.532	0.24
304.902	0.23
305.272	0.26
305.641	0.25
306.011	0.25
306.381	0.25
306.75	0.27
307.12	0.24
307.49	0.26
307.859	0.26
308.229	0.28
308.598	0.28
308.968	0.27
309.337	0.27
309.707	0.27
310.076	0.27
310.445	0.28
310.815	0.28
311.184	0.29
311.553	0.29
311.923	0.29
312.292	0.3
312.661	0.3
313.03	0.29
313.399	0.3
313.768	0.3
314.137	0.29
314.506	0.3
314.875	0.3
315.244	0.3
315.613	0.29
315.982	0.28
316.351	0.28
316.72	0.28
317.089	0.28
317.458	0.28
317.826	0.29
318.195	0.28
318.564	0.28
318.933	0.28
319.301	0.26
319.67	0.27
320.038	0.27
320.407	0.26
320.775	0.26
321.144	0.26
321.512	0.26
321.881	0.26
322.249	0.26
322.618	0.26
322.986	0.25
323.354	0.25
323.723	0.25
324.091	0.24
324.459	0.24
324.827	0.25
325.195	0.25
325.564	0.24
325.932	0.24
326.3	0.24
326.668	0.24
327.036	0.23
327.404	0.24
327.772	0.24
328.14	0.24
328.508	0.24
328.875	0.24
329.243	0.24
329.611	0.25
329.979	0.25
330.346	0.24
330.714	0.25
331.082	0.25
331.449	0.25
331.817	0.25
332.185	0.25
332.552	0.26
332.92	0.26
333.287	0.26
333.655	0.26
334.022	0.27
334.389	0.27
334.757	0.27
335.124	0.28
335.491	0.28
335.859	0.28
336.226	0.29
336.593	0.29
336.96	0.29
337.327	0.29
337.695	0.3
338.062	0.31
338.429	0.31
338.796	0.31
339.163	0.32
339.53	0.32
339.897	0.32
340.263	0.33
340.63	0.34
340.997	0.34
341.364	0.35
341.731	0.36
342.097	0.36
342.464	0.36
342.831	0.37
343.197	0.38
343.564	0.38
343.931	0.38
344.297	0.39
344.664	0.4
345.03	0.41
345.396	0.42
345.763	0.42
346.129	0.42
346.496	0.43
346.862	0.43
347.228	0.44
347.594	0.45
347.961	0.45
348.327	0.46
348.693	0.47
349.059	0.47
349.425	0.48
349.791	0.49
350.157	0.5
350.523	0.51
350.889	0.52
351.255	0.53
351.621	0.53
351.987	0.55
352.353	0.56
352.719	0.56
353.084	0.58
353.45	0.58
353.816	0.6
354.181	0.61
354.547	0.62
354.913	0.64
355.278	0.65
355.644	0.66
356.009	0.67
356.375	0.69
356.74	0.7
357.106	0.71
357.471	0.73
357.836	0.75
358.202	0.75
358.567	0.77
358.932	0.78
359.297	0.8
359.663	0.8
360.028	0.82
360.393	0.83
360.758	0.85
361.123	0.84
361.488	0.86
361.853	0.87
362.218	0.87
362.583	0.88
362.948	0.9
363.312	0.9
363.677	0.92
364.042	0.94
364.407	0.95
364.772	0.97
365.136	0.97
365.501	1.01
365.865	1.02
366.23	1.03
366.595	1.05
366.959	1.06
367.324	1.08
367.688	1.11
368.052	1.11
368.417	1.14
368.781	1.16
369.145	1.16
369.51	1.18
369.874	1.16
370.238	1.16
370.602	1.19
370.967	1.16
371.331	1.16
371.695	1.17
372.059	1.17
372.423	1.14
372.787	1.14
373.151	1.14
373.515	1.15
373.878	1.14
374.242	1.12
374.606	1.13
374.97	1.14
375.334	1.14
375.697	1.13
376.061	1.14
376.425	1.15
376.788	1.16
377.152	1.16
377.515	1.16
377.879	1.17
378.242	1.19
378.606	1.2
378.969	1.22
379.333	1.23
379.696	1.25
380.059	1.26
380.422	1.27
380.786	1.3
381.149	1.32
381.512	1.34
381.875	1.38
382.238	1.41
382.601	1.43
382.964	1.44
383.327	1.47
383.69	1.49
384.053	1.55
384.416	1.56
384.779	1.61
385.142	1.61
385.504	1.65
385.867	1.67
386.23	1.66
386.593	1.68
386.955	1.71
387.318	1.7
387.68	1.71
388.043	1.71
388.405	1.7
388.768	1.65
389.13	1.68
389.493	1.65
389.855	1.66
390.217	1.64
390.58	1.66
390.942	1.64
391.304	1.66
391.666	1.66
392.028	1.68
392.391	1.68
392.753	1.74
393.115	1.78
393.477	1.82
393.839	1.85
394.201	1.91
394.563	1.95
394.924	2.01
395.286	2.01
395.648	2.04
396.01	2.07
396.371	2.05
396.733	2.08
397.095	2.1
397.456	2.1
397.818	2.02
398.18	2.04
398.541	2.04
398.903	2.05
399.264	2.06
399.625	2.02
399.987	2.02
400.348	1.93
400.709	1.87
401.071	1.83
401.432	1.74
401.793	1.68
402.154	1.58
402.515	1.49
402.876	1.41
403.238	1.31
403.599	1.23
403.96	1.16
404.32	1.07
404.681	1
405.042	0.93
405.403	0.87
405.764	0.81
406.125	0.76
406.485	0.71
406.846	0.67
407.207	0.62
407.567	0.59
407.928	0.55
408.288	0.52
408.649	0.49
409.009	0.46
409.37	0.44
409.73	0.43
410.091	0.4
410.451	0.38
410.811	0.37
411.171	0.35
411.532	0.33
411.892	0.33
412.252	0.31
412.612	0.3
412.972	0.28
413.332	0.27
413.692	0.26
414.052	0.26
414.412	0.25
414.772	0.24
415.132	0.23
415.492	0.22
415.851	0.22
416.211	0.22
416.571	0.2
416.931	0.2
417.29	0.19
417.65	0.19
418.009	0.18
418.369	0.18
418.728	0.18
419.088	0.18
419.447	0.17
419.807	0.16
420.166	0.16
420.525	0.16
420.884	0.16
421.244	0.15
421.603	0.15
421.962	0.15
422.321	0.15
422.68	0.14
423.039	0.15
423.398	0.14
423.757	0.15
424.116	0.14
424.475	0.14
424.834	0.13
425.193	0.12
425.551	0.13
425.91	0.12
426.269	0.13
426.628	0.13
426.986	0.12
427.345	0.13
427.703	0.13
428.062	0.12
428.42	0.12
428.779	0.12
429.137	0.12
429.496	0.11
429.854	0.11
430.212	0.12
430.57	0.11
430.929	0.12
431.287	0.11
431.645	0.11
432.003	0.1
432.361	0.11
432.719	0.11
433.077	0.1
433.435	0.1
433.793	0.1
434.151	0.1
434.509	0.1
434.866	0.1
435.224	0.1
435.582	0.1
435.94	0.09
436.297	0.1
436.655	0.09
437.012	0.1
437.37	0.1
437.727	0.09
438.085	0.09
438.442	0.09
438.8	0.09
439.157	0.08
439.514	0.09
439.872	0.08
440.229	0.09
440.586	0.09
440.943	0.08
441.3	0.09
441.657	0.08
442.014	0.09
442.371	0.09
442.728	0.08
443.085	0.08
443.442	0.09
443.799	0.08
444.156	0.08
444.513	0.07
444.869	0.07
445.226	0.07
445.583	0.07
445.939	0.08
446.296	0.07
446.652	0.08
447.009	0.08
447.365	0.07
447.722	0.08
448.078	0.06
448.434	0.08
448.791	0.07
449.147	0.07
449.503	0.06
449.859	0.07
450.215	0.07
450.571	0.07
450.928	0.07
451.284	0.06
451.64	0.06
451.995	0.06
452.351	0.06
452.707	0.06
453.063	0.05
453.419	0.06
453.775	0.06
454.13	0.06
454.486	0.06
454.842	0.05
455.197	0.05
455.553	0.05
455.908	0.05
456.264	0.04
456.619	0.04
456.975	0.04
457.33	0.04
457.685	0.04
458.04	0.03
458.396	0.03
458.751	0.04
459.106	0.03
459.461	0.03
459.816	0.03
460.171	0.02
460.526	0.02
460.881	0.02
461.236	0.02
461.591	0.02
461.946	0.01
462.301	0.01
462.655	0.02
463.01	0.02
463.365	0.01
463.719	0.01
464.074	-0.01
464.428	-0.01
464.783	-0.01
465.137	-0.01
465.492	-0.01
465.846	-0.01
466.201	-0.01
466.555	-0.01
466.909	-0
467.263	0
467.618	0.01
467.972	-0
468.326	-0.01
468.68	-0.01
469.034	-0.01
469.388	-0.01
469.742	-0
470.096	-0.01
470.45	0
470.804	-0
471.157	-0
471.511	-0
471.865	0
472.218	0
472.572	0
472.926	0.01
473.279	0.01
473.633	0.01
473.986	0.02
474.34	0.02
474.693	0.02
475.046	0.03
475.4	0.04
475.753	0.04
476.106	0.04
476.459	0.05
476.812	0.05
477.165	0.06
477.519	0.06
477.872	0.06
478.224	0.06
478.577	0.06
478.93	0.07
479.283	0.06
479.636	0.07
479.989	0.08
480.341	0.08
480.694	0.08
481.047	0.08
481.399	0.09
481.752	0.09
482.104	0.09
482.457	0.1
482.809	0.1
483.162	0.1
483.514	0.1
483.866	0.11
484.219	0.11
484.571	0.11
484.923	0.11
485.275	0.11
485.627	0.12
485.979	0.12
486.331	0.12
486.683	0.13
487.035	0.12
487.387	0.13
487.739	0.13
488.091	0.13
488.443	0.13
488.794	0.13
489.146	0.14
489.498	0.14
489.849	0.13
490.201	0.13
490.552	0.14
490.904	0.14
491.255	0.14
491.607	0.15
491.958	0.15
492.309	0.15
492.661	0.15
493.012	0.16
493.363	0.16
493.714	0.16
494.065	0.16
494.416	0.16
494.767	0.16
495.118	0.17
495.469	0.18
495.82	0.17
496.171	0.18
496.522	0.18
496.872	0.18
497.223	0.18
497.574	0.19
497.924	0.19
498.275	0.19
498.626	0.19
498.976	0.19
499.327	0.19
499.677	0.19
500.027	0.2
500.378	0.2
500.728	0.21
501.078	0.21
501.428	0.2
501.779	0.21
502.129	0.22
502.479	0.22
502.829	0.22
503.179	0.22
503.529	0.22
503.879	0.23
504.229	0.22
504.578	0.23
504.928	0.23
505.278	0.23
505.628	0.24
505.977	0.24
506.327	0.24
506.676	0.24
507.026	0.25
507.375	0.24
507.725	0.25
508.074	0.25
508.424	0.26
508.773	0.26
509.122	0.26
509.471	0.26
509.82	0.27
510.17	0.27
510.519	0.27
510.868	0.27
511.217	0.28
511.566	0.28
511.915	0.28
512.263	0.28
512.612	0.28
512.961	0.29
513.31	0.29
513.659	0.29
514.007	0.29
514.356	0.3
514.704	0.3
515.053	0.3
515.401	0.3
515.75	0.31
516.098	0.31
516.447	0.31
516.795	0.31
517.143	0.32
517.491	0.32
517.839	0.32
518.188	0.32
518.536	0.33
518.884	0.32
519.232	0.33
519.58	0.33
519.928	0.33
520.275	0.34
520.623	0.34
520.971	0.35
521.319	0.35
521.666	0.35
522.014	0.35
522.362	0.35
522.709	0.35
523.057	0.35
523.404	0.35
523.752	0.36
524.099	0.36
524.446	0.37
524.794	0.37
525.141	0.37
525.488	0.37
525.835	0.38
526.182	0.38
526.529	0.39
526.876	0.39
527.223	0.39
527.57	0.39
527.917	0.4
528.264	0.39
528.611	0.39
528.958	0.4
529.304	0.4
529.651	0.4
529.998	0.41
530.344	0.42
530.691	0.41
531.037	0.42
531.384	0.42
531.73	0.42
532.076	0.42
532.423	0.42
532.769	0.43
533.115	0.43
533.461	0.44
533.807	0.44
534.154	0.44
534.5	0.44
534.846	0.45
535.192	0.45
535.537	0.46
535.883	0.46
536.229	0.47
536.575	0.47
536.921	0.47
537.266	0.47
537.612	0.47
537.957	0.48
538.303	0.48
538.649	0.48
538.994	0.49
539.339	0.49
539.685	0.5
540.03	0.5
540.375	0.5
540.721	0.51
541.066	0.5
541.411	0.51
541.756	0.52
542.101	0.52
542.446	0.52
542.791	0.52
543.136	0.53
543.481	0.53
543.825	0.53
544.17	0.54
544.515	0.55
544.86	0.55
545.204	0.55
545.549	0.56
545.893	0.56
546.238	0.56
546.582	0.56
546.927	0.57
547.271	0.57
547.615	0.57
547.96	0.58
548.304	0.58
548.648	0.59
548.992	0.59
549.336	0.6
549.68	0.6
550.024	0.6
550.368	0.6
550.712	0.6
551.056	0.6
551.4	0.61
551.743	0.61
552.087	0.62
552.431	0.61
552.774	0.62
553.118	0.62
553.462	0.62
553.805	0.63
554.148	0.63
554.492	0.63
554.835	0.63
555.178	0.63
555.522	0.64
555.865	0.64
556.208	0.64
556.551	0.65
556.894	0.65
557.237	0.65
557.58	0.65
557.923	0.65
558.266	0.65
558.609	0.66
558.952	0.66
559.294	0.67
559.637	0.67
559.98	0.66
560.322	0.67
560.665	0.67
561.007	0.67
561.35	0.67
561.692	0.68
562.034	0.68
562.377	0.68
562.719	0.68
563.061	0.68
563.403	0.68
563.745	0.68
564.088	0.68
564.43	0.69
564.772	0.69
565.113	0.69
565.455	0.69
565.797	0.69
566.139	0.69
566.481	0.69
566.822	0.7
567.164	0.7
567.506	0.69
567.847	0.7
568.189	0.7
568.53	0.7
568.872	0.7
569.213	0.7
569.554	0.71
569.895	0.7
570.237	0.71
570.578	0.7
570.919	0.7
571.26	0.7
571.601	0.71
571.942	0.71
572.283	0.71
572.624	0.71
572.965	0.7
573.306	0.71
573.646	0.71
573.987	0.71
574.328	0.71
574.668	0.71
575.009	0.71
575.349	0.71
575.69	0.71
576.03	0.71
576.37	0.71
576.711	0.7
577.051	0.71
577.391	0.71
577.731	0.71
578.072	0.71
578.412	0.71
578.752	0.71
579.092	0.72
579.431	0.72
579.771	0.7
580.111	0.7
580.451	0.7
580.791	0.71
581.13	0.72
581.47	0.72
581.81	0.72
582.149	0.72
582.489	0.73
582.828	0.73
583.167	0.72
583.507	0.69
583.846	0.67
584.185	0.69
584.525	0.71
584.864	0.72
585.203	0.73
585.542	0.74
585.881	0.74
586.22	0.75
586.559	0.75
586.898	0.74
587.236	0.74
587.575	0.74
587.914	0.74
588.252	0.75
588.591	0.76
588.93	0.76
589.268	0.76
589.607	0.77
589.945	0.77
590.283	0.77
590.622	0.77
590.96	0.78
591.298	0.78
591.636	0.78
591.974	0.79
592.313	0.8
592.651	0.8
592.989	0.8
593.326	0.8
593.664	0.81
594.002	0.81
594.34	0.81
594.678	0.81
595.015	0.82
595.353	0.81
595.691	0.81
596.028	0.82
596.366	0.83
596.703	0.83
597.04	0.84
597.378	0.84
597.715	0.84
598.052	0.84
598.389	0.85
598.726	0.85
599.064	0.86
599.401	0.86
599.738	0.86
600.074	0.86
600.411	0.87
600.748	0.86
601.085	0.86
601.422	0.86
601.758	0.86
602.095	0.86
602.432	0.86
602.768	0.86
603.105	0.85
603.441	0.87
603.777	0.86
604.114	0.86
604.45	0.87
604.786	0.87
605.122	0.88
605.459	0.87
605.795	0.88
606.131	0.87
606.467	0.87
606.803	0.87
607.139	0.87
607.474	0.87
607.81	0.86
608.146	0.86
608.482	0.86
608.817	0.85
609.153	0.85
609.488	0.85
609.824	0.85
610.159	0.85
610.495	0.85
610.83	0.84
611.165	0.84
611.5	0.84
611.836	0.84
612.171	0.84
612.506	0.83
612.841	0.84
613.176	0.83
613.511	0.83
613.845	0.83
614.18	0.83
614.515	0.83
614.85	0.82
615.184	0.82
615.519	0.82
615.854	0.81
616.188	0.81
616.523	0.81
616.857	0.81
617.191	0.8
617.526	0.8
617.86	0.8
618.194	0.8
618.528	0.8
618.862	0.79
619.196	0.79
619.53	0.79
619.864	0.79
620.198	0.79
620.532	0.78
620.866	0.78
621.2	0.77
621.533	0.77
621.867	0.77
622.201	0.77
622.534	0.76
622.868	0.76
623.201	0.76
623.534	0.76
623.868	0.75
624.201	0.76
624.534	0.76
624.868	0.75
625.201	0.74
625.534	0.74
625.867	0.74
626.2	0.74
626.533	0.73
626.865	0.73
627.198	0.73
627.531	0.73
627.864	0.72
628.196	0.72
628.529	0.71
628.862	0.71
629.194	0.71
629.527	0.7
629.859	0.7
630.191	0.7
630.524	0.69
630.856	0.69
631.188	0.68
631.52	0.68
631.852	0.67
632.184	0.67
632.516	0.67
632.848	0.66
633.18	0.65
633.512	0.65
633.844	0.64
634.175	0.64
634.507	0.63
634.839	0.63
635.17	0.62
635.502	0.62
635.833	0.62
636.165	0.61
636.496	0.61
636.827	0.6
637.159	0.6
637.49	0.6
637.821	0.59
638.152	0.58
638.483	0.58
638.814	0.58
639.145	0.57
639.476	0.57
639.807	0.56
640.137	0.56
640.468	0.56
640.799	0.55
641.129	0.55
641.46	0.54
641.791	0.53
642.121	0.53
642.451	0.53
642.782	0.52
643.112	0.52
643.442	0.51
643.773	0.51
644.103	0.51
644.433	0.51
644.763	0.5
645.093	0.5
645.423	0.5
645.753	0.49
646.082	0.49
646.412	0.49
646.742	0.49
647.072	0.49
647.401	0.49
647.731	0.49
648.06	0.48
648.39	0.48
648.719	0.48
649.048	0.48
649.378	0.47
649.707	0.47
650.036	0.47
650.365	0.47
650.694	0.47
651.023	0.46
651.352	0.46
651.681	0.46
652.01	0.47
652.339	0.46
652.668	0.46
652.996	0.46
653.325	0.46
653.654	0.46
653.982	0.46
654.311	0.46
654.639	0.46
654.967	0.46
655.296	0.45
655.624	0.46
655.952	0.45
656.28	0.45
656.609	0.45
656.937	0.46
657.265	0.47
657.593	0.44
657.92	0.29
658.248	0.23
658.576	0.21
658.904	0.3
659.231	0.39
659.559	0.44
659.887	0.45
660.214	0.45
660.542	0.45
660.869	0.45
661.196	0.45
661.524	0.44
661.851	0.45
662.178	0.44
662.505	0.44
662.832	0.44
663.159	0.44
663.486	0.44
663.813	0.44
664.14	0.44
664.467	0.44
664.794	0.44
665.12	0.44
665.447	0.44
665.774	0.44
666.1	0.43
666.427	0.43
666.753	0.43
667.079	0.43
667.406	0.43
667.732	0.43
668.058	0.43
668.384	0.43
668.71	0.42
669.036	0.42
669.362	0.42
669.688	0.42
670.014	0.42
670.34	0.42
670.666	0.42
670.991	0.41
671.317	0.41
671.643	0.41
671.968	0.41
672.294	0.41
672.619	0.4
672.945	0.4
673.27	0.4
673.595	0.4
673.92	0.4
674.246	0.39
674.571	0.39
674.896	0.39
675.221	0.39
675.546	0.38
675.87	0.38
676.195	0.38
676.52	0.37
676.845	0.37
677.169	0.37
677.494	0.37
677.819	0.37
678.143	0.36
678.468	0.36
678.792	0.35
679.116	0.35
679.44	0.35
679.765	0.35
680.089	0.35
680.413	0.34
680.737	0.34
681.061	0.34
681.385	0.33
681.709	0.33
682.033	0.32
682.356	0.32
682.68	0.31
683.004	0.31
683.327	0.31
683.651	0.3
683.974	0.3
684.298	0.3
684.621	0.3
684.944	0.29
685.268	0.29
685.591	0.29
685.914	0.29
686.237	0.29
686.56	0.28
686.883	0.28
687.206	0.27
687.529	0.27
687.852	0.26
688.175	0.26
688.497	0.26
688.82	0.26
689.142	0.26
689.465	0.25
689.787	0.25
690.11	0.25
690.432	0.24
690.755	0.24
691.077	0.24
691.399	0.24
691.721	0.24
692.043	0.24
692.365	0.23
692.687	0.23
693.009	0.22
693.331	0.22
693.653	0.22
693.974	0.22
694.296	0.21
694.618	0.21
694.939	0.21
695.261	0.21
695.582	0.21
695.904	0.2
696.225	0.2
696.546	0.2
696.868	0.2
697.189	0.19
697.51	0.19
697.831	0.19
698.152	0.19
698.473	0.19
698.794	0.19
699.114	0.18
699.435	0.18
699.756	0.18
700.077	0.18
700.397	0.18
700.718	0.17
701.038	0.17
701.359	0.17
701.679	0.17
701.999	0.17
702.32	0.17
702.64	0.17
702.96	0.17
703.28	0.17
703.6	0.17
703.92	0.16
704.24	0.16
704.56	0.16
704.879	0.16
705.199	0.16
705.519	0.16
705.838	0.16
706.158	0.15
706.478	0.16
706.797	0.16
707.116	0.15
707.436	0.15
707.755	0.16
708.074	0.15
708.393	0.15
708.712	0.15
709.031	0.15
709.35	0.15
709.669	0.14
709.988	0.14
710.307	0.14
710.626	0.14
710.944	0.14
711.263	0.14
711.582	0.14
711.9	0.14
712.219	0.14
712.537	0.14
712.855	0.14
713.174	0.14
713.492	0.14
713.81	0.14
714.128	0.14
714.446	0.14
714.764	0.14
715.082	0.14
715.4	0.14
715.718	0.14
716.035	0.14
716.353	0.14
716.671	0.14
716.988	0.14
717.306	0.14
717.623	0.14
717.941	0.14
718.258	0.14
718.575	0.15
718.893	0.15
719.21	0.15
719.527	0.15
719.844	0.15
720.161	0.15
720.478	0.15
720.795	0.15
721.112	0.15
721.428	0.15
721.745	0.15
722.062	0.15
722.378	0.15
722.695	0.15
723.011	0.15
723.328	0.15
723.644	0.15
723.96	0.15
724.276	0.15
724.593	0.15
724.909	0.16
725.225	0.16
725.541	0.16
725.857	0.16
726.173	0.16
726.488	0.16
726.804	0.16
727.12	0.16
727.435	0.16
727.751	0.16
728.067	0.16
728.382	0.16
728.697	0.16
729.013	0.16
729.328	0.16
729.643	0.16
729.958	0.16
730.273	0.16
730.588	0.16
730.903	0.16
731.218	0.16
731.533	0.16
731.848	0.16
732.163	0.17
732.477	0.17
732.792	0.16
733.107	0.16
733.421	0.16
733.736	0.16
734.05	0.16
734.364	0.16
734.678	0.17
734.993	0.16
735.307	0.16
735.621	0.16
735.935	0.16
736.249	0.16
736.563	0.16
736.877	0.16
737.19	0.16
737.504	0.16
737.818	0.16
738.131	0.16
738.445	0.15
738.758	0.15
739.072	0.15
739.385	0.15
739.698	0.15
740.012	0.15
740.325	0.15
740.638	0.16
740.951	0.15
741.264	0.15
741.577	0.15
741.89	0.15
742.203	0.15
742.515	0.15
742.828	0.15
743.141	0.15
743.453	0.15
743.766	0.15
744.078	0.15
744.391	0.15
744.703	0.15
745.015	0.14
745.327	0.14
745.639	0.14
745.952	0.14
746.264	0.13
746.575	0.13
746.887	0.13
747.199	0.13
747.511	0.13
747.823	0.13
748.134	0.13
748.446	0.12
748.757	0.13
749.069	0.12
749.38	0.12
749.692	0.12
750.003	0.12
750.314	0.12
750.625	0.12
750.936	0.12
751.248	0.12
751.559	0.11
751.869	0.11
752.18	0.11
752.491	0.11
752.802	0.11
753.112	0.1
753.423	0.1
753.734	0.1
754.044	0.1
754.355	0.1
754.665	0.1
754.975	0.1
755.285	0.09
755.596	0.09
755.906	0.09
756.216	0.09
756.526	0.08
756.836	0.08
757.146	0.08
757.455	0.08
757.765	0.08
758.075	0.08
758.385	0.08
758.694	0.08
759.004	0.08
759.313	0.08
759.622	0.07
759.932	0.08
760.241	0.07
760.55	0.07
760.859	0.07
761.168	0.07
761.477	0.07
761.786	0.07
762.095	0.07
762.404	0.07
762.713	0.07
763.021	0.06
763.33	0.06
763.639	0.06
763.947	0.06
764.256	0.06
764.564	0.05
764.872	0.06
765.181	0.06
765.489	0.06
765.797	0.06
766.105	0.05
766.413	0.06
766.721	0.06
767.029	0.05
767.337	0.05
767.644	0.06
767.952	0.05
768.26	0.06
768.567	0.05
768.875	0.06
769.182	0.05
769.49	0.05
769.797	0.05
770.104	0.05
770.411	0.05
770.718	0.05
771.026	0.04
771.333	0.04
771.639	0.05
771.946	0.04
772.253	0.05
772.56	0.05
772.867	0.04
773.173	0.04
773.48	0.04
773.786	0.04
774.093	0.04
774.399	0.04
774.705	0.04
775.012	0.04
775.318	0.04
775.624	0.04
775.93	0.04
776.236	0.04
776.542	0.04
776.848	0.04
777.154	0.04
777.459	0.04
777.765	0.04
778.071	0.04
778.376	0.04
778.682	0.04
778.987	0.04
779.292	0.04
779.598	0.04
779.903	0.04
780.208	0.04
780.513	0.04
780.818	0.04
781.123	0.04
781.428	0.04
781.733	0.04
782.038	0.04
782.343	0.04
782.647	0.04
782.952	0.04
783.256	0.04
783.561	0.04
783.865	0.04
784.17	0.04
784.474	0.04
784.778	0.04
785.082	0.04
785.386	0.04
785.69	0.04
785.994	0.04
786.298	0.04
786.602	0.04
786.906	0.03
787.209	0.04
787.513	0.04
787.817	0.04
788.12	0.04
788.424	0.04
788.727	0.04
789.03	0.04
789.333	0.04
789.637	0.04
789.94	0.04
790.243	0.04
790.546	0.04
790.849	0.04
791.152	0.04
791.454	0.04
791.757	0.04
792.06	0.04
792.362	0.04
792.665	0.04
792.967	0.04
793.27	0.03
793.572	0.04
793.874	0.03
794.177	0.04
794.479	0.03
794.781	0.04
795.083	0.04
795.385	0.04
795.687	0.04
795.989	0.04
796.29	0.04
796.592	0.04
796.894	0.04
797.195	0.03
797.497	0.03
797.798	0.03
798.1	0.03
798.401	0.03
798.702	0.03
799.003	0.04
799.304	0.03
799.605	0.03
799.906	0.03
800.207	0.04
800.508	0.04
800.809	0.04
801.11	0.04
801.41	0.04
801.711	0.04
802.011	0.04
802.312	0.04
802.612	0.04
802.913	0.04
803.213	0.04
803.513	0.05
803.813	0.04
804.113	0.04
804.413	0.05
804.713	0.05
805.013	0.04
805.313	0.05
805.613	0.05
805.912	0.04
806.212	0.05
806.511	0.04
806.811	0.04
807.11	0.04
807.41	0.05
807.709	0.04
808.008	0.04
808.307	0.04
808.606	0.04
808.905	0.04
809.204	0.04
809.503	0.04
809.802	0.03
810.101	0.03
810.399	0.03
810.698	0.03
810.997	0.03
811.295	0.03
811.593	0.03
811.892	0.03
812.19	0.03
812.488	0.03
812.786	0.04
813.084	0.04
813.383	0.03
813.68	0.03
813.978	0.03
814.276	0.03
814.574	0.03
814.872	0.03
815.169	0.03
815.467	0.03
815.764	0.03
816.062	0.04
816.359	0.03
816.656	0.03
816.954	0.03
817.251	0.03
817.548	0.02
817.845	0.03
818.142	0.03
818.439	0.03
818.735	0.03
819.032	0.04
819.329	0.04
819.626	0.04
819.922	0.03
820.219	0.03
820.515	0.04
820.811	0.03
821.108	0.03
821.404	0.03
821.7	0.03
821.996	0.03
822.292	0.03
822.588	0.03
822.884	0.03
823.18	0.03
823.475	0.03
823.771	0.03
824.067	0.03
824.362	0.04
824.658	0.04
824.953	0.04
825.249	0.04
825.544	0.04
825.839	0.04
826.134	0.04
826.429	0.04
826.724	0.04
827.019	0.03
827.314	0.04
827.609	0.04
827.904	0.04
828.198	0.04
828.493	0.03
828.787	0.03
829.082	0.04
829.376	0.04
829.671	0.03
829.965	0.03
830.259	0.03
830.553	0.03
830.847	0.04
831.141	0.04
831.435	0.03
831.729	0.03
832.023	0.04
832.317	0.04
832.61	0.04
832.904	0.03
833.197	0.04
833.491	0.04
833.784	0.04
834.077	0.03
834.371	0.04
834.664	0.04
834.957	0.04
835.25	0.03
835.543	0.03
835.836	0.03
836.129	0.04
836.421	0.04
836.714	0.05
837.007	0.04
837.299	0.04
837.592	0.05
837.884	0.05
838.177	0.05
838.469	0.04
838.761	0.04
839.053	0.04
839.345	0.04
839.637	0.05
839.929	0.04
840.221	0.05
840.513	0.05
840.805	0.04
841.096	0.04
841.388	0.03
841.68	0.04
841.971	0.04
842.262	0.04
842.554	0.03
842.845	0.04
843.136	0.03
843.427	0.04
843.718	0.04
844.009	0.04
844.3	0.03
844.591	0.04
844.882	0.03
845.173	0.03
845.463	0.04
845.754	0.04
846.044	0.04
846.335	0.03
846.625	0.05
846.915	0.04
847.206	0.04
847.496	0.04
847.786	0.04
848.076	0.04
848.366	0.04
848.656	0.05
848.945	0.03
849.235	0.05
849.525	0.05
849.814	0.05
850.104	0.05
850.393	0.05
850.683	0.04
850.972	0.05
851.261	0.04
851.551	0.04
851.84	0.04
852.129	0.04
852.418	0.04
852.707	0.03
852.995	0.05
853.284	0.03
853.573	0.04
853.862	0.04
854.15	0.03
854.439	0.04
854.727	0.03
855.015	0.04
855.304	0.04
855.592	0.04
855.88	0.04
856.168	0.04
856.456	0.04
856.744	0.03
857.032	0.04
857.32	0.05
857.607	0.05
857.895	0.05
858.183	0.06
858.47	0.05
858.757	0.03
859.045	0.03
859.332	0.05
859.619	0.03
859.907	0.04
860.194	0.04
860.481	0.05
860.768	0.05
861.054	0.04
861.341	0.04
861.628	0.06
861.915	0.05
862.201	0.03
862.488	0.04
862.774	0.04
863.061	0.03
863.347	0.03
863.633	0.05
863.919	0.06
864.205	0.02
864.491	0.05
864.777	0.03
865.063	0.04
865.349	0.05
865.635	0.01
865.92	0.02
866.206	0.05
866.492	0.08
866.777	0.06
867.062	0.03
867.348	0.03
867.633	0.02
867.918	0.02
868.203	0.06
868.488	0.05
868.773	0.04
869.058	0.05
869.343	0.04
869.628	0.06
869.912	0.04
870.197	0.07
870.482	0.06
870.766	0.06
871.05	0.07
871.335	0.03
871.619	0.03
871.903	0.06
872.187	0.08
872.471	0.05
872.755	0.06
873.039	0.09
873.323	0.07
873.607	0.02
873.89	0.05
874.174	0.05
874.458	0.04
874.741	0.04
875.024	0.1
875.308	0.01
875.591	0.05
875.874	-0.02
876.157	0.09
876.44	-0
876.723	0.04
877.006	0.09
877.289	0.1
877.572	0.12
877.854	0.03
878.137	0.09
878.42	0.01
878.702	0.04
878.984	0.05
879.267	0.08
879.549	0.16
879.831	0.07
880.113	0.07
880.395	0.05
880.677	0.11
880.959	-0.05
