Data from Rubpy_EV_1500_EDTA_Buffered_Absorbance_15-14-37-900.txt Node
Date: Tue Jun 30 15:14:37 BST 2026
User: fpm-admin
Spectrometer: OFX00224
Trigger mode: 0
Integration Time (sec): 7.000000E-2
Scans to average: 3
Nonlinearity correction enabled: false
Boxcar width: 0
Storing dark spectrum: false
XAxis mode: Wavelengths
Number of Pixels in Spectrum: 2136
>>>>>Begin Spectral Data<<<<<
154.91	0.06
155.289	0.54
155.669	0.48
156.048	-0
156.428	-0.2
156.807	-0
157.186	-0.41
157.566	-0.06
157.945	-0.41
158.325	-0
158.704	-1.08
159.083	-0
159.462	-0
159.842	-0
160.221	-0.38
160.6	-0
160.979	0.51
161.359	-0.45
161.738	-0
162.117	-0
162.496	1.32
162.875	-0
163.254	-0.54
163.633	0.68
164.012	-0
164.391	-0
164.77	0.26
165.149	-0.14
165.528	1.04
165.907	-0
166.286	-0.77
166.665	-0
167.044	0.51
167.423	0.39
167.802	-0
168.181	-0.11
168.559	-0.47
168.938	0.25
169.317	-0
169.696	-0
170.074	-0
170.453	-0
170.832	-0
171.21	-0.45
171.589	-0
171.968	0.34
172.346	-0.48
172.725	-0
173.103	-0.26
173.482	-0
173.861	0.12
174.239	-0
174.617	-0
174.996	-0.45
175.374	-0
175.753	0.16
176.131	0.04
176.51	0.34
176.888	-0.02
177.266	-0
177.645	0.07
178.023	0.5
178.401	-0.05
178.779	-0.15
179.158	0.03
179.536	0.09
179.914	0.14
180.292	-0
180.67	-0.17
181.048	-0
181.427	0.14
181.805	-0.18
182.183	0.58
182.561	0.22
182.939	-1.48
183.317	-0
183.695	-0
184.073	-0.37
184.451	0.46
184.829	-0.26
185.206	-0.07
185.584	-0
185.962	-0.48
186.34	-0
186.718	-0
187.096	-1.23
187.473	-0
187.851	0.17
188.229	-0.45
188.607	0.17
188.984	0.38
189.362	0.31
189.74	0.36
190.117	0.31
190.495	0.3
190.872	0.19
191.25	0.39
191.627	0.49
192.005	0.44
192.382	0.39
192.76	0.35
193.137	0.32
193.515	0.51
193.892	0.27
194.269	0.31
194.647	0.33
195.024	0.29
195.401	0.16
195.779	0.53
196.156	0.34
196.533	0.29
196.91	0.31
197.288	0.26
197.665	0.4
198.042	0.24
198.419	0.19
198.796	0.16
199.173	0.38
199.55	0.15
199.927	0.31
200.304	0.45
200.681	0.34
201.058	0.15
201.435	0.29
201.812	0.29
202.189	0.35
202.566	0.31
202.943	0.28
203.32	0.25
203.697	0.45
204.073	0.13
204.45	0.3
204.827	0.38
205.204	0.4
205.58	0.27
205.957	0.29
206.334	0.39
206.71	0.3
207.087	0.51
207.464	0.31
207.84	0.28
208.217	0.5
208.593	0.28
208.97	0.34
209.346	0.51
209.723	0.41
210.099	0.24
210.476	0.28
210.852	0.59
211.228	0.33
211.605	0.45
211.981	0.3
212.357	0.34
212.733	0.43
213.11	0.37
213.486	0.34
213.862	0.32
214.238	0.26
214.614	0.48
214.991	0.26
215.367	0.37
215.743	0.27
216.119	0.39
216.495	0.28
216.871	0.25
217.247	0.16
217.623	0.38
217.999	0.28
218.375	0.39
218.751	0.24
219.127	0.29
219.502	0.27
219.878	0.3
220.254	0.36
220.63	0.27
221.006	0.29
221.381	0.3
221.757	0.34
222.133	0.59
222.508	0.3
222.884	0.37
223.26	0.37
223.635	0.34
224.011	0.29
224.386	0.28
224.762	0.24
225.137	0.27
225.513	0.41
225.888	0.28
226.264	0.23
226.639	0.4
227.014	0.39
227.39	0.39
227.765	0.45
228.14	0.29
228.516	0.42
228.891	0.35
229.266	0.41
229.641	0.46
230.017	0.25
230.392	0.3
230.767	0.4
231.142	0.37
231.517	0.27
231.892	0.33
232.267	0.42
232.642	0.36
233.017	0.42
233.392	0.36
233.767	0.35
234.142	0.3
234.517	0.2
234.892	0.23
235.267	0.3
235.641	0.35
236.016	0.29
236.391	0.22
236.766	0.29
237.14	0.33
237.515	0.32
237.89	0.27
238.264	0.49
238.639	0.47
239.014	0.35
239.388	0.27
239.763	0.34
240.137	0.25
240.512	0.26
240.886	0.36
241.261	0.27
241.635	0.35
242.009	0.23
242.384	0.38
242.758	0.53
243.132	0.2
243.507	0.32
243.881	0.31
244.255	0.24
244.629	0.38
245.004	0.3
245.378	0.39
245.752	0.21
246.126	0.23
246.5	0.52
246.874	0.21
247.248	0.23
247.622	0.43
247.996	0.38
248.37	0.26
248.744	0.34
249.118	0.21
249.492	0.42
249.866	0.31
250.24	0.37
250.613	0.23
250.987	0.26
251.361	0.27
251.735	0.38
252.108	0.38
252.482	0.29
252.856	0.35
253.229	0.38
253.603	0.38
253.977	0.41
254.35	0.37
254.724	0.32
255.097	0.3
255.471	0.51
255.844	0.3
256.218	0.29
256.591	0.2
256.964	0.36
257.338	0.35
257.711	0.32
258.084	0.39
258.458	0.31
258.831	0.19
259.204	0.28
259.577	0.38
259.95	0.36
260.323	0.26
260.697	0.4
261.07	0.23
261.443	0.29
261.816	0.33
262.189	0.36
262.562	0.32
262.935	0.27
263.308	0.36
263.68	0.25
264.053	0.44
264.426	0.27
264.799	0.4
265.172	0.3
265.545	0.44
265.917	0.19
266.29	0.41
266.663	0.43
267.035	0.31
267.408	0.31
267.781	0.54
268.153	0.34
268.526	0.33
268.898	0.42
269.271	0.26
269.643	0.27
270.016	0.31
270.388	0.35
270.76	0.27
271.133	0.25
271.505	0.43
271.877	0.34
272.25	0.35
272.622	0.35
272.994	0.39
273.366	0.3
273.739	0.39
274.111	0.39
274.483	0.36
274.855	0.4
275.227	0.46
275.599	0.27
275.971	0.34
276.343	0.3
276.715	0.33
277.087	0.35
277.459	0.28
277.831	0.25
278.203	0.37
278.574	0.39
278.946	0.27
279.318	0.26
279.69	0.34
280.061	0.31
280.433	0.39
280.805	0.44
281.176	0.48
281.548	0.35
281.92	0.35
282.291	0.3
282.663	0.43
283.034	0.45
283.406	0.29
283.777	0.41
284.148	0.28
284.52	0.43
284.891	0.34
285.262	0.41
285.634	0.34
286.005	0.32
286.376	0.28
286.747	0.32
287.119	0.39
287.49	0.33
287.861	0.33
288.232	0.38
288.603	0.36
288.974	0.31
289.345	0.24
289.716	0.41
290.087	0.31
290.458	0.39
290.829	0.37
291.2	0.32
291.571	0.36
291.941	0.4
292.312	0.32
292.683	0.42
293.054	0.35
293.424	0.25
293.795	0.25
294.166	0.3
294.536	0.35
294.907	0.29
295.277	0.39
295.648	0.38
296.018	0.49
296.389	0.36
296.759	0.33
297.13	0.31
297.5	0.3
297.871	0.27
298.241	0.31
298.611	0.31
298.981	0.35
299.352	0.29
299.722	0.35
300.092	0.25
300.462	0.26
300.832	0.3
301.202	0.29
301.573	0.3
301.943	0.32
302.313	0.28
302.683	0.27
303.053	0.32
303.422	0.31
303.792	0.26
304.162	0.27
304.532	0.29
304.902	0.29
305.272	0.29
305.641	0.29
306.011	0.3
306.381	0.29
306.75	0.31
307.12	0.29
307.49	0.29
307.859	0.31
308.229	0.3
308.598	0.32
308.968	0.31
309.337	0.33
309.707	0.32
310.076	0.33
310.445	0.33
310.815	0.34
311.184	0.33
311.553	0.34
311.923	0.34
312.292	0.34
312.661	0.35
313.03	0.35
313.399	0.35
313.768	0.35
314.137	0.35
314.506	0.35
314.875	0.35
315.244	0.35
315.613	0.35
315.982	0.34
316.351	0.34
316.72	0.34
317.089	0.34
317.458	0.34
317.826	0.34
318.195	0.34
318.564	0.33
318.933	0.32
319.301	0.32
319.67	0.32
320.038	0.32
320.407	0.32
320.775	0.32
321.144	0.32
321.512	0.31
321.881	0.31
322.249	0.31
322.618	0.3
322.986	0.3
323.354	0.3
323.723	0.3
324.091	0.29
324.459	0.29
324.827	0.29
325.195	0.29
325.564	0.29
325.932	0.29
326.3	0.29
326.668	0.29
327.036	0.29
327.404	0.29
327.772	0.29
328.14	0.29
328.508	0.29
328.875	0.28
329.243	0.29
329.611	0.3
329.979	0.29
330.346	0.3
330.714	0.3
331.082	0.29
331.449	0.3
331.817	0.3
332.185	0.31
332.552	0.31
332.92	0.32
333.287	0.32
333.655	0.32
334.022	0.33
334.389	0.33
334.757	0.33
335.124	0.33
335.491	0.33
335.859	0.34
336.226	0.35
336.593	0.35
336.96	0.35
337.327	0.36
337.695	0.36
338.062	0.37
338.429	0.37
338.796	0.38
339.163	0.39
339.53	0.39
339.897	0.39
340.263	0.4
340.63	0.41
340.997	0.41
341.364	0.42
341.731	0.43
342.097	0.43
342.464	0.44
342.831	0.44
343.197	0.45
343.564	0.47
343.931	0.46
344.297	0.48
344.664	0.48
345.03	0.49
345.396	0.5
345.763	0.5
346.129	0.52
346.496	0.51
346.862	0.52
347.228	0.53
347.594	0.54
347.961	0.54
348.327	0.55
348.693	0.56
349.059	0.57
349.425	0.58
349.791	0.59
350.157	0.6
350.523	0.61
350.889	0.62
351.255	0.63
351.621	0.64
351.987	0.65
352.353	0.67
352.719	0.68
353.084	0.69
353.45	0.7
353.816	0.72
354.181	0.73
354.547	0.74
354.913	0.76
355.278	0.77
355.644	0.78
356.009	0.81
356.375	0.82
356.74	0.83
357.106	0.86
357.471	0.87
357.836	0.89
358.202	0.91
358.567	0.91
358.932	0.93
359.297	0.95
359.663	0.96
360.028	0.99
360.393	0.98
360.758	1
361.123	1
361.488	1.02
361.853	1.05
362.218	1.03
362.583	1.05
362.948	1.07
363.312	1.08
363.677	1.09
364.042	1.12
364.407	1.13
364.772	1.15
365.136	1.15
365.501	1.17
365.865	1.2
366.23	1.24
366.595	1.25
366.959	1.26
367.324	1.27
367.688	1.31
368.052	1.33
368.417	1.33
368.781	1.35
369.145	1.35
369.51	1.38
369.874	1.38
370.238	1.4
370.602	1.39
370.967	1.37
371.331	1.37
371.695	1.35
372.059	1.35
372.423	1.35
372.787	1.34
373.151	1.34
373.515	1.32
373.878	1.33
374.242	1.34
374.606	1.32
374.97	1.34
375.334	1.31
375.697	1.32
376.061	1.34
376.425	1.33
376.788	1.33
377.152	1.36
377.515	1.37
377.879	1.38
378.242	1.37
378.606	1.4
378.969	1.42
379.333	1.44
379.696	1.44
380.059	1.45
380.422	1.46
380.786	1.49
381.149	1.53
381.512	1.56
381.875	1.57
382.238	1.63
382.601	1.62
382.964	1.66
383.327	1.66
383.69	1.71
384.053	1.74
384.416	1.81
384.779	1.83
385.142	1.82
385.504	1.85
385.867	1.9
386.23	1.89
386.593	1.92
386.955	1.91
387.318	1.89
387.68	1.93
388.043	1.92
388.405	1.89
388.768	1.91
389.13	1.87
389.493	1.93
389.855	1.86
390.217	1.86
390.58	1.85
390.942	1.84
391.304	1.87
391.666	1.91
392.028	1.91
392.391	1.88
392.753	1.93
393.115	1.95
393.477	2
393.839	2.04
394.201	2.08
394.563	2.11
394.924	2.15
395.286	2.14
395.648	2.26
396.01	2.17
396.371	2.23
396.733	2.15
397.095	2.24
397.456	2.17
397.818	2.11
398.18	2.11
398.541	2.12
398.903	2.16
399.264	2.13
399.625	2.09
399.987	2.15
400.348	2.05
400.709	2.04
401.071	2.02
401.432	1.91
401.793	1.86
402.154	1.78
402.515	1.69
402.876	1.6
403.238	1.5
403.599	1.43
403.96	1.33
404.32	1.25
404.681	1.16
405.042	1.07
405.403	1.01
405.764	0.94
406.125	0.87
406.485	0.83
406.846	0.78
407.207	0.72
407.567	0.68
407.928	0.64
408.288	0.62
408.649	0.57
409.009	0.54
409.37	0.51
409.73	0.49
410.091	0.47
410.451	0.45
410.811	0.43
411.171	0.41
411.532	0.39
411.892	0.38
412.252	0.36
412.612	0.35
412.972	0.34
413.332	0.32
413.692	0.31
414.052	0.31
414.412	0.29
414.772	0.29
415.132	0.27
415.492	0.26
415.851	0.26
416.211	0.25
416.571	0.24
416.931	0.24
417.29	0.23
417.65	0.22
418.009	0.22
418.369	0.21
418.728	0.21
419.088	0.2
419.447	0.2
419.807	0.19
420.166	0.2
420.525	0.19
420.884	0.18
421.244	0.18
421.603	0.18
421.962	0.18
422.321	0.18
422.68	0.17
423.039	0.18
423.398	0.17
423.757	0.17
424.116	0.17
424.475	0.16
424.834	0.16
425.193	0.16
425.551	0.15
425.91	0.15
426.269	0.14
426.628	0.15
426.986	0.14
427.345	0.14
427.703	0.15
428.062	0.14
428.42	0.14
428.779	0.14
429.137	0.14
429.496	0.14
429.854	0.14
430.212	0.14
430.57	0.13
430.929	0.14
431.287	0.13
431.645	0.13
432.003	0.13
432.361	0.13
432.719	0.12
433.077	0.12
433.435	0.12
433.793	0.12
434.151	0.11
434.509	0.12
434.866	0.12
435.224	0.11
435.582	0.12
435.94	0.12
436.297	0.12
436.655	0.12
437.012	0.11
437.37	0.12
437.727	0.11
438.085	0.12
438.442	0.12
438.8	0.11
439.157	0.1
439.514	0.11
439.872	0.1
440.229	0.11
440.586	0.11
440.943	0.1
441.3	0.11
441.657	0.1
442.014	0.11
442.371	0.1
442.728	0.1
443.085	0.1
443.442	0.11
443.799	0.09
444.156	0.09
444.513	0.1
444.869	0.1
445.226	0.09
445.583	0.09
445.939	0.1
446.296	0.1
446.652	0.09
447.009	0.09
447.365	0.08
447.722	0.09
448.078	0.09
448.434	0.09
448.791	0.09
449.147	0.08
449.503	0.08
449.859	0.09
450.215	0.09
450.571	0.09
450.928	0.08
451.284	0.08
451.64	0.08
451.995	0.08
452.351	0.07
452.707	0.08
453.063	0.08
453.419	0.08
453.775	0.07
454.13	0.07
454.486	0.07
454.842	0.07
455.197	0.06
455.553	0.06
455.908	0.06
456.264	0.06
456.619	0.06
456.975	0.06
457.33	0.06
457.685	0.05
458.04	0.05
458.396	0.05
458.751	0.05
459.106	0.06
459.461	0.04
459.816	0.05
460.171	0.04
460.526	0.04
460.881	0.03
461.236	0.03
461.591	0.04
461.946	0.03
462.301	0.03
462.655	0.03
463.01	0.03
463.365	0.02
463.719	0.02
464.074	0.01
464.428	0.01
464.783	0.01
465.137	0.01
465.492	0
465.846	0.02
466.201	0.01
466.555	0.01
466.909	0.01
467.263	0.02
467.618	0.02
467.972	0.02
468.326	0.01
468.68	0
469.034	0
469.388	0.01
469.742	0.01
470.096	0.01
470.45	0.01
470.804	0.02
471.157	0.01
471.511	0.01
471.865	0.02
472.218	0.02
472.572	0.02
472.926	0.03
473.279	0.02
473.633	0.03
473.986	0.03
474.34	0.03
474.693	0.04
475.046	0.05
475.4	0.05
475.753	0.06
476.106	0.06
476.459	0.06
476.812	0.07
477.165	0.07
477.519	0.08
477.872	0.09
478.224	0.09
478.577	0.09
478.93	0.1
479.283	0.09
479.636	0.1
479.989	0.1
480.341	0.11
480.694	0.11
481.047	0.11
481.399	0.11
481.752	0.12
482.104	0.12
482.457	0.13
482.809	0.13
483.162	0.13
483.514	0.13
483.866	0.13
484.219	0.13
484.571	0.13
484.923	0.14
485.275	0.15
485.627	0.14
485.979	0.15
486.331	0.15
486.683	0.16
487.035	0.16
487.387	0.17
487.739	0.17
488.091	0.16
488.443	0.16
488.794	0.16
489.146	0.17
489.498	0.17
489.849	0.17
490.201	0.17
490.552	0.18
490.904	0.18
491.255	0.18
491.607	0.18
491.958	0.19
492.309	0.19
492.661	0.19
493.012	0.19
493.363	0.19
493.714	0.19
494.065	0.2
494.416	0.2
494.767	0.2
495.118	0.21
495.469	0.21
495.82	0.21
496.171	0.22
496.522	0.22
496.872	0.22
497.223	0.22
497.574	0.23
497.924	0.23
498.275	0.23
498.626	0.23
498.976	0.23
499.327	0.24
499.677	0.24
500.027	0.24
500.378	0.25
500.728	0.25
501.078	0.25
501.428	0.25
501.779	0.26
502.129	0.26
502.479	0.26
502.829	0.27
503.179	0.27
503.529	0.27
503.879	0.28
504.229	0.28
504.578	0.28
504.928	0.28
505.278	0.28
505.628	0.29
505.977	0.29
506.327	0.29
506.676	0.3
507.026	0.3
507.375	0.3
507.725	0.31
508.074	0.3
508.424	0.31
508.773	0.31
509.122	0.32
509.471	0.32
509.82	0.32
510.17	0.33
510.519	0.32
510.868	0.33
511.217	0.33
511.566	0.34
511.915	0.34
512.263	0.34
512.612	0.34
512.961	0.35
513.31	0.35
513.659	0.35
514.007	0.36
514.356	0.36
514.704	0.36
515.053	0.37
515.401	0.37
515.75	0.37
516.098	0.37
516.447	0.37
516.795	0.38
517.143	0.38
517.491	0.38
517.839	0.39
518.188	0.39
518.536	0.39
518.884	0.39
519.232	0.39
519.58	0.4
519.928	0.4
520.275	0.41
520.623	0.41
520.971	0.42
521.319	0.42
521.666	0.42
522.014	0.42
522.362	0.42
522.709	0.42
523.057	0.43
523.404	0.43
523.752	0.43
524.099	0.44
524.446	0.44
524.794	0.44
525.141	0.45
525.488	0.45
525.835	0.45
526.182	0.46
526.529	0.46
526.876	0.46
527.223	0.47
527.57	0.47
527.917	0.47
528.264	0.48
528.611	0.48
528.958	0.48
529.304	0.48
529.651	0.49
529.998	0.49
530.344	0.5
530.691	0.5
531.037	0.5
531.384	0.5
531.73	0.51
532.076	0.5
532.423	0.51
532.769	0.52
533.115	0.51
533.461	0.52
533.807	0.52
534.154	0.53
534.5	0.53
534.846	0.53
535.192	0.54
535.537	0.54
535.883	0.54
536.229	0.55
536.575	0.56
536.921	0.56
537.266	0.56
537.612	0.56
537.957	0.57
538.303	0.57
538.649	0.57
538.994	0.58
539.339	0.59
539.685	0.59
540.03	0.59
540.375	0.6
540.721	0.6
541.066	0.6
541.411	0.61
541.756	0.61
542.101	0.62
542.446	0.62
542.791	0.63
543.136	0.63
543.481	0.63
543.825	0.64
544.17	0.64
544.515	0.64
544.86	0.65
545.204	0.65
545.549	0.66
545.893	0.66
546.238	0.67
546.582	0.67
546.927	0.67
547.271	0.67
547.615	0.68
547.96	0.69
548.304	0.69
548.648	0.7
548.992	0.69
549.336	0.71
549.68	0.7
550.024	0.71
550.368	0.71
550.712	0.71
551.056	0.72
551.4	0.73
551.743	0.72
552.087	0.73
552.431	0.73
552.774	0.74
553.118	0.73
553.462	0.74
553.805	0.75
554.148	0.74
554.492	0.75
554.835	0.75
555.178	0.75
555.522	0.76
555.865	0.76
556.208	0.76
556.551	0.76
556.894	0.77
557.237	0.76
557.58	0.77
557.923	0.77
558.266	0.77
558.609	0.77
558.952	0.78
559.294	0.78
559.637	0.78
559.98	0.79
560.322	0.78
560.665	0.79
561.007	0.79
561.35	0.8
561.692	0.79
562.034	0.8
562.377	0.8
562.719	0.8
563.061	0.81
563.403	0.81
563.745	0.8
564.088	0.81
564.43	0.81
564.772	0.81
565.113	0.81
565.455	0.81
565.797	0.81
566.139	0.81
566.481	0.82
566.822	0.82
567.164	0.82
567.506	0.82
567.847	0.82
568.189	0.82
568.53	0.83
568.872	0.83
569.213	0.83
569.554	0.83
569.895	0.83
570.237	0.83
570.578	0.83
570.919	0.83
571.26	0.83
571.601	0.83
571.942	0.83
572.283	0.83
572.624	0.83
572.965	0.83
573.306	0.83
573.646	0.83
573.987	0.83
574.328	0.83
574.668	0.83
575.009	0.84
575.349	0.83
575.69	0.84
576.03	0.83
576.37	0.83
576.711	0.83
577.051	0.83
577.391	0.84
577.731	0.84
578.072	0.84
578.412	0.84
578.752	0.84
579.092	0.84
579.431	0.84
579.771	0.83
580.111	0.82
580.451	0.83
580.791	0.83
581.13	0.84
581.47	0.85
581.81	0.85
582.149	0.84
582.489	0.85
582.828	0.86
583.167	0.85
583.507	0.82
583.846	0.8
584.185	0.82
584.525	0.84
584.864	0.85
585.203	0.86
585.542	0.87
585.881	0.87
586.22	0.88
586.559	0.88
586.898	0.88
587.236	0.87
587.575	0.87
587.914	0.87
588.252	0.89
588.591	0.89
588.93	0.89
589.268	0.9
589.607	0.9
589.945	0.9
590.283	0.9
590.622	0.9
590.96	0.91
591.298	0.91
591.636	0.92
591.974	0.92
592.313	0.93
592.651	0.93
592.989	0.93
593.326	0.94
593.664	0.95
594.002	0.95
594.34	0.95
594.678	0.96
595.015	0.95
595.353	0.95
595.691	0.95
596.028	0.96
596.366	0.97
596.703	0.97
597.04	0.98
597.378	0.98
597.715	0.98
598.052	0.99
598.389	0.99
598.726	0.99
599.064	1
599.401	1
599.738	1
600.074	1
600.411	1
600.748	1
601.085	1
601.422	1.01
601.758	1
602.095	1.01
602.432	1.01
602.768	1.01
603.105	1.01
603.441	1.01
603.777	1.01
604.114	1.01
604.45	1.01
604.786	1.02
605.122	1.02
605.459	1.01
605.795	1.01
606.131	1.01
606.467	1.01
606.803	1.01
607.139	1.02
607.474	1.01
607.81	1
608.146	1
608.482	1.01
608.817	0.99
609.153	1
609.488	0.99
609.824	0.99
610.159	0.99
610.495	0.99
610.83	0.98
611.165	0.98
611.5	0.99
611.836	0.98
612.171	0.98
612.506	0.98
612.841	0.98
613.176	0.97
613.511	0.98
613.845	0.96
614.18	0.96
614.515	0.96
614.85	0.96
615.184	0.96
615.519	0.95
615.854	0.95
616.188	0.95
616.523	0.95
616.857	0.94
617.191	0.94
617.526	0.94
617.86	0.93
618.194	0.93
618.528	0.93
618.862	0.92
619.196	0.92
619.53	0.92
619.864	0.92
620.198	0.91
620.532	0.91
620.866	0.91
621.2	0.9
621.533	0.9
621.867	0.9
622.201	0.9
622.534	0.89
622.868	0.89
623.201	0.89
623.534	0.89
623.868	0.89
624.201	0.87
624.534	0.87
624.868	0.87
625.201	0.87
625.534	0.87
625.867	0.86
626.2	0.86
626.533	0.86
626.865	0.85
627.198	0.85
627.531	0.85
627.864	0.84
628.196	0.84
628.529	0.83
628.862	0.83
629.194	0.83
629.527	0.82
629.859	0.81
630.191	0.81
630.524	0.8
630.856	0.8
631.188	0.8
631.52	0.79
631.852	0.79
632.184	0.79
632.516	0.77
632.848	0.77
633.18	0.76
633.512	0.76
633.844	0.75
634.175	0.75
634.507	0.74
634.839	0.73
635.17	0.73
635.502	0.73
635.833	0.72
636.165	0.72
636.496	0.71
636.827	0.71
637.159	0.7
637.49	0.69
637.821	0.69
638.152	0.68
638.483	0.68
638.814	0.68
639.145	0.67
639.476	0.66
639.807	0.66
640.137	0.65
640.468	0.65
640.799	0.64
641.129	0.64
641.46	0.63
641.791	0.63
642.121	0.62
642.451	0.62
642.782	0.61
643.112	0.6
643.442	0.6
643.773	0.6
644.103	0.6
644.433	0.59
644.763	0.59
645.093	0.59
645.423	0.58
645.753	0.58
646.082	0.57
646.412	0.57
646.742	0.57
647.072	0.57
647.401	0.57
647.731	0.57
648.06	0.57
648.39	0.56
648.719	0.56
649.048	0.56
649.378	0.55
649.707	0.55
650.036	0.55
650.365	0.55
650.694	0.54
651.023	0.55
651.352	0.54
651.681	0.55
652.01	0.54
652.339	0.54
652.668	0.54
652.996	0.54
653.325	0.54
653.654	0.54
653.982	0.54
654.311	0.54
654.639	0.53
654.967	0.54
655.296	0.54
655.624	0.53
655.952	0.53
656.28	0.53
656.609	0.53
656.937	0.53
657.265	0.55
657.593	0.52
657.92	0.37
658.248	0.31
658.576	0.29
658.904	0.37
659.231	0.47
659.559	0.51
659.887	0.52
660.214	0.52
660.542	0.52
660.869	0.52
661.196	0.52
661.524	0.52
661.851	0.52
662.178	0.52
662.505	0.52
662.832	0.52
663.159	0.52
663.486	0.52
663.813	0.51
664.14	0.52
664.467	0.51
664.794	0.51
665.12	0.51
665.447	0.51
665.774	0.51
666.1	0.51
666.427	0.51
666.753	0.51
667.079	0.5
667.406	0.5
667.732	0.5
668.058	0.5
668.384	0.5
668.71	0.5
669.036	0.49
669.362	0.5
669.688	0.5
670.014	0.49
670.34	0.49
670.666	0.49
670.991	0.48
671.317	0.48
671.643	0.48
671.968	0.48
672.294	0.48
672.619	0.47
672.945	0.47
673.27	0.47
673.595	0.46
673.92	0.47
674.246	0.46
674.571	0.46
674.896	0.46
675.221	0.46
675.546	0.45
675.87	0.45
676.195	0.45
676.52	0.44
676.845	0.44
677.169	0.44
677.494	0.43
677.819	0.43
678.143	0.43
678.468	0.42
678.792	0.42
679.116	0.42
679.44	0.41
679.765	0.41
680.089	0.41
680.413	0.4
680.737	0.4
681.061	0.39
681.385	0.39
681.709	0.38
682.033	0.39
682.356	0.37
682.68	0.37
683.004	0.37
683.327	0.37
683.651	0.36
683.974	0.36
684.298	0.35
684.621	0.35
684.944	0.35
685.268	0.35
685.591	0.34
685.914	0.34
686.237	0.34
686.56	0.33
686.883	0.33
687.206	0.32
687.529	0.32
687.852	0.31
688.175	0.31
688.497	0.31
688.82	0.31
689.142	0.3
689.465	0.3
689.787	0.29
690.11	0.29
690.432	0.29
690.755	0.29
691.077	0.28
691.399	0.28
691.721	0.28
692.043	0.28
692.365	0.27
692.687	0.27
693.009	0.26
693.331	0.26
693.653	0.26
693.974	0.26
694.296	0.25
694.618	0.25
694.939	0.25
695.261	0.25
695.582	0.24
695.904	0.24
696.225	0.24
696.546	0.24
696.868	0.23
697.189	0.23
697.51	0.23
697.831	0.23
698.152	0.22
698.473	0.23
698.794	0.22
699.114	0.22
699.435	0.21
699.756	0.21
700.077	0.21
700.397	0.21
700.718	0.2
701.038	0.21
701.359	0.21
701.679	0.2
701.999	0.2
702.32	0.21
702.64	0.2
702.96	0.2
703.28	0.2
703.6	0.2
703.92	0.19
704.24	0.19
704.56	0.19
704.879	0.19
705.199	0.18
705.519	0.19
705.838	0.19
706.158	0.18
706.478	0.18
706.797	0.19
707.116	0.18
707.436	0.18
707.755	0.18
708.074	0.18
708.393	0.18
708.712	0.18
709.031	0.18
709.35	0.18
709.669	0.17
709.988	0.17
710.307	0.17
710.626	0.17
710.944	0.17
711.263	0.17
711.582	0.17
711.9	0.17
712.219	0.17
712.537	0.17
712.855	0.17
713.174	0.17
713.492	0.17
713.81	0.17
714.128	0.17
714.446	0.17
714.764	0.17
715.082	0.16
715.4	0.17
715.718	0.17
716.035	0.16
716.353	0.17
716.671	0.17
716.988	0.17
717.306	0.17
717.623	0.17
717.941	0.17
718.258	0.17
718.575	0.17
718.893	0.17
719.21	0.17
719.527	0.17
719.844	0.18
720.161	0.17
720.478	0.18
720.795	0.18
721.112	0.18
721.428	0.18
721.745	0.18
722.062	0.17
722.378	0.18
722.695	0.18
723.011	0.18
723.328	0.18
723.644	0.18
723.96	0.18
724.276	0.18
724.593	0.18
724.909	0.19
725.225	0.18
725.541	0.19
725.857	0.19
726.173	0.19
726.488	0.19
726.804	0.19
727.12	0.19
727.435	0.19
727.751	0.19
728.067	0.19
728.382	0.19
728.697	0.19
729.013	0.19
729.328	0.19
729.643	0.19
729.958	0.19
730.273	0.19
730.588	0.19
730.903	0.19
731.218	0.19
731.533	0.2
731.848	0.2
732.163	0.2
732.477	0.2
732.792	0.19
733.107	0.19
733.421	0.19
733.736	0.19
734.05	0.19
734.364	0.19
734.678	0.19
734.993	0.19
735.307	0.19
735.621	0.19
735.935	0.19
736.249	0.19
736.563	0.19
736.877	0.19
737.19	0.19
737.504	0.19
737.818	0.19
738.131	0.19
738.445	0.19
738.758	0.19
739.072	0.18
739.385	0.18
739.698	0.18
740.012	0.18
740.325	0.18
740.638	0.18
740.951	0.18
741.264	0.18
741.577	0.18
741.89	0.18
742.203	0.18
742.515	0.18
742.828	0.18
743.141	0.17
743.453	0.18
743.766	0.17
744.078	0.17
744.391	0.17
744.703	0.17
745.015	0.17
745.327	0.17
745.639	0.16
745.952	0.16
746.264	0.16
746.575	0.16
746.887	0.16
747.199	0.16
747.511	0.15
747.823	0.15
748.134	0.15
748.446	0.15
748.757	0.15
749.069	0.15
749.38	0.15
749.692	0.14
750.003	0.14
750.314	0.14
750.625	0.14
750.936	0.14
751.248	0.13
751.559	0.13
751.869	0.13
752.18	0.12
752.491	0.13
752.802	0.13
753.112	0.12
753.423	0.12
753.734	0.12
754.044	0.12
754.355	0.12
754.665	0.11
754.975	0.11
755.285	0.11
755.596	0.11
755.906	0.11
756.216	0.1
756.526	0.1
756.836	0.1
757.146	0.1
757.455	0.1
757.765	0.11
758.075	0.1
758.385	0.1
758.694	0.1
759.004	0.1
759.313	0.09
759.622	0.09
759.932	0.09
760.241	0.09
760.55	0.09
760.859	0.09
761.168	0.09
761.477	0.09
761.786	0.09
762.095	0.09
762.404	0.09
762.713	0.08
763.021	0.08
763.33	0.08
763.639	0.07
763.947	0.07
764.256	0.07
764.564	0.07
764.872	0.07
765.181	0.07
765.489	0.07
765.797	0.07
766.105	0.07
766.413	0.07
766.721	0.07
767.029	0.06
767.337	0.07
767.644	0.07
767.952	0.07
768.26	0.07
768.567	0.07
768.875	0.07
769.182	0.06
769.49	0.06
769.797	0.06
770.104	0.06
770.411	0.06
770.718	0.06
771.026	0.06
771.333	0.06
771.639	0.06
771.946	0.06
772.253	0.06
772.56	0.06
772.867	0.06
773.173	0.05
773.48	0.06
773.786	0.06
774.093	0.05
774.399	0.05
774.705	0.05
775.012	0.05
775.318	0.05
775.624	0.05
775.93	0.05
776.236	0.05
776.542	0.05
776.848	0.05
777.154	0.05
777.459	0.05
777.765	0.05
778.071	0.05
778.376	0.05
778.682	0.05
778.987	0.05
779.292	0.05
779.598	0.05
779.903	0.05
780.208	0.05
780.513	0.05
780.818	0.05
781.123	0.05
781.428	0.05
781.733	0.05
782.038	0.05
782.343	0.05
782.647	0.05
782.952	0.05
783.256	0.05
783.561	0.05
783.865	0.05
784.17	0.05
784.474	0.05
784.778	0.05
785.082	0.05
785.386	0.05
785.69	0.05
785.994	0.05
786.298	0.05
786.602	0.05
786.906	0.05
787.209	0.04
787.513	0.05
787.817	0.05
788.12	0.05
788.424	0.05
788.727	0.05
789.03	0.05
789.333	0.05
789.637	0.05
789.94	0.05
790.243	0.05
790.546	0.05
790.849	0.05
791.152	0.05
791.454	0.05
791.757	0.05
792.06	0.05
792.362	0.05
792.665	0.04
792.967	0.05
793.27	0.05
793.572	0.05
793.874	0.05
794.177	0.05
794.479	0.04
794.781	0.05
795.083	0.05
795.385	0.05
795.687	0.05
795.989	0.05
796.29	0.05
796.592	0.05
796.894	0.05
797.195	0.04
797.497	0.05
797.798	0.05
798.1	0.04
798.401	0.04
798.702	0.05
799.003	0.05
799.304	0.04
799.605	0.04
799.906	0.04
800.207	0.04
800.508	0.05
800.809	0.05
801.11	0.05
801.41	0.05
801.711	0.05
802.011	0.05
802.312	0.05
802.612	0.05
802.913	0.05
803.213	0.05
803.513	0.05
803.813	0.05
804.113	0.05
804.413	0.05
804.713	0.06
805.013	0.05
805.313	0.06
805.613	0.05
805.912	0.05
806.212	0.06
806.511	0.05
806.811	0.06
807.11	0.06
807.41	0.06
807.709	0.06
808.008	0.06
808.307	0.05
808.606	0.05
808.905	0.05
809.204	0.05
809.503	0.05
809.802	0.05
810.101	0.05
810.399	0.04
810.698	0.04
810.997	0.05
811.295	0.04
811.593	0.04
811.892	0.04
812.19	0.04
812.488	0.05
812.786	0.05
813.084	0.05
813.383	0.05
813.68	0.05
813.978	0.05
814.276	0.04
814.574	0.04
814.872	0.04
815.169	0.04
815.467	0.05
815.764	0.04
816.062	0.05
816.359	0.04
816.656	0.04
816.954	0.04
817.251	0.04
817.548	0.04
817.845	0.04
818.142	0.05
818.439	0.05
818.735	0.05
819.032	0.05
819.329	0.05
819.626	0.04
819.922	0.05
820.219	0.05
820.515	0.05
820.811	0.04
821.108	0.04
821.404	0.04
821.7	0.04
821.996	0.05
822.292	0.04
822.588	0.04
822.884	0.05
823.18	0.04
823.475	0.04
823.771	0.05
824.067	0.04
824.362	0.05
824.658	0.05
824.953	0.05
825.249	0.05
825.544	0.06
825.839	0.05
826.134	0.06
826.429	0.05
826.724	0.05
827.019	0.05
827.314	0.05
827.609	0.05
827.904	0.05
828.198	0.05
828.493	0.05
828.787	0.04
829.082	0.05
829.376	0.05
829.671	0.05
829.965	0.05
830.259	0.05
830.553	0.05
830.847	0.05
831.141	0.05
831.435	0.04
831.729	0.05
832.023	0.05
832.317	0.04
832.61	0.05
832.904	0.05
833.197	0.05
833.491	0.05
833.784	0.05
834.077	0.05
834.371	0.05
834.664	0.05
834.957	0.05
835.25	0.05
835.543	0.05
835.836	0.05
836.129	0.05
836.421	0.05
836.714	0.05
837.007	0.05
837.299	0.06
837.592	0.06
837.884	0.06
838.177	0.06
838.469	0.05
838.761	0.05
839.053	0.05
839.345	0.05
839.637	0.06
839.929	0.05
840.221	0.06
840.513	0.06
840.805	0.06
841.096	0.06
841.388	0.05
841.68	0.05
841.971	0.05
842.262	0.05
842.554	0.05
842.845	0.05
843.136	0.05
843.427	0.05
843.718	0.05
844.009	0.05
844.3	0.05
844.591	0.05
844.882	0.05
845.173	0.05
845.463	0.05
845.754	0.05
846.044	0.06
846.335	0.05
846.625	0.06
846.915	0.06
847.206	0.06
847.496	0.06
847.786	0.06
848.076	0.05
848.366	0.05
848.656	0.06
848.945	0.05
849.235	0.06
849.525	0.06
849.814	0.06
850.104	0.07
850.393	0.06
850.683	0.05
850.972	0.06
851.261	0.06
851.551	0.06
851.84	0.05
852.129	0.06
852.418	0.06
852.707	0.04
852.995	0.05
853.284	0.04
853.573	0.04
853.862	0.04
854.15	0.05
854.439	0.06
854.727	0.05
855.015	0.06
855.304	0.05
855.592	0.05
855.88	0.06
856.168	0.06
856.456	0.05
856.744	0.05
857.032	0.05
857.32	0.06
857.607	0.06
857.895	0.05
858.183	0.08
858.47	0.06
858.757	0.05
859.045	0.06
859.332	0.05
859.619	0.05
859.907	0.07
860.194	0.05
860.481	0.05
860.768	0.05
861.054	0.05
861.341	0.06
861.628	0.05
861.915	0.06
862.201	0.06
862.488	0.06
862.774	0.05
863.061	0.03
863.347	0.02
863.633	0.05
863.919	0.04
864.205	0.05
864.491	0.08
864.777	0.06
865.063	0.04
865.349	0.04
865.635	0.05
865.92	0.06
866.206	0.08
866.492	0.07
866.777	0.05
867.062	0.06
867.348	0.05
867.633	0.06
867.918	0.06
868.203	0.06
868.488	0.07
868.773	0.07
869.058	0.07
869.343	0.05
869.628	0.05
869.912	0.05
870.197	0.05
870.482	0.06
870.766	0.07
871.05	0.09
871.335	0.06
871.619	0.05
871.903	0.1
872.187	0.06
872.471	0.03
872.755	0.07
873.039	0.08
873.323	0.08
873.607	0.07
873.89	0.02
874.174	0.06
874.458	0.04
874.741	0.05
875.024	0.07
875.308	0.02
875.591	0.06
875.874	0.02
876.157	0.06
876.44	0.04
876.723	0.08
877.006	0.12
877.289	0.16
877.572	0.01
877.854	0.05
878.137	0.11
878.42	0.04
878.702	0.02
878.984	0.1
879.267	0.07
879.549	0.11
879.831	0.22
880.113	0.24
880.395	0.1
880.677	0.17
880.959	-0.02
