Data from Rubpy_EV_1500_EDTA_Buffered_Absorbance_15-11-47-881.txt Node
Date: Tue Jun 30 15:11:47 BST 2026
User: fpm-admin
Spectrometer: OFX00224
Trigger mode: 0
Integration Time (sec): 7.000000E-2
Scans to average: 3
Nonlinearity correction enabled: false
Boxcar width: 0
Storing dark spectrum: false
XAxis mode: Wavelengths
Number of Pixels in Spectrum: 2136
>>>>>Begin Spectral Data<<<<<
154.91	-0
155.289	-0.43
155.669	-0.1
156.048	-0
156.428	-0
156.807	1.04
157.186	-0
157.566	0.15
157.945	-0
158.325	-0
158.704	-1.48
159.083	0.1
159.462	-0.51
159.842	0.2
160.221	0.23
160.6	-0.25
160.979	0.51
161.359	-0.36
161.738	-0
162.117	-0
162.496	-0
162.875	0.07
163.254	-0.46
163.633	-0
164.012	-0
164.391	1.51
164.77	-0.05
165.149	-0.06
165.528	-0
165.907	-0
166.286	-0.51
166.665	-0
167.044	0.59
167.423	0.45
167.802	-0
168.181	0.88
168.559	-0.37
168.938	0.03
169.317	0.15
169.696	0.02
170.074	-0
170.453	-0.18
170.832	-0
171.21	-0
171.589	-0
171.968	-0
172.346	-0.65
172.725	-0.78
173.103	-0.4
173.482	0.12
173.861	-0.48
174.239	0.32
174.617	-0
174.996	-0
175.374	-0
175.753	-0.32
176.131	0.39
176.51	0.26
176.888	1.45
177.266	-0
177.645	-0.01
178.023	0.91
178.401	-0.3
178.779	-0.2
179.158	-0
179.536	-0
179.914	-0
180.292	-0
180.67	-0.09
181.048	-0
181.427	-0.09
181.805	-0
182.183	-0
182.561	0.05
182.939	-0.85
183.317	-0
183.695	-0
184.073	-0.46
184.451	0.62
184.829	-0.3
185.206	0.08
185.584	-0.1
185.962	-0.44
186.34	1.3
186.718	-0
187.096	-1.18
187.473	-0
187.851	0.45
188.229	0.22
188.607	0.17
188.984	0.3
189.362	0.27
189.74	0.28
190.117	0.34
190.495	0.23
190.872	0.33
191.25	0.31
191.627	0.29
192.005	0.43
192.382	0.29
192.76	0.21
193.137	0.29
193.515	0.29
193.892	0.17
194.269	0.31
194.647	0.41
195.024	0.18
195.401	0.29
195.779	0.32
196.156	0.31
196.533	0.45
196.91	0.24
197.288	0.18
197.665	0.23
198.042	0.14
198.419	0.25
198.796	0.28
199.173	0.28
199.55	0.23
199.927	0.37
200.304	0.33
200.681	0.26
201.058	0.19
201.435	0.33
201.812	0.27
202.189	0.29
202.566	0.41
202.943	0.21
203.32	0.22
203.697	0.29
204.073	0.22
204.45	0.17
204.827	0.26
205.204	0.38
205.58	0.41
205.957	0.22
206.334	0.37
206.71	0.28
207.087	0.42
207.464	0.3
207.84	0.32
208.217	0.39
208.593	0.3
208.97	0.26
209.346	0.43
209.723	0.48
210.099	0.28
210.476	0.35
210.852	0.32
211.228	0.3
211.605	0.31
211.981	0.35
212.357	0.41
212.733	0.24
213.11	0.45
213.486	0.25
213.862	0.26
214.238	0.37
214.614	0.32
214.991	0.29
215.367	0.33
215.743	0.39
216.119	0.33
216.495	0.35
216.871	0.22
217.247	0.31
217.623	0.21
217.999	0.22
218.375	0.52
218.751	0.14
219.127	0.34
219.502	0.3
219.878	0.29
220.254	0.38
220.63	0.33
221.006	0.28
221.381	0.31
221.757	0.28
222.133	0.4
222.508	0.26
222.884	0.25
223.26	0.3
223.635	0.44
224.011	0.19
224.386	0.32
224.762	0.32
225.137	0.25
225.513	0.37
225.888	0.3
226.264	0.33
226.639	0.4
227.014	0.38
227.39	0.22
227.765	0.45
228.14	0.3
228.516	0.45
228.891	0.41
229.266	0.28
229.641	0.3
230.017	0.31
230.392	0.27
230.767	0.38
231.142	0.45
231.517	0.48
231.892	0.28
232.267	0.31
232.642	0.34
233.017	0.34
233.392	0.5
233.767	0.28
234.142	0.25
234.517	0.32
234.892	0.32
235.267	0.35
235.641	0.41
236.016	0.49
236.391	0.19
236.766	0.41
237.14	0.31
237.515	0.24
237.89	0.44
238.264	0.35
238.639	0.35
239.014	0.37
239.388	0.26
239.763	0.34
240.137	0.25
240.512	0.26
240.886	0.24
241.261	0.38
241.635	0.43
242.009	0.24
242.384	0.57
242.758	0.22
243.132	0.38
243.507	0.44
243.881	0.33
244.255	0.31
244.629	0.38
245.004	0.41
245.378	0.32
245.752	0.35
246.126	0.29
246.5	0.33
246.874	0.3
247.248	0.11
247.622	0.42
247.996	0.42
248.37	0.31
248.744	0.32
249.118	0.27
249.492	0.41
249.866	0.22
250.24	0.39
250.613	0.3
250.987	0.26
251.361	0.23
251.735	0.31
252.108	0.33
252.482	0.3
252.856	0.31
253.229	0.32
253.603	0.32
253.977	0.23
254.35	0.31
254.724	0.3
255.097	0.24
255.471	0.4
255.844	0.37
256.218	0.38
256.591	0.19
256.964	0.35
257.338	0.36
257.711	0.36
258.084	0.29
258.458	0.52
258.831	0.42
259.204	0.19
259.577	0.34
259.95	0.3
260.323	0.39
260.697	0.29
261.07	0.25
261.443	0.35
261.816	0.27
262.189	0.28
262.562	0.3
262.935	0.38
263.308	0.29
263.68	0.31
264.053	0.39
264.426	0.29
264.799	0.32
265.172	0.41
265.545	0.26
265.917	0.24
266.29	0.34
266.663	0.38
267.035	0.28
267.408	0.29
267.781	0.31
268.153	0.39
268.526	0.42
268.898	0.32
269.271	0.38
269.643	0.41
270.016	0.32
270.388	0.45
270.76	0.29
271.133	0.38
271.505	0.39
271.877	0.26
272.25	0.32
272.622	0.36
272.994	0.38
273.366	0.32
273.739	0.38
274.111	0.37
274.483	0.34
274.855	0.38
275.227	0.39
275.599	0.29
275.971	0.33
276.343	0.33
276.715	0.26
277.087	0.44
277.459	0.38
277.831	0.32
278.203	0.32
278.574	0.35
278.946	0.26
279.318	0.23
279.69	0.32
280.061	0.35
280.433	0.37
280.805	0.32
281.176	0.34
281.548	0.28
281.92	0.4
282.291	0.3
282.663	0.38
283.034	0.39
283.406	0.31
283.777	0.39
284.148	0.36
284.52	0.39
284.891	0.26
285.262	0.34
285.634	0.29
286.005	0.28
286.376	0.26
286.747	0.28
287.119	0.37
287.49	0.25
287.861	0.35
288.232	0.27
288.603	0.34
288.974	0.29
289.345	0.22
289.716	0.35
290.087	0.3
290.458	0.38
290.829	0.35
291.2	0.36
291.571	0.3
291.941	0.22
292.312	0.33
292.683	0.35
293.054	0.33
293.424	0.16
293.795	0.36
294.166	0.31
294.536	0.32
294.907	0.4
295.277	0.31
295.648	0.29
296.018	0.35
296.389	0.32
296.759	0.31
297.13	0.39
297.5	0.29
297.871	0.29
298.241	0.24
298.611	0.31
298.981	0.31
299.352	0.28
299.722	0.28
300.092	0.27
300.462	0.37
300.832	0.28
301.202	0.31
301.573	0.33
301.943	0.28
302.313	0.3
302.683	0.27
303.053	0.26
303.422	0.29
303.792	0.26
304.162	0.27
304.532	0.26
304.902	0.25
305.272	0.27
305.641	0.28
306.011	0.3
306.381	0.27
306.75	0.27
307.12	0.27
307.49	0.29
307.859	0.3
308.229	0.29
308.598	0.3
308.968	0.29
309.337	0.31
309.707	0.31
310.076	0.31
310.445	0.3
310.815	0.31
311.184	0.31
311.553	0.32
311.923	0.32
312.292	0.32
312.661	0.33
313.03	0.33
313.399	0.33
313.768	0.34
314.137	0.32
314.506	0.33
314.875	0.32
315.244	0.33
315.613	0.33
315.982	0.33
316.351	0.32
316.72	0.32
317.089	0.32
317.458	0.32
317.826	0.32
318.195	0.31
318.564	0.31
318.933	0.31
319.301	0.3
319.67	0.3
320.038	0.3
320.407	0.3
320.775	0.29
321.144	0.3
321.512	0.29
321.881	0.29
322.249	0.29
322.618	0.29
322.986	0.28
323.354	0.28
323.723	0.28
324.091	0.28
324.459	0.27
324.827	0.27
325.195	0.28
325.564	0.27
325.932	0.27
326.3	0.26
326.668	0.27
327.036	0.26
327.404	0.27
327.772	0.28
328.14	0.28
328.508	0.28
328.875	0.27
329.243	0.27
329.611	0.28
329.979	0.28
330.346	0.28
330.714	0.28
331.082	0.27
331.449	0.28
331.817	0.29
332.185	0.29
332.552	0.29
332.92	0.3
333.287	0.29
333.655	0.3
334.022	0.3
334.389	0.3
334.757	0.31
335.124	0.31
335.491	0.31
335.859	0.32
336.226	0.32
336.593	0.33
336.96	0.33
337.327	0.33
337.695	0.34
338.062	0.34
338.429	0.35
338.796	0.35
339.163	0.36
339.53	0.36
339.897	0.36
340.263	0.37
340.63	0.38
340.997	0.39
341.364	0.39
341.731	0.41
342.097	0.41
342.464	0.41
342.831	0.42
343.197	0.43
343.564	0.44
343.931	0.43
344.297	0.45
344.664	0.45
345.03	0.46
345.396	0.47
345.763	0.47
346.129	0.48
346.496	0.48
346.862	0.49
347.228	0.5
347.594	0.51
347.961	0.51
348.327	0.52
348.693	0.53
349.059	0.54
349.425	0.55
349.791	0.55
350.157	0.56
350.523	0.57
350.889	0.58
351.255	0.59
351.621	0.6
351.987	0.61
352.353	0.63
352.719	0.64
353.084	0.65
353.45	0.66
353.816	0.67
354.181	0.68
354.547	0.7
354.913	0.71
355.278	0.72
355.644	0.73
356.009	0.75
356.375	0.77
356.74	0.78
357.106	0.79
357.471	0.81
357.836	0.83
358.202	0.84
358.567	0.87
358.932	0.88
359.297	0.88
359.663	0.89
360.028	0.93
360.393	0.92
360.758	0.95
361.123	0.95
361.488	0.97
361.853	0.97
362.218	0.98
362.583	0.99
362.948	1
363.312	1.01
363.677	1.03
364.042	1.04
364.407	1.05
364.772	1.08
365.136	1.09
365.501	1.11
365.865	1.13
366.23	1.17
366.595	1.17
366.959	1.2
367.324	1.2
367.688	1.25
368.052	1.26
368.417	1.26
368.781	1.26
369.145	1.3
369.51	1.29
369.874	1.3
370.238	1.31
370.602	1.31
370.967	1.29
371.331	1.29
371.695	1.28
372.059	1.29
372.423	1.28
372.787	1.27
373.151	1.29
373.515	1.26
373.878	1.25
374.242	1.25
374.606	1.24
374.97	1.27
375.334	1.24
375.697	1.26
376.061	1.26
376.425	1.28
376.788	1.27
377.152	1.28
377.515	1.29
377.879	1.31
378.242	1.3
378.606	1.35
378.969	1.35
379.333	1.36
379.696	1.37
380.059	1.38
380.422	1.41
380.786	1.43
381.149	1.45
381.512	1.47
381.875	1.47
382.238	1.54
382.601	1.56
382.964	1.59
383.327	1.62
383.69	1.64
384.053	1.69
384.416	1.73
384.779	1.72
385.142	1.77
385.504	1.79
385.867	1.81
386.23	1.8
386.593	1.84
386.955	1.83
387.318	1.85
387.68	1.82
388.043	1.87
388.405	1.8
388.768	1.86
389.13	1.8
389.493	1.84
389.855	1.81
390.217	1.8
390.58	1.79
390.942	1.78
391.304	1.82
391.666	1.82
392.028	1.83
392.391	1.85
392.753	1.84
393.115	1.9
393.477	1.9
393.839	1.96
394.201	2.03
394.563	2.07
394.924	2.13
395.286	2.12
395.648	2.13
396.01	2.14
396.371	2.17
396.733	2.15
397.095	2.19
397.456	2.17
397.818	2.05
398.18	2.14
398.541	2.1
398.903	2.15
399.264	2.08
399.625	2.09
399.987	2.12
400.348	2.07
400.709	1.99
401.071	1.95
401.432	1.87
401.793	1.82
402.154	1.72
402.515	1.62
402.876	1.55
403.238	1.44
403.599	1.33
403.96	1.26
404.32	1.19
404.681	1.11
405.042	1.03
405.403	0.97
405.764	0.9
406.125	0.83
406.485	0.79
406.846	0.74
407.207	0.69
407.567	0.64
407.928	0.62
408.288	0.58
408.649	0.55
409.009	0.52
409.37	0.49
409.73	0.47
410.091	0.45
410.451	0.42
410.811	0.4
411.171	0.38
411.532	0.37
411.892	0.35
412.252	0.33
412.612	0.33
412.972	0.32
413.332	0.31
413.692	0.29
414.052	0.28
414.412	0.27
414.772	0.27
415.132	0.25
415.492	0.25
415.851	0.24
416.211	0.23
416.571	0.22
416.931	0.23
417.29	0.22
417.65	0.22
418.009	0.2
418.369	0.2
418.728	0.2
419.088	0.19
419.447	0.19
419.807	0.18
420.166	0.19
420.525	0.18
420.884	0.17
421.244	0.17
421.603	0.17
421.962	0.17
422.321	0.17
422.68	0.16
423.039	0.16
423.398	0.16
423.757	0.15
424.116	0.16
424.475	0.16
424.834	0.15
425.193	0.15
425.551	0.14
425.91	0.14
426.269	0.13
426.628	0.14
426.986	0.14
427.345	0.14
427.703	0.15
428.062	0.14
428.42	0.13
428.779	0.13
429.137	0.13
429.496	0.14
429.854	0.13
430.212	0.13
430.57	0.13
430.929	0.13
431.287	0.12
431.645	0.13
432.003	0.12
432.361	0.12
432.719	0.12
433.077	0.11
433.435	0.12
433.793	0.11
434.151	0.1
434.509	0.11
434.866	0.12
435.224	0.11
435.582	0.12
435.94	0.11
436.297	0.12
436.655	0.11
437.012	0.11
437.37	0.11
437.727	0.1
438.085	0.11
438.442	0.1
438.8	0.1
439.157	0.09
439.514	0.11
439.872	0.09
440.229	0.11
440.586	0.11
440.943	0.1
441.3	0.09
441.657	0.09
442.014	0.1
442.371	0.1
442.728	0.1
443.085	0.09
443.442	0.09
443.799	0.1
444.156	0.09
444.513	0.08
444.869	0.09
445.226	0.08
445.583	0.09
445.939	0.09
446.296	0.08
446.652	0.09
447.009	0.09
447.365	0.08
447.722	0.08
448.078	0.09
448.434	0.08
448.791	0.08
449.147	0.07
449.503	0.07
449.859	0.07
450.215	0.08
450.571	0.08
450.928	0.08
451.284	0.07
451.64	0.07
451.995	0.07
452.351	0.07
452.707	0.07
453.063	0.07
453.419	0.07
453.775	0.06
454.13	0.08
454.486	0.07
454.842	0.06
455.197	0.06
455.553	0.05
455.908	0.06
456.264	0.05
456.619	0.05
456.975	0.06
457.33	0.05
457.685	0.05
458.04	0.04
458.396	0.05
458.751	0.04
459.106	0.04
459.461	0.04
459.816	0.04
460.171	0.04
460.526	0.04
460.881	0.03
461.236	0.02
461.591	0.03
461.946	0.02
462.301	0.02
462.655	0.02
463.01	0.03
463.365	0.02
463.719	0.02
464.074	0
464.428	0
464.783	0.01
465.137	0
465.492	-0
465.846	0.01
466.201	0.01
466.555	0.01
466.909	0.01
467.263	0.02
467.618	0.02
467.972	0.01
468.326	-0
468.68	-0
469.034	0
469.388	-0
469.742	0
470.096	0
470.45	0.01
470.804	0.01
471.157	0.01
471.511	0.01
471.865	0.01
472.218	0.01
472.572	0.01
472.926	0.02
473.279	0.02
473.633	0.03
473.986	0.03
474.34	0.03
474.693	0.03
475.046	0.04
475.4	0.05
475.753	0.05
476.106	0.05
476.459	0.06
476.812	0.07
477.165	0.07
477.519	0.07
477.872	0.07
478.224	0.08
478.577	0.08
478.93	0.09
479.283	0.09
479.636	0.09
479.989	0.1
480.341	0.1
480.694	0.1
481.047	0.1
481.399	0.1
481.752	0.1
482.104	0.11
482.457	0.12
482.809	0.11
483.162	0.12
483.514	0.12
483.866	0.13
484.219	0.12
484.571	0.13
484.923	0.13
485.275	0.13
485.627	0.13
485.979	0.14
486.331	0.14
486.683	0.15
487.035	0.15
487.387	0.16
487.739	0.15
488.091	0.15
488.443	0.15
488.794	0.15
489.146	0.16
489.498	0.16
489.849	0.16
490.201	0.16
490.552	0.17
490.904	0.17
491.255	0.17
491.607	0.17
491.958	0.17
492.309	0.17
492.661	0.18
493.012	0.18
493.363	0.18
493.714	0.18
494.065	0.19
494.416	0.19
494.767	0.19
495.118	0.2
495.469	0.19
495.82	0.2
496.171	0.2
496.522	0.2
496.872	0.21
497.223	0.21
497.574	0.21
497.924	0.22
498.275	0.22
498.626	0.22
498.976	0.22
499.327	0.22
499.677	0.22
500.027	0.23
500.378	0.23
500.728	0.23
501.078	0.24
501.428	0.24
501.779	0.24
502.129	0.24
502.479	0.25
502.829	0.25
503.179	0.25
503.529	0.25
503.879	0.26
504.229	0.26
504.578	0.26
504.928	0.26
505.278	0.27
505.628	0.28
505.977	0.27
506.327	0.27
506.676	0.28
507.026	0.28
507.375	0.28
507.725	0.28
508.074	0.29
508.424	0.29
508.773	0.29
509.122	0.3
509.471	0.3
509.82	0.3
510.17	0.3
510.519	0.3
510.868	0.31
511.217	0.31
511.566	0.31
511.915	0.32
512.263	0.32
512.612	0.32
512.961	0.32
513.31	0.32
513.659	0.33
514.007	0.33
514.356	0.33
514.704	0.33
515.053	0.34
515.401	0.34
515.75	0.34
516.098	0.35
516.447	0.35
516.795	0.36
517.143	0.35
517.491	0.36
517.839	0.36
518.188	0.36
518.536	0.37
518.884	0.37
519.232	0.37
519.58	0.38
519.928	0.38
520.275	0.38
520.623	0.39
520.971	0.39
521.319	0.39
521.666	0.39
522.014	0.39
522.362	0.4
522.709	0.4
523.057	0.4
523.404	0.4
523.752	0.41
524.099	0.41
524.446	0.41
524.794	0.41
525.141	0.42
525.488	0.42
525.835	0.42
526.182	0.43
526.529	0.43
526.876	0.43
527.223	0.44
527.57	0.43
527.917	0.44
528.264	0.44
528.611	0.44
528.958	0.45
529.304	0.45
529.651	0.45
529.998	0.46
530.344	0.46
530.691	0.46
531.037	0.47
531.384	0.47
531.73	0.47
532.076	0.47
532.423	0.48
532.769	0.48
533.115	0.48
533.461	0.49
533.807	0.49
534.154	0.5
534.5	0.5
534.846	0.5
535.192	0.51
535.537	0.5
535.883	0.51
536.229	0.52
536.575	0.52
536.921	0.53
537.266	0.53
537.612	0.53
537.957	0.53
538.303	0.54
538.649	0.54
538.994	0.54
539.339	0.55
539.685	0.56
540.03	0.56
540.375	0.56
540.721	0.57
541.066	0.56
541.411	0.57
541.756	0.57
542.101	0.58
542.446	0.58
542.791	0.59
543.136	0.59
543.481	0.59
543.825	0.6
544.17	0.6
544.515	0.61
544.86	0.61
545.204	0.61
545.549	0.62
545.893	0.62
546.238	0.63
546.582	0.63
546.927	0.64
547.271	0.64
547.615	0.64
547.96	0.65
548.304	0.64
548.648	0.65
548.992	0.66
549.336	0.66
549.68	0.66
550.024	0.67
550.368	0.67
550.712	0.67
551.056	0.68
551.4	0.68
551.743	0.68
552.087	0.69
552.431	0.69
552.774	0.69
553.118	0.69
553.462	0.69
553.805	0.7
554.148	0.7
554.492	0.7
554.835	0.71
555.178	0.71
555.522	0.71
555.865	0.72
556.208	0.71
556.551	0.72
556.894	0.72
557.237	0.72
557.58	0.73
557.923	0.73
558.266	0.73
558.609	0.73
558.952	0.73
559.294	0.74
559.637	0.74
559.98	0.74
560.322	0.75
560.665	0.75
561.007	0.74
561.35	0.75
561.692	0.75
562.034	0.75
562.377	0.76
562.719	0.76
563.061	0.76
563.403	0.76
563.745	0.76
564.088	0.76
564.43	0.76
564.772	0.76
565.113	0.76
565.455	0.77
565.797	0.77
566.139	0.77
566.481	0.77
566.822	0.78
567.164	0.78
567.506	0.77
567.847	0.77
568.189	0.78
568.53	0.78
568.872	0.78
569.213	0.78
569.554	0.78
569.895	0.78
570.237	0.78
570.578	0.78
570.919	0.78
571.26	0.78
571.601	0.79
571.942	0.78
572.283	0.79
572.624	0.79
572.965	0.79
573.306	0.79
573.646	0.79
573.987	0.79
574.328	0.78
574.668	0.78
575.009	0.79
575.349	0.79
575.69	0.78
576.03	0.79
576.37	0.79
576.711	0.78
577.051	0.79
577.391	0.79
577.731	0.79
578.072	0.79
578.412	0.8
578.752	0.79
579.092	0.8
579.431	0.79
579.771	0.79
580.111	0.78
580.451	0.78
580.791	0.79
581.13	0.8
581.47	0.8
581.81	0.8
582.149	0.8
582.489	0.8
582.828	0.81
583.167	0.8
583.507	0.77
583.846	0.75
584.185	0.77
584.525	0.79
584.864	0.8
585.203	0.81
585.542	0.82
585.881	0.82
586.22	0.83
586.559	0.83
586.898	0.83
587.236	0.82
587.575	0.82
587.914	0.83
588.252	0.83
588.591	0.84
588.93	0.84
589.268	0.85
589.607	0.85
589.945	0.85
590.283	0.85
590.622	0.85
590.96	0.86
591.298	0.86
591.636	0.87
591.974	0.87
592.313	0.88
592.651	0.88
592.989	0.88
593.326	0.89
593.664	0.89
594.002	0.9
594.34	0.9
594.678	0.9
595.015	0.9
595.353	0.9
595.691	0.9
596.028	0.91
596.366	0.92
596.703	0.92
597.04	0.92
597.378	0.93
597.715	0.93
598.052	0.93
598.389	0.93
598.726	0.94
599.064	0.95
599.401	0.95
599.738	0.95
600.074	0.96
600.411	0.96
600.748	0.95
601.085	0.95
601.422	0.95
601.758	0.95
602.095	0.95
602.432	0.95
602.768	0.95
603.105	0.95
603.441	0.96
603.777	0.96
604.114	0.96
604.45	0.96
604.786	0.96
605.122	0.97
605.459	0.96
605.795	0.97
606.131	0.96
606.467	0.96
606.803	0.96
607.139	0.95
607.474	0.95
607.81	0.95
608.146	0.95
608.482	0.95
608.817	0.94
609.153	0.95
609.488	0.94
609.824	0.94
610.159	0.94
610.495	0.93
610.83	0.93
611.165	0.93
611.5	0.93
611.836	0.93
612.171	0.93
612.506	0.92
612.841	0.93
613.176	0.92
613.511	0.92
613.845	0.92
614.18	0.91
614.515	0.91
614.85	0.91
615.184	0.9
615.519	0.9
615.854	0.9
616.188	0.9
616.523	0.9
616.857	0.89
617.191	0.89
617.526	0.88
617.86	0.88
618.194	0.88
618.528	0.88
618.862	0.88
619.196	0.88
619.53	0.87
619.864	0.87
620.198	0.87
620.532	0.87
620.866	0.86
621.2	0.85
621.533	0.85
621.867	0.85
622.201	0.85
622.534	0.84
622.868	0.84
623.201	0.84
623.534	0.84
623.868	0.84
624.201	0.83
624.534	0.83
624.868	0.83
625.201	0.82
625.534	0.83
625.867	0.82
626.2	0.81
626.533	0.81
626.865	0.8
627.198	0.8
627.531	0.8
627.864	0.8
628.196	0.8
628.529	0.79
628.862	0.78
629.194	0.78
629.527	0.78
629.859	0.77
630.191	0.77
630.524	0.76
630.856	0.76
631.188	0.76
631.52	0.75
631.852	0.74
632.184	0.74
632.516	0.73
632.848	0.73
633.18	0.72
633.512	0.72
633.844	0.71
634.175	0.7
634.507	0.7
634.839	0.69
635.17	0.69
635.502	0.69
635.833	0.68
636.165	0.68
636.496	0.67
636.827	0.67
637.159	0.66
637.49	0.66
637.821	0.66
638.152	0.65
638.483	0.65
638.814	0.64
639.145	0.63
639.476	0.63
639.807	0.62
640.137	0.62
640.468	0.61
640.799	0.61
641.129	0.6
641.46	0.59
641.791	0.59
642.121	0.59
642.451	0.59
642.782	0.58
643.112	0.57
643.442	0.57
643.773	0.57
644.103	0.56
644.433	0.56
644.763	0.56
645.093	0.55
645.423	0.55
645.753	0.54
646.082	0.55
646.412	0.55
646.742	0.54
647.072	0.54
647.401	0.54
647.731	0.54
648.06	0.54
648.39	0.53
648.719	0.53
649.048	0.52
649.378	0.52
649.707	0.52
650.036	0.52
650.365	0.52
650.694	0.52
651.023	0.51
651.352	0.51
651.681	0.51
652.01	0.52
652.339	0.51
652.668	0.51
652.996	0.51
653.325	0.51
653.654	0.51
653.982	0.51
654.311	0.51
654.639	0.5
654.967	0.51
655.296	0.5
655.624	0.51
655.952	0.5
656.28	0.5
656.609	0.5
656.937	0.5
657.265	0.52
657.593	0.49
657.92	0.34
658.248	0.28
658.576	0.26
658.904	0.35
659.231	0.44
659.559	0.48
659.887	0.49
660.214	0.5
660.542	0.49
660.869	0.5
661.196	0.49
661.524	0.5
661.851	0.5
662.178	0.49
662.505	0.49
662.832	0.49
663.159	0.49
663.486	0.49
663.813	0.49
664.14	0.49
664.467	0.49
664.794	0.49
665.12	0.49
665.447	0.49
665.774	0.48
666.1	0.48
666.427	0.48
666.753	0.48
667.079	0.48
667.406	0.48
667.732	0.47
668.058	0.48
668.384	0.48
668.71	0.47
669.036	0.47
669.362	0.47
669.688	0.47
670.014	0.47
670.34	0.47
670.666	0.47
670.991	0.46
671.317	0.46
671.643	0.45
671.968	0.45
672.294	0.45
672.619	0.45
672.945	0.44
673.27	0.44
673.595	0.44
673.92	0.44
674.246	0.43
674.571	0.43
674.896	0.43
675.221	0.43
675.546	0.43
675.87	0.42
676.195	0.42
676.52	0.41
676.845	0.41
677.169	0.41
677.494	0.41
677.819	0.4
678.143	0.4
678.468	0.4
678.792	0.39
679.116	0.39
679.44	0.39
679.765	0.39
680.089	0.38
680.413	0.38
680.737	0.37
681.061	0.37
681.385	0.37
681.709	0.36
682.033	0.36
682.356	0.35
682.68	0.35
683.004	0.35
683.327	0.34
683.651	0.34
683.974	0.34
684.298	0.33
684.621	0.33
684.944	0.33
685.268	0.33
685.591	0.32
685.914	0.32
686.237	0.32
686.56	0.31
686.883	0.31
687.206	0.3
687.529	0.3
687.852	0.29
688.175	0.29
688.497	0.29
688.82	0.29
689.142	0.28
689.465	0.28
689.787	0.28
690.11	0.28
690.432	0.27
690.755	0.27
691.077	0.27
691.399	0.26
691.721	0.26
692.043	0.26
692.365	0.25
692.687	0.25
693.009	0.25
693.331	0.25
693.653	0.24
693.974	0.24
694.296	0.24
694.618	0.23
694.939	0.24
695.261	0.23
695.582	0.23
695.904	0.23
696.225	0.22
696.546	0.22
696.868	0.22
697.189	0.22
697.51	0.21
697.831	0.21
698.152	0.21
698.473	0.21
698.794	0.21
699.114	0.2
699.435	0.2
699.756	0.2
700.077	0.19
700.397	0.2
700.718	0.19
701.038	0.19
701.359	0.19
701.679	0.19
701.999	0.19
702.32	0.19
702.64	0.19
702.96	0.19
703.28	0.19
703.6	0.19
703.92	0.18
704.24	0.18
704.56	0.18
704.879	0.18
705.199	0.17
705.519	0.17
705.838	0.17
706.158	0.17
706.478	0.17
706.797	0.17
707.116	0.17
707.436	0.17
707.755	0.17
708.074	0.17
708.393	0.17
708.712	0.17
709.031	0.16
709.35	0.16
709.669	0.16
709.988	0.16
710.307	0.16
710.626	0.16
710.944	0.16
711.263	0.16
711.582	0.16
711.9	0.16
712.219	0.16
712.537	0.16
712.855	0.16
713.174	0.16
713.492	0.16
713.81	0.16
714.128	0.16
714.446	0.16
714.764	0.16
715.082	0.15
715.4	0.16
715.718	0.16
716.035	0.15
716.353	0.15
716.671	0.15
716.988	0.15
717.306	0.15
717.623	0.16
717.941	0.16
718.258	0.16
718.575	0.16
718.893	0.17
719.21	0.17
719.527	0.16
719.844	0.17
720.161	0.16
720.478	0.17
720.795	0.17
721.112	0.17
721.428	0.17
721.745	0.17
722.062	0.17
722.378	0.17
722.695	0.17
723.011	0.17
723.328	0.17
723.644	0.17
723.96	0.17
724.276	0.17
724.593	0.17
724.909	0.17
725.225	0.17
725.541	0.18
725.857	0.18
726.173	0.18
726.488	0.18
726.804	0.18
727.12	0.18
727.435	0.18
727.751	0.18
728.067	0.18
728.382	0.18
728.697	0.18
729.013	0.18
729.328	0.18
729.643	0.18
729.958	0.18
730.273	0.18
730.588	0.18
730.903	0.18
731.218	0.18
731.533	0.19
731.848	0.18
732.163	0.19
732.477	0.18
732.792	0.18
733.107	0.18
733.421	0.18
733.736	0.18
734.05	0.19
734.364	0.19
734.678	0.19
734.993	0.18
735.307	0.18
735.621	0.18
735.935	0.18
736.249	0.18
736.563	0.18
736.877	0.18
737.19	0.18
737.504	0.18
737.818	0.18
738.131	0.18
738.445	0.17
738.758	0.17
739.072	0.17
739.385	0.17
739.698	0.17
740.012	0.17
740.325	0.17
740.638	0.17
740.951	0.17
741.264	0.17
741.577	0.17
741.89	0.17
742.203	0.16
742.515	0.17
742.828	0.17
743.141	0.17
743.453	0.17
743.766	0.17
744.078	0.16
744.391	0.16
744.703	0.16
745.015	0.16
745.327	0.15
745.639	0.16
745.952	0.15
746.264	0.15
746.575	0.15
746.887	0.15
747.199	0.15
747.511	0.15
747.823	0.14
748.134	0.14
748.446	0.14
748.757	0.14
749.069	0.14
749.38	0.14
749.692	0.14
750.003	0.13
750.314	0.13
750.625	0.13
750.936	0.13
751.248	0.13
751.559	0.13
751.869	0.12
752.18	0.12
752.491	0.12
752.802	0.12
753.112	0.12
753.423	0.11
753.734	0.11
754.044	0.11
754.355	0.11
754.665	0.11
754.975	0.11
755.285	0.1
755.596	0.1
755.906	0.1
756.216	0.1
756.526	0.09
756.836	0.09
757.146	0.1
757.455	0.1
757.765	0.09
758.075	0.09
758.385	0.09
758.694	0.09
759.004	0.09
759.313	0.09
759.622	0.09
759.932	0.08
760.241	0.08
760.55	0.09
760.859	0.08
761.168	0.08
761.477	0.08
761.786	0.08
762.095	0.08
762.404	0.08
762.713	0.08
763.021	0.07
763.33	0.07
763.639	0.07
763.947	0.06
764.256	0.07
764.564	0.06
764.872	0.07
765.181	0.07
765.489	0.06
765.797	0.06
766.105	0.06
766.413	0.06
766.721	0.06
767.029	0.06
767.337	0.06
767.644	0.06
767.952	0.06
768.26	0.06
768.567	0.06
768.875	0.06
769.182	0.06
769.49	0.06
769.797	0.05
770.104	0.05
770.411	0.05
770.718	0.05
771.026	0.05
771.333	0.05
771.639	0.05
771.946	0.05
772.253	0.05
772.56	0.05
772.867	0.05
773.173	0.05
773.48	0.05
773.786	0.05
774.093	0.05
774.399	0.05
774.705	0.04
775.012	0.04
775.318	0.04
775.624	0.04
775.93	0.04
776.236	0.05
776.542	0.05
776.848	0.05
777.154	0.05
777.459	0.05
777.765	0.05
778.071	0.05
778.376	0.05
778.682	0.04
778.987	0.04
779.292	0.04
779.598	0.05
779.903	0.04
780.208	0.05
780.513	0.05
780.818	0.04
781.123	0.04
781.428	0.04
781.733	0.04
782.038	0.04
782.343	0.04
782.647	0.04
782.952	0.04
783.256	0.04
783.561	0.05
783.865	0.05
784.17	0.05
784.474	0.05
784.778	0.05
785.082	0.04
785.386	0.05
785.69	0.05
785.994	0.05
786.298	0.04
786.602	0.05
786.906	0.04
787.209	0.04
787.513	0.04
787.817	0.04
788.12	0.04
788.424	0.04
788.727	0.04
789.03	0.05
789.333	0.05
789.637	0.05
789.94	0.05
790.243	0.05
790.546	0.05
790.849	0.05
791.152	0.04
791.454	0.04
791.757	0.04
792.06	0.04
792.362	0.05
792.665	0.04
792.967	0.04
793.27	0.04
793.572	0.04
793.874	0.04
794.177	0.04
794.479	0.04
794.781	0.04
795.083	0.04
795.385	0.04
795.687	0.04
795.989	0.04
796.29	0.04
796.592	0.04
796.894	0.04
797.195	0.04
797.497	0.04
797.798	0.04
798.1	0.04
798.401	0.04
798.702	0.04
799.003	0.04
799.304	0.04
799.605	0.04
799.906	0.04
800.207	0.04
800.508	0.05
800.809	0.04
801.11	0.04
801.41	0.04
801.711	0.04
802.011	0.05
802.312	0.05
802.612	0.04
802.913	0.05
803.213	0.05
803.513	0.05
803.813	0.05
804.113	0.05
804.413	0.05
804.713	0.05
805.013	0.05
805.313	0.05
805.613	0.05
805.912	0.05
806.212	0.05
806.511	0.05
806.811	0.05
807.11	0.05
807.41	0.05
807.709	0.05
808.008	0.05
808.307	0.04
808.606	0.05
808.905	0.04
809.204	0.05
809.503	0.04
809.802	0.04
810.101	0.04
810.399	0.04
810.698	0.04
810.997	0.04
811.295	0.04
811.593	0.04
811.892	0.04
812.19	0.04
812.488	0.04
812.786	0.04
813.084	0.04
813.383	0.04
813.68	0.04
813.978	0.04
814.276	0.03
814.574	0.04
814.872	0.04
815.169	0.04
815.467	0.04
815.764	0.04
816.062	0.04
816.359	0.04
816.656	0.04
816.954	0.03
817.251	0.04
817.548	0.03
817.845	0.04
818.142	0.04
818.439	0.04
818.735	0.04
819.032	0.04
819.329	0.04
819.626	0.03
819.922	0.04
820.219	0.04
820.515	0.04
820.811	0.04
821.108	0.04
821.404	0.04
821.7	0.03
821.996	0.04
822.292	0.03
822.588	0.04
822.884	0.04
823.18	0.03
823.475	0.04
823.771	0.04
824.067	0.04
824.362	0.05
824.658	0.05
824.953	0.05
825.249	0.05
825.544	0.05
825.839	0.05
826.134	0.05
826.429	0.05
826.724	0.05
827.019	0.04
827.314	0.05
827.609	0.04
827.904	0.05
828.198	0.04
828.493	0.05
828.787	0.04
829.082	0.04
829.376	0.05
829.671	0.04
829.965	0.04
830.259	0.04
830.553	0.04
830.847	0.04
831.141	0.04
831.435	0.04
831.729	0.04
832.023	0.05
832.317	0.05
832.61	0.05
832.904	0.04
833.197	0.05
833.491	0.05
833.784	0.05
834.077	0.05
834.371	0.05
834.664	0.05
834.957	0.05
835.25	0.04
835.543	0.05
835.836	0.04
836.129	0.05
836.421	0.04
836.714	0.05
837.007	0.04
837.299	0.05
837.592	0.06
837.884	0.05
838.177	0.05
838.469	0.04
838.761	0.05
839.053	0.05
839.345	0.05
839.637	0.05
839.929	0.05
840.221	0.05
840.513	0.05
840.805	0.05
841.096	0.04
841.388	0.04
841.68	0.05
841.971	0.05
842.262	0.04
842.554	0.05
842.845	0.05
843.136	0.04
843.427	0.04
843.718	0.05
844.009	0.04
844.3	0.04
844.591	0.05
844.882	0.04
845.173	0.04
845.463	0.05
845.754	0.05
846.044	0.04
846.335	0.03
846.625	0.05
846.915	0.05
847.206	0.05
847.496	0.06
847.786	0.05
848.076	0.05
848.366	0.06
848.656	0.06
848.945	0.05
849.235	0.05
849.525	0.06
849.814	0.05
850.104	0.05
850.393	0.05
850.683	0.04
850.972	0.06
851.261	0.05
851.551	0.05
851.84	0.05
852.129	0.05
852.418	0.05
852.707	0.03
852.995	0.04
853.284	0.03
853.573	0.03
853.862	0.04
854.15	0.03
854.439	0.04
854.727	0.03
855.015	0.04
855.304	0.05
855.592	0.04
855.88	0.06
856.168	0.04
856.456	0.04
856.744	0.04
857.032	0.04
857.32	0.05
857.607	0.06
857.895	0.06
858.183	0.06
858.47	0.06
858.757	0.03
859.045	0.06
859.332	0.06
859.619	0.05
859.907	0.06
860.194	0.04
860.481	0.05
860.768	0.05
861.054	0.06
861.341	0.06
861.628	0.06
861.915	0.06
862.201	0.07
862.488	0.04
862.774	0.04
863.061	0.03
863.347	0.03
863.633	0.06
863.919	0.04
864.205	0.06
864.491	0.06
864.777	0.03
865.063	0.05
865.349	0.04
865.635	0.03
865.92	0.02
866.206	0.05
866.492	0.06
866.777	0.05
867.062	0.03
867.348	0.05
867.633	0.03
867.918	0.03
868.203	0.05
868.488	0.06
868.773	0.08
869.058	0.06
869.343	0.06
869.628	0.05
869.912	0.05
870.197	0.05
870.482	0.07
870.766	0.09
871.05	0.05
871.335	0.08
871.619	0.04
871.903	0.04
872.187	0.05
872.471	0.05
872.755	0.05
873.039	0.08
873.323	0.07
873.607	0.09
873.89	0.03
874.174	0.06
874.458	0.07
874.741	0.06
875.024	0.04
875.308	0.01
875.591	0.05
875.874	0.03
876.157	0.09
876.44	0.04
876.723	0.11
877.006	0.14
877.289	0.14
877.572	0.16
877.854	0.08
878.137	0.1
878.42	0.11
878.702	0.13
878.984	0.07
879.267	0.08
879.549	0.13
879.831	0.06
880.113	0.04
880.395	0.11
880.677	0.15
880.959	-0.05
