Data from Rubpy_EV_1500_EDTA_Buffered_Absorbance_14-52-41-875.txt Node
Date: Tue Jun 30 14:52:41 BST 2026
User: fpm-admin
Spectrometer: OFX00224
Trigger mode: 0
Integration Time (sec): 7.000000E-2
Scans to average: 3
Nonlinearity correction enabled: false
Boxcar width: 0
Storing dark spectrum: false
XAxis mode: Wavelengths
Number of Pixels in Spectrum: 2136
>>>>>Begin Spectral Data<<<<<
154.91	0.69
155.289	-0.42
155.669	-0.11
156.048	0.05
156.428	-0
156.807	0.09
157.186	0.52
157.566	0.05
157.945	-0
158.325	-0.3
158.704	-1.61
159.083	-0
159.462	-0.1
159.842	0.43
160.221	-0.2
160.6	-0
160.979	0.54
161.359	-0.48
161.738	-0
162.117	-0
162.496	0.07
162.875	-0.09
163.254	-0
163.633	0.6
164.012	0.64
164.391	1.51
164.77	0.4
165.149	-0
165.528	1.04
165.907	-0
166.286	-0.61
166.665	-0.15
167.044	0.13
167.423	0.45
167.802	-0
168.181	0.12
168.559	-0.47
168.938	0.25
169.317	-0
169.696	-0
170.074	-0
170.453	0.6
170.832	-0
171.21	0.26
171.589	-0
171.968	-0
172.346	-0
172.725	-0
173.103	-0.13
173.482	-0
173.861	-0
174.239	-0.08
174.617	-0.14
174.996	-0.28
175.374	0.12
175.753	0.34
176.131	-0
176.51	0.31
176.888	0.37
177.266	-0
177.645	-0.04
178.023	-0
178.401	-0.38
178.779	-0.14
179.158	-0.15
179.536	-0
179.914	-0
180.292	-0.03
180.67	-0.15
181.048	-0
181.427	0.14
181.805	0.12
182.183	-0
182.561	-0.19
182.939	-0
183.317	-0
183.695	-0.12
184.073	0.3
184.451	0.08
184.829	-0
185.206	-0.01
185.584	-0.22
185.962	0.18
186.34	-0
186.718	0.63
187.096	-1.4
187.473	-0
187.851	0.54
188.229	-0.47
188.607	0.16
188.984	0.13
189.362	0.17
189.74	0.2
190.117	0.17
190.495	0.2
190.872	0.04
191.25	0.17
191.627	0.14
192.005	0.21
192.382	0.17
192.76	0.17
193.137	0.09
193.515	0.18
193.892	0.2
194.269	0.17
194.647	0.09
195.024	0.1
195.401	0.11
195.779	0.35
196.156	0.29
196.533	0.32
196.91	0.11
197.288	0.09
197.665	0.21
198.042	0.04
198.419	0.17
198.796	0.12
199.173	0.14
199.55	0.08
199.927	0.43
200.304	0.08
200.681	0.17
201.058	0.2
201.435	0.14
201.812	0.24
202.189	0.15
202.566	0.23
202.943	0.1
203.32	0.14
203.697	0.24
204.073	0.21
204.45	0.11
204.827	0.13
205.204	0.18
205.58	0.14
205.957	0.18
206.334	0.19
206.71	0.21
207.087	0.21
207.464	0.32
207.84	0.14
208.217	0.11
208.593	0.19
208.97	0.18
209.346	0.18
209.723	0.27
210.099	0.13
210.476	0.18
210.852	0.2
211.228	0.15
211.605	0.17
211.981	0.22
212.357	0.23
212.733	0.19
213.11	0.28
213.486	0.15
213.862	0.13
214.238	0.08
214.614	0.25
214.991	0.25
215.367	0.19
215.743	0.3
216.119	0.19
216.495	0.13
216.871	0.19
217.247	0.02
217.623	0.15
217.999	0.14
218.375	0.34
218.751	0.16
219.127	0.21
219.502	0.2
219.878	0.09
220.254	0.16
220.63	0.16
221.006	0.17
221.381	0.19
221.757	0.14
222.133	0.33
222.508	0.12
222.884	0.2
223.26	0.23
223.635	0.27
224.011	0.19
224.386	0.13
224.762	0.09
225.137	0.05
225.513	0.18
225.888	0.17
226.264	0.17
226.639	0.25
227.014	0.11
227.39	0.19
227.765	0.26
228.14	0.14
228.516	0.19
228.891	0.18
229.266	0.21
229.641	0.38
230.017	0.2
230.392	0.18
230.767	0.16
231.142	0.21
231.517	0.19
231.892	0.24
232.267	0.22
232.642	0.29
233.017	0.15
233.392	0.23
233.767	0.18
234.142	0.21
234.517	0.09
234.892	0.01
235.267	0.18
235.641	0.2
236.016	0.13
236.391	0.12
236.766	0.13
237.14	0.25
237.515	0.19
237.89	0.32
238.264	0.23
238.639	0.18
239.014	0.3
239.388	0.22
239.763	0.33
240.137	0.12
240.512	0.09
240.886	0.16
241.261	0.2
241.635	0.19
242.009	0.14
242.384	0.22
242.758	0.25
243.132	0.16
243.507	0.23
243.881	0.17
244.255	0.18
244.629	0.2
245.004	0.19
245.378	0.16
245.752	0.22
246.126	0.18
246.5	0.17
246.874	0.12
247.248	0.18
247.622	0.16
247.996	0.25
248.37	0.12
248.744	0.25
249.118	0.19
249.492	0.42
249.866	0.21
250.24	0.27
250.613	0.18
250.987	0.15
251.361	0.14
251.735	0.21
252.108	0.12
252.482	0.1
252.856	0.05
253.229	0.2
253.603	0.3
253.977	0.22
254.35	0.15
254.724	0.25
255.097	0.15
255.471	0.33
255.844	0.29
256.218	0.21
256.591	0.07
256.964	0.28
257.338	0.23
257.711	0.17
258.084	0.2
258.458	0.23
258.831	0.21
259.204	0.17
259.577	0.2
259.95	0.27
260.323	0.17
260.697	0.15
261.07	0.18
261.443	0.26
261.816	0.19
262.189	0.24
262.562	0.21
262.935	0.18
263.308	0.24
263.68	0.21
264.053	0.17
264.426	0.13
264.799	0.25
265.172	0.16
265.545	0.14
265.917	0.2
266.29	0.2
266.663	0.15
267.035	0.23
267.408	0.14
267.781	0.15
268.153	0.2
268.526	0.24
268.898	0.31
269.271	0.19
269.643	0.14
270.016	0.16
270.388	0.23
270.76	0.17
271.133	0.17
271.505	0.16
271.877	0.17
272.25	0.19
272.622	0.25
272.994	0.2
273.366	0.27
273.739	0.23
274.111	0.17
274.483	0.17
274.855	0.19
275.227	0.18
275.599	0.14
275.971	0.22
276.343	0.23
276.715	0.14
277.087	0.22
277.459	0.22
277.831	0.21
278.203	0.13
278.574	0.17
278.946	0.18
279.318	0.15
279.69	0.17
280.061	0.18
280.433	0.18
280.805	0.23
281.176	0.27
281.548	0.16
281.92	0.24
282.291	0.14
282.663	0.28
283.034	0.24
283.406	0.19
283.777	0.22
284.148	0.17
284.52	0.21
284.891	0.23
285.262	0.19
285.634	0.2
286.005	0.18
286.376	0.18
286.747	0.13
287.119	0.22
287.49	0.09
287.861	0.17
288.232	0.11
288.603	0.22
288.974	0.18
289.345	0.16
289.716	0.2
290.087	0.15
290.458	0.19
290.829	0.24
291.2	0.22
291.571	0.12
291.941	0.2
292.312	0.19
292.683	0.19
293.054	0.25
293.424	0.09
293.795	0.16
294.166	0.2
294.536	0.19
294.907	0.15
295.277	0.24
295.648	0.18
296.018	0.22
296.389	0.15
296.759	0.22
297.13	0.19
297.5	0.16
297.871	0.18
298.241	0.2
298.611	0.16
298.981	0.19
299.352	0.15
299.722	0.16
300.092	0.12
300.462	0.15
300.832	0.19
301.202	0.17
301.573	0.18
301.943	0.15
302.313	0.15
302.683	0.16
303.053	0.17
303.422	0.18
303.792	0.12
304.162	0.15
304.532	0.14
304.902	0.13
305.272	0.15
305.641	0.14
306.011	0.15
306.381	0.14
306.75	0.15
307.12	0.14
307.49	0.14
307.859	0.15
308.229	0.15
308.598	0.16
308.968	0.15
309.337	0.15
309.707	0.15
310.076	0.16
310.445	0.16
310.815	0.16
311.184	0.17
311.553	0.17
311.923	0.16
312.292	0.17
312.661	0.17
313.03	0.17
313.399	0.17
313.768	0.17
314.137	0.17
314.506	0.17
314.875	0.17
315.244	0.17
315.613	0.17
315.982	0.17
316.351	0.16
316.72	0.17
317.089	0.16
317.458	0.16
317.826	0.17
318.195	0.16
318.564	0.16
318.933	0.15
319.301	0.16
319.67	0.15
320.038	0.15
320.407	0.14
320.775	0.16
321.144	0.14
321.512	0.15
321.881	0.14
322.249	0.15
322.618	0.15
322.986	0.14
323.354	0.14
323.723	0.14
324.091	0.14
324.459	0.14
324.827	0.14
325.195	0.14
325.564	0.13
325.932	0.13
326.3	0.13
326.668	0.14
327.036	0.14
327.404	0.14
327.772	0.13
328.14	0.13
328.508	0.14
328.875	0.13
329.243	0.13
329.611	0.14
329.979	0.14
330.346	0.13
330.714	0.14
331.082	0.14
331.449	0.14
331.817	0.14
332.185	0.14
332.552	0.15
332.92	0.15
333.287	0.15
333.655	0.15
334.022	0.15
334.389	0.15
334.757	0.15
335.124	0.16
335.491	0.15
335.859	0.16
336.226	0.16
336.593	0.16
336.96	0.16
337.327	0.16
337.695	0.17
338.062	0.17
338.429	0.17
338.796	0.18
339.163	0.18
339.53	0.18
339.897	0.18
340.263	0.18
340.63	0.19
340.997	0.19
341.364	0.19
341.731	0.2
342.097	0.2
342.464	0.2
342.831	0.21
343.197	0.21
343.564	0.22
343.931	0.21
344.297	0.22
344.664	0.22
345.03	0.23
345.396	0.23
345.763	0.23
346.129	0.23
346.496	0.24
346.862	0.24
347.228	0.25
347.594	0.25
347.961	0.25
348.327	0.25
348.693	0.26
349.059	0.26
349.425	0.27
349.791	0.27
350.157	0.27
350.523	0.28
350.889	0.29
351.255	0.3
351.621	0.29
351.987	0.3
352.353	0.32
352.719	0.31
353.084	0.32
353.45	0.33
353.816	0.34
354.181	0.34
354.547	0.35
354.913	0.35
355.278	0.36
355.644	0.36
356.009	0.38
356.375	0.39
356.74	0.39
357.106	0.4
357.471	0.4
357.836	0.42
358.202	0.43
358.567	0.43
358.932	0.44
359.297	0.45
359.663	0.45
360.028	0.46
360.393	0.47
360.758	0.47
361.123	0.48
361.488	0.48
361.853	0.49
362.218	0.49
362.583	0.5
362.948	0.51
363.312	0.51
363.677	0.52
364.042	0.53
364.407	0.53
364.772	0.55
365.136	0.55
365.501	0.56
365.865	0.58
366.23	0.59
366.595	0.6
366.959	0.61
367.324	0.62
367.688	0.63
368.052	0.65
368.417	0.66
368.781	0.66
369.145	0.67
369.51	0.67
369.874	0.68
370.238	0.68
370.602	0.67
370.967	0.68
371.331	0.67
371.695	0.67
372.059	0.67
372.423	0.66
372.787	0.66
373.151	0.65
373.515	0.66
373.878	0.65
374.242	0.65
374.606	0.65
374.97	0.66
375.334	0.66
375.697	0.66
376.061	0.66
376.425	0.66
376.788	0.67
377.152	0.67
377.515	0.69
377.879	0.68
378.242	0.69
378.606	0.7
378.969	0.71
379.333	0.71
379.696	0.72
380.059	0.74
380.422	0.75
380.786	0.76
381.149	0.77
381.512	0.79
381.875	0.8
382.238	0.82
382.601	0.84
382.964	0.86
383.327	0.88
383.69	0.9
384.053	0.92
384.416	0.95
384.779	0.97
385.142	0.98
385.504	1.01
385.867	1.01
386.23	1.03
386.593	1.04
386.955	1.04
387.318	1.04
387.68	1.03
388.043	1.03
388.405	1.03
388.768	1.02
389.13	1.02
389.493	1.01
389.855	0.99
390.217	0.99
390.58	0.99
390.942	0.99
391.304	1
391.666	1.01
392.028	1.03
392.391	1.05
392.753	1.07
393.115	1.11
393.477	1.13
393.839	1.17
394.201	1.23
394.563	1.27
394.924	1.32
395.286	1.37
395.648	1.4
396.01	1.43
396.371	1.48
396.733	1.5
397.095	1.52
397.456	1.51
397.818	1.53
398.18	1.5
398.541	1.49
398.903	1.47
399.264	1.45
399.625	1.39
399.987	1.34
400.348	1.29
400.709	1.23
401.071	1.18
401.432	1.11
401.793	1.04
402.154	0.97
402.515	0.91
402.876	0.85
403.238	0.78
403.599	0.74
403.96	0.68
404.32	0.63
404.681	0.58
405.042	0.54
405.403	0.51
405.764	0.47
406.125	0.44
406.485	0.41
406.846	0.39
407.207	0.36
407.567	0.34
407.928	0.32
408.288	0.3
408.649	0.29
409.009	0.27
409.37	0.26
409.73	0.25
410.091	0.24
410.451	0.22
410.811	0.21
411.171	0.2
411.532	0.19
411.892	0.18
412.252	0.18
412.612	0.17
412.972	0.17
413.332	0.16
413.692	0.15
414.052	0.15
414.412	0.14
414.772	0.14
415.132	0.13
415.492	0.13
415.851	0.13
416.211	0.12
416.571	0.12
416.931	0.12
417.29	0.12
417.65	0.11
418.009	0.1
418.369	0.1
418.728	0.1
419.088	0.1
419.447	0.1
419.807	0.09
420.166	0.1
420.525	0.1
420.884	0.09
421.244	0.09
421.603	0.09
421.962	0.09
422.321	0.08
422.68	0.08
423.039	0.08
423.398	0.08
423.757	0.08
424.116	0.08
424.475	0.08
424.834	0.08
425.193	0.08
425.551	0.07
425.91	0.08
426.269	0.07
426.628	0.08
426.986	0.07
427.345	0.07
427.703	0.08
428.062	0.07
428.42	0.07
428.779	0.07
429.137	0.07
429.496	0.07
429.854	0.06
430.212	0.07
430.57	0.07
430.929	0.06
431.287	0.07
431.645	0.07
432.003	0.06
432.361	0.07
432.719	0.06
433.077	0.06
433.435	0.06
433.793	0.06
434.151	0.05
434.509	0.06
434.866	0.06
435.224	0.05
435.582	0.06
435.94	0.05
436.297	0.06
436.655	0.07
437.012	0.06
437.37	0.06
437.727	0.06
438.085	0.05
438.442	0.05
438.8	0.05
439.157	0.05
439.514	0.05
439.872	0.05
440.229	0.06
440.586	0.05
440.943	0.05
441.3	0.05
441.657	0.05
442.014	0.05
442.371	0.05
442.728	0.05
443.085	0.04
443.442	0.05
443.799	0.05
444.156	0.04
444.513	0.04
444.869	0.04
445.226	0.04
445.583	0.05
445.939	0.04
446.296	0.05
446.652	0.04
447.009	0.04
447.365	0.03
447.722	0.04
448.078	0.04
448.434	0.03
448.791	0.04
449.147	0.03
449.503	0.03
449.859	0.03
450.215	0.04
450.571	0.04
450.928	0.03
451.284	0.04
451.64	0.03
451.995	0.03
452.351	0.02
452.707	0.03
453.063	0.03
453.419	0.03
453.775	0.02
454.13	0.02
454.486	0.03
454.842	0.01
455.197	0.02
455.553	0.01
455.908	0.02
456.264	0.01
456.619	0
456.975	0.01
457.33	0.01
457.685	0
458.04	0
458.396	0
458.751	0.01
459.106	-0
459.461	-0
459.816	-0
460.171	-0.02
460.526	-0.01
460.881	-0.01
461.236	-0.02
461.591	-0.01
461.946	-0.02
462.301	-0.02
462.655	-0.01
463.01	-0.01
463.365	-0.02
463.719	-0.02
464.074	-0.03
464.428	-0.04
464.783	-0.03
465.137	-0.04
465.492	-0.04
465.846	-0.03
466.201	-0.03
466.555	-0.04
466.909	-0.03
467.263	-0.03
467.618	-0.03
467.972	-0.03
468.326	-0.04
468.68	-0.04
469.034	-0.04
469.388	-0.04
469.742	-0.04
470.096	-0.04
470.45	-0.04
470.804	-0.03
471.157	-0.03
471.511	-0.04
471.865	-0.03
472.218	-0.03
472.572	-0.03
472.926	-0.03
473.279	-0.03
473.633	-0.02
473.986	-0.01
474.34	-0.02
474.693	-0.02
475.046	-0.01
475.4	-0.01
475.753	-0
476.106	0
476.459	0
476.812	0.01
477.165	0.01
477.519	0.01
477.872	0.02
478.224	0.02
478.577	0.02
478.93	0.03
479.283	0.02
479.636	0.02
479.989	0.03
480.341	0.03
480.694	0.03
481.047	0.04
481.399	0.03
481.752	0.04
482.104	0.04
482.457	0.05
482.809	0.05
483.162	0.05
483.514	0.04
483.866	0.04
484.219	0.05
484.571	0.05
484.923	0.05
485.275	0.06
485.627	0.06
485.979	0.06
486.331	0.06
486.683	0.06
487.035	0.07
487.387	0.06
487.739	0.07
488.091	0.07
488.443	0.07
488.794	0.07
489.146	0.07
489.498	0.07
489.849	0.07
490.201	0.07
490.552	0.07
490.904	0.07
491.255	0.07
491.607	0.08
491.958	0.08
492.309	0.08
492.661	0.08
493.012	0.08
493.363	0.08
493.714	0.09
494.065	0.08
494.416	0.08
494.767	0.09
495.118	0.09
495.469	0.09
495.82	0.09
496.171	0.1
496.522	0.1
496.872	0.1
497.223	0.1
497.574	0.1
497.924	0.1
498.275	0.1
498.626	0.1
498.976	0.1
499.327	0.11
499.677	0.1
500.027	0.11
500.378	0.11
500.728	0.11
501.078	0.11
501.428	0.11
501.779	0.11
502.129	0.12
502.479	0.12
502.829	0.12
503.179	0.12
503.529	0.12
503.879	0.13
504.229	0.13
504.578	0.13
504.928	0.12
505.278	0.13
505.628	0.14
505.977	0.13
506.327	0.13
506.676	0.14
507.026	0.14
507.375	0.14
507.725	0.14
508.074	0.14
508.424	0.14
508.773	0.14
509.122	0.15
509.471	0.15
509.82	0.15
510.17	0.15
510.519	0.16
510.868	0.15
511.217	0.15
511.566	0.16
511.915	0.16
512.263	0.15
512.612	0.16
512.961	0.16
513.31	0.16
513.659	0.16
514.007	0.16
514.356	0.17
514.704	0.17
515.053	0.17
515.401	0.17
515.75	0.17
516.098	0.17
516.447	0.18
516.795	0.18
517.143	0.18
517.491	0.18
517.839	0.18
518.188	0.18
518.536	0.18
518.884	0.18
519.232	0.18
519.58	0.19
519.928	0.19
520.275	0.19
520.623	0.19
520.971	0.2
521.319	0.2
521.666	0.2
522.014	0.2
522.362	0.2
522.709	0.2
523.057	0.2
523.404	0.2
523.752	0.2
524.099	0.2
524.446	0.21
524.794	0.21
525.141	0.21
525.488	0.21
525.835	0.22
526.182	0.22
526.529	0.22
526.876	0.22
527.223	0.23
527.57	0.22
527.917	0.23
528.264	0.22
528.611	0.22
528.958	0.23
529.304	0.23
529.651	0.23
529.998	0.23
530.344	0.23
530.691	0.24
531.037	0.24
531.384	0.24
531.73	0.24
532.076	0.24
532.423	0.24
532.769	0.24
533.115	0.25
533.461	0.25
533.807	0.25
534.154	0.25
534.5	0.25
534.846	0.25
535.192	0.25
535.537	0.26
535.883	0.26
536.229	0.26
536.575	0.27
536.921	0.27
537.266	0.27
537.612	0.27
537.957	0.27
538.303	0.27
538.649	0.27
538.994	0.27
539.339	0.28
539.685	0.28
540.03	0.28
540.375	0.29
540.721	0.29
541.066	0.29
541.411	0.29
541.756	0.29
542.101	0.29
542.446	0.3
542.791	0.3
543.136	0.3
543.481	0.3
543.825	0.31
544.17	0.31
544.515	0.31
544.86	0.31
545.204	0.31
545.549	0.32
545.893	0.32
546.238	0.32
546.582	0.32
546.927	0.33
547.271	0.33
547.615	0.33
547.96	0.33
548.304	0.33
548.648	0.34
548.992	0.34
549.336	0.34
549.68	0.34
550.024	0.34
550.368	0.34
550.712	0.35
551.056	0.35
551.4	0.35
551.743	0.35
552.087	0.36
552.431	0.35
552.774	0.35
553.118	0.35
553.462	0.36
553.805	0.36
554.148	0.36
554.492	0.36
554.835	0.36
555.178	0.37
555.522	0.37
555.865	0.37
556.208	0.37
556.551	0.37
556.894	0.37
557.237	0.37
557.58	0.37
557.923	0.37
558.266	0.37
558.609	0.37
558.952	0.38
559.294	0.38
559.637	0.39
559.98	0.38
560.322	0.38
560.665	0.39
561.007	0.38
561.35	0.39
561.692	0.39
562.034	0.39
562.377	0.39
562.719	0.39
563.061	0.39
563.403	0.39
563.745	0.39
564.088	0.4
564.43	0.4
564.772	0.4
565.113	0.39
565.455	0.39
565.797	0.4
566.139	0.4
566.481	0.4
566.822	0.4
567.164	0.4
567.506	0.4
567.847	0.4
568.189	0.4
568.53	0.4
568.872	0.4
569.213	0.4
569.554	0.41
569.895	0.41
570.237	0.41
570.578	0.4
570.919	0.41
571.26	0.4
571.601	0.41
571.942	0.41
572.283	0.41
572.624	0.41
572.965	0.41
573.306	0.41
573.646	0.4
573.987	0.4
574.328	0.41
574.668	0.41
575.009	0.41
575.349	0.41
575.69	0.4
576.03	0.4
576.37	0.4
576.711	0.4
577.051	0.4
577.391	0.41
577.731	0.41
578.072	0.41
578.412	0.41
578.752	0.41
579.092	0.41
579.431	0.4
579.771	0.4
580.111	0.39
580.451	0.39
580.791	0.41
581.13	0.41
581.47	0.41
581.81	0.41
582.149	0.41
582.489	0.42
582.828	0.42
583.167	0.4
583.507	0.37
583.846	0.35
584.185	0.38
584.525	0.4
584.864	0.41
585.203	0.42
585.542	0.43
585.881	0.43
586.22	0.43
586.559	0.43
586.898	0.42
587.236	0.42
587.575	0.42
587.914	0.42
588.252	0.43
588.591	0.44
588.93	0.44
589.268	0.43
589.607	0.44
589.945	0.44
590.283	0.44
590.622	0.44
590.96	0.45
591.298	0.45
591.636	0.45
591.974	0.45
592.313	0.46
592.651	0.46
592.989	0.46
593.326	0.46
593.664	0.46
594.002	0.47
594.34	0.47
594.678	0.46
595.015	0.47
595.353	0.46
595.691	0.47
596.028	0.47
596.366	0.48
596.703	0.48
597.04	0.48
597.378	0.48
597.715	0.49
598.052	0.49
598.389	0.49
598.726	0.49
599.064	0.5
599.401	0.5
599.738	0.5
600.074	0.5
600.411	0.5
600.748	0.49
601.085	0.49
601.422	0.49
601.758	0.49
602.095	0.49
602.432	0.5
602.768	0.5
603.105	0.5
603.441	0.5
603.777	0.5
604.114	0.5
604.45	0.5
604.786	0.5
605.122	0.5
605.459	0.5
605.795	0.51
606.131	0.5
606.467	0.5
606.803	0.5
607.139	0.5
607.474	0.5
607.81	0.5
608.146	0.5
608.482	0.49
608.817	0.49
609.153	0.49
609.488	0.49
609.824	0.49
610.159	0.49
610.495	0.49
610.83	0.49
611.165	0.49
611.5	0.49
611.836	0.49
612.171	0.49
612.506	0.48
612.841	0.49
613.176	0.49
613.511	0.48
613.845	0.48
614.18	0.48
614.515	0.48
614.85	0.48
615.184	0.48
615.519	0.47
615.854	0.47
616.188	0.47
616.523	0.47
616.857	0.47
617.191	0.46
617.526	0.47
617.86	0.46
618.194	0.46
618.528	0.46
618.862	0.46
619.196	0.46
619.53	0.46
619.864	0.46
620.198	0.46
620.532	0.46
620.866	0.45
621.2	0.45
621.533	0.45
621.867	0.45
622.201	0.45
622.534	0.44
622.868	0.45
623.201	0.44
623.534	0.44
623.868	0.44
624.201	0.44
624.534	0.43
624.868	0.43
625.201	0.43
625.534	0.43
625.867	0.43
626.2	0.43
626.533	0.43
626.865	0.43
627.198	0.42
627.531	0.42
627.864	0.42
628.196	0.42
628.529	0.42
628.862	0.41
629.194	0.41
629.527	0.41
629.859	0.4
630.191	0.4
630.524	0.4
630.856	0.4
631.188	0.4
631.52	0.39
631.852	0.39
632.184	0.39
632.516	0.39
632.848	0.38
633.18	0.38
633.512	0.38
633.844	0.37
634.175	0.37
634.507	0.37
634.839	0.37
635.17	0.36
635.502	0.36
635.833	0.36
636.165	0.35
636.496	0.35
636.827	0.35
637.159	0.35
637.49	0.35
637.821	0.34
638.152	0.34
638.483	0.34
638.814	0.33
639.145	0.33
639.476	0.33
639.807	0.32
640.137	0.32
640.468	0.32
640.799	0.31
641.129	0.31
641.46	0.31
641.791	0.31
642.121	0.31
642.451	0.3
642.782	0.3
643.112	0.3
643.442	0.29
643.773	0.29
644.103	0.29
644.433	0.29
644.763	0.29
645.093	0.29
645.423	0.29
645.753	0.29
646.082	0.28
646.412	0.28
646.742	0.28
647.072	0.29
647.401	0.29
647.731	0.28
648.06	0.29
648.39	0.28
648.719	0.28
649.048	0.27
649.378	0.28
649.707	0.27
650.036	0.27
650.365	0.27
650.694	0.27
651.023	0.27
651.352	0.27
651.681	0.27
652.01	0.27
652.339	0.27
652.668	0.27
652.996	0.26
653.325	0.27
653.654	0.27
653.982	0.27
654.311	0.27
654.639	0.27
654.967	0.27
655.296	0.27
655.624	0.26
655.952	0.27
656.28	0.26
656.609	0.26
656.937	0.27
657.265	0.27
657.593	0.23
657.92	0.09
658.248	0.04
658.576	0.04
658.904	0.13
659.231	0.22
659.559	0.25
659.887	0.26
660.214	0.26
660.542	0.26
660.869	0.26
661.196	0.26
661.524	0.26
661.851	0.26
662.178	0.26
662.505	0.25
662.832	0.25
663.159	0.25
663.486	0.25
663.813	0.25
664.14	0.25
664.467	0.25
664.794	0.25
665.12	0.25
665.447	0.25
665.774	0.25
666.1	0.25
666.427	0.25
666.753	0.25
667.079	0.25
667.406	0.25
667.732	0.25
668.058	0.25
668.384	0.25
668.71	0.25
669.036	0.25
669.362	0.24
669.688	0.25
670.014	0.24
670.34	0.24
670.666	0.24
670.991	0.24
671.317	0.24
671.643	0.24
671.968	0.24
672.294	0.23
672.619	0.23
672.945	0.23
673.27	0.23
673.595	0.23
673.92	0.23
674.246	0.23
674.571	0.23
674.896	0.23
675.221	0.23
675.546	0.23
675.87	0.22
676.195	0.22
676.52	0.22
676.845	0.22
677.169	0.22
677.494	0.22
677.819	0.21
678.143	0.21
678.468	0.21
678.792	0.21
679.116	0.21
679.44	0.2
679.765	0.2
680.089	0.2
680.413	0.2
680.737	0.2
681.061	0.2
681.385	0.2
681.709	0.19
682.033	0.19
682.356	0.18
682.68	0.18
683.004	0.18
683.327	0.18
683.651	0.17
683.974	0.18
684.298	0.18
684.621	0.17
684.944	0.17
685.268	0.17
685.591	0.17
685.914	0.17
686.237	0.17
686.56	0.16
686.883	0.16
687.206	0.16
687.529	0.15
687.852	0.15
688.175	0.15
688.497	0.15
688.82	0.15
689.142	0.15
689.465	0.15
689.787	0.14
690.11	0.15
690.432	0.14
690.755	0.14
691.077	0.14
691.399	0.14
691.721	0.14
692.043	0.14
692.365	0.13
692.687	0.13
693.009	0.13
693.331	0.13
693.653	0.13
693.974	0.12
694.296	0.12
694.618	0.12
694.939	0.12
695.261	0.12
695.582	0.12
695.904	0.12
696.225	0.12
696.546	0.12
696.868	0.11
697.189	0.11
697.51	0.11
697.831	0.11
698.152	0.11
698.473	0.11
698.794	0.11
699.114	0.11
699.435	0.1
699.756	0.1
700.077	0.1
700.397	0.1
700.718	0.1
701.038	0.1
701.359	0.1
701.679	0.1
701.999	0.1
702.32	0.1
702.64	0.1
702.96	0.1
703.28	0.1
703.6	0.1
703.92	0.1
704.24	0.1
704.56	0.09
704.879	0.09
705.199	0.09
705.519	0.09
705.838	0.09
706.158	0.09
706.478	0.09
706.797	0.09
707.116	0.09
707.436	0.09
707.755	0.09
708.074	0.09
708.393	0.09
708.712	0.09
709.031	0.09
709.35	0.08
709.669	0.08
709.988	0.08
710.307	0.08
710.626	0.08
710.944	0.08
711.263	0.08
711.582	0.08
711.9	0.08
712.219	0.08
712.537	0.08
712.855	0.08
713.174	0.08
713.492	0.08
713.81	0.08
714.128	0.08
714.446	0.08
714.764	0.08
715.082	0.08
715.4	0.08
715.718	0.08
716.035	0.08
716.353	0.08
716.671	0.08
716.988	0.08
717.306	0.08
717.623	0.08
717.941	0.08
718.258	0.08
718.575	0.08
718.893	0.09
719.21	0.08
719.527	0.08
719.844	0.09
720.161	0.08
720.478	0.09
720.795	0.09
721.112	0.09
721.428	0.09
721.745	0.09
722.062	0.09
722.378	0.09
722.695	0.09
723.011	0.09
723.328	0.09
723.644	0.09
723.96	0.09
724.276	0.09
724.593	0.09
724.909	0.09
725.225	0.09
725.541	0.09
725.857	0.09
726.173	0.09
726.488	0.09
726.804	0.09
727.12	0.09
727.435	0.09
727.751	0.09
728.067	0.09
728.382	0.1
728.697	0.09
729.013	0.09
729.328	0.09
729.643	0.1
729.958	0.1
730.273	0.09
730.588	0.09
730.903	0.09
731.218	0.09
731.533	0.1
731.848	0.1
732.163	0.1
732.477	0.1
732.792	0.09
733.107	0.09
733.421	0.09
733.736	0.09
734.05	0.1
734.364	0.1
734.678	0.1
734.993	0.1
735.307	0.1
735.621	0.09
735.935	0.09
736.249	0.09
736.563	0.09
736.877	0.09
737.19	0.09
737.504	0.09
737.818	0.09
738.131	0.09
738.445	0.09
738.758	0.09
739.072	0.09
739.385	0.09
739.698	0.09
740.012	0.09
740.325	0.09
740.638	0.09
740.951	0.09
741.264	0.09
741.577	0.09
741.89	0.09
742.203	0.09
742.515	0.09
742.828	0.09
743.141	0.09
743.453	0.09
743.766	0.09
744.078	0.09
744.391	0.09
744.703	0.09
745.015	0.08
745.327	0.08
745.639	0.08
745.952	0.08
746.264	0.08
746.575	0.08
746.887	0.08
747.199	0.08
747.511	0.08
747.823	0.07
748.134	0.07
748.446	0.07
748.757	0.07
749.069	0.07
749.38	0.07
749.692	0.07
750.003	0.07
750.314	0.07
750.625	0.07
750.936	0.07
751.248	0.07
751.559	0.07
751.869	0.07
752.18	0.06
752.491	0.06
752.802	0.06
753.112	0.06
753.423	0.06
753.734	0.06
754.044	0.06
754.355	0.06
754.665	0.06
754.975	0.06
755.285	0.05
755.596	0.05
755.906	0.05
756.216	0.05
756.526	0.05
756.836	0.05
757.146	0.05
757.455	0.05
757.765	0.05
758.075	0.05
758.385	0.05
758.694	0.04
759.004	0.04
759.313	0.04
759.622	0.04
759.932	0.04
760.241	0.04
760.55	0.04
760.859	0.04
761.168	0.04
761.477	0.04
761.786	0.04
762.095	0.04
762.404	0.04
762.713	0.04
763.021	0.04
763.33	0.04
763.639	0.03
763.947	0.03
764.256	0.03
764.564	0.03
764.872	0.03
765.181	0.03
765.489	0.03
765.797	0.03
766.105	0.03
766.413	0.03
766.721	0.03
767.029	0.03
767.337	0.03
767.644	0.03
767.952	0.03
768.26	0.03
768.567	0.03
768.875	0.04
769.182	0.03
769.49	0.03
769.797	0.03
770.104	0.03
770.411	0.03
770.718	0.03
771.026	0.03
771.333	0.03
771.639	0.03
771.946	0.03
772.253	0.03
772.56	0.03
772.867	0.03
773.173	0.03
773.48	0.02
773.786	0.03
774.093	0.02
774.399	0.02
774.705	0.02
775.012	0.02
775.318	0.02
775.624	0.02
775.93	0.02
776.236	0.02
776.542	0.03
776.848	0.02
777.154	0.02
777.459	0.02
777.765	0.03
778.071	0.02
778.376	0.02
778.682	0.02
778.987	0.02
779.292	0.02
779.598	0.02
779.903	0.02
780.208	0.02
780.513	0.02
780.818	0.02
781.123	0.02
781.428	0.02
781.733	0.02
782.038	0.02
782.343	0.02
782.647	0.02
782.952	0.02
783.256	0.02
783.561	0.03
783.865	0.03
784.17	0.03
784.474	0.03
784.778	0.02
785.082	0.02
785.386	0.02
785.69	0.03
785.994	0.02
786.298	0.02
786.602	0.02
786.906	0.02
787.209	0.02
787.513	0.02
787.817	0.02
788.12	0.02
788.424	0.02
788.727	0.02
789.03	0.03
789.333	0.02
789.637	0.03
789.94	0.02
790.243	0.03
790.546	0.02
790.849	0.03
791.152	0.02
791.454	0.02
791.757	0.02
792.06	0.03
792.362	0.03
792.665	0.02
792.967	0.02
793.27	0.02
793.572	0.02
793.874	0.02
794.177	0.02
794.479	0.02
794.781	0.02
795.083	0.02
795.385	0.02
795.687	0.03
795.989	0.02
796.29	0.02
796.592	0.02
796.894	0.02
797.195	0.02
797.497	0.02
797.798	0.02
798.1	0.02
798.401	0.02
798.702	0.02
799.003	0.02
799.304	0.02
799.605	0.02
799.906	0.02
800.207	0.02
800.508	0.02
800.809	0.03
801.11	0.03
801.41	0.02
801.711	0.02
802.011	0.03
802.312	0.03
802.612	0.02
802.913	0.03
803.213	0.03
803.513	0.03
803.813	0.03
804.113	0.03
804.413	0.03
804.713	0.04
805.013	0.03
805.313	0.03
805.613	0.03
805.912	0.03
806.212	0.03
806.511	0.03
806.811	0.03
807.11	0.03
807.41	0.03
807.709	0.03
808.008	0.03
808.307	0.03
808.606	0.03
808.905	0.03
809.204	0.03
809.503	0.02
809.802	0.03
810.101	0.03
810.399	0.03
810.698	0.02
810.997	0.03
811.295	0.02
811.593	0.02
811.892	0.02
812.19	0.03
812.488	0.03
812.786	0.03
813.084	0.03
813.383	0.03
813.68	0.03
813.978	0.03
814.276	0.02
814.574	0.03
814.872	0.02
815.169	0.03
815.467	0.03
815.764	0.03
816.062	0.03
816.359	0.03
816.656	0.03
816.954	0.02
817.251	0.03
817.548	0.02
817.845	0.03
818.142	0.03
818.439	0.03
818.735	0.03
819.032	0.02
819.329	0.03
819.626	0.03
819.922	0.02
820.219	0.02
820.515	0.03
820.811	0.03
821.108	0.02
821.404	0.02
821.7	0.02
821.996	0.02
822.292	0.02
822.588	0.03
822.884	0.02
823.18	0.02
823.475	0.03
823.771	0.03
824.067	0.03
824.362	0.03
824.658	0.03
824.953	0.03
825.249	0.03
825.544	0.03
825.839	0.03
826.134	0.03
826.429	0.03
826.724	0.03
827.019	0.02
827.314	0.02
827.609	0.02
827.904	0.03
828.198	0.02
828.493	0.02
828.787	0.02
829.082	0.03
829.376	0.02
829.671	0.03
829.965	0.03
830.259	0.03
830.553	0.03
830.847	0.03
831.141	0.03
831.435	0.03
831.729	0.03
832.023	0.03
832.317	0.03
832.61	0.03
832.904	0.02
833.197	0.03
833.491	0.03
833.784	0.02
834.077	0.03
834.371	0.03
834.664	0.03
834.957	0.03
835.25	0.02
835.543	0.02
835.836	0.03
836.129	0.02
836.421	0.02
836.714	0.03
837.007	0.02
837.299	0.03
837.592	0.04
837.884	0.03
838.177	0.04
838.469	0.03
838.761	0.04
839.053	0.03
839.345	0.03
839.637	0.04
839.929	0.03
840.221	0.04
840.513	0.03
840.805	0.03
841.096	0.03
841.388	0.03
841.68	0.03
841.971	0.03
842.262	0.03
842.554	0.03
842.845	0.03
843.136	0.02
843.427	0.02
843.718	0.03
844.009	0.02
844.3	0.02
844.591	0.03
844.882	0.01
845.173	0.02
845.463	0.02
845.754	0.03
846.044	0.03
846.335	0.03
846.625	0.03
846.915	0.03
847.206	0.03
847.496	0.03
847.786	0.03
848.076	0.03
848.366	0.03
848.656	0.04
848.945	0.04
849.235	0.04
849.525	0.04
849.814	0.04
850.104	0.03
850.393	0.03
850.683	0.03
850.972	0.03
851.261	0.03
851.551	0.04
851.84	0.03
852.129	0.02
852.418	0.03
852.707	0.02
852.995	0.03
853.284	0.02
853.573	0.02
853.862	0.03
854.15	0.01
854.439	0.03
854.727	0.03
855.015	0.02
855.304	0.03
855.592	0.02
855.88	0.04
856.168	0.03
856.456	0.03
856.744	0.04
857.032	0.03
857.32	0.03
857.607	0.03
857.895	0.02
858.183	0.04
858.47	0.01
858.757	0.03
859.045	0.03
859.332	0.03
859.619	0.01
859.907	0.03
860.194	0.04
860.481	0.02
860.768	0.03
861.054	0.02
861.341	0.03
861.628	0.05
861.915	0.03
862.201	0.04
862.488	0.03
862.774	0.02
863.061	0.01
863.347	-0.01
863.633	0.03
863.919	0.03
864.205	0.04
864.491	0.03
864.777	0.02
865.063	0.03
865.349	0.03
865.635	-0
865.92	0.02
866.206	0.05
866.492	0.05
866.777	0.03
867.062	-0
867.348	0.02
867.633	0.03
867.918	-0
868.203	0.02
868.488	0.03
868.773	0.02
869.058	0.01
869.343	0.02
869.628	0.03
869.912	0.05
870.197	0
870.482	0.03
870.766	0.06
871.05	0.08
871.335	0.04
871.619	0.02
871.903	0.05
872.187	0.05
872.471	0.03
872.755	0.05
873.039	0.05
873.323	0.02
873.607	0
873.89	0.05
874.174	-0
874.458	0.01
874.741	-0
875.024	-0
875.308	-0.03
875.591	0.05
875.874	0
876.157	0.06
876.44	-0.01
876.723	0.07
877.006	0.05
877.289	0.12
877.572	0.07
877.854	0.06
878.137	0.17
878.42	0.03
878.702	0.1
878.984	0.04
879.267	0.06
879.549	0.11
879.831	0.02
880.113	0.04
880.395	0.06
880.677	0.04
880.959	-0.05
