Data from Rubpy_EV_1500_EDTA_Buffered_Absorbance_15-05-25-919.txt Node
Date: Tue Jun 30 15:05:25 BST 2026
User: fpm-admin
Spectrometer: OFX00224
Trigger mode: 0
Integration Time (sec): 7.000000E-2
Scans to average: 3
Nonlinearity correction enabled: false
Boxcar width: 0
Storing dark spectrum: false
XAxis mode: Wavelengths
Number of Pixels in Spectrum: 2136
>>>>>Begin Spectral Data<<<<<
154.91	0.65
155.289	0.19
155.669	-0
156.048	-0
156.428	-0.2
156.807	0.94
157.186	-0.66
157.566	0.18
157.945	0.04
158.325	-1.41
158.704	-1.57
159.083	-0
159.462	-0
159.842	-0
160.221	-0.38
160.6	0.35
160.979	0.85
161.359	-0.34
161.738	-0
162.117	-0
162.496	-0
162.875	-0.14
163.254	-0.44
163.633	0.12
164.012	-0
164.391	0.51
164.77	0.24
165.149	0.54
165.528	-0
165.907	0.48
166.286	-0.68
166.665	0.4
167.044	0.26
167.423	0.21
167.802	-0
168.181	0.03
168.559	-0.55
168.938	0.18
169.317	-0.84
169.696	0.02
170.074	0.31
170.453	-0
170.832	-0
171.21	-0.24
171.589	-0.27
171.968	0.06
172.346	-0.59
172.725	-0
173.103	-0.28
173.482	-0.7
173.861	-0.24
174.239	-0
174.617	-0
174.996	-0.57
175.374	-0
175.753	-0.33
176.131	-0.06
176.51	-0.01
176.888	-0.21
177.266	-0
177.645	-0.12
178.023	0.85
178.401	-0.24
178.779	-0.19
179.158	0.48
179.536	0.9
179.914	-0.49
180.292	0.24
180.67	-0.12
181.048	0.6
181.427	0.51
181.805	-0
182.183	0.08
182.561	-0.12
182.939	-1.43
183.317	-0
183.695	0.2
184.073	-0.39
184.451	0.05
184.829	-0.54
185.206	-0.08
185.584	-0
185.962	-0.73
186.34	0.12
186.718	-0
187.096	-0
187.473	-0
187.851	0.71
188.229	-0.22
188.607	0.37
188.984	0.2
189.362	0.41
189.74	0.15
190.117	0.31
190.495	0.24
190.872	0.16
191.25	0.28
191.627	0.25
192.005	0.2
192.382	0.37
192.76	0.33
193.137	0.24
193.515	0.25
193.892	0.29
194.269	0.23
194.647	0.09
195.024	0.16
195.401	0.15
195.779	0.27
196.156	0.28
196.533	0.39
196.91	0.08
197.288	0.2
197.665	0.18
198.042	0.12
198.419	0.22
198.796	0.21
199.173	0.24
199.55	0.1
199.927	0.22
200.304	0.3
200.681	0.26
201.058	0.2
201.435	0.14
201.812	0.28
202.189	0.26
202.566	0.26
202.943	0.12
203.32	0.18
203.697	0.22
204.073	0.17
204.45	0.19
204.827	0.16
205.204	0.26
205.58	0.25
205.957	0.21
206.334	0.2
206.71	0.34
207.087	0.43
207.464	0.39
207.84	0.24
208.217	0.2
208.593	0.26
208.97	0.23
209.346	0.35
209.723	0.28
210.099	0.14
210.476	0.23
210.852	0.2
211.228	0.2
211.605	0.24
211.981	0.16
212.357	0.19
212.733	0.2
213.11	0.33
213.486	0.16
213.862	0.17
214.238	0.19
214.614	0.27
214.991	0.19
215.367	0.24
215.743	0.26
216.119	0.24
216.495	0.21
216.871	0.21
217.247	0.2
217.623	0.16
217.999	0.14
218.375	0.24
218.751	0.2
219.127	0.27
219.502	0.37
219.878	0.13
220.254	0.22
220.63	0.33
221.006	0.32
221.381	0.23
221.757	0.31
222.133	0.31
222.508	0.23
222.884	0.23
223.26	0.23
223.635	0.32
224.011	0.25
224.386	0.21
224.762	0.26
225.137	0.18
225.513	0.27
225.888	0.29
226.264	0.24
226.639	0.33
227.014	0.2
227.39	0.24
227.765	0.37
228.14	0.3
228.516	0.3
228.891	0.26
229.266	0.31
229.641	0.36
230.017	0.2
230.392	0.25
230.767	0.22
231.142	0.27
231.517	0.22
231.892	0.26
232.267	0.29
232.642	0.32
233.017	0.25
233.392	0.41
233.767	0.28
234.142	0.25
234.517	0.17
234.892	0.2
235.267	0.27
235.641	0.26
236.016	0.17
236.391	0.09
236.766	0.21
237.14	0.23
237.515	0.15
237.89	0.41
238.264	0.35
238.639	0.34
239.014	0.24
239.388	0.19
239.763	0.26
240.137	0.25
240.512	0.26
240.886	0.26
241.261	0.31
241.635	0.25
242.009	0.22
242.384	0.32
242.758	0.35
243.132	0.26
243.507	0.28
243.881	0.26
244.255	0.25
244.629	0.27
245.004	0.28
245.378	0.36
245.752	0.24
246.126	0.25
246.5	0.16
246.874	0.22
247.248	0.22
247.622	0.18
247.996	0.29
248.37	0.24
248.744	0.24
249.118	0.13
249.492	0.28
249.866	0.29
250.24	0.26
250.613	0.21
250.987	0.22
251.361	0.16
251.735	0.28
252.108	0.23
252.482	0.2
252.856	0.24
253.229	0.23
253.603	0.23
253.977	0.25
254.35	0.25
254.724	0.24
255.097	0.15
255.471	0.33
255.844	0.31
256.218	0.27
256.591	0.11
256.964	0.21
257.338	0.26
257.711	0.28
258.084	0.25
258.458	0.38
258.831	0.27
259.204	0.2
259.577	0.27
259.95	0.31
260.323	0.3
260.697	0.24
261.07	0.31
261.443	0.23
261.816	0.25
262.189	0.29
262.562	0.31
262.935	0.18
263.308	0.3
263.68	0.24
264.053	0.24
264.426	0.21
264.799	0.26
265.172	0.26
265.545	0.3
265.917	0.21
266.29	0.14
266.663	0.25
267.035	0.27
267.408	0.23
267.781	0.34
268.153	0.32
268.526	0.26
268.898	0.35
269.271	0.26
269.643	0.25
270.016	0.25
270.388	0.24
270.76	0.18
271.133	0.25
271.505	0.23
271.877	0.25
272.25	0.27
272.622	0.28
272.994	0.24
273.366	0.3
273.739	0.37
274.111	0.3
274.483	0.27
274.855	0.32
275.227	0.33
275.599	0.22
275.971	0.25
276.343	0.29
276.715	0.19
277.087	0.24
277.459	0.28
277.831	0.28
278.203	0.23
278.574	0.26
278.946	0.34
279.318	0.22
279.69	0.3
280.061	0.26
280.433	0.25
280.805	0.25
281.176	0.35
281.548	0.2
281.92	0.29
282.291	0.21
282.663	0.27
283.034	0.27
283.406	0.22
283.777	0.29
284.148	0.28
284.52	0.28
284.891	0.25
285.262	0.18
285.634	0.27
286.005	0.31
286.376	0.23
286.747	0.19
287.119	0.22
287.49	0.2
287.861	0.25
288.232	0.22
288.603	0.25
288.974	0.27
289.345	0.18
289.716	0.28
290.087	0.26
290.458	0.33
290.829	0.36
291.2	0.25
291.571	0.21
291.941	0.3
292.312	0.24
292.683	0.35
293.054	0.27
293.424	0.16
293.795	0.24
294.166	0.27
294.536	0.25
294.907	0.24
295.277	0.26
295.648	0.32
296.018	0.25
296.389	0.25
296.759	0.24
297.13	0.25
297.5	0.28
297.871	0.27
298.241	0.23
298.611	0.28
298.981	0.26
299.352	0.21
299.722	0.25
300.092	0.24
300.462	0.2
300.832	0.27
301.202	0.2
301.573	0.23
301.943	0.23
302.313	0.23
302.683	0.19
303.053	0.21
303.422	0.21
303.792	0.19
304.162	0.21
304.532	0.21
304.902	0.2
305.272	0.19
305.641	0.21
306.011	0.21
306.381	0.21
306.75	0.21
307.12	0.22
307.49	0.21
307.859	0.22
308.229	0.22
308.598	0.22
308.968	0.22
309.337	0.22
309.707	0.22
310.076	0.22
310.445	0.22
310.815	0.23
311.184	0.24
311.553	0.24
311.923	0.24
312.292	0.23
312.661	0.24
313.03	0.24
313.399	0.24
313.768	0.24
314.137	0.24
314.506	0.25
314.875	0.24
315.244	0.24
315.613	0.24
315.982	0.24
316.351	0.24
316.72	0.23
317.089	0.23
317.458	0.23
317.826	0.23
318.195	0.22
318.564	0.23
318.933	0.22
319.301	0.21
319.67	0.22
320.038	0.22
320.407	0.21
320.775	0.21
321.144	0.21
321.512	0.21
321.881	0.21
322.249	0.21
322.618	0.21
322.986	0.21
323.354	0.2
323.723	0.2
324.091	0.2
324.459	0.2
324.827	0.19
325.195	0.2
325.564	0.2
325.932	0.19
326.3	0.19
326.668	0.19
327.036	0.19
327.404	0.2
327.772	0.19
328.14	0.2
328.508	0.19
328.875	0.19
329.243	0.19
329.611	0.2
329.979	0.2
330.346	0.2
330.714	0.2
331.082	0.2
331.449	0.2
331.817	0.2
332.185	0.21
332.552	0.2
332.92	0.21
333.287	0.21
333.655	0.22
334.022	0.22
334.389	0.22
334.757	0.22
335.124	0.22
335.491	0.22
335.859	0.23
336.226	0.23
336.593	0.23
336.96	0.24
337.327	0.23
337.695	0.24
338.062	0.24
338.429	0.25
338.796	0.26
339.163	0.26
339.53	0.26
339.897	0.26
340.263	0.26
340.63	0.27
340.997	0.27
341.364	0.28
341.731	0.29
342.097	0.29
342.464	0.29
342.831	0.3
343.197	0.3
343.564	0.31
343.931	0.31
344.297	0.32
344.664	0.32
345.03	0.33
345.396	0.33
345.763	0.34
346.129	0.34
346.496	0.34
346.862	0.35
347.228	0.36
347.594	0.36
347.961	0.36
348.327	0.37
348.693	0.37
349.059	0.38
349.425	0.39
349.791	0.4
350.157	0.4
350.523	0.41
350.889	0.42
351.255	0.42
351.621	0.43
351.987	0.44
352.353	0.45
352.719	0.46
353.084	0.47
353.45	0.47
353.816	0.48
354.181	0.49
354.547	0.51
354.913	0.51
355.278	0.52
355.644	0.53
356.009	0.54
356.375	0.56
356.74	0.57
357.106	0.58
357.471	0.58
357.836	0.6
358.202	0.62
358.567	0.63
358.932	0.64
359.297	0.65
359.663	0.65
360.028	0.67
360.393	0.67
360.758	0.68
361.123	0.69
361.488	0.7
361.853	0.71
362.218	0.71
362.583	0.73
362.948	0.74
363.312	0.73
363.677	0.75
364.042	0.76
364.407	0.78
364.772	0.79
365.136	0.79
365.501	0.82
365.865	0.84
366.23	0.86
366.595	0.86
366.959	0.88
367.324	0.89
367.688	0.92
368.052	0.92
368.417	0.94
368.781	0.95
369.145	0.96
369.51	0.98
369.874	0.98
370.238	0.97
370.602	0.97
370.967	0.97
371.331	0.97
371.695	0.95
372.059	0.96
372.423	0.95
372.787	0.94
373.151	0.94
373.515	0.95
373.878	0.93
374.242	0.94
374.606	0.94
374.97	0.94
375.334	0.94
375.697	0.95
376.061	0.95
376.425	0.94
376.788	0.96
377.152	0.96
377.515	0.97
377.879	0.97
378.242	0.99
378.606	1
378.969	1.02
379.333	1.03
379.696	1.04
380.059	1.04
380.422	1.06
380.786	1.08
381.149	1.1
381.512	1.11
381.875	1.14
382.238	1.16
382.601	1.19
382.964	1.22
383.327	1.24
383.69	1.28
384.053	1.3
384.416	1.34
384.779	1.35
385.142	1.39
385.504	1.41
385.867	1.44
386.23	1.43
386.593	1.44
386.955	1.46
387.318	1.46
387.68	1.46
388.043	1.45
388.405	1.43
388.768	1.43
389.13	1.43
389.493	1.4
389.855	1.41
390.217	1.38
390.58	1.39
390.942	1.39
391.304	1.41
391.666	1.41
392.028	1.43
392.391	1.46
392.753	1.5
393.115	1.54
393.477	1.58
393.839	1.61
394.201	1.66
394.563	1.72
394.924	1.79
395.286	1.84
395.648	1.85
396.01	1.9
396.371	1.94
396.733	1.92
397.095	1.94
397.456	1.95
397.818	1.93
398.18	1.93
398.541	1.89
398.903	1.89
399.264	1.84
399.625	1.8
399.987	1.8
400.348	1.72
400.709	1.68
401.071	1.61
401.432	1.53
401.793	1.44
402.154	1.36
402.515	1.28
402.876	1.2
403.238	1.12
403.599	1.04
403.96	0.97
404.32	0.9
404.681	0.85
405.042	0.79
405.403	0.73
405.764	0.68
406.125	0.63
406.485	0.6
406.846	0.56
407.207	0.52
407.567	0.49
407.928	0.46
408.288	0.44
408.649	0.41
409.009	0.4
409.37	0.37
409.73	0.35
410.091	0.34
410.451	0.32
410.811	0.31
411.171	0.29
411.532	0.28
411.892	0.27
412.252	0.25
412.612	0.25
412.972	0.24
413.332	0.23
413.692	0.22
414.052	0.21
414.412	0.2
414.772	0.2
415.132	0.19
415.492	0.19
415.851	0.19
416.211	0.18
416.571	0.17
416.931	0.17
417.29	0.16
417.65	0.15
418.009	0.15
418.369	0.15
418.728	0.15
419.088	0.14
419.447	0.13
419.807	0.14
420.166	0.14
420.525	0.13
420.884	0.12
421.244	0.13
421.603	0.13
421.962	0.12
422.321	0.13
422.68	0.11
423.039	0.12
423.398	0.12
423.757	0.12
424.116	0.12
424.475	0.12
424.834	0.11
425.193	0.11
425.551	0.1
425.91	0.11
426.269	0.11
426.628	0.1
426.986	0.1
427.345	0.1
427.703	0.11
428.062	0.1
428.42	0.1
428.779	0.09
429.137	0.1
429.496	0.1
429.854	0.09
430.212	0.09
430.57	0.09
430.929	0.09
431.287	0.09
431.645	0.1
432.003	0.08
432.361	0.09
432.719	0.08
433.077	0.08
433.435	0.09
433.793	0.09
434.151	0.08
434.509	0.08
434.866	0.09
435.224	0.08
435.582	0.08
435.94	0.09
436.297	0.09
436.655	0.08
437.012	0.08
437.37	0.08
437.727	0.08
438.085	0.07
438.442	0.09
438.8	0.07
439.157	0.07
439.514	0.08
439.872	0.06
440.229	0.08
440.586	0.07
440.943	0.07
441.3	0.08
441.657	0.07
442.014	0.07
442.371	0.07
442.728	0.07
443.085	0.07
443.442	0.07
443.799	0.07
444.156	0.06
444.513	0.07
444.869	0.06
445.226	0.06
445.583	0.07
445.939	0.07
446.296	0.06
446.652	0.06
447.009	0.07
447.365	0.05
447.722	0.06
448.078	0.05
448.434	0.06
448.791	0.06
449.147	0.05
449.503	0.05
449.859	0.05
450.215	0.06
450.571	0.06
450.928	0.06
451.284	0.05
451.64	0.05
451.995	0.05
452.351	0.04
452.707	0.05
453.063	0.04
453.419	0.04
453.775	0.04
454.13	0.04
454.486	0.04
454.842	0.04
455.197	0.04
455.553	0.03
455.908	0.03
456.264	0.03
456.619	0.02
456.975	0.04
457.33	0.02
457.685	0.03
458.04	0.02
458.396	0.02
458.751	0.03
459.106	0.02
459.461	0.01
459.816	0.02
460.171	0.01
460.526	0.01
460.881	0.01
461.236	0
461.591	0.01
461.946	-0
462.301	-0.01
462.655	-0
463.01	0.01
463.365	-0.01
463.719	-0.01
464.074	-0.01
464.428	-0.02
464.783	-0.02
465.137	-0.02
465.492	-0.02
465.846	-0.02
466.201	-0.01
466.555	-0.01
466.909	-0.02
467.263	-0
467.618	-0.01
467.972	-0.01
468.326	-0.02
468.68	-0.02
469.034	-0.02
469.388	-0.02
469.742	-0.02
470.096	-0.03
470.45	-0.02
470.804	-0.02
471.157	-0.02
471.511	-0.01
471.865	-0.01
472.218	-0.02
472.572	-0.01
472.926	-0.01
473.279	-0.01
473.633	-0
473.986	0
474.34	0
474.693	0
475.046	0.01
475.4	0.01
475.753	0.02
476.106	0.02
476.459	0.02
476.812	0.03
477.165	0.03
477.519	0.04
477.872	0.04
478.224	0.05
478.577	0.04
478.93	0.05
479.283	0.04
479.636	0.05
479.989	0.05
480.341	0.06
480.694	0.06
481.047	0.06
481.399	0.07
481.752	0.07
482.104	0.07
482.457	0.08
482.809	0.08
483.162	0.08
483.514	0.07
483.866	0.08
484.219	0.08
484.571	0.08
484.923	0.09
485.275	0.09
485.627	0.09
485.979	0.1
486.331	0.09
486.683	0.1
487.035	0.1
487.387	0.1
487.739	0.11
488.091	0.11
488.443	0.11
488.794	0.11
489.146	0.11
489.498	0.11
489.849	0.11
490.201	0.11
490.552	0.11
490.904	0.12
491.255	0.12
491.607	0.12
491.958	0.12
492.309	0.12
492.661	0.12
493.012	0.12
493.363	0.13
493.714	0.13
494.065	0.13
494.416	0.13
494.767	0.13
495.118	0.13
495.469	0.14
495.82	0.14
496.171	0.15
496.522	0.14
496.872	0.14
497.223	0.15
497.574	0.16
497.924	0.15
498.275	0.15
498.626	0.15
498.976	0.16
499.327	0.16
499.677	0.16
500.027	0.16
500.378	0.16
500.728	0.17
501.078	0.17
501.428	0.17
501.779	0.17
502.129	0.17
502.479	0.18
502.829	0.18
503.179	0.18
503.529	0.18
503.879	0.18
504.229	0.19
504.578	0.19
504.928	0.18
505.278	0.19
505.628	0.2
505.977	0.2
506.327	0.19
506.676	0.2
507.026	0.21
507.375	0.2
507.725	0.2
508.074	0.2
508.424	0.21
508.773	0.21
509.122	0.21
509.471	0.21
509.82	0.22
510.17	0.22
510.519	0.22
510.868	0.22
511.217	0.22
511.566	0.23
511.915	0.22
512.263	0.23
512.612	0.23
512.961	0.23
513.31	0.24
513.659	0.24
514.007	0.24
514.356	0.24
514.704	0.25
515.053	0.24
515.401	0.25
515.75	0.25
516.098	0.25
516.447	0.25
516.795	0.26
517.143	0.26
517.491	0.26
517.839	0.26
518.188	0.26
518.536	0.27
518.884	0.26
519.232	0.26
519.58	0.27
519.928	0.28
520.275	0.28
520.623	0.28
520.971	0.28
521.319	0.28
521.666	0.28
522.014	0.29
522.362	0.29
522.709	0.29
523.057	0.29
523.404	0.29
523.752	0.3
524.099	0.3
524.446	0.3
524.794	0.3
525.141	0.31
525.488	0.31
525.835	0.31
526.182	0.31
526.529	0.31
526.876	0.31
527.223	0.32
527.57	0.32
527.917	0.32
528.264	0.32
528.611	0.32
528.958	0.33
529.304	0.33
529.651	0.33
529.998	0.34
530.344	0.34
530.691	0.34
531.037	0.35
531.384	0.35
531.73	0.35
532.076	0.34
532.423	0.35
532.769	0.35
533.115	0.36
533.461	0.36
533.807	0.36
534.154	0.36
534.5	0.36
534.846	0.37
535.192	0.37
535.537	0.37
535.883	0.38
536.229	0.38
536.575	0.39
536.921	0.39
537.266	0.39
537.612	0.39
537.957	0.39
538.303	0.4
538.649	0.4
538.994	0.4
539.339	0.41
539.685	0.41
540.03	0.41
540.375	0.42
540.721	0.42
541.066	0.42
541.411	0.42
541.756	0.43
542.101	0.43
542.446	0.43
542.791	0.44
543.136	0.44
543.481	0.44
543.825	0.44
544.17	0.45
544.515	0.45
544.86	0.45
545.204	0.46
545.549	0.46
545.893	0.46
546.238	0.47
546.582	0.47
546.927	0.47
547.271	0.47
547.615	0.48
547.96	0.48
548.304	0.48
548.648	0.49
548.992	0.49
549.336	0.49
549.68	0.49
550.024	0.5
550.368	0.5
550.712	0.5
551.056	0.5
551.4	0.51
551.743	0.51
552.087	0.51
552.431	0.51
552.774	0.51
553.118	0.52
553.462	0.52
553.805	0.52
554.148	0.52
554.492	0.52
554.835	0.53
555.178	0.53
555.522	0.53
555.865	0.54
556.208	0.53
556.551	0.54
556.894	0.54
557.237	0.54
557.58	0.54
557.923	0.55
558.266	0.54
558.609	0.54
558.952	0.55
559.294	0.56
559.637	0.55
559.98	0.55
560.322	0.56
560.665	0.55
561.007	0.56
561.35	0.56
561.692	0.56
562.034	0.57
562.377	0.57
562.719	0.56
563.061	0.57
563.403	0.57
563.745	0.57
564.088	0.57
564.43	0.57
564.772	0.57
565.113	0.57
565.455	0.57
565.797	0.57
566.139	0.57
566.481	0.58
566.822	0.58
567.164	0.58
567.506	0.58
567.847	0.58
568.189	0.58
568.53	0.58
568.872	0.58
569.213	0.59
569.554	0.59
569.895	0.59
570.237	0.58
570.578	0.59
570.919	0.58
571.26	0.59
571.601	0.59
571.942	0.59
572.283	0.59
572.624	0.59
572.965	0.59
573.306	0.59
573.646	0.59
573.987	0.59
574.328	0.58
574.668	0.59
575.009	0.59
575.349	0.59
575.69	0.59
576.03	0.59
576.37	0.59
576.711	0.58
577.051	0.59
577.391	0.59
577.731	0.59
578.072	0.6
578.412	0.6
578.752	0.59
579.092	0.59
579.431	0.59
579.771	0.59
580.111	0.58
580.451	0.58
580.791	0.59
581.13	0.6
581.47	0.6
581.81	0.6
582.149	0.6
582.489	0.6
582.828	0.6
583.167	0.6
583.507	0.57
583.846	0.55
584.185	0.57
584.525	0.59
584.864	0.6
585.203	0.61
585.542	0.62
585.881	0.62
586.22	0.63
586.559	0.62
586.898	0.62
587.236	0.61
587.575	0.62
587.914	0.61
588.252	0.62
588.591	0.63
588.93	0.64
589.268	0.64
589.607	0.64
589.945	0.64
590.283	0.64
590.622	0.64
590.96	0.65
591.298	0.66
591.636	0.66
591.974	0.66
592.313	0.67
592.651	0.67
592.989	0.67
593.326	0.67
593.664	0.67
594.002	0.67
594.34	0.68
594.678	0.68
595.015	0.68
595.353	0.68
595.691	0.68
596.028	0.69
596.366	0.69
596.703	0.7
597.04	0.7
597.378	0.7
597.715	0.7
598.052	0.71
598.389	0.71
598.726	0.72
599.064	0.71
599.401	0.72
599.738	0.71
600.074	0.72
600.411	0.72
600.748	0.72
601.085	0.72
601.422	0.72
601.758	0.72
602.095	0.72
602.432	0.72
602.768	0.72
603.105	0.72
603.441	0.72
603.777	0.72
604.114	0.73
604.45	0.73
604.786	0.73
605.122	0.73
605.459	0.73
605.795	0.73
606.131	0.73
606.467	0.72
606.803	0.72
607.139	0.73
607.474	0.73
607.81	0.72
608.146	0.72
608.482	0.72
608.817	0.72
609.153	0.71
609.488	0.71
609.824	0.71
610.159	0.71
610.495	0.71
610.83	0.71
611.165	0.71
611.5	0.71
611.836	0.71
612.171	0.7
612.506	0.7
612.841	0.7
613.176	0.7
613.511	0.7
613.845	0.69
614.18	0.69
614.515	0.69
614.85	0.69
615.184	0.69
615.519	0.68
615.854	0.68
616.188	0.68
616.523	0.68
616.857	0.68
617.191	0.67
617.526	0.67
617.86	0.67
618.194	0.67
618.528	0.67
618.862	0.67
619.196	0.67
619.53	0.66
619.864	0.66
620.198	0.66
620.532	0.65
620.866	0.65
621.2	0.64
621.533	0.64
621.867	0.65
622.201	0.64
622.534	0.64
622.868	0.64
623.201	0.64
623.534	0.64
623.868	0.63
624.201	0.63
624.534	0.63
624.868	0.62
625.201	0.63
625.534	0.62
625.867	0.62
626.2	0.62
626.533	0.61
626.865	0.61
627.198	0.6
627.531	0.6
627.864	0.6
628.196	0.6
628.529	0.6
628.862	0.59
629.194	0.59
629.527	0.58
629.859	0.58
630.191	0.58
630.524	0.58
630.856	0.58
631.188	0.57
631.52	0.57
631.852	0.56
632.184	0.56
632.516	0.56
632.848	0.55
633.18	0.55
633.512	0.55
633.844	0.54
634.175	0.53
634.507	0.53
634.839	0.53
635.17	0.52
635.502	0.52
635.833	0.52
636.165	0.51
636.496	0.51
636.827	0.51
637.159	0.5
637.49	0.5
637.821	0.49
638.152	0.5
638.483	0.49
638.814	0.48
639.145	0.48
639.476	0.48
639.807	0.47
640.137	0.47
640.468	0.46
640.799	0.46
641.129	0.46
641.46	0.45
641.791	0.45
642.121	0.45
642.451	0.44
642.782	0.44
643.112	0.43
643.442	0.43
643.773	0.43
644.103	0.42
644.433	0.42
644.763	0.42
645.093	0.42
645.423	0.42
645.753	0.41
646.082	0.41
646.412	0.41
646.742	0.41
647.072	0.41
647.401	0.41
647.731	0.41
648.06	0.41
648.39	0.4
648.719	0.41
649.048	0.4
649.378	0.39
649.707	0.39
650.036	0.39
650.365	0.39
650.694	0.39
651.023	0.39
651.352	0.39
651.681	0.39
652.01	0.39
652.339	0.39
652.668	0.39
652.996	0.38
653.325	0.38
653.654	0.38
653.982	0.38
654.311	0.38
654.639	0.38
654.967	0.38
655.296	0.38
655.624	0.38
655.952	0.38
656.28	0.38
656.609	0.38
656.937	0.38
657.265	0.39
657.593	0.36
657.92	0.22
658.248	0.16
658.576	0.15
658.904	0.23
659.231	0.32
659.559	0.36
659.887	0.37
660.214	0.37
660.542	0.37
660.869	0.37
661.196	0.37
661.524	0.37
661.851	0.38
662.178	0.37
662.505	0.37
662.832	0.37
663.159	0.37
663.486	0.37
663.813	0.36
664.14	0.37
664.467	0.37
664.794	0.36
665.12	0.36
665.447	0.36
665.774	0.36
666.1	0.36
666.427	0.36
666.753	0.36
667.079	0.36
667.406	0.36
667.732	0.36
668.058	0.36
668.384	0.36
668.71	0.36
669.036	0.35
669.362	0.35
669.688	0.35
670.014	0.35
670.34	0.35
670.666	0.35
670.991	0.34
671.317	0.34
671.643	0.34
671.968	0.34
672.294	0.34
672.619	0.33
672.945	0.33
673.27	0.33
673.595	0.33
673.92	0.33
674.246	0.33
674.571	0.33
674.896	0.32
675.221	0.32
675.546	0.32
675.87	0.32
676.195	0.32
676.52	0.31
676.845	0.31
677.169	0.31
677.494	0.31
677.819	0.31
678.143	0.3
678.468	0.3
678.792	0.3
679.116	0.3
679.44	0.29
679.765	0.29
680.089	0.29
680.413	0.28
680.737	0.28
681.061	0.28
681.385	0.28
681.709	0.27
682.033	0.27
682.356	0.27
682.68	0.26
683.004	0.26
683.327	0.26
683.651	0.25
683.974	0.25
684.298	0.25
684.621	0.25
684.944	0.25
685.268	0.25
685.591	0.24
685.914	0.24
686.237	0.24
686.56	0.23
686.883	0.23
687.206	0.23
687.529	0.22
687.852	0.22
688.175	0.22
688.497	0.22
688.82	0.22
689.142	0.21
689.465	0.21
689.787	0.21
690.11	0.21
690.432	0.21
690.755	0.2
691.077	0.2
691.399	0.2
691.721	0.2
692.043	0.19
692.365	0.19
692.687	0.19
693.009	0.18
693.331	0.18
693.653	0.18
693.974	0.18
694.296	0.18
694.618	0.17
694.939	0.18
695.261	0.17
695.582	0.17
695.904	0.17
696.225	0.16
696.546	0.16
696.868	0.16
697.189	0.16
697.51	0.16
697.831	0.16
698.152	0.16
698.473	0.16
698.794	0.15
699.114	0.15
699.435	0.15
699.756	0.15
700.077	0.15
700.397	0.15
700.718	0.14
701.038	0.15
701.359	0.14
701.679	0.14
701.999	0.14
702.32	0.14
702.64	0.14
702.96	0.14
703.28	0.14
703.6	0.14
703.92	0.14
704.24	0.13
704.56	0.13
704.879	0.13
705.199	0.13
705.519	0.13
705.838	0.13
706.158	0.13
706.478	0.13
706.797	0.13
707.116	0.13
707.436	0.13
707.755	0.13
708.074	0.13
708.393	0.13
708.712	0.13
709.031	0.12
709.35	0.12
709.669	0.12
709.988	0.12
710.307	0.12
710.626	0.12
710.944	0.12
711.263	0.12
711.582	0.12
711.9	0.12
712.219	0.12
712.537	0.12
712.855	0.12
713.174	0.12
713.492	0.12
713.81	0.12
714.128	0.11
714.446	0.12
714.764	0.11
715.082	0.11
715.4	0.11
715.718	0.11
716.035	0.11
716.353	0.11
716.671	0.11
716.988	0.12
717.306	0.11
717.623	0.12
717.941	0.12
718.258	0.12
718.575	0.12
718.893	0.12
719.21	0.12
719.527	0.12
719.844	0.12
720.161	0.12
720.478	0.12
720.795	0.12
721.112	0.12
721.428	0.12
721.745	0.12
722.062	0.12
722.378	0.13
722.695	0.13
723.011	0.13
723.328	0.13
723.644	0.13
723.96	0.13
724.276	0.13
724.593	0.13
724.909	0.13
725.225	0.13
725.541	0.13
725.857	0.13
726.173	0.13
726.488	0.13
726.804	0.13
727.12	0.13
727.435	0.13
727.751	0.13
728.067	0.14
728.382	0.14
728.697	0.13
729.013	0.14
729.328	0.13
729.643	0.14
729.958	0.13
730.273	0.13
730.588	0.13
730.903	0.13
731.218	0.14
731.533	0.14
731.848	0.14
732.163	0.14
732.477	0.14
732.792	0.14
733.107	0.13
733.421	0.13
733.736	0.13
734.05	0.14
734.364	0.14
734.678	0.14
734.993	0.13
735.307	0.14
735.621	0.13
735.935	0.13
736.249	0.13
736.563	0.13
736.877	0.13
737.19	0.14
737.504	0.13
737.818	0.13
738.131	0.13
738.445	0.13
738.758	0.13
739.072	0.13
739.385	0.13
739.698	0.13
740.012	0.13
740.325	0.13
740.638	0.13
740.951	0.13
741.264	0.12
741.577	0.12
741.89	0.13
742.203	0.12
742.515	0.13
742.828	0.13
743.141	0.12
743.453	0.12
743.766	0.12
744.078	0.12
744.391	0.12
744.703	0.12
745.015	0.12
745.327	0.12
745.639	0.12
745.952	0.11
746.264	0.11
746.575	0.11
746.887	0.11
747.199	0.11
747.511	0.11
747.823	0.11
748.134	0.11
748.446	0.1
748.757	0.1
749.069	0.1
749.38	0.1
749.692	0.1
750.003	0.1
750.314	0.1
750.625	0.1
750.936	0.1
751.248	0.1
751.559	0.09
751.869	0.09
752.18	0.09
752.491	0.09
752.802	0.09
753.112	0.09
753.423	0.08
753.734	0.08
754.044	0.09
754.355	0.08
754.665	0.08
754.975	0.08
755.285	0.08
755.596	0.07
755.906	0.07
756.216	0.07
756.526	0.07
756.836	0.07
757.146	0.07
757.455	0.07
757.765	0.07
758.075	0.07
758.385	0.07
758.694	0.06
759.004	0.06
759.313	0.06
759.622	0.06
759.932	0.06
760.241	0.06
760.55	0.06
760.859	0.06
761.168	0.06
761.477	0.06
761.786	0.06
762.095	0.06
762.404	0.06
762.713	0.05
763.021	0.05
763.33	0.05
763.639	0.05
763.947	0.05
764.256	0.04
764.564	0.04
764.872	0.04
765.181	0.05
765.489	0.04
765.797	0.04
766.105	0.04
766.413	0.04
766.721	0.04
767.029	0.04
767.337	0.05
767.644	0.05
767.952	0.04
768.26	0.04
768.567	0.05
768.875	0.05
769.182	0.04
769.49	0.04
769.797	0.04
770.104	0.04
770.411	0.04
770.718	0.04
771.026	0.04
771.333	0.04
771.639	0.04
771.946	0.04
772.253	0.04
772.56	0.04
772.867	0.03
773.173	0.04
773.48	0.03
773.786	0.04
774.093	0.03
774.399	0.03
774.705	0.03
775.012	0.03
775.318	0.03
775.624	0.03
775.93	0.03
776.236	0.03
776.542	0.03
776.848	0.03
777.154	0.03
777.459	0.03
777.765	0.04
778.071	0.03
778.376	0.03
778.682	0.03
778.987	0.03
779.292	0.03
779.598	0.03
779.903	0.03
780.208	0.03
780.513	0.03
780.818	0.03
781.123	0.03
781.428	0.03
781.733	0.03
782.038	0.03
782.343	0.03
782.647	0.03
782.952	0.03
783.256	0.03
783.561	0.03
783.865	0.03
784.17	0.03
784.474	0.04
784.778	0.03
785.082	0.03
785.386	0.03
785.69	0.03
785.994	0.03
786.298	0.03
786.602	0.03
786.906	0.03
787.209	0.03
787.513	0.03
787.817	0.03
788.12	0.03
788.424	0.03
788.727	0.03
789.03	0.03
789.333	0.03
789.637	0.03
789.94	0.03
790.243	0.03
790.546	0.03
790.849	0.03
791.152	0.03
791.454	0.03
791.757	0.03
792.06	0.03
792.362	0.03
792.665	0.03
792.967	0.03
793.27	0.03
793.572	0.02
793.874	0.02
794.177	0.03
794.479	0.03
794.781	0.03
795.083	0.03
795.385	0.03
795.687	0.03
795.989	0.03
796.29	0.03
796.592	0.03
796.894	0.03
797.195	0.03
797.497	0.03
797.798	0.03
798.1	0.03
798.401	0.03
798.702	0.03
799.003	0.03
799.304	0.03
799.605	0.03
799.906	0.03
800.207	0.03
800.508	0.03
800.809	0.03
801.11	0.03
801.41	0.03
801.711	0.03
802.011	0.03
802.312	0.03
802.612	0.03
802.913	0.03
803.213	0.03
803.513	0.04
803.813	0.03
804.113	0.04
804.413	0.04
804.713	0.04
805.013	0.04
805.313	0.03
805.613	0.04
805.912	0.03
806.212	0.04
806.511	0.04
806.811	0.04
807.11	0.04
807.41	0.04
807.709	0.04
808.008	0.03
808.307	0.03
808.606	0.03
808.905	0.03
809.204	0.03
809.503	0.03
809.802	0.03
810.101	0.03
810.399	0.02
810.698	0.02
810.997	0.03
811.295	0.03
811.593	0.03
811.892	0.02
812.19	0.03
812.488	0.03
812.786	0.03
813.084	0.03
813.383	0.02
813.68	0.03
813.978	0.03
814.276	0.02
814.574	0.03
814.872	0.02
815.169	0.02
815.467	0.02
815.764	0.02
816.062	0.03
816.359	0.03
816.656	0.02
816.954	0.02
817.251	0.02
817.548	0.02
817.845	0.02
818.142	0.02
818.439	0.03
818.735	0.03
819.032	0.02
819.329	0.03
819.626	0.02
819.922	0.03
820.219	0.03
820.515	0.03
820.811	0.03
821.108	0.03
821.404	0.02
821.7	0.02
821.996	0.02
822.292	0.02
822.588	0.03
822.884	0.02
823.18	0.02
823.475	0.03
823.771	0.03
824.067	0.03
824.362	0.03
824.658	0.03
824.953	0.04
825.249	0.03
825.544	0.04
825.839	0.04
826.134	0.04
826.429	0.03
826.724	0.03
827.019	0.02
827.314	0.03
827.609	0.04
827.904	0.03
828.198	0.02
828.493	0.03
828.787	0.02
829.082	0.03
829.376	0.03
829.671	0.03
829.965	0.02
830.259	0.02
830.553	0.03
830.847	0.03
831.141	0.03
831.435	0.03
831.729	0.03
832.023	0.04
832.317	0.03
832.61	0.04
832.904	0.02
833.197	0.03
833.491	0.03
833.784	0.03
834.077	0.03
834.371	0.04
834.664	0.03
834.957	0.03
835.25	0.02
835.543	0.03
835.836	0.03
836.129	0.03
836.421	0.04
836.714	0.03
837.007	0.03
837.299	0.04
837.592	0.04
837.884	0.04
838.177	0.04
838.469	0.03
838.761	0.05
839.053	0.03
839.345	0.04
839.637	0.04
839.929	0.03
840.221	0.04
840.513	0.04
840.805	0.03
841.096	0.04
841.388	0.03
841.68	0.04
841.971	0.03
842.262	0.03
842.554	0.03
842.845	0.03
843.136	0.03
843.427	0.04
843.718	0.04
844.009	0.03
844.3	0.02
844.591	0.04
844.882	0.02
845.173	0.02
845.463	0.03
845.754	0.03
846.044	0.02
846.335	0.02
846.625	0.03
846.915	0.04
847.206	0.04
847.496	0.04
847.786	0.03
848.076	0.04
848.366	0.03
848.656	0.04
848.945	0.04
849.235	0.04
849.525	0.04
849.814	0.04
850.104	0.04
850.393	0.04
850.683	0.04
850.972	0.04
851.261	0.04
851.551	0.04
851.84	0.04
852.129	0.03
852.418	0.03
852.707	0.03
852.995	0.02
853.284	0.03
853.573	0.02
853.862	0.02
854.15	0.02
854.439	0.03
854.727	0.03
855.015	0.04
855.304	0.03
855.592	0.03
855.88	0.04
856.168	0.03
856.456	0.03
856.744	0.03
857.032	0.04
857.32	0.04
857.607	0.03
857.895	0.03
858.183	0.05
858.47	0.02
858.757	0.02
859.045	0.03
859.332	0.04
859.619	0.03
859.907	0.04
860.194	0.03
860.481	0.03
860.768	0.03
861.054	0.04
861.341	0.04
861.628	0.06
861.915	0.04
862.201	0.04
862.488	0.05
862.774	0.03
863.061	0.02
863.347	0.03
863.633	0.02
863.919	0.04
864.205	0.03
864.491	0.05
864.777	0.01
865.063	0.02
865.349	0.03
865.635	0.02
865.92	0.02
866.206	0.06
866.492	0.04
866.777	0.03
867.062	0
867.348	0
867.633	0.02
867.918	0.01
868.203	0.05
868.488	0.06
868.773	0.03
869.058	0.03
869.343	0.04
869.628	0.02
869.912	0.01
870.197	0.03
870.482	0.04
870.766	0.05
871.05	0.05
871.335	0.04
871.619	0.02
871.903	0.04
872.187	0.02
872.471	0.04
872.755	0.01
873.039	0.07
873.323	0.05
873.607	0.04
873.89	0.01
874.174	0.03
874.458	0.02
874.741	0.04
875.024	0.06
875.308	-0.03
875.591	-0.02
875.874	-0.01
876.157	0.06
876.44	-0.02
876.723	0.11
877.006	0.11
877.289	0.02
877.572	0.06
877.854	0.06
878.137	0.1
878.42	0.03
878.702	0.06
878.984	-0.01
879.267	0.1
879.549	0.07
879.831	0.08
880.113	0.13
880.395	0.08
880.677	0.15
880.959	-0.03
