Data from Rubpy_EV_1500_EDTA_Buffered_Absorbance_15-13-05-051.txt Node
Date: Tue Jun 30 15:13:05 BST 2026
User: fpm-admin
Spectrometer: OFX00224
Trigger mode: 0
Integration Time (sec): 7.000000E-2
Scans to average: 3
Nonlinearity correction enabled: false
Boxcar width: 0
Storing dark spectrum: false
XAxis mode: Wavelengths
Number of Pixels in Spectrum: 2136
>>>>>Begin Spectral Data<<<<<
154.91	0.29
155.289	-0.39
155.669	0.15
156.048	0.52
156.428	-0.38
156.807	0.44
157.186	0.3
157.566	0.2
157.945	1.08
158.325	-1.43
158.704	-1.26
159.083	-0
159.462	-0
159.842	-0
160.221	-0.37
160.6	-0
160.979	0.72
161.359	-0.66
161.738	-0
162.117	-0
162.496	-0
162.875	-0.16
163.254	-0
163.633	-0
164.012	0.39
164.391	-0
164.77	-0.06
165.149	-0
165.528	-0
165.907	-0
166.286	-0.58
166.665	-0
167.044	0.22
167.423	0.63
167.802	-0
168.181	0.17
168.559	-0.3
168.938	0.23
169.317	-0.2
169.696	0.57
170.074	0.56
170.453	-0.3
170.832	-0
171.21	-0
171.589	0.54
171.968	-0
172.346	-0.79
172.725	-1.23
173.103	-0.25
173.482	-0.63
173.861	0.06
174.239	-0
174.617	-0
174.996	0.18
175.374	0.7
175.753	-0.21
176.131	1.03
176.51	0.22
176.888	0.27
177.266	-0
177.645	-0.02
178.023	0.58
178.401	-0.18
178.779	-0.07
179.158	0.35
179.536	-0
179.914	-0.04
180.292	0.4
180.67	-0.28
181.048	-0
181.427	0.35
181.805	0.2
182.183	0.88
182.561	0.15
182.939	-1.08
183.317	-0
183.695	-0.1
184.073	0.03
184.451	0.08
184.829	-0.4
185.206	-0.16
185.584	-0
185.962	-0
186.34	0.82
186.718	-0
187.096	-0.9
187.473	-0
187.851	1.01
188.229	-0.39
188.607	0.31
188.984	0.35
189.362	0.27
189.74	0.2
190.117	0.37
190.495	0.19
190.872	0.19
191.25	0.29
191.627	0.26
192.005	0.37
192.382	0.53
192.76	0.24
193.137	0.23
193.515	0.37
193.892	0.38
194.269	0.5
194.647	0.36
195.024	0.17
195.401	0.19
195.779	0.43
196.156	0.34
196.533	0.33
196.91	0.21
197.288	0.15
197.665	0.32
198.042	0.31
198.419	0.37
198.796	0.26
199.173	0.45
199.55	0.21
199.927	0.38
200.304	0.36
200.681	0.26
201.058	0.7
201.435	0.39
201.812	0.22
202.189	0.37
202.566	0.48
202.943	0.15
203.32	0.38
203.697	0.28
204.073	0.3
204.45	0.14
204.827	0.4
205.204	0.41
205.58	0.45
205.957	0.44
206.334	0.37
206.71	0.28
207.087	0.31
207.464	0.42
207.84	0.43
208.217	0.33
208.593	0.31
208.97	0.27
209.346	0.43
209.723	0.29
210.099	0.43
210.476	0.26
210.852	0.31
211.228	0.46
211.605	0.25
211.981	0.31
212.357	0.35
212.733	0.29
213.11	0.43
213.486	0.29
213.862	0.23
214.238	0.43
214.614	0.33
214.991	0.26
215.367	0.31
215.743	0.26
216.119	0.31
216.495	0.44
216.871	0.31
217.247	0.2
217.623	0.22
217.999	0.23
218.375	0.33
218.751	0.19
219.127	0.32
219.502	0.34
219.878	0.28
220.254	0.42
220.63	0.32
221.006	0.33
221.381	0.26
221.757	0.27
222.133	0.38
222.508	0.28
222.884	0.31
223.26	0.28
223.635	0.32
224.011	0.37
224.386	0.24
224.762	0.32
225.137	0.24
225.513	0.32
225.888	0.35
226.264	0.32
226.639	0.27
227.014	0.35
227.39	0.53
227.765	0.39
228.14	0.34
228.516	0.41
228.891	0.24
229.266	0.46
229.641	0.55
230.017	0.27
230.392	0.32
230.767	0.44
231.142	0.43
231.517	0.32
231.892	0.23
232.267	0.35
232.642	0.36
233.017	0.3
233.392	0.38
233.767	0.38
234.142	0.29
234.517	0.26
234.892	0.24
235.267	0.35
235.641	0.5
236.016	0.3
236.391	0.23
236.766	0.29
237.14	0.33
237.515	0.3
237.89	0.29
238.264	0.38
238.639	0.55
239.014	0.48
239.388	0.32
239.763	0.34
240.137	0.32
240.512	0.34
240.886	0.28
241.261	0.4
241.635	0.39
242.009	0.25
242.384	0.35
242.758	0.3
243.132	0.3
243.507	0.33
243.881	0.33
244.255	0.36
244.629	0.37
245.004	0.37
245.378	0.4
245.752	0.29
246.126	0.39
246.5	0.4
246.874	0.32
247.248	0.28
247.622	0.27
247.996	0.37
248.37	0.23
248.744	0.37
249.118	0.34
249.492	0.37
249.866	0.3
250.24	0.44
250.613	0.37
250.987	0.32
251.361	0.3
251.735	0.34
252.108	0.48
252.482	0.26
252.856	0.24
253.229	0.31
253.603	0.37
253.977	0.37
254.35	0.2
254.724	0.3
255.097	0.38
255.471	0.27
255.844	0.33
256.218	0.39
256.591	0.22
256.964	0.33
257.338	0.42
257.711	0.36
258.084	0.28
258.458	0.38
258.831	0.3
259.204	0.3
259.577	0.4
259.95	0.35
260.323	0.3
260.697	0.24
261.07	0.34
261.443	0.32
261.816	0.25
262.189	0.31
262.562	0.35
262.935	0.31
263.308	0.51
263.68	0.35
264.053	0.38
264.426	0.33
264.799	0.49
265.172	0.24
265.545	0.35
265.917	0.33
266.29	0.32
266.663	0.52
267.035	0.32
267.408	0.33
267.781	0.36
268.153	0.33
268.526	0.4
268.898	0.31
269.271	0.36
269.643	0.34
270.016	0.44
270.388	0.35
270.76	0.32
271.133	0.39
271.505	0.36
271.877	0.34
272.25	0.37
272.622	0.42
272.994	0.37
273.366	0.31
273.739	0.38
274.111	0.33
274.483	0.29
274.855	0.32
275.227	0.31
275.599	0.35
275.971	0.35
276.343	0.4
276.715	0.28
277.087	0.35
277.459	0.44
277.831	0.34
278.203	0.38
278.574	0.39
278.946	0.33
279.318	0.29
279.69	0.26
280.061	0.3
280.433	0.33
280.805	0.33
281.176	0.4
281.548	0.35
281.92	0.39
282.291	0.32
282.663	0.4
283.034	0.33
283.406	0.33
283.777	0.37
284.148	0.3
284.52	0.49
284.891	0.33
285.262	0.29
285.634	0.37
286.005	0.44
286.376	0.32
286.747	0.29
287.119	0.35
287.49	0.28
287.861	0.35
288.232	0.31
288.603	0.42
288.974	0.32
289.345	0.31
289.716	0.35
290.087	0.37
290.458	0.36
290.829	0.39
291.2	0.36
291.571	0.31
291.941	0.35
292.312	0.37
292.683	0.44
293.054	0.31
293.424	0.21
293.795	0.29
294.166	0.34
294.536	0.23
294.907	0.31
295.277	0.4
295.648	0.32
296.018	0.32
296.389	0.33
296.759	0.34
297.13	0.31
297.5	0.37
297.871	0.31
298.241	0.3
298.611	0.32
298.981	0.37
299.352	0.31
299.722	0.3
300.092	0.29
300.462	0.32
300.832	0.29
301.202	0.27
301.573	0.33
301.943	0.3
302.313	0.29
302.683	0.27
303.053	0.32
303.422	0.3
303.792	0.28
304.162	0.28
304.532	0.29
304.902	0.3
305.272	0.29
305.641	0.29
306.011	0.28
306.381	0.3
306.75	0.31
307.12	0.3
307.49	0.31
307.859	0.32
308.229	0.31
308.598	0.32
308.968	0.32
309.337	0.32
309.707	0.33
310.076	0.33
310.445	0.33
310.815	0.34
311.184	0.34
311.553	0.34
311.923	0.34
312.292	0.34
312.661	0.35
313.03	0.35
313.399	0.35
313.768	0.36
314.137	0.35
314.506	0.36
314.875	0.35
315.244	0.36
315.613	0.34
315.982	0.35
316.351	0.35
316.72	0.34
317.089	0.35
317.458	0.34
317.826	0.35
318.195	0.34
318.564	0.34
318.933	0.34
319.301	0.32
319.67	0.32
320.038	0.32
320.407	0.31
320.775	0.32
321.144	0.31
321.512	0.31
321.881	0.31
322.249	0.31
322.618	0.31
322.986	0.3
323.354	0.3
323.723	0.3
324.091	0.3
324.459	0.3
324.827	0.3
325.195	0.3
325.564	0.29
325.932	0.29
326.3	0.29
326.668	0.29
327.036	0.29
327.404	0.3
327.772	0.29
328.14	0.3
328.508	0.29
328.875	0.29
329.243	0.3
329.611	0.3
329.979	0.3
330.346	0.3
330.714	0.3
331.082	0.3
331.449	0.31
331.817	0.3
332.185	0.31
332.552	0.31
332.92	0.32
333.287	0.32
333.655	0.32
334.022	0.33
334.389	0.33
334.757	0.33
335.124	0.34
335.491	0.34
335.859	0.34
336.226	0.35
336.593	0.35
336.96	0.35
337.327	0.36
337.695	0.36
338.062	0.37
338.429	0.38
338.796	0.38
339.163	0.39
339.53	0.39
339.897	0.4
340.263	0.4
340.63	0.41
340.997	0.42
341.364	0.43
341.731	0.43
342.097	0.44
342.464	0.44
342.831	0.45
343.197	0.46
343.564	0.47
343.931	0.48
344.297	0.48
344.664	0.49
345.03	0.49
345.396	0.5
345.763	0.51
346.129	0.52
346.496	0.52
346.862	0.53
347.228	0.54
347.594	0.55
347.961	0.55
348.327	0.56
348.693	0.57
349.059	0.58
349.425	0.59
349.791	0.6
350.157	0.6
350.523	0.61
350.889	0.63
351.255	0.64
351.621	0.66
351.987	0.66
352.353	0.67
352.719	0.69
353.084	0.71
353.45	0.72
353.816	0.73
354.181	0.74
354.547	0.75
354.913	0.77
355.278	0.78
355.644	0.8
356.009	0.82
356.375	0.83
356.74	0.85
357.106	0.87
357.471	0.87
357.836	0.9
358.202	0.91
358.567	0.92
358.932	0.95
359.297	0.97
359.663	0.98
360.028	1
360.393	1
360.758	1.01
361.123	1.03
361.488	1.03
361.853	1.04
362.218	1.05
362.583	1.07
362.948	1.07
363.312	1.09
363.677	1.11
364.042	1.13
364.407	1.14
364.772	1.16
365.136	1.16
365.501	1.21
365.865	1.22
366.23	1.24
366.595	1.25
366.959	1.29
367.324	1.3
367.688	1.35
368.052	1.35
368.417	1.37
368.781	1.37
369.145	1.4
369.51	1.39
369.874	1.4
370.238	1.41
370.602	1.39
370.967	1.38
371.331	1.37
371.695	1.39
372.059	1.38
372.423	1.35
372.787	1.36
373.151	1.34
373.515	1.34
373.878	1.34
374.242	1.34
374.606	1.32
374.97	1.35
375.334	1.36
375.697	1.35
376.061	1.35
376.425	1.37
376.788	1.38
377.152	1.39
377.515	1.39
377.879	1.4
378.242	1.4
378.606	1.4
378.969	1.43
379.333	1.45
379.696	1.46
380.059	1.48
380.422	1.49
380.786	1.52
381.149	1.55
381.512	1.57
381.875	1.58
382.238	1.62
382.601	1.69
382.964	1.67
383.327	1.72
383.69	1.73
384.053	1.75
384.416	1.8
384.779	1.82
385.142	1.86
385.504	1.91
385.867	1.87
386.23	1.89
386.593	1.9
386.955	1.92
387.318	1.96
387.68	1.93
388.043	1.92
388.405	1.93
388.768	1.97
389.13	1.91
389.493	1.86
389.855	1.88
390.217	1.88
390.58	1.85
390.942	1.88
391.304	1.87
391.666	1.89
392.028	1.91
392.391	1.94
392.753	1.95
393.115	2
393.477	2.01
393.839	2.04
394.201	2.1
394.563	2.12
394.924	2.14
395.286	2.14
395.648	2.19
396.01	2.16
396.371	2.24
396.733	2.12
397.095	2.23
397.456	2.21
397.818	2.16
398.18	2.17
398.541	2.1
398.903	2.14
399.264	2.24
399.625	2.17
399.987	2.16
400.348	2.11
400.709	2.04
401.071	2.02
401.432	1.93
401.793	1.87
402.154	1.8
402.515	1.69
402.876	1.63
403.238	1.51
403.599	1.43
403.96	1.33
404.32	1.25
404.681	1.16
405.042	1.09
405.403	1.02
405.764	0.96
406.125	0.88
406.485	0.84
406.846	0.78
407.207	0.73
407.567	0.69
407.928	0.65
408.288	0.61
408.649	0.58
409.009	0.55
409.37	0.52
409.73	0.5
410.091	0.47
410.451	0.45
410.811	0.43
411.171	0.41
411.532	0.4
411.892	0.38
412.252	0.36
412.612	0.35
412.972	0.33
413.332	0.32
413.692	0.31
414.052	0.3
414.412	0.29
414.772	0.29
415.132	0.27
415.492	0.27
415.851	0.26
416.211	0.25
416.571	0.25
416.931	0.24
417.29	0.23
417.65	0.23
418.009	0.22
418.369	0.22
418.728	0.21
419.088	0.21
419.447	0.2
419.807	0.2
420.166	0.2
420.525	0.18
420.884	0.19
421.244	0.19
421.603	0.18
421.962	0.18
422.321	0.18
422.68	0.17
423.039	0.17
423.398	0.17
423.757	0.17
424.116	0.17
424.475	0.16
424.834	0.15
425.193	0.16
425.551	0.14
425.91	0.16
426.269	0.15
426.628	0.15
426.986	0.15
427.345	0.14
427.703	0.15
428.062	0.15
428.42	0.15
428.779	0.14
429.137	0.15
429.496	0.13
429.854	0.14
430.212	0.14
430.57	0.14
430.929	0.14
431.287	0.14
431.645	0.14
432.003	0.13
432.361	0.13
432.719	0.13
433.077	0.13
433.435	0.12
433.793	0.13
434.151	0.12
434.509	0.12
434.866	0.12
435.224	0.12
435.582	0.12
435.94	0.12
436.297	0.12
436.655	0.11
437.012	0.12
437.37	0.13
437.727	0.12
438.085	0.11
438.442	0.11
438.8	0.11
439.157	0.11
439.514	0.11
439.872	0.1
440.229	0.11
440.586	0.11
440.943	0.11
441.3	0.11
441.657	0.1
442.014	0.11
442.371	0.1
442.728	0.1
443.085	0.1
443.442	0.11
443.799	0.1
444.156	0.1
444.513	0.1
444.869	0.09
445.226	0.1
445.583	0.1
445.939	0.1
446.296	0.09
446.652	0.1
447.009	0.1
447.365	0.09
447.722	0.09
448.078	0.09
448.434	0.09
448.791	0.09
449.147	0.08
449.503	0.08
449.859	0.08
450.215	0.09
450.571	0.09
450.928	0.08
451.284	0.08
451.64	0.08
451.995	0.08
452.351	0.07
452.707	0.08
453.063	0.07
453.419	0.08
453.775	0.07
454.13	0.08
454.486	0.08
454.842	0.07
455.197	0.06
455.553	0.06
455.908	0.07
456.264	0.06
456.619	0.05
456.975	0.06
457.33	0.06
457.685	0.05
458.04	0.05
458.396	0.06
458.751	0.06
459.106	0.05
459.461	0.04
459.816	0.05
460.171	0.03
460.526	0.04
460.881	0.04
461.236	0.03
461.591	0.04
461.946	0.03
462.301	0.03
462.655	0.03
463.01	0.04
463.365	0.02
463.719	0.03
464.074	0.01
464.428	0.01
464.783	0.02
465.137	0.01
465.492	0.01
465.846	0.01
466.201	0.02
466.555	0.02
466.909	0.02
467.263	0.02
467.618	0.02
467.972	0.02
468.326	0.01
468.68	0.01
469.034	0.01
469.388	0.01
469.742	0.01
470.096	0.01
470.45	0.01
470.804	0.01
471.157	0.02
471.511	0.02
471.865	0.02
472.218	0.02
472.572	0.02
472.926	0.03
473.279	0.03
473.633	0.03
473.986	0.04
474.34	0.04
474.693	0.05
475.046	0.05
475.4	0.05
475.753	0.06
476.106	0.06
476.459	0.07
476.812	0.08
477.165	0.08
477.519	0.08
477.872	0.08
478.224	0.09
478.577	0.09
478.93	0.1
479.283	0.09
479.636	0.1
479.989	0.1
480.341	0.11
480.694	0.11
481.047	0.12
481.399	0.11
481.752	0.12
482.104	0.13
482.457	0.13
482.809	0.12
483.162	0.13
483.514	0.13
483.866	0.14
484.219	0.14
484.571	0.14
484.923	0.15
485.275	0.14
485.627	0.15
485.979	0.15
486.331	0.15
486.683	0.16
487.035	0.16
487.387	0.16
487.739	0.17
488.091	0.16
488.443	0.16
488.794	0.17
489.146	0.17
489.498	0.17
489.849	0.17
490.201	0.17
490.552	0.18
490.904	0.18
491.255	0.18
491.607	0.19
491.958	0.18
492.309	0.19
492.661	0.19
493.012	0.19
493.363	0.2
493.714	0.2
494.065	0.2
494.416	0.2
494.767	0.2
495.118	0.21
495.469	0.21
495.82	0.21
496.171	0.22
496.522	0.22
496.872	0.22
497.223	0.23
497.574	0.23
497.924	0.24
498.275	0.23
498.626	0.23
498.976	0.24
499.327	0.24
499.677	0.24
500.027	0.25
500.378	0.25
500.728	0.25
501.078	0.26
501.428	0.25
501.779	0.26
502.129	0.26
502.479	0.26
502.829	0.27
503.179	0.28
503.529	0.28
503.879	0.28
504.229	0.28
504.578	0.29
504.928	0.28
505.278	0.29
505.628	0.3
505.977	0.29
506.327	0.29
506.676	0.3
507.026	0.31
507.375	0.31
507.725	0.3
508.074	0.31
508.424	0.31
508.773	0.31
509.122	0.32
509.471	0.32
509.82	0.33
510.17	0.33
510.519	0.33
510.868	0.33
511.217	0.34
511.566	0.34
511.915	0.34
512.263	0.35
512.612	0.35
512.961	0.35
513.31	0.35
513.659	0.36
514.007	0.36
514.356	0.36
514.704	0.37
515.053	0.37
515.401	0.37
515.75	0.37
516.098	0.37
516.447	0.38
516.795	0.39
517.143	0.38
517.491	0.39
517.839	0.39
518.188	0.39
518.536	0.39
518.884	0.4
519.232	0.4
519.58	0.4
519.928	0.4
520.275	0.41
520.623	0.41
520.971	0.42
521.319	0.42
521.666	0.42
522.014	0.42
522.362	0.42
522.709	0.43
523.057	0.43
523.404	0.43
523.752	0.44
524.099	0.44
524.446	0.44
524.794	0.45
525.141	0.46
525.488	0.46
525.835	0.46
526.182	0.46
526.529	0.46
526.876	0.47
527.223	0.47
527.57	0.47
527.917	0.48
528.264	0.48
528.611	0.48
528.958	0.48
529.304	0.49
529.651	0.49
529.998	0.49
530.344	0.49
530.691	0.5
531.037	0.51
531.384	0.51
531.73	0.5
532.076	0.51
532.423	0.51
532.769	0.52
533.115	0.52
533.461	0.53
533.807	0.53
534.154	0.53
534.5	0.54
534.846	0.54
535.192	0.54
535.537	0.54
535.883	0.55
536.229	0.56
536.575	0.56
536.921	0.56
537.266	0.57
537.612	0.57
537.957	0.57
538.303	0.58
538.649	0.58
538.994	0.58
539.339	0.59
539.685	0.59
540.03	0.6
540.375	0.6
540.721	0.6
541.066	0.61
541.411	0.61
541.756	0.62
542.101	0.62
542.446	0.62
542.791	0.63
543.136	0.63
543.481	0.64
543.825	0.64
544.17	0.64
544.515	0.65
544.86	0.66
545.204	0.66
545.549	0.66
545.893	0.67
546.238	0.67
546.582	0.67
546.927	0.68
547.271	0.69
547.615	0.69
547.96	0.69
548.304	0.69
548.648	0.7
548.992	0.7
549.336	0.71
549.68	0.71
550.024	0.72
550.368	0.72
550.712	0.71
551.056	0.73
551.4	0.72
551.743	0.73
552.087	0.74
552.431	0.73
552.774	0.73
553.118	0.74
553.462	0.75
553.805	0.75
554.148	0.75
554.492	0.75
554.835	0.75
555.178	0.76
555.522	0.76
555.865	0.77
556.208	0.76
556.551	0.77
556.894	0.78
557.237	0.77
557.58	0.78
557.923	0.78
558.266	0.78
558.609	0.77
558.952	0.79
559.294	0.79
559.637	0.79
559.98	0.79
560.322	0.8
560.665	0.8
561.007	0.8
561.35	0.8
561.692	0.8
562.034	0.8
562.377	0.81
562.719	0.81
563.061	0.81
563.403	0.81
563.745	0.81
564.088	0.81
564.43	0.82
564.772	0.82
565.113	0.81
565.455	0.82
565.797	0.82
566.139	0.82
566.481	0.83
566.822	0.82
567.164	0.83
567.506	0.83
567.847	0.83
568.189	0.83
568.53	0.83
568.872	0.83
569.213	0.83
569.554	0.84
569.895	0.83
570.237	0.84
570.578	0.84
570.919	0.84
571.26	0.84
571.601	0.84
571.942	0.84
572.283	0.84
572.624	0.84
572.965	0.84
573.306	0.84
573.646	0.84
573.987	0.84
574.328	0.84
574.668	0.84
575.009	0.84
575.349	0.84
575.69	0.84
576.03	0.84
576.37	0.84
576.711	0.84
577.051	0.84
577.391	0.84
577.731	0.84
578.072	0.85
578.412	0.85
578.752	0.85
579.092	0.85
579.431	0.85
579.771	0.84
580.111	0.84
580.451	0.83
580.791	0.84
581.13	0.85
581.47	0.85
581.81	0.86
582.149	0.85
582.489	0.86
582.828	0.87
583.167	0.86
583.507	0.83
583.846	0.81
584.185	0.83
584.525	0.85
584.864	0.86
585.203	0.87
585.542	0.88
585.881	0.88
586.22	0.89
586.559	0.89
586.898	0.89
587.236	0.88
587.575	0.88
587.914	0.88
588.252	0.89
588.591	0.9
588.93	0.9
589.268	0.9
589.607	0.91
589.945	0.91
590.283	0.91
590.622	0.91
590.96	0.92
591.298	0.92
591.636	0.93
591.974	0.94
592.313	0.94
592.651	0.94
592.989	0.95
593.326	0.95
593.664	0.95
594.002	0.96
594.34	0.96
594.678	0.96
595.015	0.97
595.353	0.96
595.691	0.96
596.028	0.97
596.366	0.98
596.703	0.98
597.04	0.98
597.378	0.99
597.715	0.99
598.052	1
598.389	0.99
598.726	1
599.064	1.01
599.401	1.01
599.738	1.01
600.074	1.01
600.411	1.02
600.748	1.01
601.085	1.02
601.422	1.01
601.758	1.02
602.095	1.01
602.432	1.02
602.768	1.01
603.105	1.02
603.441	1.02
603.777	1.02
604.114	1.02
604.45	1.02
604.786	1.03
605.122	1.02
605.459	1.03
605.795	1.03
606.131	1.02
606.467	1.02
606.803	1.02
607.139	1.02
607.474	1.02
607.81	1.01
608.146	1.01
608.482	1.01
608.817	1.01
609.153	1.01
609.488	1
609.824	1
610.159	1
610.495	0.99
610.83	1
611.165	0.99
611.5	0.99
611.836	0.98
612.171	0.98
612.506	0.98
612.841	0.99
613.176	0.98
613.511	0.98
613.845	0.97
614.18	0.97
614.515	0.97
614.85	0.97
615.184	0.96
615.519	0.96
615.854	0.96
616.188	0.96
616.523	0.95
616.857	0.95
617.191	0.95
617.526	0.95
617.86	0.94
618.194	0.93
618.528	0.94
618.862	0.94
619.196	0.93
619.53	0.93
619.864	0.93
620.198	0.93
620.532	0.92
620.866	0.92
621.2	0.91
621.533	0.91
621.867	0.91
622.201	0.9
622.534	0.9
622.868	0.89
623.201	0.9
623.534	0.89
623.868	0.89
624.201	0.89
624.534	0.88
624.868	0.88
625.201	0.87
625.534	0.88
625.867	0.87
626.2	0.86
626.533	0.86
626.865	0.85
627.198	0.85
627.531	0.85
627.864	0.85
628.196	0.84
628.529	0.84
628.862	0.83
629.194	0.83
629.527	0.82
629.859	0.82
630.191	0.81
630.524	0.81
630.856	0.81
631.188	0.8
631.52	0.79
631.852	0.79
632.184	0.79
632.516	0.78
632.848	0.77
633.18	0.77
633.512	0.77
633.844	0.76
634.175	0.75
634.507	0.75
634.839	0.74
635.17	0.74
635.502	0.74
635.833	0.73
636.165	0.72
636.496	0.72
636.827	0.71
637.159	0.71
637.49	0.7
637.821	0.7
638.152	0.69
638.483	0.69
638.814	0.68
639.145	0.68
639.476	0.67
639.807	0.66
640.137	0.66
640.468	0.65
640.799	0.65
641.129	0.64
641.46	0.64
641.791	0.63
642.121	0.63
642.451	0.63
642.782	0.62
643.112	0.61
643.442	0.61
643.773	0.6
644.103	0.6
644.433	0.6
644.763	0.59
645.093	0.59
645.423	0.59
645.753	0.58
646.082	0.58
646.412	0.58
646.742	0.58
647.072	0.58
647.401	0.57
647.731	0.58
648.06	0.57
648.39	0.56
648.719	0.57
649.048	0.56
649.378	0.56
649.707	0.56
650.036	0.56
650.365	0.56
650.694	0.55
651.023	0.55
651.352	0.55
651.681	0.55
652.01	0.55
652.339	0.55
652.668	0.55
652.996	0.54
653.325	0.54
653.654	0.54
653.982	0.54
654.311	0.54
654.639	0.54
654.967	0.54
655.296	0.54
655.624	0.54
655.952	0.54
656.28	0.53
656.609	0.54
656.937	0.54
657.265	0.55
657.593	0.53
657.92	0.38
658.248	0.31
658.576	0.29
658.904	0.38
659.231	0.48
659.559	0.52
659.887	0.53
660.214	0.53
660.542	0.53
660.869	0.53
661.196	0.53
661.524	0.53
661.851	0.53
662.178	0.53
662.505	0.53
662.832	0.52
663.159	0.52
663.486	0.52
663.813	0.52
664.14	0.52
664.467	0.52
664.794	0.52
665.12	0.52
665.447	0.52
665.774	0.52
666.1	0.51
666.427	0.51
666.753	0.51
667.079	0.51
667.406	0.51
667.732	0.5
668.058	0.51
668.384	0.5
668.71	0.5
669.036	0.5
669.362	0.5
669.688	0.5
670.014	0.5
670.34	0.49
670.666	0.49
670.991	0.49
671.317	0.49
671.643	0.48
671.968	0.48
672.294	0.48
672.619	0.48
672.945	0.47
673.27	0.47
673.595	0.47
673.92	0.47
674.246	0.46
674.571	0.46
674.896	0.46
675.221	0.46
675.546	0.46
675.87	0.45
676.195	0.45
676.52	0.44
676.845	0.44
677.169	0.43
677.494	0.43
677.819	0.43
678.143	0.43
678.468	0.42
678.792	0.42
679.116	0.42
679.44	0.41
679.765	0.41
680.089	0.41
680.413	0.4
680.737	0.4
681.061	0.4
681.385	0.39
681.709	0.39
682.033	0.38
682.356	0.37
682.68	0.37
683.004	0.37
683.327	0.37
683.651	0.36
683.974	0.36
684.298	0.36
684.621	0.35
684.944	0.35
685.268	0.35
685.591	0.35
685.914	0.34
686.237	0.34
686.56	0.33
686.883	0.33
687.206	0.32
687.529	0.32
687.852	0.32
688.175	0.31
688.497	0.31
688.82	0.31
689.142	0.3
689.465	0.3
689.787	0.3
690.11	0.3
690.432	0.29
690.755	0.29
691.077	0.29
691.399	0.28
691.721	0.28
692.043	0.28
692.365	0.27
692.687	0.27
693.009	0.27
693.331	0.26
693.653	0.26
693.974	0.26
694.296	0.25
694.618	0.25
694.939	0.25
695.261	0.25
695.582	0.25
695.904	0.24
696.225	0.24
696.546	0.24
696.868	0.23
697.189	0.23
697.51	0.23
697.831	0.23
698.152	0.23
698.473	0.23
698.794	0.22
699.114	0.22
699.435	0.21
699.756	0.21
700.077	0.21
700.397	0.21
700.718	0.21
701.038	0.2
701.359	0.2
701.679	0.21
701.999	0.2
702.32	0.2
702.64	0.2
702.96	0.2
703.28	0.2
703.6	0.2
703.92	0.2
704.24	0.19
704.56	0.19
704.879	0.19
705.199	0.19
705.519	0.19
705.838	0.18
706.158	0.18
706.478	0.19
706.797	0.18
707.116	0.19
707.436	0.18
707.755	0.18
708.074	0.18
708.393	0.18
708.712	0.18
709.031	0.18
709.35	0.18
709.669	0.17
709.988	0.17
710.307	0.17
710.626	0.17
710.944	0.17
711.263	0.17
711.582	0.17
711.9	0.17
712.219	0.17
712.537	0.17
712.855	0.17
713.174	0.17
713.492	0.17
713.81	0.17
714.128	0.17
714.446	0.17
714.764	0.17
715.082	0.16
715.4	0.17
715.718	0.16
716.035	0.16
716.353	0.16
716.671	0.16
716.988	0.17
717.306	0.17
717.623	0.17
717.941	0.17
718.258	0.18
718.575	0.18
718.893	0.18
719.21	0.18
719.527	0.18
719.844	0.18
720.161	0.17
720.478	0.18
720.795	0.18
721.112	0.18
721.428	0.18
721.745	0.18
722.062	0.18
722.378	0.18
722.695	0.18
723.011	0.18
723.328	0.18
723.644	0.18
723.96	0.18
724.276	0.18
724.593	0.18
724.909	0.19
725.225	0.19
725.541	0.19
725.857	0.19
726.173	0.19
726.488	0.19
726.804	0.19
727.12	0.19
727.435	0.19
727.751	0.19
728.067	0.2
728.382	0.2
728.697	0.19
729.013	0.2
729.328	0.19
729.643	0.2
729.958	0.2
730.273	0.2
730.588	0.19
730.903	0.19
731.218	0.2
731.533	0.2
731.848	0.2
732.163	0.2
732.477	0.2
732.792	0.2
733.107	0.19
733.421	0.19
733.736	0.19
734.05	0.2
734.364	0.2
734.678	0.2
734.993	0.2
735.307	0.2
735.621	0.19
735.935	0.19
736.249	0.19
736.563	0.19
736.877	0.19
737.19	0.19
737.504	0.19
737.818	0.19
738.131	0.19
738.445	0.19
738.758	0.18
739.072	0.18
739.385	0.18
739.698	0.18
740.012	0.18
740.325	0.18
740.638	0.18
740.951	0.18
741.264	0.18
741.577	0.18
741.89	0.18
742.203	0.18
742.515	0.18
742.828	0.18
743.141	0.18
743.453	0.18
743.766	0.18
744.078	0.18
744.391	0.17
744.703	0.17
745.015	0.17
745.327	0.17
745.639	0.16
745.952	0.16
746.264	0.16
746.575	0.16
746.887	0.16
747.199	0.16
747.511	0.16
747.823	0.15
748.134	0.15
748.446	0.15
748.757	0.15
749.069	0.14
749.38	0.15
749.692	0.14
750.003	0.14
750.314	0.14
750.625	0.14
750.936	0.14
751.248	0.13
751.559	0.13
751.869	0.14
752.18	0.13
752.491	0.13
752.802	0.13
753.112	0.13
753.423	0.12
753.734	0.12
754.044	0.12
754.355	0.12
754.665	0.12
754.975	0.12
755.285	0.11
755.596	0.11
755.906	0.11
756.216	0.1
756.526	0.1
756.836	0.1
757.146	0.1
757.455	0.1
757.765	0.1
758.075	0.1
758.385	0.1
758.694	0.09
759.004	0.09
759.313	0.09
759.622	0.09
759.932	0.09
760.241	0.09
760.55	0.09
760.859	0.09
761.168	0.09
761.477	0.09
761.786	0.09
762.095	0.09
762.404	0.08
762.713	0.08
763.021	0.08
763.33	0.08
763.639	0.08
763.947	0.07
764.256	0.07
764.564	0.07
764.872	0.07
765.181	0.07
765.489	0.07
765.797	0.07
766.105	0.07
766.413	0.07
766.721	0.07
767.029	0.07
767.337	0.07
767.644	0.07
767.952	0.07
768.26	0.06
768.567	0.06
768.875	0.07
769.182	0.06
769.49	0.06
769.797	0.06
770.104	0.06
770.411	0.06
770.718	0.06
771.026	0.05
771.333	0.05
771.639	0.06
771.946	0.05
772.253	0.06
772.56	0.06
772.867	0.05
773.173	0.05
773.48	0.05
773.786	0.05
774.093	0.05
774.399	0.05
774.705	0.05
775.012	0.05
775.318	0.05
775.624	0.05
775.93	0.05
776.236	0.05
776.542	0.05
776.848	0.05
777.154	0.05
777.459	0.05
777.765	0.05
778.071	0.05
778.376	0.05
778.682	0.05
778.987	0.05
779.292	0.05
779.598	0.05
779.903	0.05
780.208	0.05
780.513	0.05
780.818	0.05
781.123	0.05
781.428	0.05
781.733	0.05
782.038	0.05
782.343	0.05
782.647	0.05
782.952	0.05
783.256	0.05
783.561	0.05
783.865	0.05
784.17	0.05
784.474	0.05
784.778	0.05
785.082	0.05
785.386	0.05
785.69	0.05
785.994	0.05
786.298	0.05
786.602	0.05
786.906	0.05
787.209	0.05
787.513	0.05
787.817	0.05
788.12	0.04
788.424	0.05
788.727	0.05
789.03	0.05
789.333	0.05
789.637	0.05
789.94	0.05
790.243	0.05
790.546	0.05
790.849	0.05
791.152	0.05
791.454	0.05
791.757	0.05
792.06	0.05
792.362	0.05
792.665	0.05
792.967	0.05
793.27	0.04
793.572	0.04
793.874	0.04
794.177	0.05
794.479	0.04
794.781	0.04
795.083	0.05
795.385	0.04
795.687	0.05
795.989	0.05
796.29	0.05
796.592	0.05
796.894	0.05
797.195	0.04
797.497	0.04
797.798	0.04
798.1	0.04
798.401	0.05
798.702	0.05
799.003	0.04
799.304	0.05
799.605	0.05
799.906	0.05
800.207	0.05
800.508	0.05
800.809	0.05
801.11	0.05
801.41	0.05
801.711	0.05
802.011	0.05
802.312	0.05
802.612	0.05
802.913	0.05
803.213	0.06
803.513	0.06
803.813	0.05
804.113	0.06
804.413	0.06
804.713	0.06
805.013	0.06
805.313	0.06
805.613	0.05
805.912	0.05
806.212	0.06
806.511	0.05
806.811	0.05
807.11	0.06
807.41	0.05
807.709	0.05
808.008	0.05
808.307	0.05
808.606	0.05
808.905	0.04
809.204	0.05
809.503	0.05
809.802	0.05
810.101	0.05
810.399	0.04
810.698	0.04
810.997	0.05
811.295	0.05
811.593	0.05
811.892	0.04
812.19	0.04
812.488	0.05
812.786	0.05
813.084	0.05
813.383	0.04
813.68	0.04
813.978	0.04
814.276	0.04
814.574	0.04
814.872	0.04
815.169	0.04
815.467	0.04
815.764	0.04
816.062	0.05
816.359	0.05
816.656	0.04
816.954	0.04
817.251	0.04
817.548	0.04
817.845	0.04
818.142	0.05
818.439	0.05
818.735	0.05
819.032	0.04
819.329	0.05
819.626	0.04
819.922	0.04
820.219	0.05
820.515	0.04
820.811	0.05
821.108	0.04
821.404	0.04
821.7	0.04
821.996	0.04
822.292	0.04
822.588	0.04
822.884	0.05
823.18	0.04
823.475	0.04
823.771	0.04
824.067	0.04
824.362	0.05
824.658	0.06
824.953	0.05
825.249	0.06
825.544	0.06
825.839	0.06
826.134	0.06
826.429	0.05
826.724	0.05
827.019	0.05
827.314	0.05
827.609	0.05
827.904	0.05
828.198	0.05
828.493	0.05
828.787	0.04
829.082	0.04
829.376	0.05
829.671	0.04
829.965	0.04
830.259	0.05
830.553	0.04
830.847	0.04
831.141	0.04
831.435	0.05
831.729	0.05
832.023	0.06
832.317	0.05
832.61	0.06
832.904	0.05
833.197	0.05
833.491	0.05
833.784	0.05
834.077	0.05
834.371	0.05
834.664	0.05
834.957	0.05
835.25	0.05
835.543	0.05
835.836	0.05
836.129	0.05
836.421	0.05
836.714	0.05
837.007	0.05
837.299	0.06
837.592	0.06
837.884	0.06
838.177	0.06
838.469	0.05
838.761	0.06
839.053	0.05
839.345	0.05
839.637	0.06
839.929	0.05
840.221	0.05
840.513	0.06
840.805	0.05
841.096	0.06
841.388	0.04
841.68	0.06
841.971	0.05
842.262	0.05
842.554	0.05
842.845	0.05
843.136	0.04
843.427	0.04
843.718	0.06
844.009	0.05
844.3	0.05
844.591	0.06
844.882	0.05
845.173	0.05
845.463	0.05
845.754	0.06
846.044	0.05
846.335	0.04
846.625	0.06
846.915	0.06
847.206	0.06
847.496	0.06
847.786	0.05
848.076	0.05
848.366	0.05
848.656	0.06
848.945	0.05
849.235	0.06
849.525	0.06
849.814	0.05
850.104	0.06
850.393	0.05
850.683	0.06
850.972	0.04
851.261	0.06
851.551	0.06
851.84	0.05
852.129	0.05
852.418	0.04
852.707	0.04
852.995	0.05
853.284	0.04
853.573	0.04
853.862	0.04
854.15	0.04
854.439	0.06
854.727	0.05
855.015	0.05
855.304	0.06
855.592	0.05
855.88	0.05
856.168	0.06
856.456	0.05
856.744	0.05
857.032	0.05
857.32	0.06
857.607	0.06
857.895	0.05
858.183	0.08
858.47	0.05
858.757	0.04
859.045	0.05
859.332	0.06
859.619	0.05
859.907	0.05
860.194	0.05
860.481	0.05
860.768	0.05
861.054	0.05
861.341	0.06
861.628	0.05
861.915	0.04
862.201	0.07
862.488	0.06
862.774	0.04
863.061	0.03
863.347	0.04
863.633	0.04
863.919	0.06
864.205	0.06
864.491	0.08
864.777	0.05
865.063	0.06
865.349	0.08
865.635	0.03
865.92	0.05
866.206	0.06
866.492	0.08
866.777	0.06
867.062	0.01
867.348	0.03
867.633	0.05
867.918	0.04
868.203	0.07
868.488	0.07
868.773	0.06
869.058	0.08
869.343	0.04
869.628	0.08
869.912	0.06
870.197	0.05
870.482	0.07
870.766	0.13
871.05	0.09
871.335	0.05
871.619	0.09
871.903	0.06
872.187	0.07
872.471	0.02
872.755	0.02
873.039	0.11
873.323	0.08
873.607	0.04
873.89	0.04
874.174	0.07
874.458	0.07
874.741	0.09
875.024	0.01
875.308	-0
875.591	0.11
875.874	0.02
876.157	0.05
876.44	0.06
876.723	0.08
877.006	0.11
877.289	0.09
877.572	0.03
877.854	0.08
878.137	0.11
878.42	0.08
878.702	0.05
878.984	0.12
879.267	-0.03
879.549	0.08
879.831	0.21
880.113	0.09
880.395	0.13
880.677	0.14
880.959	0.02
