Data from Rubpy_EV_1500_EDTA_Buffered_Absorbance_15-15-26-961.txt Node
Date: Tue Jun 30 15:15:26 BST 2026
User: fpm-admin
Spectrometer: OFX00224
Trigger mode: 0
Integration Time (sec): 7.000000E-2
Scans to average: 3
Nonlinearity correction enabled: false
Boxcar width: 0
Storing dark spectrum: false
XAxis mode: Wavelengths
Number of Pixels in Spectrum: 2136
>>>>>Begin Spectral Data<<<<<
154.91	0.15
155.289	-0.35
155.669	-0
156.048	-0.3
156.428	-0
156.807	0.6
157.186	-0.57
157.566	-0.05
157.945	-0.18
158.325	-1.18
158.704	-1.62
159.083	-0
159.462	-0
159.842	-0
160.221	-0
160.6	-0.28
160.979	-0
161.359	-0.65
161.738	-0
162.117	-0
162.496	-0
162.875	0.11
163.254	-0.37
163.633	-0.19
164.012	1.34
164.391	0.2
164.77	0.12
165.149	0.21
165.528	0.44
165.907	0.57
166.286	-0.58
166.665	-0
167.044	1.06
167.423	0.3
167.802	-0
168.181	-0.01
168.559	-0.22
168.938	0.57
169.317	-0
169.696	-0
170.074	-0.21
170.453	-0.98
170.832	0.63
171.21	0.56
171.589	-0
171.968	-0
172.346	-0.43
172.725	-1.26
173.103	-0.21
173.482	-0
173.861	-0.33
174.239	0.28
174.617	-0
174.996	-0.54
175.374	0.82
175.753	-0.16
176.131	-0.12
176.51	0.22
176.888	0.27
177.266	-0
177.645	-0.06
178.023	0.53
178.401	-0.23
178.779	0.15
179.158	0.26
179.536	-0.3
179.914	-0
180.292	1.03
180.67	-0.35
181.048	-0.1
181.427	0.51
181.805	-0.14
182.183	0.16
182.561	0.43
182.939	-0.85
183.317	-0
183.695	0.53
184.073	-0.47
184.451	0.02
184.829	-0.1
185.206	-0.21
185.584	-0
185.962	-0.25
186.34	-0.28
186.718	-0
187.096	-1.4
187.473	-0
187.851	0.38
188.229	0.33
188.607	0.34
188.984	0.22
189.362	0.38
189.74	0.31
190.117	0.37
190.495	0.17
190.872	0.33
191.25	0.43
191.627	0.31
192.005	0.34
192.382	0.37
192.76	0.16
193.137	0.2
193.515	0.35
193.892	0.2
194.269	0.45
194.647	0.18
195.024	0.24
195.401	0.27
195.779	0.47
196.156	0.37
196.533	0.32
196.91	0.27
197.288	0.24
197.665	0.29
198.042	0.38
198.419	0.24
198.796	0.37
199.173	0.22
199.55	0.17
199.927	0.36
200.304	0.3
200.681	0.6
201.058	0.21
201.435	0.17
201.812	0.23
202.189	0.33
202.566	0.25
202.943	0.24
203.32	0.28
203.697	0.26
204.073	0.17
204.45	0.19
204.827	0.25
205.204	0.59
205.58	0.3
205.957	0.23
206.334	0.39
206.71	0.19
207.087	0.61
207.464	0.24
207.84	0.3
208.217	0.33
208.593	0.28
208.97	0.38
209.346	0.39
209.723	0.42
210.099	0.32
210.476	0.27
210.852	0.24
211.228	0.46
211.605	0.25
211.981	0.3
212.357	0.38
212.733	0.37
213.11	0.41
213.486	0.17
213.862	0.23
214.238	0.34
214.614	0.37
214.991	0.34
215.367	0.32
215.743	0.29
216.119	0.2
216.495	0.49
216.871	0.38
217.247	0.36
217.623	0.24
217.999	0.2
218.375	0.34
218.751	0.22
219.127	0.4
219.502	0.28
219.878	0.3
220.254	0.38
220.63	0.44
221.006	0.38
221.381	0.17
221.757	0.23
222.133	0.39
222.508	0.22
222.884	0.24
223.26	0.29
223.635	0.35
224.011	0.27
224.386	0.35
224.762	0.24
225.137	0.21
225.513	0.32
225.888	0.24
226.264	0.32
226.639	0.44
227.014	0.44
227.39	0.34
227.765	0.41
228.14	0.41
228.516	0.28
228.891	0.35
229.266	0.35
229.641	0.32
230.017	0.22
230.392	0.28
230.767	0.31
231.142	0.28
231.517	0.36
231.892	0.38
232.267	0.32
232.642	0.34
233.017	0.36
233.392	0.56
233.767	0.37
234.142	0.21
234.517	0.26
234.892	0.3
235.267	0.41
235.641	0.25
236.016	0.17
236.391	0.18
236.766	0.26
237.14	0.4
237.515	0.26
237.89	0.49
238.264	0.55
238.639	0.38
239.014	0.31
239.388	0.24
239.763	0.35
240.137	0.19
240.512	0.26
240.886	0.41
241.261	0.44
241.635	0.5
242.009	0.27
242.384	0.31
242.758	0.28
243.132	0.39
243.507	0.31
243.881	0.36
244.255	0.38
244.629	0.37
245.004	0.29
245.378	0.32
245.752	0.29
246.126	0.28
246.5	0.37
246.874	0.37
247.248	0.22
247.622	0.38
247.996	0.43
248.37	0.3
248.744	0.37
249.118	0.38
249.492	0.34
249.866	0.3
250.24	0.36
250.613	0.2
250.987	0.2
251.361	0.26
251.735	0.35
252.108	0.41
252.482	0.32
252.856	0.17
253.229	0.39
253.603	0.47
253.977	0.44
254.35	0.35
254.724	0.24
255.097	0.27
255.471	0.31
255.844	0.4
256.218	0.35
256.591	0.16
256.964	0.37
257.338	0.29
257.711	0.35
258.084	0.38
258.458	0.36
258.831	0.32
259.204	0.27
259.577	0.39
259.95	0.32
260.323	0.33
260.697	0.37
261.07	0.29
261.443	0.31
261.816	0.34
262.189	0.33
262.562	0.33
262.935	0.3
263.308	0.45
263.68	0.24
264.053	0.35
264.426	0.27
264.799	0.41
265.172	0.39
265.545	0.36
265.917	0.28
266.29	0.3
266.663	0.3
267.035	0.24
267.408	0.29
267.781	0.42
268.153	0.34
268.526	0.37
268.898	0.31
269.271	0.42
269.643	0.37
270.016	0.26
270.388	0.28
270.76	0.28
271.133	0.34
271.505	0.48
271.877	0.37
272.25	0.23
272.622	0.38
272.994	0.31
273.366	0.35
273.739	0.43
274.111	0.39
274.483	0.34
274.855	0.35
275.227	0.32
275.599	0.32
275.971	0.38
276.343	0.38
276.715	0.26
277.087	0.38
277.459	0.27
277.831	0.37
278.203	0.39
278.574	0.31
278.946	0.35
279.318	0.32
279.69	0.3
280.061	0.29
280.433	0.35
280.805	0.39
281.176	0.45
281.548	0.34
281.92	0.31
282.291	0.25
282.663	0.34
283.034	0.4
283.406	0.29
283.777	0.38
284.148	0.33
284.52	0.34
284.891	0.29
285.262	0.34
285.634	0.3
286.005	0.31
286.376	0.22
286.747	0.37
287.119	0.28
287.49	0.25
287.861	0.31
288.232	0.26
288.603	0.39
288.974	0.35
289.345	0.25
289.716	0.4
290.087	0.28
290.458	0.4
290.829	0.34
291.2	0.33
291.571	0.32
291.941	0.34
292.312	0.39
292.683	0.42
293.054	0.31
293.424	0.29
293.795	0.32
294.166	0.37
294.536	0.3
294.907	0.32
295.277	0.4
295.648	0.35
296.018	0.45
296.389	0.29
296.759	0.27
297.13	0.4
297.5	0.33
297.871	0.36
298.241	0.3
298.611	0.34
298.981	0.31
299.352	0.27
299.722	0.29
300.092	0.27
300.462	0.31
300.832	0.31
301.202	0.29
301.573	0.29
301.943	0.27
302.313	0.28
302.683	0.27
303.053	0.27
303.422	0.3
303.792	0.29
304.162	0.31
304.532	0.28
304.902	0.26
305.272	0.29
305.641	0.29
306.011	0.28
306.381	0.29
306.75	0.3
307.12	0.3
307.49	0.3
307.859	0.3
308.229	0.31
308.598	0.31
308.968	0.3
309.337	0.3
309.707	0.31
310.076	0.32
310.445	0.32
310.815	0.33
311.184	0.32
311.553	0.32
311.923	0.33
312.292	0.34
312.661	0.34
313.03	0.34
313.399	0.34
313.768	0.34
314.137	0.34
314.506	0.34
314.875	0.34
315.244	0.34
315.613	0.33
315.982	0.33
316.351	0.34
316.72	0.33
317.089	0.33
317.458	0.32
317.826	0.33
318.195	0.33
318.564	0.32
318.933	0.31
319.301	0.32
319.67	0.31
320.038	0.31
320.407	0.3
320.775	0.31
321.144	0.31
321.512	0.3
321.881	0.3
322.249	0.3
322.618	0.29
322.986	0.28
323.354	0.29
323.723	0.29
324.091	0.28
324.459	0.29
324.827	0.28
325.195	0.29
325.564	0.28
325.932	0.28
326.3	0.27
326.668	0.28
327.036	0.28
327.404	0.29
327.772	0.28
328.14	0.28
328.508	0.28
328.875	0.28
329.243	0.28
329.611	0.29
329.979	0.28
330.346	0.28
330.714	0.3
331.082	0.28
331.449	0.29
331.817	0.3
332.185	0.3
332.552	0.3
332.92	0.3
333.287	0.3
333.655	0.31
334.022	0.32
334.389	0.31
334.757	0.32
335.124	0.32
335.491	0.32
335.859	0.32
336.226	0.33
336.593	0.34
336.96	0.34
337.327	0.34
337.695	0.35
338.062	0.36
338.429	0.36
338.796	0.37
339.163	0.37
339.53	0.37
339.897	0.38
340.263	0.38
340.63	0.39
340.997	0.4
341.364	0.4
341.731	0.41
342.097	0.42
342.464	0.42
342.831	0.43
343.197	0.44
343.564	0.45
343.931	0.45
344.297	0.45
344.664	0.46
345.03	0.47
345.396	0.48
345.763	0.49
346.129	0.5
346.496	0.49
346.862	0.5
347.228	0.51
347.594	0.52
347.961	0.52
348.327	0.54
348.693	0.54
349.059	0.55
349.425	0.56
349.791	0.57
350.157	0.58
350.523	0.58
350.889	0.6
351.255	0.61
351.621	0.62
351.987	0.63
352.353	0.65
352.719	0.66
353.084	0.66
353.45	0.69
353.816	0.69
354.181	0.71
354.547	0.72
354.913	0.73
355.278	0.74
355.644	0.76
356.009	0.78
356.375	0.79
356.74	0.8
357.106	0.82
357.471	0.84
357.836	0.87
358.202	0.87
358.567	0.89
358.932	0.9
359.297	0.92
359.663	0.94
360.028	0.95
360.393	0.95
360.758	0.97
361.123	0.97
361.488	0.98
361.853	1.01
362.218	1.01
362.583	1.01
362.948	1.03
363.312	1.04
363.677	1.05
364.042	1.07
364.407	1.09
364.772	1.11
365.136	1.11
365.501	1.14
365.865	1.15
366.23	1.19
366.595	1.2
366.959	1.22
367.324	1.24
367.688	1.26
368.052	1.28
368.417	1.29
368.781	1.31
369.145	1.33
369.51	1.33
369.874	1.33
370.238	1.34
370.602	1.35
370.967	1.32
371.331	1.31
371.695	1.32
372.059	1.33
372.423	1.31
372.787	1.31
373.151	1.3
373.515	1.29
373.878	1.29
374.242	1.28
374.606	1.28
374.97	1.28
375.334	1.26
375.697	1.3
376.061	1.3
376.425	1.32
376.788	1.32
377.152	1.31
377.515	1.33
377.879	1.33
378.242	1.36
378.606	1.37
378.969	1.38
379.333	1.39
379.696	1.4
380.059	1.41
380.422	1.44
380.786	1.47
381.149	1.49
381.512	1.52
381.875	1.53
382.238	1.57
382.601	1.61
382.964	1.64
383.327	1.65
383.69	1.67
384.053	1.72
384.416	1.74
384.779	1.75
385.142	1.82
385.504	1.8
385.867	1.82
386.23	1.8
386.593	1.85
386.955	1.87
387.318	1.88
387.68	1.82
388.043	1.92
388.405	1.87
388.768	1.89
389.13	1.89
389.493	1.87
389.855	1.85
390.217	1.86
390.58	1.83
390.942	1.81
391.304	1.83
391.666	1.83
392.028	1.86
392.391	1.86
392.753	1.88
393.115	1.93
393.477	1.95
393.839	1.97
394.201	2.06
394.563	2.05
394.924	2.13
395.286	2.15
395.648	2.18
396.01	2.16
396.371	2.2
396.733	2.12
397.095	2.19
397.456	2.19
397.818	2.09
398.18	2.18
398.541	2.13
398.903	2.13
399.264	2.15
399.625	2.06
399.987	2.12
400.348	2.03
400.709	2.03
401.071	1.99
401.432	1.9
401.793	1.81
402.154	1.75
402.515	1.65
402.876	1.57
403.238	1.45
403.599	1.39
403.96	1.3
404.32	1.19
404.681	1.13
405.042	1.05
405.403	0.98
405.764	0.92
406.125	0.85
406.485	0.81
406.846	0.76
407.207	0.7
407.567	0.66
407.928	0.63
408.288	0.58
408.649	0.55
409.009	0.53
409.37	0.5
409.73	0.48
410.091	0.46
410.451	0.43
410.811	0.41
411.171	0.39
411.532	0.38
411.892	0.36
412.252	0.35
412.612	0.34
412.972	0.32
413.332	0.31
413.692	0.3
414.052	0.29
414.412	0.28
414.772	0.28
415.132	0.26
415.492	0.26
415.851	0.25
416.211	0.24
416.571	0.24
416.931	0.23
417.29	0.23
417.65	0.21
418.009	0.21
418.369	0.2
418.728	0.21
419.088	0.21
419.447	0.19
419.807	0.19
420.166	0.19
420.525	0.19
420.884	0.18
421.244	0.18
421.603	0.17
421.962	0.17
422.321	0.17
422.68	0.17
423.039	0.17
423.398	0.16
423.757	0.17
424.116	0.16
424.475	0.16
424.834	0.16
425.193	0.15
425.551	0.15
425.91	0.15
426.269	0.15
426.628	0.15
426.986	0.13
427.345	0.14
427.703	0.14
428.062	0.14
428.42	0.14
428.779	0.14
429.137	0.14
429.496	0.13
429.854	0.13
430.212	0.13
430.57	0.13
430.929	0.13
431.287	0.12
431.645	0.13
432.003	0.12
432.361	0.12
432.719	0.12
433.077	0.12
433.435	0.12
433.793	0.12
434.151	0.11
434.509	0.12
434.866	0.12
435.224	0.12
435.582	0.11
435.94	0.11
436.297	0.11
436.655	0.12
437.012	0.12
437.37	0.11
437.727	0.11
438.085	0.11
438.442	0.11
438.8	0.11
439.157	0.1
439.514	0.11
439.872	0.1
440.229	0.1
440.586	0.11
440.943	0.1
441.3	0.1
441.657	0.1
442.014	0.11
442.371	0.1
442.728	0.1
443.085	0.09
443.442	0.11
443.799	0.09
444.156	0.09
444.513	0.09
444.869	0.09
445.226	0.09
445.583	0.1
445.939	0.09
446.296	0.09
446.652	0.09
447.009	0.09
447.365	0.08
447.722	0.08
448.078	0.08
448.434	0.09
448.791	0.09
449.147	0.08
449.503	0.08
449.859	0.07
450.215	0.08
450.571	0.08
450.928	0.08
451.284	0.08
451.64	0.07
451.995	0.07
452.351	0.07
452.707	0.07
453.063	0.06
453.419	0.07
453.775	0.07
454.13	0.08
454.486	0.07
454.842	0.06
455.197	0.06
455.553	0.05
455.908	0.06
456.264	0.06
456.619	0.05
456.975	0.06
457.33	0.05
457.685	0.05
458.04	0.05
458.396	0.05
458.751	0.04
459.106	0.04
459.461	0.04
459.816	0.04
460.171	0.04
460.526	0.04
460.881	0.03
461.236	0.02
461.591	0.04
461.946	0.02
462.301	0.02
462.655	0.03
463.01	0.03
463.365	0.02
463.719	0.02
464.074	0.02
464.428	0.01
464.783	0.02
465.137	0
465.492	0
465.846	0.01
466.201	0.01
466.555	0.01
466.909	0.01
467.263	0.01
467.618	0.02
467.972	0.01
468.326	0
468.68	0
469.034	0
469.388	0.01
469.742	0.01
470.096	0
470.45	0.01
470.804	0.02
471.157	0.02
471.511	0.01
471.865	0.01
472.218	0.02
472.572	0.02
472.926	0.02
473.279	0.02
473.633	0.03
473.986	0.04
474.34	0.03
474.693	0.04
475.046	0.05
475.4	0.05
475.753	0.05
476.106	0.05
476.459	0.07
476.812	0.07
477.165	0.07
477.519	0.07
477.872	0.08
478.224	0.08
478.577	0.09
478.93	0.09
479.283	0.09
479.636	0.09
479.989	0.09
480.341	0.1
480.694	0.1
481.047	0.11
481.399	0.11
481.752	0.11
482.104	0.12
482.457	0.12
482.809	0.12
483.162	0.12
483.514	0.12
483.866	0.13
484.219	0.13
484.571	0.13
484.923	0.14
485.275	0.14
485.627	0.14
485.979	0.14
486.331	0.15
486.683	0.15
487.035	0.15
487.387	0.16
487.739	0.16
488.091	0.16
488.443	0.16
488.794	0.16
489.146	0.16
489.498	0.16
489.849	0.16
490.201	0.17
490.552	0.17
490.904	0.18
491.255	0.18
491.607	0.18
491.958	0.18
492.309	0.18
492.661	0.18
493.012	0.19
493.363	0.19
493.714	0.19
494.065	0.19
494.416	0.19
494.767	0.2
495.118	0.2
495.469	0.2
495.82	0.2
496.171	0.2
496.522	0.21
496.872	0.21
497.223	0.22
497.574	0.22
497.924	0.22
498.275	0.22
498.626	0.23
498.976	0.23
499.327	0.23
499.677	0.23
500.027	0.24
500.378	0.23
500.728	0.24
501.078	0.24
501.428	0.24
501.779	0.25
502.129	0.25
502.479	0.25
502.829	0.26
503.179	0.26
503.529	0.27
503.879	0.27
504.229	0.27
504.578	0.27
504.928	0.27
505.278	0.28
505.628	0.28
505.977	0.28
506.327	0.28
506.676	0.29
507.026	0.29
507.375	0.29
507.725	0.29
508.074	0.29
508.424	0.3
508.773	0.3
509.122	0.3
509.471	0.31
509.82	0.31
510.17	0.31
510.519	0.31
510.868	0.32
511.217	0.32
511.566	0.32
511.915	0.32
512.263	0.33
512.612	0.33
512.961	0.33
513.31	0.33
513.659	0.34
514.007	0.34
514.356	0.35
514.704	0.35
515.053	0.35
515.401	0.35
515.75	0.35
516.098	0.36
516.447	0.36
516.795	0.36
517.143	0.37
517.491	0.37
517.839	0.37
518.188	0.37
518.536	0.38
518.884	0.38
519.232	0.38
519.58	0.39
519.928	0.39
520.275	0.39
520.623	0.39
520.971	0.4
521.319	0.4
521.666	0.4
522.014	0.41
522.362	0.41
522.709	0.41
523.057	0.42
523.404	0.42
523.752	0.42
524.099	0.42
524.446	0.43
524.794	0.43
525.141	0.43
525.488	0.43
525.835	0.43
526.182	0.44
526.529	0.44
526.876	0.44
527.223	0.45
527.57	0.45
527.917	0.46
528.264	0.46
528.611	0.46
528.958	0.46
529.304	0.47
529.651	0.47
529.998	0.47
530.344	0.47
530.691	0.48
531.037	0.48
531.384	0.48
531.73	0.48
532.076	0.49
532.423	0.49
532.769	0.49
533.115	0.5
533.461	0.5
533.807	0.5
534.154	0.52
534.5	0.51
534.846	0.51
535.192	0.52
535.537	0.53
535.883	0.53
536.229	0.53
536.575	0.54
536.921	0.54
537.266	0.54
537.612	0.55
537.957	0.55
538.303	0.55
538.649	0.55
538.994	0.56
539.339	0.57
539.685	0.57
540.03	0.57
540.375	0.58
540.721	0.59
541.066	0.58
541.411	0.59
541.756	0.59
542.101	0.6
542.446	0.59
542.791	0.6
543.136	0.61
543.481	0.61
543.825	0.61
544.17	0.62
544.515	0.62
544.86	0.63
545.204	0.63
545.549	0.63
545.893	0.64
546.238	0.65
546.582	0.65
546.927	0.65
547.271	0.66
547.615	0.65
547.96	0.67
548.304	0.66
548.648	0.67
548.992	0.67
549.336	0.68
549.68	0.69
550.024	0.69
550.368	0.69
550.712	0.69
551.056	0.69
551.4	0.7
551.743	0.7
552.087	0.71
552.431	0.71
552.774	0.71
553.118	0.71
553.462	0.71
553.805	0.72
554.148	0.72
554.492	0.73
554.835	0.73
555.178	0.73
555.522	0.73
555.865	0.73
556.208	0.74
556.551	0.73
556.894	0.74
557.237	0.74
557.58	0.74
557.923	0.75
558.266	0.75
558.609	0.75
558.952	0.75
559.294	0.76
559.637	0.75
559.98	0.76
560.322	0.76
560.665	0.75
561.007	0.77
561.35	0.77
561.692	0.77
562.034	0.76
562.377	0.77
562.719	0.78
563.061	0.77
563.403	0.78
563.745	0.78
564.088	0.78
564.43	0.78
564.772	0.78
565.113	0.78
565.455	0.78
565.797	0.79
566.139	0.78
566.481	0.79
566.822	0.79
567.164	0.79
567.506	0.79
567.847	0.8
568.189	0.8
568.53	0.8
568.872	0.8
569.213	0.8
569.554	0.8
569.895	0.8
570.237	0.8
570.578	0.81
570.919	0.8
571.26	0.8
571.601	0.81
571.942	0.8
572.283	0.8
572.624	0.81
572.965	0.81
573.306	0.81
573.646	0.81
573.987	0.8
574.328	0.8
574.668	0.81
575.009	0.81
575.349	0.81
575.69	0.81
576.03	0.81
576.37	0.81
576.711	0.81
577.051	0.8
577.391	0.8
577.731	0.81
578.072	0.81
578.412	0.81
578.752	0.81
579.092	0.82
579.431	0.82
579.771	0.81
580.111	0.8
580.451	0.8
580.791	0.81
581.13	0.81
581.47	0.81
581.81	0.82
582.149	0.82
582.489	0.83
582.828	0.83
583.167	0.82
583.507	0.79
583.846	0.77
584.185	0.79
584.525	0.81
584.864	0.83
585.203	0.83
585.542	0.85
585.881	0.84
586.22	0.85
586.559	0.85
586.898	0.84
587.236	0.85
587.575	0.84
587.914	0.84
588.252	0.85
588.591	0.86
588.93	0.87
589.268	0.87
589.607	0.87
589.945	0.87
590.283	0.87
590.622	0.87
590.96	0.88
591.298	0.89
591.636	0.89
591.974	0.89
592.313	0.9
592.651	0.9
592.989	0.9
593.326	0.91
593.664	0.92
594.002	0.92
594.34	0.92
594.678	0.93
595.015	0.93
595.353	0.92
595.691	0.92
596.028	0.93
596.366	0.94
596.703	0.94
597.04	0.94
597.378	0.94
597.715	0.95
598.052	0.95
598.389	0.96
598.726	0.96
599.064	0.97
599.401	0.97
599.738	0.97
600.074	0.97
600.411	0.98
600.748	0.98
601.085	0.97
601.422	0.97
601.758	0.97
602.095	0.98
602.432	0.98
602.768	0.98
603.105	0.98
603.441	0.98
603.777	0.98
604.114	0.98
604.45	0.98
604.786	0.99
605.122	0.98
605.459	0.99
605.795	0.99
606.131	0.98
606.467	0.97
606.803	0.98
607.139	0.98
607.474	0.97
607.81	0.97
608.146	0.97
608.482	0.97
608.817	0.97
609.153	0.97
609.488	0.96
609.824	0.96
610.159	0.96
610.495	0.96
610.83	0.95
611.165	0.96
611.5	0.96
611.836	0.95
612.171	0.95
612.506	0.95
612.841	0.95
613.176	0.95
613.511	0.94
613.845	0.93
614.18	0.94
614.515	0.93
614.85	0.93
615.184	0.92
615.519	0.92
615.854	0.92
616.188	0.91
616.523	0.92
616.857	0.91
617.191	0.91
617.526	0.9
617.86	0.9
618.194	0.9
618.528	0.9
618.862	0.9
619.196	0.9
619.53	0.89
619.864	0.89
620.198	0.89
620.532	0.88
620.866	0.88
621.2	0.88
621.533	0.88
621.867	0.88
622.201	0.86
622.534	0.86
622.868	0.86
623.201	0.86
623.534	0.86
623.868	0.86
624.201	0.85
624.534	0.85
624.868	0.84
625.201	0.84
625.534	0.84
625.867	0.83
626.2	0.83
626.533	0.83
626.865	0.83
627.198	0.82
627.531	0.82
627.864	0.81
628.196	0.81
628.529	0.81
628.862	0.8
629.194	0.8
629.527	0.79
629.859	0.79
630.191	0.78
630.524	0.78
630.856	0.78
631.188	0.77
631.52	0.77
631.852	0.76
632.184	0.76
632.516	0.75
632.848	0.75
633.18	0.74
633.512	0.74
633.844	0.73
634.175	0.72
634.507	0.72
634.839	0.71
635.17	0.71
635.502	0.7
635.833	0.7
636.165	0.69
636.496	0.69
636.827	0.69
637.159	0.68
637.49	0.67
637.821	0.67
638.152	0.66
638.483	0.66
638.814	0.65
639.145	0.65
639.476	0.64
639.807	0.63
640.137	0.63
640.468	0.63
640.799	0.62
641.129	0.62
641.46	0.61
641.791	0.61
642.121	0.6
642.451	0.6
642.782	0.6
643.112	0.59
643.442	0.58
643.773	0.58
644.103	0.58
644.433	0.57
644.763	0.57
645.093	0.57
645.423	0.56
645.753	0.56
646.082	0.56
646.412	0.56
646.742	0.55
647.072	0.55
647.401	0.55
647.731	0.55
648.06	0.55
648.39	0.54
648.719	0.54
649.048	0.54
649.378	0.53
649.707	0.54
650.036	0.54
650.365	0.54
650.694	0.53
651.023	0.53
651.352	0.52
651.681	0.53
652.01	0.53
652.339	0.52
652.668	0.53
652.996	0.52
653.325	0.52
653.654	0.52
653.982	0.52
654.311	0.52
654.639	0.52
654.967	0.52
655.296	0.52
655.624	0.52
655.952	0.52
656.28	0.51
656.609	0.51
656.937	0.52
657.265	0.53
657.593	0.5
657.92	0.35
658.248	0.29
658.576	0.27
658.904	0.36
659.231	0.46
659.559	0.5
659.887	0.5
660.214	0.51
660.542	0.51
660.869	0.51
661.196	0.51
661.524	0.51
661.851	0.51
662.178	0.5
662.505	0.5
662.832	0.5
663.159	0.5
663.486	0.5
663.813	0.49
664.14	0.5
664.467	0.5
664.794	0.49
665.12	0.5
665.447	0.49
665.774	0.49
666.1	0.49
666.427	0.49
666.753	0.49
667.079	0.49
667.406	0.49
667.732	0.49
668.058	0.48
668.384	0.48
668.71	0.48
669.036	0.48
669.362	0.48
669.688	0.48
670.014	0.48
670.34	0.48
670.666	0.47
670.991	0.47
671.317	0.47
671.643	0.46
671.968	0.46
672.294	0.46
672.619	0.45
672.945	0.45
673.27	0.45
673.595	0.45
673.92	0.45
674.246	0.45
674.571	0.44
674.896	0.44
675.221	0.44
675.546	0.44
675.87	0.43
676.195	0.43
676.52	0.42
676.845	0.42
677.169	0.42
677.494	0.42
677.819	0.41
678.143	0.41
678.468	0.41
678.792	0.41
679.116	0.4
679.44	0.4
679.765	0.4
680.089	0.39
680.413	0.38
680.737	0.38
681.061	0.38
681.385	0.38
681.709	0.37
682.033	0.37
682.356	0.36
682.68	0.36
683.004	0.36
683.327	0.35
683.651	0.35
683.974	0.34
684.298	0.34
684.621	0.34
684.944	0.33
685.268	0.34
685.591	0.33
685.914	0.33
686.237	0.33
686.56	0.32
686.883	0.32
687.206	0.31
687.529	0.31
687.852	0.3
688.175	0.3
688.497	0.3
688.82	0.3
689.142	0.29
689.465	0.29
689.787	0.29
690.11	0.28
690.432	0.28
690.755	0.28
691.077	0.27
691.399	0.27
691.721	0.27
692.043	0.26
692.365	0.26
692.687	0.26
693.009	0.25
693.331	0.25
693.653	0.25
693.974	0.25
694.296	0.24
694.618	0.24
694.939	0.24
695.261	0.24
695.582	0.23
695.904	0.24
696.225	0.23
696.546	0.23
696.868	0.23
697.189	0.22
697.51	0.22
697.831	0.22
698.152	0.22
698.473	0.22
698.794	0.21
699.114	0.21
699.435	0.2
699.756	0.2
700.077	0.2
700.397	0.2
700.718	0.2
701.038	0.2
701.359	0.2
701.679	0.2
701.999	0.2
702.32	0.2
702.64	0.19
702.96	0.2
703.28	0.19
703.6	0.19
703.92	0.19
704.24	0.19
704.56	0.19
704.879	0.18
705.199	0.18
705.519	0.18
705.838	0.18
706.158	0.18
706.478	0.18
706.797	0.18
707.116	0.18
707.436	0.17
707.755	0.17
708.074	0.18
708.393	0.18
708.712	0.17
709.031	0.17
709.35	0.17
709.669	0.16
709.988	0.16
710.307	0.16
710.626	0.17
710.944	0.17
711.263	0.17
711.582	0.16
711.9	0.16
712.219	0.16
712.537	0.16
712.855	0.16
713.174	0.16
713.492	0.16
713.81	0.16
714.128	0.16
714.446	0.16
714.764	0.16
715.082	0.16
715.4	0.16
715.718	0.16
716.035	0.16
716.353	0.16
716.671	0.16
716.988	0.16
717.306	0.16
717.623	0.16
717.941	0.16
718.258	0.17
718.575	0.17
718.893	0.17
719.21	0.17
719.527	0.17
719.844	0.17
720.161	0.17
720.478	0.17
720.795	0.17
721.112	0.17
721.428	0.17
721.745	0.17
722.062	0.17
722.378	0.18
722.695	0.17
723.011	0.17
723.328	0.17
723.644	0.17
723.96	0.17
724.276	0.18
724.593	0.18
724.909	0.18
725.225	0.18
725.541	0.18
725.857	0.18
726.173	0.18
726.488	0.18
726.804	0.18
727.12	0.18
727.435	0.18
727.751	0.18
728.067	0.19
728.382	0.19
728.697	0.19
729.013	0.19
729.328	0.18
729.643	0.19
729.958	0.19
730.273	0.19
730.588	0.19
730.903	0.19
731.218	0.19
731.533	0.19
731.848	0.19
732.163	0.19
732.477	0.19
732.792	0.19
733.107	0.18
733.421	0.18
733.736	0.18
734.05	0.19
734.364	0.19
734.678	0.19
734.993	0.19
735.307	0.19
735.621	0.18
735.935	0.18
736.249	0.18
736.563	0.18
736.877	0.18
737.19	0.19
737.504	0.18
737.818	0.18
738.131	0.18
738.445	0.18
738.758	0.18
739.072	0.18
739.385	0.18
739.698	0.18
740.012	0.18
740.325	0.18
740.638	0.17
740.951	0.17
741.264	0.17
741.577	0.17
741.89	0.17
742.203	0.17
742.515	0.17
742.828	0.17
743.141	0.17
743.453	0.17
743.766	0.17
744.078	0.17
744.391	0.17
744.703	0.17
745.015	0.16
745.327	0.16
745.639	0.16
745.952	0.16
746.264	0.15
746.575	0.16
746.887	0.15
747.199	0.15
747.511	0.15
747.823	0.15
748.134	0.15
748.446	0.14
748.757	0.14
749.069	0.14
749.38	0.14
749.692	0.14
750.003	0.14
750.314	0.14
750.625	0.14
750.936	0.13
751.248	0.13
751.559	0.13
751.869	0.12
752.18	0.12
752.491	0.12
752.802	0.12
753.112	0.12
753.423	0.12
753.734	0.12
754.044	0.12
754.355	0.11
754.665	0.11
754.975	0.11
755.285	0.1
755.596	0.1
755.906	0.1
756.216	0.1
756.526	0.1
756.836	0.1
757.146	0.1
757.455	0.1
757.765	0.1
758.075	0.1
758.385	0.1
758.694	0.09
759.004	0.09
759.313	0.09
759.622	0.09
759.932	0.09
760.241	0.08
760.55	0.09
760.859	0.09
761.168	0.09
761.477	0.08
761.786	0.09
762.095	0.08
762.404	0.08
762.713	0.08
763.021	0.07
763.33	0.07
763.639	0.07
763.947	0.07
764.256	0.07
764.564	0.07
764.872	0.07
765.181	0.07
765.489	0.06
765.797	0.06
766.105	0.06
766.413	0.06
766.721	0.06
767.029	0.06
767.337	0.06
767.644	0.06
767.952	0.06
768.26	0.06
768.567	0.07
768.875	0.07
769.182	0.06
769.49	0.06
769.797	0.06
770.104	0.05
770.411	0.06
770.718	0.06
771.026	0.05
771.333	0.05
771.639	0.05
771.946	0.06
772.253	0.06
772.56	0.06
772.867	0.06
773.173	0.05
773.48	0.05
773.786	0.05
774.093	0.05
774.399	0.05
774.705	0.05
775.012	0.05
775.318	0.05
775.624	0.05
775.93	0.05
776.236	0.05
776.542	0.05
776.848	0.05
777.154	0.05
777.459	0.05
777.765	0.05
778.071	0.05
778.376	0.05
778.682	0.05
778.987	0.05
779.292	0.05
779.598	0.05
779.903	0.05
780.208	0.05
780.513	0.05
780.818	0.05
781.123	0.05
781.428	0.05
781.733	0.05
782.038	0.04
782.343	0.05
782.647	0.05
782.952	0.04
783.256	0.05
783.561	0.05
783.865	0.05
784.17	0.05
784.474	0.05
784.778	0.05
785.082	0.05
785.386	0.05
785.69	0.05
785.994	0.04
786.298	0.05
786.602	0.05
786.906	0.04
787.209	0.04
787.513	0.05
787.817	0.04
788.12	0.04
788.424	0.05
788.727	0.05
789.03	0.05
789.333	0.05
789.637	0.05
789.94	0.04
790.243	0.05
790.546	0.05
790.849	0.05
791.152	0.05
791.454	0.05
791.757	0.05
792.06	0.04
792.362	0.05
792.665	0.04
792.967	0.04
793.27	0.04
793.572	0.04
793.874	0.04
794.177	0.04
794.479	0.04
794.781	0.04
795.083	0.05
795.385	0.04
795.687	0.05
795.989	0.04
796.29	0.05
796.592	0.04
796.894	0.04
797.195	0.04
797.497	0.04
797.798	0.04
798.1	0.04
798.401	0.04
798.702	0.04
799.003	0.04
799.304	0.04
799.605	0.04
799.906	0.04
800.207	0.04
800.508	0.04
800.809	0.04
801.11	0.04
801.41	0.04
801.711	0.05
802.011	0.05
802.312	0.05
802.612	0.04
802.913	0.05
803.213	0.05
803.513	0.05
803.813	0.05
804.113	0.05
804.413	0.05
804.713	0.05
805.013	0.05
805.313	0.05
805.613	0.05
805.912	0.05
806.212	0.05
806.511	0.05
806.811	0.05
807.11	0.05
807.41	0.05
807.709	0.05
808.008	0.05
808.307	0.05
808.606	0.05
808.905	0.05
809.204	0.05
809.503	0.05
809.802	0.05
810.101	0.05
810.399	0.04
810.698	0.04
810.997	0.05
811.295	0.04
811.593	0.04
811.892	0.04
812.19	0.04
812.488	0.04
812.786	0.04
813.084	0.04
813.383	0.04
813.68	0.04
813.978	0.04
814.276	0.03
814.574	0.04
814.872	0.04
815.169	0.04
815.467	0.04
815.764	0.04
816.062	0.04
816.359	0.04
816.656	0.04
816.954	0.04
817.251	0.04
817.548	0.04
817.845	0.04
818.142	0.04
818.439	0.04
818.735	0.04
819.032	0.04
819.329	0.05
819.626	0.04
819.922	0.04
820.219	0.05
820.515	0.04
820.811	0.04
821.108	0.04
821.404	0.04
821.7	0.04
821.996	0.04
822.292	0.04
822.588	0.04
822.884	0.04
823.18	0.04
823.475	0.04
823.771	0.04
824.067	0.04
824.362	0.04
824.658	0.05
824.953	0.05
825.249	0.05
825.544	0.05
825.839	0.05
826.134	0.05
826.429	0.05
826.724	0.04
827.019	0.04
827.314	0.04
827.609	0.04
827.904	0.04
828.198	0.04
828.493	0.05
828.787	0.04
829.082	0.05
829.376	0.04
829.671	0.04
829.965	0.05
830.259	0.04
830.553	0.05
830.847	0.05
831.141	0.04
831.435	0.04
831.729	0.04
832.023	0.05
832.317	0.04
832.61	0.05
832.904	0.04
833.197	0.04
833.491	0.04
833.784	0.05
834.077	0.05
834.371	0.05
834.664	0.05
834.957	0.05
835.25	0.04
835.543	0.04
835.836	0.05
836.129	0.05
836.421	0.05
836.714	0.05
837.007	0.05
837.299	0.06
837.592	0.05
837.884	0.06
838.177	0.05
838.469	0.05
838.761	0.05
839.053	0.05
839.345	0.06
839.637	0.06
839.929	0.05
840.221	0.05
840.513	0.05
840.805	0.05
841.096	0.05
841.388	0.04
841.68	0.05
841.971	0.05
842.262	0.05
842.554	0.05
842.845	0.05
843.136	0.04
843.427	0.05
843.718	0.05
844.009	0.05
844.3	0.05
844.591	0.06
844.882	0.04
845.173	0.06
845.463	0.05
845.754	0.05
846.044	0.05
846.335	0.04
846.625	0.06
846.915	0.05
847.206	0.06
847.496	0.05
847.786	0.05
848.076	0.06
848.366	0.05
848.656	0.06
848.945	0.05
849.235	0.05
849.525	0.06
849.814	0.06
850.104	0.05
850.393	0.06
850.683	0.06
850.972	0.05
851.261	0.06
851.551	0.07
851.84	0.04
852.129	0.05
852.418	0.05
852.707	0.04
852.995	0.05
853.284	0.04
853.573	0.04
853.862	0.04
854.15	0.03
854.439	0.05
854.727	0.05
855.015	0.05
855.304	0.05
855.592	0.04
855.88	0.06
856.168	0.05
856.456	0.04
856.744	0.04
857.032	0.05
857.32	0.05
857.607	0.04
857.895	0.05
858.183	0.07
858.47	0.04
858.757	0.04
859.045	0.06
859.332	0.05
859.619	0.05
859.907	0.06
860.194	0.05
860.481	0.05
860.768	0.04
861.054	0.05
861.341	0.06
861.628	0.06
861.915	0.05
862.201	0.07
862.488	0.06
862.774	0.06
863.061	0.04
863.347	0.04
863.633	0.06
863.919	0.07
864.205	0.05
864.491	0.07
864.777	0.04
865.063	0.05
865.349	0.03
865.635	0.01
865.92	0.06
866.206	0.06
866.492	0.07
866.777	0.07
867.062	0.03
867.348	0.04
867.633	0.02
867.918	0.05
868.203	0.06
868.488	0.08
868.773	0.06
869.058	0.07
869.343	0.07
869.628	0.06
869.912	0.06
870.197	0.07
870.482	0.06
870.766	0.1
871.05	0.08
871.335	0.08
871.619	0.07
871.903	0.04
872.187	0.09
872.471	0.03
872.755	0.01
873.039	0.07
873.323	0.05
873.607	0.04
873.89	0.05
874.174	0.05
874.458	0.03
874.741	0.04
875.024	0.06
875.308	0.05
875.591	0.04
875.874	0.02
876.157	0.07
876.44	0.05
876.723	0.11
877.006	0.1
877.289	0.11
877.572	0.11
877.854	0.18
878.137	0.14
878.42	0.1
878.702	0.08
878.984	0.06
879.267	0.04
879.549	0.19
879.831	0.23
880.113	0.08
880.395	0.08
880.677	0.12
880.959	-0.02
