Data from Rubpy_EV_1500_EDTA_Buffered_Absorbance_15-01-11-988.txt Node
Date: Tue Jun 30 15:01:11 BST 2026
User: fpm-admin
Spectrometer: OFX00224
Trigger mode: 0
Integration Time (sec): 7.000000E-2
Scans to average: 3
Nonlinearity correction enabled: false
Boxcar width: 0
Storing dark spectrum: false
XAxis mode: Wavelengths
Number of Pixels in Spectrum: 2136
>>>>>Begin Spectral Data<<<<<
154.91	0.17
155.289	-0.43
155.669	-0.25
156.048	-0.52
156.428	-0.3
156.807	0.56
157.186	-0.4
157.566	-0.17
157.945	-0
158.325	-1.26
158.704	-1.43
159.083	-0.18
159.462	-0
159.842	-0.3
160.221	-0.18
160.6	-0
160.979	0.21
161.359	-0.6
161.738	0.6
162.117	0.6
162.496	0.18
162.875	-0.28
163.254	0.08
163.633	0.27
164.012	0.06
164.391	0.6
164.77	0.45
165.149	-0
165.528	-0
165.907	-0
166.286	-0.35
166.665	-0
167.044	0.08
167.423	-0.01
167.802	-0
168.181	0.14
168.559	-0.55
168.938	0.12
169.317	-0.41
169.696	-0.31
170.074	0.44
170.453	-0.72
170.832	-0
171.21	-0
171.589	-0
171.968	-0
172.346	-0.99
172.725	-1
173.103	-0.1
173.482	-0.6
173.861	0.51
174.239	-0
174.617	1.28
174.996	-0.3
175.374	-0
175.753	-0
176.131	-0
176.51	0.14
176.888	0.37
177.266	-0
177.645	-0.11
178.023	-0
178.401	-0.31
178.779	-0.05
179.158	0.09
179.536	-0
179.914	-0
180.292	0.46
180.67	-0.02
181.048	-0
181.427	0.02
181.805	-0.38
182.183	0.52
182.561	0.1
182.939	-0.7
183.317	-0
183.695	0.23
184.073	-0.54
184.451	-0.07
184.829	-0.22
185.206	0.39
185.584	0.88
185.962	-0.16
186.34	0.46
186.718	-0
187.096	-1.48
187.473	-0
187.851	0.45
188.229	-0.34
188.607	0.17
188.984	0.16
189.362	0.17
189.74	0.11
190.117	0.13
190.495	0.11
190.872	0.1
191.25	0.17
191.627	0.16
192.005	0.14
192.382	0.14
192.76	0.11
193.137	0.19
193.515	0.14
193.892	0.14
194.269	0.14
194.647	0.13
195.024	0.12
195.401	0.1
195.779	0.29
196.156	0.22
196.533	0.19
196.91	0.09
197.288	0.1
197.665	0.08
198.042	0.08
198.419	0.21
198.796	0.14
199.173	0.16
199.55	0.11
199.927	0.19
200.304	0.07
200.681	0.14
201.058	0.07
201.435	0.07
201.812	0.1
202.189	0.19
202.566	0.32
202.943	0.09
203.32	0.18
203.697	0.2
204.073	0.11
204.45	0.1
204.827	0.15
205.204	0.26
205.58	0.16
205.957	0.14
206.334	0.1
206.71	0.13
207.087	0.13
207.464	0.18
207.84	0.18
208.217	0.17
208.593	0.21
208.97	0.16
209.346	0.18
209.723	0.22
210.099	0.18
210.476	0.23
210.852	0.23
211.228	0.22
211.605	0.15
211.981	0.18
212.357	0.3
212.733	0.1
213.11	0.21
213.486	0.2
213.862	0.11
214.238	0.17
214.614	0.25
214.991	0.22
215.367	0.25
215.743	0.24
216.119	0.23
216.495	0.2
216.871	0.19
217.247	0.05
217.623	0.26
217.999	0.14
218.375	0.18
218.751	0.19
219.127	0.24
219.502	0.16
219.878	0.17
220.254	0.17
220.63	0.15
221.006	0.18
221.381	0.13
221.757	0.2
222.133	0.35
222.508	0.11
222.884	0.16
223.26	0.18
223.635	0.27
224.011	0.18
224.386	0.19
224.762	0.18
225.137	0.11
225.513	0.23
225.888	0.19
226.264	0.24
226.639	0.19
227.014	0.24
227.39	0.1
227.765	0.22
228.14	0.15
228.516	0.26
228.891	0.23
229.266	0.2
229.641	0.34
230.017	0.18
230.392	0.24
230.767	0.19
231.142	0.26
231.517	0.25
231.892	0.21
232.267	0.24
232.642	0.29
233.017	0.31
233.392	0.26
233.767	0.28
234.142	0.2
234.517	0.22
234.892	0.11
235.267	0.18
235.641	0.19
236.016	0.12
236.391	0.13
236.766	0.24
237.14	0.18
237.515	0.11
237.89	0.25
238.264	0.22
238.639	0.24
239.014	0.19
239.388	0.18
239.763	0.21
240.137	0.08
240.512	0.09
240.886	0.16
241.261	0.18
241.635	0.22
242.009	0.2
242.384	0.13
242.758	0.22
243.132	0.21
243.507	0.24
243.881	0.19
244.255	0.23
244.629	0.18
245.004	0.14
245.378	0.14
245.752	0.17
246.126	0.14
246.5	0.27
246.874	0.18
247.248	0.11
247.622	0.21
247.996	0.21
248.37	0.16
248.744	0.18
249.118	0.14
249.492	0.23
249.866	0.1
250.24	0.23
250.613	0.17
250.987	0.13
251.361	0.2
251.735	0.14
252.108	0.28
252.482	0.3
252.856	0.1
253.229	0.12
253.603	0.17
253.977	0.33
254.35	0.11
254.724	0.23
255.097	0.17
255.471	0.3
255.844	0.2
256.218	0.18
256.591	0.12
256.964	0.27
257.338	0.17
257.711	0.2
258.084	0.26
258.458	0.24
258.831	0.21
259.204	0.14
259.577	0.26
259.95	0.21
260.323	0.19
260.697	0.17
261.07	0.15
261.443	0.13
261.816	0.24
262.189	0.21
262.562	0.22
262.935	0.14
263.308	0.15
263.68	0.2
264.053	0.23
264.426	0.16
264.799	0.18
265.172	0.22
265.545	0.15
265.917	0.12
266.29	0.18
266.663	0.27
267.035	0.25
267.408	0.16
267.781	0.2
268.153	0.19
268.526	0.25
268.898	0.2
269.271	0.2
269.643	0.12
270.016	0.13
270.388	0.23
270.76	0.16
271.133	0.18
271.505	0.2
271.877	0.18
272.25	0.21
272.622	0.15
272.994	0.22
273.366	0.2
273.739	0.26
274.111	0.1
274.483	0.19
274.855	0.26
275.227	0.17
275.599	0.14
275.971	0.2
276.343	0.25
276.715	0.12
277.087	0.21
277.459	0.16
277.831	0.19
278.203	0.21
278.574	0.18
278.946	0.18
279.318	0.15
279.69	0.11
280.061	0.19
280.433	0.19
280.805	0.23
281.176	0.3
281.548	0.13
281.92	0.22
282.291	0.15
282.663	0.27
283.034	0.22
283.406	0.18
283.777	0.18
284.148	0.17
284.52	0.24
284.891	0.17
285.262	0.21
285.634	0.19
286.005	0.2
286.376	0.12
286.747	0.14
287.119	0.2
287.49	0.13
287.861	0.13
288.232	0.2
288.603	0.21
288.974	0.21
289.345	0.18
289.716	0.21
290.087	0.18
290.458	0.21
290.829	0.27
291.2	0.24
291.571	0.18
291.941	0.2
292.312	0.17
292.683	0.21
293.054	0.16
293.424	0.07
293.795	0.17
294.166	0.2
294.536	0.19
294.907	0.18
295.277	0.19
295.648	0.19
296.018	0.2
296.389	0.21
296.759	0.15
297.13	0.22
297.5	0.18
297.871	0.2
298.241	0.14
298.611	0.22
298.981	0.19
299.352	0.16
299.722	0.2
300.092	0.18
300.462	0.16
300.832	0.12
301.202	0.17
301.573	0.15
301.943	0.18
302.313	0.14
302.683	0.14
303.053	0.15
303.422	0.16
303.792	0.15
304.162	0.16
304.532	0.14
304.902	0.13
305.272	0.14
305.641	0.15
306.011	0.15
306.381	0.15
306.75	0.15
307.12	0.14
307.49	0.15
307.859	0.16
308.229	0.16
308.598	0.17
308.968	0.15
309.337	0.16
309.707	0.16
310.076	0.16
310.445	0.17
310.815	0.17
311.184	0.17
311.553	0.17
311.923	0.17
312.292	0.17
312.661	0.18
313.03	0.18
313.399	0.17
313.768	0.17
314.137	0.17
314.506	0.18
314.875	0.17
315.244	0.18
315.613	0.17
315.982	0.17
316.351	0.17
316.72	0.17
317.089	0.16
317.458	0.16
317.826	0.18
318.195	0.17
318.564	0.17
318.933	0.16
319.301	0.16
319.67	0.16
320.038	0.16
320.407	0.15
320.775	0.15
321.144	0.15
321.512	0.15
321.881	0.15
322.249	0.15
322.618	0.15
322.986	0.14
323.354	0.14
323.723	0.15
324.091	0.15
324.459	0.14
324.827	0.14
325.195	0.14
325.564	0.14
325.932	0.14
326.3	0.14
326.668	0.14
327.036	0.13
327.404	0.14
327.772	0.14
328.14	0.15
328.508	0.14
328.875	0.14
329.243	0.14
329.611	0.15
329.979	0.15
330.346	0.14
330.714	0.14
331.082	0.14
331.449	0.14
331.817	0.15
332.185	0.15
332.552	0.14
332.92	0.15
333.287	0.15
333.655	0.15
334.022	0.15
334.389	0.16
334.757	0.16
335.124	0.16
335.491	0.15
335.859	0.16
336.226	0.17
336.593	0.17
336.96	0.16
337.327	0.17
337.695	0.17
338.062	0.17
338.429	0.18
338.796	0.18
339.163	0.18
339.53	0.19
339.897	0.18
340.263	0.19
340.63	0.2
340.997	0.2
341.364	0.2
341.731	0.21
342.097	0.2
342.464	0.21
342.831	0.21
343.197	0.21
343.564	0.23
343.931	0.23
344.297	0.23
344.664	0.23
345.03	0.23
345.396	0.24
345.763	0.24
346.129	0.24
346.496	0.25
346.862	0.25
347.228	0.26
347.594	0.26
347.961	0.26
348.327	0.26
348.693	0.27
349.059	0.27
349.425	0.28
349.791	0.28
350.157	0.29
350.523	0.29
350.889	0.3
351.255	0.31
351.621	0.31
351.987	0.31
352.353	0.32
352.719	0.32
353.084	0.34
353.45	0.34
353.816	0.34
354.181	0.36
354.547	0.36
354.913	0.37
355.278	0.38
355.644	0.38
356.009	0.39
356.375	0.4
356.74	0.41
357.106	0.42
357.471	0.42
357.836	0.43
358.202	0.44
358.567	0.46
358.932	0.46
359.297	0.46
359.663	0.47
360.028	0.48
360.393	0.48
360.758	0.49
361.123	0.5
361.488	0.5
361.853	0.51
362.218	0.51
362.583	0.52
362.948	0.53
363.312	0.53
363.677	0.54
364.042	0.55
364.407	0.56
364.772	0.57
365.136	0.58
365.501	0.6
365.865	0.61
366.23	0.61
366.595	0.63
366.959	0.64
367.324	0.65
367.688	0.66
368.052	0.68
368.417	0.68
368.781	0.69
369.145	0.7
369.51	0.71
369.874	0.71
370.238	0.71
370.602	0.71
370.967	0.71
371.331	0.7
371.695	0.7
372.059	0.7
372.423	0.7
372.787	0.69
373.151	0.69
373.515	0.68
373.878	0.67
374.242	0.68
374.606	0.68
374.97	0.68
375.334	0.69
375.697	0.68
376.061	0.69
376.425	0.7
376.788	0.7
377.152	0.7
377.515	0.71
377.879	0.72
378.242	0.73
378.606	0.73
378.969	0.73
379.333	0.75
379.696	0.76
380.059	0.77
380.422	0.78
380.786	0.79
381.149	0.81
381.512	0.83
381.875	0.84
382.238	0.86
382.601	0.88
382.964	0.9
383.327	0.92
383.69	0.94
384.053	0.97
384.416	0.99
384.779	1.02
385.142	1.03
385.504	1.05
385.867	1.06
386.23	1.07
386.593	1.09
386.955	1.08
387.318	1.09
387.68	1.09
388.043	1.08
388.405	1.08
388.768	1.06
389.13	1.06
389.493	1.05
389.855	1.04
390.217	1.03
390.58	1.04
390.942	1.04
391.304	1.05
391.666	1.06
392.028	1.07
392.391	1.09
392.753	1.13
393.115	1.16
393.477	1.2
393.839	1.22
394.201	1.27
394.563	1.33
394.924	1.38
395.286	1.42
395.648	1.44
396.01	1.49
396.371	1.52
396.733	1.55
397.095	1.59
397.456	1.59
397.818	1.56
398.18	1.55
398.541	1.56
398.903	1.53
399.264	1.5
399.625	1.45
399.987	1.41
400.348	1.34
400.709	1.29
401.071	1.23
401.432	1.15
401.793	1.08
402.154	1.02
402.515	0.95
402.876	0.89
403.238	0.82
403.599	0.78
403.96	0.72
404.32	0.66
404.681	0.61
405.042	0.57
405.403	0.53
405.764	0.49
406.125	0.46
406.485	0.44
406.846	0.41
407.207	0.38
407.567	0.36
407.928	0.34
408.288	0.31
408.649	0.3
409.009	0.28
409.37	0.27
409.73	0.26
410.091	0.24
410.451	0.23
410.811	0.22
411.171	0.21
411.532	0.2
411.892	0.19
412.252	0.19
412.612	0.18
412.972	0.17
413.332	0.16
413.692	0.16
414.052	0.15
414.412	0.15
414.772	0.15
415.132	0.14
415.492	0.14
415.851	0.13
416.211	0.12
416.571	0.12
416.931	0.12
417.29	0.12
417.65	0.11
418.009	0.11
418.369	0.11
418.728	0.11
419.088	0.11
419.447	0.1
419.807	0.1
420.166	0.1
420.525	0.09
420.884	0.1
421.244	0.09
421.603	0.09
421.962	0.09
422.321	0.09
422.68	0.09
423.039	0.08
423.398	0.09
423.757	0.09
424.116	0.09
424.475	0.08
424.834	0.08
425.193	0.08
425.551	0.07
425.91	0.08
426.269	0.08
426.628	0.08
426.986	0.07
427.345	0.07
427.703	0.07
428.062	0.07
428.42	0.07
428.779	0.07
429.137	0.08
429.496	0.07
429.854	0.06
430.212	0.07
430.57	0.07
430.929	0.06
431.287	0.07
431.645	0.07
432.003	0.06
432.361	0.07
432.719	0.06
433.077	0.06
433.435	0.06
433.793	0.06
434.151	0.05
434.509	0.06
434.866	0.06
435.224	0.06
435.582	0.06
435.94	0.06
436.297	0.06
436.655	0.06
437.012	0.06
437.37	0.06
437.727	0.07
438.085	0.05
438.442	0.05
438.8	0.06
439.157	0.04
439.514	0.05
439.872	0.04
440.229	0.06
440.586	0.05
440.943	0.05
441.3	0.05
441.657	0.05
442.014	0.05
442.371	0.05
442.728	0.05
443.085	0.05
443.442	0.05
443.799	0.05
444.156	0.04
444.513	0.05
444.869	0.04
445.226	0.04
445.583	0.05
445.939	0.04
446.296	0.04
446.652	0.04
447.009	0.04
447.365	0.03
447.722	0.04
448.078	0.04
448.434	0.04
448.791	0.03
449.147	0.03
449.503	0.03
449.859	0.03
450.215	0.04
450.571	0.03
450.928	0.03
451.284	0.02
451.64	0.03
451.995	0.03
452.351	0.02
452.707	0.03
453.063	0.02
453.419	0.02
453.775	0.02
454.13	0.02
454.486	0.03
454.842	0.02
455.197	0.02
455.553	0.01
455.908	0.02
456.264	0.01
456.619	0.01
456.975	0.01
457.33	0.01
457.685	0.01
458.04	0
458.396	0
458.751	0.01
459.106	0.01
459.461	-0
459.816	-0.01
460.171	-0.01
460.526	-0.01
460.881	-0.01
461.236	-0.03
461.591	-0
461.946	-0.02
462.301	-0.02
462.655	-0.01
463.01	-0.01
463.365	-0.02
463.719	-0.02
464.074	-0.03
464.428	-0.04
464.783	-0.03
465.137	-0.04
465.492	-0.05
465.846	-0.04
466.201	-0.03
466.555	-0.03
466.909	-0.03
467.263	-0.03
467.618	-0.03
467.972	-0.03
468.326	-0.04
468.68	-0.04
469.034	-0.04
469.388	-0.04
469.742	-0.04
470.096	-0.04
470.45	-0.04
470.804	-0.03
471.157	-0.03
471.511	-0.03
471.865	-0.03
472.218	-0.03
472.572	-0.03
472.926	-0.03
473.279	-0.03
473.633	-0.02
473.986	-0.02
474.34	-0.02
474.693	-0.02
475.046	-0.01
475.4	-0
475.753	-0
476.106	-0
476.459	0.01
476.812	0.01
477.165	0.01
477.519	0.01
477.872	0.02
478.224	0.02
478.577	0.02
478.93	0.03
479.283	0.03
479.636	0.03
479.989	0.03
480.341	0.03
480.694	0.03
481.047	0.04
481.399	0.04
481.752	0.04
482.104	0.04
482.457	0.05
482.809	0.05
483.162	0.05
483.514	0.05
483.866	0.05
484.219	0.05
484.571	0.05
484.923	0.05
485.275	0.05
485.627	0.06
485.979	0.06
486.331	0.06
486.683	0.07
487.035	0.07
487.387	0.07
487.739	0.07
488.091	0.07
488.443	0.07
488.794	0.07
489.146	0.07
489.498	0.08
489.849	0.07
490.201	0.08
490.552	0.08
490.904	0.08
491.255	0.08
491.607	0.08
491.958	0.08
492.309	0.08
492.661	0.08
493.012	0.08
493.363	0.09
493.714	0.09
494.065	0.09
494.416	0.09
494.767	0.09
495.118	0.09
495.469	0.1
495.82	0.1
496.171	0.1
496.522	0.1
496.872	0.1
497.223	0.1
497.574	0.1
497.924	0.11
498.275	0.11
498.626	0.11
498.976	0.11
499.327	0.11
499.677	0.11
500.027	0.12
500.378	0.12
500.728	0.12
501.078	0.12
501.428	0.12
501.779	0.12
502.129	0.12
502.479	0.13
502.829	0.13
503.179	0.13
503.529	0.13
503.879	0.13
504.229	0.13
504.578	0.13
504.928	0.13
505.278	0.13
505.628	0.14
505.977	0.14
506.327	0.14
506.676	0.14
507.026	0.14
507.375	0.14
507.725	0.14
508.074	0.14
508.424	0.15
508.773	0.15
509.122	0.15
509.471	0.15
509.82	0.15
510.17	0.16
510.519	0.16
510.868	0.15
511.217	0.16
511.566	0.16
511.915	0.16
512.263	0.16
512.612	0.16
512.961	0.16
513.31	0.17
513.659	0.17
514.007	0.17
514.356	0.17
514.704	0.18
515.053	0.18
515.401	0.18
515.75	0.18
516.098	0.18
516.447	0.18
516.795	0.19
517.143	0.18
517.491	0.18
517.839	0.19
518.188	0.19
518.536	0.19
518.884	0.19
519.232	0.19
519.58	0.19
519.928	0.19
520.275	0.2
520.623	0.2
520.971	0.2
521.319	0.2
521.666	0.2
522.014	0.2
522.362	0.2
522.709	0.21
523.057	0.2
523.404	0.21
523.752	0.21
524.099	0.21
524.446	0.21
524.794	0.22
525.141	0.22
525.488	0.22
525.835	0.22
526.182	0.22
526.529	0.23
526.876	0.22
527.223	0.23
527.57	0.23
527.917	0.23
528.264	0.23
528.611	0.23
528.958	0.23
529.304	0.24
529.651	0.24
529.998	0.24
530.344	0.24
530.691	0.24
531.037	0.25
531.384	0.24
531.73	0.25
532.076	0.24
532.423	0.25
532.769	0.25
533.115	0.25
533.461	0.26
533.807	0.26
534.154	0.26
534.5	0.26
534.846	0.26
535.192	0.26
535.537	0.27
535.883	0.27
536.229	0.27
536.575	0.28
536.921	0.28
537.266	0.28
537.612	0.28
537.957	0.28
538.303	0.28
538.649	0.28
538.994	0.28
539.339	0.29
539.685	0.29
540.03	0.29
540.375	0.29
540.721	0.3
541.066	0.3
541.411	0.3
541.756	0.31
542.101	0.31
542.446	0.31
542.791	0.31
543.136	0.31
543.481	0.31
543.825	0.31
544.17	0.32
544.515	0.32
544.86	0.32
545.204	0.33
545.549	0.33
545.893	0.33
546.238	0.33
546.582	0.34
546.927	0.34
547.271	0.34
547.615	0.34
547.96	0.35
548.304	0.34
548.648	0.35
548.992	0.35
549.336	0.35
549.68	0.36
550.024	0.36
550.368	0.36
550.712	0.36
551.056	0.36
551.4	0.37
551.743	0.36
552.087	0.37
552.431	0.36
552.774	0.37
553.118	0.37
553.462	0.38
553.805	0.38
554.148	0.38
554.492	0.38
554.835	0.38
555.178	0.38
555.522	0.38
555.865	0.38
556.208	0.38
556.551	0.39
556.894	0.39
557.237	0.39
557.58	0.39
557.923	0.39
558.266	0.39
558.609	0.39
558.952	0.4
559.294	0.4
559.637	0.4
559.98	0.4
560.322	0.4
560.665	0.4
561.007	0.4
561.35	0.41
561.692	0.41
562.034	0.41
562.377	0.41
562.719	0.41
563.061	0.41
563.403	0.41
563.745	0.41
564.088	0.41
564.43	0.41
564.772	0.41
565.113	0.41
565.455	0.41
565.797	0.41
566.139	0.42
566.481	0.42
566.822	0.42
567.164	0.42
567.506	0.42
567.847	0.42
568.189	0.42
568.53	0.42
568.872	0.42
569.213	0.42
569.554	0.43
569.895	0.43
570.237	0.42
570.578	0.42
570.919	0.42
571.26	0.42
571.601	0.42
571.942	0.42
572.283	0.42
572.624	0.42
572.965	0.42
573.306	0.42
573.646	0.42
573.987	0.42
574.328	0.42
574.668	0.42
575.009	0.43
575.349	0.42
575.69	0.42
576.03	0.42
576.37	0.42
576.711	0.41
577.051	0.42
577.391	0.42
577.731	0.43
578.072	0.43
578.412	0.43
578.752	0.43
579.092	0.42
579.431	0.42
579.771	0.41
580.111	0.41
580.451	0.41
580.791	0.42
581.13	0.43
581.47	0.43
581.81	0.43
582.149	0.43
582.489	0.43
582.828	0.43
583.167	0.42
583.507	0.39
583.846	0.38
584.185	0.39
584.525	0.42
584.864	0.43
585.203	0.44
585.542	0.44
585.881	0.45
586.22	0.45
586.559	0.45
586.898	0.44
587.236	0.44
587.575	0.44
587.914	0.44
588.252	0.45
588.591	0.45
588.93	0.46
589.268	0.45
589.607	0.46
589.945	0.46
590.283	0.46
590.622	0.46
590.96	0.47
591.298	0.47
591.636	0.47
591.974	0.47
592.313	0.48
592.651	0.48
592.989	0.48
593.326	0.48
593.664	0.49
594.002	0.49
594.34	0.49
594.678	0.49
595.015	0.49
595.353	0.48
595.691	0.49
596.028	0.49
596.366	0.5
596.703	0.5
597.04	0.5
597.378	0.51
597.715	0.51
598.052	0.51
598.389	0.51
598.726	0.52
599.064	0.52
599.401	0.52
599.738	0.52
600.074	0.52
600.411	0.52
600.748	0.52
601.085	0.52
601.422	0.51
601.758	0.51
602.095	0.52
602.432	0.52
602.768	0.51
603.105	0.52
603.441	0.52
603.777	0.52
604.114	0.53
604.45	0.53
604.786	0.53
605.122	0.53
605.459	0.53
605.795	0.53
606.131	0.53
606.467	0.52
606.803	0.52
607.139	0.53
607.474	0.52
607.81	0.52
608.146	0.52
608.482	0.52
608.817	0.51
609.153	0.51
609.488	0.51
609.824	0.51
610.159	0.51
610.495	0.51
610.83	0.51
611.165	0.51
611.5	0.51
611.836	0.51
612.171	0.51
612.506	0.51
612.841	0.51
613.176	0.51
613.511	0.5
613.845	0.5
614.18	0.5
614.515	0.5
614.85	0.5
615.184	0.49
615.519	0.5
615.854	0.5
616.188	0.49
616.523	0.49
616.857	0.49
617.191	0.49
617.526	0.49
617.86	0.49
618.194	0.48
618.528	0.49
618.862	0.48
619.196	0.48
619.53	0.48
619.864	0.48
620.198	0.48
620.532	0.47
620.866	0.47
621.2	0.46
621.533	0.47
621.867	0.47
622.201	0.46
622.534	0.46
622.868	0.46
623.201	0.46
623.534	0.46
623.868	0.46
624.201	0.45
624.534	0.45
624.868	0.45
625.201	0.45
625.534	0.45
625.867	0.45
626.2	0.45
626.533	0.44
626.865	0.44
627.198	0.44
627.531	0.44
627.864	0.44
628.196	0.43
628.529	0.43
628.862	0.43
629.194	0.42
629.527	0.43
629.859	0.42
630.191	0.42
630.524	0.42
630.856	0.42
631.188	0.42
631.52	0.41
631.852	0.41
632.184	0.4
632.516	0.4
632.848	0.4
633.18	0.4
633.512	0.4
633.844	0.39
634.175	0.38
634.507	0.39
634.839	0.38
635.17	0.38
635.502	0.38
635.833	0.37
636.165	0.37
636.496	0.37
636.827	0.37
637.159	0.36
637.49	0.36
637.821	0.36
638.152	0.36
638.483	0.35
638.814	0.35
639.145	0.35
639.476	0.34
639.807	0.34
640.137	0.34
640.468	0.34
640.799	0.33
641.129	0.33
641.46	0.33
641.791	0.32
642.121	0.32
642.451	0.32
642.782	0.32
643.112	0.31
643.442	0.31
643.773	0.3
644.103	0.3
644.433	0.31
644.763	0.3
645.093	0.3
645.423	0.3
645.753	0.3
646.082	0.3
646.412	0.3
646.742	0.29
647.072	0.3
647.401	0.3
647.731	0.3
648.06	0.29
648.39	0.29
648.719	0.29
649.048	0.29
649.378	0.28
649.707	0.28
650.036	0.28
650.365	0.28
650.694	0.28
651.023	0.28
651.352	0.28
651.681	0.28
652.01	0.28
652.339	0.28
652.668	0.28
652.996	0.28
653.325	0.28
653.654	0.28
653.982	0.27
654.311	0.28
654.639	0.27
654.967	0.27
655.296	0.27
655.624	0.28
655.952	0.27
656.28	0.27
656.609	0.27
656.937	0.27
657.265	0.28
657.593	0.25
657.92	0.11
658.248	0.06
658.576	0.05
658.904	0.13
659.231	0.22
659.559	0.26
659.887	0.27
660.214	0.27
660.542	0.27
660.869	0.27
661.196	0.27
661.524	0.27
661.851	0.27
662.178	0.27
662.505	0.26
662.832	0.26
663.159	0.26
663.486	0.26
663.813	0.26
664.14	0.27
664.467	0.26
664.794	0.26
665.12	0.26
665.447	0.26
665.774	0.26
666.1	0.26
666.427	0.26
666.753	0.26
667.079	0.26
667.406	0.26
667.732	0.26
668.058	0.26
668.384	0.26
668.71	0.26
669.036	0.26
669.362	0.26
669.688	0.25
670.014	0.25
670.34	0.25
670.666	0.25
670.991	0.25
671.317	0.25
671.643	0.24
671.968	0.24
672.294	0.24
672.619	0.24
672.945	0.24
673.27	0.24
673.595	0.24
673.92	0.24
674.246	0.24
674.571	0.23
674.896	0.23
675.221	0.23
675.546	0.23
675.87	0.23
676.195	0.23
676.52	0.22
676.845	0.22
677.169	0.22
677.494	0.22
677.819	0.22
678.143	0.22
678.468	0.21
678.792	0.21
679.116	0.21
679.44	0.21
679.765	0.21
680.089	0.21
680.413	0.2
680.737	0.2
681.061	0.2
681.385	0.2
681.709	0.19
682.033	0.19
682.356	0.19
682.68	0.19
683.004	0.19
683.327	0.18
683.651	0.18
683.974	0.18
684.298	0.18
684.621	0.18
684.944	0.18
685.268	0.18
685.591	0.17
685.914	0.17
686.237	0.17
686.56	0.17
686.883	0.16
687.206	0.16
687.529	0.16
687.852	0.15
688.175	0.15
688.497	0.15
688.82	0.16
689.142	0.15
689.465	0.15
689.787	0.15
690.11	0.15
690.432	0.14
690.755	0.14
691.077	0.14
691.399	0.14
691.721	0.14
692.043	0.14
692.365	0.13
692.687	0.14
693.009	0.13
693.331	0.13
693.653	0.13
693.974	0.13
694.296	0.13
694.618	0.13
694.939	0.13
695.261	0.12
695.582	0.12
695.904	0.12
696.225	0.12
696.546	0.12
696.868	0.12
697.189	0.11
697.51	0.11
697.831	0.11
698.152	0.11
698.473	0.12
698.794	0.11
699.114	0.11
699.435	0.1
699.756	0.1
700.077	0.1
700.397	0.11
700.718	0.1
701.038	0.1
701.359	0.1
701.679	0.1
701.999	0.1
702.32	0.1
702.64	0.1
702.96	0.1
703.28	0.1
703.6	0.1
703.92	0.1
704.24	0.1
704.56	0.1
704.879	0.09
705.199	0.09
705.519	0.09
705.838	0.09
706.158	0.09
706.478	0.09
706.797	0.09
707.116	0.09
707.436	0.09
707.755	0.09
708.074	0.09
708.393	0.09
708.712	0.09
709.031	0.09
709.35	0.09
709.669	0.08
709.988	0.08
710.307	0.09
710.626	0.08
710.944	0.08
711.263	0.08
711.582	0.08
711.9	0.08
712.219	0.08
712.537	0.08
712.855	0.08
713.174	0.08
713.492	0.08
713.81	0.08
714.128	0.08
714.446	0.08
714.764	0.08
715.082	0.08
715.4	0.08
715.718	0.08
716.035	0.08
716.353	0.08
716.671	0.08
716.988	0.08
717.306	0.08
717.623	0.08
717.941	0.08
718.258	0.09
718.575	0.09
718.893	0.09
719.21	0.09
719.527	0.08
719.844	0.09
720.161	0.09
720.478	0.09
720.795	0.09
721.112	0.09
721.428	0.09
721.745	0.09
722.062	0.09
722.378	0.09
722.695	0.09
723.011	0.09
723.328	0.09
723.644	0.09
723.96	0.09
724.276	0.09
724.593	0.09
724.909	0.09
725.225	0.09
725.541	0.09
725.857	0.09
726.173	0.1
726.488	0.09
726.804	0.09
727.12	0.1
727.435	0.09
727.751	0.1
728.067	0.1
728.382	0.1
728.697	0.1
729.013	0.1
729.328	0.09
729.643	0.1
729.958	0.1
730.273	0.1
730.588	0.1
730.903	0.1
731.218	0.1
731.533	0.1
731.848	0.1
732.163	0.1
732.477	0.1
732.792	0.09
733.107	0.09
733.421	0.1
733.736	0.1
734.05	0.1
734.364	0.1
734.678	0.1
734.993	0.1
735.307	0.1
735.621	0.1
735.935	0.1
736.249	0.09
736.563	0.1
736.877	0.09
737.19	0.1
737.504	0.09
737.818	0.09
738.131	0.09
738.445	0.09
738.758	0.09
739.072	0.09
739.385	0.09
739.698	0.09
740.012	0.09
740.325	0.09
740.638	0.09
740.951	0.09
741.264	0.09
741.577	0.09
741.89	0.09
742.203	0.09
742.515	0.09
742.828	0.1
743.141	0.09
743.453	0.09
743.766	0.09
744.078	0.09
744.391	0.09
744.703	0.09
745.015	0.08
745.327	0.08
745.639	0.08
745.952	0.08
746.264	0.08
746.575	0.08
746.887	0.08
747.199	0.08
747.511	0.08
747.823	0.08
748.134	0.07
748.446	0.07
748.757	0.08
749.069	0.07
749.38	0.07
749.692	0.07
750.003	0.07
750.314	0.07
750.625	0.07
750.936	0.07
751.248	0.07
751.559	0.07
751.869	0.07
752.18	0.07
752.491	0.06
752.802	0.06
753.112	0.06
753.423	0.06
753.734	0.06
754.044	0.06
754.355	0.06
754.665	0.06
754.975	0.06
755.285	0.05
755.596	0.05
755.906	0.05
756.216	0.05
756.526	0.05
756.836	0.05
757.146	0.05
757.455	0.05
757.765	0.05
758.075	0.05
758.385	0.05
758.694	0.05
759.004	0.05
759.313	0.04
759.622	0.04
759.932	0.05
760.241	0.04
760.55	0.04
760.859	0.04
761.168	0.05
761.477	0.04
761.786	0.04
762.095	0.04
762.404	0.04
762.713	0.04
763.021	0.04
763.33	0.04
763.639	0.03
763.947	0.03
764.256	0.03
764.564	0.03
764.872	0.03
765.181	0.03
765.489	0.03
765.797	0.03
766.105	0.03
766.413	0.03
766.721	0.03
767.029	0.03
767.337	0.03
767.644	0.03
767.952	0.03
768.26	0.03
768.567	0.03
768.875	0.03
769.182	0.03
769.49	0.03
769.797	0.02
770.104	0.02
770.411	0.02
770.718	0.02
771.026	0.02
771.333	0.02
771.639	0.02
771.946	0.02
772.253	0.02
772.56	0.02
772.867	0.02
773.173	0.02
773.48	0.02
773.786	0.02
774.093	0.02
774.399	0.02
774.705	0.02
775.012	0.02
775.318	0.02
775.624	0.02
775.93	0.02
776.236	0.02
776.542	0.02
776.848	0.02
777.154	0.02
777.459	0.02
777.765	0.02
778.071	0.02
778.376	0.02
778.682	0.02
778.987	0.02
779.292	0.02
779.598	0.02
779.903	0.02
780.208	0.02
780.513	0.02
780.818	0.02
781.123	0.02
781.428	0.02
781.733	0.02
782.038	0.02
782.343	0.02
782.647	0.02
782.952	0.02
783.256	0.02
783.561	0.02
783.865	0.02
784.17	0.03
784.474	0.03
784.778	0.02
785.082	0.02
785.386	0.02
785.69	0.02
785.994	0.02
786.298	0.02
786.602	0.02
786.906	0.02
787.209	0.02
787.513	0.02
787.817	0.02
788.12	0.02
788.424	0.02
788.727	0.02
789.03	0.02
789.333	0.02
789.637	0.02
789.94	0.02
790.243	0.03
790.546	0.02
790.849	0.02
791.152	0.02
791.454	0.02
791.757	0.02
792.06	0.02
792.362	0.02
792.665	0.02
792.967	0.02
793.27	0.02
793.572	0.02
793.874	0.02
794.177	0.02
794.479	0.01
794.781	0.02
795.083	0.02
795.385	0.02
795.687	0.02
795.989	0.02
796.29	0.02
796.592	0.02
796.894	0.02
797.195	0.02
797.497	0.02
797.798	0.02
798.1	0.01
798.401	0.01
798.702	0.02
799.003	0.02
799.304	0.02
799.605	0.02
799.906	0.02
800.207	0.02
800.508	0.02
800.809	0.02
801.11	0.02
801.41	0.02
801.711	0.02
802.011	0.02
802.312	0.02
802.612	0.02
802.913	0.03
803.213	0.03
803.513	0.03
803.813	0.03
804.113	0.03
804.413	0.03
804.713	0.03
805.013	0.03
805.313	0.03
805.613	0.03
805.912	0.02
806.212	0.03
806.511	0.03
806.811	0.03
807.11	0.03
807.41	0.03
807.709	0.03
808.008	0.02
808.307	0.02
808.606	0.02
808.905	0.02
809.204	0.02
809.503	0.02
809.802	0.02
810.101	0.02
810.399	0.02
810.698	0.02
810.997	0.02
811.295	0.02
811.593	0.02
811.892	0.02
812.19	0.02
812.488	0.02
812.786	0.02
813.084	0.02
813.383	0.02
813.68	0.02
813.978	0.02
814.276	0.01
814.574	0.01
814.872	0.01
815.169	0.01
815.467	0.02
815.764	0.01
816.062	0.02
816.359	0.02
816.656	0.01
816.954	0.01
817.251	0.01
817.548	0.01
817.845	0.01
818.142	0.02
818.439	0.02
818.735	0.01
819.032	0.02
819.329	0.02
819.626	0.01
819.922	0.02
820.219	0.02
820.515	0.02
820.811	0.02
821.108	0.01
821.404	0.01
821.7	0.01
821.996	0.02
822.292	0.01
822.588	0.02
822.884	0.01
823.18	0.02
823.475	0.02
823.771	0.02
824.067	0.02
824.362	0.02
824.658	0.02
824.953	0.03
825.249	0.03
825.544	0.03
825.839	0.03
826.134	0.03
826.429	0.02
826.724	0.02
827.019	0.02
827.314	0.02
827.609	0.02
827.904	0.02
828.198	0.02
828.493	0.02
828.787	0.02
829.082	0.02
829.376	0.01
829.671	0.02
829.965	0.02
830.259	0.01
830.553	0.02
830.847	0.02
831.141	0.02
831.435	0.02
831.729	0.02
832.023	0.03
832.317	0.02
832.61	0.03
832.904	0.01
833.197	0.02
833.491	0.02
833.784	0.02
834.077	0.02
834.371	0.03
834.664	0.02
834.957	0.02
835.25	0.02
835.543	0.02
835.836	0.03
836.129	0.02
836.421	0.02
836.714	0.02
837.007	0.02
837.299	0.02
837.592	0.03
837.884	0.03
838.177	0.03
838.469	0.03
838.761	0.03
839.053	0.02
839.345	0.02
839.637	0.03
839.929	0.03
840.221	0.03
840.513	0.04
840.805	0.02
841.096	0.03
841.388	0.01
841.68	0.02
841.971	0.02
842.262	0.02
842.554	0.02
842.845	0.02
843.136	0.01
843.427	0.02
843.718	0.02
844.009	0.01
844.3	0.02
844.591	0.03
844.882	0.01
845.173	0.02
845.463	0.02
845.754	0.03
846.044	0.02
846.335	0.01
846.625	0.02
846.915	0.02
847.206	0.02
847.496	0.02
847.786	0.02
848.076	0.03
848.366	0.02
848.656	0.03
848.945	0.03
849.235	0.02
849.525	0.02
849.814	0.02
850.104	0.02
850.393	0.03
850.683	0.02
850.972	0.02
851.261	0.02
851.551	0.03
851.84	0.02
852.129	0.01
852.418	0.02
852.707	0
852.995	0.02
853.284	0.01
853.573	0.01
853.862	0.01
854.15	0
854.439	0.02
854.727	0.02
855.015	0.02
855.304	0.01
855.592	0.02
855.88	0.03
856.168	0.03
856.456	0.01
856.744	0.01
857.032	0.03
857.32	0.03
857.607	0.04
857.895	0.02
858.183	0.04
858.47	0.01
858.757	0.01
859.045	0.02
859.332	0.03
859.619	0.02
859.907	0.02
860.194	0.03
860.481	0
860.768	0.02
861.054	0.02
861.341	0.02
861.628	0.03
861.915	0.01
862.201	0.03
862.488	0.05
862.774	0.02
863.061	-0.01
863.347	0.01
863.633	0.04
863.919	0.02
864.205	0.04
864.491	0.04
864.777	0.03
865.063	0
865.349	0.01
865.635	-0
865.92	-0
866.206	0.02
866.492	0.04
866.777	0.04
867.062	-0.03
867.348	0.02
867.633	-0.01
867.918	0.02
868.203	0.03
868.488	0.02
868.773	0.04
869.058	-0.01
869.343	0.02
869.628	0.02
869.912	0.02
870.197	0.01
870.482	0.02
870.766	0.05
871.05	0.04
871.335	0.03
871.619	0.03
871.903	0.06
872.187	0.07
872.471	-0
872.755	0.04
873.039	0.04
873.323	0.06
873.607	0.02
873.89	0.01
874.174	0.02
874.458	0.02
874.741	0.05
875.024	-0.02
875.308	-0.01
875.591	0.05
875.874	-0.03
876.157	0.01
876.44	0.02
876.723	0.05
877.006	0.08
877.289	0.01
877.572	-0
877.854	-0
878.137	0.13
878.42	-0.01
878.702	0.06
878.984	0.05
879.267	-0.01
879.549	0.06
879.831	0.01
880.113	0.12
880.395	0
880.677	0.11
880.959	-0.07
