Data from Rubpy_EV_1500_EDTA_Buffered_Absorbance_14-48-43-883.txt Node
Date: Tue Jun 30 14:48:43 BST 2026
User: fpm-admin
Spectrometer: OFX00224
Trigger mode: 0
Integration Time (sec): 7.000000E-2
Scans to average: 3
Nonlinearity correction enabled: false
Boxcar width: 0
Storing dark spectrum: false
XAxis mode: Wavelengths
Number of Pixels in Spectrum: 2136
>>>>>Begin Spectral Data<<<<<
154.91	0.23
155.289	-0.39
155.669	-0.29
156.048	-0.15
156.428	-0
156.807	0.32
157.186	0.7
157.566	0.43
157.945	0.12
158.325	-0.3
158.704	-0
159.083	0.52
159.462	-0.68
159.842	-0
160.221	-0
160.6	-0
160.979	-0
161.359	-0.41
161.738	0.16
162.117	-0.05
162.496	-0.02
162.875	-0
163.254	-0
163.633	-0.11
164.012	-0
164.391	0.6
164.77	0.22
165.149	-0
165.528	-0
165.907	0.7
166.286	-0.38
166.665	-0
167.044	1.29
167.423	-0.22
167.802	-0
168.181	0.18
168.559	-0.51
168.938	0.41
169.317	-0
169.696	0.41
170.074	0.14
170.453	-0
170.832	-0
171.21	-0.5
171.589	0.37
171.968	0.74
172.346	-0.43
172.725	-0
173.103	-0.27
173.482	-0.76
173.861	-0.36
174.239	0.1
174.617	0.28
174.996	-0.28
175.374	1.3
175.753	0.81
176.131	-0
176.51	-0.12
176.888	0.6
177.266	-0
177.645	-0.01
178.023	0.64
178.401	-0.17
178.779	-0.37
179.158	0.83
179.536	0.16
179.914	-0
180.292	0.27
180.67	-0.09
181.048	-0
181.427	-0
181.805	-0.42
182.183	-0
182.561	-0.03
182.939	-0
183.317	-0.81
183.695	0.03
184.073	1.15
184.451	0.42
184.829	-0.03
185.206	0.67
185.584	-0
185.962	0.48
186.34	-0
186.718	0.33
187.096	-1.53
187.473	-0
187.851	0.15
188.229	-0.19
188.607	0.1
188.984	0.17
189.362	0.16
189.74	0.05
190.117	0.16
190.495	0.13
190.872	0.02
191.25	0.17
191.627	0.01
192.005	0.05
192.382	0.14
192.76	0.18
193.137	0.16
193.515	0.13
193.892	0.13
194.269	0.12
194.647	0.09
195.024	0.05
195.401	0.08
195.779	0.25
196.156	0.21
196.533	0.16
196.91	0.06
197.288	0.11
197.665	0.19
198.042	0.08
198.419	0.11
198.796	0.05
199.173	0.12
199.55	0.08
199.927	0.18
200.304	0.05
200.681	0.06
201.058	0.06
201.435	0.12
201.812	0.13
202.189	0.16
202.566	0.21
202.943	0.09
203.32	0.14
203.697	0.21
204.073	0.03
204.45	0.11
204.827	0.18
205.204	0.15
205.58	0.18
205.957	0.13
206.334	0.16
206.71	0.13
207.087	0.15
207.464	0.1
207.84	0.1
208.217	0.12
208.593	0.13
208.97	0.16
209.346	0.09
209.723	0.18
210.099	0.15
210.476	0.18
210.852	0.16
211.228	0.16
211.605	0.12
211.981	0.13
212.357	0.1
212.733	0.17
213.11	0.25
213.486	0.12
213.862	0.16
214.238	0.1
214.614	0.18
214.991	0.18
215.367	0.11
215.743	0.15
216.119	0.14
216.495	0.13
216.871	0.14
217.247	0.09
217.623	0.12
217.999	0.26
218.375	0.11
218.751	0.11
219.127	0.11
219.502	0.14
219.878	0.04
220.254	0.11
220.63	0.22
221.006	0.16
221.381	0.15
221.757	0.06
222.133	0.22
222.508	0.11
222.884	0.09
223.26	0.12
223.635	0.18
224.011	0.1
224.386	0.09
224.762	0.05
225.137	0.09
225.513	0.18
225.888	0.09
226.264	0.14
226.639	0.22
227.014	0.14
227.39	0.1
227.765	0.23
228.14	0.11
228.516	0.14
228.891	0.12
229.266	0.13
229.641	0.19
230.017	0.15
230.392	0.12
230.767	0.2
231.142	0.19
231.517	0.16
231.892	0.15
232.267	0.17
232.642	0.19
233.017	0.03
233.392	0.14
233.767	0.19
234.142	0.12
234.517	0.06
234.892	0.1
235.267	0.12
235.641	0.2
236.016	0.02
236.391	0.07
236.766	0.03
237.14	0.17
237.515	0.15
237.89	0.18
238.264	0.06
238.639	0.16
239.014	0.21
239.388	0.11
239.763	0.13
240.137	0.1
240.512	-0
240.886	0.14
241.261	0.2
241.635	0.21
242.009	0.12
242.384	0.17
242.758	0.11
243.132	0.12
243.507	0.28
243.881	0.12
244.255	0.2
244.629	0.26
245.004	0.22
245.378	0.17
245.752	0.15
246.126	0.08
246.5	0.15
246.874	0.17
247.248	0.11
247.622	0.22
247.996	0.13
248.37	0.17
248.744	0.16
249.118	0.13
249.492	0.18
249.866	0.08
250.24	0.23
250.613	0.12
250.987	0.03
251.361	0.09
251.735	0.12
252.108	0.09
252.482	0.07
252.856	0.09
253.229	0.1
253.603	0.21
253.977	0.23
254.35	0.12
254.724	0.06
255.097	0.09
255.471	0.18
255.844	0.13
256.218	0.13
256.591	0.06
256.964	0.12
257.338	0.1
257.711	0.12
258.084	0.17
258.458	0.23
258.831	0.18
259.204	0.09
259.577	0.15
259.95	0.13
260.323	0.17
260.697	0.14
261.07	0.12
261.443	0.06
261.816	0.11
262.189	0.15
262.562	0.16
262.935	0.15
263.308	0.16
263.68	0.12
264.053	0.17
264.426	0.11
264.799	0.2
265.172	0.11
265.545	0.2
265.917	0.1
266.29	0.13
266.663	0.11
267.035	0.16
267.408	0.08
267.781	0.14
268.153	0.22
268.526	0.13
268.898	0.07
269.271	0.2
269.643	0.18
270.016	0.13
270.388	0.11
270.76	0.1
271.133	0.12
271.505	0.12
271.877	0.14
272.25	0.13
272.622	0.13
272.994	0.19
273.366	0.15
273.739	0.17
274.111	0.07
274.483	0.11
274.855	0.17
275.227	0.12
275.599	0.1
275.971	0.18
276.343	0.13
276.715	0.05
277.087	0.16
277.459	0.21
277.831	0.12
278.203	0.15
278.574	0.2
278.946	0.18
279.318	0.09
279.69	0.12
280.061	0.13
280.433	0.16
280.805	0.13
281.176	0.19
281.548	0.15
281.92	0.22
282.291	0.15
282.663	0.23
283.034	0.19
283.406	0.15
283.777	0.17
284.148	0.12
284.52	0.14
284.891	0.12
285.262	0.13
285.634	0.21
286.005	0.17
286.376	0.11
286.747	0.11
287.119	0.19
287.49	0.06
287.861	0.1
288.232	0.06
288.603	0.17
288.974	0.18
289.345	0.12
289.716	0.16
290.087	0.11
290.458	0.15
290.829	0.16
291.2	0.15
291.571	0.12
291.941	0.1
292.312	0.13
292.683	0.13
293.054	0.08
293.424	0.02
293.795	0.16
294.166	0.11
294.536	0.11
294.907	0.09
295.277	0.12
295.648	0.14
296.018	0.15
296.389	0.2
296.759	0.14
297.13	0.11
297.5	0.11
297.871	0.14
298.241	0.15
298.611	0.15
298.981	0.14
299.352	0.14
299.722	0.11
300.092	0.12
300.462	0.11
300.832	0.13
301.202	0.11
301.573	0.08
301.943	0.11
302.313	0.11
302.683	0.09
303.053	0.09
303.422	0.13
303.792	0.1
304.162	0.11
304.532	0.1
304.902	0.1
305.272	0.11
305.641	0.1
306.011	0.1
306.381	0.09
306.75	0.1
307.12	0.09
307.49	0.1
307.859	0.1
308.229	0.09
308.598	0.1
308.968	0.1
309.337	0.1
309.707	0.1
310.076	0.1
310.445	0.1
310.815	0.11
311.184	0.1
311.553	0.11
311.923	0.1
312.292	0.11
312.661	0.1
313.03	0.11
313.399	0.11
313.768	0.11
314.137	0.1
314.506	0.11
314.875	0.11
315.244	0.11
315.613	0.11
315.982	0.11
316.351	0.1
316.72	0.11
317.089	0.1
317.458	0.1
317.826	0.11
318.195	0.1
318.564	0.11
318.933	0.1
319.301	0.1
319.67	0.1
320.038	0.1
320.407	0.1
320.775	0.09
321.144	0.1
321.512	0.09
321.881	0.09
322.249	0.09
322.618	0.1
322.986	0.09
323.354	0.09
323.723	0.09
324.091	0.09
324.459	0.09
324.827	0.09
325.195	0.09
325.564	0.09
325.932	0.08
326.3	0.09
326.668	0.08
327.036	0.08
327.404	0.09
327.772	0.08
328.14	0.09
328.508	0.08
328.875	0.08
329.243	0.08
329.611	0.09
329.979	0.09
330.346	0.08
330.714	0.08
331.082	0.08
331.449	0.09
331.817	0.09
332.185	0.09
332.552	0.09
332.92	0.09
333.287	0.08
333.655	0.09
334.022	0.09
334.389	0.09
334.757	0.09
335.124	0.1
335.491	0.09
335.859	0.09
336.226	0.1
336.593	0.1
336.96	0.1
337.327	0.1
337.695	0.1
338.062	0.1
338.429	0.11
338.796	0.11
339.163	0.11
339.53	0.11
339.897	0.11
340.263	0.11
340.63	0.12
340.997	0.11
341.364	0.12
341.731	0.12
342.097	0.12
342.464	0.12
342.831	0.12
343.197	0.13
343.564	0.14
343.931	0.13
344.297	0.14
344.664	0.14
345.03	0.14
345.396	0.14
345.763	0.14
346.129	0.15
346.496	0.14
346.862	0.14
347.228	0.16
347.594	0.15
347.961	0.16
348.327	0.16
348.693	0.16
349.059	0.16
349.425	0.17
349.791	0.17
350.157	0.17
350.523	0.18
350.889	0.18
351.255	0.18
351.621	0.19
351.987	0.19
352.353	0.19
352.719	0.2
353.084	0.2
353.45	0.2
353.816	0.21
354.181	0.22
354.547	0.21
354.913	0.22
355.278	0.22
355.644	0.23
356.009	0.23
356.375	0.24
356.74	0.24
357.106	0.25
357.471	0.25
357.836	0.26
358.202	0.27
358.567	0.27
358.932	0.27
359.297	0.28
359.663	0.29
360.028	0.29
360.393	0.29
360.758	0.29
361.123	0.3
361.488	0.3
361.853	0.31
362.218	0.31
362.583	0.32
362.948	0.32
363.312	0.32
363.677	0.33
364.042	0.33
364.407	0.34
364.772	0.34
365.136	0.35
365.501	0.36
365.865	0.37
366.23	0.38
366.595	0.38
366.959	0.39
367.324	0.39
367.688	0.4
368.052	0.41
368.417	0.42
368.781	0.42
369.145	0.42
369.51	0.43
369.874	0.44
370.238	0.43
370.602	0.44
370.967	0.44
371.331	0.43
371.695	0.43
372.059	0.43
372.423	0.42
372.787	0.42
373.151	0.42
373.515	0.42
373.878	0.42
374.242	0.42
374.606	0.42
374.97	0.42
375.334	0.42
375.697	0.42
376.061	0.42
376.425	0.43
376.788	0.43
377.152	0.44
377.515	0.44
377.879	0.44
378.242	0.45
378.606	0.46
378.969	0.47
379.333	0.47
379.696	0.47
380.059	0.48
380.422	0.49
380.786	0.5
381.149	0.51
381.512	0.52
381.875	0.53
382.238	0.55
382.601	0.55
382.964	0.57
383.327	0.58
383.69	0.6
384.053	0.61
384.416	0.63
384.779	0.65
385.142	0.66
385.504	0.67
385.867	0.68
386.23	0.69
386.593	0.7
386.955	0.69
387.318	0.69
387.68	0.69
388.043	0.69
388.405	0.68
388.768	0.67
389.13	0.67
389.493	0.67
389.855	0.66
390.217	0.66
390.58	0.66
390.942	0.66
391.304	0.67
391.666	0.68
392.028	0.69
392.391	0.7
392.753	0.72
393.115	0.75
393.477	0.77
393.839	0.79
394.201	0.83
394.563	0.88
394.924	0.9
395.286	0.94
395.648	0.97
396.01	0.99
396.371	1.02
396.733	1.05
397.095	1.06
397.456	1.07
397.818	1.06
398.18	1.05
398.541	1.04
398.903	1.03
399.264	0.99
399.625	0.96
399.987	0.92
400.348	0.89
400.709	0.85
401.071	0.8
401.432	0.75
401.793	0.7
402.154	0.65
402.515	0.61
402.876	0.57
403.238	0.52
403.599	0.5
403.96	0.45
404.32	0.42
404.681	0.39
405.042	0.36
405.403	0.34
405.764	0.32
406.125	0.29
406.485	0.28
406.846	0.26
407.207	0.24
407.567	0.22
407.928	0.21
408.288	0.2
408.649	0.19
409.009	0.18
409.37	0.17
409.73	0.17
410.091	0.16
410.451	0.15
410.811	0.14
411.171	0.13
411.532	0.13
411.892	0.12
412.252	0.12
412.612	0.11
412.972	0.11
413.332	0.11
413.692	0.1
414.052	0.1
414.412	0.09
414.772	0.09
415.132	0.09
415.492	0.09
415.851	0.09
416.211	0.09
416.571	0.08
416.931	0.08
417.29	0.08
417.65	0.07
418.009	0.07
418.369	0.07
418.728	0.07
419.088	0.07
419.447	0.07
419.807	0.06
420.166	0.07
420.525	0.06
420.884	0.06
421.244	0.06
421.603	0.06
421.962	0.06
422.321	0.06
422.68	0.05
423.039	0.06
423.398	0.06
423.757	0.06
424.116	0.06
424.475	0.06
424.834	0.05
425.193	0.05
425.551	0.05
425.91	0.05
426.269	0.05
426.628	0.05
426.986	0.04
427.345	0.05
427.703	0.05
428.062	0.04
428.42	0.04
428.779	0.04
429.137	0.04
429.496	0.05
429.854	0.04
430.212	0.05
430.57	0.04
430.929	0.05
431.287	0.04
431.645	0.04
432.003	0.04
432.361	0.04
432.719	0.04
433.077	0.04
433.435	0.04
433.793	0.05
434.151	0.04
434.509	0.04
434.866	0.03
435.224	0.03
435.582	0.04
435.94	0.04
436.297	0.04
436.655	0.04
437.012	0.04
437.37	0.04
437.727	0.03
438.085	0.03
438.442	0.04
438.8	0.03
439.157	0.03
439.514	0.04
439.872	0.03
440.229	0.03
440.586	0.03
440.943	0.03
441.3	0.03
441.657	0.03
442.014	0.03
442.371	0.03
442.728	0.03
443.085	0.03
443.442	0.04
443.799	0.03
444.156	0.03
444.513	0.02
444.869	0.02
445.226	0.02
445.583	0.03
445.939	0.02
446.296	0.02
446.652	0.02
447.009	0.02
447.365	0.02
447.722	0.02
448.078	0.02
448.434	0.02
448.791	0.02
449.147	0.02
449.503	0.01
449.859	0.02
450.215	0.02
450.571	0.02
450.928	0.02
451.284	0.01
451.64	0.01
451.995	0.02
452.351	0.01
452.707	0.01
453.063	-0
453.419	0.01
453.775	0.01
454.13	0.01
454.486	0.01
454.842	-0
455.197	0.01
455.553	-0
455.908	0
456.264	-0
456.619	-0
456.975	0
457.33	0
457.685	-0.01
458.04	-0.01
458.396	-0.01
458.751	-0.01
459.106	-0.02
459.461	-0.01
459.816	-0.02
460.171	-0.02
460.526	-0.02
460.881	-0.02
461.236	-0.03
461.591	-0.02
461.946	-0.03
462.301	-0.03
462.655	-0.03
463.01	-0.03
463.365	-0.03
463.719	-0.03
464.074	-0.04
464.428	-0.05
464.783	-0.04
465.137	-0.05
465.492	-0.06
465.846	-0.05
466.201	-0.05
466.555	-0.04
466.909	-0.04
467.263	-0.04
467.618	-0.04
467.972	-0.05
468.326	-0.05
468.68	-0.06
469.034	-0.06
469.388	-0.06
469.742	-0.05
470.096	-0.06
470.45	-0.06
470.804	-0.05
471.157	-0.05
471.511	-0.05
471.865	-0.05
472.218	-0.05
472.572	-0.05
472.926	-0.05
473.279	-0.04
473.633	-0.04
473.986	-0.04
474.34	-0.04
474.693	-0.04
475.046	-0.03
475.4	-0.02
475.753	-0.02
476.106	-0.03
476.459	-0.02
476.812	-0.01
477.165	-0.01
477.519	-0.01
477.872	-0
478.224	-0
478.577	-0.01
478.93	0
479.283	-0
479.636	0
479.989	0
480.341	0.01
480.694	0.01
481.047	0.01
481.399	0.01
481.752	0.01
482.104	0.01
482.457	0.02
482.809	0.01
483.162	0.02
483.514	0.02
483.866	0.02
484.219	0.02
484.571	0.02
484.923	0.02
485.275	0.03
485.627	0.03
485.979	0.03
486.331	0.03
486.683	0.03
487.035	0.03
487.387	0.04
487.739	0.04
488.091	0.04
488.443	0.04
488.794	0.04
489.146	0.04
489.498	0.04
489.849	0.04
490.201	0.04
490.552	0.04
490.904	0.04
491.255	0.04
491.607	0.04
491.958	0.04
492.309	0.04
492.661	0.04
493.012	0.04
493.363	0.05
493.714	0.05
494.065	0.05
494.416	0.04
494.767	0.05
495.118	0.05
495.469	0.05
495.82	0.05
496.171	0.06
496.522	0.05
496.872	0.06
497.223	0.06
497.574	0.06
497.924	0.06
498.275	0.06
498.626	0.06
498.976	0.06
499.327	0.07
499.677	0.06
500.027	0.07
500.378	0.07
500.728	0.07
501.078	0.07
501.428	0.07
501.779	0.07
502.129	0.07
502.479	0.07
502.829	0.07
503.179	0.07
503.529	0.07
503.879	0.07
504.229	0.07
504.578	0.07
504.928	0.07
505.278	0.08
505.628	0.08
505.977	0.08
506.327	0.08
506.676	0.08
507.026	0.08
507.375	0.08
507.725	0.09
508.074	0.08
508.424	0.09
508.773	0.09
509.122	0.09
509.471	0.09
509.82	0.09
510.17	0.09
510.519	0.09
510.868	0.09
511.217	0.09
511.566	0.09
511.915	0.09
512.263	0.1
512.612	0.09
512.961	0.09
513.31	0.1
513.659	0.1
514.007	0.1
514.356	0.1
514.704	0.1
515.053	0.1
515.401	0.1
515.75	0.1
516.098	0.1
516.447	0.1
516.795	0.11
517.143	0.11
517.491	0.11
517.839	0.11
518.188	0.11
518.536	0.11
518.884	0.11
519.232	0.11
519.58	0.11
519.928	0.11
520.275	0.11
520.623	0.12
520.971	0.12
521.319	0.12
521.666	0.12
522.014	0.12
522.362	0.12
522.709	0.13
523.057	0.12
523.404	0.12
523.752	0.13
524.099	0.13
524.446	0.13
524.794	0.13
525.141	0.13
525.488	0.13
525.835	0.13
526.182	0.14
526.529	0.13
526.876	0.14
527.223	0.14
527.57	0.14
527.917	0.14
528.264	0.14
528.611	0.14
528.958	0.14
529.304	0.15
529.651	0.14
529.998	0.15
530.344	0.15
530.691	0.15
531.037	0.15
531.384	0.15
531.73	0.15
532.076	0.15
532.423	0.15
532.769	0.15
533.115	0.15
533.461	0.16
533.807	0.16
534.154	0.16
534.5	0.16
534.846	0.16
535.192	0.16
535.537	0.16
535.883	0.17
536.229	0.17
536.575	0.17
536.921	0.17
537.266	0.17
537.612	0.17
537.957	0.17
538.303	0.17
538.649	0.17
538.994	0.17
539.339	0.18
539.685	0.18
540.03	0.18
540.375	0.18
540.721	0.18
541.066	0.18
541.411	0.19
541.756	0.19
542.101	0.18
542.446	0.19
542.791	0.19
543.136	0.19
543.481	0.19
543.825	0.2
544.17	0.2
544.515	0.2
544.86	0.2
545.204	0.2
545.549	0.2
545.893	0.2
546.238	0.2
546.582	0.2
546.927	0.2
547.271	0.21
547.615	0.21
547.96	0.21
548.304	0.21
548.648	0.21
548.992	0.22
549.336	0.22
549.68	0.22
550.024	0.22
550.368	0.22
550.712	0.22
551.056	0.22
551.4	0.22
551.743	0.22
552.087	0.22
552.431	0.23
552.774	0.23
553.118	0.23
553.462	0.23
553.805	0.23
554.148	0.23
554.492	0.23
554.835	0.23
555.178	0.23
555.522	0.24
555.865	0.23
556.208	0.23
556.551	0.24
556.894	0.24
557.237	0.24
557.58	0.24
557.923	0.24
558.266	0.24
558.609	0.24
558.952	0.24
559.294	0.25
559.637	0.25
559.98	0.25
560.322	0.25
560.665	0.25
561.007	0.25
561.35	0.25
561.692	0.25
562.034	0.25
562.377	0.25
562.719	0.25
563.061	0.25
563.403	0.25
563.745	0.25
564.088	0.26
564.43	0.26
564.772	0.26
565.113	0.26
565.455	0.25
565.797	0.26
566.139	0.26
566.481	0.26
566.822	0.26
567.164	0.26
567.506	0.26
567.847	0.26
568.189	0.26
568.53	0.26
568.872	0.26
569.213	0.26
569.554	0.26
569.895	0.26
570.237	0.26
570.578	0.26
570.919	0.26
571.26	0.26
571.601	0.26
571.942	0.26
572.283	0.26
572.624	0.26
572.965	0.26
573.306	0.26
573.646	0.26
573.987	0.26
574.328	0.26
574.668	0.26
575.009	0.26
575.349	0.26
575.69	0.26
576.03	0.26
576.37	0.26
576.711	0.25
577.051	0.26
577.391	0.26
577.731	0.26
578.072	0.26
578.412	0.26
578.752	0.26
579.092	0.26
579.431	0.26
579.771	0.25
580.111	0.25
580.451	0.25
580.791	0.26
581.13	0.26
581.47	0.26
581.81	0.26
582.149	0.26
582.489	0.27
582.828	0.26
583.167	0.25
583.507	0.23
583.846	0.21
584.185	0.23
584.525	0.25
584.864	0.26
585.203	0.27
585.542	0.27
585.881	0.27
586.22	0.28
586.559	0.27
586.898	0.27
587.236	0.27
587.575	0.27
587.914	0.27
588.252	0.28
588.591	0.28
588.93	0.28
589.268	0.28
589.607	0.28
589.945	0.28
590.283	0.28
590.622	0.28
590.96	0.29
591.298	0.29
591.636	0.29
591.974	0.29
592.313	0.3
592.651	0.3
592.989	0.3
593.326	0.3
593.664	0.3
594.002	0.3
594.34	0.3
594.678	0.3
595.015	0.3
595.353	0.3
595.691	0.3
596.028	0.3
596.366	0.31
596.703	0.31
597.04	0.31
597.378	0.31
597.715	0.32
598.052	0.32
598.389	0.32
598.726	0.32
599.064	0.32
599.401	0.32
599.738	0.32
600.074	0.32
600.411	0.32
600.748	0.32
601.085	0.32
601.422	0.31
601.758	0.32
602.095	0.32
602.432	0.32
602.768	0.32
603.105	0.32
603.441	0.32
603.777	0.32
604.114	0.33
604.45	0.33
604.786	0.33
605.122	0.33
605.459	0.33
605.795	0.32
606.131	0.33
606.467	0.32
606.803	0.33
607.139	0.33
607.474	0.32
607.81	0.32
608.146	0.32
608.482	0.32
608.817	0.32
609.153	0.32
609.488	0.32
609.824	0.32
610.159	0.32
610.495	0.32
610.83	0.32
611.165	0.32
611.5	0.32
611.836	0.32
612.171	0.32
612.506	0.32
612.841	0.32
613.176	0.32
613.511	0.32
613.845	0.31
614.18	0.31
614.515	0.31
614.85	0.31
615.184	0.31
615.519	0.31
615.854	0.31
616.188	0.31
616.523	0.3
616.857	0.31
617.191	0.3
617.526	0.3
617.86	0.3
618.194	0.3
618.528	0.3
618.862	0.3
619.196	0.3
619.53	0.3
619.864	0.3
620.198	0.3
620.532	0.3
620.866	0.3
621.2	0.29
621.533	0.29
621.867	0.29
622.201	0.29
622.534	0.29
622.868	0.29
623.201	0.29
623.534	0.29
623.868	0.29
624.201	0.28
624.534	0.28
624.868	0.28
625.201	0.28
625.534	0.28
625.867	0.28
626.2	0.28
626.533	0.28
626.865	0.27
627.198	0.27
627.531	0.27
627.864	0.28
628.196	0.27
628.529	0.27
628.862	0.27
629.194	0.27
629.527	0.27
629.859	0.26
630.191	0.26
630.524	0.26
630.856	0.26
631.188	0.26
631.52	0.25
631.852	0.25
632.184	0.25
632.516	0.25
632.848	0.25
633.18	0.25
633.512	0.25
633.844	0.24
634.175	0.24
634.507	0.24
634.839	0.23
635.17	0.24
635.502	0.24
635.833	0.23
636.165	0.23
636.496	0.23
636.827	0.23
637.159	0.23
637.49	0.23
637.821	0.22
638.152	0.22
638.483	0.22
638.814	0.22
639.145	0.22
639.476	0.22
639.807	0.21
640.137	0.21
640.468	0.21
640.799	0.21
641.129	0.21
641.46	0.2
641.791	0.2
642.121	0.2
642.451	0.2
642.782	0.2
643.112	0.19
643.442	0.19
643.773	0.19
644.103	0.19
644.433	0.19
644.763	0.19
645.093	0.19
645.423	0.19
645.753	0.19
646.082	0.19
646.412	0.19
646.742	0.19
647.072	0.19
647.401	0.19
647.731	0.18
648.06	0.18
648.39	0.18
648.719	0.18
649.048	0.18
649.378	0.18
649.707	0.18
650.036	0.18
650.365	0.18
650.694	0.17
651.023	0.17
651.352	0.17
651.681	0.17
652.01	0.18
652.339	0.17
652.668	0.17
652.996	0.17
653.325	0.17
653.654	0.17
653.982	0.17
654.311	0.17
654.639	0.17
654.967	0.17
655.296	0.17
655.624	0.17
655.952	0.17
656.28	0.17
656.609	0.17
656.937	0.17
657.265	0.17
657.593	0.14
657.92	0.02
658.248	0
658.576	0
658.904	0.05
659.231	0.13
659.559	0.17
659.887	0.17
660.214	0.17
660.542	0.17
660.869	0.17
661.196	0.17
661.524	0.17
661.851	0.17
662.178	0.17
662.505	0.17
662.832	0.16
663.159	0.16
663.486	0.16
663.813	0.16
664.14	0.17
664.467	0.16
664.794	0.16
665.12	0.17
665.447	0.17
665.774	0.16
666.1	0.16
666.427	0.16
666.753	0.16
667.079	0.16
667.406	0.16
667.732	0.16
668.058	0.16
668.384	0.16
668.71	0.16
669.036	0.16
669.362	0.16
669.688	0.16
670.014	0.16
670.34	0.16
670.666	0.16
670.991	0.16
671.317	0.16
671.643	0.15
671.968	0.16
672.294	0.15
672.619	0.15
672.945	0.15
673.27	0.15
673.595	0.15
673.92	0.15
674.246	0.15
674.571	0.15
674.896	0.15
675.221	0.15
675.546	0.15
675.87	0.14
676.195	0.14
676.52	0.14
676.845	0.14
677.169	0.14
677.494	0.14
677.819	0.14
678.143	0.14
678.468	0.13
678.792	0.14
679.116	0.14
679.44	0.13
679.765	0.13
680.089	0.13
680.413	0.13
680.737	0.13
681.061	0.13
681.385	0.13
681.709	0.12
682.033	0.12
682.356	0.12
682.68	0.12
683.004	0.12
683.327	0.12
683.651	0.11
683.974	0.11
684.298	0.11
684.621	0.11
684.944	0.11
685.268	0.11
685.591	0.11
685.914	0.11
686.237	0.11
686.56	0.11
686.883	0.1
687.206	0.1
687.529	0.1
687.852	0.1
688.175	0.1
688.497	0.1
688.82	0.1
689.142	0.1
689.465	0.1
689.787	0.09
690.11	0.1
690.432	0.09
690.755	0.09
691.077	0.09
691.399	0.09
691.721	0.09
692.043	0.09
692.365	0.09
692.687	0.08
693.009	0.08
693.331	0.08
693.653	0.08
693.974	0.08
694.296	0.08
694.618	0.08
694.939	0.08
695.261	0.08
695.582	0.08
695.904	0.08
696.225	0.08
696.546	0.08
696.868	0.07
697.189	0.07
697.51	0.07
697.831	0.07
698.152	0.07
698.473	0.07
698.794	0.07
699.114	0.07
699.435	0.07
699.756	0.07
700.077	0.07
700.397	0.06
700.718	0.06
701.038	0.06
701.359	0.06
701.679	0.06
701.999	0.06
702.32	0.06
702.64	0.06
702.96	0.07
703.28	0.06
703.6	0.06
703.92	0.06
704.24	0.06
704.56	0.06
704.879	0.06
705.199	0.06
705.519	0.06
705.838	0.06
706.158	0.06
706.478	0.06
706.797	0.06
707.116	0.06
707.436	0.06
707.755	0.06
708.074	0.06
708.393	0.06
708.712	0.06
709.031	0.05
709.35	0.05
709.669	0.05
709.988	0.05
710.307	0.05
710.626	0.05
710.944	0.05
711.263	0.05
711.582	0.05
711.9	0.05
712.219	0.05
712.537	0.06
712.855	0.05
713.174	0.05
713.492	0.05
713.81	0.05
714.128	0.05
714.446	0.05
714.764	0.05
715.082	0.05
715.4	0.05
715.718	0.05
716.035	0.05
716.353	0.05
716.671	0.05
716.988	0.05
717.306	0.05
717.623	0.05
717.941	0.05
718.258	0.05
718.575	0.05
718.893	0.06
719.21	0.05
719.527	0.05
719.844	0.06
720.161	0.05
720.478	0.05
720.795	0.05
721.112	0.05
721.428	0.05
721.745	0.05
722.062	0.05
722.378	0.05
722.695	0.06
723.011	0.06
723.328	0.06
723.644	0.06
723.96	0.05
724.276	0.06
724.593	0.06
724.909	0.06
725.225	0.06
725.541	0.06
725.857	0.06
726.173	0.06
726.488	0.06
726.804	0.06
727.12	0.06
727.435	0.06
727.751	0.06
728.067	0.06
728.382	0.06
728.697	0.06
729.013	0.06
729.328	0.06
729.643	0.06
729.958	0.06
730.273	0.06
730.588	0.06
730.903	0.06
731.218	0.06
731.533	0.06
731.848	0.06
732.163	0.07
732.477	0.06
732.792	0.06
733.107	0.06
733.421	0.06
733.736	0.06
734.05	0.06
734.364	0.06
734.678	0.07
734.993	0.06
735.307	0.06
735.621	0.06
735.935	0.06
736.249	0.06
736.563	0.06
736.877	0.06
737.19	0.06
737.504	0.06
737.818	0.06
738.131	0.06
738.445	0.06
738.758	0.06
739.072	0.06
739.385	0.06
739.698	0.06
740.012	0.06
740.325	0.06
740.638	0.06
740.951	0.06
741.264	0.06
741.577	0.06
741.89	0.06
742.203	0.06
742.515	0.06
742.828	0.06
743.141	0.06
743.453	0.06
743.766	0.06
744.078	0.06
744.391	0.06
744.703	0.06
745.015	0.06
745.327	0.06
745.639	0.06
745.952	0.06
746.264	0.05
746.575	0.06
746.887	0.06
747.199	0.05
747.511	0.05
747.823	0.05
748.134	0.05
748.446	0.05
748.757	0.05
749.069	0.05
749.38	0.05
749.692	0.05
750.003	0.05
750.314	0.05
750.625	0.05
750.936	0.04
751.248	0.04
751.559	0.05
751.869	0.04
752.18	0.04
752.491	0.04
752.802	0.04
753.112	0.04
753.423	0.04
753.734	0.04
754.044	0.04
754.355	0.04
754.665	0.04
754.975	0.04
755.285	0.03
755.596	0.03
755.906	0.03
756.216	0.03
756.526	0.03
756.836	0.03
757.146	0.03
757.455	0.03
757.765	0.03
758.075	0.03
758.385	0.03
758.694	0.03
759.004	0.03
759.313	0.03
759.622	0.02
759.932	0.03
760.241	0.03
760.55	0.03
760.859	0.03
761.168	0.03
761.477	0.03
761.786	0.03
762.095	0.03
762.404	0.03
762.713	0.02
763.021	0.02
763.33	0.02
763.639	0.02
763.947	0.02
764.256	0.02
764.564	0.02
764.872	0.02
765.181	0.02
765.489	0.02
765.797	0.02
766.105	0.02
766.413	0.02
766.721	0.02
767.029	0.02
767.337	0.02
767.644	0.02
767.952	0.02
768.26	0.02
768.567	0.02
768.875	0.02
769.182	0.02
769.49	0.02
769.797	0.02
770.104	0.02
770.411	0.02
770.718	0.02
771.026	0.02
771.333	0.02
771.639	0.02
771.946	0.01
772.253	0.02
772.56	0.02
772.867	0.02
773.173	0.01
773.48	0.01
773.786	0.02
774.093	0.01
774.399	0.01
774.705	0.01
775.012	0.01
775.318	0.01
775.624	0.01
775.93	0.01
776.236	0.01
776.542	0.01
776.848	0.01
777.154	0.01
777.459	0.01
777.765	0.01
778.071	0.01
778.376	0.01
778.682	0.01
778.987	0.01
779.292	0.01
779.598	0.01
779.903	0.01
780.208	0.01
780.513	0.01
780.818	0.01
781.123	0.01
781.428	0.02
781.733	0.01
782.038	0.01
782.343	0.01
782.647	0.01
782.952	0.01
783.256	0.01
783.561	0.02
783.865	0.01
784.17	0.02
784.474	0.02
784.778	0.01
785.082	0.01
785.386	0.01
785.69	0.02
785.994	0.02
786.298	0.01
786.602	0.02
786.906	0.01
787.209	0.01
787.513	0.01
787.817	0.01
788.12	0.01
788.424	0.01
788.727	0.01
789.03	0.01
789.333	0.01
789.637	0.02
789.94	0.01
790.243	0.02
790.546	0.02
790.849	0.01
791.152	0.01
791.454	0.02
791.757	0.02
792.06	0.02
792.362	0.02
792.665	0.01
792.967	0.01
793.27	0.01
793.572	0.01
793.874	0.01
794.177	0.01
794.479	0.01
794.781	0.01
795.083	0.02
795.385	0.01
795.687	0.02
795.989	0.01
796.29	0.02
796.592	0.02
796.894	0.02
797.195	0.01
797.497	0.01
797.798	0.01
798.1	0.01
798.401	0.02
798.702	0.01
799.003	0.01
799.304	0.01
799.605	0.01
799.906	0.01
800.207	0.01
800.508	0.01
800.809	0.01
801.11	0.01
801.41	0.02
801.711	0.02
802.011	0.02
802.312	0.02
802.612	0.02
802.913	0.02
803.213	0.02
803.513	0.02
803.813	0.02
804.113	0.02
804.413	0.02
804.713	0.02
805.013	0.02
805.313	0.02
805.613	0.02
805.912	0.02
806.212	0.02
806.511	0.02
806.811	0.02
807.11	0.02
807.41	0.02
807.709	0.02
808.008	0.02
808.307	0.02
808.606	0.02
808.905	0.02
809.204	0.02
809.503	0.02
809.802	0.01
810.101	0.02
810.399	0.01
810.698	0.01
810.997	0.01
811.295	0.01
811.593	0.01
811.892	0.01
812.19	0.01
812.488	0.01
812.786	0.02
813.084	0.02
813.383	0.01
813.68	0.01
813.978	0.01
814.276	0.01
814.574	0.01
814.872	0.01
815.169	0.01
815.467	0.01
815.764	0.01
816.062	0.02
816.359	0.02
816.656	0.01
816.954	0.02
817.251	0.01
817.548	0.01
817.845	0.01
818.142	0.02
818.439	0.02
818.735	0.02
819.032	0.01
819.329	0.01
819.626	0.01
819.922	0.02
820.219	0.02
820.515	0.01
820.811	0.01
821.108	0.01
821.404	0.01
821.7	0.01
821.996	0.01
822.292	0.01
822.588	0.01
822.884	0.01
823.18	0.01
823.475	0.01
823.771	0.01
824.067	0.01
824.362	0.02
824.658	0.02
824.953	0.02
825.249	0.02
825.544	0.02
825.839	0.02
826.134	0.02
826.429	0.02
826.724	0.02
827.019	0.02
827.314	0.01
827.609	0.01
827.904	0.02
828.198	0.01
828.493	0.01
828.787	0.01
829.082	0.01
829.376	0.01
829.671	0.01
829.965	0.01
830.259	0.01
830.553	0.02
830.847	0.02
831.141	0.01
831.435	0.01
831.729	0.01
832.023	0.02
832.317	0.01
832.61	0.01
832.904	0.01
833.197	0.01
833.491	0.01
833.784	0.01
834.077	0.01
834.371	0.02
834.664	0.02
834.957	0.01
835.25	0.01
835.543	0.01
835.836	0.02
836.129	0.01
836.421	0.02
836.714	0.02
837.007	0.01
837.299	0.02
837.592	0.02
837.884	0.02
838.177	0.02
838.469	0.02
838.761	0.02
839.053	0.02
839.345	0.02
839.637	0.02
839.929	0.02
840.221	0.02
840.513	0.03
840.805	0.02
841.096	0.02
841.388	0.01
841.68	0.01
841.971	0.02
842.262	0.02
842.554	0.02
842.845	0.02
843.136	0.01
843.427	0.02
843.718	0.02
844.009	0.01
844.3	0.01
844.591	0.02
844.882	0.01
845.173	0.01
845.463	0.01
845.754	0.02
846.044	0.01
846.335	0.01
846.625	0.02
846.915	0.02
847.206	0.01
847.496	0.03
847.786	0.02
848.076	0.02
848.366	0.02
848.656	0.03
848.945	0.02
849.235	0.03
849.525	0.02
849.814	0.02
850.104	0.02
850.393	0.02
850.683	0.01
850.972	0.02
851.261	0.02
851.551	0.02
851.84	0.01
852.129	0.02
852.418	0.01
852.707	0
852.995	0.02
853.284	0.01
853.573	0.02
853.862	0.01
854.15	-0.01
854.439	0
854.727	0.02
855.015	-0
855.304	0
855.592	0.01
855.88	0.02
856.168	0.02
856.456	0.01
856.744	0.01
857.032	0.02
857.32	0.03
857.607	0.02
857.895	0.02
858.183	0.01
858.47	0.01
858.757	0.01
859.045	0.03
859.332	0.03
859.619	0.01
859.907	0.01
860.194	0.01
860.481	0.02
860.768	0.01
861.054	0.02
861.341	0.01
861.628	0.03
861.915	0.02
862.201	0.02
862.488	0.02
862.774	0
863.061	-0.01
863.347	0
863.633	0.02
863.919	0.03
864.205	0.01
864.491	0.01
864.777	0.02
865.063	0.03
865.349	-0
865.635	-0.01
865.92	0.01
866.206	0.02
866.492	0.03
866.777	0.01
867.062	-0.02
867.348	-0
867.633	0
867.918	-0.01
868.203	0.02
868.488	0.03
868.773	0.03
869.058	0.01
869.343	0.01
869.628	0.04
869.912	0.02
870.197	0.02
870.482	0.03
870.766	0.04
871.05	0.02
871.335	-0.01
871.619	0.05
871.903	-0.02
872.187	0.03
872.471	0.02
872.755	-0.01
873.039	0.01
873.323	-0.03
873.607	0
873.89	0
874.174	0.05
874.458	0.01
874.741	-0.01
875.024	-0.02
875.308	-0.01
875.591	-0.02
875.874	0.01
876.157	0.01
876.44	0.03
876.723	0.05
877.006	0.04
877.289	0.06
877.572	0.07
877.854	0.02
878.137	0.11
878.42	0.04
878.702	0.02
878.984	-0.07
879.267	0.05
879.549	0.13
879.831	0.02
880.113	0.04
880.395	0
880.677	0.08
880.959	-0.04
