Data from Rubpy_EV_1500_EDTA_Buffered_Absorbance_15-06-08-039.txt Node
Date: Tue Jun 30 15:06:08 BST 2026
User: fpm-admin
Spectrometer: OFX00224
Trigger mode: 0
Integration Time (sec): 7.000000E-2
Scans to average: 3
Nonlinearity correction enabled: false
Boxcar width: 0
Storing dark spectrum: false
XAxis mode: Wavelengths
Number of Pixels in Spectrum: 2136
>>>>>Begin Spectral Data<<<<<
154.91	0.74
155.289	-0.23
155.669	0.18
156.048	-0.38
156.428	-0.46
156.807	0.39
157.186	-0
157.566	0.02
157.945	-0
158.325	-0
158.704	-1.4
159.083	-0
159.462	-0.6
159.842	0.3
160.221	-0
160.6	-0
160.979	0.42
161.359	0.7
161.738	-0
162.117	-0
162.496	-0
162.875	0.51
163.254	0.78
163.633	-0
164.012	0.74
164.391	-0
164.77	-0.03
165.149	0.15
165.528	-0
165.907	0.48
166.286	-0.67
166.665	-0
167.044	0.46
167.423	0.21
167.802	-0
168.181	0.14
168.559	-0.39
168.938	-0.03
169.317	-0.23
169.696	0.81
170.074	0.34
170.453	-0
170.832	-0
171.21	-0
171.589	-0
171.968	-0
172.346	-0.55
172.725	-1.2
173.103	-0.39
173.482	-0.7
173.861	-0.54
174.239	0.28
174.617	-0
174.996	-0
175.374	1.3
175.753	0.11
176.131	0.01
176.51	-0.19
176.888	-0.17
177.266	-0
177.645	-0.03
178.023	0.48
178.401	-0.19
178.779	-0.26
179.158	-0
179.536	0.36
179.914	-0
180.292	0.52
180.67	-0.05
181.048	0.43
181.427	0.08
181.805	-0.7
182.183	0.88
182.561	0.02
182.939	-0.6
183.317	-0
183.695	0.13
184.073	-0.11
184.451	0.1
184.829	-0.18
185.206	-0.21
185.584	-0
185.962	-0.3
186.34	-0
186.718	0.45
187.096	-0
187.473	-0
187.851	0.41
188.229	1.18
188.607	0.39
188.984	0.26
189.362	0.2
189.74	0.18
190.117	0.14
190.495	0.26
190.872	0.16
191.25	0.19
191.627	0.24
192.005	0.32
192.382	0.17
192.76	0.28
193.137	0.22
193.515	0.3
193.892	0.13
194.269	0.37
194.647	0.13
195.024	0.15
195.401	0.13
195.779	0.29
196.156	0.24
196.533	0.46
196.91	0.19
197.288	0.14
197.665	0.21
198.042	0.09
198.419	0.23
198.796	0.17
199.173	0.29
199.55	0.14
199.927	0.31
200.304	0.2
200.681	0.25
201.058	0.11
201.435	0.1
201.812	0.26
202.189	0.28
202.566	0.23
202.943	0.02
203.32	0.2
203.697	0.24
204.073	0.21
204.45	0.12
204.827	0.26
205.204	0.2
205.58	0.29
205.957	0.17
206.334	0.38
206.71	0.27
207.087	0.23
207.464	0.13
207.84	0.3
208.217	0.23
208.593	0.28
208.97	0.3
209.346	0.37
209.723	0.42
210.099	0.26
210.476	0.29
210.852	0.26
211.228	0.26
211.605	0.15
211.981	0.23
212.357	0.29
212.733	0.2
213.11	0.38
213.486	0.26
213.862	0.24
214.238	0.25
214.614	0.29
214.991	0.16
215.367	0.29
215.743	0.22
216.119	0.22
216.495	0.29
216.871	0.28
217.247	0.18
217.623	0.37
217.999	0.23
218.375	0.36
218.751	0.16
219.127	0.4
219.502	0.31
219.878	0.17
220.254	0.3
220.63	0.28
221.006	0.27
221.381	0.2
221.757	0.23
222.133	0.34
222.508	0.24
222.884	0.17
223.26	0.25
223.635	0.26
224.011	0.31
224.386	0.17
224.762	0.27
225.137	0.21
225.513	0.3
225.888	0.25
226.264	0.4
226.639	0.18
227.014	0.21
227.39	0.42
227.765	0.33
228.14	0.2
228.516	0.35
228.891	0.31
229.266	0.35
229.641	0.55
230.017	0.26
230.392	0.26
230.767	0.33
231.142	0.36
231.517	0.33
231.892	0.33
232.267	0.24
232.642	0.31
233.017	0.33
233.392	0.33
233.767	0.31
234.142	0.29
234.517	0.22
234.892	0.3
235.267	0.25
235.641	0.28
236.016	0.17
236.391	0.15
236.766	0.18
237.14	0.24
237.515	0.19
237.89	0.32
238.264	0.24
238.639	0.33
239.014	0.26
239.388	0.23
239.763	0.42
240.137	0.25
240.512	0.2
240.886	0.27
241.261	0.18
241.635	0.41
242.009	0.23
242.384	0.25
242.758	0.28
243.132	0.32
243.507	0.28
243.881	0.33
244.255	0.36
244.629	0.26
245.004	0.28
245.378	0.28
245.752	0.3
246.126	0.21
246.5	0.34
246.874	0.14
247.248	0.32
247.622	0.26
247.996	0.36
248.37	0.25
248.744	0.38
249.118	0.23
249.492	0.37
249.866	0.26
250.24	0.35
250.613	0.19
250.987	0.16
251.361	0.35
251.735	0.26
252.108	0.17
252.482	0.22
252.856	0.23
253.229	0.29
253.603	0.25
253.977	0.35
254.35	0.28
254.724	0.21
255.097	0.24
255.471	0.31
255.844	0.39
256.218	0.28
256.591	0.22
256.964	0.26
257.338	0.32
257.711	0.25
258.084	0.26
258.458	0.41
258.831	0.22
259.204	0.2
259.577	0.31
259.95	0.25
260.323	0.27
260.697	0.3
261.07	0.26
261.443	0.3
261.816	0.21
262.189	0.29
262.562	0.27
262.935	0.21
263.308	0.32
263.68	0.34
264.053	0.28
264.426	0.25
264.799	0.27
265.172	0.31
265.545	0.29
265.917	0.29
266.29	0.25
266.663	0.44
267.035	0.25
267.408	0.28
267.781	0.27
268.153	0.23
268.526	0.4
268.898	0.31
269.271	0.31
269.643	0.24
270.016	0.23
270.388	0.24
270.76	0.21
271.133	0.24
271.505	0.25
271.877	0.33
272.25	0.27
272.622	0.32
272.994	0.35
273.366	0.33
273.739	0.36
274.111	0.19
274.483	0.29
274.855	0.28
275.227	0.23
275.599	0.26
275.971	0.36
276.343	0.25
276.715	0.26
277.087	0.22
277.459	0.27
277.831	0.32
278.203	0.32
278.574	0.29
278.946	0.22
279.318	0.29
279.69	0.27
280.061	0.23
280.433	0.33
280.805	0.33
281.176	0.29
281.548	0.31
281.92	0.36
282.291	0.16
282.663	0.36
283.034	0.32
283.406	0.22
283.777	0.37
284.148	0.23
284.52	0.35
284.891	0.26
285.262	0.28
285.634	0.25
286.005	0.22
286.376	0.3
286.747	0.24
287.119	0.27
287.49	0.15
287.861	0.27
288.232	0.18
288.603	0.26
288.974	0.26
289.345	0.21
289.716	0.31
290.087	0.24
290.458	0.24
290.829	0.32
291.2	0.27
291.571	0.29
291.941	0.21
292.312	0.31
292.683	0.33
293.054	0.28
293.424	0.22
293.795	0.32
294.166	0.29
294.536	0.28
294.907	0.31
295.277	0.28
295.648	0.28
296.018	0.31
296.389	0.22
296.759	0.27
297.13	0.31
297.5	0.24
297.871	0.3
298.241	0.26
298.611	0.23
298.981	0.26
299.352	0.2
299.722	0.2
300.092	0.2
300.462	0.25
300.832	0.27
301.202	0.24
301.573	0.24
301.943	0.23
302.313	0.22
302.683	0.23
303.053	0.22
303.422	0.21
303.792	0.2
304.162	0.23
304.532	0.23
304.902	0.23
305.272	0.22
305.641	0.21
306.011	0.22
306.381	0.21
306.75	0.23
307.12	0.22
307.49	0.23
307.859	0.23
308.229	0.22
308.598	0.24
308.968	0.24
309.337	0.23
309.707	0.24
310.076	0.24
310.445	0.24
310.815	0.24
311.184	0.25
311.553	0.26
311.923	0.25
312.292	0.26
312.661	0.26
313.03	0.25
313.399	0.26
313.768	0.26
314.137	0.26
314.506	0.26
314.875	0.26
315.244	0.26
315.613	0.26
315.982	0.25
316.351	0.25
316.72	0.25
317.089	0.24
317.458	0.24
317.826	0.25
318.195	0.24
318.564	0.24
318.933	0.23
319.301	0.23
319.67	0.24
320.038	0.23
320.407	0.23
320.775	0.23
321.144	0.23
321.512	0.22
321.881	0.23
322.249	0.22
322.618	0.23
322.986	0.22
323.354	0.21
323.723	0.22
324.091	0.21
324.459	0.21
324.827	0.21
325.195	0.21
325.564	0.21
325.932	0.21
326.3	0.21
326.668	0.2
327.036	0.2
327.404	0.21
327.772	0.2
328.14	0.21
328.508	0.21
328.875	0.2
329.243	0.21
329.611	0.21
329.979	0.22
330.346	0.21
330.714	0.22
331.082	0.21
331.449	0.21
331.817	0.22
332.185	0.22
332.552	0.22
332.92	0.23
333.287	0.23
333.655	0.23
334.022	0.23
334.389	0.23
334.757	0.24
335.124	0.24
335.491	0.24
335.859	0.24
336.226	0.25
336.593	0.25
336.96	0.25
337.327	0.26
337.695	0.26
338.062	0.26
338.429	0.27
338.796	0.27
339.163	0.27
339.53	0.28
339.897	0.28
340.263	0.28
340.63	0.29
340.997	0.29
341.364	0.3
341.731	0.31
342.097	0.31
342.464	0.32
342.831	0.32
343.197	0.33
343.564	0.33
343.931	0.33
344.297	0.34
344.664	0.34
345.03	0.35
345.396	0.36
345.763	0.36
346.129	0.37
346.496	0.37
346.862	0.38
347.228	0.38
347.594	0.38
347.961	0.38
348.327	0.4
348.693	0.41
349.059	0.4
349.425	0.42
349.791	0.42
350.157	0.43
350.523	0.44
350.889	0.45
351.255	0.46
351.621	0.46
351.987	0.47
352.353	0.49
352.719	0.48
353.084	0.5
353.45	0.51
353.816	0.52
354.181	0.53
354.547	0.54
354.913	0.55
355.278	0.56
355.644	0.57
356.009	0.59
356.375	0.59
356.74	0.61
357.106	0.62
357.471	0.63
357.836	0.65
358.202	0.66
358.567	0.66
358.932	0.68
359.297	0.69
359.663	0.7
360.028	0.71
360.393	0.72
360.758	0.73
361.123	0.74
361.488	0.74
361.853	0.76
362.218	0.76
362.583	0.78
362.948	0.79
363.312	0.79
363.677	0.8
364.042	0.82
364.407	0.82
364.772	0.84
365.136	0.86
365.501	0.87
365.865	0.88
366.23	0.91
366.595	0.91
366.959	0.94
367.324	0.96
367.688	0.96
368.052	0.98
368.417	0.99
368.781	1.01
369.145	1.01
369.51	1.02
369.874	1.03
370.238	1.02
370.602	1.04
370.967	1.03
371.331	1.03
371.695	1.02
372.059	1.03
372.423	1.02
372.787	1
373.151	1.02
373.515	1
373.878	1
374.242	1
374.606	1
374.97	0.99
375.334	1
375.697	1
376.061	1.01
376.425	1.01
376.788	1.02
377.152	1.02
377.515	1.04
377.879	1.05
378.242	1.06
378.606	1.07
378.969	1.08
379.333	1.09
379.696	1.1
380.059	1.11
380.422	1.13
380.786	1.14
381.149	1.18
381.512	1.19
381.875	1.21
382.238	1.25
382.601	1.25
382.964	1.29
383.327	1.31
383.69	1.34
384.053	1.37
384.416	1.4
384.779	1.44
385.142	1.46
385.504	1.48
385.867	1.52
386.23	1.51
386.593	1.53
386.955	1.52
387.318	1.54
387.68	1.51
388.043	1.52
388.405	1.53
388.768	1.54
389.13	1.51
389.493	1.49
389.855	1.49
390.217	1.46
390.58	1.47
390.942	1.48
391.304	1.5
391.666	1.48
392.028	1.52
392.391	1.54
392.753	1.56
393.115	1.61
393.477	1.67
393.839	1.68
394.201	1.76
394.563	1.78
394.924	1.86
395.286	1.89
395.648	1.93
396.01	1.9
396.371	1.98
396.733	1.96
397.095	2.05
397.456	1.99
397.818	1.96
398.18	1.96
398.541	1.97
398.903	1.94
399.264	1.92
399.625	1.87
399.987	1.89
400.348	1.78
400.709	1.76
401.071	1.67
401.432	1.58
401.793	1.51
402.154	1.43
402.515	1.34
402.876	1.25
403.238	1.18
403.599	1.11
403.96	1.03
404.32	0.95
404.681	0.89
405.042	0.83
405.403	0.77
405.764	0.72
406.125	0.67
406.485	0.63
406.846	0.6
407.207	0.55
407.567	0.51
407.928	0.48
408.288	0.46
408.649	0.44
409.009	0.41
409.37	0.39
409.73	0.37
410.091	0.35
410.451	0.34
410.811	0.32
411.171	0.31
411.532	0.29
411.892	0.28
412.252	0.27
412.612	0.26
412.972	0.26
413.332	0.24
413.692	0.23
414.052	0.23
414.412	0.22
414.772	0.21
415.132	0.2
415.492	0.2
415.851	0.19
416.211	0.18
416.571	0.19
416.931	0.18
417.29	0.17
417.65	0.17
418.009	0.16
418.369	0.17
418.728	0.16
419.088	0.16
419.447	0.15
419.807	0.15
420.166	0.15
420.525	0.14
420.884	0.14
421.244	0.14
421.603	0.14
421.962	0.13
422.321	0.13
422.68	0.13
423.039	0.13
423.398	0.13
423.757	0.14
424.116	0.12
424.475	0.12
424.834	0.12
425.193	0.11
425.551	0.11
425.91	0.11
426.269	0.11
426.628	0.11
426.986	0.11
427.345	0.11
427.703	0.12
428.062	0.11
428.42	0.1
428.779	0.11
429.137	0.11
429.496	0.1
429.854	0.1
430.212	0.11
430.57	0.1
430.929	0.1
431.287	0.1
431.645	0.1
432.003	0.09
432.361	0.09
432.719	0.1
433.077	0.09
433.435	0.09
433.793	0.09
434.151	0.09
434.509	0.09
434.866	0.09
435.224	0.09
435.582	0.08
435.94	0.09
436.297	0.09
436.655	0.09
437.012	0.09
437.37	0.09
437.727	0.08
438.085	0.09
438.442	0.08
438.8	0.07
439.157	0.07
439.514	0.09
439.872	0.07
440.229	0.08
440.586	0.08
440.943	0.07
441.3	0.08
441.657	0.07
442.014	0.07
442.371	0.08
442.728	0.07
443.085	0.07
443.442	0.08
443.799	0.07
444.156	0.06
444.513	0.07
444.869	0.07
445.226	0.07
445.583	0.06
445.939	0.07
446.296	0.06
446.652	0.06
447.009	0.06
447.365	0.05
447.722	0.06
448.078	0.06
448.434	0.06
448.791	0.06
449.147	0.06
449.503	0.06
449.859	0.06
450.215	0.06
450.571	0.06
450.928	0.06
451.284	0.05
451.64	0.05
451.995	0.06
452.351	0.05
452.707	0.05
453.063	0.05
453.419	0.05
453.775	0.04
454.13	0.04
454.486	0.05
454.842	0.04
455.197	0.04
455.553	0.03
455.908	0.04
456.264	0.03
456.619	0.03
456.975	0.03
457.33	0.03
457.685	0.03
458.04	0.02
458.396	0.03
458.751	0.03
459.106	0.02
459.461	0.02
459.816	0.02
460.171	0.01
460.526	0.01
460.881	0.01
461.236	0
461.591	0.01
461.946	-0
462.301	-0
462.655	0
463.01	0.01
463.365	-0
463.719	-0
464.074	-0.01
464.428	-0.02
464.783	-0.01
465.137	-0.02
465.492	-0.02
465.846	-0.01
466.201	-0.01
466.555	-0.01
466.909	-0.01
467.263	-0.01
467.618	-0.01
467.972	-0.01
468.326	-0.02
468.68	-0.02
469.034	-0.02
469.388	-0.02
469.742	-0.01
470.096	-0.02
470.45	-0.01
470.804	-0.01
471.157	-0.01
471.511	-0.01
471.865	-0.01
472.218	-0.01
472.572	-0.01
472.926	-0
473.279	-0
473.633	0
473.986	0.01
474.34	0.01
474.693	0.01
475.046	0.02
475.4	0.02
475.753	0.02
476.106	0.03
476.459	0.03
476.812	0.04
477.165	0.04
477.519	0.04
477.872	0.04
478.224	0.05
478.577	0.05
478.93	0.06
479.283	0.06
479.636	0.06
479.989	0.06
480.341	0.07
480.694	0.06
481.047	0.07
481.399	0.07
481.752	0.08
482.104	0.08
482.457	0.09
482.809	0.08
483.162	0.08
483.514	0.08
483.866	0.09
484.219	0.09
484.571	0.09
484.923	0.09
485.275	0.1
485.627	0.1
485.979	0.1
486.331	0.1
486.683	0.11
487.035	0.11
487.387	0.11
487.739	0.11
488.091	0.11
488.443	0.11
488.794	0.11
489.146	0.12
489.498	0.12
489.849	0.11
490.201	0.12
490.552	0.12
490.904	0.12
491.255	0.12
491.607	0.12
491.958	0.13
492.309	0.13
492.661	0.13
493.012	0.13
493.363	0.13
493.714	0.14
494.065	0.14
494.416	0.14
494.767	0.14
495.118	0.15
495.469	0.15
495.82	0.15
496.171	0.15
496.522	0.16
496.872	0.15
497.223	0.15
497.574	0.16
497.924	0.16
498.275	0.16
498.626	0.16
498.976	0.16
499.327	0.16
499.677	0.17
500.027	0.18
500.378	0.18
500.728	0.18
501.078	0.18
501.428	0.18
501.779	0.18
502.129	0.19
502.479	0.19
502.829	0.2
503.179	0.19
503.529	0.19
503.879	0.19
504.229	0.2
504.578	0.2
504.928	0.2
505.278	0.2
505.628	0.21
505.977	0.21
506.327	0.21
506.676	0.21
507.026	0.22
507.375	0.21
507.725	0.22
508.074	0.22
508.424	0.22
508.773	0.22
509.122	0.23
509.471	0.23
509.82	0.23
510.17	0.24
510.519	0.23
510.868	0.23
511.217	0.24
511.566	0.24
511.915	0.24
512.263	0.24
512.612	0.24
512.961	0.24
513.31	0.25
513.659	0.25
514.007	0.25
514.356	0.26
514.704	0.27
515.053	0.26
515.401	0.26
515.75	0.27
516.098	0.27
516.447	0.27
516.795	0.27
517.143	0.27
517.491	0.27
517.839	0.28
518.188	0.28
518.536	0.28
518.884	0.29
519.232	0.28
519.58	0.29
519.928	0.29
520.275	0.29
520.623	0.3
520.971	0.31
521.319	0.3
521.666	0.3
522.014	0.3
522.362	0.31
522.709	0.31
523.057	0.31
523.404	0.31
523.752	0.31
524.099	0.32
524.446	0.32
524.794	0.32
525.141	0.33
525.488	0.33
525.835	0.33
526.182	0.33
526.529	0.34
526.876	0.33
527.223	0.34
527.57	0.34
527.917	0.34
528.264	0.34
528.611	0.34
528.958	0.35
529.304	0.35
529.651	0.35
529.998	0.36
530.344	0.36
530.691	0.37
531.037	0.37
531.384	0.37
531.73	0.37
532.076	0.37
532.423	0.37
532.769	0.37
533.115	0.38
533.461	0.38
533.807	0.38
534.154	0.38
534.5	0.39
534.846	0.4
535.192	0.39
535.537	0.4
535.883	0.4
536.229	0.41
536.575	0.41
536.921	0.41
537.266	0.41
537.612	0.42
537.957	0.42
538.303	0.42
538.649	0.42
538.994	0.42
539.339	0.43
539.685	0.44
540.03	0.44
540.375	0.44
540.721	0.44
541.066	0.45
541.411	0.45
541.756	0.45
542.101	0.45
542.446	0.46
542.791	0.46
543.136	0.46
543.481	0.46
543.825	0.47
544.17	0.48
544.515	0.48
544.86	0.48
545.204	0.48
545.549	0.49
545.893	0.49
546.238	0.49
546.582	0.5
546.927	0.5
547.271	0.51
547.615	0.5
547.96	0.51
548.304	0.51
548.648	0.52
548.992	0.51
549.336	0.52
549.68	0.52
550.024	0.53
550.368	0.53
550.712	0.53
551.056	0.53
551.4	0.54
551.743	0.54
552.087	0.54
552.431	0.54
552.774	0.55
553.118	0.55
553.462	0.55
553.805	0.56
554.148	0.56
554.492	0.55
554.835	0.56
555.178	0.56
555.522	0.56
555.865	0.57
556.208	0.57
556.551	0.57
556.894	0.58
557.237	0.57
557.58	0.58
557.923	0.57
558.266	0.58
558.609	0.58
558.952	0.58
559.294	0.59
559.637	0.59
559.98	0.59
560.322	0.59
560.665	0.59
561.007	0.59
561.35	0.59
561.692	0.6
562.034	0.6
562.377	0.6
562.719	0.6
563.061	0.6
563.403	0.6
563.745	0.6
564.088	0.6
564.43	0.6
564.772	0.6
565.113	0.6
565.455	0.61
565.797	0.61
566.139	0.61
566.481	0.61
566.822	0.62
567.164	0.62
567.506	0.62
567.847	0.62
568.189	0.61
568.53	0.62
568.872	0.62
569.213	0.62
569.554	0.63
569.895	0.62
570.237	0.62
570.578	0.62
570.919	0.62
571.26	0.62
571.601	0.63
571.942	0.62
572.283	0.62
572.624	0.62
572.965	0.62
573.306	0.63
573.646	0.62
573.987	0.62
574.328	0.62
574.668	0.62
575.009	0.63
575.349	0.63
575.69	0.62
576.03	0.63
576.37	0.62
576.711	0.62
577.051	0.62
577.391	0.63
577.731	0.63
578.072	0.63
578.412	0.63
578.752	0.63
579.092	0.63
579.431	0.63
579.771	0.62
580.111	0.61
580.451	0.62
580.791	0.62
581.13	0.64
581.47	0.63
581.81	0.64
582.149	0.64
582.489	0.64
582.828	0.64
583.167	0.63
583.507	0.6
583.846	0.59
584.185	0.6
584.525	0.63
584.864	0.64
585.203	0.65
585.542	0.66
585.881	0.66
586.22	0.66
586.559	0.66
586.898	0.65
587.236	0.65
587.575	0.65
587.914	0.65
588.252	0.66
588.591	0.68
588.93	0.67
589.268	0.67
589.607	0.68
589.945	0.68
590.283	0.68
590.622	0.68
590.96	0.69
591.298	0.69
591.636	0.69
591.974	0.7
592.313	0.71
592.651	0.7
592.989	0.71
593.326	0.71
593.664	0.72
594.002	0.72
594.34	0.72
594.678	0.72
595.015	0.72
595.353	0.71
595.691	0.72
596.028	0.72
596.366	0.73
596.703	0.74
597.04	0.74
597.378	0.74
597.715	0.75
598.052	0.74
598.389	0.75
598.726	0.76
599.064	0.76
599.401	0.76
599.738	0.76
600.074	0.76
600.411	0.76
600.748	0.77
601.085	0.76
601.422	0.76
601.758	0.76
602.095	0.76
602.432	0.76
602.768	0.76
603.105	0.76
603.441	0.77
603.777	0.77
604.114	0.77
604.45	0.77
604.786	0.78
605.122	0.78
605.459	0.77
605.795	0.77
606.131	0.77
606.467	0.77
606.803	0.77
607.139	0.77
607.474	0.77
607.81	0.76
608.146	0.76
608.482	0.76
608.817	0.76
609.153	0.76
609.488	0.75
609.824	0.76
610.159	0.75
610.495	0.75
610.83	0.75
611.165	0.75
611.5	0.75
611.836	0.74
612.171	0.75
612.506	0.74
612.841	0.74
613.176	0.74
613.511	0.74
613.845	0.73
614.18	0.73
614.515	0.73
614.85	0.73
615.184	0.73
615.519	0.72
615.854	0.73
616.188	0.72
616.523	0.72
616.857	0.72
617.191	0.72
617.526	0.71
617.86	0.71
618.194	0.71
618.528	0.71
618.862	0.71
619.196	0.7
619.53	0.7
619.864	0.7
620.198	0.69
620.532	0.69
620.866	0.69
621.2	0.69
621.533	0.68
621.867	0.69
622.201	0.68
622.534	0.67
622.868	0.67
623.201	0.67
623.534	0.68
623.868	0.67
624.201	0.67
624.534	0.66
624.868	0.66
625.201	0.66
625.534	0.66
625.867	0.65
626.2	0.65
626.533	0.65
626.865	0.65
627.198	0.64
627.531	0.64
627.864	0.64
628.196	0.63
628.529	0.63
628.862	0.63
629.194	0.63
629.527	0.62
629.859	0.62
630.191	0.61
630.524	0.61
630.856	0.61
631.188	0.61
631.52	0.6
631.852	0.6
632.184	0.59
632.516	0.59
632.848	0.58
633.18	0.58
633.512	0.57
633.844	0.57
634.175	0.57
634.507	0.56
634.839	0.56
635.17	0.55
635.502	0.55
635.833	0.55
636.165	0.54
636.496	0.54
636.827	0.54
637.159	0.53
637.49	0.53
637.821	0.52
638.152	0.52
638.483	0.52
638.814	0.51
639.145	0.51
639.476	0.5
639.807	0.5
640.137	0.5
640.468	0.49
640.799	0.48
641.129	0.48
641.46	0.48
641.791	0.47
642.121	0.47
642.451	0.47
642.782	0.47
643.112	0.46
643.442	0.45
643.773	0.45
644.103	0.45
644.433	0.45
644.763	0.45
645.093	0.44
645.423	0.44
645.753	0.43
646.082	0.44
646.412	0.43
646.742	0.43
647.072	0.43
647.401	0.43
647.731	0.43
648.06	0.43
648.39	0.43
648.719	0.42
649.048	0.42
649.378	0.42
649.707	0.42
650.036	0.41
650.365	0.42
650.694	0.41
651.023	0.41
651.352	0.41
651.681	0.41
652.01	0.41
652.339	0.41
652.668	0.41
652.996	0.41
653.325	0.41
653.654	0.4
653.982	0.41
654.311	0.4
654.639	0.4
654.967	0.41
655.296	0.41
655.624	0.4
655.952	0.4
656.28	0.4
656.609	0.4
656.937	0.41
657.265	0.41
657.593	0.38
657.92	0.24
658.248	0.18
658.576	0.16
658.904	0.25
659.231	0.35
659.559	0.39
659.887	0.39
660.214	0.4
660.542	0.4
660.869	0.4
661.196	0.39
661.524	0.4
661.851	0.4
662.178	0.39
662.505	0.39
662.832	0.39
663.159	0.39
663.486	0.39
663.813	0.39
664.14	0.39
664.467	0.39
664.794	0.39
665.12	0.39
665.447	0.38
665.774	0.39
666.1	0.38
666.427	0.38
666.753	0.38
667.079	0.38
667.406	0.38
667.732	0.38
668.058	0.38
668.384	0.38
668.71	0.38
669.036	0.38
669.362	0.37
669.688	0.37
670.014	0.37
670.34	0.37
670.666	0.37
670.991	0.37
671.317	0.36
671.643	0.36
671.968	0.36
672.294	0.36
672.619	0.36
672.945	0.35
673.27	0.36
673.595	0.35
673.92	0.35
674.246	0.35
674.571	0.34
674.896	0.34
675.221	0.34
675.546	0.34
675.87	0.34
676.195	0.33
676.52	0.33
676.845	0.33
677.169	0.32
677.494	0.33
677.819	0.32
678.143	0.32
678.468	0.32
678.792	0.31
679.116	0.31
679.44	0.31
679.765	0.31
680.089	0.31
680.413	0.3
680.737	0.3
681.061	0.3
681.385	0.29
681.709	0.29
682.033	0.28
682.356	0.28
682.68	0.27
683.004	0.28
683.327	0.27
683.651	0.27
683.974	0.27
684.298	0.27
684.621	0.26
684.944	0.26
685.268	0.26
685.591	0.25
685.914	0.25
686.237	0.25
686.56	0.25
686.883	0.24
687.206	0.24
687.529	0.23
687.852	0.23
688.175	0.23
688.497	0.23
688.82	0.23
689.142	0.23
689.465	0.22
689.787	0.22
690.11	0.22
690.432	0.21
690.755	0.21
691.077	0.21
691.399	0.21
691.721	0.21
692.043	0.2
692.365	0.2
692.687	0.2
693.009	0.2
693.331	0.2
693.653	0.19
693.974	0.19
694.296	0.19
694.618	0.19
694.939	0.19
695.261	0.18
695.582	0.18
695.904	0.18
696.225	0.18
696.546	0.18
696.868	0.17
697.189	0.17
697.51	0.17
697.831	0.17
698.152	0.17
698.473	0.17
698.794	0.16
699.114	0.16
699.435	0.16
699.756	0.15
700.077	0.15
700.397	0.16
700.718	0.15
701.038	0.15
701.359	0.15
701.679	0.15
701.999	0.15
702.32	0.15
702.64	0.15
702.96	0.15
703.28	0.15
703.6	0.15
703.92	0.14
704.24	0.14
704.56	0.14
704.879	0.14
705.199	0.14
705.519	0.14
705.838	0.14
706.158	0.14
706.478	0.13
706.797	0.13
707.116	0.13
707.436	0.13
707.755	0.13
708.074	0.14
708.393	0.14
708.712	0.13
709.031	0.13
709.35	0.13
709.669	0.12
709.988	0.12
710.307	0.12
710.626	0.13
710.944	0.12
711.263	0.12
711.582	0.12
711.9	0.12
712.219	0.12
712.537	0.12
712.855	0.12
713.174	0.12
713.492	0.12
713.81	0.12
714.128	0.12
714.446	0.12
714.764	0.12
715.082	0.12
715.4	0.12
715.718	0.12
716.035	0.12
716.353	0.12
716.671	0.12
716.988	0.12
717.306	0.12
717.623	0.12
717.941	0.13
718.258	0.13
718.575	0.13
718.893	0.13
719.21	0.13
719.527	0.13
719.844	0.13
720.161	0.13
720.478	0.13
720.795	0.13
721.112	0.13
721.428	0.13
721.745	0.13
722.062	0.13
722.378	0.13
722.695	0.13
723.011	0.13
723.328	0.13
723.644	0.14
723.96	0.13
724.276	0.13
724.593	0.13
724.909	0.14
725.225	0.14
725.541	0.14
725.857	0.14
726.173	0.14
726.488	0.14
726.804	0.14
727.12	0.14
727.435	0.14
727.751	0.14
728.067	0.14
728.382	0.14
728.697	0.14
729.013	0.14
729.328	0.14
729.643	0.15
729.958	0.14
730.273	0.14
730.588	0.14
730.903	0.14
731.218	0.14
731.533	0.15
731.848	0.15
732.163	0.15
732.477	0.15
732.792	0.14
733.107	0.14
733.421	0.14
733.736	0.14
734.05	0.14
734.364	0.15
734.678	0.15
734.993	0.14
735.307	0.15
735.621	0.14
735.935	0.14
736.249	0.14
736.563	0.14
736.877	0.14
737.19	0.14
737.504	0.14
737.818	0.14
738.131	0.14
738.445	0.14
738.758	0.14
739.072	0.13
739.385	0.13
739.698	0.13
740.012	0.13
740.325	0.13
740.638	0.13
740.951	0.13
741.264	0.13
741.577	0.13
741.89	0.13
742.203	0.13
742.515	0.13
742.828	0.13
743.141	0.13
743.453	0.13
743.766	0.13
744.078	0.13
744.391	0.13
744.703	0.12
745.015	0.12
745.327	0.12
745.639	0.12
745.952	0.12
746.264	0.12
746.575	0.12
746.887	0.12
747.199	0.12
747.511	0.11
747.823	0.11
748.134	0.11
748.446	0.11
748.757	0.11
749.069	0.11
749.38	0.11
749.692	0.11
750.003	0.1
750.314	0.1
750.625	0.1
750.936	0.1
751.248	0.1
751.559	0.1
751.869	0.1
752.18	0.09
752.491	0.09
752.802	0.09
753.112	0.09
753.423	0.09
753.734	0.09
754.044	0.09
754.355	0.09
754.665	0.08
754.975	0.08
755.285	0.08
755.596	0.08
755.906	0.08
756.216	0.07
756.526	0.07
756.836	0.07
757.146	0.07
757.455	0.07
757.765	0.07
758.075	0.07
758.385	0.07
758.694	0.07
759.004	0.07
759.313	0.07
759.622	0.06
759.932	0.07
760.241	0.07
760.55	0.06
760.859	0.06
761.168	0.07
761.477	0.06
761.786	0.06
762.095	0.06
762.404	0.06
762.713	0.06
763.021	0.06
763.33	0.05
763.639	0.05
763.947	0.05
764.256	0.05
764.564	0.05
764.872	0.05
765.181	0.05
765.489	0.05
765.797	0.05
766.105	0.05
766.413	0.05
766.721	0.05
767.029	0.05
767.337	0.05
767.644	0.05
767.952	0.05
768.26	0.05
768.567	0.05
768.875	0.05
769.182	0.04
769.49	0.04
769.797	0.04
770.104	0.04
770.411	0.04
770.718	0.04
771.026	0.04
771.333	0.03
771.639	0.04
771.946	0.04
772.253	0.04
772.56	0.04
772.867	0.04
773.173	0.04
773.48	0.04
773.786	0.04
774.093	0.04
774.399	0.03
774.705	0.03
775.012	0.03
775.318	0.03
775.624	0.03
775.93	0.03
776.236	0.04
776.542	0.04
776.848	0.03
777.154	0.04
777.459	0.03
777.765	0.04
778.071	0.03
778.376	0.03
778.682	0.03
778.987	0.03
779.292	0.03
779.598	0.04
779.903	0.03
780.208	0.04
780.513	0.03
780.818	0.03
781.123	0.03
781.428	0.03
781.733	0.03
782.038	0.03
782.343	0.03
782.647	0.03
782.952	0.03
783.256	0.03
783.561	0.04
783.865	0.03
784.17	0.04
784.474	0.04
784.778	0.03
785.082	0.03
785.386	0.03
785.69	0.03
785.994	0.03
786.298	0.03
786.602	0.03
786.906	0.03
787.209	0.03
787.513	0.03
787.817	0.03
788.12	0.03
788.424	0.03
788.727	0.03
789.03	0.03
789.333	0.03
789.637	0.04
789.94	0.03
790.243	0.03
790.546	0.03
790.849	0.03
791.152	0.03
791.454	0.03
791.757	0.04
792.06	0.04
792.362	0.03
792.665	0.03
792.967	0.03
793.27	0.03
793.572	0.03
793.874	0.03
794.177	0.03
794.479	0.03
794.781	0.03
795.083	0.03
795.385	0.03
795.687	0.03
795.989	0.03
796.29	0.03
796.592	0.03
796.894	0.03
797.195	0.03
797.497	0.03
797.798	0.03
798.1	0.03
798.401	0.03
798.702	0.03
799.003	0.03
799.304	0.03
799.605	0.03
799.906	0.03
800.207	0.03
800.508	0.03
800.809	0.03
801.11	0.03
801.41	0.03
801.711	0.03
802.011	0.03
802.312	0.03
802.612	0.03
802.913	0.04
803.213	0.04
803.513	0.04
803.813	0.04
804.113	0.04
804.413	0.04
804.713	0.04
805.013	0.04
805.313	0.04
805.613	0.04
805.912	0.04
806.212	0.04
806.511	0.03
806.811	0.04
807.11	0.04
807.41	0.04
807.709	0.04
808.008	0.04
808.307	0.03
808.606	0.03
808.905	0.03
809.204	0.03
809.503	0.03
809.802	0.03
810.101	0.03
810.399	0.02
810.698	0.02
810.997	0.03
811.295	0.03
811.593	0.03
811.892	0.03
812.19	0.03
812.488	0.04
812.786	0.03
813.084	0.03
813.383	0.03
813.68	0.03
813.978	0.03
814.276	0.02
814.574	0.02
814.872	0.02
815.169	0.02
815.467	0.02
815.764	0.03
816.062	0.03
816.359	0.03
816.656	0.03
816.954	0.02
817.251	0.02
817.548	0.02
817.845	0.02
818.142	0.03
818.439	0.02
818.735	0.03
819.032	0.03
819.329	0.03
819.626	0.03
819.922	0.03
820.219	0.03
820.515	0.03
820.811	0.03
821.108	0.03
821.404	0.02
821.7	0.02
821.996	0.02
822.292	0.02
822.588	0.03
822.884	0.03
823.18	0.03
823.475	0.03
823.771	0.03
824.067	0.03
824.362	0.03
824.658	0.04
824.953	0.04
825.249	0.04
825.544	0.04
825.839	0.04
826.134	0.04
826.429	0.04
826.724	0.04
827.019	0.03
827.314	0.03
827.609	0.03
827.904	0.03
828.198	0.03
828.493	0.03
828.787	0.03
829.082	0.03
829.376	0.03
829.671	0.03
829.965	0.03
830.259	0.02
830.553	0.03
830.847	0.03
831.141	0.03
831.435	0.03
831.729	0.03
832.023	0.04
832.317	0.03
832.61	0.03
832.904	0.03
833.197	0.03
833.491	0.04
833.784	0.03
834.077	0.03
834.371	0.04
834.664	0.04
834.957	0.03
835.25	0.03
835.543	0.03
835.836	0.04
836.129	0.04
836.421	0.04
836.714	0.04
837.007	0.03
837.299	0.04
837.592	0.04
837.884	0.04
838.177	0.04
838.469	0.03
838.761	0.03
839.053	0.03
839.345	0.04
839.637	0.04
839.929	0.03
840.221	0.04
840.513	0.04
840.805	0.04
841.096	0.04
841.388	0.03
841.68	0.04
841.971	0.03
842.262	0.03
842.554	0.04
842.845	0.03
843.136	0.02
843.427	0.03
843.718	0.04
844.009	0.03
844.3	0.03
844.591	0.04
844.882	0.03
845.173	0.03
845.463	0.03
845.754	0.03
846.044	0.03
846.335	0.02
846.625	0.04
846.915	0.04
847.206	0.04
847.496	0.04
847.786	0.04
848.076	0.04
848.366	0.04
848.656	0.04
848.945	0.04
849.235	0.04
849.525	0.04
849.814	0.03
850.104	0.03
850.393	0.04
850.683	0.03
850.972	0.04
851.261	0.04
851.551	0.05
851.84	0.03
852.129	0.03
852.418	0.03
852.707	0.02
852.995	0.04
853.284	0.02
853.573	0.02
853.862	0.03
854.15	0.02
854.439	0.03
854.727	0.03
855.015	0.03
855.304	0.03
855.592	0.03
855.88	0.04
856.168	0.03
856.456	0.03
856.744	0.03
857.032	0.04
857.32	0.05
857.607	0.04
857.895	0.04
858.183	0.06
858.47	0.02
858.757	0.03
859.045	0.05
859.332	0.03
859.619	0.03
859.907	0.03
860.194	0.03
860.481	0.02
860.768	0.02
861.054	0.03
861.341	0.05
861.628	0.04
861.915	0.03
862.201	0.04
862.488	0.04
862.774	0.03
863.061	0.01
863.347	0.02
863.633	0.05
863.919	0.05
864.205	0.06
864.491	0.06
864.777	0.05
865.063	0.03
865.349	0.04
865.635	0.01
865.92	0.03
866.206	0.03
866.492	0.03
866.777	0.03
867.062	0.02
867.348	0.02
867.633	0.01
867.918	0.01
868.203	0.03
868.488	0.02
868.773	0.05
869.058	0.01
869.343	0.02
869.628	0.01
869.912	0.03
870.197	-0
870.482	0.03
870.766	0.06
871.05	0.06
871.335	0.04
871.619	0.05
871.903	0.04
872.187	0.04
872.471	0.04
872.755	0.02
873.039	0.1
873.323	0.03
873.607	0.05
873.89	0.01
874.174	0.04
874.458	-0.01
874.741	0.03
875.024	0.01
875.308	-0.05
875.591	0.04
875.874	-0
876.157	0.04
876.44	-0.01
876.723	0.06
877.006	0.05
877.289	0.07
877.572	0.01
877.854	0.09
878.137	0.08
878.42	0.06
878.702	0.06
878.984	0
879.267	0
879.549	0.09
879.831	0.04
880.113	0.05
880.395	0.12
880.677	0.09
880.959	0.04
