Data from Rubpy_EV_1500_EDTA_Buffered_Absorbance_15-01-51-027.txt Node
Date: Tue Jun 30 15:01:51 BST 2026
User: fpm-admin
Spectrometer: OFX00224
Trigger mode: 0
Integration Time (sec): 7.000000E-2
Scans to average: 3
Nonlinearity correction enabled: false
Boxcar width: 0
Storing dark spectrum: false
XAxis mode: Wavelengths
Number of Pixels in Spectrum: 2136
>>>>>Begin Spectral Data<<<<<
154.91	0.43
155.289	0.24
155.669	0.54
156.048	-0
156.428	0.05
156.807	-0
157.186	-0.11
157.566	-0.09
157.945	-0
158.325	-1.08
158.704	-0.9
159.083	-0.02
159.462	-0.85
159.842	0.3
160.221	-0.54
160.6	-0
160.979	0.85
161.359	-0.63
161.738	-0
162.117	-0.05
162.496	-0
162.875	-0.38
163.254	-0
163.633	0.04
164.012	0.44
164.391	0.73
164.77	0.22
165.149	-0
165.528	-0
165.907	-0
166.286	-0.59
166.665	-0
167.044	0.07
167.423	0.58
167.802	-0
168.181	0.28
168.559	-0.26
168.938	0.12
169.317	0.85
169.696	0.16
170.074	-0.17
170.453	-0
170.832	-0
171.21	-0
171.589	-0
171.968	-0.28
172.346	0.85
172.725	-0
173.103	0.87
173.482	-0.99
173.861	-0.42
174.239	-0.08
174.617	-0
174.996	-0
175.374	0.22
175.753	0.34
176.131	0.51
176.51	0.1
176.888	0.17
177.266	-0
177.645	-0.05
178.023	0.32
178.401	-0.26
178.779	-0.14
179.158	0.39
179.536	-0
179.914	-0.41
180.292	0.33
180.67	-0.21
181.048	-0.33
181.427	0.16
181.805	-0.42
182.183	-0
182.561	-0.08
182.939	-0.7
183.317	-0.89
183.695	0.05
184.073	-0.35
184.451	-0
184.829	-0.22
185.206	-0.04
185.584	0.48
185.962	-0.56
186.34	0.1
186.718	0.33
187.096	-1.4
187.473	0.95
187.851	0.38
188.229	-0.12
188.607	0.22
188.984	0.17
189.362	0.21
189.74	0.18
190.117	0.2
190.495	0.11
190.872	0.21
191.25	0.13
191.627	0.13
192.005	0.21
192.382	0.26
192.76	0.18
193.137	0.12
193.515	0.17
193.892	0.16
194.269	0.27
194.647	0.14
195.024	0.17
195.401	0.17
195.779	0.24
196.156	0.25
196.533	0.37
196.91	0.2
197.288	0.09
197.665	0.29
198.042	0.21
198.419	0.17
198.796	0.15
199.173	0.16
199.55	0.13
199.927	0.24
200.304	0.14
200.681	0.24
201.058	0.23
201.435	0.17
201.812	0.13
202.189	0.33
202.566	0.27
202.943	0.06
203.32	0.15
203.697	0.27
204.073	0.24
204.45	0.09
204.827	0.25
205.204	0.15
205.58	0.25
205.957	0.17
206.334	0.17
206.71	0.2
207.087	0.17
207.464	0.21
207.84	0.19
208.217	0.2
208.593	0.2
208.97	0.22
209.346	0.19
209.723	0.19
210.099	0.17
210.476	0.21
210.852	0.16
211.228	0.11
211.605	0.25
211.981	0.28
212.357	0.22
212.733	0.26
213.11	0.25
213.486	0.16
213.862	0.19
214.238	0.15
214.614	0.2
214.991	0.27
215.367	0.21
215.743	0.2
216.119	0.22
216.495	0.17
216.871	0.34
217.247	0.09
217.623	0.21
217.999	0.16
218.375	0.4
218.751	0.15
219.127	0.33
219.502	0.12
219.878	0.07
220.254	0.27
220.63	0.26
221.006	0.11
221.381	0.22
221.757	0.2
222.133	0.22
222.508	0.19
222.884	0.23
223.26	0.23
223.635	0.22
224.011	0.35
224.386	0.16
224.762	0.22
225.137	0.14
225.513	0.19
225.888	0.18
226.264	0.26
226.639	0.17
227.014	0.19
227.39	0.22
227.765	0.29
228.14	0.15
228.516	0.29
228.891	0.29
229.266	0.31
229.641	0.46
230.017	0.19
230.392	0.23
230.767	0.22
231.142	0.27
231.517	0.19
231.892	0.19
232.267	0.22
232.642	0.19
233.017	0.24
233.392	0.38
233.767	0.27
234.142	0.17
234.517	0.13
234.892	0.19
235.267	0.15
235.641	0.18
236.016	0.14
236.391	0.13
236.766	0.14
237.14	0.25
237.515	0.28
237.89	0.28
238.264	0.2
238.639	0.35
239.014	0.27
239.388	0.14
239.763	0.24
240.137	0.19
240.512	0.18
240.886	0.27
241.261	0.19
241.635	0.28
242.009	0.12
242.384	0.3
242.758	0.18
243.132	0.24
243.507	0.23
243.881	0.18
244.255	0.18
244.629	0.16
245.004	0.18
245.378	0.17
245.752	0.2
246.126	0.21
246.5	0.22
246.874	0.27
247.248	0.16
247.622	0.29
247.996	0.25
248.37	0.23
248.744	0.21
249.118	0.1
249.492	0.32
249.866	0.17
250.24	0.21
250.613	0.11
250.987	0.08
251.361	0.19
251.735	0.19
252.108	0.17
252.482	0.18
252.856	0.23
253.229	0.16
253.603	0.34
253.977	0.22
254.35	0.1
254.724	0.18
255.097	0.21
255.471	0.24
255.844	0.26
256.218	0.24
256.591	0.17
256.964	0.29
257.338	0.33
257.711	0.22
258.084	0.22
258.458	0.26
258.831	0.18
259.204	0.25
259.577	0.23
259.95	0.23
260.323	0.26
260.697	0.15
261.07	0.21
261.443	0.2
261.816	0.16
262.189	0.2
262.562	0.22
262.935	0.22
263.308	0.27
263.68	0.18
264.053	0.33
264.426	0.19
264.799	0.21
265.172	0.27
265.545	0.41
265.917	0.23
266.29	0.18
266.663	0.3
267.035	0.2
267.408	0.17
267.781	0.3
268.153	0.25
268.526	0.26
268.898	0.19
269.271	0.26
269.643	0.21
270.016	0.16
270.388	0.2
270.76	0.13
271.133	0.2
271.505	0.21
271.877	0.21
272.25	0.19
272.622	0.29
272.994	0.14
273.366	0.25
273.739	0.22
274.111	0.16
274.483	0.18
274.855	0.23
275.227	0.23
275.599	0.19
275.971	0.34
276.343	0.21
276.715	0.15
277.087	0.22
277.459	0.28
277.831	0.19
278.203	0.24
278.574	0.22
278.946	0.39
279.318	0.13
279.69	0.15
280.061	0.12
280.433	0.24
280.805	0.2
281.176	0.22
281.548	0.21
281.92	0.21
282.291	0.23
282.663	0.29
283.034	0.31
283.406	0.21
283.777	0.25
284.148	0.16
284.52	0.3
284.891	0.19
285.262	0.19
285.634	0.18
286.005	0.2
286.376	0.12
286.747	0.14
287.119	0.22
287.49	0.14
287.861	0.2
288.232	0.19
288.603	0.19
288.974	0.19
289.345	0.13
289.716	0.22
290.087	0.2
290.458	0.23
290.829	0.17
291.2	0.21
291.571	0.25
291.941	0.19
292.312	0.21
292.683	0.25
293.054	0.23
293.424	0.15
293.795	0.31
294.166	0.18
294.536	0.21
294.907	0.19
295.277	0.21
295.648	0.22
296.018	0.17
296.389	0.23
296.759	0.2
297.13	0.2
297.5	0.19
297.871	0.23
298.241	0.23
298.611	0.14
298.981	0.18
299.352	0.23
299.722	0.23
300.092	0.14
300.462	0.18
300.832	0.18
301.202	0.18
301.573	0.19
301.943	0.2
302.313	0.16
302.683	0.14
303.053	0.18
303.422	0.16
303.792	0.15
304.162	0.16
304.532	0.17
304.902	0.17
305.272	0.17
305.641	0.15
306.011	0.17
306.381	0.16
306.75	0.16
307.12	0.18
307.49	0.18
307.859	0.17
308.229	0.17
308.598	0.18
308.968	0.17
309.337	0.17
309.707	0.18
310.076	0.18
310.445	0.18
310.815	0.19
311.184	0.17
311.553	0.18
311.923	0.18
312.292	0.18
312.661	0.19
313.03	0.19
313.399	0.19
313.768	0.19
314.137	0.19
314.506	0.18
314.875	0.19
315.244	0.18
315.613	0.18
315.982	0.19
316.351	0.19
316.72	0.18
317.089	0.18
317.458	0.18
317.826	0.18
318.195	0.17
318.564	0.17
318.933	0.17
319.301	0.17
319.67	0.17
320.038	0.17
320.407	0.16
320.775	0.16
321.144	0.16
321.512	0.16
321.881	0.16
322.249	0.16
322.618	0.16
322.986	0.16
323.354	0.15
323.723	0.15
324.091	0.16
324.459	0.15
324.827	0.15
325.195	0.15
325.564	0.15
325.932	0.15
326.3	0.15
326.668	0.15
327.036	0.15
327.404	0.16
327.772	0.15
328.14	0.15
328.508	0.15
328.875	0.14
329.243	0.15
329.611	0.15
329.979	0.15
330.346	0.15
330.714	0.15
331.082	0.15
331.449	0.15
331.817	0.16
332.185	0.16
332.552	0.16
332.92	0.16
333.287	0.16
333.655	0.16
334.022	0.16
334.389	0.17
334.757	0.17
335.124	0.17
335.491	0.17
335.859	0.17
336.226	0.18
336.593	0.18
336.96	0.18
337.327	0.18
337.695	0.19
338.062	0.19
338.429	0.19
338.796	0.19
339.163	0.2
339.53	0.2
339.897	0.2
340.263	0.2
340.63	0.21
340.997	0.21
341.364	0.21
341.731	0.22
342.097	0.22
342.464	0.23
342.831	0.23
343.197	0.23
343.564	0.24
343.931	0.24
344.297	0.25
344.664	0.25
345.03	0.25
345.396	0.26
345.763	0.26
346.129	0.26
346.496	0.26
346.862	0.27
347.228	0.27
347.594	0.28
347.961	0.28
348.327	0.29
348.693	0.29
349.059	0.29
349.425	0.3
349.791	0.3
350.157	0.31
350.523	0.32
350.889	0.32
351.255	0.33
351.621	0.34
351.987	0.34
352.353	0.35
352.719	0.35
353.084	0.36
353.45	0.36
353.816	0.37
354.181	0.38
354.547	0.39
354.913	0.4
355.278	0.4
355.644	0.41
356.009	0.42
356.375	0.43
356.74	0.44
357.106	0.45
357.471	0.46
357.836	0.47
358.202	0.48
358.567	0.48
358.932	0.49
359.297	0.5
359.663	0.51
360.028	0.52
360.393	0.52
360.758	0.53
361.123	0.53
361.488	0.54
361.853	0.55
362.218	0.55
362.583	0.56
362.948	0.57
363.312	0.57
363.677	0.58
364.042	0.59
364.407	0.6
364.772	0.61
365.136	0.62
365.501	0.64
365.865	0.64
366.23	0.67
366.595	0.68
366.959	0.69
367.324	0.7
367.688	0.71
368.052	0.72
368.417	0.73
368.781	0.75
369.145	0.75
369.51	0.75
369.874	0.75
370.238	0.76
370.602	0.77
370.967	0.76
371.331	0.75
371.695	0.75
372.059	0.76
372.423	0.74
372.787	0.74
373.151	0.74
373.515	0.74
373.878	0.73
374.242	0.73
374.606	0.72
374.97	0.73
375.334	0.74
375.697	0.74
376.061	0.75
376.425	0.74
376.788	0.75
377.152	0.76
377.515	0.76
377.879	0.78
378.242	0.78
378.606	0.78
378.969	0.79
379.333	0.8
379.696	0.81
380.059	0.82
380.422	0.84
380.786	0.86
381.149	0.87
381.512	0.88
381.875	0.91
382.238	0.92
382.601	0.94
382.964	0.97
383.327	0.98
383.69	1.01
384.053	1.04
384.416	1.07
384.779	1.08
385.142	1.1
385.504	1.12
385.867	1.15
386.23	1.15
386.593	1.16
386.955	1.16
387.318	1.16
387.68	1.17
388.043	1.16
388.405	1.15
388.768	1.16
389.13	1.13
389.493	1.13
389.855	1.12
390.217	1.11
390.58	1.1
390.942	1.11
391.304	1.14
391.666	1.15
392.028	1.15
392.391	1.17
392.753	1.2
393.115	1.24
393.477	1.28
393.839	1.32
394.201	1.38
394.563	1.42
394.924	1.47
395.286	1.53
395.648	1.56
396.01	1.59
396.371	1.64
396.733	1.65
397.095	1.66
397.456	1.69
397.818	1.64
398.18	1.65
398.541	1.64
398.903	1.62
399.264	1.57
399.625	1.56
399.987	1.51
400.348	1.44
400.709	1.38
401.071	1.32
401.432	1.23
401.793	1.17
402.154	1.09
402.515	1.02
402.876	0.96
403.238	0.88
403.599	0.83
403.96	0.76
404.32	0.71
404.681	0.67
405.042	0.62
405.403	0.58
405.764	0.54
406.125	0.5
406.485	0.47
406.846	0.45
407.207	0.41
407.567	0.39
407.928	0.36
408.288	0.34
408.649	0.33
409.009	0.3
409.37	0.29
409.73	0.28
410.091	0.27
410.451	0.25
410.811	0.24
411.171	0.23
411.532	0.21
411.892	0.21
412.252	0.2
412.612	0.19
412.972	0.19
413.332	0.18
413.692	0.17
414.052	0.16
414.412	0.16
414.772	0.16
415.132	0.16
415.492	0.15
415.851	0.15
416.211	0.14
416.571	0.14
416.931	0.13
417.29	0.13
417.65	0.12
418.009	0.12
418.369	0.12
418.728	0.12
419.088	0.11
419.447	0.11
419.807	0.11
420.166	0.11
420.525	0.11
420.884	0.1
421.244	0.1
421.603	0.1
421.962	0.1
422.321	0.1
422.68	0.1
423.039	0.1
423.398	0.09
423.757	0.1
424.116	0.1
424.475	0.09
424.834	0.09
425.193	0.08
425.551	0.08
425.91	0.08
426.269	0.08
426.628	0.08
426.986	0.08
427.345	0.08
427.703	0.08
428.062	0.08
428.42	0.08
428.779	0.08
429.137	0.08
429.496	0.08
429.854	0.07
430.212	0.09
430.57	0.07
430.929	0.07
431.287	0.08
431.645	0.07
432.003	0.07
432.361	0.07
432.719	0.07
433.077	0.07
433.435	0.07
433.793	0.06
434.151	0.06
434.509	0.06
434.866	0.07
435.224	0.06
435.582	0.07
435.94	0.07
436.297	0.07
436.655	0.07
437.012	0.07
437.37	0.07
437.727	0.06
438.085	0.06
438.442	0.06
438.8	0.06
439.157	0.05
439.514	0.06
439.872	0.04
440.229	0.06
440.586	0.05
440.943	0.05
441.3	0.05
441.657	0.05
442.014	0.05
442.371	0.06
442.728	0.06
443.085	0.05
443.442	0.06
443.799	0.06
444.156	0.05
444.513	0.05
444.869	0.05
445.226	0.05
445.583	0.05
445.939	0.04
446.296	0.04
446.652	0.05
447.009	0.04
447.365	0.04
447.722	0.05
448.078	0.04
448.434	0.04
448.791	0.04
449.147	0.04
449.503	0.04
449.859	0.03
450.215	0.05
450.571	0.05
450.928	0.04
451.284	0.03
451.64	0.03
451.995	0.03
452.351	0.03
452.707	0.03
453.063	0.03
453.419	0.03
453.775	0.02
454.13	0.03
454.486	0.03
454.842	0.02
455.197	0.03
455.553	0.01
455.908	0.02
456.264	0.01
456.619	0.02
456.975	0.02
457.33	0.01
457.685	0.01
458.04	0.01
458.396	0.01
458.751	0.01
459.106	0.01
459.461	0.01
459.816	0
460.171	-0.01
460.526	-0
460.881	-0.01
461.236	-0.01
461.591	-0.01
461.946	-0.02
462.301	-0.01
462.655	-0.01
463.01	-0.01
463.365	-0.02
463.719	-0.02
464.074	-0.03
464.428	-0.03
464.783	-0.03
465.137	-0.03
465.492	-0.04
465.846	-0.03
466.201	-0.03
466.555	-0.03
466.909	-0.03
467.263	-0.02
467.618	-0.03
467.972	-0.02
468.326	-0.03
468.68	-0.03
469.034	-0.04
469.388	-0.04
469.742	-0.03
470.096	-0.04
470.45	-0.04
470.804	-0.03
471.157	-0.03
471.511	-0.03
471.865	-0.03
472.218	-0.03
472.572	-0.03
472.926	-0.02
473.279	-0.03
473.633	-0.02
473.986	-0.01
474.34	-0.02
474.693	-0.01
475.046	-0
475.4	0
475.753	-0
476.106	0
476.459	0.01
476.812	0.02
477.165	0.02
477.519	0.02
477.872	0.02
478.224	0.02
478.577	0.02
478.93	0.04
479.283	0.03
479.636	0.03
479.989	0.03
480.341	0.04
480.694	0.04
481.047	0.04
481.399	0.04
481.752	0.05
482.104	0.05
482.457	0.06
482.809	0.05
483.162	0.05
483.514	0.05
483.866	0.05
484.219	0.06
484.571	0.06
484.923	0.06
485.275	0.07
485.627	0.07
485.979	0.07
486.331	0.07
486.683	0.07
487.035	0.07
487.387	0.08
487.739	0.08
488.091	0.07
488.443	0.08
488.794	0.08
489.146	0.08
489.498	0.08
489.849	0.08
490.201	0.08
490.552	0.08
490.904	0.09
491.255	0.09
491.607	0.08
491.958	0.09
492.309	0.09
492.661	0.09
493.012	0.09
493.363	0.1
493.714	0.1
494.065	0.09
494.416	0.1
494.767	0.09
495.118	0.1
495.469	0.1
495.82	0.1
496.171	0.11
496.522	0.11
496.872	0.1
497.223	0.11
497.574	0.11
497.924	0.11
498.275	0.12
498.626	0.12
498.976	0.12
499.327	0.12
499.677	0.12
500.027	0.12
500.378	0.12
500.728	0.13
501.078	0.13
501.428	0.12
501.779	0.13
502.129	0.13
502.479	0.13
502.829	0.14
503.179	0.14
503.529	0.14
503.879	0.14
504.229	0.14
504.578	0.14
504.928	0.14
505.278	0.14
505.628	0.15
505.977	0.15
506.327	0.15
506.676	0.15
507.026	0.15
507.375	0.15
507.725	0.15
508.074	0.15
508.424	0.16
508.773	0.16
509.122	0.16
509.471	0.16
509.82	0.17
510.17	0.17
510.519	0.17
510.868	0.17
511.217	0.17
511.566	0.17
511.915	0.17
512.263	0.17
512.612	0.18
512.961	0.18
513.31	0.18
513.659	0.18
514.007	0.18
514.356	0.19
514.704	0.19
515.053	0.19
515.401	0.19
515.75	0.19
516.098	0.19
516.447	0.2
516.795	0.2
517.143	0.2
517.491	0.2
517.839	0.2
518.188	0.2
518.536	0.2
518.884	0.2
519.232	0.2
519.58	0.21
519.928	0.21
520.275	0.21
520.623	0.21
520.971	0.22
521.319	0.22
521.666	0.22
522.014	0.22
522.362	0.22
522.709	0.22
523.057	0.22
523.404	0.22
523.752	0.23
524.099	0.23
524.446	0.23
524.794	0.23
525.141	0.23
525.488	0.24
525.835	0.24
526.182	0.24
526.529	0.24
526.876	0.24
527.223	0.25
527.57	0.25
527.917	0.25
528.264	0.25
528.611	0.25
528.958	0.25
529.304	0.26
529.651	0.26
529.998	0.26
530.344	0.26
530.691	0.27
531.037	0.26
531.384	0.27
531.73	0.27
532.076	0.27
532.423	0.27
532.769	0.27
533.115	0.27
533.461	0.28
533.807	0.28
534.154	0.28
534.5	0.28
534.846	0.28
535.192	0.29
535.537	0.29
535.883	0.29
536.229	0.3
536.575	0.3
536.921	0.3
537.266	0.3
537.612	0.3
537.957	0.31
538.303	0.31
538.649	0.3
538.994	0.3
539.339	0.31
539.685	0.32
540.03	0.32
540.375	0.32
540.721	0.32
541.066	0.33
541.411	0.33
541.756	0.33
542.101	0.33
542.446	0.33
542.791	0.33
543.136	0.34
543.481	0.34
543.825	0.34
544.17	0.35
544.515	0.35
544.86	0.35
545.204	0.36
545.549	0.35
545.893	0.36
546.238	0.36
546.582	0.36
546.927	0.36
547.271	0.37
547.615	0.37
547.96	0.37
548.304	0.37
548.648	0.38
548.992	0.38
549.336	0.38
549.68	0.39
550.024	0.39
550.368	0.39
550.712	0.39
551.056	0.39
551.4	0.39
551.743	0.39
552.087	0.39
552.431	0.39
552.774	0.4
553.118	0.4
553.462	0.41
553.805	0.41
554.148	0.41
554.492	0.41
554.835	0.41
555.178	0.41
555.522	0.41
555.865	0.41
556.208	0.42
556.551	0.41
556.894	0.42
557.237	0.42
557.58	0.42
557.923	0.42
558.266	0.42
558.609	0.42
558.952	0.42
559.294	0.43
559.637	0.43
559.98	0.43
560.322	0.43
560.665	0.43
561.007	0.43
561.35	0.44
561.692	0.44
562.034	0.44
562.377	0.44
562.719	0.44
563.061	0.44
563.403	0.44
563.745	0.44
564.088	0.44
564.43	0.44
564.772	0.45
565.113	0.45
565.455	0.45
565.797	0.45
566.139	0.45
566.481	0.45
566.822	0.45
567.164	0.45
567.506	0.45
567.847	0.46
568.189	0.45
568.53	0.46
568.872	0.46
569.213	0.46
569.554	0.46
569.895	0.46
570.237	0.45
570.578	0.46
570.919	0.46
571.26	0.46
571.601	0.46
571.942	0.46
572.283	0.46
572.624	0.46
572.965	0.46
573.306	0.46
573.646	0.46
573.987	0.46
574.328	0.46
574.668	0.46
575.009	0.46
575.349	0.46
575.69	0.46
576.03	0.46
576.37	0.46
576.711	0.45
577.051	0.46
577.391	0.46
577.731	0.46
578.072	0.46
578.412	0.46
578.752	0.46
579.092	0.46
579.431	0.46
579.771	0.45
580.111	0.45
580.451	0.45
580.791	0.46
581.13	0.46
581.47	0.46
581.81	0.47
582.149	0.46
582.489	0.47
582.828	0.47
583.167	0.46
583.507	0.43
583.846	0.41
584.185	0.43
584.525	0.46
584.864	0.46
585.203	0.47
585.542	0.48
585.881	0.48
586.22	0.49
586.559	0.48
586.898	0.48
587.236	0.47
587.575	0.47
587.914	0.48
588.252	0.48
588.591	0.49
588.93	0.5
589.268	0.49
589.607	0.5
589.945	0.5
590.283	0.5
590.622	0.5
590.96	0.51
591.298	0.51
591.636	0.51
591.974	0.51
592.313	0.52
592.651	0.52
592.989	0.52
593.326	0.52
593.664	0.53
594.002	0.53
594.34	0.53
594.678	0.53
595.015	0.53
595.353	0.52
595.691	0.53
596.028	0.54
596.366	0.54
596.703	0.54
597.04	0.54
597.378	0.55
597.715	0.55
598.052	0.55
598.389	0.55
598.726	0.56
599.064	0.56
599.401	0.56
599.738	0.56
600.074	0.56
600.411	0.56
600.748	0.56
601.085	0.56
601.422	0.56
601.758	0.55
602.095	0.56
602.432	0.56
602.768	0.56
603.105	0.56
603.441	0.57
603.777	0.57
604.114	0.57
604.45	0.57
604.786	0.57
605.122	0.57
605.459	0.57
605.795	0.57
606.131	0.57
606.467	0.56
606.803	0.57
607.139	0.57
607.474	0.56
607.81	0.56
608.146	0.56
608.482	0.56
608.817	0.56
609.153	0.56
609.488	0.56
609.824	0.55
610.159	0.56
610.495	0.55
610.83	0.55
611.165	0.55
611.5	0.56
611.836	0.55
612.171	0.55
612.506	0.55
612.841	0.55
613.176	0.55
613.511	0.54
613.845	0.54
614.18	0.54
614.515	0.54
614.85	0.54
615.184	0.54
615.519	0.53
615.854	0.53
616.188	0.53
616.523	0.53
616.857	0.53
617.191	0.53
617.526	0.52
617.86	0.52
618.194	0.52
618.528	0.52
618.862	0.52
619.196	0.52
619.53	0.52
619.864	0.52
620.198	0.51
620.532	0.52
620.866	0.51
621.2	0.5
621.533	0.5
621.867	0.51
622.201	0.5
622.534	0.5
622.868	0.5
623.201	0.5
623.534	0.5
623.868	0.5
624.201	0.49
624.534	0.49
624.868	0.49
625.201	0.49
625.534	0.49
625.867	0.48
626.2	0.48
626.533	0.48
626.865	0.48
627.198	0.48
627.531	0.48
627.864	0.47
628.196	0.47
628.529	0.46
628.862	0.46
629.194	0.46
629.527	0.46
629.859	0.46
630.191	0.45
630.524	0.45
630.856	0.45
631.188	0.45
631.52	0.44
631.852	0.44
632.184	0.44
632.516	0.44
632.848	0.43
633.18	0.43
633.512	0.43
633.844	0.42
634.175	0.42
634.507	0.42
634.839	0.41
635.17	0.41
635.502	0.41
635.833	0.4
636.165	0.4
636.496	0.4
636.827	0.4
637.159	0.39
637.49	0.39
637.821	0.39
638.152	0.39
638.483	0.38
638.814	0.38
639.145	0.37
639.476	0.37
639.807	0.37
640.137	0.37
640.468	0.36
640.799	0.36
641.129	0.36
641.46	0.35
641.791	0.35
642.121	0.35
642.451	0.34
642.782	0.34
643.112	0.34
643.442	0.33
643.773	0.33
644.103	0.33
644.433	0.33
644.763	0.33
645.093	0.33
645.423	0.32
645.753	0.32
646.082	0.32
646.412	0.32
646.742	0.32
647.072	0.32
647.401	0.32
647.731	0.32
648.06	0.32
648.39	0.31
648.719	0.32
649.048	0.31
649.378	0.31
649.707	0.3
650.036	0.31
650.365	0.31
650.694	0.3
651.023	0.31
651.352	0.3
651.681	0.3
652.01	0.31
652.339	0.3
652.668	0.3
652.996	0.3
653.325	0.3
653.654	0.3
653.982	0.3
654.311	0.3
654.639	0.3
654.967	0.3
655.296	0.3
655.624	0.3
655.952	0.3
656.28	0.29
656.609	0.29
656.937	0.3
657.265	0.3
657.593	0.27
657.92	0.13
658.248	0.08
658.576	0.07
658.904	0.15
659.231	0.25
659.559	0.28
659.887	0.29
660.214	0.29
660.542	0.29
660.869	0.29
661.196	0.29
661.524	0.29
661.851	0.29
662.178	0.29
662.505	0.29
662.832	0.29
663.159	0.28
663.486	0.28
663.813	0.28
664.14	0.29
664.467	0.29
664.794	0.28
665.12	0.28
665.447	0.28
665.774	0.29
666.1	0.28
666.427	0.28
666.753	0.28
667.079	0.28
667.406	0.28
667.732	0.28
668.058	0.28
668.384	0.28
668.71	0.28
669.036	0.27
669.362	0.28
669.688	0.27
670.014	0.27
670.34	0.27
670.666	0.27
670.991	0.27
671.317	0.27
671.643	0.26
671.968	0.26
672.294	0.27
672.619	0.26
672.945	0.26
673.27	0.26
673.595	0.26
673.92	0.26
674.246	0.26
674.571	0.25
674.896	0.25
675.221	0.25
675.546	0.25
675.87	0.25
676.195	0.24
676.52	0.24
676.845	0.24
677.169	0.24
677.494	0.24
677.819	0.24
678.143	0.23
678.468	0.23
678.792	0.23
679.116	0.23
679.44	0.23
679.765	0.23
680.089	0.23
680.413	0.22
680.737	0.22
681.061	0.22
681.385	0.22
681.709	0.21
682.033	0.21
682.356	0.2
682.68	0.2
683.004	0.2
683.327	0.2
683.651	0.19
683.974	0.2
684.298	0.19
684.621	0.19
684.944	0.19
685.268	0.19
685.591	0.19
685.914	0.19
686.237	0.18
686.56	0.18
686.883	0.18
687.206	0.17
687.529	0.17
687.852	0.17
688.175	0.17
688.497	0.17
688.82	0.17
689.142	0.17
689.465	0.16
689.787	0.16
690.11	0.16
690.432	0.16
690.755	0.16
691.077	0.15
691.399	0.15
691.721	0.15
692.043	0.15
692.365	0.15
692.687	0.15
693.009	0.14
693.331	0.14
693.653	0.14
693.974	0.14
694.296	0.14
694.618	0.14
694.939	0.14
695.261	0.13
695.582	0.13
695.904	0.13
696.225	0.13
696.546	0.13
696.868	0.13
697.189	0.12
697.51	0.12
697.831	0.12
698.152	0.12
698.473	0.12
698.794	0.12
699.114	0.12
699.435	0.11
699.756	0.11
700.077	0.11
700.397	0.11
700.718	0.11
701.038	0.11
701.359	0.11
701.679	0.11
701.999	0.11
702.32	0.11
702.64	0.11
702.96	0.11
703.28	0.11
703.6	0.11
703.92	0.1
704.24	0.11
704.56	0.1
704.879	0.1
705.199	0.1
705.519	0.1
705.838	0.1
706.158	0.1
706.478	0.1
706.797	0.1
707.116	0.1
707.436	0.1
707.755	0.1
708.074	0.1
708.393	0.1
708.712	0.1
709.031	0.1
709.35	0.09
709.669	0.09
709.988	0.09
710.307	0.09
710.626	0.09
710.944	0.09
711.263	0.09
711.582	0.09
711.9	0.09
712.219	0.09
712.537	0.09
712.855	0.09
713.174	0.09
713.492	0.09
713.81	0.09
714.128	0.09
714.446	0.09
714.764	0.09
715.082	0.08
715.4	0.08
715.718	0.09
716.035	0.08
716.353	0.08
716.671	0.09
716.988	0.09
717.306	0.09
717.623	0.09
717.941	0.09
718.258	0.09
718.575	0.09
718.893	0.1
719.21	0.1
719.527	0.09
719.844	0.1
720.161	0.09
720.478	0.09
720.795	0.1
721.112	0.1
721.428	0.09
721.745	0.09
722.062	0.1
722.378	0.1
722.695	0.1
723.011	0.1
723.328	0.1
723.644	0.1
723.96	0.1
724.276	0.1
724.593	0.1
724.909	0.1
725.225	0.1
725.541	0.1
725.857	0.1
726.173	0.1
726.488	0.1
726.804	0.1
727.12	0.1
727.435	0.1
727.751	0.1
728.067	0.11
728.382	0.11
728.697	0.1
729.013	0.1
729.328	0.1
729.643	0.11
729.958	0.11
730.273	0.1
730.588	0.1
730.903	0.1
731.218	0.11
731.533	0.11
731.848	0.11
732.163	0.11
732.477	0.11
732.792	0.1
733.107	0.1
733.421	0.1
733.736	0.11
734.05	0.11
734.364	0.11
734.678	0.11
734.993	0.11
735.307	0.11
735.621	0.1
735.935	0.1
736.249	0.1
736.563	0.1
736.877	0.1
737.19	0.1
737.504	0.1
737.818	0.1
738.131	0.1
738.445	0.1
738.758	0.1
739.072	0.1
739.385	0.1
739.698	0.1
740.012	0.1
740.325	0.1
740.638	0.1
740.951	0.1
741.264	0.1
741.577	0.09
741.89	0.1
742.203	0.1
742.515	0.1
742.828	0.1
743.141	0.1
743.453	0.1
743.766	0.1
744.078	0.1
744.391	0.09
744.703	0.09
745.015	0.09
745.327	0.09
745.639	0.09
745.952	0.09
746.264	0.09
746.575	0.09
746.887	0.09
747.199	0.09
747.511	0.09
747.823	0.08
748.134	0.08
748.446	0.08
748.757	0.08
749.069	0.08
749.38	0.08
749.692	0.08
750.003	0.08
750.314	0.08
750.625	0.08
750.936	0.07
751.248	0.07
751.559	0.07
751.869	0.07
752.18	0.07
752.491	0.07
752.802	0.07
753.112	0.07
753.423	0.06
753.734	0.06
754.044	0.06
754.355	0.06
754.665	0.06
754.975	0.06
755.285	0.05
755.596	0.06
755.906	0.05
756.216	0.05
756.526	0.05
756.836	0.05
757.146	0.05
757.455	0.05
757.765	0.05
758.075	0.05
758.385	0.05
758.694	0.05
759.004	0.05
759.313	0.05
759.622	0.05
759.932	0.05
760.241	0.05
760.55	0.05
760.859	0.05
761.168	0.05
761.477	0.04
761.786	0.04
762.095	0.04
762.404	0.04
762.713	0.04
763.021	0.04
763.33	0.04
763.639	0.04
763.947	0.03
764.256	0.03
764.564	0.03
764.872	0.03
765.181	0.03
765.489	0.03
765.797	0.03
766.105	0.03
766.413	0.03
766.721	0.03
767.029	0.03
767.337	0.03
767.644	0.04
767.952	0.03
768.26	0.03
768.567	0.03
768.875	0.04
769.182	0.03
769.49	0.03
769.797	0.03
770.104	0.03
770.411	0.02
770.718	0.03
771.026	0.02
771.333	0.03
771.639	0.03
771.946	0.03
772.253	0.03
772.56	0.03
772.867	0.02
773.173	0.03
773.48	0.03
773.786	0.02
774.093	0.02
774.399	0.02
774.705	0.02
775.012	0.02
775.318	0.02
775.624	0.02
775.93	0.02
776.236	0.02
776.542	0.03
776.848	0.02
777.154	0.02
777.459	0.02
777.765	0.03
778.071	0.02
778.376	0.02
778.682	0.02
778.987	0.02
779.292	0.02
779.598	0.02
779.903	0.02
780.208	0.02
780.513	0.02
780.818	0.02
781.123	0.02
781.428	0.02
781.733	0.02
782.038	0.02
782.343	0.03
782.647	0.02
782.952	0.02
783.256	0.02
783.561	0.03
783.865	0.03
784.17	0.03
784.474	0.03
784.778	0.03
785.082	0.02
785.386	0.02
785.69	0.03
785.994	0.03
786.298	0.02
786.602	0.02
786.906	0.02
787.209	0.02
787.513	0.02
787.817	0.02
788.12	0.02
788.424	0.02
788.727	0.02
789.03	0.03
789.333	0.02
789.637	0.03
789.94	0.02
790.243	0.03
790.546	0.03
790.849	0.02
791.152	0.02
791.454	0.03
791.757	0.02
792.06	0.03
792.362	0.03
792.665	0.02
792.967	0.02
793.27	0.02
793.572	0.02
793.874	0.02
794.177	0.02
794.479	0.02
794.781	0.02
795.083	0.02
795.385	0.02
795.687	0.02
795.989	0.02
796.29	0.02
796.592	0.02
796.894	0.02
797.195	0.02
797.497	0.02
797.798	0.02
798.1	0.02
798.401	0.02
798.702	0.02
799.003	0.02
799.304	0.02
799.605	0.02
799.906	0.02
800.207	0.02
800.508	0.02
800.809	0.02
801.11	0.02
801.41	0.02
801.711	0.03
802.011	0.03
802.312	0.03
802.612	0.02
802.913	0.03
803.213	0.03
803.513	0.03
803.813	0.03
804.113	0.03
804.413	0.03
804.713	0.03
805.013	0.03
805.313	0.03
805.613	0.03
805.912	0.03
806.212	0.03
806.511	0.03
806.811	0.03
807.11	0.03
807.41	0.03
807.709	0.03
808.008	0.03
808.307	0.02
808.606	0.02
808.905	0.02
809.204	0.02
809.503	0.02
809.802	0.02
810.101	0.02
810.399	0.02
810.698	0.02
810.997	0.02
811.295	0.02
811.593	0.02
811.892	0.02
812.19	0.02
812.488	0.03
812.786	0.02
813.084	0.02
813.383	0.02
813.68	0.02
813.978	0.02
814.276	0.01
814.574	0.02
814.872	0.01
815.169	0.02
815.467	0.02
815.764	0.02
816.062	0.02
816.359	0.02
816.656	0.02
816.954	0.01
817.251	0.01
817.548	0.01
817.845	0.01
818.142	0.02
818.439	0.02
818.735	0.02
819.032	0.02
819.329	0.02
819.626	0.02
819.922	0.02
820.219	0.02
820.515	0.02
820.811	0.02
821.108	0.02
821.404	0.02
821.7	0.01
821.996	0.02
822.292	0.01
822.588	0.02
822.884	0.01
823.18	0.01
823.475	0.02
823.771	0.02
824.067	0.02
824.362	0.02
824.658	0.03
824.953	0.03
825.249	0.03
825.544	0.03
825.839	0.03
826.134	0.04
826.429	0.02
826.724	0.03
827.019	0.02
827.314	0.02
827.609	0.02
827.904	0.02
828.198	0.02
828.493	0.02
828.787	0.02
829.082	0.02
829.376	0.02
829.671	0.01
829.965	0.02
830.259	0.01
830.553	0.02
830.847	0.02
831.141	0.02
831.435	0.02
831.729	0.02
832.023	0.03
832.317	0.02
832.61	0.03
832.904	0.02
833.197	0.02
833.491	0.02
833.784	0.02
834.077	0.02
834.371	0.03
834.664	0.02
834.957	0.03
835.25	0.02
835.543	0.02
835.836	0.03
836.129	0.02
836.421	0.03
836.714	0.02
837.007	0.03
837.299	0.03
837.592	0.03
837.884	0.03
838.177	0.03
838.469	0.02
838.761	0.03
839.053	0.02
839.345	0.03
839.637	0.03
839.929	0.03
840.221	0.03
840.513	0.03
840.805	0.02
841.096	0.03
841.388	0.02
841.68	0.02
841.971	0.03
842.262	0.02
842.554	0.02
842.845	0.02
843.136	0.02
843.427	0.03
843.718	0.02
844.009	0.01
844.3	0.02
844.591	0.03
844.882	0.01
845.173	0.03
845.463	0.02
845.754	0.03
846.044	0.02
846.335	0.01
846.625	0.03
846.915	0.02
847.206	0.02
847.496	0.02
847.786	0.03
848.076	0.02
848.366	0.02
848.656	0.03
848.945	0.02
849.235	0.03
849.525	0.03
849.814	0.02
850.104	0.03
850.393	0.03
850.683	0.03
850.972	0.03
851.261	0.03
851.551	0.02
851.84	0.02
852.129	0.02
852.418	0.01
852.707	0.02
852.995	0.03
853.284	-0
853.573	0.02
853.862	0.02
854.15	0.02
854.439	0.02
854.727	0.02
855.015	0.01
855.304	0.02
855.592	0.02
855.88	0.03
856.168	0.02
856.456	0.02
856.744	0.03
857.032	0.03
857.32	0.02
857.607	0.02
857.895	0.03
858.183	0.04
858.47	0.01
858.757	0.01
859.045	0.02
859.332	0.03
859.619	0.03
859.907	0.03
860.194	0.02
860.481	0.03
860.768	0.01
861.054	0.02
861.341	0.04
861.628	0.04
861.915	0.02
862.201	0.03
862.488	0.03
862.774	0.01
863.061	0
863.347	0.02
863.633	0
863.919	0.02
864.205	0.04
864.491	0.05
864.777	0.03
865.063	0.01
865.349	0.02
865.635	0
865.92	0
866.206	0.03
866.492	0.05
866.777	0.04
867.062	0.01
867.348	0
867.633	0.01
867.918	-0.01
868.203	0.03
868.488	0.03
868.773	0.02
869.058	0.04
869.343	0
869.628	0.03
869.912	0.02
870.197	-0
870.482	0.03
870.766	0.06
871.05	0.07
871.335	0.02
871.619	0.04
871.903	0.03
872.187	0.04
872.471	0.04
872.755	0.02
873.039	0.05
873.323	0.04
873.607	0.05
873.89	0.03
874.174	0.01
874.458	0.06
874.741	-0.01
875.024	0.02
875.308	-0.06
875.591	0.08
875.874	0.01
876.157	0.07
876.44	0.04
876.723	0.09
877.006	0.07
877.289	0.05
877.572	0.05
877.854	0.12
878.137	0.11
878.42	0.06
878.702	0.08
878.984	0.05
879.267	0.06
879.549	0.09
879.831	0.02
880.113	0.06
880.395	0.11
880.677	0.03
880.959	-0.01
