Data from Rubpy_EV_1500_EDTA_Buffered_Absorbance_14-47-50-907.txt Node
Date: Tue Jun 30 14:47:50 BST 2026
User: fpm-admin
Spectrometer: OFX00224
Trigger mode: 0
Integration Time (sec): 7.000000E-2
Scans to average: 3
Nonlinearity correction enabled: false
Boxcar width: 0
Storing dark spectrum: false
XAxis mode: Wavelengths
Number of Pixels in Spectrum: 2136
>>>>>Begin Spectral Data<<<<<
154.91	0.04
155.289	-0
155.669	-0
156.048	-0
156.428	-0.46
156.807	0.28
157.186	-0.6
157.566	0.23
157.945	-0.18
158.325	-0
158.704	-0
159.083	0.12
159.462	0.3
159.842	-0.49
160.221	-0.61
160.6	-0
160.979	-0.01
161.359	-0.49
161.738	0.51
162.117	-0.38
162.496	-0
162.875	-0
163.254	-0
163.633	0.06
164.012	0.02
164.391	0.07
164.77	0.19
165.149	-0
165.528	-0
165.907	0.13
166.286	-0.58
166.665	-0
167.044	0.3
167.423	-0.07
167.802	-0
168.181	0.26
168.559	-0.29
168.938	0.47
169.317	-0
169.696	0.72
170.074	-0
170.453	-0.54
170.832	-0.34
171.21	-0.28
171.589	-0
171.968	0.06
172.346	-0.43
172.725	-1.08
173.103	-0.04
173.482	-0
173.861	-0.12
174.239	-0
174.617	-0
174.996	-0
175.374	0.19
175.753	1.11
176.131	0.9
176.51	0.06
176.888	0.1
177.266	-0
177.645	-0.04
178.023	-0
178.401	-0.23
178.779	0.2
179.158	-0.03
179.536	-0.21
179.914	-0.69
180.292	0.63
180.67	0.08
181.048	-0
181.427	-0.14
181.805	0.06
182.183	-0
182.561	-0.01
182.939	-0
183.317	-0
183.695	-0.07
184.073	-0.18
184.451	0.42
184.829	-0
185.206	0.21
185.584	-0
185.962	-0
186.34	0.19
186.718	0.75
187.096	-1.53
187.473	-0
187.851	0.41
188.229	0.7
188.607	0.06
188.984	0.09
189.362	0.08
189.74	0.12
190.117	0.09
190.495	0.06
190.872	0.02
191.25	0.17
191.627	0.11
192.005	0.11
192.382	0.16
192.76	0.06
193.137	0.11
193.515	0.17
193.892	0.17
194.269	0.12
194.647	0.05
195.024	0.06
195.401	0.07
195.779	0.13
196.156	0.14
196.533	0.11
196.91	0.06
197.288	0.1
197.665	0.08
198.042	-0
198.419	0.09
198.796	0.05
199.173	-0.05
199.55	-0.02
199.927	0.16
200.304	0.07
200.681	0.16
201.058	0.06
201.435	0.06
201.812	0.11
202.189	0.13
202.566	0.17
202.943	0.02
203.32	0.04
203.697	0.14
204.073	0.11
204.45	0.07
204.827	0.12
205.204	0.07
205.58	0.15
205.957	0.03
206.334	0.24
206.71	0.01
207.087	0.26
207.464	0.07
207.84	0.09
208.217	0.07
208.593	0.13
208.97	0.09
209.346	0.06
209.723	0.12
210.099	0.13
210.476	0.14
210.852	0.17
211.228	0
211.605	0.14
211.981	0.09
212.357	0.15
212.733	0.11
213.11	0.17
213.486	0.11
213.862	0.15
214.238	0.08
214.614	0.09
214.991	0.17
215.367	0.14
215.743	0.09
216.119	0.07
216.495	0.08
216.871	0.12
217.247	-0.03
217.623	0.03
217.999	0.05
218.375	0.12
218.751	0.09
219.127	0.11
219.502	0.06
219.878	0.04
220.254	0.04
220.63	0.1
221.006	0.07
221.381	0.05
221.757	0.05
222.133	0.28
222.508	0.01
222.884	0.08
223.26	0.12
223.635	0.14
224.011	0.09
224.386	0.04
224.762	0.09
225.137	0.05
225.513	0.09
225.888	0.1
226.264	0.09
226.639	0.1
227.014	0.12
227.39	0.05
227.765	0.18
228.14	0.06
228.516	0.12
228.891	0.11
229.266	0.04
229.641	0.05
230.017	0.08
230.392	0.1
230.767	0.16
231.142	0.13
231.517	0.17
231.892	0.07
232.267	0.23
232.642	0.15
233.017	0.12
233.392	0.13
233.767	0.12
234.142	0.13
234.517	0.06
234.892	0.07
235.267	0.21
235.641	0.12
236.016	0.07
236.391	-0.01
236.766	0.02
237.14	0.12
237.515	0.04
237.89	0.1
238.264	0.12
238.639	0.11
239.014	0.17
239.388	0.05
239.763	0.15
240.137	0
240.512	0.03
240.886	0.01
241.261	0.09
241.635	0.22
242.009	0.12
242.384	0.15
242.758	0.12
243.132	0.12
243.507	0.11
243.881	0.1
244.255	0.12
244.629	0.07
245.004	0.11
245.378	0.11
245.752	0.05
246.126	0.03
246.5	0.09
246.874	0.15
247.248	-0.01
247.622	0.17
247.996	0.14
248.37	0.07
248.744	0.14
249.118	0.04
249.492	0.18
249.866	0.03
250.24	0.13
250.613	0.08
250.987	0.05
251.361	0.05
251.735	0.09
252.108	0.18
252.482	0.02
252.856	0.09
253.229	0.07
253.603	0.15
253.977	0.19
254.35	0.05
254.724	0.08
255.097	0.1
255.471	0.08
255.844	0.14
256.218	0.1
256.591	0.06
256.964	0.08
257.338	0.11
257.711	0.1
258.084	0.14
258.458	0.09
258.831	0.05
259.204	0.1
259.577	0.13
259.95	0.17
260.323	0.12
260.697	0.11
261.07	0.12
261.443	0.1
261.816	0.08
262.189	0.14
262.562	0.17
262.935	0.11
263.308	0.06
263.68	0.09
264.053	0.09
264.426	0.04
264.799	0.14
265.172	0.08
265.545	0.09
265.917	0.09
266.29	0.12
266.663	0.05
267.035	0.09
267.408	0.09
267.781	0.13
268.153	0.12
268.526	0.18
268.898	0.09
269.271	0.12
269.643	0.08
270.016	0.05
270.388	0.12
270.76	-0
271.133	0.1
271.505	0.09
271.877	0.09
272.25	0.11
272.622	0.09
272.994	0.06
273.366	0.14
273.739	0.14
274.111	0.09
274.483	0.1
274.855	0.13
275.227	0.09
275.599	0.11
275.971	0.14
276.343	0.11
276.715	0.02
277.087	0.12
277.459	0.09
277.831	0.11
278.203	0.1
278.574	0.15
278.946	0.13
279.318	0.09
279.69	0.06
280.061	0.11
280.433	0.13
280.805	0.15
281.176	0.18
281.548	0.09
281.92	0.13
282.291	0.09
282.663	0.11
283.034	0.16
283.406	0.08
283.777	0.17
284.148	0.02
284.52	0.18
284.891	0.1
285.262	0.09
285.634	0.13
286.005	0.13
286.376	0.05
286.747	0.09
287.119	0.15
287.49	0.05
287.861	0.09
288.232	0.06
288.603	0.14
288.974	0.14
289.345	0.08
289.716	0.14
290.087	0.1
290.458	0.12
290.829	0.1
291.2	0.08
291.571	0.09
291.941	0.06
292.312	0.1
292.683	0.14
293.054	0.11
293.424	0.03
293.795	0.1
294.166	0.1
294.536	0.11
294.907	0.08
295.277	0.11
295.648	0.11
296.018	0.14
296.389	0.06
296.759	0.1
297.13	0.12
297.5	0.09
297.871	0.08
298.241	0.07
298.611	0.09
298.981	0.1
299.352	0.12
299.722	0.12
300.092	0.11
300.462	0.11
300.832	0.11
301.202	0.09
301.573	0.11
301.943	0.1
302.313	0.08
302.683	0.06
303.053	0.09
303.422	0.06
303.792	0.07
304.162	0.06
304.532	0.08
304.902	0.08
305.272	0.07
305.641	0.06
306.011	0.08
306.381	0.08
306.75	0.08
307.12	0.08
307.49	0.07
307.859	0.08
308.229	0.07
308.598	0.08
308.968	0.07
309.337	0.08
309.707	0.08
310.076	0.07
310.445	0.08
310.815	0.08
311.184	0.08
311.553	0.08
311.923	0.08
312.292	0.08
312.661	0.09
313.03	0.09
313.399	0.09
313.768	0.09
314.137	0.08
314.506	0.09
314.875	0.08
315.244	0.08
315.613	0.08
315.982	0.08
316.351	0.08
316.72	0.08
317.089	0.08
317.458	0.08
317.826	0.09
318.195	0.08
318.564	0.08
318.933	0.08
319.301	0.07
319.67	0.08
320.038	0.08
320.407	0.07
320.775	0.07
321.144	0.07
321.512	0.07
321.881	0.07
322.249	0.07
322.618	0.08
322.986	0.07
323.354	0.07
323.723	0.07
324.091	0.07
324.459	0.06
324.827	0.06
325.195	0.06
325.564	0.06
325.932	0.06
326.3	0.06
326.668	0.06
327.036	0.06
327.404	0.07
327.772	0.07
328.14	0.06
328.508	0.06
328.875	0.06
329.243	0.06
329.611	0.07
329.979	0.07
330.346	0.07
330.714	0.06
331.082	0.06
331.449	0.06
331.817	0.07
332.185	0.07
332.552	0.07
332.92	0.07
333.287	0.07
333.655	0.07
334.022	0.07
334.389	0.07
334.757	0.07
335.124	0.07
335.491	0.07
335.859	0.07
336.226	0.07
336.593	0.07
336.96	0.07
337.327	0.07
337.695	0.07
338.062	0.08
338.429	0.08
338.796	0.08
339.163	0.08
339.53	0.09
339.897	0.08
340.263	0.09
340.63	0.09
340.997	0.09
341.364	0.09
341.731	0.1
342.097	0.1
342.464	0.1
342.831	0.1
343.197	0.1
343.564	0.1
343.931	0.1
344.297	0.1
344.664	0.11
345.03	0.1
345.396	0.11
345.763	0.11
346.129	0.11
346.496	0.11
346.862	0.11
347.228	0.12
347.594	0.12
347.961	0.12
348.327	0.12
348.693	0.12
349.059	0.12
349.425	0.13
349.791	0.13
350.157	0.13
350.523	0.13
350.889	0.14
351.255	0.14
351.621	0.14
351.987	0.14
352.353	0.15
352.719	0.15
353.084	0.15
353.45	0.15
353.816	0.16
354.181	0.16
354.547	0.17
354.913	0.17
355.278	0.17
355.644	0.17
356.009	0.18
356.375	0.19
356.74	0.19
357.106	0.19
357.471	0.2
357.836	0.2
358.202	0.2
358.567	0.21
358.932	0.21
359.297	0.22
359.663	0.22
360.028	0.22
360.393	0.22
360.758	0.23
361.123	0.23
361.488	0.23
361.853	0.24
362.218	0.24
362.583	0.24
362.948	0.25
363.312	0.25
363.677	0.26
364.042	0.25
364.407	0.26
364.772	0.27
365.136	0.27
365.501	0.28
365.865	0.28
366.23	0.29
366.595	0.3
366.959	0.3
367.324	0.3
367.688	0.32
368.052	0.32
368.417	0.32
368.781	0.34
369.145	0.33
369.51	0.34
369.874	0.34
370.238	0.34
370.602	0.34
370.967	0.34
371.331	0.34
371.695	0.34
372.059	0.34
372.423	0.34
372.787	0.33
373.151	0.33
373.515	0.33
373.878	0.33
374.242	0.33
374.606	0.33
374.97	0.33
375.334	0.33
375.697	0.33
376.061	0.33
376.425	0.33
376.788	0.34
377.152	0.34
377.515	0.35
377.879	0.35
378.242	0.36
378.606	0.36
378.969	0.37
379.333	0.37
379.696	0.37
380.059	0.38
380.422	0.39
380.786	0.4
381.149	0.4
381.512	0.41
381.875	0.41
382.238	0.43
382.601	0.44
382.964	0.45
383.327	0.46
383.69	0.47
384.053	0.49
384.416	0.5
384.779	0.51
385.142	0.52
385.504	0.53
385.867	0.54
386.23	0.54
386.593	0.55
386.955	0.55
387.318	0.55
387.68	0.55
388.043	0.55
388.405	0.54
388.768	0.54
389.13	0.53
389.493	0.53
389.855	0.52
390.217	0.52
390.58	0.53
390.942	0.52
391.304	0.54
391.666	0.54
392.028	0.55
392.391	0.55
392.753	0.57
393.115	0.6
393.477	0.62
393.839	0.63
394.201	0.67
394.563	0.69
394.924	0.72
395.286	0.75
395.648	0.77
396.01	0.8
396.371	0.82
396.733	0.84
397.095	0.86
397.456	0.86
397.818	0.85
398.18	0.85
398.541	0.84
398.903	0.82
399.264	0.8
399.625	0.77
399.987	0.74
400.348	0.71
400.709	0.68
401.071	0.64
401.432	0.6
401.793	0.55
402.154	0.52
402.515	0.48
402.876	0.45
403.238	0.41
403.599	0.39
403.96	0.37
404.32	0.34
404.681	0.31
405.042	0.29
405.403	0.27
405.764	0.24
406.125	0.23
406.485	0.22
406.846	0.2
407.207	0.19
407.567	0.18
407.928	0.16
408.288	0.16
408.649	0.15
409.009	0.14
409.37	0.14
409.73	0.13
410.091	0.12
410.451	0.11
410.811	0.11
411.171	0.11
411.532	0.1
411.892	0.1
412.252	0.09
412.612	0.09
412.972	0.09
413.332	0.08
413.692	0.08
414.052	0.08
414.412	0.07
414.772	0.07
415.132	0.07
415.492	0.07
415.851	0.07
416.211	0.06
416.571	0.06
416.931	0.06
417.29	0.06
417.65	0.05
418.009	0.05
418.369	0.05
418.728	0.06
419.088	0.05
419.447	0.05
419.807	0.05
420.166	0.05
420.525	0.05
420.884	0.05
421.244	0.05
421.603	0.05
421.962	0.05
422.321	0.05
422.68	0.04
423.039	0.05
423.398	0.05
423.757	0.05
424.116	0.05
424.475	0.04
424.834	0.04
425.193	0.03
425.551	0.04
425.91	0.04
426.269	0.04
426.628	0.04
426.986	0.03
427.345	0.04
427.703	0.04
428.062	0.04
428.42	0.04
428.779	0.03
429.137	0.03
429.496	0.03
429.854	0.03
430.212	0.04
430.57	0.03
430.929	0.03
431.287	0.03
431.645	0.04
432.003	0.02
432.361	0.03
432.719	0.03
433.077	0.03
433.435	0.03
433.793	0.03
434.151	0.02
434.509	0.03
434.866	0.03
435.224	0.02
435.582	0.03
435.94	0.03
436.297	0.03
436.655	0.02
437.012	0.03
437.37	0.03
437.727	0.03
438.085	0.02
438.442	0.03
438.8	0.02
439.157	0.02
439.514	0.02
439.872	0.02
440.229	0.03
440.586	0.03
440.943	0.02
441.3	0.03
441.657	0.02
442.014	0.03
442.371	0.03
442.728	0.03
443.085	0.02
443.442	0.02
443.799	0.02
444.156	0.02
444.513	0.02
444.869	0.02
445.226	0.01
445.583	0.02
445.939	0.02
446.296	0.01
446.652	0.01
447.009	0.02
447.365	0.01
447.722	0.01
448.078	0.01
448.434	0.02
448.791	0.01
449.147	0.01
449.503	0
449.859	0.01
450.215	0.02
450.571	0.02
450.928	0.01
451.284	0.01
451.64	0.01
451.995	0.01
452.351	-0
452.707	0.01
453.063	0
453.419	0.01
453.775	0.01
454.13	0.01
454.486	0
454.842	-0
455.197	0
455.553	-0.01
455.908	-0
456.264	-0.01
456.619	-0.02
456.975	-0.01
457.33	-0.02
457.685	-0.01
458.04	-0.01
458.396	-0.01
458.751	-0.01
459.106	-0.02
459.461	-0.02
459.816	-0.02
460.171	-0.03
460.526	-0.03
460.881	-0.04
461.236	-0.04
461.591	-0.03
461.946	-0.04
462.301	-0.04
462.655	-0.04
463.01	-0.03
463.365	-0.04
463.719	-0.04
464.074	-0.05
464.428	-0.06
464.783	-0.06
465.137	-0.06
465.492	-0.07
465.846	-0.05
466.201	-0.05
466.555	-0.05
466.909	-0.06
467.263	-0.05
467.618	-0.05
467.972	-0.06
468.326	-0.06
468.68	-0.06
469.034	-0.06
469.388	-0.06
469.742	-0.06
470.096	-0.07
470.45	-0.06
470.804	-0.06
471.157	-0.06
471.511	-0.06
471.865	-0.05
472.218	-0.06
472.572	-0.06
472.926	-0.05
473.279	-0.06
473.633	-0.05
473.986	-0.04
474.34	-0.04
474.693	-0.04
475.046	-0.04
475.4	-0.04
475.753	-0.03
476.106	-0.03
476.459	-0.03
476.812	-0.02
477.165	-0.02
477.519	-0.02
477.872	-0.02
478.224	-0.01
478.577	-0.02
478.93	-0.01
479.283	-0.01
479.636	-0.01
479.989	-0
480.341	-0
480.694	-0.01
481.047	0
481.399	0
481.752	0
482.104	0.01
482.457	0.01
482.809	0.01
483.162	0.01
483.514	0.01
483.866	0.01
484.219	0.01
484.571	0.02
484.923	0.01
485.275	0.01
485.627	0.01
485.979	0.01
486.331	0.02
486.683	0.02
487.035	0.02
487.387	0.02
487.739	0.02
488.091	0.02
488.443	0.03
488.794	0.03
489.146	0.03
489.498	0.02
489.849	0.03
490.201	0.03
490.552	0.03
490.904	0.03
491.255	0.03
491.607	0.03
491.958	0.03
492.309	0.03
492.661	0.03
493.012	0.03
493.363	0.03
493.714	0.03
494.065	0.03
494.416	0.03
494.767	0.03
495.118	0.04
495.469	0.04
495.82	0.04
496.171	0.04
496.522	0.04
496.872	0.04
497.223	0.05
497.574	0.05
497.924	0.04
498.275	0.04
498.626	0.05
498.976	0.05
499.327	0.04
499.677	0.04
500.027	0.05
500.378	0.05
500.728	0.05
501.078	0.05
501.428	0.05
501.779	0.05
502.129	0.05
502.479	0.05
502.829	0.05
503.179	0.05
503.529	0.05
503.879	0.06
504.229	0.05
504.578	0.06
504.928	0.05
505.278	0.06
505.628	0.06
505.977	0.06
506.327	0.06
506.676	0.06
507.026	0.07
507.375	0.06
507.725	0.07
508.074	0.06
508.424	0.07
508.773	0.07
509.122	0.07
509.471	0.07
509.82	0.07
510.17	0.07
510.519	0.07
510.868	0.07
511.217	0.07
511.566	0.07
511.915	0.07
512.263	0.07
512.612	0.07
512.961	0.07
513.31	0.07
513.659	0.07
514.007	0.08
514.356	0.08
514.704	0.08
515.053	0.08
515.401	0.08
515.75	0.08
516.098	0.08
516.447	0.08
516.795	0.09
517.143	0.08
517.491	0.09
517.839	0.08
518.188	0.08
518.536	0.09
518.884	0.08
519.232	0.09
519.58	0.09
519.928	0.09
520.275	0.09
520.623	0.09
520.971	0.09
521.319	0.09
521.666	0.1
522.014	0.09
522.362	0.09
522.709	0.09
523.057	0.1
523.404	0.09
523.752	0.1
524.099	0.1
524.446	0.1
524.794	0.1
525.141	0.1
525.488	0.1
525.835	0.1
526.182	0.1
526.529	0.11
526.876	0.11
527.223	0.11
527.57	0.11
527.917	0.11
528.264	0.11
528.611	0.11
528.958	0.11
529.304	0.11
529.651	0.11
529.998	0.12
530.344	0.11
530.691	0.12
531.037	0.11
531.384	0.12
531.73	0.12
532.076	0.12
532.423	0.12
532.769	0.12
533.115	0.12
533.461	0.12
533.807	0.12
534.154	0.12
534.5	0.13
534.846	0.12
535.192	0.12
535.537	0.12
535.883	0.13
536.229	0.13
536.575	0.13
536.921	0.13
537.266	0.13
537.612	0.14
537.957	0.14
538.303	0.14
538.649	0.13
538.994	0.13
539.339	0.14
539.685	0.14
540.03	0.14
540.375	0.14
540.721	0.14
541.066	0.14
541.411	0.15
541.756	0.14
542.101	0.14
542.446	0.15
542.791	0.15
543.136	0.15
543.481	0.15
543.825	0.15
544.17	0.15
544.515	0.15
544.86	0.16
545.204	0.15
545.549	0.16
545.893	0.16
546.238	0.16
546.582	0.16
546.927	0.16
547.271	0.16
547.615	0.16
547.96	0.17
548.304	0.16
548.648	0.17
548.992	0.17
549.336	0.17
549.68	0.17
550.024	0.17
550.368	0.17
550.712	0.17
551.056	0.17
551.4	0.17
551.743	0.18
552.087	0.18
552.431	0.18
552.774	0.18
553.118	0.18
553.462	0.18
553.805	0.18
554.148	0.18
554.492	0.18
554.835	0.18
555.178	0.18
555.522	0.18
555.865	0.19
556.208	0.19
556.551	0.19
556.894	0.19
557.237	0.19
557.58	0.19
557.923	0.19
558.266	0.19
558.609	0.19
558.952	0.19
559.294	0.2
559.637	0.19
559.98	0.2
560.322	0.19
560.665	0.2
561.007	0.2
561.35	0.2
561.692	0.2
562.034	0.2
562.377	0.2
562.719	0.2
563.061	0.2
563.403	0.2
563.745	0.2
564.088	0.2
564.43	0.2
564.772	0.2
565.113	0.2
565.455	0.2
565.797	0.2
566.139	0.2
566.481	0.2
566.822	0.2
567.164	0.21
567.506	0.2
567.847	0.21
568.189	0.2
568.53	0.21
568.872	0.2
569.213	0.21
569.554	0.21
569.895	0.2
570.237	0.21
570.578	0.2
570.919	0.2
571.26	0.2
571.601	0.2
571.942	0.2
572.283	0.2
572.624	0.21
572.965	0.2
573.306	0.2
573.646	0.21
573.987	0.2
574.328	0.21
574.668	0.2
575.009	0.21
575.349	0.2
575.69	0.2
576.03	0.2
576.37	0.2
576.711	0.2
577.051	0.2
577.391	0.2
577.731	0.21
578.072	0.2
578.412	0.2
578.752	0.2
579.092	0.2
579.431	0.2
579.771	0.19
580.111	0.19
580.451	0.19
580.791	0.2
581.13	0.2
581.47	0.2
581.81	0.2
582.149	0.2
582.489	0.21
582.828	0.2
583.167	0.2
583.507	0.17
583.846	0.15
584.185	0.17
584.525	0.19
584.864	0.2
585.203	0.21
585.542	0.21
585.881	0.21
586.22	0.22
586.559	0.21
586.898	0.21
587.236	0.21
587.575	0.21
587.914	0.21
588.252	0.22
588.591	0.22
588.93	0.22
589.268	0.22
589.607	0.22
589.945	0.22
590.283	0.22
590.622	0.22
590.96	0.23
591.298	0.23
591.636	0.23
591.974	0.23
592.313	0.23
592.651	0.23
592.989	0.24
593.326	0.23
593.664	0.24
594.002	0.24
594.34	0.24
594.678	0.23
595.015	0.23
595.353	0.23
595.691	0.23
596.028	0.24
596.366	0.24
596.703	0.24
597.04	0.24
597.378	0.25
597.715	0.25
598.052	0.25
598.389	0.25
598.726	0.25
599.064	0.26
599.401	0.26
599.738	0.25
600.074	0.26
600.411	0.25
600.748	0.25
601.085	0.25
601.422	0.25
601.758	0.25
602.095	0.25
602.432	0.25
602.768	0.25
603.105	0.25
603.441	0.25
603.777	0.25
604.114	0.25
604.45	0.26
604.786	0.26
605.122	0.26
605.459	0.25
605.795	0.26
606.131	0.25
606.467	0.26
606.803	0.26
607.139	0.26
607.474	0.25
607.81	0.25
608.146	0.26
608.482	0.25
608.817	0.25
609.153	0.25
609.488	0.25
609.824	0.25
610.159	0.25
610.495	0.25
610.83	0.25
611.165	0.25
611.5	0.25
611.836	0.25
612.171	0.25
612.506	0.25
612.841	0.25
613.176	0.25
613.511	0.25
613.845	0.24
614.18	0.24
614.515	0.25
614.85	0.24
615.184	0.24
615.519	0.24
615.854	0.24
616.188	0.24
616.523	0.24
616.857	0.24
617.191	0.24
617.526	0.24
617.86	0.24
618.194	0.24
618.528	0.24
618.862	0.24
619.196	0.24
619.53	0.24
619.864	0.23
620.198	0.23
620.532	0.23
620.866	0.23
621.2	0.23
621.533	0.23
621.867	0.23
622.201	0.23
622.534	0.23
622.868	0.23
623.201	0.23
623.534	0.23
623.868	0.23
624.201	0.22
624.534	0.22
624.868	0.22
625.201	0.22
625.534	0.23
625.867	0.22
626.2	0.22
626.533	0.22
626.865	0.22
627.198	0.22
627.531	0.22
627.864	0.22
628.196	0.21
628.529	0.21
628.862	0.21
629.194	0.21
629.527	0.21
629.859	0.21
630.191	0.21
630.524	0.2
630.856	0.21
631.188	0.2
631.52	0.2
631.852	0.2
632.184	0.2
632.516	0.2
632.848	0.19
633.18	0.19
633.512	0.2
633.844	0.19
634.175	0.19
634.507	0.19
634.839	0.19
635.17	0.19
635.502	0.19
635.833	0.18
636.165	0.18
636.496	0.18
636.827	0.18
637.159	0.18
637.49	0.18
637.821	0.18
638.152	0.18
638.483	0.18
638.814	0.17
639.145	0.17
639.476	0.17
639.807	0.17
640.137	0.17
640.468	0.16
640.799	0.16
641.129	0.16
641.46	0.16
641.791	0.16
642.121	0.16
642.451	0.16
642.782	0.16
643.112	0.15
643.442	0.15
643.773	0.15
644.103	0.15
644.433	0.15
644.763	0.15
645.093	0.15
645.423	0.14
645.753	0.14
646.082	0.15
646.412	0.15
646.742	0.14
647.072	0.15
647.401	0.15
647.731	0.15
648.06	0.15
648.39	0.14
648.719	0.15
649.048	0.14
649.378	0.14
649.707	0.14
650.036	0.14
650.365	0.14
650.694	0.14
651.023	0.14
651.352	0.14
651.681	0.14
652.01	0.14
652.339	0.14
652.668	0.14
652.996	0.14
653.325	0.14
653.654	0.14
653.982	0.14
654.311	0.14
654.639	0.14
654.967	0.14
655.296	0.14
655.624	0.13
655.952	0.13
656.28	0.13
656.609	0.13
656.937	0.14
657.265	0.14
657.593	0.1
657.92	0
658.248	-0
658.576	0
658.904	0.02
659.231	0.1
659.559	0.13
659.887	0.13
660.214	0.14
660.542	0.14
660.869	0.13
661.196	0.13
661.524	0.13
661.851	0.14
662.178	0.13
662.505	0.13
662.832	0.13
663.159	0.13
663.486	0.13
663.813	0.13
664.14	0.13
664.467	0.13
664.794	0.13
665.12	0.13
665.447	0.13
665.774	0.13
666.1	0.13
666.427	0.13
666.753	0.13
667.079	0.13
667.406	0.13
667.732	0.12
668.058	0.13
668.384	0.13
668.71	0.13
669.036	0.13
669.362	0.13
669.688	0.13
670.014	0.13
670.34	0.13
670.666	0.12
670.991	0.12
671.317	0.12
671.643	0.12
671.968	0.12
672.294	0.12
672.619	0.12
672.945	0.12
673.27	0.12
673.595	0.12
673.92	0.12
674.246	0.12
674.571	0.12
674.896	0.11
675.221	0.12
675.546	0.12
675.87	0.11
676.195	0.11
676.52	0.11
676.845	0.11
677.169	0.11
677.494	0.11
677.819	0.11
678.143	0.11
678.468	0.1
678.792	0.1
679.116	0.11
679.44	0.1
679.765	0.11
680.089	0.1
680.413	0.1
680.737	0.1
681.061	0.1
681.385	0.1
681.709	0.1
682.033	0.1
682.356	0.09
682.68	0.09
683.004	0.09
683.327	0.09
683.651	0.09
683.974	0.09
684.298	0.09
684.621	0.09
684.944	0.09
685.268	0.09
685.591	0.09
685.914	0.08
686.237	0.08
686.56	0.08
686.883	0.08
687.206	0.08
687.529	0.08
687.852	0.08
688.175	0.08
688.497	0.08
688.82	0.08
689.142	0.07
689.465	0.08
689.787	0.08
690.11	0.08
690.432	0.07
690.755	0.07
691.077	0.07
691.399	0.07
691.721	0.07
692.043	0.07
692.365	0.07
692.687	0.07
693.009	0.06
693.331	0.06
693.653	0.06
693.974	0.06
694.296	0.06
694.618	0.06
694.939	0.06
695.261	0.06
695.582	0.06
695.904	0.06
696.225	0.06
696.546	0.06
696.868	0.06
697.189	0.06
697.51	0.06
697.831	0.06
698.152	0.06
698.473	0.06
698.794	0.05
699.114	0.05
699.435	0.05
699.756	0.05
700.077	0.05
700.397	0.05
700.718	0.05
701.038	0.05
701.359	0.05
701.679	0.05
701.999	0.05
702.32	0.05
702.64	0.05
702.96	0.05
703.28	0.05
703.6	0.05
703.92	0.05
704.24	0.05
704.56	0.05
704.879	0.05
705.199	0.04
705.519	0.04
705.838	0.04
706.158	0.04
706.478	0.04
706.797	0.05
707.116	0.05
707.436	0.04
707.755	0.05
708.074	0.05
708.393	0.05
708.712	0.05
709.031	0.04
709.35	0.04
709.669	0.04
709.988	0.04
710.307	0.04
710.626	0.04
710.944	0.04
711.263	0.04
711.582	0.04
711.9	0.04
712.219	0.04
712.537	0.04
712.855	0.04
713.174	0.04
713.492	0.04
713.81	0.04
714.128	0.04
714.446	0.04
714.764	0.04
715.082	0.04
715.4	0.04
715.718	0.04
716.035	0.04
716.353	0.03
716.671	0.04
716.988	0.04
717.306	0.04
717.623	0.04
717.941	0.04
718.258	0.04
718.575	0.04
718.893	0.04
719.21	0.04
719.527	0.04
719.844	0.04
720.161	0.04
720.478	0.04
720.795	0.04
721.112	0.04
721.428	0.04
721.745	0.04
722.062	0.04
722.378	0.04
722.695	0.04
723.011	0.05
723.328	0.05
723.644	0.05
723.96	0.04
724.276	0.04
724.593	0.04
724.909	0.04
725.225	0.05
725.541	0.05
725.857	0.04
726.173	0.05
726.488	0.04
726.804	0.05
727.12	0.05
727.435	0.05
727.751	0.05
728.067	0.05
728.382	0.05
728.697	0.05
729.013	0.05
729.328	0.05
729.643	0.05
729.958	0.05
730.273	0.05
730.588	0.05
730.903	0.05
731.218	0.05
731.533	0.05
731.848	0.05
732.163	0.05
732.477	0.05
732.792	0.05
733.107	0.05
733.421	0.05
733.736	0.05
734.05	0.05
734.364	0.05
734.678	0.05
734.993	0.05
735.307	0.05
735.621	0.05
735.935	0.05
736.249	0.05
736.563	0.05
736.877	0.05
737.19	0.05
737.504	0.05
737.818	0.05
738.131	0.04
738.445	0.04
738.758	0.04
739.072	0.04
739.385	0.04
739.698	0.04
740.012	0.05
740.325	0.04
740.638	0.04
740.951	0.04
741.264	0.04
741.577	0.04
741.89	0.05
742.203	0.04
742.515	0.05
742.828	0.05
743.141	0.05
743.453	0.05
743.766	0.05
744.078	0.05
744.391	0.05
744.703	0.05
745.015	0.04
745.327	0.05
745.639	0.04
745.952	0.04
746.264	0.04
746.575	0.05
746.887	0.05
747.199	0.04
747.511	0.04
747.823	0.04
748.134	0.04
748.446	0.03
748.757	0.04
749.069	0.04
749.38	0.04
749.692	0.04
750.003	0.03
750.314	0.04
750.625	0.04
750.936	0.04
751.248	0.03
751.559	0.03
751.869	0.03
752.18	0.03
752.491	0.03
752.802	0.03
753.112	0.03
753.423	0.03
753.734	0.03
754.044	0.03
754.355	0.03
754.665	0.03
754.975	0.03
755.285	0.03
755.596	0.03
755.906	0.03
756.216	0.02
756.526	0.02
756.836	0.02
757.146	0.02
757.455	0.02
757.765	0.03
758.075	0.02
758.385	0.02
758.694	0.02
759.004	0.02
759.313	0.02
759.622	0.02
759.932	0.02
760.241	0.02
760.55	0.02
760.859	0.02
761.168	0.02
761.477	0.02
761.786	0.02
762.095	0.02
762.404	0.02
762.713	0.02
763.021	0.02
763.33	0.02
763.639	0.02
763.947	0.01
764.256	0.01
764.564	0.01
764.872	0.01
765.181	0.01
765.489	0.01
765.797	0.01
766.105	0.01
766.413	0.02
766.721	0.02
767.029	0.01
767.337	0.02
767.644	0.02
767.952	0.02
768.26	0.02
768.567	0.02
768.875	0.02
769.182	0.02
769.49	0.01
769.797	0.01
770.104	0.01
770.411	0.01
770.718	0.01
771.026	0.01
771.333	0.01
771.639	0.01
771.946	0.01
772.253	0.01
772.56	0.01
772.867	0.01
773.173	0.01
773.48	0.01
773.786	0.01
774.093	0.01
774.399	0.01
774.705	0.01
775.012	0.01
775.318	0.01
775.624	0.01
775.93	0.01
776.236	0.01
776.542	0.01
776.848	0.01
777.154	0.01
777.459	0.01
777.765	0.01
778.071	0.01
778.376	0.01
778.682	0.01
778.987	0
779.292	0.01
779.598	0.01
779.903	0.01
780.208	0.01
780.513	0.01
780.818	0.01
781.123	0.01
781.428	0.01
781.733	0.01
782.038	0.01
782.343	0.01
782.647	0.01
782.952	0.01
783.256	0.01
783.561	0.01
783.865	0.01
784.17	0.02
784.474	0.02
784.778	0.01
785.082	0.01
785.386	0.01
785.69	0.01
785.994	0.01
786.298	0.01
786.602	0.01
786.906	0.01
787.209	0.01
787.513	0.01
787.817	0.01
788.12	0.01
788.424	0.01
788.727	0.01
789.03	0.01
789.333	0.01
789.637	0.01
789.94	0.01
790.243	0.02
790.546	0.01
790.849	0.01
791.152	0.01
791.454	0.01
791.757	0.01
792.06	0.01
792.362	0.01
792.665	0.01
792.967	0.01
793.27	0.01
793.572	0.01
793.874	0.01
794.177	0.01
794.479	0.01
794.781	0.01
795.083	0.01
795.385	0.01
795.687	0.01
795.989	0.01
796.29	0.01
796.592	0.01
796.894	0.01
797.195	0.01
797.497	0.01
797.798	0.01
798.1	0.01
798.401	0.01
798.702	0.01
799.003	0.01
799.304	0.01
799.605	0.01
799.906	0.01
800.207	0.01
800.508	0.01
800.809	0.01
801.11	0.01
801.41	0.01
801.711	0.01
802.011	0.01
802.312	0.01
802.612	0.01
802.913	0.02
803.213	0.02
803.513	0.02
803.813	0.02
804.113	0.02
804.413	0.02
804.713	0.02
805.013	0.02
805.313	0.02
805.613	0.02
805.912	0.01
806.212	0.02
806.511	0.02
806.811	0.02
807.11	0.02
807.41	0.02
807.709	0.02
808.008	0.01
808.307	0.02
808.606	0.01
808.905	0.01
809.204	0.01
809.503	0.01
809.802	0.02
810.101	0.01
810.399	0.01
810.698	0.01
810.997	0.01
811.295	0.01
811.593	0.01
811.892	0.01
812.19	0.01
812.488	0.02
812.786	0.01
813.084	0.01
813.383	0.01
813.68	0.01
813.978	0.01
814.276	0.01
814.574	0.01
814.872	0.01
815.169	0.01
815.467	0.01
815.764	0.01
816.062	0.01
816.359	0.01
816.656	0.01
816.954	0.01
817.251	0.01
817.548	0
817.845	0.01
818.142	0.01
818.439	0.01
818.735	0.01
819.032	0.01
819.329	0.01
819.626	0.01
819.922	0.01
820.219	0.01
820.515	0.01
820.811	0.01
821.108	0.01
821.404	0.01
821.7	0.01
821.996	0.01
822.292	0.01
822.588	0.01
822.884	0.01
823.18	0.01
823.475	0.01
823.771	0.01
824.067	0.01
824.362	0.02
824.658	0.02
824.953	0.02
825.249	0.02
825.544	0.02
825.839	0.02
826.134	0.02
826.429	0.02
826.724	0.02
827.019	0.01
827.314	0.01
827.609	0.01
827.904	0.01
828.198	0
828.493	0.01
828.787	0.01
829.082	0.01
829.376	0.01
829.671	0.01
829.965	0.01
830.259	0.01
830.553	0.01
830.847	0.01
831.141	0.01
831.435	0.01
831.729	0.01
832.023	0.02
832.317	0.01
832.61	0.01
832.904	0
833.197	0.01
833.491	0.01
833.784	0.01
834.077	0.01
834.371	0.02
834.664	0.01
834.957	0.01
835.25	0.01
835.543	0.01
835.836	0.02
836.129	0.01
836.421	0.01
836.714	0.01
837.007	0.01
837.299	0.01
837.592	0.03
837.884	0.02
838.177	0.01
838.469	0.02
838.761	0.02
839.053	0.02
839.345	0.02
839.637	0.02
839.929	0.01
840.221	0.02
840.513	0.02
840.805	0.02
841.096	0.02
841.388	0.02
841.68	0.01
841.971	0.01
842.262	0.01
842.554	0.02
842.845	0.02
843.136	0
843.427	0.02
843.718	0.01
844.009	0.01
844.3	0.01
844.591	0.02
844.882	0.01
845.173	0.01
845.463	0.01
845.754	0.02
846.044	0.01
846.335	0.01
846.625	0.01
846.915	0.01
847.206	0.01
847.496	0.02
847.786	0.02
848.076	0.01
848.366	0.01
848.656	0.02
848.945	0.01
849.235	0.02
849.525	0.02
849.814	0.01
850.104	0.01
850.393	0.02
850.683	0.01
850.972	0.02
851.261	0.01
851.551	0.02
851.84	0.01
852.129	0.01
852.418	0.01
852.707	0
852.995	0.02
853.284	0.01
853.573	0.01
853.862	0.01
854.15	-0
854.439	0.01
854.727	0.01
855.015	0.01
855.304	0.01
855.592	0.01
855.88	0.03
856.168	0.02
856.456	0.01
856.744	0.01
857.032	0.02
857.32	0
857.607	0.01
857.895	0
858.183	0.03
858.47	0
858.757	0
859.045	0.01
859.332	0.02
859.619	0
859.907	0.01
860.194	0.01
860.481	0.01
860.768	0.02
861.054	0.02
861.341	0.02
861.628	0.02
861.915	0.01
862.201	0.02
862.488	0.01
862.774	0.01
863.061	-0
863.347	-0
863.633	0.02
863.919	-0
864.205	0.02
864.491	0.02
864.777	0.01
865.063	0.02
865.349	-0
865.635	-0.01
865.92	-0
866.206	0.01
866.492	0.03
866.777	0.01
867.062	-0.02
867.348	-0
867.633	0.01
867.918	0
868.203	0
868.488	0.02
868.773	0.01
869.058	-0
869.343	0.01
869.628	0.02
869.912	0.02
870.197	0
870.482	0.03
870.766	0.06
871.05	0.07
871.335	-0.01
871.619	0.03
871.903	-0.01
872.187	0
872.471	0.01
872.755	0
873.039	0.04
873.323	0.01
873.607	0.02
873.89	-0.02
874.174	0.04
874.458	0.02
874.741	0.01
875.024	-0.01
875.308	-0.03
875.591	-0.01
875.874	-0.01
876.157	0.02
876.44	-0.01
876.723	0.04
877.006	0.07
877.289	0.07
877.572	0.05
877.854	0.07
878.137	0.06
878.42	0.03
878.702	-0.03
878.984	-0.04
879.267	0.06
879.549	0.05
879.831	0.08
880.113	0.04
880.395	0.06
880.677	0.03
880.959	-0.09
