Data from Rubpy_EV_1500_EDTA_Buffered_Absorbance_15-11-01-936.txt Node
Date: Tue Jun 30 15:11:01 BST 2026
User: fpm-admin
Spectrometer: OFX00224
Trigger mode: 0
Integration Time (sec): 7.000000E-2
Scans to average: 3
Nonlinearity correction enabled: false
Boxcar width: 0
Storing dark spectrum: false
XAxis mode: Wavelengths
Number of Pixels in Spectrum: 2136
>>>>>Begin Spectral Data<<<<<
154.91	0.69
155.289	-0.46
155.669	-0
156.048	-0
156.428	-0
156.807	-0
157.186	-0.26
157.566	-0.23
157.945	-0.37
158.325	-1.28
158.704	-0
159.083	-0
159.462	-0.83
159.842	-0
160.221	-0.53
160.6	0.11
160.979	-0
161.359	-0.26
161.738	-0
162.117	0.9
162.496	-0
162.875	-0.4
163.254	-0.3
163.633	-0
164.012	-0
164.391	1.51
164.77	0.04
165.149	-0.18
165.528	-0
165.907	0.4
166.286	-0.12
166.665	-0
167.044	0.51
167.423	0.36
167.802	-0
168.181	0.33
168.559	-0.68
168.938	0.25
169.317	-0.11
169.696	0.27
170.074	-0.14
170.453	-0.76
170.832	-0
171.21	-0
171.589	-0.2
171.968	-0
172.346	-0.48
172.725	-0
173.103	-0.25
173.482	-0.54
173.861	-0.47
174.239	-0
174.617	-0
174.996	-0.3
175.374	-0
175.753	-0.38
176.131	0.23
176.51	-0.13
176.888	-0.11
177.266	-0
177.645	-0.01
178.023	-0
178.401	-0.18
178.779	0.13
179.158	0.26
179.536	-0
179.914	-0
180.292	-0
180.67	-0.18
181.048	0.9
181.427	-0.23
181.805	-0.35
182.183	0.06
182.561	0.22
182.939	-1.32
183.317	-0
183.695	-0
184.073	-0.5
184.451	-0
184.829	-0.48
185.206	-0.32
185.584	0.57
185.962	-0.12
186.34	-0.1
186.718	0.23
187.096	-0
187.473	-0
187.851	0.49
188.229	-0.45
188.607	0.29
188.984	0.31
189.362	0.42
189.74	0.38
190.117	0.27
190.495	0.26
190.872	0.17
191.25	0.26
191.627	0.24
192.005	0.22
192.382	0.19
192.76	0.19
193.137	0.27
193.515	0.28
193.892	0.24
194.269	0.47
194.647	0.29
195.024	0.22
195.401	0.28
195.779	0.31
196.156	0.32
196.533	0.37
196.91	0.17
197.288	0.19
197.665	0.21
198.042	0.12
198.419	0.37
198.796	0.21
199.173	0.23
199.55	0.25
199.927	0.45
200.304	0.28
200.681	0.25
201.058	0.1
201.435	0.32
201.812	0.44
202.189	0.2
202.566	0.46
202.943	0.24
203.32	0.28
203.697	0.32
204.073	0.26
204.45	0.23
204.827	0.23
205.204	0.4
205.58	0.42
205.957	0.23
206.334	0.3
206.71	0.21
207.087	0.51
207.464	0.17
207.84	0.4
208.217	0.31
208.593	0.32
208.97	0.3
209.346	0.52
209.723	0.31
210.099	0.35
210.476	0.29
210.852	0.29
211.228	0.35
211.605	0.3
211.981	0.36
212.357	0.27
212.733	0.24
213.11	0.38
213.486	0.14
213.862	0.24
214.238	0.24
214.614	0.4
214.991	0.29
215.367	0.39
215.743	0.28
216.119	0.28
216.495	0.4
216.871	0.49
217.247	0.32
217.623	0.22
217.999	0.2
218.375	0.31
218.751	0.27
219.127	0.38
219.502	0.5
219.878	0.24
220.254	0.24
220.63	0.25
221.006	0.38
221.381	0.24
221.757	0.35
222.133	0.43
222.508	0.36
222.884	0.33
223.26	0.25
223.635	0.32
224.011	0.36
224.386	0.4
224.762	0.28
225.137	0.14
225.513	0.29
225.888	0.23
226.264	0.38
226.639	0.45
227.014	0.31
227.39	0.48
227.765	0.4
228.14	0.4
228.516	0.26
228.891	0.34
229.266	0.26
229.641	0.38
230.017	0.23
230.392	0.24
230.767	0.37
231.142	0.37
231.517	0.35
231.892	0.2
232.267	0.29
232.642	0.34
233.017	0.38
233.392	0.41
233.767	0.27
234.142	0.25
234.517	0.25
234.892	0.25
235.267	0.27
235.641	0.28
236.016	0.27
236.391	0.18
236.766	0.19
237.14	0.34
237.515	0.36
237.89	0.49
238.264	0.52
238.639	0.4
239.014	0.32
239.388	0.29
239.763	0.37
240.137	0.26
240.512	0.22
240.886	0.24
241.261	0.27
241.635	0.42
242.009	0.34
242.384	0.26
242.758	0.31
243.132	0.43
243.507	0.34
243.881	0.34
244.255	0.29
244.629	0.37
245.004	0.46
245.378	0.31
245.752	0.33
246.126	0.35
246.5	0.57
246.874	0.3
247.248	0.24
247.622	0.33
247.996	0.39
248.37	0.32
248.744	0.28
249.118	0.27
249.492	0.29
249.866	0.2
250.24	0.29
250.613	0.31
250.987	0.25
251.361	0.32
251.735	0.29
252.108	0.3
252.482	0.32
252.856	0.25
253.229	0.31
253.603	0.39
253.977	0.56
254.35	0.21
254.724	0.27
255.097	0.2
255.471	0.44
255.844	0.24
256.218	0.36
256.591	0.19
256.964	0.36
257.338	0.36
257.711	0.35
258.084	0.28
258.458	0.31
258.831	0.32
259.204	0.32
259.577	0.36
259.95	0.4
260.323	0.23
260.697	0.31
261.07	0.29
261.443	0.24
261.816	0.33
262.189	0.33
262.562	0.26
262.935	0.3
263.308	0.34
263.68	0.27
264.053	0.43
264.426	0.29
264.799	0.32
265.172	0.34
265.545	0.33
265.917	0.25
266.29	0.28
266.663	0.41
267.035	0.29
267.408	0.29
267.781	0.37
268.153	0.36
268.526	0.3
268.898	0.4
269.271	0.33
269.643	0.26
270.016	0.31
270.388	0.31
270.76	0.25
271.133	0.36
271.505	0.29
271.877	0.35
272.25	0.3
272.622	0.4
272.994	0.24
273.366	0.29
273.739	0.37
274.111	0.35
274.483	0.23
274.855	0.41
275.227	0.29
275.599	0.29
275.971	0.32
276.343	0.33
276.715	0.22
277.087	0.32
277.459	0.35
277.831	0.32
278.203	0.27
278.574	0.3
278.946	0.27
279.318	0.32
279.69	0.29
280.061	0.29
280.433	0.31
280.805	0.32
281.176	0.38
281.548	0.38
281.92	0.31
282.291	0.33
282.663	0.39
283.034	0.4
283.406	0.27
283.777	0.42
284.148	0.31
284.52	0.42
284.891	0.34
285.262	0.38
285.634	0.29
286.005	0.41
286.376	0.27
286.747	0.23
287.119	0.3
287.49	0.19
287.861	0.36
288.232	0.24
288.603	0.28
288.974	0.32
289.345	0.24
289.716	0.36
290.087	0.33
290.458	0.47
290.829	0.44
291.2	0.32
291.571	0.31
291.941	0.31
292.312	0.29
292.683	0.37
293.054	0.28
293.424	0.22
293.795	0.35
294.166	0.34
294.536	0.35
294.907	0.24
295.277	0.35
295.648	0.4
296.018	0.32
296.389	0.31
296.759	0.31
297.13	0.42
297.5	0.27
297.871	0.27
298.241	0.25
298.611	0.29
298.981	0.28
299.352	0.29
299.722	0.31
300.092	0.23
300.462	0.31
300.832	0.26
301.202	0.22
301.573	0.28
301.943	0.26
302.313	0.26
302.683	0.25
303.053	0.25
303.422	0.26
303.792	0.26
304.162	0.25
304.532	0.25
304.902	0.26
305.272	0.25
305.641	0.24
306.011	0.26
306.381	0.25
306.75	0.26
307.12	0.27
307.49	0.27
307.859	0.28
308.229	0.28
308.598	0.28
308.968	0.28
309.337	0.28
309.707	0.29
310.076	0.29
310.445	0.29
310.815	0.3
311.184	0.3
311.553	0.3
311.923	0.3
312.292	0.31
312.661	0.3
313.03	0.31
313.399	0.3
313.768	0.32
314.137	0.3
314.506	0.31
314.875	0.3
315.244	0.31
315.613	0.3
315.982	0.31
316.351	0.3
316.72	0.3
317.089	0.3
317.458	0.29
317.826	0.3
318.195	0.29
318.564	0.28
318.933	0.28
319.301	0.28
319.67	0.29
320.038	0.28
320.407	0.27
320.775	0.28
321.144	0.27
321.512	0.27
321.881	0.27
322.249	0.27
322.618	0.27
322.986	0.26
323.354	0.26
323.723	0.26
324.091	0.26
324.459	0.26
324.827	0.25
325.195	0.25
325.564	0.25
325.932	0.25
326.3	0.26
326.668	0.25
327.036	0.25
327.404	0.25
327.772	0.25
328.14	0.26
328.508	0.26
328.875	0.25
329.243	0.25
329.611	0.26
329.979	0.25
330.346	0.26
330.714	0.26
331.082	0.26
331.449	0.26
331.817	0.27
332.185	0.27
332.552	0.27
332.92	0.27
333.287	0.28
333.655	0.28
334.022	0.28
334.389	0.29
334.757	0.28
335.124	0.29
335.491	0.29
335.859	0.3
336.226	0.3
336.593	0.3
336.96	0.31
337.327	0.31
337.695	0.31
338.062	0.32
338.429	0.32
338.796	0.32
339.163	0.33
339.53	0.34
339.897	0.34
340.263	0.34
340.63	0.35
340.997	0.36
341.364	0.36
341.731	0.37
342.097	0.37
342.464	0.38
342.831	0.39
343.197	0.4
343.564	0.41
343.931	0.41
344.297	0.41
344.664	0.42
345.03	0.42
345.396	0.43
345.763	0.44
346.129	0.45
346.496	0.44
346.862	0.45
347.228	0.47
347.594	0.47
347.961	0.48
348.327	0.48
348.693	0.49
349.059	0.49
349.425	0.5
349.791	0.52
350.157	0.52
350.523	0.53
350.889	0.54
351.255	0.55
351.621	0.56
351.987	0.57
352.353	0.58
352.719	0.59
353.084	0.61
353.45	0.61
353.816	0.63
354.181	0.64
354.547	0.65
354.913	0.66
355.278	0.67
355.644	0.69
356.009	0.7
356.375	0.72
356.74	0.73
357.106	0.75
357.471	0.76
357.836	0.78
358.202	0.79
358.567	0.81
358.932	0.82
359.297	0.83
359.663	0.83
360.028	0.85
360.393	0.86
360.758	0.87
361.123	0.89
361.488	0.89
361.853	0.92
362.218	0.92
362.583	0.93
362.948	0.93
363.312	0.95
363.677	0.96
364.042	0.98
364.407	0.98
364.772	1.02
365.136	1.02
365.501	1.05
365.865	1.06
366.23	1.09
366.595	1.09
366.959	1.12
367.324	1.14
367.688	1.16
368.052	1.18
368.417	1.18
368.781	1.2
369.145	1.22
369.51	1.21
369.874	1.22
370.238	1.23
370.602	1.22
370.967	1.22
371.331	1.2
371.695	1.21
372.059	1.22
372.423	1.19
372.787	1.2
373.151	1.19
373.515	1.18
373.878	1.18
374.242	1.18
374.606	1.17
374.97	1.18
375.334	1.17
375.697	1.18
376.061	1.18
376.425	1.21
376.788	1.19
377.152	1.2
377.515	1.22
377.879	1.23
378.242	1.24
378.606	1.24
378.969	1.27
379.333	1.27
379.696	1.28
380.059	1.29
380.422	1.33
380.786	1.34
381.149	1.38
381.512	1.38
381.875	1.41
382.238	1.44
382.601	1.48
382.964	1.49
383.327	1.52
383.69	1.57
384.053	1.58
384.416	1.63
384.779	1.65
385.142	1.71
385.504	1.68
385.867	1.71
386.23	1.74
386.593	1.74
386.955	1.75
387.318	1.76
387.68	1.73
388.043	1.75
388.405	1.74
388.768	1.76
389.13	1.73
389.493	1.72
389.855	1.72
390.217	1.73
390.58	1.7
390.942	1.7
391.304	1.71
391.666	1.72
392.028	1.73
392.391	1.76
392.753	1.8
393.115	1.84
393.477	1.88
393.839	1.87
394.201	1.95
394.563	1.98
394.924	2.03
395.286	2.06
395.648	2.09
396.01	2.07
396.371	2.19
396.733	2.1
397.095	2.15
397.456	2.08
397.818	2.09
398.18	2.06
398.541	2.09
398.903	2.1
399.264	2.07
399.625	2.07
399.987	2.05
400.348	2
400.709	1.96
401.071	1.89
401.432	1.8
401.793	1.7
402.154	1.63
402.515	1.55
402.876	1.47
403.238	1.36
403.599	1.29
403.96	1.2
404.32	1.11
404.681	1.04
405.042	0.96
405.403	0.91
405.764	0.85
406.125	0.78
406.485	0.73
406.846	0.7
407.207	0.65
407.567	0.61
407.928	0.57
408.288	0.54
408.649	0.51
409.009	0.49
409.37	0.46
409.73	0.44
410.091	0.42
410.451	0.4
410.811	0.38
411.171	0.36
411.532	0.34
411.892	0.34
412.252	0.32
412.612	0.31
412.972	0.3
413.332	0.28
413.692	0.27
414.052	0.28
414.412	0.25
414.772	0.26
415.132	0.25
415.492	0.24
415.851	0.23
416.211	0.22
416.571	0.22
416.931	0.21
417.29	0.21
417.65	0.2
418.009	0.19
418.369	0.19
418.728	0.19
419.088	0.18
419.447	0.18
419.807	0.17
420.166	0.17
420.525	0.16
420.884	0.15
421.244	0.16
421.603	0.16
421.962	0.16
422.321	0.15
422.68	0.15
423.039	0.16
423.398	0.15
423.757	0.15
424.116	0.15
424.475	0.15
424.834	0.14
425.193	0.14
425.551	0.13
425.91	0.13
426.269	0.13
426.628	0.13
426.986	0.13
427.345	0.13
427.703	0.13
428.062	0.13
428.42	0.12
428.779	0.13
429.137	0.13
429.496	0.12
429.854	0.12
430.212	0.12
430.57	0.13
430.929	0.12
431.287	0.12
431.645	0.12
432.003	0.11
432.361	0.12
432.719	0.12
433.077	0.1
433.435	0.11
433.793	0.11
434.151	0.1
434.509	0.11
434.866	0.1
435.224	0.1
435.582	0.11
435.94	0.11
436.297	0.1
436.655	0.1
437.012	0.1
437.37	0.11
437.727	0.1
438.085	0.1
438.442	0.1
438.8	0.09
439.157	0.09
439.514	0.1
439.872	0.09
440.229	0.1
440.586	0.1
440.943	0.09
441.3	0.09
441.657	0.08
442.014	0.1
442.371	0.09
442.728	0.09
443.085	0.08
443.442	0.09
443.799	0.09
444.156	0.09
444.513	0.08
444.869	0.08
445.226	0.08
445.583	0.08
445.939	0.08
446.296	0.08
446.652	0.08
447.009	0.08
447.365	0.08
447.722	0.07
448.078	0.07
448.434	0.08
448.791	0.07
449.147	0.06
449.503	0.07
449.859	0.07
450.215	0.07
450.571	0.07
450.928	0.07
451.284	0.07
451.64	0.06
451.995	0.07
452.351	0.06
452.707	0.07
453.063	0.06
453.419	0.06
453.775	0.06
454.13	0.07
454.486	0.05
454.842	0.06
455.197	0.06
455.553	0.05
455.908	0.05
456.264	0.04
456.619	0.04
456.975	0.05
457.33	0.05
457.685	0.04
458.04	0.04
458.396	0.04
458.751	0.04
459.106	0.03
459.461	0.03
459.816	0.04
460.171	0.02
460.526	0.02
460.881	0.02
461.236	0.02
461.591	0.02
461.946	0.01
462.301	0.01
462.655	0.02
463.01	0.02
463.365	0.01
463.719	0.01
464.074	-0
464.428	-0
464.783	0
465.137	-0
465.492	-0
465.846	0
466.201	-0
466.555	0
466.909	0
467.263	0.01
467.618	0.01
467.972	0
468.326	-0
468.68	-0.01
469.034	-0.01
469.388	-0.01
469.742	-0
470.096	-0
470.45	-0
470.804	0
471.157	-0
471.511	0
471.865	0.01
472.218	0.01
472.572	0.01
472.926	0.01
473.279	0.01
473.633	0.01
473.986	0.03
474.34	0.02
474.693	0.03
475.046	0.04
475.4	0.04
475.753	0.04
476.106	0.04
476.459	0.05
476.812	0.06
477.165	0.06
477.519	0.06
477.872	0.07
478.224	0.07
478.577	0.07
478.93	0.08
479.283	0.07
479.636	0.08
479.989	0.08
480.341	0.09
480.694	0.09
481.047	0.09
481.399	0.1
481.752	0.1
482.104	0.1
482.457	0.11
482.809	0.1
483.162	0.11
483.514	0.11
483.866	0.11
484.219	0.11
484.571	0.12
484.923	0.12
485.275	0.12
485.627	0.12
485.979	0.13
486.331	0.13
486.683	0.13
487.035	0.14
487.387	0.14
487.739	0.14
488.091	0.14
488.443	0.14
488.794	0.14
489.146	0.15
489.498	0.14
489.849	0.14
490.201	0.15
490.552	0.15
490.904	0.15
491.255	0.15
491.607	0.15
491.958	0.16
492.309	0.16
492.661	0.16
493.012	0.16
493.363	0.17
493.714	0.17
494.065	0.17
494.416	0.17
494.767	0.17
495.118	0.18
495.469	0.18
495.82	0.18
496.171	0.19
496.522	0.18
496.872	0.19
497.223	0.19
497.574	0.2
497.924	0.2
498.275	0.2
498.626	0.2
498.976	0.2
499.327	0.2
499.677	0.2
500.027	0.21
500.378	0.21
500.728	0.22
501.078	0.22
501.428	0.22
501.779	0.22
502.129	0.22
502.479	0.23
502.829	0.23
503.179	0.23
503.529	0.23
503.879	0.24
504.229	0.24
504.578	0.24
504.928	0.24
505.278	0.25
505.628	0.25
505.977	0.25
506.327	0.25
506.676	0.26
507.026	0.26
507.375	0.26
507.725	0.26
508.074	0.26
508.424	0.27
508.773	0.27
509.122	0.28
509.471	0.28
509.82	0.28
510.17	0.28
510.519	0.28
510.868	0.29
511.217	0.29
511.566	0.29
511.915	0.3
512.263	0.29
512.612	0.3
512.961	0.3
513.31	0.3
513.659	0.3
514.007	0.31
514.356	0.31
514.704	0.31
515.053	0.31
515.401	0.31
515.75	0.32
516.098	0.32
516.447	0.33
516.795	0.33
517.143	0.33
517.491	0.33
517.839	0.34
518.188	0.34
518.536	0.34
518.884	0.34
519.232	0.34
519.58	0.35
519.928	0.35
520.275	0.36
520.623	0.36
520.971	0.36
521.319	0.36
521.666	0.36
522.014	0.37
522.362	0.37
522.709	0.37
523.057	0.38
523.404	0.38
523.752	0.38
524.099	0.38
524.446	0.38
524.794	0.39
525.141	0.39
525.488	0.39
525.835	0.4
526.182	0.4
526.529	0.41
526.876	0.4
527.223	0.41
527.57	0.41
527.917	0.41
528.264	0.41
528.611	0.41
528.958	0.42
529.304	0.42
529.651	0.42
529.998	0.43
530.344	0.43
530.691	0.44
531.037	0.44
531.384	0.44
531.73	0.44
532.076	0.44
532.423	0.44
532.769	0.44
533.115	0.45
533.461	0.45
533.807	0.46
534.154	0.46
534.5	0.46
534.846	0.46
535.192	0.47
535.537	0.48
535.883	0.48
536.229	0.48
536.575	0.49
536.921	0.49
537.266	0.49
537.612	0.49
537.957	0.5
538.303	0.5
538.649	0.5
538.994	0.5
539.339	0.51
539.685	0.52
540.03	0.52
540.375	0.52
540.721	0.53
541.066	0.53
541.411	0.54
541.756	0.54
542.101	0.54
542.446	0.55
542.791	0.55
543.136	0.56
543.481	0.56
543.825	0.56
544.17	0.56
544.515	0.57
544.86	0.58
545.204	0.58
545.549	0.57
545.893	0.58
546.238	0.58
546.582	0.59
546.927	0.59
547.271	0.59
547.615	0.6
547.96	0.61
548.304	0.61
548.648	0.61
548.992	0.61
549.336	0.62
549.68	0.63
550.024	0.62
550.368	0.63
550.712	0.63
551.056	0.63
551.4	0.63
551.743	0.64
552.087	0.64
552.431	0.64
552.774	0.65
553.118	0.65
553.462	0.65
553.805	0.66
554.148	0.66
554.492	0.66
554.835	0.66
555.178	0.66
555.522	0.67
555.865	0.67
556.208	0.67
556.551	0.68
556.894	0.68
557.237	0.68
557.58	0.68
557.923	0.68
558.266	0.68
558.609	0.68
558.952	0.69
559.294	0.69
559.637	0.69
559.98	0.69
560.322	0.7
560.665	0.69
561.007	0.7
561.35	0.7
561.692	0.71
562.034	0.71
562.377	0.71
562.719	0.71
563.061	0.71
563.403	0.71
563.745	0.71
564.088	0.71
564.43	0.71
564.772	0.71
565.113	0.71
565.455	0.72
565.797	0.72
566.139	0.72
566.481	0.72
566.822	0.72
567.164	0.72
567.506	0.73
567.847	0.73
568.189	0.73
568.53	0.73
568.872	0.73
569.213	0.73
569.554	0.73
569.895	0.73
570.237	0.73
570.578	0.73
570.919	0.73
571.26	0.74
571.601	0.73
571.942	0.74
572.283	0.74
572.624	0.74
572.965	0.74
573.306	0.74
573.646	0.74
573.987	0.74
574.328	0.74
574.668	0.74
575.009	0.74
575.349	0.74
575.69	0.74
576.03	0.74
576.37	0.74
576.711	0.74
577.051	0.74
577.391	0.74
577.731	0.74
578.072	0.74
578.412	0.74
578.752	0.75
579.092	0.75
579.431	0.75
579.771	0.74
580.111	0.73
580.451	0.73
580.791	0.74
581.13	0.75
581.47	0.75
581.81	0.76
582.149	0.75
582.489	0.76
582.828	0.76
583.167	0.75
583.507	0.72
583.846	0.7
584.185	0.71
584.525	0.74
584.864	0.75
585.203	0.76
585.542	0.77
585.881	0.77
586.22	0.78
586.559	0.78
586.898	0.77
587.236	0.78
587.575	0.77
587.914	0.77
588.252	0.78
588.591	0.79
588.93	0.79
589.268	0.79
589.607	0.79
589.945	0.8
590.283	0.8
590.622	0.8
590.96	0.81
591.298	0.82
591.636	0.82
591.974	0.82
592.313	0.82
592.651	0.83
592.989	0.83
593.326	0.83
593.664	0.84
594.002	0.85
594.34	0.85
594.678	0.85
595.015	0.85
595.353	0.84
595.691	0.85
596.028	0.86
596.366	0.86
596.703	0.87
597.04	0.87
597.378	0.87
597.715	0.88
598.052	0.88
598.389	0.88
598.726	0.89
599.064	0.89
599.401	0.89
599.738	0.89
600.074	0.9
600.411	0.9
600.748	0.9
601.085	0.89
601.422	0.89
601.758	0.9
602.095	0.9
602.432	0.9
602.768	0.9
603.105	0.89
603.441	0.9
603.777	0.9
604.114	0.91
604.45	0.9
604.786	0.91
605.122	0.91
605.459	0.91
605.795	0.91
606.131	0.9
606.467	0.9
606.803	0.9
607.139	0.9
607.474	0.9
607.81	0.9
608.146	0.9
608.482	0.89
608.817	0.89
609.153	0.89
609.488	0.88
609.824	0.88
610.159	0.88
610.495	0.88
610.83	0.88
611.165	0.88
611.5	0.88
611.836	0.87
612.171	0.87
612.506	0.87
612.841	0.86
613.176	0.87
613.511	0.86
613.845	0.86
614.18	0.86
614.515	0.86
614.85	0.85
615.184	0.85
615.519	0.85
615.854	0.85
616.188	0.85
616.523	0.84
616.857	0.84
617.191	0.84
617.526	0.83
617.86	0.84
618.194	0.83
618.528	0.83
618.862	0.82
619.196	0.82
619.53	0.82
619.864	0.82
620.198	0.82
620.532	0.81
620.866	0.81
621.2	0.8
621.533	0.8
621.867	0.81
622.201	0.8
622.534	0.79
622.868	0.79
623.201	0.79
623.534	0.79
623.868	0.79
624.201	0.78
624.534	0.78
624.868	0.78
625.201	0.78
625.534	0.77
625.867	0.77
626.2	0.77
626.533	0.76
626.865	0.76
627.198	0.75
627.531	0.75
627.864	0.75
628.196	0.74
628.529	0.75
628.862	0.74
629.194	0.74
629.527	0.73
629.859	0.73
630.191	0.72
630.524	0.71
630.856	0.71
631.188	0.71
631.52	0.71
631.852	0.7
632.184	0.7
632.516	0.69
632.848	0.69
633.18	0.68
633.512	0.68
633.844	0.67
634.175	0.66
634.507	0.66
634.839	0.66
635.17	0.65
635.502	0.65
635.833	0.64
636.165	0.64
636.496	0.63
636.827	0.63
637.159	0.62
637.49	0.62
637.821	0.62
638.152	0.61
638.483	0.61
638.814	0.6
639.145	0.6
639.476	0.59
639.807	0.58
640.137	0.58
640.468	0.58
640.799	0.57
641.129	0.57
641.46	0.56
641.791	0.55
642.121	0.56
642.451	0.55
642.782	0.54
643.112	0.54
643.442	0.53
643.773	0.53
644.103	0.53
644.433	0.53
644.763	0.53
645.093	0.52
645.423	0.52
645.753	0.52
646.082	0.51
646.412	0.51
646.742	0.51
647.072	0.51
647.401	0.51
647.731	0.51
648.06	0.51
648.39	0.5
648.719	0.5
649.048	0.49
649.378	0.49
649.707	0.49
650.036	0.49
650.365	0.49
650.694	0.48
651.023	0.49
651.352	0.48
651.681	0.48
652.01	0.49
652.339	0.48
652.668	0.48
652.996	0.48
653.325	0.48
653.654	0.48
653.982	0.48
654.311	0.48
654.639	0.47
654.967	0.48
655.296	0.47
655.624	0.48
655.952	0.47
656.28	0.47
656.609	0.47
656.937	0.48
657.265	0.49
657.593	0.46
657.92	0.31
658.248	0.25
658.576	0.23
658.904	0.32
659.231	0.41
659.559	0.46
659.887	0.46
660.214	0.46
660.542	0.47
660.869	0.46
661.196	0.47
661.524	0.46
661.851	0.47
662.178	0.46
662.505	0.46
662.832	0.46
663.159	0.46
663.486	0.46
663.813	0.45
664.14	0.46
664.467	0.45
664.794	0.45
665.12	0.45
665.447	0.45
665.774	0.45
666.1	0.45
666.427	0.45
666.753	0.45
667.079	0.45
667.406	0.45
667.732	0.45
668.058	0.45
668.384	0.45
668.71	0.44
669.036	0.44
669.362	0.44
669.688	0.44
670.014	0.44
670.34	0.44
670.666	0.43
670.991	0.43
671.317	0.43
671.643	0.42
671.968	0.42
672.294	0.42
672.619	0.42
672.945	0.41
673.27	0.41
673.595	0.41
673.92	0.41
674.246	0.41
674.571	0.41
674.896	0.4
675.221	0.4
675.546	0.4
675.87	0.4
676.195	0.39
676.52	0.39
676.845	0.39
677.169	0.38
677.494	0.38
677.819	0.38
678.143	0.37
678.468	0.37
678.792	0.37
679.116	0.37
679.44	0.36
679.765	0.36
680.089	0.36
680.413	0.35
680.737	0.35
681.061	0.35
681.385	0.35
681.709	0.34
682.033	0.33
682.356	0.33
682.68	0.33
683.004	0.33
683.327	0.32
683.651	0.32
683.974	0.32
684.298	0.31
684.621	0.31
684.944	0.3
685.268	0.31
685.591	0.3
685.914	0.3
686.237	0.3
686.56	0.29
686.883	0.29
687.206	0.28
687.529	0.28
687.852	0.28
688.175	0.27
688.497	0.27
688.82	0.27
689.142	0.27
689.465	0.26
689.787	0.26
690.11	0.26
690.432	0.26
690.755	0.25
691.077	0.25
691.399	0.25
691.721	0.25
692.043	0.24
692.365	0.24
692.687	0.23
693.009	0.23
693.331	0.23
693.653	0.23
693.974	0.23
694.296	0.22
694.618	0.22
694.939	0.22
695.261	0.22
695.582	0.21
695.904	0.21
696.225	0.21
696.546	0.21
696.868	0.2
697.189	0.2
697.51	0.2
697.831	0.2
698.152	0.2
698.473	0.2
698.794	0.19
699.114	0.19
699.435	0.19
699.756	0.18
700.077	0.18
700.397	0.19
700.718	0.18
701.038	0.18
701.359	0.18
701.679	0.18
701.999	0.18
702.32	0.18
702.64	0.18
702.96	0.18
703.28	0.18
703.6	0.18
703.92	0.17
704.24	0.17
704.56	0.17
704.879	0.17
705.199	0.16
705.519	0.16
705.838	0.16
706.158	0.16
706.478	0.16
706.797	0.16
707.116	0.16
707.436	0.16
707.755	0.16
708.074	0.16
708.393	0.16
708.712	0.16
709.031	0.15
709.35	0.15
709.669	0.15
709.988	0.15
710.307	0.15
710.626	0.15
710.944	0.15
711.263	0.15
711.582	0.15
711.9	0.15
712.219	0.15
712.537	0.15
712.855	0.15
713.174	0.15
713.492	0.15
713.81	0.15
714.128	0.15
714.446	0.15
714.764	0.14
715.082	0.14
715.4	0.14
715.718	0.15
716.035	0.14
716.353	0.15
716.671	0.14
716.988	0.15
717.306	0.15
717.623	0.15
717.941	0.15
718.258	0.15
718.575	0.16
718.893	0.15
719.21	0.15
719.527	0.15
719.844	0.16
720.161	0.15
720.478	0.16
720.795	0.16
721.112	0.16
721.428	0.16
721.745	0.16
722.062	0.16
722.378	0.16
722.695	0.16
723.011	0.16
723.328	0.16
723.644	0.16
723.96	0.16
724.276	0.16
724.593	0.16
724.909	0.16
725.225	0.16
725.541	0.16
725.857	0.16
726.173	0.17
726.488	0.17
726.804	0.17
727.12	0.17
727.435	0.17
727.751	0.17
728.067	0.17
728.382	0.17
728.697	0.17
729.013	0.17
729.328	0.17
729.643	0.17
729.958	0.17
730.273	0.17
730.588	0.17
730.903	0.17
731.218	0.17
731.533	0.17
731.848	0.17
732.163	0.18
732.477	0.18
732.792	0.17
733.107	0.17
733.421	0.17
733.736	0.17
734.05	0.17
734.364	0.17
734.678	0.18
734.993	0.17
735.307	0.17
735.621	0.17
735.935	0.17
736.249	0.17
736.563	0.17
736.877	0.17
737.19	0.17
737.504	0.17
737.818	0.17
738.131	0.16
738.445	0.16
738.758	0.16
739.072	0.16
739.385	0.16
739.698	0.16
740.012	0.16
740.325	0.16
740.638	0.16
740.951	0.16
741.264	0.16
741.577	0.15
741.89	0.16
742.203	0.15
742.515	0.16
742.828	0.16
743.141	0.15
743.453	0.16
743.766	0.15
744.078	0.15
744.391	0.15
744.703	0.15
745.015	0.14
745.327	0.14
745.639	0.14
745.952	0.14
746.264	0.14
746.575	0.14
746.887	0.14
747.199	0.14
747.511	0.14
747.823	0.13
748.134	0.13
748.446	0.13
748.757	0.13
749.069	0.13
749.38	0.13
749.692	0.13
750.003	0.13
750.314	0.12
750.625	0.12
750.936	0.12
751.248	0.12
751.559	0.12
751.869	0.12
752.18	0.12
752.491	0.11
752.802	0.11
753.112	0.11
753.423	0.11
753.734	0.11
754.044	0.11
754.355	0.1
754.665	0.1
754.975	0.1
755.285	0.1
755.596	0.1
755.906	0.09
756.216	0.09
756.526	0.09
756.836	0.09
757.146	0.09
757.455	0.09
757.765	0.09
758.075	0.09
758.385	0.08
758.694	0.08
759.004	0.08
759.313	0.08
759.622	0.08
759.932	0.08
760.241	0.08
760.55	0.08
760.859	0.08
761.168	0.08
761.477	0.07
761.786	0.08
762.095	0.07
762.404	0.07
762.713	0.07
763.021	0.07
763.33	0.07
763.639	0.06
763.947	0.06
764.256	0.06
764.564	0.06
764.872	0.06
765.181	0.06
765.489	0.06
765.797	0.06
766.105	0.06
766.413	0.06
766.721	0.06
767.029	0.06
767.337	0.06
767.644	0.06
767.952	0.06
768.26	0.06
768.567	0.06
768.875	0.06
769.182	0.05
769.49	0.05
769.797	0.05
770.104	0.05
770.411	0.05
770.718	0.05
771.026	0.04
771.333	0.05
771.639	0.05
771.946	0.05
772.253	0.05
772.56	0.05
772.867	0.05
773.173	0.05
773.48	0.04
773.786	0.05
774.093	0.04
774.399	0.04
774.705	0.04
775.012	0.04
775.318	0.04
775.624	0.04
775.93	0.04
776.236	0.04
776.542	0.04
776.848	0.04
777.154	0.04
777.459	0.04
777.765	0.05
778.071	0.04
778.376	0.04
778.682	0.04
778.987	0.04
779.292	0.04
779.598	0.04
779.903	0.04
780.208	0.04
780.513	0.04
780.818	0.04
781.123	0.04
781.428	0.04
781.733	0.04
782.038	0.04
782.343	0.04
782.647	0.04
782.952	0.04
783.256	0.04
783.561	0.04
783.865	0.04
784.17	0.04
784.474	0.04
784.778	0.04
785.082	0.04
785.386	0.04
785.69	0.05
785.994	0.04
786.298	0.04
786.602	0.04
786.906	0.04
787.209	0.04
787.513	0.04
787.817	0.04
788.12	0.04
788.424	0.04
788.727	0.04
789.03	0.04
789.333	0.04
789.637	0.04
789.94	0.04
790.243	0.05
790.546	0.04
790.849	0.04
791.152	0.04
791.454	0.04
791.757	0.04
792.06	0.04
792.362	0.04
792.665	0.04
792.967	0.04
793.27	0.04
793.572	0.04
793.874	0.04
794.177	0.04
794.479	0.03
794.781	0.04
795.083	0.04
795.385	0.04
795.687	0.04
795.989	0.04
796.29	0.04
796.592	0.04
796.894	0.04
797.195	0.04
797.497	0.04
797.798	0.04
798.1	0.03
798.401	0.04
798.702	0.04
799.003	0.04
799.304	0.04
799.605	0.04
799.906	0.04
800.207	0.04
800.508	0.04
800.809	0.04
801.11	0.04
801.41	0.04
801.711	0.04
802.011	0.04
802.312	0.04
802.612	0.04
802.913	0.04
803.213	0.05
803.513	0.05
803.813	0.05
804.113	0.05
804.413	0.05
804.713	0.05
805.013	0.05
805.313	0.05
805.613	0.05
805.912	0.04
806.212	0.05
806.511	0.04
806.811	0.05
807.11	0.05
807.41	0.05
807.709	0.05
808.008	0.04
808.307	0.04
808.606	0.04
808.905	0.04
809.204	0.04
809.503	0.04
809.802	0.04
810.101	0.04
810.399	0.04
810.698	0.03
810.997	0.03
811.295	0.03
811.593	0.03
811.892	0.03
812.19	0.04
812.488	0.04
812.786	0.04
813.084	0.04
813.383	0.04
813.68	0.03
813.978	0.04
814.276	0.03
814.574	0.03
814.872	0.03
815.169	0.03
815.467	0.03
815.764	0.03
816.062	0.04
816.359	0.04
816.656	0.03
816.954	0.03
817.251	0.03
817.548	0.03
817.845	0.04
818.142	0.04
818.439	0.04
818.735	0.04
819.032	0.03
819.329	0.04
819.626	0.04
819.922	0.03
820.219	0.04
820.515	0.03
820.811	0.04
821.108	0.03
821.404	0.03
821.7	0.03
821.996	0.03
822.292	0.03
822.588	0.04
822.884	0.04
823.18	0.03
823.475	0.03
823.771	0.04
824.067	0.04
824.362	0.04
824.658	0.05
824.953	0.04
825.249	0.05
825.544	0.05
825.839	0.05
826.134	0.05
826.429	0.04
826.724	0.04
827.019	0.04
827.314	0.04
827.609	0.04
827.904	0.04
828.198	0.03
828.493	0.03
828.787	0.04
829.082	0.03
829.376	0.04
829.671	0.04
829.965	0.04
830.259	0.04
830.553	0.04
830.847	0.04
831.141	0.04
831.435	0.04
831.729	0.03
832.023	0.05
832.317	0.04
832.61	0.04
832.904	0.04
833.197	0.04
833.491	0.04
833.784	0.04
834.077	0.05
834.371	0.04
834.664	0.05
834.957	0.04
835.25	0.04
835.543	0.04
835.836	0.05
836.129	0.04
836.421	0.04
836.714	0.04
837.007	0.04
837.299	0.05
837.592	0.06
837.884	0.05
838.177	0.05
838.469	0.05
838.761	0.05
839.053	0.04
839.345	0.05
839.637	0.05
839.929	0.04
840.221	0.05
840.513	0.05
840.805	0.05
841.096	0.04
841.388	0.04
841.68	0.05
841.971	0.04
842.262	0.04
842.554	0.04
842.845	0.04
843.136	0.04
843.427	0.04
843.718	0.04
844.009	0.03
844.3	0.04
844.591	0.05
844.882	0.03
845.173	0.04
845.463	0.04
845.754	0.05
846.044	0.04
846.335	0.03
846.625	0.05
846.915	0.04
847.206	0.04
847.496	0.04
847.786	0.04
848.076	0.04
848.366	0.04
848.656	0.05
848.945	0.05
849.235	0.05
849.525	0.04
849.814	0.05
850.104	0.05
850.393	0.04
850.683	0.05
850.972	0.05
851.261	0.05
851.551	0.05
851.84	0.04
852.129	0.04
852.418	0.05
852.707	0.03
852.995	0.05
853.284	0.03
853.573	0.05
853.862	0.03
854.15	0.03
854.439	0.04
854.727	0.05
855.015	0.04
855.304	0.05
855.592	0.04
855.88	0.05
856.168	0.05
856.456	0.05
856.744	0.04
857.032	0.04
857.32	0.05
857.607	0.05
857.895	0.04
858.183	0.05
858.47	0.04
858.757	0.04
859.045	0.05
859.332	0.07
859.619	0.04
859.907	0.04
860.194	0.04
860.481	0.04
860.768	0.04
861.054	0.05
861.341	0.04
861.628	0.06
861.915	0.04
862.201	0.05
862.488	0.05
862.774	0.04
863.061	0.03
863.347	0.03
863.633	0.06
863.919	0.05
864.205	0.06
864.491	0.04
864.777	0.05
865.063	0.05
865.349	0.05
865.635	0.02
865.92	0.03
866.206	0.05
866.492	0.06
866.777	0.03
867.062	0.01
867.348	0.02
867.633	0.03
867.918	-0
868.203	0.03
868.488	0.06
868.773	0.06
869.058	0.04
869.343	0.02
869.628	0.07
869.912	0.06
870.197	0.05
870.482	0.08
870.766	0.08
871.05	0.06
871.335	0.04
871.619	0.07
871.903	0.06
872.187	0.05
872.471	0.05
872.755	0.04
873.039	0.06
873.323	0.07
873.607	0.07
873.89	0.04
874.174	0.08
874.458	0.09
874.741	0.08
875.024	0.07
875.308	0.02
875.591	0.04
875.874	-0.01
876.157	0.14
876.44	0.05
876.723	0.15
877.006	0.08
877.289	0.11
877.572	0.07
877.854	0.08
878.137	0.16
878.42	0.11
878.702	0.09
878.984	0.07
879.267	0.05
879.549	0.15
879.831	0.18
880.113	0.1
880.395	0.18
880.677	0.15
880.959	0.01
