Data from Rubpy_EV_1500_EDTA_Buffered_Absorbance_15-10-45-957.txt Node
Date: Tue Jun 30 15:10:45 BST 2026
User: fpm-admin
Spectrometer: OFX00224
Trigger mode: 0
Integration Time (sec): 7.000000E-2
Scans to average: 3
Nonlinearity correction enabled: false
Boxcar width: 0
Storing dark spectrum: false
XAxis mode: Wavelengths
Number of Pixels in Spectrum: 2136
>>>>>Begin Spectral Data<<<<<
154.91	0.19
155.289	0.15
155.669	-0.52
156.048	0.1
156.428	-0
156.807	0.03
157.186	-0
157.566	-0.06
157.945	-0.26
158.325	-0.9
158.704	-1.73
159.083	-0
159.462	-0.44
159.842	0.6
160.221	-0
160.6	0.02
160.979	0.21
161.359	-0.18
161.738	-0
162.117	0.06
162.496	0.28
162.875	0.11
163.254	-0.55
163.633	0.34
164.012	0.06
164.391	-0
164.77	0.51
165.149	0.28
165.528	0.56
165.907	0.48
166.286	-0.75
166.665	-0
167.044	0.26
167.423	-0.14
167.802	-0.78
168.181	0.36
168.559	-0.48
168.938	-0
169.317	-0
169.696	0.37
170.074	0.62
170.453	-1.03
170.832	-0
171.21	-0
171.589	-0
171.968	0.17
172.346	-0.23
172.725	-0.78
173.103	-0.2
173.482	-0.4
173.861	-0.33
174.239	0.16
174.617	-0
174.996	-0.28
175.374	-0
175.753	0.07
176.131	-0
176.51	0.12
176.888	0.05
177.266	-0
177.645	0.02
178.023	-0
178.401	-0.15
178.779	-0.14
179.158	0.05
179.536	-0
179.914	0.56
180.292	-0
180.67	-0.09
181.048	-0
181.427	0.02
181.805	-0.3
182.183	-0
182.561	-0.2
182.939	-0
183.317	-0
183.695	0.59
184.073	0.45
184.451	-0.07
184.829	-0.24
185.206	-0.01
185.584	0.4
185.962	0.35
186.34	0.05
186.718	0.33
187.096	-0
187.473	-0
187.851	-0
188.229	-0.17
188.607	0.32
188.984	0.35
189.362	0.32
189.74	0.38
190.117	0.25
190.495	0.08
190.872	0.2
191.25	0.23
191.627	0.26
192.005	0.32
192.382	0.17
192.76	0.28
193.137	0.23
193.515	0.31
193.892	0.25
194.269	0.24
194.647	0.32
195.024	0.2
195.401	0.16
195.779	0.33
196.156	0.24
196.533	0.4
196.91	0.22
197.288	0.12
197.665	0.27
198.042	0.12
198.419	0.16
198.796	0.23
199.173	0.37
199.55	0.26
199.927	0.24
200.304	0.35
200.681	0.18
201.058	0.19
201.435	0.21
201.812	0.21
202.189	0.3
202.566	0.32
202.943	0.07
203.32	0.27
203.697	0.24
204.073	0.19
204.45	0.14
204.827	0.33
205.204	0.28
205.58	0.21
205.957	0.24
206.334	0.26
206.71	0.2
207.087	0.37
207.464	0.27
207.84	0.42
208.217	0.27
208.593	0.29
208.97	0.26
209.346	0.29
209.723	0.32
210.099	0.29
210.476	0.25
210.852	0.3
211.228	0.39
211.605	0.24
211.981	0.28
212.357	0.33
212.733	0.19
213.11	0.33
213.486	0.14
213.862	0.24
214.238	0.18
214.614	0.31
214.991	0.26
215.367	0.28
215.743	0.18
216.119	0.17
216.495	0.35
216.871	0.39
217.247	0.25
217.623	0.36
217.999	0.27
218.375	0.26
218.751	0.21
219.127	0.34
219.502	0.27
219.878	0.18
220.254	0.23
220.63	0.32
221.006	0.28
221.381	0.17
221.757	0.22
222.133	0.38
222.508	0.23
222.884	0.28
223.26	0.27
223.635	0.21
224.011	0.29
224.386	0.24
224.762	0.21
225.137	0.17
225.513	0.18
225.888	0.31
226.264	0.34
226.639	0.31
227.014	0.29
227.39	0.55
227.765	0.31
228.14	0.23
228.516	0.21
228.891	0.36
229.266	0.27
229.641	0.31
230.017	0.25
230.392	0.24
230.767	0.31
231.142	0.38
231.517	0.31
231.892	0.31
232.267	0.24
232.642	0.25
233.017	0.35
233.392	0.34
233.767	0.3
234.142	0.23
234.517	0.23
234.892	0.18
235.267	0.39
235.641	0.32
236.016	0.11
236.391	0.22
236.766	0.07
237.14	0.25
237.515	0.27
237.89	0.46
238.264	0.28
238.639	0.26
239.014	0.21
239.388	0.26
239.763	0.52
240.137	0.2
240.512	0.26
240.886	0.23
241.261	0.25
241.635	0.38
242.009	0.3
242.384	0.35
242.758	0.25
243.132	0.21
243.507	0.3
243.881	0.22
244.255	0.29
244.629	0.44
245.004	0.33
245.378	0.32
245.752	0.38
246.126	0.3
246.5	0.38
246.874	0.19
247.248	0.17
247.622	0.33
247.996	0.28
248.37	0.18
248.744	0.24
249.118	0.24
249.492	0.27
249.866	0.25
250.24	0.29
250.613	0.2
250.987	0.21
251.361	0.26
251.735	0.18
252.108	0.31
252.482	0.25
252.856	0.2
253.229	0.2
253.603	0.35
253.977	0.27
254.35	0.13
254.724	0.25
255.097	0.24
255.471	0.24
255.844	0.33
256.218	0.29
256.591	0.13
256.964	0.24
257.338	0.34
257.711	0.29
258.084	0.27
258.458	0.32
258.831	0.32
259.204	0.31
259.577	0.33
259.95	0.31
260.323	0.23
260.697	0.25
261.07	0.34
261.443	0.19
261.816	0.27
262.189	0.22
262.562	0.33
262.935	0.28
263.308	0.3
263.68	0.27
264.053	0.35
264.426	0.3
264.799	0.31
265.172	0.29
265.545	0.33
265.917	0.24
266.29	0.29
266.663	0.31
267.035	0.26
267.408	0.31
267.781	0.36
268.153	0.3
268.526	0.32
268.898	0.42
269.271	0.3
269.643	0.31
270.016	0.31
270.388	0.29
270.76	0.26
271.133	0.29
271.505	0.37
271.877	0.23
272.25	0.28
272.622	0.28
272.994	0.25
273.366	0.3
273.739	0.35
274.111	0.29
274.483	0.23
274.855	0.32
275.227	0.32
275.599	0.23
275.971	0.26
276.343	0.31
276.715	0.16
277.087	0.28
277.459	0.28
277.831	0.23
278.203	0.3
278.574	0.24
278.946	0.36
279.318	0.21
279.69	0.28
280.061	0.23
280.433	0.36
280.805	0.3
281.176	0.35
281.548	0.28
281.92	0.26
282.291	0.36
282.663	0.35
283.034	0.28
283.406	0.23
283.777	0.3
284.148	0.3
284.52	0.35
284.891	0.24
285.262	0.29
285.634	0.24
286.005	0.4
286.376	0.28
286.747	0.28
287.119	0.3
287.49	0.22
287.861	0.26
288.232	0.29
288.603	0.32
288.974	0.29
289.345	0.24
289.716	0.37
290.087	0.32
290.458	0.29
290.829	0.38
291.2	0.24
291.571	0.25
291.941	0.29
292.312	0.31
292.683	0.32
293.054	0.36
293.424	0.15
293.795	0.24
294.166	0.3
294.536	0.31
294.907	0.24
295.277	0.3
295.648	0.29
296.018	0.33
296.389	0.34
296.759	0.3
297.13	0.37
297.5	0.29
297.871	0.3
298.241	0.25
298.611	0.27
298.981	0.28
299.352	0.3
299.722	0.26
300.092	0.25
300.462	0.27
300.832	0.25
301.202	0.26
301.573	0.25
301.943	0.25
302.313	0.24
302.683	0.26
303.053	0.26
303.422	0.25
303.792	0.23
304.162	0.25
304.532	0.25
304.902	0.23
305.272	0.25
305.641	0.23
306.011	0.24
306.381	0.25
306.75	0.25
307.12	0.26
307.49	0.27
307.859	0.28
308.229	0.26
308.598	0.28
308.968	0.26
309.337	0.27
309.707	0.28
310.076	0.27
310.445	0.28
310.815	0.28
311.184	0.28
311.553	0.3
311.923	0.28
312.292	0.3
312.661	0.29
313.03	0.29
313.399	0.31
313.768	0.3
314.137	0.29
314.506	0.3
314.875	0.3
315.244	0.3
315.613	0.29
315.982	0.29
316.351	0.29
316.72	0.29
317.089	0.29
317.458	0.29
317.826	0.29
318.195	0.28
318.564	0.29
318.933	0.28
319.301	0.27
319.67	0.27
320.038	0.27
320.407	0.26
320.775	0.27
321.144	0.27
321.512	0.26
321.881	0.26
322.249	0.26
322.618	0.26
322.986	0.25
323.354	0.25
323.723	0.26
324.091	0.26
324.459	0.25
324.827	0.25
325.195	0.25
325.564	0.25
325.932	0.24
326.3	0.24
326.668	0.25
327.036	0.24
327.404	0.25
327.772	0.24
328.14	0.25
328.508	0.24
328.875	0.25
329.243	0.25
329.611	0.26
329.979	0.25
330.346	0.25
330.714	0.25
331.082	0.25
331.449	0.26
331.817	0.26
332.185	0.26
332.552	0.26
332.92	0.27
333.287	0.27
333.655	0.27
334.022	0.28
334.389	0.28
334.757	0.28
335.124	0.29
335.491	0.29
335.859	0.29
336.226	0.29
336.593	0.3
336.96	0.3
337.327	0.3
337.695	0.3
338.062	0.31
338.429	0.31
338.796	0.32
339.163	0.32
339.53	0.33
339.897	0.33
340.263	0.34
340.63	0.34
340.997	0.35
341.364	0.35
341.731	0.36
342.097	0.37
342.464	0.37
342.831	0.38
343.197	0.38
343.564	0.39
343.931	0.39
344.297	0.4
344.664	0.41
345.03	0.41
345.396	0.42
345.763	0.43
346.129	0.44
346.496	0.43
346.862	0.44
347.228	0.45
347.594	0.45
347.961	0.46
348.327	0.47
348.693	0.48
349.059	0.49
349.425	0.49
349.791	0.5
350.157	0.51
350.523	0.51
350.889	0.53
351.255	0.54
351.621	0.55
351.987	0.55
352.353	0.57
352.719	0.58
353.084	0.59
353.45	0.6
353.816	0.61
354.181	0.62
354.547	0.64
354.913	0.65
355.278	0.65
355.644	0.67
356.009	0.68
356.375	0.69
356.74	0.71
357.106	0.73
357.471	0.74
357.836	0.76
358.202	0.76
358.567	0.79
358.932	0.8
359.297	0.81
359.663	0.82
360.028	0.83
360.393	0.85
360.758	0.85
361.123	0.86
361.488	0.87
361.853	0.89
362.218	0.89
362.583	0.9
362.948	0.91
363.312	0.93
363.677	0.94
364.042	0.95
364.407	0.97
364.772	0.98
365.136	0.98
365.501	1.02
365.865	1.03
366.23	1.06
366.595	1.07
366.959	1.1
367.324	1.1
367.688	1.13
368.052	1.14
368.417	1.15
368.781	1.17
369.145	1.18
369.51	1.18
369.874	1.19
370.238	1.18
370.602	1.2
370.967	1.18
371.331	1.18
371.695	1.18
372.059	1.19
372.423	1.16
372.787	1.17
373.151	1.16
373.515	1.16
373.878	1.15
374.242	1.15
374.606	1.14
374.97	1.16
375.334	1.15
375.697	1.15
376.061	1.17
376.425	1.18
376.788	1.17
377.152	1.18
377.515	1.18
377.879	1.2
378.242	1.21
378.606	1.23
378.969	1.24
379.333	1.25
379.696	1.25
380.059	1.26
380.422	1.29
380.786	1.31
381.149	1.34
381.512	1.35
381.875	1.37
382.238	1.42
382.601	1.45
382.964	1.45
383.327	1.48
383.69	1.51
384.053	1.55
384.416	1.6
384.779	1.6
385.142	1.64
385.504	1.66
385.867	1.69
386.23	1.7
386.593	1.73
386.955	1.7
387.318	1.72
387.68	1.71
388.043	1.72
388.405	1.69
388.768	1.69
389.13	1.7
389.493	1.7
389.855	1.68
390.217	1.66
390.58	1.64
390.942	1.63
391.304	1.67
391.666	1.68
392.028	1.67
392.391	1.73
392.753	1.73
393.115	1.8
393.477	1.84
393.839	1.87
394.201	1.91
394.563	1.94
394.924	2.03
395.286	2.07
395.648	2.05
396.01	2.07
396.371	2.11
396.733	2.07
397.095	2.07
397.456	2.09
397.818	2.01
398.18	2.01
398.541	2.04
398.903	2.05
399.264	2.04
399.625	2
399.987	2.03
400.348	1.98
400.709	1.97
401.071	1.84
401.432	1.76
401.793	1.69
402.154	1.61
402.515	1.49
402.876	1.45
403.238	1.34
403.599	1.27
403.96	1.17
404.32	1.09
404.681	1.02
405.042	0.95
405.403	0.89
405.764	0.82
406.125	0.77
406.485	0.72
406.846	0.68
407.207	0.63
407.567	0.59
407.928	0.56
408.288	0.52
408.649	0.49
409.009	0.48
409.37	0.45
409.73	0.43
410.091	0.4
410.451	0.39
410.811	0.37
411.171	0.35
411.532	0.34
411.892	0.32
412.252	0.31
412.612	0.3
412.972	0.29
413.332	0.28
413.692	0.27
414.052	0.26
414.412	0.24
414.772	0.25
415.132	0.23
415.492	0.23
415.851	0.22
416.211	0.22
416.571	0.21
416.931	0.2
417.29	0.19
417.65	0.19
418.009	0.19
418.369	0.18
418.728	0.18
419.088	0.17
419.447	0.17
419.807	0.16
420.166	0.16
420.525	0.16
420.884	0.16
421.244	0.16
421.603	0.15
421.962	0.15
422.321	0.15
422.68	0.15
423.039	0.14
423.398	0.15
423.757	0.15
424.116	0.14
424.475	0.14
424.834	0.14
425.193	0.13
425.551	0.13
425.91	0.13
426.269	0.13
426.628	0.13
426.986	0.13
427.345	0.13
427.703	0.12
428.062	0.12
428.42	0.12
428.779	0.12
429.137	0.12
429.496	0.12
429.854	0.12
430.212	0.12
430.57	0.11
430.929	0.11
431.287	0.11
431.645	0.11
432.003	0.11
432.361	0.11
432.719	0.11
433.077	0.11
433.435	0.11
433.793	0.11
434.151	0.09
434.509	0.1
434.866	0.1
435.224	0.1
435.582	0.1
435.94	0.11
436.297	0.1
436.655	0.1
437.012	0.1
437.37	0.1
437.727	0.1
438.085	0.09
438.442	0.1
438.8	0.09
439.157	0.09
439.514	0.1
439.872	0.09
440.229	0.09
440.586	0.09
440.943	0.09
441.3	0.09
441.657	0.09
442.014	0.09
442.371	0.09
442.728	0.08
443.085	0.08
443.442	0.08
443.799	0.08
444.156	0.08
444.513	0.08
444.869	0.07
445.226	0.08
445.583	0.08
445.939	0.08
446.296	0.08
446.652	0.08
447.009	0.07
447.365	0.06
447.722	0.07
448.078	0.06
448.434	0.08
448.791	0.07
449.147	0.07
449.503	0.06
449.859	0.06
450.215	0.07
450.571	0.07
450.928	0.07
451.284	0.06
451.64	0.07
451.995	0.07
452.351	0.06
452.707	0.06
453.063	0.05
453.419	0.06
453.775	0.06
454.13	0.06
454.486	0.06
454.842	0.05
455.197	0.05
455.553	0.05
455.908	0.05
456.264	0.04
456.619	0.04
456.975	0.04
457.33	0.04
457.685	0.04
458.04	0.03
458.396	0.03
458.751	0.04
459.106	0.04
459.461	0.03
459.816	0.03
460.171	0.02
460.526	0.02
460.881	0.02
461.236	0.01
461.591	0.02
461.946	0.01
462.301	0.01
462.655	0.01
463.01	0.02
463.365	0.01
463.719	0.01
464.074	0
464.428	-0.01
464.783	-0
465.137	-0.01
465.492	-0.01
465.846	0
466.201	-0
466.555	0
466.909	-0
467.263	0.01
467.618	0.01
467.972	0
468.326	-0
468.68	-0.01
469.034	-0.01
469.388	-0
469.742	-0.01
470.096	-0.01
470.45	-0.01
470.804	0
471.157	0
471.511	-0
471.865	0
472.218	0
472.572	0
472.926	0.01
473.279	0.01
473.633	0.01
473.986	0.02
474.34	0.02
474.693	0.02
475.046	0.03
475.4	0.04
475.753	0.04
476.106	0.04
476.459	0.04
476.812	0.05
477.165	0.06
477.519	0.06
477.872	0.06
478.224	0.07
478.577	0.06
478.93	0.08
479.283	0.07
479.636	0.08
479.989	0.08
480.341	0.09
480.694	0.08
481.047	0.09
481.399	0.09
481.752	0.1
482.104	0.1
482.457	0.1
482.809	0.1
483.162	0.1
483.514	0.1
483.866	0.11
484.219	0.11
484.571	0.11
484.923	0.12
485.275	0.12
485.627	0.12
485.979	0.12
486.331	0.12
486.683	0.13
487.035	0.13
487.387	0.14
487.739	0.14
488.091	0.14
488.443	0.13
488.794	0.13
489.146	0.14
489.498	0.14
489.849	0.14
490.201	0.14
490.552	0.15
490.904	0.14
491.255	0.15
491.607	0.15
491.958	0.15
492.309	0.15
492.661	0.16
493.012	0.16
493.363	0.16
493.714	0.16
494.065	0.16
494.416	0.16
494.767	0.17
495.118	0.18
495.469	0.18
495.82	0.17
496.171	0.18
496.522	0.18
496.872	0.18
497.223	0.19
497.574	0.19
497.924	0.19
498.275	0.19
498.626	0.19
498.976	0.19
499.327	0.2
499.677	0.2
500.027	0.2
500.378	0.2
500.728	0.21
501.078	0.21
501.428	0.21
501.779	0.22
502.129	0.22
502.479	0.22
502.829	0.23
503.179	0.23
503.529	0.22
503.879	0.23
504.229	0.23
504.578	0.24
504.928	0.23
505.278	0.24
505.628	0.25
505.977	0.25
506.327	0.24
506.676	0.25
507.026	0.25
507.375	0.25
507.725	0.26
508.074	0.25
508.424	0.26
508.773	0.26
509.122	0.27
509.471	0.27
509.82	0.27
510.17	0.27
510.519	0.27
510.868	0.28
511.217	0.28
511.566	0.29
511.915	0.29
512.263	0.28
512.612	0.29
512.961	0.29
513.31	0.3
513.659	0.29
514.007	0.3
514.356	0.3
514.704	0.3
515.053	0.31
515.401	0.31
515.75	0.31
516.098	0.32
516.447	0.32
516.795	0.32
517.143	0.32
517.491	0.32
517.839	0.33
518.188	0.33
518.536	0.33
518.884	0.33
519.232	0.33
519.58	0.34
519.928	0.34
520.275	0.34
520.623	0.34
520.971	0.35
521.319	0.36
521.666	0.35
522.014	0.36
522.362	0.36
522.709	0.36
523.057	0.37
523.404	0.36
523.752	0.37
524.099	0.37
524.446	0.37
524.794	0.37
525.141	0.38
525.488	0.39
525.835	0.39
526.182	0.39
526.529	0.39
526.876	0.39
527.223	0.4
527.57	0.4
527.917	0.4
528.264	0.4
528.611	0.4
528.958	0.41
529.304	0.42
529.651	0.41
529.998	0.41
530.344	0.42
530.691	0.42
531.037	0.42
531.384	0.42
531.73	0.43
532.076	0.43
532.423	0.43
532.769	0.44
533.115	0.44
533.461	0.44
533.807	0.45
534.154	0.45
534.5	0.45
534.846	0.45
535.192	0.46
535.537	0.47
535.883	0.47
536.229	0.47
536.575	0.47
536.921	0.48
537.266	0.48
537.612	0.48
537.957	0.49
538.303	0.49
538.649	0.49
538.994	0.49
539.339	0.5
539.685	0.51
540.03	0.51
540.375	0.51
540.721	0.51
541.066	0.51
541.411	0.52
541.756	0.52
542.101	0.53
542.446	0.53
542.791	0.53
543.136	0.54
543.481	0.54
543.825	0.55
544.17	0.55
544.515	0.55
544.86	0.56
545.204	0.56
545.549	0.56
545.893	0.57
546.238	0.57
546.582	0.58
546.927	0.58
547.271	0.58
547.615	0.58
547.96	0.59
548.304	0.59
548.648	0.6
548.992	0.6
549.336	0.6
549.68	0.61
550.024	0.61
550.368	0.61
550.712	0.61
551.056	0.62
551.4	0.62
551.743	0.62
552.087	0.63
552.431	0.63
552.774	0.63
553.118	0.63
553.462	0.64
553.805	0.64
554.148	0.65
554.492	0.64
554.835	0.64
555.178	0.65
555.522	0.65
555.865	0.65
556.208	0.65
556.551	0.66
556.894	0.66
557.237	0.66
557.58	0.66
557.923	0.66
558.266	0.67
558.609	0.66
558.952	0.67
559.294	0.68
559.637	0.67
559.98	0.67
560.322	0.68
560.665	0.68
561.007	0.68
561.35	0.69
561.692	0.69
562.034	0.69
562.377	0.69
562.719	0.7
563.061	0.69
563.403	0.69
563.745	0.69
564.088	0.7
564.43	0.7
564.772	0.7
565.113	0.7
565.455	0.7
565.797	0.7
566.139	0.7
566.481	0.71
566.822	0.71
567.164	0.71
567.506	0.71
567.847	0.71
568.189	0.71
568.53	0.71
568.872	0.71
569.213	0.72
569.554	0.72
569.895	0.72
570.237	0.72
570.578	0.72
570.919	0.71
571.26	0.71
571.601	0.72
571.942	0.72
572.283	0.72
572.624	0.72
572.965	0.72
573.306	0.72
573.646	0.72
573.987	0.72
574.328	0.72
574.668	0.72
575.009	0.72
575.349	0.72
575.69	0.72
576.03	0.73
576.37	0.72
576.711	0.72
577.051	0.72
577.391	0.72
577.731	0.73
578.072	0.72
578.412	0.72
578.752	0.73
579.092	0.73
579.431	0.72
579.771	0.72
580.111	0.72
580.451	0.71
580.791	0.72
581.13	0.73
581.47	0.73
581.81	0.73
582.149	0.73
582.489	0.74
582.828	0.74
583.167	0.73
583.507	0.71
583.846	0.68
584.185	0.7
584.525	0.72
584.864	0.73
585.203	0.74
585.542	0.75
585.881	0.76
586.22	0.76
586.559	0.76
586.898	0.75
587.236	0.75
587.575	0.75
587.914	0.76
588.252	0.76
588.591	0.77
588.93	0.78
589.268	0.78
589.607	0.78
589.945	0.78
590.283	0.78
590.622	0.79
590.96	0.79
591.298	0.79
591.636	0.8
591.974	0.8
592.313	0.81
592.651	0.81
592.989	0.81
593.326	0.82
593.664	0.82
594.002	0.83
594.34	0.83
594.678	0.83
595.015	0.83
595.353	0.82
595.691	0.82
596.028	0.84
596.366	0.84
596.703	0.85
597.04	0.85
597.378	0.85
597.715	0.85
598.052	0.86
598.389	0.86
598.726	0.87
599.064	0.87
599.401	0.87
599.738	0.87
600.074	0.88
600.411	0.88
600.748	0.88
601.085	0.87
601.422	0.87
601.758	0.88
602.095	0.87
602.432	0.87
602.768	0.87
603.105	0.88
603.441	0.88
603.777	0.88
604.114	0.88
604.45	0.88
604.786	0.88
605.122	0.88
605.459	0.88
605.795	0.88
606.131	0.88
606.467	0.88
606.803	0.88
607.139	0.88
607.474	0.88
607.81	0.87
608.146	0.87
608.482	0.88
608.817	0.87
609.153	0.87
609.488	0.86
609.824	0.86
610.159	0.86
610.495	0.86
610.83	0.86
611.165	0.86
611.5	0.86
611.836	0.86
612.171	0.85
612.506	0.85
612.841	0.85
613.176	0.85
613.511	0.84
613.845	0.84
614.18	0.84
614.515	0.84
614.85	0.84
615.184	0.83
615.519	0.83
615.854	0.83
616.188	0.83
616.523	0.82
616.857	0.82
617.191	0.82
617.526	0.82
617.86	0.81
618.194	0.81
618.528	0.81
618.862	0.8
619.196	0.81
619.53	0.8
619.864	0.8
620.198	0.8
620.532	0.79
620.866	0.79
621.2	0.78
621.533	0.78
621.867	0.78
622.201	0.78
622.534	0.77
622.868	0.77
623.201	0.77
623.534	0.77
623.868	0.77
624.201	0.76
624.534	0.76
624.868	0.76
625.201	0.76
625.534	0.75
625.867	0.75
626.2	0.75
626.533	0.74
626.865	0.74
627.198	0.74
627.531	0.73
627.864	0.73
628.196	0.72
628.529	0.73
628.862	0.72
629.194	0.72
629.527	0.71
629.859	0.71
630.191	0.71
630.524	0.7
630.856	0.7
631.188	0.7
631.52	0.69
631.852	0.68
632.184	0.68
632.516	0.68
632.848	0.67
633.18	0.67
633.512	0.66
633.844	0.66
634.175	0.65
634.507	0.64
634.839	0.64
635.17	0.64
635.502	0.63
635.833	0.63
636.165	0.62
636.496	0.62
636.827	0.62
637.159	0.61
637.49	0.61
637.821	0.6
638.152	0.6
638.483	0.59
638.814	0.59
639.145	0.58
639.476	0.58
639.807	0.57
640.137	0.57
640.468	0.57
640.799	0.56
641.129	0.56
641.46	0.55
641.791	0.54
642.121	0.54
642.451	0.54
642.782	0.53
643.112	0.53
643.442	0.52
643.773	0.52
644.103	0.51
644.433	0.51
644.763	0.51
645.093	0.51
645.423	0.5
645.753	0.5
646.082	0.5
646.412	0.5
646.742	0.5
647.072	0.5
647.401	0.5
647.731	0.5
648.06	0.49
648.39	0.49
648.719	0.49
649.048	0.48
649.378	0.48
649.707	0.48
650.036	0.48
650.365	0.48
650.694	0.47
651.023	0.48
651.352	0.47
651.681	0.47
652.01	0.47
652.339	0.47
652.668	0.47
652.996	0.47
653.325	0.47
653.654	0.46
653.982	0.47
654.311	0.47
654.639	0.46
654.967	0.47
655.296	0.47
655.624	0.46
655.952	0.46
656.28	0.46
656.609	0.46
656.937	0.46
657.265	0.48
657.593	0.45
657.92	0.3
658.248	0.24
658.576	0.22
658.904	0.31
659.231	0.4
659.559	0.45
659.887	0.45
660.214	0.45
660.542	0.46
660.869	0.45
661.196	0.46
661.524	0.45
661.851	0.46
662.178	0.45
662.505	0.45
662.832	0.45
663.159	0.45
663.486	0.45
663.813	0.44
664.14	0.45
664.467	0.45
664.794	0.44
665.12	0.44
665.447	0.45
665.774	0.45
666.1	0.44
666.427	0.44
666.753	0.44
667.079	0.44
667.406	0.44
667.732	0.43
668.058	0.44
668.384	0.44
668.71	0.43
669.036	0.43
669.362	0.43
669.688	0.43
670.014	0.42
670.34	0.43
670.666	0.42
670.991	0.42
671.317	0.42
671.643	0.41
671.968	0.41
672.294	0.41
672.619	0.41
672.945	0.41
673.27	0.4
673.595	0.4
673.92	0.4
674.246	0.4
674.571	0.4
674.896	0.39
675.221	0.4
675.546	0.39
675.87	0.39
676.195	0.39
676.52	0.38
676.845	0.38
677.169	0.37
677.494	0.37
677.819	0.37
678.143	0.37
678.468	0.36
678.792	0.36
679.116	0.36
679.44	0.36
679.765	0.36
680.089	0.35
680.413	0.34
680.737	0.34
681.061	0.34
681.385	0.34
681.709	0.33
682.033	0.33
682.356	0.32
682.68	0.32
683.004	0.32
683.327	0.32
683.651	0.31
683.974	0.31
684.298	0.31
684.621	0.3
684.944	0.3
685.268	0.3
685.591	0.3
685.914	0.29
686.237	0.29
686.56	0.29
686.883	0.28
687.206	0.28
687.529	0.27
687.852	0.27
688.175	0.27
688.497	0.27
688.82	0.26
689.142	0.26
689.465	0.26
689.787	0.26
690.11	0.25
690.432	0.25
690.755	0.25
691.077	0.24
691.399	0.24
691.721	0.24
692.043	0.24
692.365	0.23
692.687	0.23
693.009	0.23
693.331	0.23
693.653	0.22
693.974	0.22
694.296	0.21
694.618	0.21
694.939	0.21
695.261	0.21
695.582	0.21
695.904	0.21
696.225	0.2
696.546	0.2
696.868	0.2
697.189	0.2
697.51	0.19
697.831	0.19
698.152	0.19
698.473	0.2
698.794	0.19
699.114	0.19
699.435	0.18
699.756	0.18
700.077	0.18
700.397	0.18
700.718	0.17
701.038	0.17
701.359	0.18
701.679	0.17
701.999	0.17
702.32	0.17
702.64	0.17
702.96	0.17
703.28	0.17
703.6	0.17
703.92	0.17
704.24	0.17
704.56	0.16
704.879	0.16
705.199	0.16
705.519	0.15
705.838	0.16
706.158	0.16
706.478	0.16
706.797	0.16
707.116	0.16
707.436	0.16
707.755	0.16
708.074	0.16
708.393	0.16
708.712	0.16
709.031	0.15
709.35	0.15
709.669	0.15
709.988	0.15
710.307	0.15
710.626	0.15
710.944	0.15
711.263	0.15
711.582	0.14
711.9	0.14
712.219	0.14
712.537	0.14
712.855	0.14
713.174	0.14
713.492	0.14
713.81	0.14
714.128	0.14
714.446	0.14
714.764	0.14
715.082	0.14
715.4	0.14
715.718	0.14
716.035	0.14
716.353	0.14
716.671	0.14
716.988	0.14
717.306	0.14
717.623	0.14
717.941	0.15
718.258	0.15
718.575	0.15
718.893	0.15
719.21	0.15
719.527	0.15
719.844	0.15
720.161	0.15
720.478	0.15
720.795	0.15
721.112	0.15
721.428	0.15
721.745	0.15
722.062	0.15
722.378	0.16
722.695	0.15
723.011	0.16
723.328	0.15
723.644	0.16
723.96	0.15
724.276	0.15
724.593	0.16
724.909	0.16
725.225	0.16
725.541	0.16
725.857	0.16
726.173	0.16
726.488	0.16
726.804	0.16
727.12	0.16
727.435	0.16
727.751	0.17
728.067	0.17
728.382	0.17
728.697	0.17
729.013	0.17
729.328	0.16
729.643	0.16
729.958	0.17
730.273	0.17
730.588	0.17
730.903	0.16
731.218	0.17
731.533	0.17
731.848	0.17
732.163	0.17
732.477	0.17
732.792	0.17
733.107	0.16
733.421	0.16
733.736	0.16
734.05	0.17
734.364	0.17
734.678	0.17
734.993	0.17
735.307	0.17
735.621	0.16
735.935	0.16
736.249	0.16
736.563	0.17
736.877	0.16
737.19	0.17
737.504	0.16
737.818	0.16
738.131	0.16
738.445	0.16
738.758	0.16
739.072	0.16
739.385	0.16
739.698	0.15
740.012	0.16
740.325	0.15
740.638	0.16
740.951	0.15
741.264	0.15
741.577	0.15
741.89	0.15
742.203	0.15
742.515	0.15
742.828	0.15
743.141	0.15
743.453	0.15
743.766	0.15
744.078	0.15
744.391	0.15
744.703	0.15
745.015	0.14
745.327	0.14
745.639	0.14
745.952	0.14
746.264	0.14
746.575	0.14
746.887	0.14
747.199	0.13
747.511	0.13
747.823	0.13
748.134	0.13
748.446	0.13
748.757	0.13
749.069	0.12
749.38	0.12
749.692	0.12
750.003	0.12
750.314	0.12
750.625	0.12
750.936	0.12
751.248	0.12
751.559	0.12
751.869	0.11
752.18	0.11
752.491	0.11
752.802	0.11
753.112	0.11
753.423	0.1
753.734	0.1
754.044	0.1
754.355	0.1
754.665	0.1
754.975	0.1
755.285	0.09
755.596	0.09
755.906	0.09
756.216	0.09
756.526	0.09
756.836	0.09
757.146	0.09
757.455	0.09
757.765	0.09
758.075	0.08
758.385	0.08
758.694	0.08
759.004	0.08
759.313	0.08
759.622	0.07
759.932	0.08
760.241	0.07
760.55	0.08
760.859	0.08
761.168	0.08
761.477	0.07
761.786	0.07
762.095	0.07
762.404	0.07
762.713	0.07
763.021	0.07
763.33	0.06
763.639	0.06
763.947	0.06
764.256	0.06
764.564	0.06
764.872	0.06
765.181	0.06
765.489	0.06
765.797	0.06
766.105	0.06
766.413	0.06
766.721	0.06
767.029	0.05
767.337	0.05
767.644	0.06
767.952	0.06
768.26	0.05
768.567	0.06
768.875	0.06
769.182	0.06
769.49	0.05
769.797	0.05
770.104	0.05
770.411	0.04
770.718	0.04
771.026	0.04
771.333	0.04
771.639	0.04
771.946	0.04
772.253	0.05
772.56	0.05
772.867	0.04
773.173	0.04
773.48	0.04
773.786	0.04
774.093	0.04
774.399	0.04
774.705	0.04
775.012	0.04
775.318	0.04
775.624	0.04
775.93	0.04
776.236	0.04
776.542	0.04
776.848	0.04
777.154	0.04
777.459	0.04
777.765	0.04
778.071	0.04
778.376	0.04
778.682	0.04
778.987	0.04
779.292	0.04
779.598	0.04
779.903	0.04
780.208	0.04
780.513	0.04
780.818	0.04
781.123	0.04
781.428	0.04
781.733	0.04
782.038	0.04
782.343	0.04
782.647	0.04
782.952	0.04
783.256	0.04
783.561	0.04
783.865	0.04
784.17	0.04
784.474	0.05
784.778	0.04
785.082	0.04
785.386	0.04
785.69	0.04
785.994	0.04
786.298	0.04
786.602	0.04
786.906	0.03
787.209	0.04
787.513	0.04
787.817	0.04
788.12	0.04
788.424	0.04
788.727	0.04
789.03	0.04
789.333	0.04
789.637	0.04
789.94	0.04
790.243	0.04
790.546	0.04
790.849	0.04
791.152	0.04
791.454	0.04
791.757	0.04
792.06	0.04
792.362	0.04
792.665	0.04
792.967	0.04
793.27	0.04
793.572	0.04
793.874	0.03
794.177	0.04
794.479	0.03
794.781	0.04
795.083	0.04
795.385	0.04
795.687	0.04
795.989	0.04
796.29	0.04
796.592	0.04
796.894	0.04
797.195	0.03
797.497	0.04
797.798	0.03
798.1	0.04
798.401	0.04
798.702	0.04
799.003	0.04
799.304	0.04
799.605	0.03
799.906	0.04
800.207	0.04
800.508	0.04
800.809	0.04
801.11	0.04
801.41	0.04
801.711	0.04
802.011	0.04
802.312	0.04
802.612	0.04
802.913	0.04
803.213	0.04
803.513	0.04
803.813	0.04
804.113	0.04
804.413	0.05
804.713	0.05
805.013	0.05
805.313	0.05
805.613	0.04
805.912	0.04
806.212	0.04
806.511	0.04
806.811	0.05
807.11	0.05
807.41	0.05
807.709	0.05
808.008	0.04
808.307	0.04
808.606	0.04
808.905	0.04
809.204	0.04
809.503	0.04
809.802	0.04
810.101	0.04
810.399	0.03
810.698	0.03
810.997	0.03
811.295	0.03
811.593	0.03
811.892	0.03
812.19	0.03
812.488	0.04
812.786	0.04
813.084	0.04
813.383	0.04
813.68	0.03
813.978	0.04
814.276	0.03
814.574	0.03
814.872	0.03
815.169	0.03
815.467	0.03
815.764	0.03
816.062	0.04
816.359	0.04
816.656	0.03
816.954	0.03
817.251	0.03
817.548	0.03
817.845	0.03
818.142	0.03
818.439	0.03
818.735	0.04
819.032	0.03
819.329	0.04
819.626	0.04
819.922	0.04
820.219	0.04
820.515	0.04
820.811	0.03
821.108	0.03
821.404	0.04
821.7	0.03
821.996	0.03
822.292	0.03
822.588	0.04
822.884	0.03
823.18	0.03
823.475	0.03
823.771	0.04
824.067	0.03
824.362	0.04
824.658	0.04
824.953	0.04
825.249	0.04
825.544	0.04
825.839	0.05
826.134	0.04
826.429	0.04
826.724	0.04
827.019	0.04
827.314	0.04
827.609	0.03
827.904	0.04
828.198	0.04
828.493	0.04
828.787	0.03
829.082	0.03
829.376	0.04
829.671	0.03
829.965	0.03
830.259	0.03
830.553	0.04
830.847	0.04
831.141	0.03
831.435	0.04
831.729	0.04
832.023	0.04
832.317	0.04
832.61	0.04
832.904	0.03
833.197	0.03
833.491	0.04
833.784	0.03
834.077	0.04
834.371	0.05
834.664	0.04
834.957	0.04
835.25	0.03
835.543	0.04
835.836	0.04
836.129	0.04
836.421	0.04
836.714	0.04
837.007	0.04
837.299	0.05
837.592	0.05
837.884	0.05
838.177	0.04
838.469	0.05
838.761	0.05
839.053	0.04
839.345	0.05
839.637	0.04
839.929	0.05
840.221	0.05
840.513	0.05
840.805	0.05
841.096	0.04
841.388	0.03
841.68	0.04
841.971	0.03
842.262	0.05
842.554	0.04
842.845	0.04
843.136	0.03
843.427	0.04
843.718	0.05
844.009	0.03
844.3	0.04
844.591	0.04
844.882	0.03
845.173	0.03
845.463	0.03
845.754	0.04
846.044	0.04
846.335	0.03
846.625	0.04
846.915	0.04
847.206	0.04
847.496	0.04
847.786	0.04
848.076	0.04
848.366	0.04
848.656	0.05
848.945	0.04
849.235	0.05
849.525	0.04
849.814	0.04
850.104	0.05
850.393	0.04
850.683	0.04
850.972	0.05
851.261	0.04
851.551	0.05
851.84	0.04
852.129	0.03
852.418	0.04
852.707	0.02
852.995	0.03
853.284	0.03
853.573	0.04
853.862	0.03
854.15	0.02
854.439	0.04
854.727	0.04
855.015	0.04
855.304	0.03
855.592	0.03
855.88	0.06
856.168	0.03
856.456	0.05
856.744	0.04
857.032	0.04
857.32	0.04
857.607	0.04
857.895	0.04
858.183	0.06
858.47	0.04
858.757	0.04
859.045	0.04
859.332	0.05
859.619	0.02
859.907	0.04
860.194	0.04
860.481	0.04
860.768	0.05
861.054	0.05
861.341	0.05
861.628	0.05
861.915	0.04
862.201	0.06
862.488	0.04
862.774	0.03
863.061	0.02
863.347	0.03
863.633	0.06
863.919	0.06
864.205	0.05
864.491	0.06
864.777	0.02
865.063	0.04
865.349	0.03
865.635	0.01
865.92	0.03
866.206	0.05
866.492	0.03
866.777	0.05
867.062	0.02
867.348	0.04
867.633	0.02
867.918	0.02
868.203	0.06
868.488	0.05
868.773	0.05
869.058	0.03
869.343	0.03
869.628	0.04
869.912	0.06
870.197	0.02
870.482	0.04
870.766	0.04
871.05	0.07
871.335	0.05
871.619	0.06
871.903	0.07
872.187	0.04
872.471	0.01
872.755	0.04
873.039	0.05
873.323	0.03
873.607	0.02
873.89	0.02
874.174	-0
874.458	0.02
874.741	0.05
875.024	0.01
875.308	-0.02
875.591	-0.03
875.874	0
876.157	0.06
876.44	-0.03
876.723	0.09
877.006	0.09
877.289	0.05
877.572	0.02
877.854	0.07
878.137	0.05
878.42	-0.02
878.702	0.07
878.984	0.03
879.267	0.04
879.549	0.09
879.831	0.07
880.113	0.05
880.395	0.02
880.677	0.07
880.959	-0.12
