Data from Rubpy_EV_1500_EDTA_Buffered_Absorbance_15-09-55-923.txt Node
Date: Tue Jun 30 15:09:55 BST 2026
User: fpm-admin
Spectrometer: OFX00224
Trigger mode: 0
Integration Time (sec): 7.000000E-2
Scans to average: 3
Nonlinearity correction enabled: false
Boxcar width: 0
Storing dark spectrum: false
XAxis mode: Wavelengths
Number of Pixels in Spectrum: 2136
>>>>>Begin Spectral Data<<<<<
154.91	0.79
155.289	-0.52
155.669	-0.29
156.048	-0
156.428	-0.18
156.807	0.39
157.186	-0
157.566	0.18
157.945	-0
158.325	-0
158.704	-0.6
159.083	-0
159.462	-1.02
159.842	-0
160.221	0.78
160.6	-0
160.979	-0
161.359	-0.45
161.738	-0
162.117	0.2
162.496	-0
162.875	-0.23
163.254	-0.32
163.633	0.15
164.012	1.04
164.391	1.51
164.77	0.29
165.149	-0
165.528	-0
165.907	-0
166.286	-0.55
166.665	-0
167.044	0.3
167.423	-0
167.802	-0
168.181	0.23
168.559	0.13
168.938	0.29
169.317	-0.78
169.696	-0
170.074	0.48
170.453	-0
170.832	-0
171.21	0.14
171.589	-0.39
171.968	0.87
172.346	-0.33
172.725	-0
173.103	0.26
173.482	-0.3
173.861	-0.54
174.239	0.05
174.617	-0
174.996	0.08
175.374	0.46
175.753	-0.53
176.131	0.01
176.51	-0
176.888	0.45
177.266	-0
177.645	-0.04
178.023	1.76
178.401	-0.15
178.779	-0.11
179.158	0.2
179.536	-0
179.914	-0
180.292	0.4
180.67	-0.17
181.048	-0.4
181.427	-0.03
181.805	-0.46
182.183	-0
182.561	0.65
182.939	-1.3
183.317	-0
183.695	0.48
184.073	-0.25
184.451	0.29
184.829	-0
185.206	-0.22
185.584	-0
185.962	-0.52
186.34	0.82
186.718	-0
187.096	-0.9
187.473	-0
187.851	0.13
188.229	-0.03
188.607	0.24
188.984	0.27
189.362	0.14
189.74	0.15
190.117	0.26
190.495	0.17
190.872	0.24
191.25	0.3
191.627	0.18
192.005	0.25
192.382	0.27
192.76	0.22
193.137	0.15
193.515	0.33
193.892	0.23
194.269	0.29
194.647	0.12
195.024	0.2
195.401	0.19
195.779	0.27
196.156	0.3
196.533	0.27
196.91	0.15
197.288	0.16
197.665	0.28
198.042	0.19
198.419	0.23
198.796	0.18
199.173	0.31
199.55	0.12
199.927	0.34
200.304	0.31
200.681	0.24
201.058	0.07
201.435	0.21
201.812	0.27
202.189	0.23
202.566	0.45
202.943	0.11
203.32	0.23
203.697	0.39
204.073	0.25
204.45	0.25
204.827	0.33
205.204	0.31
205.58	0.26
205.957	0.2
206.334	0.3
206.71	0.24
207.087	0.48
207.464	0.3
207.84	0.25
208.217	0.23
208.593	0.16
208.97	0.27
209.346	0.28
209.723	0.35
210.099	0.2
210.476	0.35
210.852	0.27
211.228	0.29
211.605	0.34
211.981	0.15
212.357	0.27
212.733	0.26
213.11	0.31
213.486	0.25
213.862	0.26
214.238	0.2
214.614	0.29
214.991	0.2
215.367	0.33
215.743	0.24
216.119	0.13
216.495	0.15
216.871	0.35
217.247	0.2
217.623	0.28
217.999	0.19
218.375	0.35
218.751	0.17
219.127	0.3
219.502	0.26
219.878	0.27
220.254	0.37
220.63	0.32
221.006	0.3
221.381	0.34
221.757	0.23
222.133	0.34
222.508	0.28
222.884	0.23
223.26	0.25
223.635	0.27
224.011	0.24
224.386	0.25
224.762	0.24
225.137	0.12
225.513	0.26
225.888	0.12
226.264	0.33
226.639	0.28
227.014	0.35
227.39	0.29
227.765	0.29
228.14	0.3
228.516	0.35
228.891	0.19
229.266	0.3
229.641	0.21
230.017	0.23
230.392	0.2
230.767	0.24
231.142	0.31
231.517	0.3
231.892	0.28
232.267	0.3
232.642	0.35
233.017	0.21
233.392	0.31
233.767	0.33
234.142	0.28
234.517	0.19
234.892	0.23
235.267	0.25
235.641	0.19
236.016	0.21
236.391	0.2
236.766	0.23
237.14	0.24
237.515	0.23
237.89	0.28
238.264	0.15
238.639	0.26
239.014	0.25
239.388	0.2
239.763	0.36
240.137	0.18
240.512	0.18
240.886	0.29
241.261	0.26
241.635	0.4
242.009	0.23
242.384	0.28
242.758	0.22
243.132	0.19
243.507	0.29
243.881	0.22
244.255	0.32
244.629	0.3
245.004	0.3
245.378	0.26
245.752	0.23
246.126	0.24
246.5	0.27
246.874	0.16
247.248	0.21
247.622	0.34
247.996	0.28
248.37	0.34
248.744	0.25
249.118	0.22
249.492	0.37
249.866	0.31
250.24	0.26
250.613	0.17
250.987	0.16
251.361	0.2
251.735	0.19
252.108	0.29
252.482	0.23
252.856	0.23
253.229	0.33
253.603	0.25
253.977	0.28
254.35	0.25
254.724	0.19
255.097	0.27
255.471	0.26
255.844	0.17
256.218	0.25
256.591	0.21
256.964	0.28
257.338	0.32
257.711	0.22
258.084	0.25
258.458	0.33
258.831	0.27
259.204	0.3
259.577	0.26
259.95	0.3
260.323	0.21
260.697	0.2
261.07	0.17
261.443	0.18
261.816	0.21
262.189	0.33
262.562	0.29
262.935	0.28
263.308	0.41
263.68	0.29
264.053	0.33
264.426	0.27
264.799	0.36
265.172	0.3
265.545	0.33
265.917	0.22
266.29	0.17
266.663	0.38
267.035	0.3
267.408	0.26
267.781	0.3
268.153	0.18
268.526	0.27
268.898	0.34
269.271	0.31
269.643	0.3
270.016	0.21
270.388	0.24
270.76	0.24
271.133	0.33
271.505	0.38
271.877	0.31
272.25	0.32
272.622	0.28
272.994	0.28
273.366	0.27
273.739	0.3
274.111	0.27
274.483	0.27
274.855	0.3
275.227	0.28
275.599	0.21
275.971	0.34
276.343	0.24
276.715	0.32
277.087	0.31
277.459	0.28
277.831	0.28
278.203	0.27
278.574	0.37
278.946	0.28
279.318	0.27
279.69	0.28
280.061	0.28
280.433	0.3
280.805	0.36
281.176	0.36
281.548	0.22
281.92	0.35
282.291	0.25
282.663	0.39
283.034	0.36
283.406	0.21
283.777	0.32
284.148	0.24
284.52	0.3
284.891	0.24
285.262	0.29
285.634	0.25
286.005	0.27
286.376	0.23
286.747	0.19
287.119	0.26
287.49	0.2
287.861	0.3
288.232	0.23
288.603	0.32
288.974	0.31
289.345	0.2
289.716	0.31
290.087	0.27
290.458	0.25
290.829	0.35
291.2	0.28
291.571	0.25
291.941	0.29
292.312	0.33
292.683	0.31
293.054	0.34
293.424	0.21
293.795	0.32
294.166	0.29
294.536	0.27
294.907	0.26
295.277	0.29
295.648	0.26
296.018	0.34
296.389	0.22
296.759	0.22
297.13	0.31
297.5	0.32
297.871	0.26
298.241	0.21
298.611	0.32
298.981	0.31
299.352	0.31
299.722	0.32
300.092	0.21
300.462	0.25
300.832	0.27
301.202	0.24
301.573	0.28
301.943	0.23
302.313	0.22
302.683	0.25
303.053	0.24
303.422	0.22
303.792	0.23
304.162	0.21
304.532	0.25
304.902	0.23
305.272	0.23
305.641	0.23
306.011	0.24
306.381	0.23
306.75	0.25
307.12	0.24
307.49	0.24
307.859	0.25
308.229	0.24
308.598	0.26
308.968	0.25
309.337	0.27
309.707	0.26
310.076	0.27
310.445	0.27
310.815	0.27
311.184	0.27
311.553	0.27
311.923	0.28
312.292	0.28
312.661	0.28
313.03	0.29
313.399	0.28
313.768	0.29
314.137	0.28
314.506	0.28
314.875	0.28
315.244	0.28
315.613	0.29
315.982	0.29
316.351	0.28
316.72	0.27
317.089	0.27
317.458	0.27
317.826	0.28
318.195	0.27
318.564	0.27
318.933	0.27
319.301	0.26
319.67	0.26
320.038	0.26
320.407	0.25
320.775	0.25
321.144	0.25
321.512	0.25
321.881	0.25
322.249	0.25
322.618	0.25
322.986	0.24
323.354	0.24
323.723	0.23
324.091	0.24
324.459	0.24
324.827	0.24
325.195	0.24
325.564	0.23
325.932	0.23
326.3	0.23
326.668	0.23
327.036	0.23
327.404	0.23
327.772	0.23
328.14	0.24
328.508	0.23
328.875	0.22
329.243	0.23
329.611	0.24
329.979	0.24
330.346	0.23
330.714	0.24
331.082	0.24
331.449	0.24
331.817	0.25
332.185	0.24
332.552	0.24
332.92	0.25
333.287	0.25
333.655	0.26
334.022	0.26
334.389	0.26
334.757	0.26
335.124	0.26
335.491	0.27
335.859	0.27
336.226	0.28
336.593	0.28
336.96	0.28
337.327	0.28
337.695	0.29
338.062	0.29
338.429	0.3
338.796	0.3
339.163	0.3
339.53	0.3
339.897	0.31
340.263	0.31
340.63	0.32
340.997	0.33
341.364	0.33
341.731	0.34
342.097	0.34
342.464	0.35
342.831	0.35
343.197	0.36
343.564	0.37
343.931	0.37
344.297	0.38
344.664	0.38
345.03	0.39
345.396	0.39
345.763	0.4
346.129	0.41
346.496	0.41
346.862	0.41
347.228	0.42
347.594	0.43
347.961	0.43
348.327	0.44
348.693	0.45
349.059	0.45
349.425	0.46
349.791	0.47
350.157	0.47
350.523	0.48
350.889	0.49
351.255	0.51
351.621	0.51
351.987	0.52
352.353	0.53
352.719	0.54
353.084	0.55
353.45	0.56
353.816	0.57
354.181	0.58
354.547	0.59
354.913	0.61
355.278	0.61
355.644	0.63
356.009	0.64
356.375	0.66
356.74	0.67
357.106	0.68
357.471	0.69
357.836	0.71
358.202	0.72
358.567	0.73
358.932	0.75
359.297	0.76
359.663	0.77
360.028	0.78
360.393	0.79
360.758	0.8
361.123	0.81
361.488	0.82
361.853	0.83
362.218	0.85
362.583	0.85
362.948	0.86
363.312	0.87
363.677	0.88
364.042	0.89
364.407	0.9
364.772	0.92
365.136	0.94
365.501	0.95
365.865	0.98
366.23	1
366.595	1.01
366.959	1.02
367.324	1.04
367.688	1.06
368.052	1.08
368.417	1.11
368.781	1.11
369.145	1.13
369.51	1.12
369.874	1.13
370.238	1.12
370.602	1.14
370.967	1.12
371.331	1.11
371.695	1.13
372.059	1.12
372.423	1.11
372.787	1.1
373.151	1.08
373.515	1.08
373.878	1.1
374.242	1.08
374.606	1.08
374.97	1.1
375.334	1.08
375.697	1.09
376.061	1.09
376.425	1.09
376.788	1.11
377.152	1.11
377.515	1.13
377.879	1.13
378.242	1.15
378.606	1.15
378.969	1.17
379.333	1.17
379.696	1.19
380.059	1.21
380.422	1.22
380.786	1.25
381.149	1.26
381.512	1.3
381.875	1.31
382.238	1.35
382.601	1.37
382.964	1.39
383.327	1.45
383.69	1.46
384.053	1.47
384.416	1.52
384.779	1.57
385.142	1.56
385.504	1.6
385.867	1.63
386.23	1.63
386.593	1.65
386.955	1.63
387.318	1.64
387.68	1.63
388.043	1.65
388.405	1.61
388.768	1.65
389.13	1.61
389.493	1.62
389.855	1.6
390.217	1.59
390.58	1.59
390.942	1.58
391.304	1.58
391.666	1.63
392.028	1.64
392.391	1.66
392.753	1.69
393.115	1.74
393.477	1.75
393.839	1.82
394.201	1.85
394.563	1.9
394.924	1.96
395.286	1.99
395.648	2.01
396.01	2.01
396.371	2.08
396.733	2.06
397.095	2.08
397.456	2.13
397.818	2.04
398.18	2.03
398.541	1.99
398.903	2.06
399.264	1.98
399.625	1.96
399.987	1.98
400.348	1.95
400.709	1.85
401.071	1.8
401.432	1.72
401.793	1.61
402.154	1.54
402.515	1.46
402.876	1.39
403.238	1.28
403.599	1.2
403.96	1.12
404.32	1.04
404.681	0.96
405.042	0.9
405.403	0.85
405.764	0.79
406.125	0.72
406.485	0.68
406.846	0.65
407.207	0.6
407.567	0.57
407.928	0.53
408.288	0.5
408.649	0.47
409.009	0.45
409.37	0.42
409.73	0.41
410.091	0.38
410.451	0.36
410.811	0.35
411.171	0.33
411.532	0.32
411.892	0.31
412.252	0.29
412.612	0.28
412.972	0.27
413.332	0.26
413.692	0.26
414.052	0.25
414.412	0.24
414.772	0.24
415.132	0.22
415.492	0.21
415.851	0.22
416.211	0.2
416.571	0.2
416.931	0.19
417.29	0.19
417.65	0.19
418.009	0.18
418.369	0.17
418.728	0.17
419.088	0.17
419.447	0.16
419.807	0.16
420.166	0.16
420.525	0.15
420.884	0.15
421.244	0.15
421.603	0.15
421.962	0.14
422.321	0.14
422.68	0.14
423.039	0.15
423.398	0.14
423.757	0.14
424.116	0.14
424.475	0.13
424.834	0.13
425.193	0.12
425.551	0.11
425.91	0.12
426.269	0.12
426.628	0.12
426.986	0.12
427.345	0.12
427.703	0.12
428.062	0.11
428.42	0.11
428.779	0.11
429.137	0.12
429.496	0.11
429.854	0.11
430.212	0.11
430.57	0.11
430.929	0.11
431.287	0.11
431.645	0.11
432.003	0.1
432.361	0.11
432.719	0.1
433.077	0.1
433.435	0.1
433.793	0.1
434.151	0.1
434.509	0.1
434.866	0.09
435.224	0.09
435.582	0.1
435.94	0.1
436.297	0.1
436.655	0.1
437.012	0.09
437.37	0.1
437.727	0.09
438.085	0.09
438.442	0.09
438.8	0.08
439.157	0.09
439.514	0.09
439.872	0.08
440.229	0.09
440.586	0.08
440.943	0.08
441.3	0.09
441.657	0.09
442.014	0.08
442.371	0.08
442.728	0.08
443.085	0.08
443.442	0.08
443.799	0.08
444.156	0.08
444.513	0.07
444.869	0.07
445.226	0.07
445.583	0.08
445.939	0.07
446.296	0.07
446.652	0.07
447.009	0.07
447.365	0.06
447.722	0.07
448.078	0.06
448.434	0.07
448.791	0.07
449.147	0.06
449.503	0.06
449.859	0.06
450.215	0.07
450.571	0.07
450.928	0.06
451.284	0.05
451.64	0.06
451.995	0.06
452.351	0.05
452.707	0.06
453.063	0.05
453.419	0.05
453.775	0.05
454.13	0.05
454.486	0.06
454.842	0.04
455.197	0.05
455.553	0.04
455.908	0.05
456.264	0.04
456.619	0.04
456.975	0.04
457.33	0.04
457.685	0.04
458.04	0.03
458.396	0.03
458.751	0.03
459.106	0.03
459.461	0.02
459.816	0.03
460.171	0.01
460.526	0.02
460.881	0.01
461.236	0.01
461.591	0.02
461.946	0
462.301	0.01
462.655	0.01
463.01	0.02
463.365	0
463.719	0
464.074	-0.01
464.428	-0.01
464.783	-0.01
465.137	-0.01
465.492	-0.01
465.846	-0.01
466.201	-0
466.555	-0.01
466.909	-0.01
467.263	0
467.618	-0
467.972	-0
468.326	-0.01
468.68	-0.01
469.034	-0.02
469.388	-0.02
469.742	-0.01
470.096	-0.01
470.45	-0.01
470.804	-0
471.157	-0.01
471.511	-0.01
471.865	-0.01
472.218	-0.01
472.572	-0
472.926	0
473.279	0
473.633	0.01
473.986	0.02
474.34	0.02
474.693	0.02
475.046	0.02
475.4	0.03
475.753	0.03
476.106	0.03
476.459	0.04
476.812	0.05
477.165	0.05
477.519	0.05
477.872	0.06
478.224	0.06
478.577	0.06
478.93	0.07
479.283	0.06
479.636	0.06
479.989	0.07
480.341	0.07
480.694	0.08
481.047	0.08
481.399	0.08
481.752	0.09
482.104	0.09
482.457	0.09
482.809	0.09
483.162	0.09
483.514	0.09
483.866	0.1
484.219	0.1
484.571	0.1
484.923	0.1
485.275	0.11
485.627	0.11
485.979	0.11
486.331	0.11
486.683	0.12
487.035	0.12
487.387	0.13
487.739	0.13
488.091	0.13
488.443	0.13
488.794	0.12
489.146	0.13
489.498	0.13
489.849	0.13
490.201	0.13
490.552	0.13
490.904	0.14
491.255	0.14
491.607	0.14
491.958	0.14
492.309	0.14
492.661	0.15
493.012	0.15
493.363	0.15
493.714	0.15
494.065	0.15
494.416	0.15
494.767	0.15
495.118	0.16
495.469	0.16
495.82	0.16
496.171	0.17
496.522	0.17
496.872	0.17
497.223	0.17
497.574	0.18
497.924	0.18
498.275	0.18
498.626	0.18
498.976	0.18
499.327	0.18
499.677	0.18
500.027	0.2
500.378	0.19
500.728	0.2
501.078	0.2
501.428	0.2
501.779	0.2
502.129	0.2
502.479	0.2
502.829	0.21
503.179	0.21
503.529	0.21
503.879	0.21
504.229	0.21
504.578	0.22
504.928	0.22
505.278	0.22
505.628	0.23
505.977	0.23
506.327	0.23
506.676	0.24
507.026	0.24
507.375	0.24
507.725	0.24
508.074	0.24
508.424	0.25
508.773	0.24
509.122	0.25
509.471	0.25
509.82	0.25
510.17	0.26
510.519	0.26
510.868	0.26
511.217	0.26
511.566	0.26
511.915	0.27
512.263	0.27
512.612	0.27
512.961	0.27
513.31	0.28
513.659	0.28
514.007	0.28
514.356	0.28
514.704	0.29
515.053	0.29
515.401	0.29
515.75	0.29
516.098	0.3
516.447	0.3
516.795	0.3
517.143	0.3
517.491	0.3
517.839	0.31
518.188	0.31
518.536	0.31
518.884	0.31
519.232	0.31
519.58	0.32
519.928	0.32
520.275	0.32
520.623	0.33
520.971	0.33
521.319	0.33
521.666	0.33
522.014	0.33
522.362	0.33
522.709	0.34
523.057	0.34
523.404	0.33
523.752	0.35
524.099	0.35
524.446	0.35
524.794	0.35
525.141	0.36
525.488	0.36
525.835	0.36
526.182	0.37
526.529	0.37
526.876	0.37
527.223	0.37
527.57	0.37
527.917	0.37
528.264	0.38
528.611	0.38
528.958	0.38
529.304	0.39
529.651	0.39
529.998	0.39
530.344	0.39
530.691	0.4
531.037	0.4
531.384	0.4
531.73	0.4
532.076	0.4
532.423	0.41
532.769	0.42
533.115	0.42
533.461	0.42
533.807	0.42
534.154	0.42
534.5	0.43
534.846	0.43
535.192	0.43
535.537	0.44
535.883	0.44
536.229	0.44
536.575	0.45
536.921	0.45
537.266	0.45
537.612	0.45
537.957	0.45
538.303	0.46
538.649	0.46
538.994	0.46
539.339	0.47
539.685	0.47
540.03	0.48
540.375	0.48
540.721	0.48
541.066	0.48
541.411	0.49
541.756	0.49
542.101	0.49
542.446	0.5
542.791	0.5
543.136	0.5
543.481	0.51
543.825	0.51
544.17	0.52
544.515	0.52
544.86	0.52
545.204	0.52
545.549	0.53
545.893	0.54
546.238	0.54
546.582	0.54
546.927	0.54
547.271	0.55
547.615	0.55
547.96	0.55
548.304	0.55
548.648	0.56
548.992	0.56
549.336	0.57
549.68	0.57
550.024	0.58
550.368	0.57
550.712	0.58
551.056	0.58
551.4	0.58
551.743	0.59
552.087	0.59
552.431	0.59
552.774	0.59
553.118	0.6
553.462	0.6
553.805	0.6
554.148	0.61
554.492	0.6
554.835	0.61
555.178	0.61
555.522	0.61
555.865	0.62
556.208	0.62
556.551	0.62
556.894	0.62
557.237	0.63
557.58	0.62
557.923	0.63
558.266	0.62
558.609	0.62
558.952	0.63
559.294	0.64
559.637	0.64
559.98	0.64
560.322	0.64
560.665	0.64
561.007	0.64
561.35	0.64
561.692	0.65
562.034	0.65
562.377	0.65
562.719	0.65
563.061	0.65
563.403	0.66
563.745	0.66
564.088	0.66
564.43	0.66
564.772	0.65
565.113	0.66
565.455	0.66
565.797	0.66
566.139	0.66
566.481	0.67
566.822	0.67
567.164	0.67
567.506	0.67
567.847	0.67
568.189	0.67
568.53	0.67
568.872	0.67
569.213	0.68
569.554	0.68
569.895	0.68
570.237	0.68
570.578	0.68
570.919	0.68
571.26	0.67
571.601	0.68
571.942	0.68
572.283	0.68
572.624	0.68
572.965	0.68
573.306	0.68
573.646	0.68
573.987	0.68
574.328	0.68
574.668	0.68
575.009	0.68
575.349	0.68
575.69	0.68
576.03	0.68
576.37	0.68
576.711	0.67
577.051	0.68
577.391	0.68
577.731	0.68
578.072	0.68
578.412	0.68
578.752	0.68
579.092	0.69
579.431	0.68
579.771	0.68
580.111	0.67
580.451	0.67
580.791	0.68
581.13	0.69
581.47	0.69
581.81	0.69
582.149	0.69
582.489	0.7
582.828	0.7
583.167	0.69
583.507	0.66
583.846	0.64
584.185	0.66
584.525	0.68
584.864	0.69
585.203	0.7
585.542	0.71
585.881	0.71
586.22	0.72
586.559	0.72
586.898	0.71
587.236	0.71
587.575	0.7
587.914	0.71
588.252	0.72
588.591	0.73
588.93	0.73
589.268	0.73
589.607	0.73
589.945	0.74
590.283	0.73
590.622	0.74
590.96	0.75
591.298	0.75
591.636	0.75
591.974	0.76
592.313	0.77
592.651	0.77
592.989	0.76
593.326	0.77
593.664	0.77
594.002	0.78
594.34	0.78
594.678	0.78
595.015	0.78
595.353	0.78
595.691	0.78
596.028	0.79
596.366	0.8
596.703	0.8
597.04	0.8
597.378	0.8
597.715	0.81
598.052	0.81
598.389	0.81
598.726	0.82
599.064	0.82
599.401	0.83
599.738	0.82
600.074	0.83
600.411	0.83
600.748	0.83
601.085	0.82
601.422	0.83
601.758	0.82
602.095	0.83
602.432	0.83
602.768	0.83
603.105	0.83
603.441	0.83
603.777	0.83
604.114	0.83
604.45	0.83
604.786	0.84
605.122	0.84
605.459	0.84
605.795	0.84
606.131	0.83
606.467	0.83
606.803	0.83
607.139	0.83
607.474	0.83
607.81	0.83
608.146	0.83
608.482	0.83
608.817	0.82
609.153	0.82
609.488	0.82
609.824	0.82
610.159	0.82
610.495	0.81
610.83	0.81
611.165	0.81
611.5	0.81
611.836	0.81
612.171	0.81
612.506	0.8
612.841	0.8
613.176	0.8
613.511	0.8
613.845	0.79
614.18	0.8
614.515	0.79
614.85	0.79
615.184	0.79
615.519	0.78
615.854	0.78
616.188	0.78
616.523	0.78
616.857	0.78
617.191	0.78
617.526	0.77
617.86	0.77
618.194	0.77
618.528	0.77
618.862	0.76
619.196	0.76
619.53	0.76
619.864	0.75
620.198	0.75
620.532	0.75
620.866	0.75
621.2	0.74
621.533	0.74
621.867	0.74
622.201	0.73
622.534	0.73
622.868	0.73
623.201	0.73
623.534	0.73
623.868	0.73
624.201	0.72
624.534	0.72
624.868	0.72
625.201	0.71
625.534	0.71
625.867	0.71
626.2	0.71
626.533	0.7
626.865	0.7
627.198	0.7
627.531	0.7
627.864	0.69
628.196	0.69
628.529	0.69
628.862	0.68
629.194	0.68
629.527	0.67
629.859	0.67
630.191	0.67
630.524	0.67
630.856	0.66
631.188	0.66
631.52	0.65
631.852	0.65
632.184	0.64
632.516	0.64
632.848	0.63
633.18	0.63
633.512	0.63
633.844	0.62
634.175	0.61
634.507	0.61
634.839	0.6
635.17	0.6
635.502	0.6
635.833	0.59
636.165	0.59
636.496	0.58
636.827	0.58
637.159	0.58
637.49	0.57
637.821	0.57
638.152	0.56
638.483	0.56
638.814	0.55
639.145	0.55
639.476	0.55
639.807	0.54
640.137	0.53
640.468	0.53
640.799	0.53
641.129	0.52
641.46	0.52
641.791	0.51
642.121	0.51
642.451	0.51
642.782	0.5
643.112	0.5
643.442	0.49
643.773	0.49
644.103	0.49
644.433	0.49
644.763	0.48
645.093	0.48
645.423	0.48
645.753	0.48
646.082	0.48
646.412	0.47
646.742	0.47
647.072	0.46
647.401	0.47
647.731	0.47
648.06	0.46
648.39	0.46
648.719	0.46
649.048	0.46
649.378	0.45
649.707	0.46
650.036	0.45
650.365	0.45
650.694	0.45
651.023	0.45
651.352	0.44
651.681	0.45
652.01	0.45
652.339	0.45
652.668	0.44
652.996	0.44
653.325	0.44
653.654	0.44
653.982	0.44
654.311	0.44
654.639	0.44
654.967	0.44
655.296	0.44
655.624	0.44
655.952	0.44
656.28	0.43
656.609	0.43
656.937	0.44
657.265	0.45
657.593	0.42
657.92	0.27
658.248	0.21
658.576	0.2
658.904	0.28
659.231	0.38
659.559	0.42
659.887	0.43
660.214	0.43
660.542	0.43
660.869	0.43
661.196	0.43
661.524	0.43
661.851	0.43
662.178	0.43
662.505	0.43
662.832	0.43
663.159	0.42
663.486	0.42
663.813	0.42
664.14	0.42
664.467	0.42
664.794	0.42
665.12	0.42
665.447	0.42
665.774	0.42
666.1	0.42
666.427	0.41
666.753	0.42
667.079	0.41
667.406	0.41
667.732	0.41
668.058	0.42
668.384	0.41
668.71	0.41
669.036	0.41
669.362	0.41
669.688	0.4
670.014	0.4
670.34	0.4
670.666	0.4
670.991	0.39
671.317	0.39
671.643	0.39
671.968	0.39
672.294	0.39
672.619	0.39
672.945	0.38
673.27	0.38
673.595	0.38
673.92	0.38
674.246	0.38
674.571	0.37
674.896	0.37
675.221	0.37
675.546	0.37
675.87	0.37
676.195	0.36
676.52	0.36
676.845	0.36
677.169	0.35
677.494	0.35
677.819	0.35
678.143	0.35
678.468	0.34
678.792	0.34
679.116	0.34
679.44	0.34
679.765	0.33
680.089	0.33
680.413	0.33
680.737	0.33
681.061	0.32
681.385	0.32
681.709	0.31
682.033	0.31
682.356	0.3
682.68	0.3
683.004	0.3
683.327	0.3
683.651	0.29
683.974	0.29
684.298	0.29
684.621	0.29
684.944	0.28
685.268	0.28
685.591	0.28
685.914	0.27
686.237	0.28
686.56	0.27
686.883	0.27
687.206	0.26
687.529	0.26
687.852	0.25
688.175	0.25
688.497	0.25
688.82	0.25
689.142	0.25
689.465	0.24
689.787	0.24
690.11	0.24
690.432	0.23
690.755	0.23
691.077	0.23
691.399	0.23
691.721	0.22
692.043	0.22
692.365	0.22
692.687	0.22
693.009	0.21
693.331	0.21
693.653	0.21
693.974	0.21
694.296	0.2
694.618	0.2
694.939	0.2
695.261	0.2
695.582	0.2
695.904	0.2
696.225	0.19
696.546	0.19
696.868	0.19
697.189	0.18
697.51	0.18
697.831	0.18
698.152	0.18
698.473	0.18
698.794	0.18
699.114	0.18
699.435	0.17
699.756	0.17
700.077	0.17
700.397	0.17
700.718	0.17
701.038	0.17
701.359	0.17
701.679	0.16
701.999	0.16
702.32	0.16
702.64	0.16
702.96	0.16
703.28	0.16
703.6	0.16
703.92	0.16
704.24	0.16
704.56	0.16
704.879	0.15
705.199	0.15
705.519	0.15
705.838	0.15
706.158	0.15
706.478	0.15
706.797	0.15
707.116	0.15
707.436	0.15
707.755	0.15
708.074	0.15
708.393	0.15
708.712	0.15
709.031	0.14
709.35	0.14
709.669	0.14
709.988	0.14
710.307	0.14
710.626	0.14
710.944	0.14
711.263	0.14
711.582	0.13
711.9	0.14
712.219	0.14
712.537	0.14
712.855	0.14
713.174	0.13
713.492	0.13
713.81	0.14
714.128	0.14
714.446	0.14
714.764	0.13
715.082	0.13
715.4	0.13
715.718	0.13
716.035	0.13
716.353	0.13
716.671	0.13
716.988	0.13
717.306	0.13
717.623	0.13
717.941	0.14
718.258	0.14
718.575	0.14
718.893	0.14
719.21	0.14
719.527	0.14
719.844	0.14
720.161	0.14
720.478	0.14
720.795	0.14
721.112	0.14
721.428	0.14
721.745	0.14
722.062	0.14
722.378	0.15
722.695	0.14
723.011	0.15
723.328	0.15
723.644	0.15
723.96	0.15
724.276	0.14
724.593	0.15
724.909	0.15
725.225	0.15
725.541	0.15
725.857	0.15
726.173	0.16
726.488	0.16
726.804	0.15
727.12	0.15
727.435	0.16
727.751	0.16
728.067	0.16
728.382	0.16
728.697	0.16
729.013	0.16
729.328	0.15
729.643	0.16
729.958	0.16
730.273	0.16
730.588	0.15
730.903	0.16
731.218	0.16
731.533	0.16
731.848	0.16
732.163	0.16
732.477	0.16
732.792	0.16
733.107	0.15
733.421	0.16
733.736	0.15
734.05	0.16
734.364	0.16
734.678	0.16
734.993	0.16
735.307	0.16
735.621	0.15
735.935	0.15
736.249	0.15
736.563	0.15
736.877	0.15
737.19	0.16
737.504	0.15
737.818	0.15
738.131	0.15
738.445	0.15
738.758	0.15
739.072	0.15
739.385	0.15
739.698	0.15
740.012	0.15
740.325	0.14
740.638	0.15
740.951	0.14
741.264	0.14
741.577	0.14
741.89	0.14
742.203	0.14
742.515	0.15
742.828	0.15
743.141	0.14
743.453	0.14
743.766	0.14
744.078	0.14
744.391	0.14
744.703	0.14
745.015	0.13
745.327	0.14
745.639	0.13
745.952	0.13
746.264	0.13
746.575	0.13
746.887	0.13
747.199	0.13
747.511	0.13
747.823	0.12
748.134	0.12
748.446	0.12
748.757	0.12
749.069	0.12
749.38	0.12
749.692	0.12
750.003	0.11
750.314	0.11
750.625	0.11
750.936	0.11
751.248	0.11
751.559	0.11
751.869	0.11
752.18	0.1
752.491	0.1
752.802	0.1
753.112	0.1
753.423	0.1
753.734	0.1
754.044	0.1
754.355	0.09
754.665	0.09
754.975	0.09
755.285	0.09
755.596	0.08
755.906	0.08
756.216	0.08
756.526	0.08
756.836	0.08
757.146	0.08
757.455	0.08
757.765	0.08
758.075	0.08
758.385	0.08
758.694	0.07
759.004	0.08
759.313	0.07
759.622	0.07
759.932	0.07
760.241	0.07
760.55	0.07
760.859	0.07
761.168	0.07
761.477	0.07
761.786	0.07
762.095	0.07
762.404	0.07
762.713	0.06
763.021	0.06
763.33	0.06
763.639	0.06
763.947	0.06
764.256	0.06
764.564	0.05
764.872	0.06
765.181	0.06
765.489	0.05
765.797	0.06
766.105	0.05
766.413	0.05
766.721	0.05
767.029	0.05
767.337	0.05
767.644	0.05
767.952	0.05
768.26	0.05
768.567	0.05
768.875	0.05
769.182	0.05
769.49	0.05
769.797	0.04
770.104	0.04
770.411	0.04
770.718	0.04
771.026	0.04
771.333	0.04
771.639	0.04
771.946	0.04
772.253	0.04
772.56	0.04
772.867	0.04
773.173	0.04
773.48	0.04
773.786	0.04
774.093	0.04
774.399	0.04
774.705	0.04
775.012	0.04
775.318	0.03
775.624	0.03
775.93	0.04
776.236	0.04
776.542	0.04
776.848	0.04
777.154	0.04
777.459	0.04
777.765	0.04
778.071	0.04
778.376	0.04
778.682	0.04
778.987	0.04
779.292	0.03
779.598	0.04
779.903	0.04
780.208	0.04
780.513	0.04
780.818	0.03
781.123	0.03
781.428	0.04
781.733	0.04
782.038	0.04
782.343	0.04
782.647	0.04
782.952	0.04
783.256	0.04
783.561	0.04
783.865	0.04
784.17	0.04
784.474	0.04
784.778	0.04
785.082	0.04
785.386	0.04
785.69	0.04
785.994	0.04
786.298	0.04
786.602	0.04
786.906	0.03
787.209	0.03
787.513	0.03
787.817	0.03
788.12	0.04
788.424	0.04
788.727	0.04
789.03	0.04
789.333	0.04
789.637	0.04
789.94	0.04
790.243	0.04
790.546	0.04
790.849	0.04
791.152	0.03
791.454	0.04
791.757	0.03
792.06	0.04
792.362	0.04
792.665	0.03
792.967	0.03
793.27	0.03
793.572	0.03
793.874	0.03
794.177	0.03
794.479	0.03
794.781	0.03
795.083	0.03
795.385	0.03
795.687	0.03
795.989	0.03
796.29	0.03
796.592	0.03
796.894	0.03
797.195	0.03
797.497	0.03
797.798	0.03
798.1	0.03
798.401	0.03
798.702	0.03
799.003	0.03
799.304	0.03
799.605	0.03
799.906	0.03
800.207	0.04
800.508	0.04
800.809	0.03
801.11	0.03
801.41	0.03
801.711	0.04
802.011	0.04
802.312	0.04
802.612	0.04
802.913	0.04
803.213	0.04
803.513	0.04
803.813	0.04
804.113	0.04
804.413	0.04
804.713	0.05
805.013	0.04
805.313	0.04
805.613	0.04
805.912	0.04
806.212	0.04
806.511	0.04
806.811	0.04
807.11	0.04
807.41	0.04
807.709	0.04
808.008	0.04
808.307	0.04
808.606	0.04
808.905	0.03
809.204	0.04
809.503	0.03
809.802	0.04
810.101	0.04
810.399	0.03
810.698	0.03
810.997	0.03
811.295	0.03
811.593	0.03
811.892	0.03
812.19	0.03
812.488	0.03
812.786	0.03
813.084	0.03
813.383	0.03
813.68	0.03
813.978	0.03
814.276	0.02
814.574	0.03
814.872	0.03
815.169	0.03
815.467	0.03
815.764	0.03
816.062	0.03
816.359	0.03
816.656	0.03
816.954	0.03
817.251	0.03
817.548	0.02
817.845	0.02
818.142	0.03
818.439	0.03
818.735	0.03
819.032	0.03
819.329	0.04
819.626	0.03
819.922	0.03
820.219	0.03
820.515	0.03
820.811	0.03
821.108	0.03
821.404	0.02
821.7	0.02
821.996	0.03
822.292	0.03
822.588	0.03
822.884	0.03
823.18	0.03
823.475	0.03
823.771	0.03
824.067	0.03
824.362	0.03
824.658	0.04
824.953	0.04
825.249	0.04
825.544	0.04
825.839	0.04
826.134	0.04
826.429	0.04
826.724	0.04
827.019	0.03
827.314	0.03
827.609	0.04
827.904	0.04
828.198	0.03
828.493	0.03
828.787	0.03
829.082	0.03
829.376	0.03
829.671	0.03
829.965	0.03
830.259	0.03
830.553	0.03
830.847	0.03
831.141	0.03
831.435	0.03
831.729	0.03
832.023	0.04
832.317	0.04
832.61	0.04
832.904	0.03
833.197	0.03
833.491	0.03
833.784	0.03
834.077	0.04
834.371	0.04
834.664	0.04
834.957	0.03
835.25	0.03
835.543	0.04
835.836	0.04
836.129	0.04
836.421	0.04
836.714	0.04
837.007	0.04
837.299	0.03
837.592	0.05
837.884	0.04
838.177	0.04
838.469	0.04
838.761	0.05
839.053	0.04
839.345	0.04
839.637	0.04
839.929	0.04
840.221	0.04
840.513	0.04
840.805	0.04
841.096	0.04
841.388	0.03
841.68	0.04
841.971	0.03
842.262	0.03
842.554	0.03
842.845	0.03
843.136	0.03
843.427	0.04
843.718	0.03
844.009	0.02
844.3	0.03
844.591	0.04
844.882	0.03
845.173	0.04
845.463	0.03
845.754	0.04
846.044	0.03
846.335	0.02
846.625	0.03
846.915	0.04
847.206	0.02
847.496	0.04
847.786	0.04
848.076	0.03
848.366	0.04
848.656	0.05
848.945	0.04
849.235	0.04
849.525	0.04
849.814	0.04
850.104	0.04
850.393	0.04
850.683	0.05
850.972	0.03
851.261	0.04
851.551	0.05
851.84	0.03
852.129	0.04
852.418	0.04
852.707	0.02
852.995	0.03
853.284	0.03
853.573	0.04
853.862	0.03
854.15	0.03
854.439	0.03
854.727	0.04
855.015	0.04
855.304	0.03
855.592	0.04
855.88	0.05
856.168	0.05
856.456	0.03
856.744	0.03
857.032	0.04
857.32	0.04
857.607	0.04
857.895	0.05
858.183	0.05
858.47	0.04
858.757	0.03
859.045	0.04
859.332	0.04
859.619	0.03
859.907	0.04
860.194	0.03
860.481	0.04
860.768	0.04
861.054	0.04
861.341	0.05
861.628	0.04
861.915	0.05
862.201	0.05
862.488	0.04
862.774	0.02
863.061	0.01
863.347	0.03
863.633	0.04
863.919	0.05
864.205	0.05
864.491	0.07
864.777	0.02
865.063	0.03
865.349	0.03
865.635	0.02
865.92	0.03
866.206	0.02
866.492	0.04
866.777	0.06
867.062	0.01
867.348	0.01
867.633	0
867.918	0.02
868.203	0.04
868.488	0.03
868.773	0.06
869.058	0.03
869.343	0.03
869.628	0.02
869.912	0.07
870.197	0.02
870.482	0.04
870.766	0.04
871.05	0.07
871.335	0.04
871.619	0.05
871.903	0.05
872.187	0.06
872.471	0.04
872.755	0.03
873.039	0.04
873.323	0.07
873.607	0
873.89	0.02
874.174	0.05
874.458	0.07
874.741	0.02
875.024	0.01
875.308	0.01
875.591	-0
875.874	-0
876.157	0.06
876.44	0
876.723	0.13
877.006	0.1
877.289	0.05
877.572	0.03
877.854	0.08
878.137	0.12
878.42	-0
878.702	0.1
878.984	0.08
879.267	0.05
879.549	0.09
879.831	0.05
880.113	0.07
880.395	0.12
880.677	0.08
880.959	-0.07
