Data from Rubpy_EV_1500_EDTA_Buffered_Absorbance_15-03-21-065.txt Node
Date: Tue Jun 30 15:03:21 BST 2026
User: fpm-admin
Spectrometer: OFX00224
Trigger mode: 0
Integration Time (sec): 7.000000E-2
Scans to average: 3
Nonlinearity correction enabled: false
Boxcar width: 0
Storing dark spectrum: false
XAxis mode: Wavelengths
Number of Pixels in Spectrum: 2136
>>>>>Begin Spectral Data<<<<<
154.91	0.69
155.289	-0.5
155.669	-0.15
156.048	-0.48
156.428	0.7
156.807	0.32
157.186	-0.38
157.566	-0.1
157.945	0.38
158.325	-1.41
158.704	-1.15
159.083	-0
159.462	-0.8
159.842	-0.27
160.221	-0
160.6	-0.05
160.979	0.34
161.359	-0.34
161.738	-0
162.117	-0.05
162.496	-0
162.875	0.03
163.254	-0.12
163.633	-0.12
164.012	0.34
164.391	-0
164.77	-0.09
165.149	-0
165.528	-0
165.907	-0.1
166.286	-0.4
166.665	-0
167.044	0.4
167.423	0.45
167.802	-0
168.181	0.04
168.559	-0.03
168.938	0.61
169.317	-0.23
169.696	0.51
170.074	0.74
170.453	-0.57
170.832	0.05
171.21	-0.37
171.589	-0
171.968	-0
172.346	-0.41
172.725	-1.2
173.103	-0.23
173.482	-0.65
173.861	-0.38
174.239	0.2
174.617	-0
174.996	-0.43
175.374	-0
175.753	-0.45
176.131	-0.01
176.51	0.12
176.888	0.02
177.266	-0
177.645	-0.11
178.023	-0
178.401	-0.15
178.779	0.2
179.158	-0.03
179.536	0.09
179.914	-0
180.292	0.31
180.67	-0.15
181.048	-0
181.427	-0.29
181.805	-0
182.183	-0
182.561	0.11
182.939	-0
183.317	-0
183.695	-0
184.073	-0.03
184.451	-0.12
184.829	-0.2
185.206	0.21
185.584	-0.19
185.962	-0.39
186.34	-0
186.718	-0
187.096	-1
187.473	-0
187.851	-0.06
188.229	0.33
188.607	0.2
188.984	0.18
189.362	0.2
189.74	0.26
190.117	0.12
190.495	0.21
190.872	0.13
191.25	0.27
191.627	0.1
192.005	0.34
192.382	0.16
192.76	0.2
193.137	0.19
193.515	0.21
193.892	0.13
194.269	0.14
194.647	0.29
195.024	0.16
195.401	0.22
195.779	0.25
196.156	0.2
196.533	0.39
196.91	0.05
197.288	0.21
197.665	0.28
198.042	0.04
198.419	0.17
198.796	0.16
199.173	0.22
199.55	0.11
199.927	0.24
200.304	0.24
200.681	0.15
201.058	0.12
201.435	0.18
201.812	0.22
202.189	0.19
202.566	0.35
202.943	0.12
203.32	0.21
203.697	0.3
204.073	0.25
204.45	0.15
204.827	0.19
205.204	0.21
205.58	0.3
205.957	0.18
206.334	0.26
206.71	0.15
207.087	0.29
207.464	0.3
207.84	0.24
208.217	0.23
208.593	0.23
208.97	0.25
209.346	0.43
209.723	0.14
210.099	0.36
210.476	0.16
210.852	0.14
211.228	0.2
211.605	0.27
211.981	0.24
212.357	0.31
212.733	0.18
213.11	0.34
213.486	0.26
213.862	0.24
214.238	0.15
214.614	0.25
214.991	0.25
215.367	0.24
215.743	0.23
216.119	0.26
216.495	0.24
216.871	0.25
217.247	0.07
217.623	0.19
217.999	0.17
218.375	0.23
218.751	0.19
219.127	0.24
219.502	0.24
219.878	0.17
220.254	0.22
220.63	0.2
221.006	0.24
221.381	0.23
221.757	0.2
222.133	0.33
222.508	0.2
222.884	0.21
223.26	0.24
223.635	0.24
224.011	0.26
224.386	0.12
224.762	0.24
225.137	0.11
225.513	0.25
225.888	0.17
226.264	0.19
226.639	0.26
227.014	0.24
227.39	0.3
227.765	0.36
228.14	0.33
228.516	0.29
228.891	0.12
229.266	0.23
229.641	0.18
230.017	0.23
230.392	0.21
230.767	0.31
231.142	0.26
231.517	0.24
231.892	0.25
232.267	0.21
232.642	0.22
233.017	0.21
233.392	0.36
233.767	0.31
234.142	0.33
234.517	0.12
234.892	0.25
235.267	0.27
235.641	0.23
236.016	0.22
236.391	0.13
236.766	0.36
237.14	0.31
237.515	0.21
237.89	0.24
238.264	0.28
238.639	0.32
239.014	0.27
239.388	0.19
239.763	0.27
240.137	0.14
240.512	0.2
240.886	0.22
241.261	0.32
241.635	0.25
242.009	0.27
242.384	0.27
242.758	0.19
243.132	0.29
243.507	0.27
243.881	0.22
244.255	0.2
244.629	0.38
245.004	0.19
245.378	0.21
245.752	0.32
246.126	0.23
246.5	0.4
246.874	0.25
247.248	0.14
247.622	0.23
247.996	0.27
248.37	0.18
248.744	0.28
249.118	0.29
249.492	0.38
249.866	0.12
250.24	0.26
250.613	0.2
250.987	0.12
251.361	0.21
251.735	0.22
252.108	0.2
252.482	0.28
252.856	0.21
253.229	0.23
253.603	0.2
253.977	0.27
254.35	0.22
254.724	0.25
255.097	0.21
255.471	0.3
255.844	0.2
256.218	0.23
256.591	0.15
256.964	0.29
257.338	0.24
257.711	0.19
258.084	0.3
258.458	0.2
258.831	0.21
259.204	0.14
259.577	0.27
259.95	0.19
260.323	0.26
260.697	0.21
261.07	0.28
261.443	0.19
261.816	0.16
262.189	0.32
262.562	0.3
262.935	0.25
263.308	0.24
263.68	0.27
264.053	0.29
264.426	0.25
264.799	0.23
265.172	0.19
265.545	0.29
265.917	0.29
266.29	0.2
266.663	0.31
267.035	0.2
267.408	0.24
267.781	0.19
268.153	0.22
268.526	0.22
268.898	0.33
269.271	0.26
269.643	0.22
270.016	0.18
270.388	0.23
270.76	0.22
271.133	0.25
271.505	0.23
271.877	0.18
272.25	0.26
272.622	0.32
272.994	0.2
273.366	0.22
273.739	0.35
274.111	0.26
274.483	0.25
274.855	0.25
275.227	0.19
275.599	0.25
275.971	0.36
276.343	0.27
276.715	0.26
277.087	0.29
277.459	0.21
277.831	0.2
278.203	0.22
278.574	0.32
278.946	0.28
279.318	0.29
279.69	0.16
280.061	0.25
280.433	0.26
280.805	0.27
281.176	0.26
281.548	0.19
281.92	0.28
282.291	0.26
282.663	0.33
283.034	0.34
283.406	0.22
283.777	0.27
284.148	0.2
284.52	0.29
284.891	0.29
285.262	0.27
285.634	0.32
286.005	0.16
286.376	0.21
286.747	0.17
287.119	0.24
287.49	0.16
287.861	0.25
288.232	0.19
288.603	0.24
288.974	0.21
289.345	0.14
289.716	0.31
290.087	0.25
290.458	0.31
290.829	0.3
291.2	0.26
291.571	0.19
291.941	0.22
292.312	0.23
292.683	0.27
293.054	0.29
293.424	0.17
293.795	0.16
294.166	0.24
294.536	0.23
294.907	0.2
295.277	0.23
295.648	0.23
296.018	0.27
296.389	0.23
296.759	0.25
297.13	0.24
297.5	0.23
297.871	0.25
298.241	0.17
298.611	0.26
298.981	0.27
299.352	0.24
299.722	0.22
300.092	0.23
300.462	0.24
300.832	0.21
301.202	0.22
301.573	0.17
301.943	0.22
302.313	0.21
302.683	0.2
303.053	0.2
303.422	0.18
303.792	0.18
304.162	0.2
304.532	0.19
304.902	0.16
305.272	0.18
305.641	0.17
306.011	0.18
306.381	0.18
306.75	0.18
307.12	0.18
307.49	0.19
307.859	0.19
308.229	0.2
308.598	0.2
308.968	0.19
309.337	0.2
309.707	0.19
310.076	0.2
310.445	0.21
310.815	0.2
311.184	0.2
311.553	0.21
311.923	0.2
312.292	0.21
312.661	0.2
313.03	0.21
313.399	0.21
313.768	0.21
314.137	0.22
314.506	0.21
314.875	0.21
315.244	0.21
315.613	0.21
315.982	0.21
316.351	0.21
316.72	0.2
317.089	0.2
317.458	0.2
317.826	0.21
318.195	0.2
318.564	0.2
318.933	0.19
319.301	0.19
319.67	0.19
320.038	0.19
320.407	0.19
320.775	0.19
321.144	0.19
321.512	0.19
321.881	0.19
322.249	0.18
322.618	0.19
322.986	0.18
323.354	0.18
323.723	0.18
324.091	0.18
324.459	0.17
324.827	0.17
325.195	0.17
325.564	0.17
325.932	0.17
326.3	0.17
326.668	0.17
327.036	0.17
327.404	0.17
327.772	0.17
328.14	0.17
328.508	0.17
328.875	0.17
329.243	0.17
329.611	0.18
329.979	0.17
330.346	0.17
330.714	0.17
331.082	0.17
331.449	0.17
331.817	0.18
332.185	0.18
332.552	0.17
332.92	0.18
333.287	0.18
333.655	0.19
334.022	0.19
334.389	0.19
334.757	0.19
335.124	0.19
335.491	0.19
335.859	0.19
336.226	0.2
336.593	0.2
336.96	0.21
337.327	0.21
337.695	0.21
338.062	0.21
338.429	0.22
338.796	0.22
339.163	0.22
339.53	0.23
339.897	0.23
340.263	0.23
340.63	0.24
340.997	0.24
341.364	0.24
341.731	0.25
342.097	0.25
342.464	0.25
342.831	0.26
343.197	0.27
343.564	0.27
343.931	0.27
344.297	0.27
344.664	0.28
345.03	0.28
345.396	0.29
345.763	0.29
346.129	0.3
346.496	0.3
346.862	0.3
347.228	0.31
347.594	0.31
347.961	0.32
348.327	0.32
348.693	0.33
349.059	0.33
349.425	0.34
349.791	0.35
350.157	0.35
350.523	0.36
350.889	0.36
351.255	0.37
351.621	0.38
351.987	0.38
352.353	0.4
352.719	0.39
353.084	0.41
353.45	0.42
353.816	0.43
354.181	0.43
354.547	0.44
354.913	0.45
355.278	0.46
355.644	0.47
356.009	0.48
356.375	0.48
356.74	0.49
357.106	0.51
357.471	0.51
357.836	0.53
358.202	0.54
358.567	0.55
358.932	0.56
359.297	0.57
359.663	0.57
360.028	0.58
360.393	0.59
360.758	0.59
361.123	0.6
361.488	0.61
361.853	0.62
362.218	0.62
362.583	0.63
362.948	0.64
363.312	0.64
363.677	0.66
364.042	0.67
364.407	0.67
364.772	0.69
365.136	0.69
365.501	0.72
365.865	0.73
366.23	0.75
366.595	0.76
366.959	0.77
367.324	0.78
367.688	0.81
368.052	0.81
368.417	0.83
368.781	0.84
369.145	0.85
369.51	0.85
369.874	0.85
370.238	0.86
370.602	0.86
370.967	0.86
371.331	0.85
371.695	0.85
372.059	0.84
372.423	0.84
372.787	0.83
373.151	0.83
373.515	0.83
373.878	0.83
374.242	0.83
374.606	0.82
374.97	0.83
375.334	0.82
375.697	0.84
376.061	0.83
376.425	0.83
376.788	0.85
377.152	0.85
377.515	0.86
377.879	0.86
378.242	0.88
378.606	0.88
378.969	0.89
379.333	0.9
379.696	0.92
380.059	0.93
380.422	0.93
380.786	0.96
381.149	0.98
381.512	0.99
381.875	1.02
382.238	1.03
382.601	1.06
382.964	1.08
383.327	1.1
383.69	1.14
384.053	1.15
384.416	1.19
384.779	1.22
385.142	1.24
385.504	1.26
385.867	1.27
386.23	1.3
386.593	1.3
386.955	1.29
387.318	1.3
387.68	1.3
388.043	1.29
388.405	1.28
388.768	1.27
389.13	1.27
389.493	1.27
389.855	1.26
390.217	1.25
390.58	1.25
390.942	1.24
391.304	1.27
391.666	1.28
392.028	1.29
392.391	1.3
392.753	1.34
393.115	1.38
393.477	1.42
393.839	1.45
394.201	1.51
394.563	1.58
394.924	1.62
395.286	1.66
395.648	1.68
396.01	1.74
396.371	1.77
396.733	1.79
397.095	1.83
397.456	1.83
397.818	1.78
398.18	1.77
398.541	1.78
398.903	1.75
399.264	1.72
399.625	1.69
399.987	1.68
400.348	1.59
400.709	1.53
401.071	1.46
401.432	1.37
401.793	1.3
402.154	1.21
402.515	1.15
402.876	1.07
403.238	1
403.599	0.93
403.96	0.86
404.32	0.81
404.681	0.75
405.042	0.69
405.403	0.66
405.764	0.6
406.125	0.56
406.485	0.53
406.846	0.5
407.207	0.46
407.567	0.43
407.928	0.41
408.288	0.38
408.649	0.37
409.009	0.35
409.37	0.32
409.73	0.31
410.091	0.29
410.451	0.28
410.811	0.27
411.171	0.26
411.532	0.24
411.892	0.23
412.252	0.23
412.612	0.22
412.972	0.21
413.332	0.2
413.692	0.2
414.052	0.19
414.412	0.18
414.772	0.18
415.132	0.17
415.492	0.17
415.851	0.16
416.211	0.16
416.571	0.16
416.931	0.15
417.29	0.14
417.65	0.14
418.009	0.13
418.369	0.13
418.728	0.14
419.088	0.13
419.447	0.12
419.807	0.12
420.166	0.13
420.525	0.12
420.884	0.12
421.244	0.11
421.603	0.11
421.962	0.11
422.321	0.11
422.68	0.1
423.039	0.11
423.398	0.1
423.757	0.11
424.116	0.11
424.475	0.1
424.834	0.1
425.193	0.1
425.551	0.09
425.91	0.1
426.269	0.09
426.628	0.09
426.986	0.09
427.345	0.08
427.703	0.09
428.062	0.1
428.42	0.09
428.779	0.09
429.137	0.09
429.496	0.08
429.854	0.08
430.212	0.08
430.57	0.08
430.929	0.08
431.287	0.08
431.645	0.08
432.003	0.08
432.361	0.08
432.719	0.07
433.077	0.08
433.435	0.08
433.793	0.08
434.151	0.08
434.509	0.07
434.866	0.07
435.224	0.08
435.582	0.07
435.94	0.07
436.297	0.07
436.655	0.07
437.012	0.07
437.37	0.06
437.727	0.07
438.085	0.07
438.442	0.08
438.8	0.07
439.157	0.06
439.514	0.07
439.872	0.06
440.229	0.07
440.586	0.06
440.943	0.06
441.3	0.07
441.657	0.07
442.014	0.07
442.371	0.06
442.728	0.06
443.085	0.06
443.442	0.07
443.799	0.06
444.156	0.05
444.513	0.05
444.869	0.05
445.226	0.05
445.583	0.06
445.939	0.05
446.296	0.05
446.652	0.06
447.009	0.05
447.365	0.05
447.722	0.05
448.078	0.04
448.434	0.05
448.791	0.04
449.147	0.05
449.503	0.05
449.859	0.05
450.215	0.05
450.571	0.05
450.928	0.04
451.284	0.03
451.64	0.04
451.995	0.04
452.351	0.04
452.707	0.04
453.063	0.03
453.419	0.04
453.775	0.03
454.13	0.03
454.486	0.04
454.842	0.03
455.197	0.03
455.553	0.02
455.908	0.02
456.264	0.02
456.619	0.02
456.975	0.03
457.33	0.01
457.685	0.01
458.04	0.02
458.396	0.02
458.751	0.02
459.106	0.01
459.461	0.01
459.816	0.01
460.171	-0
460.526	0
460.881	-0
461.236	-0
461.591	-0
461.946	-0.01
462.301	-0.01
462.655	-0.01
463.01	-0
463.365	-0.01
463.719	-0.01
464.074	-0.02
464.428	-0.03
464.783	-0.03
465.137	-0.02
465.492	-0.03
465.846	-0.02
466.201	-0.02
466.555	-0.02
466.909	-0.03
467.263	-0.02
467.618	-0.01
467.972	-0.02
468.326	-0.03
468.68	-0.03
469.034	-0.03
469.388	-0.03
469.742	-0.03
470.096	-0.03
470.45	-0.03
470.804	-0.02
471.157	-0.03
471.511	-0.03
471.865	-0.03
472.218	-0.02
472.572	-0.02
472.926	-0.02
473.279	-0.02
473.633	-0.02
473.986	-0
474.34	-0.01
474.693	-0
475.046	0
475.4	0
475.753	0.01
476.106	0.02
476.459	0.02
476.812	0.02
477.165	0.02
477.519	0.03
477.872	0.03
478.224	0.04
478.577	0.03
478.93	0.04
479.283	0.04
479.636	0.04
479.989	0.05
480.341	0.04
480.694	0.05
481.047	0.05
481.399	0.05
481.752	0.05
482.104	0.06
482.457	0.07
482.809	0.06
483.162	0.07
483.514	0.06
483.866	0.07
484.219	0.07
484.571	0.07
484.923	0.07
485.275	0.07
485.627	0.08
485.979	0.07
486.331	0.08
486.683	0.08
487.035	0.09
487.387	0.09
487.739	0.09
488.091	0.09
488.443	0.09
488.794	0.09
489.146	0.09
489.498	0.09
489.849	0.09
490.201	0.09
490.552	0.09
490.904	0.1
491.255	0.1
491.607	0.1
491.958	0.1
492.309	0.1
492.661	0.1
493.012	0.11
493.363	0.11
493.714	0.1
494.065	0.11
494.416	0.11
494.767	0.11
495.118	0.11
495.469	0.12
495.82	0.12
496.171	0.12
496.522	0.12
496.872	0.12
497.223	0.12
497.574	0.13
497.924	0.13
498.275	0.13
498.626	0.13
498.976	0.13
499.327	0.14
499.677	0.13
500.027	0.14
500.378	0.14
500.728	0.15
501.078	0.14
501.428	0.14
501.779	0.14
502.129	0.15
502.479	0.15
502.829	0.16
503.179	0.15
503.529	0.16
503.879	0.16
504.229	0.16
504.578	0.16
504.928	0.16
505.278	0.16
505.628	0.17
505.977	0.17
506.327	0.17
506.676	0.18
507.026	0.18
507.375	0.18
507.725	0.18
508.074	0.18
508.424	0.18
508.773	0.18
509.122	0.19
509.471	0.19
509.82	0.19
510.17	0.19
510.519	0.19
510.868	0.19
511.217	0.19
511.566	0.2
511.915	0.2
512.263	0.2
512.612	0.2
512.961	0.2
513.31	0.21
513.659	0.2
514.007	0.21
514.356	0.21
514.704	0.21
515.053	0.22
515.401	0.21
515.75	0.22
516.098	0.22
516.447	0.22
516.795	0.23
517.143	0.23
517.491	0.22
517.839	0.23
518.188	0.23
518.536	0.23
518.884	0.23
519.232	0.24
519.58	0.24
519.928	0.24
520.275	0.24
520.623	0.24
520.971	0.25
521.319	0.25
521.666	0.25
522.014	0.25
522.362	0.25
522.709	0.25
523.057	0.25
523.404	0.25
523.752	0.26
524.099	0.26
524.446	0.26
524.794	0.26
525.141	0.27
525.488	0.27
525.835	0.27
526.182	0.28
526.529	0.28
526.876	0.28
527.223	0.28
527.57	0.28
527.917	0.29
528.264	0.28
528.611	0.28
528.958	0.29
529.304	0.29
529.651	0.29
529.998	0.29
530.344	0.3
530.691	0.3
531.037	0.3
531.384	0.3
531.73	0.3
532.076	0.3
532.423	0.31
532.769	0.31
533.115	0.31
533.461	0.32
533.807	0.32
534.154	0.32
534.5	0.32
534.846	0.32
535.192	0.33
535.537	0.33
535.883	0.33
536.229	0.34
536.575	0.34
536.921	0.34
537.266	0.34
537.612	0.34
537.957	0.34
538.303	0.35
538.649	0.35
538.994	0.35
539.339	0.36
539.685	0.36
540.03	0.36
540.375	0.37
540.721	0.36
541.066	0.37
541.411	0.37
541.756	0.37
542.101	0.37
542.446	0.38
542.791	0.38
543.136	0.38
543.481	0.38
543.825	0.39
544.17	0.39
544.515	0.39
544.86	0.4
545.204	0.4
545.549	0.4
545.893	0.41
546.238	0.41
546.582	0.41
546.927	0.41
547.271	0.42
547.615	0.42
547.96	0.43
548.304	0.42
548.648	0.42
548.992	0.43
549.336	0.43
549.68	0.44
550.024	0.43
550.368	0.44
550.712	0.44
551.056	0.44
551.4	0.45
551.743	0.45
552.087	0.45
552.431	0.45
552.774	0.45
553.118	0.45
553.462	0.46
553.805	0.46
554.148	0.46
554.492	0.46
554.835	0.46
555.178	0.46
555.522	0.46
555.865	0.47
556.208	0.47
556.551	0.47
556.894	0.47
557.237	0.48
557.58	0.47
557.923	0.48
558.266	0.48
558.609	0.48
558.952	0.48
559.294	0.48
559.637	0.49
559.98	0.49
560.322	0.49
560.665	0.49
561.007	0.49
561.35	0.49
561.692	0.5
562.034	0.5
562.377	0.5
562.719	0.5
563.061	0.5
563.403	0.5
563.745	0.5
564.088	0.5
564.43	0.51
564.772	0.51
565.113	0.5
565.455	0.51
565.797	0.51
566.139	0.51
566.481	0.51
566.822	0.51
567.164	0.51
567.506	0.51
567.847	0.51
568.189	0.51
568.53	0.52
568.872	0.51
569.213	0.51
569.554	0.52
569.895	0.52
570.237	0.51
570.578	0.52
570.919	0.52
571.26	0.52
571.601	0.52
571.942	0.52
572.283	0.52
572.624	0.52
572.965	0.52
573.306	0.52
573.646	0.52
573.987	0.52
574.328	0.52
574.668	0.52
575.009	0.52
575.349	0.52
575.69	0.52
576.03	0.52
576.37	0.52
576.711	0.51
577.051	0.52
577.391	0.52
577.731	0.52
578.072	0.52
578.412	0.52
578.752	0.52
579.092	0.52
579.431	0.52
579.771	0.52
580.111	0.51
580.451	0.51
580.791	0.52
581.13	0.52
581.47	0.52
581.81	0.53
582.149	0.52
582.489	0.53
582.828	0.53
583.167	0.52
583.507	0.5
583.846	0.48
584.185	0.49
584.525	0.52
584.864	0.53
585.203	0.54
585.542	0.54
585.881	0.54
586.22	0.55
586.559	0.55
586.898	0.54
587.236	0.54
587.575	0.54
587.914	0.54
588.252	0.55
588.591	0.56
588.93	0.56
589.268	0.56
589.607	0.56
589.945	0.57
590.283	0.56
590.622	0.56
590.96	0.57
591.298	0.58
591.636	0.58
591.974	0.58
592.313	0.58
592.651	0.59
592.989	0.59
593.326	0.59
593.664	0.6
594.002	0.6
594.34	0.59
594.678	0.59
595.015	0.6
595.353	0.59
595.691	0.6
596.028	0.61
596.366	0.61
596.703	0.62
597.04	0.62
597.378	0.62
597.715	0.62
598.052	0.62
598.389	0.63
598.726	0.63
599.064	0.64
599.401	0.64
599.738	0.64
600.074	0.63
600.411	0.64
600.748	0.63
601.085	0.63
601.422	0.63
601.758	0.63
602.095	0.63
602.432	0.64
602.768	0.63
603.105	0.63
603.441	0.64
603.777	0.64
604.114	0.64
604.45	0.64
604.786	0.64
605.122	0.65
605.459	0.64
605.795	0.64
606.131	0.64
606.467	0.64
606.803	0.65
607.139	0.64
607.474	0.64
607.81	0.63
608.146	0.64
608.482	0.64
608.817	0.63
609.153	0.63
609.488	0.63
609.824	0.63
610.159	0.63
610.495	0.62
610.83	0.62
611.165	0.63
611.5	0.63
611.836	0.63
612.171	0.62
612.506	0.62
612.841	0.62
613.176	0.62
613.511	0.62
613.845	0.61
614.18	0.61
614.515	0.61
614.85	0.61
615.184	0.61
615.519	0.6
615.854	0.61
616.188	0.6
616.523	0.6
616.857	0.6
617.191	0.6
617.526	0.59
617.86	0.59
618.194	0.59
618.528	0.59
618.862	0.59
619.196	0.58
619.53	0.58
619.864	0.58
620.198	0.58
620.532	0.58
620.866	0.57
621.2	0.57
621.533	0.57
621.867	0.57
622.201	0.57
622.534	0.56
622.868	0.56
623.201	0.56
623.534	0.56
623.868	0.56
624.201	0.55
624.534	0.55
624.868	0.55
625.201	0.55
625.534	0.55
625.867	0.55
626.2	0.55
626.533	0.54
626.865	0.54
627.198	0.54
627.531	0.53
627.864	0.53
628.196	0.53
628.529	0.53
628.862	0.52
629.194	0.52
629.527	0.52
629.859	0.51
630.191	0.51
630.524	0.51
630.856	0.51
631.188	0.51
631.52	0.5
631.852	0.5
632.184	0.49
632.516	0.49
632.848	0.48
633.18	0.48
633.512	0.48
633.844	0.47
634.175	0.47
634.507	0.47
634.839	0.46
635.17	0.46
635.502	0.46
635.833	0.45
636.165	0.45
636.496	0.45
636.827	0.45
637.159	0.44
637.49	0.44
637.821	0.44
638.152	0.43
638.483	0.43
638.814	0.42
639.145	0.42
639.476	0.42
639.807	0.42
640.137	0.41
640.468	0.41
640.799	0.41
641.129	0.4
641.46	0.4
641.791	0.39
642.121	0.39
642.451	0.39
642.782	0.38
643.112	0.38
643.442	0.38
643.773	0.38
644.103	0.38
644.433	0.37
644.763	0.37
645.093	0.37
645.423	0.37
645.753	0.36
646.082	0.36
646.412	0.36
646.742	0.36
647.072	0.36
647.401	0.36
647.731	0.36
648.06	0.36
648.39	0.35
648.719	0.36
649.048	0.35
649.378	0.35
649.707	0.35
650.036	0.35
650.365	0.35
650.694	0.34
651.023	0.34
651.352	0.34
651.681	0.34
652.01	0.35
652.339	0.34
652.668	0.34
652.996	0.34
653.325	0.34
653.654	0.34
653.982	0.34
654.311	0.34
654.639	0.33
654.967	0.34
655.296	0.34
655.624	0.34
655.952	0.34
656.28	0.33
656.609	0.33
656.937	0.34
657.265	0.35
657.593	0.31
657.92	0.17
658.248	0.11
658.576	0.1
658.904	0.19
659.231	0.28
659.559	0.32
659.887	0.32
660.214	0.33
660.542	0.33
660.869	0.33
661.196	0.33
661.524	0.33
661.851	0.33
662.178	0.33
662.505	0.33
662.832	0.32
663.159	0.32
663.486	0.32
663.813	0.32
664.14	0.32
664.467	0.32
664.794	0.32
665.12	0.32
665.447	0.33
665.774	0.32
666.1	0.32
666.427	0.32
666.753	0.32
667.079	0.32
667.406	0.32
667.732	0.31
668.058	0.32
668.384	0.32
668.71	0.31
669.036	0.31
669.362	0.31
669.688	0.31
670.014	0.31
670.34	0.31
670.666	0.31
670.991	0.3
671.317	0.31
671.643	0.3
671.968	0.3
672.294	0.3
672.619	0.3
672.945	0.29
673.27	0.3
673.595	0.29
673.92	0.29
674.246	0.29
674.571	0.29
674.896	0.29
675.221	0.29
675.546	0.29
675.87	0.28
676.195	0.28
676.52	0.27
676.845	0.27
677.169	0.27
677.494	0.27
677.819	0.27
678.143	0.26
678.468	0.26
678.792	0.26
679.116	0.26
679.44	0.26
679.765	0.26
680.089	0.25
680.413	0.25
680.737	0.25
681.061	0.25
681.385	0.24
681.709	0.24
682.033	0.23
682.356	0.23
682.68	0.23
683.004	0.23
683.327	0.23
683.651	0.22
683.974	0.22
684.298	0.22
684.621	0.22
684.944	0.22
685.268	0.21
685.591	0.21
685.914	0.21
686.237	0.21
686.56	0.21
686.883	0.2
687.206	0.2
687.529	0.19
687.852	0.19
688.175	0.19
688.497	0.19
688.82	0.19
689.142	0.19
689.465	0.19
689.787	0.18
690.11	0.18
690.432	0.18
690.755	0.18
691.077	0.17
691.399	0.17
691.721	0.17
692.043	0.17
692.365	0.17
692.687	0.17
693.009	0.16
693.331	0.16
693.653	0.16
693.974	0.16
694.296	0.16
694.618	0.16
694.939	0.15
695.261	0.15
695.582	0.15
695.904	0.15
696.225	0.15
696.546	0.14
696.868	0.14
697.189	0.14
697.51	0.14
697.831	0.14
698.152	0.14
698.473	0.14
698.794	0.14
699.114	0.13
699.435	0.13
699.756	0.13
700.077	0.13
700.397	0.13
700.718	0.13
701.038	0.13
701.359	0.13
701.679	0.12
701.999	0.12
702.32	0.12
702.64	0.13
702.96	0.12
703.28	0.12
703.6	0.12
703.92	0.12
704.24	0.12
704.56	0.12
704.879	0.12
705.199	0.11
705.519	0.11
705.838	0.11
706.158	0.11
706.478	0.11
706.797	0.11
707.116	0.11
707.436	0.11
707.755	0.11
708.074	0.11
708.393	0.11
708.712	0.11
709.031	0.11
709.35	0.11
709.669	0.1
709.988	0.1
710.307	0.1
710.626	0.1
710.944	0.1
711.263	0.1
711.582	0.1
711.9	0.1
712.219	0.1
712.537	0.1
712.855	0.1
713.174	0.1
713.492	0.1
713.81	0.1
714.128	0.1
714.446	0.1
714.764	0.1
715.082	0.09
715.4	0.1
715.718	0.1
716.035	0.09
716.353	0.09
716.671	0.1
716.988	0.1
717.306	0.1
717.623	0.1
717.941	0.1
718.258	0.11
718.575	0.11
718.893	0.11
719.21	0.11
719.527	0.1
719.844	0.11
720.161	0.11
720.478	0.11
720.795	0.11
721.112	0.11
721.428	0.11
721.745	0.11
722.062	0.11
722.378	0.11
722.695	0.11
723.011	0.11
723.328	0.11
723.644	0.11
723.96	0.11
724.276	0.11
724.593	0.11
724.909	0.11
725.225	0.11
725.541	0.11
725.857	0.11
726.173	0.12
726.488	0.12
726.804	0.12
727.12	0.12
727.435	0.12
727.751	0.12
728.067	0.12
728.382	0.12
728.697	0.12
729.013	0.12
729.328	0.12
729.643	0.12
729.958	0.12
730.273	0.12
730.588	0.12
730.903	0.12
731.218	0.12
731.533	0.12
731.848	0.12
732.163	0.12
732.477	0.12
732.792	0.12
733.107	0.11
733.421	0.12
733.736	0.12
734.05	0.12
734.364	0.12
734.678	0.12
734.993	0.12
735.307	0.12
735.621	0.12
735.935	0.12
736.249	0.12
736.563	0.12
736.877	0.12
737.19	0.12
737.504	0.11
737.818	0.12
738.131	0.11
738.445	0.11
738.758	0.11
739.072	0.11
739.385	0.11
739.698	0.11
740.012	0.11
740.325	0.11
740.638	0.11
740.951	0.11
741.264	0.11
741.577	0.11
741.89	0.11
742.203	0.11
742.515	0.11
742.828	0.11
743.141	0.11
743.453	0.11
743.766	0.11
744.078	0.11
744.391	0.11
744.703	0.11
745.015	0.1
745.327	0.1
745.639	0.1
745.952	0.1
746.264	0.1
746.575	0.1
746.887	0.1
747.199	0.1
747.511	0.1
747.823	0.09
748.134	0.09
748.446	0.09
748.757	0.09
749.069	0.09
749.38	0.09
749.692	0.09
750.003	0.09
750.314	0.09
750.625	0.09
750.936	0.08
751.248	0.08
751.559	0.08
751.869	0.08
752.18	0.08
752.491	0.08
752.802	0.08
753.112	0.07
753.423	0.07
753.734	0.07
754.044	0.07
754.355	0.07
754.665	0.07
754.975	0.07
755.285	0.07
755.596	0.06
755.906	0.06
756.216	0.06
756.526	0.06
756.836	0.06
757.146	0.06
757.455	0.06
757.765	0.06
758.075	0.06
758.385	0.06
758.694	0.06
759.004	0.06
759.313	0.05
759.622	0.05
759.932	0.06
760.241	0.05
760.55	0.05
760.859	0.05
761.168	0.05
761.477	0.05
761.786	0.05
762.095	0.05
762.404	0.05
762.713	0.05
763.021	0.05
763.33	0.04
763.639	0.04
763.947	0.04
764.256	0.04
764.564	0.04
764.872	0.04
765.181	0.04
765.489	0.04
765.797	0.04
766.105	0.04
766.413	0.04
766.721	0.04
767.029	0.04
767.337	0.04
767.644	0.04
767.952	0.04
768.26	0.04
768.567	0.04
768.875	0.04
769.182	0.03
769.49	0.03
769.797	0.03
770.104	0.03
770.411	0.03
770.718	0.03
771.026	0.03
771.333	0.03
771.639	0.03
771.946	0.03
772.253	0.03
772.56	0.03
772.867	0.03
773.173	0.03
773.48	0.03
773.786	0.03
774.093	0.03
774.399	0.03
774.705	0.02
775.012	0.03
775.318	0.02
775.624	0.02
775.93	0.03
776.236	0.03
776.542	0.03
776.848	0.03
777.154	0.03
777.459	0.03
777.765	0.03
778.071	0.03
778.376	0.03
778.682	0.03
778.987	0.02
779.292	0.02
779.598	0.03
779.903	0.03
780.208	0.03
780.513	0.03
780.818	0.02
781.123	0.03
781.428	0.03
781.733	0.03
782.038	0.03
782.343	0.03
782.647	0.03
782.952	0.03
783.256	0.03
783.561	0.03
783.865	0.03
784.17	0.03
784.474	0.03
784.778	0.03
785.082	0.03
785.386	0.03
785.69	0.03
785.994	0.03
786.298	0.03
786.602	0.02
786.906	0.02
787.209	0.02
787.513	0.03
787.817	0.02
788.12	0.02
788.424	0.02
788.727	0.02
789.03	0.03
789.333	0.03
789.637	0.03
789.94	0.03
790.243	0.03
790.546	0.03
790.849	0.03
791.152	0.03
791.454	0.03
791.757	0.03
792.06	0.03
792.362	0.03
792.665	0.02
792.967	0.02
793.27	0.02
793.572	0.02
793.874	0.02
794.177	0.02
794.479	0.02
794.781	0.02
795.083	0.02
795.385	0.02
795.687	0.03
795.989	0.02
796.29	0.03
796.592	0.02
796.894	0.02
797.195	0.02
797.497	0.02
797.798	0.02
798.1	0.02
798.401	0.02
798.702	0.02
799.003	0.03
799.304	0.03
799.605	0.02
799.906	0.03
800.207	0.02
800.508	0.03
800.809	0.03
801.11	0.03
801.41	0.03
801.711	0.03
802.011	0.03
802.312	0.03
802.612	0.03
802.913	0.03
803.213	0.03
803.513	0.03
803.813	0.03
804.113	0.03
804.413	0.03
804.713	0.03
805.013	0.03
805.313	0.03
805.613	0.03
805.912	0.03
806.212	0.04
806.511	0.03
806.811	0.03
807.11	0.03
807.41	0.03
807.709	0.03
808.008	0.03
808.307	0.03
808.606	0.02
808.905	0.02
809.204	0.02
809.503	0.02
809.802	0.02
810.101	0.02
810.399	0.02
810.698	0.02
810.997	0.02
811.295	0.02
811.593	0.02
811.892	0.02
812.19	0.02
812.488	0.02
812.786	0.03
813.084	0.03
813.383	0.02
813.68	0.02
813.978	0.02
814.276	0.02
814.574	0.02
814.872	0.01
815.169	0.02
815.467	0.02
815.764	0.02
816.062	0.02
816.359	0.02
816.656	0.02
816.954	0.02
817.251	0.01
817.548	0.02
817.845	0.02
818.142	0.02
818.439	0.02
818.735	0.02
819.032	0.02
819.329	0.02
819.626	0.02
819.922	0.02
820.219	0.03
820.515	0.02
820.811	0.02
821.108	0.02
821.404	0.02
821.7	0.02
821.996	0.02
822.292	0.02
822.588	0.02
822.884	0.02
823.18	0.02
823.475	0.02
823.771	0.02
824.067	0.02
824.362	0.03
824.658	0.03
824.953	0.03
825.249	0.03
825.544	0.03
825.839	0.03
826.134	0.03
826.429	0.03
826.724	0.03
827.019	0.02
827.314	0.02
827.609	0.03
827.904	0.03
828.198	0.02
828.493	0.03
828.787	0.02
829.082	0.02
829.376	0.02
829.671	0.02
829.965	0.02
830.259	0.02
830.553	0.02
830.847	0.02
831.141	0.02
831.435	0.02
831.729	0.03
832.023	0.03
832.317	0.03
832.61	0.03
832.904	0.02
833.197	0.02
833.491	0.03
833.784	0.03
834.077	0.03
834.371	0.04
834.664	0.03
834.957	0.03
835.25	0.03
835.543	0.03
835.836	0.03
836.129	0.03
836.421	0.03
836.714	0.03
837.007	0.02
837.299	0.03
837.592	0.04
837.884	0.03
838.177	0.04
838.469	0.03
838.761	0.03
839.053	0.03
839.345	0.03
839.637	0.03
839.929	0.04
840.221	0.04
840.513	0.03
840.805	0.03
841.096	0.03
841.388	0.02
841.68	0.03
841.971	0.02
842.262	0.02
842.554	0.03
842.845	0.03
843.136	0.02
843.427	0.03
843.718	0.03
844.009	0.02
844.3	0.03
844.591	0.03
844.882	0.02
845.173	0.02
845.463	0.02
845.754	0.02
846.044	0.02
846.335	0.01
846.625	0.03
846.915	0.04
847.206	0.02
847.496	0.03
847.786	0.04
848.076	0.03
848.366	0.03
848.656	0.04
848.945	0.03
849.235	0.04
849.525	0.04
849.814	0.02
850.104	0.02
850.393	0.03
850.683	0.02
850.972	0.04
851.261	0.03
851.551	0.03
851.84	0.03
852.129	0.03
852.418	0.02
852.707	0.01
852.995	0.03
853.284	0.02
853.573	0.02
853.862	0.03
854.15	0.01
854.439	0.02
854.727	0.03
855.015	0.03
855.304	0.02
855.592	0.02
855.88	0.03
856.168	0.04
856.456	0.03
856.744	0.02
857.032	0.03
857.32	0.02
857.607	0.02
857.895	0.02
858.183	0.05
858.47	0.03
858.757	0.02
859.045	0.03
859.332	0.05
859.619	0.02
859.907	0.02
860.194	0.04
860.481	0.03
860.768	0.02
861.054	0.03
861.341	0.05
861.628	0.04
861.915	0.04
862.201	0.05
862.488	0.02
862.774	0.03
863.061	0.01
863.347	0.01
863.633	0.02
863.919	0.02
864.205	0.04
864.491	0.05
864.777	0.03
865.063	0.03
865.349	0.01
865.635	0
865.92	0.04
866.206	0.05
866.492	0.06
866.777	0.03
867.062	0.01
867.348	0.01
867.633	0.02
867.918	-0.01
868.203	0.06
868.488	0.05
868.773	0.04
869.058	0.01
869.343	0.03
869.628	0.02
869.912	0.05
870.197	0.02
870.482	0.04
870.766	0.06
871.05	0.04
871.335	0.03
871.619	0.01
871.903	0.07
872.187	0.04
872.471	0.03
872.755	0.01
873.039	0.05
873.323	0.05
873.607	0.02
873.89	0.03
874.174	0.04
874.458	0.03
874.741	0.04
875.024	0.04
875.308	-0.03
875.591	-0.06
875.874	0.01
876.157	0.06
876.44	0.06
876.723	0.09
877.006	0.07
877.289	0.07
877.572	0.09
877.854	0.07
878.137	0.1
878.42	0.04
878.702	0.09
878.984	0.08
879.267	0.04
879.549	0.09
879.831	0.06
880.113	0.11
880.395	0.12
880.677	0.15
880.959	-0.06
