Data from Rubpy_EV_1500_EDTA_Buffered_Absorbance_14-47-39-896.txt Node
Date: Tue Jun 30 14:47:39 BST 2026
User: fpm-admin
Spectrometer: OFX00224
Trigger mode: 0
Integration Time (sec): 7.000000E-2
Scans to average: 3
Nonlinearity correction enabled: false
Boxcar width: 0
Storing dark spectrum: false
XAxis mode: Wavelengths
Number of Pixels in Spectrum: 2136
>>>>>Begin Spectral Data<<<<<
154.91	0.85
155.289	0.19
155.669	0.6
156.048	1
156.428	0.22
156.807	0.8
157.186	-0.23
157.566	-0.11
157.945	-0.1
158.325	-1.3
158.704	-1.04
159.083	-0
159.462	-0.8
159.842	-0.42
160.221	0.6
160.6	1.26
160.979	1.62
161.359	-0.72
161.738	-0
162.117	-0
162.496	-0
162.875	0.03
163.254	-0
163.633	-0
164.012	0.02
164.391	-0
164.77	0.31
165.149	0.18
165.528	-0.13
165.907	0.48
166.286	-0.45
166.665	-0
167.044	0.48
167.423	-0.24
167.802	-0
168.181	0.47
168.559	-0.17
168.938	0.03
169.317	0.24
169.696	0.16
170.074	0.37
170.453	-0.76
170.832	-0
171.21	-0.51
171.589	-0
171.968	-0.36
172.346	-0.48
172.725	-0
173.103	-0.2
173.482	-1.03
173.861	-0.05
174.239	0.28
174.617	-0
174.996	-0.15
175.374	-0
175.753	-0.25
176.131	-0
176.51	-0.21
176.888	0.24
177.266	-0
177.645	-0.04
178.023	1.28
178.401	-0.23
178.779	-0.04
179.158	-0.26
179.536	0.2
179.914	0.34
180.292	1.03
180.67	-0.15
181.048	-0.3
181.427	0.21
181.805	-0.49
182.183	-0
182.561	0.17
182.939	-0
183.317	-0
183.695	0.15
184.073	-0
184.451	0.32
184.829	0.12
185.206	-0.13
185.584	0.4
185.962	-0.43
186.34	-0.36
186.718	-0
187.096	-0
187.473	-0
187.851	-0.25
188.229	-0
188.607	0.1
188.984	0.13
189.362	0.11
189.74	0.1
190.117	0.08
190.495	0.07
190.872	0.06
191.25	0.14
191.627	0.07
192.005	0.18
192.382	0.14
192.76	0.13
193.137	0.09
193.515	0.19
193.892	0.06
194.269	0.14
194.647	0.05
195.024	0.01
195.401	0.05
195.779	0.1
196.156	0.2
196.533	0.13
196.91	0.1
197.288	0.04
197.665	0.06
198.042	0.03
198.419	0.03
198.796	0.13
199.173	0
199.55	0.04
199.927	0.27
200.304	0.08
200.681	0.05
201.058	-0.04
201.435	0.05
201.812	0.07
202.189	0.17
202.566	0.18
202.943	0.04
203.32	0.07
203.697	0.16
204.073	0.08
204.45	0.07
204.827	0.09
205.204	0.14
205.58	0.01
205.957	0.08
206.334	0.17
206.71	-0
207.087	0.17
207.464	0.16
207.84	0.13
208.217	0.15
208.593	0.15
208.97	0.19
209.346	0.18
209.723	0.15
210.099	0.07
210.476	0.13
210.852	0.24
211.228	-0
211.605	0.13
211.981	0.13
212.357	0.19
212.733	0.03
213.11	0.17
213.486	0.02
213.862	0.06
214.238	0.12
214.614	0.13
214.991	0.2
215.367	0.18
215.743	0.16
216.119	0.1
216.495	0.08
216.871	0.15
217.247	-0.01
217.623	0.11
217.999	0.1
218.375	0.13
218.751	0.01
219.127	0.13
219.502	0.12
219.878	0.05
220.254	0.09
220.63	0.11
221.006	0.15
221.381	0.14
221.757	0.08
222.133	0.19
222.508	0
222.884	0.08
223.26	0.1
223.635	0.1
224.011	0.07
224.386	0.1
224.762	0.1
225.137	-0.01
225.513	0.12
225.888	0.13
226.264	0.21
226.639	0.12
227.014	0.1
227.39	0.08
227.765	0.22
228.14	0.11
228.516	0.12
228.891	0.12
229.266	0.05
229.641	0.11
230.017	0.13
230.392	0.05
230.767	0.18
231.142	0.14
231.517	0.16
231.892	0.09
232.267	0.06
232.642	0.18
233.017	0.15
233.392	0.18
233.767	0.12
234.142	0.05
234.517	0.05
234.892	0.03
235.267	0.14
235.641	0.14
236.016	0.05
236.391	0.09
236.766	0.09
237.14	0.17
237.515	0.02
237.89	0.02
238.264	0.13
238.639	0.14
239.014	0.13
239.388	0.14
239.763	0.17
240.137	0.05
240.512	0.01
240.886	0.05
241.261	0.1
241.635	0.24
242.009	0.06
242.384	0.12
242.758	0.15
243.132	0.13
243.507	0.14
243.881	0.1
244.255	0.13
244.629	0.07
245.004	0.03
245.378	0.11
245.752	0.11
246.126	0.1
246.5	0.06
246.874	0.04
247.248	0.02
247.622	0.18
247.996	0.13
248.37	0.09
248.744	0.15
249.118	0.11
249.492	0.24
249.866	0.09
250.24	0.18
250.613	0.07
250.987	0.07
251.361	0.08
251.735	0.2
252.108	0.08
252.482	0.06
252.856	0.07
253.229	0.13
253.603	0.14
253.977	0.17
254.35	0.07
254.724	0.13
255.097	0.13
255.471	0.14
255.844	0.18
256.218	0.14
256.591	0.07
256.964	0.12
257.338	0.15
257.711	0.09
258.084	0.13
258.458	0.15
258.831	0.03
259.204	0.04
259.577	0.13
259.95	0.1
260.323	0.09
260.697	0.05
261.07	0.07
261.443	0.08
261.816	0.03
262.189	0.16
262.562	0.17
262.935	0.06
263.308	0.16
263.68	0.07
264.053	0.16
264.426	0.08
264.799	0.13
265.172	0.12
265.545	0.13
265.917	0.08
266.29	0.13
266.663	0.12
267.035	0.11
267.408	0.1
267.781	0.07
268.153	0.1
268.526	0.13
268.898	0.15
269.271	0.16
269.643	0.17
270.016	0.13
270.388	0.12
270.76	0.04
271.133	0.11
271.505	0.06
271.877	0.1
272.25	0.14
272.622	0.07
272.994	0.13
273.366	0.11
273.739	0.14
274.111	0.09
274.483	0.09
274.855	0.2
275.227	0.14
275.599	0.12
275.971	0.18
276.343	0.17
276.715	0.1
277.087	0.17
277.459	0.07
277.831	0.07
278.203	0.09
278.574	0.11
278.946	0.16
279.318	0.05
279.69	0.11
280.061	0.09
280.433	0.11
280.805	0.11
281.176	0.11
281.548	0.08
281.92	0.1
282.291	0.05
282.663	0.18
283.034	0.14
283.406	0.1
283.777	0.21
284.148	0.07
284.52	0.18
284.891	0.09
285.262	0.1
285.634	0.1
286.005	0.09
286.376	0.03
286.747	0.07
287.119	0.15
287.49	0.03
287.861	0.12
288.232	0.04
288.603	0.11
288.974	0.09
289.345	0.11
289.716	0.18
290.087	0.12
290.458	0.13
290.829	0.13
291.2	0.11
291.571	0.1
291.941	0.15
292.312	0.11
292.683	0.12
293.054	0.16
293.424	0
293.795	0.1
294.166	0.12
294.536	0.1
294.907	0.11
295.277	0.1
295.648	0.1
296.018	0.12
296.389	0.12
296.759	0.09
297.13	0.09
297.5	0.08
297.871	0.1
298.241	0.05
298.611	0.09
298.981	0.12
299.352	0.14
299.722	0.08
300.092	0.06
300.462	0.11
300.832	0.1
301.202	0.09
301.573	0.11
301.943	0.09
302.313	0.08
302.683	0.05
303.053	0.08
303.422	0.08
303.792	0.07
304.162	0.07
304.532	0.07
304.902	0.05
305.272	0.07
305.641	0.07
306.011	0.06
306.381	0.07
306.75	0.07
307.12	0.07
307.49	0.06
307.859	0.07
308.229	0.07
308.598	0.08
308.968	0.08
309.337	0.08
309.707	0.07
310.076	0.07
310.445	0.08
310.815	0.07
311.184	0.07
311.553	0.08
311.923	0.07
312.292	0.08
312.661	0.08
313.03	0.08
313.399	0.08
313.768	0.08
314.137	0.08
314.506	0.08
314.875	0.07
315.244	0.08
315.613	0.08
315.982	0.08
316.351	0.08
316.72	0.07
317.089	0.07
317.458	0.08
317.826	0.08
318.195	0.07
318.564	0.07
318.933	0.06
319.301	0.07
319.67	0.07
320.038	0.07
320.407	0.07
320.775	0.07
321.144	0.07
321.512	0.06
321.881	0.07
322.249	0.07
322.618	0.06
322.986	0.06
323.354	0.07
323.723	0.06
324.091	0.06
324.459	0.06
324.827	0.06
325.195	0.06
325.564	0.06
325.932	0.06
326.3	0.06
326.668	0.06
327.036	0.05
327.404	0.06
327.772	0.06
328.14	0.06
328.508	0.06
328.875	0.06
329.243	0.06
329.611	0.06
329.979	0.06
330.346	0.06
330.714	0.06
331.082	0.06
331.449	0.06
331.817	0.06
332.185	0.06
332.552	0.06
332.92	0.06
333.287	0.07
333.655	0.07
334.022	0.06
334.389	0.07
334.757	0.07
335.124	0.07
335.491	0.07
335.859	0.06
336.226	0.07
336.593	0.07
336.96	0.07
337.327	0.07
337.695	0.07
338.062	0.08
338.429	0.07
338.796	0.07
339.163	0.07
339.53	0.08
339.897	0.08
340.263	0.08
340.63	0.08
340.997	0.08
341.364	0.08
341.731	0.09
342.097	0.08
342.464	0.09
342.831	0.09
343.197	0.09
343.564	0.1
343.931	0.09
344.297	0.1
344.664	0.1
345.03	0.09
345.396	0.1
345.763	0.1
346.129	0.11
346.496	0.1
346.862	0.11
347.228	0.11
347.594	0.11
347.961	0.11
348.327	0.11
348.693	0.12
349.059	0.11
349.425	0.12
349.791	0.12
350.157	0.12
350.523	0.12
350.889	0.13
351.255	0.14
351.621	0.13
351.987	0.14
352.353	0.14
352.719	0.14
353.084	0.14
353.45	0.15
353.816	0.15
354.181	0.15
354.547	0.15
354.913	0.16
355.278	0.16
355.644	0.16
356.009	0.17
356.375	0.17
356.74	0.17
357.106	0.18
357.471	0.18
357.836	0.19
358.202	0.19
358.567	0.19
358.932	0.2
359.297	0.2
359.663	0.2
360.028	0.21
360.393	0.21
360.758	0.21
361.123	0.22
361.488	0.22
361.853	0.22
362.218	0.23
362.583	0.23
362.948	0.23
363.312	0.23
363.677	0.24
364.042	0.24
364.407	0.24
364.772	0.25
365.136	0.25
365.501	0.26
365.865	0.26
366.23	0.27
366.595	0.28
366.959	0.28
367.324	0.29
367.688	0.3
368.052	0.3
368.417	0.3
368.781	0.31
369.145	0.31
369.51	0.31
369.874	0.32
370.238	0.32
370.602	0.32
370.967	0.32
371.331	0.31
371.695	0.32
372.059	0.32
372.423	0.31
372.787	0.31
373.151	0.31
373.515	0.31
373.878	0.31
374.242	0.31
374.606	0.31
374.97	0.31
375.334	0.31
375.697	0.31
376.061	0.31
376.425	0.32
376.788	0.32
377.152	0.32
377.515	0.33
377.879	0.33
378.242	0.34
378.606	0.34
378.969	0.34
379.333	0.34
379.696	0.35
380.059	0.36
380.422	0.37
380.786	0.37
381.149	0.38
381.512	0.38
381.875	0.39
382.238	0.4
382.601	0.41
382.964	0.42
383.327	0.43
383.69	0.45
384.053	0.46
384.416	0.48
384.779	0.48
385.142	0.49
385.504	0.5
385.867	0.51
386.23	0.51
386.593	0.52
386.955	0.52
387.318	0.51
387.68	0.52
388.043	0.52
388.405	0.52
388.768	0.51
389.13	0.5
389.493	0.5
389.855	0.5
390.217	0.49
390.58	0.49
390.942	0.49
391.304	0.5
391.666	0.51
392.028	0.52
392.391	0.52
392.753	0.54
393.115	0.57
393.477	0.59
393.839	0.6
394.201	0.62
394.563	0.66
394.924	0.69
395.286	0.7
395.648	0.73
396.01	0.74
396.371	0.78
396.733	0.79
397.095	0.81
397.456	0.81
397.818	0.81
398.18	0.8
398.541	0.8
398.903	0.78
399.264	0.75
399.625	0.73
399.987	0.7
400.348	0.67
400.709	0.63
401.071	0.6
401.432	0.56
401.793	0.53
402.154	0.49
402.515	0.46
402.876	0.43
403.238	0.39
403.599	0.37
403.96	0.34
404.32	0.32
404.681	0.3
405.042	0.27
405.403	0.25
405.764	0.23
406.125	0.21
406.485	0.21
406.846	0.19
407.207	0.18
407.567	0.17
407.928	0.16
408.288	0.15
408.649	0.14
409.009	0.13
409.37	0.12
409.73	0.12
410.091	0.11
410.451	0.11
410.811	0.1
411.171	0.1
411.532	0.1
411.892	0.09
412.252	0.08
412.612	0.08
412.972	0.08
413.332	0.08
413.692	0.07
414.052	0.08
414.412	0.07
414.772	0.07
415.132	0.07
415.492	0.07
415.851	0.07
416.211	0.06
416.571	0.05
416.931	0.06
417.29	0.05
417.65	0.05
418.009	0.05
418.369	0.04
418.728	0.05
419.088	0.05
419.447	0.04
419.807	0.04
420.166	0.05
420.525	0.04
420.884	0.04
421.244	0.04
421.603	0.05
421.962	0.04
422.321	0.04
422.68	0.04
423.039	0.04
423.398	0.04
423.757	0.04
424.116	0.05
424.475	0.04
424.834	0.05
425.193	0.04
425.551	0.04
425.91	0.04
426.269	0.03
426.628	0.04
426.986	0.03
427.345	0.03
427.703	0.04
428.062	0.03
428.42	0.03
428.779	0.03
429.137	0.04
429.496	0.03
429.854	0.03
430.212	0.03
430.57	0.03
430.929	0.04
431.287	0.03
431.645	0.03
432.003	0.02
432.361	0.03
432.719	0.03
433.077	0.03
433.435	0.03
433.793	0.04
434.151	0.02
434.509	0.03
434.866	0.03
435.224	0.02
435.582	0.02
435.94	0.02
436.297	0.03
436.655	0.03
437.012	0.03
437.37	0.03
437.727	0.02
438.085	0.02
438.442	0.03
438.8	0.02
439.157	0.02
439.514	0.02
439.872	0.02
440.229	0.03
440.586	0.03
440.943	0.02
441.3	0.03
441.657	0.02
442.014	0.02
442.371	0.02
442.728	0.03
443.085	0.01
443.442	0.02
443.799	0.02
444.156	0.02
444.513	0.02
444.869	0.02
445.226	0.02
445.583	0.02
445.939	0.03
446.296	0.02
446.652	0.02
447.009	0.02
447.365	0.01
447.722	0.01
448.078	0.01
448.434	0.02
448.791	0.01
449.147	0.01
449.503	0.01
449.859	0
450.215	0.01
450.571	0.02
450.928	0.01
451.284	0.01
451.64	0.01
451.995	0
452.351	0
452.707	0.01
453.063	-0
453.419	0.01
453.775	0
454.13	0.01
454.486	0.01
454.842	-0
455.197	-0.01
455.553	-0.01
455.908	-0
456.264	-0.01
456.619	-0.01
456.975	-0
457.33	-0.01
457.685	-0.02
458.04	-0.02
458.396	-0.02
458.751	-0.02
459.106	-0.02
459.461	-0.02
459.816	-0.02
460.171	-0.03
460.526	-0.02
460.881	-0.03
461.236	-0.04
461.591	-0.03
461.946	-0.04
462.301	-0.04
462.655	-0.04
463.01	-0.03
463.365	-0.04
463.719	-0.04
464.074	-0.05
464.428	-0.06
464.783	-0.06
465.137	-0.06
465.492	-0.06
465.846	-0.05
466.201	-0.06
466.555	-0.06
466.909	-0.06
467.263	-0.05
467.618	-0.05
467.972	-0.05
468.326	-0.06
468.68	-0.06
469.034	-0.06
469.388	-0.06
469.742	-0.06
470.096	-0.06
470.45	-0.06
470.804	-0.05
471.157	-0.06
471.511	-0.06
471.865	-0.06
472.218	-0.06
472.572	-0.06
472.926	-0.05
473.279	-0.06
473.633	-0.05
473.986	-0.04
474.34	-0.05
474.693	-0.04
475.046	-0.04
475.4	-0.03
475.753	-0.03
476.106	-0.03
476.459	-0.03
476.812	-0.02
477.165	-0.02
477.519	-0.02
477.872	-0.02
478.224	-0.02
478.577	-0.02
478.93	-0
479.283	-0.01
479.636	-0.01
479.989	-0.01
480.341	-0
480.694	-0
481.047	-0
481.399	-0
481.752	0
482.104	0
482.457	0.01
482.809	0
483.162	0
483.514	0
483.866	0.01
484.219	0.01
484.571	0.01
484.923	0.01
485.275	0.01
485.627	0.02
485.979	0.01
486.331	0.01
486.683	0.02
487.035	0.02
487.387	0.02
487.739	0.02
488.091	0.02
488.443	0.02
488.794	0.02
489.146	0.02
489.498	0.02
489.849	0.02
490.201	0.02
490.552	0.03
490.904	0.03
491.255	0.02
491.607	0.02
491.958	0.02
492.309	0.03
492.661	0.02
493.012	0.03
493.363	0.03
493.714	0.03
494.065	0.03
494.416	0.03
494.767	0.03
495.118	0.03
495.469	0.04
495.82	0.03
496.171	0.04
496.522	0.03
496.872	0.04
497.223	0.04
497.574	0.04
497.924	0.04
498.275	0.04
498.626	0.04
498.976	0.04
499.327	0.04
499.677	0.04
500.027	0.05
500.378	0.04
500.728	0.05
501.078	0.05
501.428	0.05
501.779	0.04
502.129	0.05
502.479	0.05
502.829	0.05
503.179	0.05
503.529	0.05
503.879	0.05
504.229	0.05
504.578	0.05
504.928	0.05
505.278	0.05
505.628	0.06
505.977	0.06
506.327	0.06
506.676	0.06
507.026	0.06
507.375	0.06
507.725	0.06
508.074	0.06
508.424	0.06
508.773	0.06
509.122	0.06
509.471	0.06
509.82	0.06
510.17	0.07
510.519	0.06
510.868	0.06
511.217	0.07
511.566	0.07
511.915	0.07
512.263	0.07
512.612	0.07
512.961	0.07
513.31	0.07
513.659	0.07
514.007	0.07
514.356	0.07
514.704	0.08
515.053	0.07
515.401	0.07
515.75	0.08
516.098	0.08
516.447	0.08
516.795	0.08
517.143	0.08
517.491	0.08
517.839	0.08
518.188	0.08
518.536	0.08
518.884	0.08
519.232	0.08
519.58	0.09
519.928	0.08
520.275	0.08
520.623	0.08
520.971	0.09
521.319	0.09
521.666	0.09
522.014	0.08
522.362	0.09
522.709	0.09
523.057	0.09
523.404	0.09
523.752	0.1
524.099	0.09
524.446	0.09
524.794	0.09
525.141	0.1
525.488	0.1
525.835	0.1
526.182	0.1
526.529	0.1
526.876	0.1
527.223	0.1
527.57	0.1
527.917	0.1
528.264	0.1
528.611	0.1
528.958	0.1
529.304	0.1
529.651	0.1
529.998	0.11
530.344	0.11
530.691	0.11
531.037	0.11
531.384	0.11
531.73	0.11
532.076	0.11
532.423	0.11
532.769	0.11
533.115	0.11
533.461	0.11
533.807	0.12
534.154	0.12
534.5	0.12
534.846	0.12
535.192	0.12
535.537	0.12
535.883	0.12
536.229	0.12
536.575	0.12
536.921	0.12
537.266	0.12
537.612	0.13
537.957	0.13
538.303	0.13
538.649	0.12
538.994	0.13
539.339	0.13
539.685	0.13
540.03	0.13
540.375	0.13
540.721	0.13
541.066	0.14
541.411	0.13
541.756	0.14
542.101	0.13
542.446	0.14
542.791	0.14
543.136	0.14
543.481	0.14
543.825	0.14
544.17	0.14
544.515	0.14
544.86	0.15
545.204	0.15
545.549	0.15
545.893	0.15
546.238	0.15
546.582	0.15
546.927	0.15
547.271	0.15
547.615	0.15
547.96	0.16
548.304	0.15
548.648	0.16
548.992	0.16
549.336	0.16
549.68	0.16
550.024	0.16
550.368	0.16
550.712	0.16
551.056	0.16
551.4	0.17
551.743	0.16
552.087	0.17
552.431	0.17
552.774	0.17
553.118	0.17
553.462	0.17
553.805	0.17
554.148	0.17
554.492	0.17
554.835	0.17
555.178	0.17
555.522	0.17
555.865	0.18
556.208	0.17
556.551	0.17
556.894	0.18
557.237	0.18
557.58	0.18
557.923	0.18
558.266	0.18
558.609	0.18
558.952	0.18
559.294	0.19
559.637	0.18
559.98	0.18
560.322	0.18
560.665	0.18
561.007	0.19
561.35	0.19
561.692	0.19
562.034	0.19
562.377	0.19
562.719	0.18
563.061	0.19
563.403	0.19
563.745	0.19
564.088	0.19
564.43	0.19
564.772	0.19
565.113	0.19
565.455	0.19
565.797	0.19
566.139	0.19
566.481	0.19
566.822	0.19
567.164	0.19
567.506	0.19
567.847	0.19
568.189	0.19
568.53	0.19
568.872	0.19
569.213	0.19
569.554	0.19
569.895	0.19
570.237	0.19
570.578	0.2
570.919	0.19
571.26	0.19
571.601	0.19
571.942	0.19
572.283	0.19
572.624	0.19
572.965	0.19
573.306	0.19
573.646	0.19
573.987	0.19
574.328	0.19
574.668	0.19
575.009	0.19
575.349	0.19
575.69	0.19
576.03	0.19
576.37	0.19
576.711	0.18
577.051	0.19
577.391	0.19
577.731	0.19
578.072	0.19
578.412	0.19
578.752	0.19
579.092	0.19
579.431	0.19
579.771	0.18
580.111	0.17
580.451	0.18
580.791	0.19
581.13	0.19
581.47	0.19
581.81	0.19
582.149	0.19
582.489	0.19
582.828	0.19
583.167	0.18
583.507	0.16
583.846	0.14
584.185	0.16
584.525	0.18
584.864	0.19
585.203	0.19
585.542	0.2
585.881	0.2
586.22	0.2
586.559	0.2
586.898	0.19
587.236	0.19
587.575	0.19
587.914	0.19
588.252	0.2
588.591	0.21
588.93	0.21
589.268	0.21
589.607	0.21
589.945	0.21
590.283	0.2
590.622	0.21
590.96	0.21
591.298	0.22
591.636	0.21
591.974	0.22
592.313	0.22
592.651	0.22
592.989	0.22
593.326	0.22
593.664	0.22
594.002	0.22
594.34	0.22
594.678	0.22
595.015	0.22
595.353	0.22
595.691	0.22
596.028	0.22
596.366	0.23
596.703	0.23
597.04	0.23
597.378	0.23
597.715	0.23
598.052	0.23
598.389	0.24
598.726	0.24
599.064	0.24
599.401	0.24
599.738	0.24
600.074	0.24
600.411	0.24
600.748	0.24
601.085	0.23
601.422	0.23
601.758	0.23
602.095	0.23
602.432	0.23
602.768	0.23
603.105	0.24
603.441	0.24
603.777	0.24
604.114	0.24
604.45	0.24
604.786	0.24
605.122	0.24
605.459	0.24
605.795	0.24
606.131	0.24
606.467	0.24
606.803	0.24
607.139	0.24
607.474	0.24
607.81	0.24
608.146	0.24
608.482	0.24
608.817	0.24
609.153	0.23
609.488	0.23
609.824	0.24
610.159	0.23
610.495	0.23
610.83	0.23
611.165	0.23
611.5	0.23
611.836	0.23
612.171	0.23
612.506	0.23
612.841	0.23
613.176	0.23
613.511	0.23
613.845	0.23
614.18	0.23
614.515	0.23
614.85	0.23
615.184	0.23
615.519	0.23
615.854	0.23
616.188	0.23
616.523	0.23
616.857	0.23
617.191	0.22
617.526	0.22
617.86	0.22
618.194	0.22
618.528	0.22
618.862	0.22
619.196	0.22
619.53	0.22
619.864	0.22
620.198	0.22
620.532	0.22
620.866	0.22
621.2	0.21
621.533	0.21
621.867	0.21
622.201	0.21
622.534	0.21
622.868	0.22
623.201	0.21
623.534	0.21
623.868	0.22
624.201	0.21
624.534	0.21
624.868	0.21
625.201	0.21
625.534	0.21
625.867	0.21
626.2	0.21
626.533	0.2
626.865	0.2
627.198	0.2
627.531	0.21
627.864	0.2
628.196	0.2
628.529	0.2
628.862	0.2
629.194	0.2
629.527	0.2
629.859	0.19
630.191	0.19
630.524	0.19
630.856	0.19
631.188	0.19
631.52	0.19
631.852	0.19
632.184	0.19
632.516	0.18
632.848	0.18
633.18	0.18
633.512	0.18
633.844	0.18
634.175	0.18
634.507	0.18
634.839	0.18
635.17	0.17
635.502	0.17
635.833	0.17
636.165	0.17
636.496	0.17
636.827	0.18
637.159	0.17
637.49	0.17
637.821	0.17
638.152	0.17
638.483	0.16
638.814	0.16
639.145	0.16
639.476	0.16
639.807	0.16
640.137	0.16
640.468	0.15
640.799	0.15
641.129	0.15
641.46	0.15
641.791	0.15
642.121	0.15
642.451	0.15
642.782	0.15
643.112	0.14
643.442	0.14
643.773	0.14
644.103	0.14
644.433	0.14
644.763	0.14
645.093	0.14
645.423	0.14
645.753	0.14
646.082	0.14
646.412	0.14
646.742	0.14
647.072	0.14
647.401	0.14
647.731	0.14
648.06	0.14
648.39	0.13
648.719	0.14
649.048	0.13
649.378	0.13
649.707	0.13
650.036	0.13
650.365	0.13
650.694	0.13
651.023	0.13
651.352	0.13
651.681	0.13
652.01	0.13
652.339	0.13
652.668	0.13
652.996	0.13
653.325	0.13
653.654	0.13
653.982	0.13
654.311	0.13
654.639	0.13
654.967	0.13
655.296	0.13
655.624	0.13
655.952	0.13
656.28	0.12
656.609	0.12
656.937	0.13
657.265	0.13
657.593	0.09
657.92	0
658.248	0
658.576	0
658.904	0.01
659.231	0.09
659.559	0.12
659.887	0.13
660.214	0.13
660.542	0.13
660.869	0.12
661.196	0.13
661.524	0.13
661.851	0.13
662.178	0.13
662.505	0.12
662.832	0.12
663.159	0.12
663.486	0.12
663.813	0.12
664.14	0.12
664.467	0.12
664.794	0.12
665.12	0.12
665.447	0.12
665.774	0.12
666.1	0.12
666.427	0.12
666.753	0.12
667.079	0.12
667.406	0.12
667.732	0.12
668.058	0.12
668.384	0.12
668.71	0.12
669.036	0.12
669.362	0.12
669.688	0.12
670.014	0.12
670.34	0.12
670.666	0.12
670.991	0.12
671.317	0.12
671.643	0.11
671.968	0.11
672.294	0.11
672.619	0.11
672.945	0.11
673.27	0.11
673.595	0.11
673.92	0.11
674.246	0.11
674.571	0.11
674.896	0.11
675.221	0.11
675.546	0.11
675.87	0.11
676.195	0.1
676.52	0.1
676.845	0.11
677.169	0.1
677.494	0.1
677.819	0.1
678.143	0.1
678.468	0.1
678.792	0.1
679.116	0.1
679.44	0.1
679.765	0.1
680.089	0.1
680.413	0.09
680.737	0.09
681.061	0.09
681.385	0.1
681.709	0.09
682.033	0.09
682.356	0.08
682.68	0.09
683.004	0.09
683.327	0.09
683.651	0.08
683.974	0.08
684.298	0.08
684.621	0.08
684.944	0.08
685.268	0.08
685.591	0.08
685.914	0.08
686.237	0.08
686.56	0.08
686.883	0.08
687.206	0.07
687.529	0.07
687.852	0.07
688.175	0.07
688.497	0.07
688.82	0.07
689.142	0.07
689.465	0.07
689.787	0.07
690.11	0.07
690.432	0.07
690.755	0.07
691.077	0.07
691.399	0.07
691.721	0.07
692.043	0.06
692.365	0.06
692.687	0.06
693.009	0.06
693.331	0.06
693.653	0.06
693.974	0.06
694.296	0.06
694.618	0.06
694.939	0.06
695.261	0.06
695.582	0.06
695.904	0.06
696.225	0.06
696.546	0.06
696.868	0.05
697.189	0.06
697.51	0.05
697.831	0.05
698.152	0.06
698.473	0.06
698.794	0.05
699.114	0.05
699.435	0.05
699.756	0.05
700.077	0.05
700.397	0.05
700.718	0.05
701.038	0.05
701.359	0.05
701.679	0.05
701.999	0.05
702.32	0.05
702.64	0.05
702.96	0.05
703.28	0.05
703.6	0.05
703.92	0.05
704.24	0.04
704.56	0.04
704.879	0.04
705.199	0.04
705.519	0.04
705.838	0.04
706.158	0.04
706.478	0.04
706.797	0.04
707.116	0.04
707.436	0.04
707.755	0.04
708.074	0.04
708.393	0.05
708.712	0.04
709.031	0.04
709.35	0.04
709.669	0.04
709.988	0.04
710.307	0.04
710.626	0.04
710.944	0.04
711.263	0.04
711.582	0.04
711.9	0.04
712.219	0.04
712.537	0.04
712.855	0.04
713.174	0.04
713.492	0.04
713.81	0.04
714.128	0.04
714.446	0.04
714.764	0.04
715.082	0.03
715.4	0.04
715.718	0.03
716.035	0.03
716.353	0.03
716.671	0.03
716.988	0.03
717.306	0.04
717.623	0.04
717.941	0.04
718.258	0.04
718.575	0.04
718.893	0.04
719.21	0.04
719.527	0.04
719.844	0.04
720.161	0.04
720.478	0.04
720.795	0.04
721.112	0.04
721.428	0.04
721.745	0.04
722.062	0.04
722.378	0.04
722.695	0.04
723.011	0.04
723.328	0.04
723.644	0.04
723.96	0.04
724.276	0.04
724.593	0.04
724.909	0.04
725.225	0.04
725.541	0.04
725.857	0.04
726.173	0.05
726.488	0.04
726.804	0.04
727.12	0.04
727.435	0.04
727.751	0.05
728.067	0.04
728.382	0.05
728.697	0.05
729.013	0.04
729.328	0.04
729.643	0.05
729.958	0.05
730.273	0.05
730.588	0.05
730.903	0.05
731.218	0.05
731.533	0.05
731.848	0.05
732.163	0.05
732.477	0.05
732.792	0.04
733.107	0.04
733.421	0.05
733.736	0.05
734.05	0.05
734.364	0.05
734.678	0.05
734.993	0.05
735.307	0.05
735.621	0.05
735.935	0.05
736.249	0.04
736.563	0.05
736.877	0.04
737.19	0.05
737.504	0.04
737.818	0.04
738.131	0.04
738.445	0.04
738.758	0.04
739.072	0.04
739.385	0.04
739.698	0.04
740.012	0.04
740.325	0.04
740.638	0.04
740.951	0.04
741.264	0.04
741.577	0.04
741.89	0.04
742.203	0.04
742.515	0.05
742.828	0.05
743.141	0.04
743.453	0.05
743.766	0.05
744.078	0.04
744.391	0.04
744.703	0.04
745.015	0.04
745.327	0.04
745.639	0.04
745.952	0.04
746.264	0.04
746.575	0.04
746.887	0.04
747.199	0.04
747.511	0.04
747.823	0.04
748.134	0.04
748.446	0.03
748.757	0.04
749.069	0.03
749.38	0.03
749.692	0.03
750.003	0.03
750.314	0.03
750.625	0.03
750.936	0.04
751.248	0.03
751.559	0.03
751.869	0.03
752.18	0.03
752.491	0.03
752.802	0.03
753.112	0.03
753.423	0.03
753.734	0.03
754.044	0.03
754.355	0.03
754.665	0.03
754.975	0.03
755.285	0.03
755.596	0.02
755.906	0.02
756.216	0.02
756.526	0.02
756.836	0.02
757.146	0.02
757.455	0.02
757.765	0.02
758.075	0.02
758.385	0.02
758.694	0.02
759.004	0.02
759.313	0.02
759.622	0.02
759.932	0.02
760.241	0.02
760.55	0.02
760.859	0.02
761.168	0.02
761.477	0.02
761.786	0.02
762.095	0.02
762.404	0.02
762.713	0.02
763.021	0.02
763.33	0.02
763.639	0.01
763.947	0.01
764.256	0.01
764.564	0.01
764.872	0.01
765.181	0.01
765.489	0.01
765.797	0.01
766.105	0.01
766.413	0.01
766.721	0.01
767.029	0.01
767.337	0.02
767.644	0.02
767.952	0.02
768.26	0.02
768.567	0.02
768.875	0.02
769.182	0.01
769.49	0.01
769.797	0.01
770.104	0.01
770.411	0.01
770.718	0.01
771.026	0.01
771.333	0.01
771.639	0.01
771.946	0.01
772.253	0.01
772.56	0.01
772.867	0.01
773.173	0.01
773.48	0.01
773.786	0.01
774.093	0.01
774.399	0.01
774.705	0
775.012	0.01
775.318	0.01
775.624	0
775.93	0.01
776.236	0.01
776.542	0.01
776.848	0.01
777.154	0.01
777.459	0.01
777.765	0.01
778.071	0.01
778.376	0.01
778.682	0.01
778.987	0
779.292	0.01
779.598	0.01
779.903	0.01
780.208	0.01
780.513	0.01
780.818	0.01
781.123	0.01
781.428	0.01
781.733	0.01
782.038	0.01
782.343	0.01
782.647	0.01
782.952	0.01
783.256	0.01
783.561	0.01
783.865	0.01
784.17	0.01
784.474	0.01
784.778	0.01
785.082	0.01
785.386	0.01
785.69	0.01
785.994	0.01
786.298	0.01
786.602	0.01
786.906	0
787.209	0.01
787.513	0.01
787.817	0
788.12	0.01
788.424	0.01
788.727	0.01
789.03	0.01
789.333	0.01
789.637	0.01
789.94	0.01
790.243	0.01
790.546	0.01
790.849	0.01
791.152	0.01
791.454	0.01
791.757	0.01
792.06	0.01
792.362	0.01
792.665	0.01
792.967	0.01
793.27	0.01
793.572	0.01
793.874	0.01
794.177	0.01
794.479	0.01
794.781	0.01
795.083	0.01
795.385	0.01
795.687	0.01
795.989	0.01
796.29	0.01
796.592	0.01
796.894	0.01
797.195	0.01
797.497	0.01
797.798	0.01
798.1	0.01
798.401	0.01
798.702	0.01
799.003	0.01
799.304	0.01
799.605	0.01
799.906	0.01
800.207	0.01
800.508	0.01
800.809	0.01
801.11	0.01
801.41	0.01
801.711	0.01
802.011	0.01
802.312	0.02
802.612	0.01
802.913	0.02
803.213	0.01
803.513	0.02
803.813	0.01
804.113	0.02
804.413	0.02
804.713	0.02
805.013	0.02
805.313	0.02
805.613	0.01
805.912	0.01
806.212	0.02
806.511	0.01
806.811	0.02
807.11	0.02
807.41	0.02
807.709	0.02
808.008	0.01
808.307	0.01
808.606	0.01
808.905	0.01
809.204	0.01
809.503	0.01
809.802	0.01
810.101	0.01
810.399	0.01
810.698	0.01
810.997	0.01
811.295	0.01
811.593	0.01
811.892	0.01
812.19	0.01
812.488	0.02
812.786	0.01
813.084	0.01
813.383	0.01
813.68	0.01
813.978	0.01
814.276	0.01
814.574	0.01
814.872	0.01
815.169	0.01
815.467	0.01
815.764	0.01
816.062	0.02
816.359	0.01
816.656	0.01
816.954	0.01
817.251	0.01
817.548	0
817.845	0.01
818.142	0.02
818.439	0.01
818.735	0.01
819.032	0.01
819.329	0.01
819.626	0.01
819.922	0.01
820.219	0.01
820.515	0.01
820.811	0.01
821.108	0.01
821.404	0.01
821.7	0.01
821.996	0.01
822.292	0.01
822.588	0.01
822.884	0.01
823.18	0.01
823.475	0.01
823.771	0.01
824.067	0.01
824.362	0.01
824.658	0.02
824.953	0.02
825.249	0.02
825.544	0.02
825.839	0.02
826.134	0.02
826.429	0.02
826.724	0.01
827.019	0.01
827.314	0.01
827.609	0.01
827.904	0.01
828.198	0.01
828.493	0.01
828.787	0.01
829.082	0.01
829.376	0.01
829.671	0.01
829.965	0.01
830.259	0.01
830.553	0.01
830.847	0.01
831.141	0.01
831.435	0.01
831.729	0.01
832.023	0.02
832.317	0.01
832.61	0.01
832.904	0
833.197	0.01
833.491	0.01
833.784	0.01
834.077	0.01
834.371	0.02
834.664	0.01
834.957	0.01
835.25	0.01
835.543	0.01
835.836	0.01
836.129	0.01
836.421	0.01
836.714	0.01
837.007	0.01
837.299	0.01
837.592	0.02
837.884	0.02
838.177	0.02
838.469	0.01
838.761	0.02
839.053	0.01
839.345	0.02
839.637	0.02
839.929	0.01
840.221	0.02
840.513	0.02
840.805	0.02
841.096	0.02
841.388	0.01
841.68	0.02
841.971	0.02
842.262	0.01
842.554	0.01
842.845	0.02
843.136	0.01
843.427	0.02
843.718	0.02
844.009	0.01
844.3	0.01
844.591	0.02
844.882	0
845.173	0.01
845.463	0
845.754	0.01
846.044	0.02
846.335	0.01
846.625	0.02
846.915	0.02
847.206	0.02
847.496	0.02
847.786	0.01
848.076	0.02
848.366	0.02
848.656	0.03
848.945	0.01
849.235	0.01
849.525	0.03
849.814	0.01
850.104	0.02
850.393	0.01
850.683	0.01
850.972	0.01
851.261	0.01
851.551	0.02
851.84	0.02
852.129	0.01
852.418	0.01
852.707	0.01
852.995	0
853.284	0.01
853.573	0.01
853.862	0.01
854.15	0
854.439	0.01
854.727	0.01
855.015	0.02
855.304	0
855.592	0.01
855.88	0.02
856.168	0.01
856.456	0.01
856.744	0.01
857.032	0.02
857.32	0.01
857.607	0.02
857.895	0.01
858.183	0.03
858.47	0
858.757	0
859.045	0.02
859.332	0.01
859.619	0
859.907	0.02
860.194	0.01
860.481	0.02
860.768	0.02
861.054	0.02
861.341	0.02
861.628	0.03
861.915	0.02
862.201	0.01
862.488	0.01
862.774	0.01
863.061	0.01
863.347	-0
863.633	0.02
863.919	0
864.205	0.03
864.491	0.04
864.777	-0.01
865.063	-0.01
865.349	0.02
865.635	-0
865.92	-0
866.206	0.02
866.492	0.04
866.777	0.02
867.062	0
867.348	-0.01
867.633	0
867.918	-0.01
868.203	0.01
868.488	0.04
868.773	0.03
869.058	0.01
869.343	0.01
869.628	0
869.912	0.01
870.197	-0.01
870.482	0.03
870.766	0.05
871.05	0.03
871.335	0.03
871.619	0.02
871.903	0.03
872.187	0.04
872.471	0.01
872.755	0.01
873.039	0.03
873.323	0.05
873.607	0
873.89	-0.01
874.174	-0.03
874.458	0.04
874.741	0.03
875.024	0.04
875.308	-0.07
875.591	0.08
875.874	-0.01
876.157	0.04
876.44	0.01
876.723	0.06
877.006	0.08
877.289	0.08
877.572	-0.02
877.854	0.14
878.137	0.1
878.42	0.06
878.702	0.08
878.984	0.06
879.267	0.04
879.549	0.03
879.831	0.06
880.113	0.13
880.395	0.07
880.677	0.1
880.959	-0.05
