Data from Rubpy_EV_1500_EDTA_Buffered_Absorbance_15-03-35-913.txt Node
Date: Tue Jun 30 15:03:35 BST 2026
User: fpm-admin
Spectrometer: OFX00224
Trigger mode: 0
Integration Time (sec): 7.000000E-2
Scans to average: 3
Nonlinearity correction enabled: false
Boxcar width: 0
Storing dark spectrum: false
XAxis mode: Wavelengths
Number of Pixels in Spectrum: 2136
>>>>>Begin Spectral Data<<<<<
154.91	-0
155.289	-0.08
155.669	-0
156.048	-0
156.428	-0.28
156.807	1.64
157.186	-0.73
157.566	-0.16
157.945	-0.24
158.325	-1.04
158.704	-0
159.083	-0
159.462	-0
159.842	-0.24
160.221	-0.48
160.6	0.26
160.979	-0
161.359	-0.45
161.738	-0
162.117	-0
162.496	-0
162.875	-0.45
163.254	-0.49
163.633	0.38
164.012	-0
164.391	1.03
164.77	0.24
165.149	-0
165.528	-0
165.907	0.33
166.286	-0.2
166.665	-0
167.044	0.48
167.423	1.23
167.802	-0
168.181	-0.08
168.559	-0.41
168.938	0.77
169.317	-0.52
169.696	-0.18
170.074	-0.14
170.453	-0.76
170.832	-0
171.21	0.56
171.589	-0
171.968	-0
172.346	-0.6
172.725	-1.53
173.103	-0.52
173.482	-0
173.861	-0.34
174.239	-0
174.617	0.43
174.996	-0.4
175.374	-0
175.753	-0.25
176.131	0.39
176.51	0.01
176.888	-0.03
177.266	-0
177.645	-0.06
178.023	-0
178.401	-0.25
178.779	-0.12
179.158	-0.14
179.536	-0.26
179.914	-0
180.292	0.16
180.67	-0.11
181.048	-0.77
181.427	-0.2
181.805	-0
182.183	0.19
182.561	0.08
182.939	-0
183.317	-0
183.695	0.2
184.073	-0.54
184.451	-0
184.829	-0.48
185.206	-0.11
185.584	-0.33
185.962	0.35
186.34	-0.28
186.718	-0
187.096	-0
187.473	-0
187.851	-0
188.229	0.48
188.607	0.24
188.984	0.18
189.362	0.29
189.74	0.27
190.117	0.25
190.495	0.24
190.872	0.18
191.25	0.08
191.627	0.1
192.005	0.25
192.382	0.3
192.76	0.18
193.137	0.22
193.515	0.24
193.892	0.13
194.269	0.25
194.647	0.19
195.024	0.2
195.401	0.1
195.779	0.28
196.156	0.27
196.533	0.38
196.91	0.14
197.288	0.07
197.665	0.28
198.042	0.06
198.419	0.31
198.796	0.13
199.173	0.13
199.55	0.19
199.927	0.3
200.304	0.22
200.681	0.27
201.058	0.17
201.435	0.21
201.812	0.22
202.189	0.32
202.566	0.26
202.943	0.1
203.32	0.25
203.697	0.22
204.073	0.32
204.45	0.21
204.827	0.31
205.204	0.37
205.58	0.27
205.957	0.3
206.334	0.19
206.71	0.19
207.087	0.23
207.464	0.28
207.84	0.22
208.217	0.24
208.593	0.17
208.97	0.29
209.346	0.28
209.723	0.25
210.099	0.19
210.476	0.21
210.852	0.14
211.228	0.21
211.605	0.15
211.981	0.28
212.357	0.26
212.733	0.34
213.11	0.28
213.486	0.27
213.862	0.21
214.238	0.23
214.614	0.26
214.991	0.15
215.367	0.28
215.743	0.19
216.119	0.28
216.495	0.13
216.871	0.37
217.247	0.08
217.623	0.13
217.999	0.25
218.375	0.2
218.751	0.17
219.127	0.23
219.502	0.25
219.878	0.16
220.254	0.29
220.63	0.28
221.006	0.26
221.381	0.22
221.757	0.18
222.133	0.35
222.508	0.2
222.884	0.23
223.26	0.25
223.635	0.32
224.011	0.25
224.386	0.23
224.762	0.18
225.137	0.18
225.513	0.31
225.888	0.46
226.264	0.32
226.639	0.17
227.014	0.32
227.39	0.27
227.765	0.28
228.14	0.24
228.516	0.2
228.891	0.23
229.266	0.35
229.641	0.55
230.017	0.26
230.392	0.24
230.767	0.38
231.142	0.34
231.517	0.28
231.892	0.25
232.267	0.26
232.642	0.31
233.017	0.24
233.392	0.31
233.767	0.31
234.142	0.19
234.517	0.15
234.892	0.23
235.267	0.25
235.641	0.18
236.016	0.22
236.391	0.19
236.766	0.22
237.14	0.27
237.515	0.22
237.89	0.27
238.264	0.31
238.639	0.22
239.014	0.34
239.388	0.31
239.763	0.29
240.137	0.21
240.512	0.15
240.886	0.2
241.261	0.32
241.635	0.36
242.009	0.36
242.384	0.19
242.758	0.27
243.132	0.21
243.507	0.27
243.881	0.28
244.255	0.32
244.629	0.21
245.004	0.34
245.378	0.19
245.752	0.31
246.126	0.26
246.5	0.39
246.874	0.23
247.248	0.17
247.622	0.27
247.996	0.28
248.37	0.13
248.744	0.29
249.118	0.19
249.492	0.28
249.866	0.18
250.24	0.3
250.613	0.23
250.987	0.14
251.361	0.25
251.735	0.29
252.108	0.3
252.482	0.17
252.856	0.24
253.229	0.21
253.603	0.35
253.977	0.27
254.35	0.23
254.724	0.23
255.097	0.2
255.471	0.28
255.844	0.23
256.218	0.27
256.591	0.12
256.964	0.31
257.338	0.22
257.711	0.23
258.084	0.27
258.458	0.33
258.831	0.27
259.204	0.23
259.577	0.27
259.95	0.3
260.323	0.27
260.697	0.22
261.07	0.22
261.443	0.19
261.816	0.18
262.189	0.27
262.562	0.29
262.935	0.26
263.308	0.32
263.68	0.3
264.053	0.3
264.426	0.16
264.799	0.21
265.172	0.28
265.545	0.33
265.917	0.24
266.29	0.16
266.663	0.29
267.035	0.21
267.408	0.12
267.781	0.23
268.153	0.27
268.526	0.2
268.898	0.32
269.271	0.2
269.643	0.17
270.016	0.2
270.388	0.26
270.76	0.19
271.133	0.23
271.505	0.23
271.877	0.34
272.25	0.23
272.622	0.29
272.994	0.23
273.366	0.22
273.739	0.36
274.111	0.2
274.483	0.22
274.855	0.32
275.227	0.2
275.599	0.21
275.971	0.37
276.343	0.27
276.715	0.23
277.087	0.29
277.459	0.28
277.831	0.26
278.203	0.3
278.574	0.26
278.946	0.24
279.318	0.15
279.69	0.23
280.061	0.22
280.433	0.31
280.805	0.24
281.176	0.28
281.548	0.22
281.92	0.3
282.291	0.22
282.663	0.34
283.034	0.27
283.406	0.15
283.777	0.32
284.148	0.22
284.52	0.35
284.891	0.22
285.262	0.27
285.634	0.23
286.005	0.26
286.376	0.22
286.747	0.19
287.119	0.27
287.49	0.2
287.861	0.24
288.232	0.26
288.603	0.22
288.974	0.24
289.345	0.17
289.716	0.2
290.087	0.22
290.458	0.22
290.829	0.28
291.2	0.19
291.571	0.2
291.941	0.24
292.312	0.22
292.683	0.28
293.054	0.31
293.424	0.13
293.795	0.22
294.166	0.21
294.536	0.24
294.907	0.2
295.277	0.21
295.648	0.27
296.018	0.26
296.389	0.21
296.759	0.26
297.13	0.31
297.5	0.19
297.871	0.2
298.241	0.18
298.611	0.21
298.981	0.21
299.352	0.19
299.722	0.22
300.092	0.2
300.462	0.2
300.832	0.19
301.202	0.21
301.573	0.21
301.943	0.22
302.313	0.21
302.683	0.22
303.053	0.21
303.422	0.21
303.792	0.18
304.162	0.2
304.532	0.19
304.902	0.16
305.272	0.18
305.641	0.19
306.011	0.19
306.381	0.18
306.75	0.18
307.12	0.17
307.49	0.19
307.859	0.19
308.229	0.2
308.598	0.21
308.968	0.19
309.337	0.2
309.707	0.2
310.076	0.2
310.445	0.21
310.815	0.2
311.184	0.2
311.553	0.21
311.923	0.2
312.292	0.22
312.661	0.21
313.03	0.21
313.399	0.22
313.768	0.22
314.137	0.21
314.506	0.21
314.875	0.22
315.244	0.21
315.613	0.21
315.982	0.21
316.351	0.21
316.72	0.21
317.089	0.21
317.458	0.21
317.826	0.21
318.195	0.2
318.564	0.2
318.933	0.2
319.301	0.19
319.67	0.19
320.038	0.19
320.407	0.19
320.775	0.19
321.144	0.19
321.512	0.19
321.881	0.18
322.249	0.19
322.618	0.19
322.986	0.18
323.354	0.18
323.723	0.18
324.091	0.18
324.459	0.18
324.827	0.17
325.195	0.17
325.564	0.17
325.932	0.17
326.3	0.17
326.668	0.17
327.036	0.16
327.404	0.18
327.772	0.17
328.14	0.18
328.508	0.17
328.875	0.17
329.243	0.17
329.611	0.18
329.979	0.18
330.346	0.17
330.714	0.18
331.082	0.17
331.449	0.18
331.817	0.18
332.185	0.18
332.552	0.19
332.92	0.19
333.287	0.19
333.655	0.19
334.022	0.19
334.389	0.19
334.757	0.2
335.124	0.2
335.491	0.2
335.859	0.2
336.226	0.2
336.593	0.21
336.96	0.21
337.327	0.21
337.695	0.21
338.062	0.22
338.429	0.22
338.796	0.22
339.163	0.23
339.53	0.23
339.897	0.23
340.263	0.23
340.63	0.25
340.997	0.24
341.364	0.25
341.731	0.25
342.097	0.25
342.464	0.26
342.831	0.26
343.197	0.27
343.564	0.27
343.931	0.27
344.297	0.28
344.664	0.28
345.03	0.29
345.396	0.3
345.763	0.3
346.129	0.31
346.496	0.3
346.862	0.31
347.228	0.31
347.594	0.32
347.961	0.32
348.327	0.33
348.693	0.33
349.059	0.33
349.425	0.35
349.791	0.35
350.157	0.35
350.523	0.36
350.889	0.37
351.255	0.38
351.621	0.38
351.987	0.39
352.353	0.4
352.719	0.41
353.084	0.41
353.45	0.42
353.816	0.43
354.181	0.43
354.547	0.45
354.913	0.46
355.278	0.46
355.644	0.47
356.009	0.48
356.375	0.5
356.74	0.51
357.106	0.52
357.471	0.52
357.836	0.54
358.202	0.55
358.567	0.56
358.932	0.56
359.297	0.58
359.663	0.59
360.028	0.59
360.393	0.6
360.758	0.6
361.123	0.61
361.488	0.62
361.853	0.64
362.218	0.63
362.583	0.65
362.948	0.65
363.312	0.66
363.677	0.67
364.042	0.68
364.407	0.69
364.772	0.7
365.136	0.72
365.501	0.73
365.865	0.75
366.23	0.76
366.595	0.77
366.959	0.78
367.324	0.8
367.688	0.82
368.052	0.82
368.417	0.85
368.781	0.84
369.145	0.86
369.51	0.87
369.874	0.87
370.238	0.86
370.602	0.87
370.967	0.88
371.331	0.86
371.695	0.87
372.059	0.86
372.423	0.85
372.787	0.85
373.151	0.85
373.515	0.84
373.878	0.84
374.242	0.84
374.606	0.83
374.97	0.84
375.334	0.84
375.697	0.83
376.061	0.84
376.425	0.86
376.788	0.86
377.152	0.86
377.515	0.87
377.879	0.87
378.242	0.89
378.606	0.89
378.969	0.91
379.333	0.92
379.696	0.92
380.059	0.94
380.422	0.96
380.786	0.98
381.149	0.99
381.512	1.01
381.875	1.03
382.238	1.05
382.601	1.07
382.964	1.1
383.327	1.11
383.69	1.15
384.053	1.17
384.416	1.2
384.779	1.22
385.142	1.26
385.504	1.27
385.867	1.29
386.23	1.29
386.593	1.3
386.955	1.32
387.318	1.31
387.68	1.3
388.043	1.31
388.405	1.3
388.768	1.31
389.13	1.28
389.493	1.26
389.855	1.28
390.217	1.26
390.58	1.26
390.942	1.26
391.304	1.27
391.666	1.3
392.028	1.31
392.391	1.33
392.753	1.35
393.115	1.39
393.477	1.44
393.839	1.46
394.201	1.52
394.563	1.58
394.924	1.62
395.286	1.67
395.648	1.71
396.01	1.75
396.371	1.79
396.733	1.77
397.095	1.83
397.456	1.84
397.818	1.82
398.18	1.79
398.541	1.81
398.903	1.79
399.264	1.77
399.625	1.69
399.987	1.68
400.348	1.61
400.709	1.55
401.071	1.47
401.432	1.39
401.793	1.32
402.154	1.24
402.515	1.16
402.876	1.09
403.238	1
403.599	0.94
403.96	0.88
404.32	0.81
404.681	0.75
405.042	0.71
405.403	0.66
405.764	0.61
406.125	0.56
406.485	0.53
406.846	0.51
407.207	0.47
407.567	0.44
407.928	0.41
408.288	0.39
408.649	0.37
409.009	0.35
409.37	0.33
409.73	0.31
410.091	0.3
410.451	0.28
410.811	0.27
411.171	0.26
411.532	0.25
411.892	0.24
412.252	0.23
412.612	0.22
412.972	0.21
413.332	0.21
413.692	0.2
414.052	0.19
414.412	0.19
414.772	0.18
415.132	0.17
415.492	0.17
415.851	0.17
416.211	0.16
416.571	0.16
416.931	0.15
417.29	0.15
417.65	0.14
418.009	0.13
418.369	0.13
418.728	0.13
419.088	0.13
419.447	0.13
419.807	0.12
420.166	0.12
420.525	0.13
420.884	0.12
421.244	0.12
421.603	0.11
421.962	0.11
422.321	0.11
422.68	0.1
423.039	0.11
423.398	0.11
423.757	0.11
424.116	0.11
424.475	0.11
424.834	0.1
425.193	0.1
425.551	0.09
425.91	0.1
426.269	0.1
426.628	0.1
426.986	0.09
427.345	0.09
427.703	0.09
428.062	0.09
428.42	0.09
428.779	0.09
429.137	0.09
429.496	0.08
429.854	0.08
430.212	0.09
430.57	0.08
430.929	0.08
431.287	0.08
431.645	0.09
432.003	0.08
432.361	0.08
432.719	0.08
433.077	0.08
433.435	0.08
433.793	0.08
434.151	0.07
434.509	0.07
434.866	0.08
435.224	0.08
435.582	0.08
435.94	0.07
436.297	0.08
436.655	0.08
437.012	0.08
437.37	0.08
437.727	0.07
438.085	0.07
438.442	0.08
438.8	0.07
439.157	0.06
439.514	0.07
439.872	0.06
440.229	0.06
440.586	0.07
440.943	0.06
441.3	0.07
441.657	0.06
442.014	0.07
442.371	0.06
442.728	0.06
443.085	0.05
443.442	0.06
443.799	0.06
444.156	0.06
444.513	0.06
444.869	0.05
445.226	0.05
445.583	0.06
445.939	0.05
446.296	0.05
446.652	0.06
447.009	0.06
447.365	0.05
447.722	0.05
448.078	0.05
448.434	0.05
448.791	0.05
449.147	0.05
449.503	0.04
449.859	0.04
450.215	0.05
450.571	0.05
450.928	0.04
451.284	0.04
451.64	0.05
451.995	0.04
452.351	0.04
452.707	0.05
453.063	0.03
453.419	0.04
453.775	0.04
454.13	0.04
454.486	0.04
454.842	0.03
455.197	0.03
455.553	0.02
455.908	0.03
456.264	0.02
456.619	0.02
456.975	0.03
457.33	0.02
457.685	0.02
458.04	0.02
458.396	0.01
458.751	0.02
459.106	0.01
459.461	0.01
459.816	0.01
460.171	-0.01
460.526	0
460.881	0
461.236	-0
461.591	0
461.946	-0.01
462.301	-0
462.655	-0.01
463.01	-0
463.365	-0.01
463.719	-0.01
464.074	-0.02
464.428	-0.03
464.783	-0.02
465.137	-0.03
465.492	-0.03
465.846	-0.03
466.201	-0.02
466.555	-0.02
466.909	-0.02
467.263	-0.01
467.618	-0.02
467.972	-0.02
468.326	-0.03
468.68	-0.03
469.034	-0.03
469.388	-0.03
469.742	-0.02
470.096	-0.03
470.45	-0.03
470.804	-0.02
471.157	-0.02
471.511	-0.03
471.865	-0.02
472.218	-0.02
472.572	-0.02
472.926	-0.02
473.279	-0.02
473.633	-0.01
473.986	-0
474.34	-0.01
474.693	-0
475.046	0
475.4	0.01
475.753	0.01
476.106	0.01
476.459	0.02
476.812	0.03
477.165	0.03
477.519	0.03
477.872	0.03
478.224	0.03
478.577	0.03
478.93	0.04
479.283	0.04
479.636	0.04
479.989	0.04
480.341	0.05
480.694	0.05
481.047	0.05
481.399	0.06
481.752	0.06
482.104	0.06
482.457	0.06
482.809	0.07
483.162	0.07
483.514	0.06
483.866	0.07
484.219	0.07
484.571	0.07
484.923	0.07
485.275	0.07
485.627	0.08
485.979	0.08
486.331	0.08
486.683	0.08
487.035	0.09
487.387	0.09
487.739	0.09
488.091	0.09
488.443	0.09
488.794	0.09
489.146	0.1
489.498	0.09
489.849	0.09
490.201	0.09
490.552	0.1
490.904	0.1
491.255	0.1
491.607	0.11
491.958	0.1
492.309	0.11
492.661	0.11
493.012	0.11
493.363	0.11
493.714	0.11
494.065	0.12
494.416	0.11
494.767	0.12
495.118	0.12
495.469	0.13
495.82	0.12
496.171	0.13
496.522	0.12
496.872	0.13
497.223	0.13
497.574	0.14
497.924	0.14
498.275	0.14
498.626	0.13
498.976	0.14
499.327	0.13
499.677	0.14
500.027	0.15
500.378	0.14
500.728	0.15
501.078	0.15
501.428	0.14
501.779	0.15
502.129	0.15
502.479	0.15
502.829	0.16
503.179	0.16
503.529	0.16
503.879	0.16
504.229	0.17
504.578	0.17
504.928	0.16
505.278	0.17
505.628	0.17
505.977	0.17
506.327	0.17
506.676	0.18
507.026	0.18
507.375	0.18
507.725	0.18
508.074	0.18
508.424	0.19
508.773	0.18
509.122	0.19
509.471	0.19
509.82	0.19
510.17	0.19
510.519	0.19
510.868	0.2
511.217	0.19
511.566	0.2
511.915	0.2
512.263	0.2
512.612	0.21
512.961	0.21
513.31	0.21
513.659	0.21
514.007	0.21
514.356	0.21
514.704	0.22
515.053	0.22
515.401	0.22
515.75	0.22
516.098	0.22
516.447	0.23
516.795	0.23
517.143	0.23
517.491	0.23
517.839	0.23
518.188	0.23
518.536	0.24
518.884	0.23
519.232	0.24
519.58	0.24
519.928	0.24
520.275	0.25
520.623	0.25
520.971	0.25
521.319	0.25
521.666	0.25
522.014	0.25
522.362	0.26
522.709	0.26
523.057	0.26
523.404	0.26
523.752	0.27
524.099	0.27
524.446	0.27
524.794	0.27
525.141	0.28
525.488	0.27
525.835	0.28
526.182	0.28
526.529	0.28
526.876	0.28
527.223	0.29
527.57	0.28
527.917	0.29
528.264	0.29
528.611	0.29
528.958	0.29
529.304	0.3
529.651	0.29
529.998	0.3
530.344	0.3
530.691	0.31
531.037	0.31
531.384	0.3
531.73	0.31
532.076	0.31
532.423	0.31
532.769	0.32
533.115	0.32
533.461	0.32
533.807	0.32
534.154	0.33
534.5	0.33
534.846	0.33
535.192	0.33
535.537	0.33
535.883	0.34
536.229	0.34
536.575	0.34
536.921	0.35
537.266	0.34
537.612	0.35
537.957	0.35
538.303	0.35
538.649	0.35
538.994	0.35
539.339	0.36
539.685	0.36
540.03	0.36
540.375	0.37
540.721	0.37
541.066	0.37
541.411	0.38
541.756	0.38
542.101	0.38
542.446	0.39
542.791	0.39
543.136	0.39
543.481	0.39
543.825	0.39
544.17	0.4
544.515	0.4
544.86	0.4
545.204	0.41
545.549	0.41
545.893	0.42
546.238	0.41
546.582	0.42
546.927	0.42
547.271	0.42
547.615	0.42
547.96	0.43
548.304	0.43
548.648	0.43
548.992	0.44
549.336	0.44
549.68	0.44
550.024	0.45
550.368	0.44
550.712	0.44
551.056	0.45
551.4	0.45
551.743	0.45
552.087	0.46
552.431	0.45
552.774	0.46
553.118	0.46
553.462	0.47
553.805	0.47
554.148	0.46
554.492	0.47
554.835	0.47
555.178	0.47
555.522	0.47
555.865	0.48
556.208	0.47
556.551	0.48
556.894	0.48
557.237	0.49
557.58	0.48
557.923	0.49
558.266	0.48
558.609	0.49
558.952	0.49
559.294	0.5
559.637	0.49
559.98	0.5
560.322	0.5
560.665	0.49
561.007	0.5
561.35	0.5
561.692	0.5
562.034	0.5
562.377	0.51
562.719	0.51
563.061	0.51
563.403	0.51
563.745	0.51
564.088	0.51
564.43	0.51
564.772	0.51
565.113	0.51
565.455	0.51
565.797	0.52
566.139	0.52
566.481	0.52
566.822	0.52
567.164	0.52
567.506	0.52
567.847	0.52
568.189	0.52
568.53	0.53
568.872	0.52
569.213	0.52
569.554	0.52
569.895	0.52
570.237	0.52
570.578	0.52
570.919	0.52
571.26	0.52
571.601	0.53
571.942	0.52
572.283	0.53
572.624	0.53
572.965	0.53
573.306	0.53
573.646	0.52
573.987	0.52
574.328	0.52
574.668	0.53
575.009	0.53
575.349	0.53
575.69	0.52
576.03	0.52
576.37	0.53
576.711	0.52
577.051	0.53
577.391	0.53
577.731	0.53
578.072	0.53
578.412	0.53
578.752	0.53
579.092	0.53
579.431	0.52
579.771	0.52
580.111	0.51
580.451	0.52
580.791	0.53
581.13	0.53
581.47	0.53
581.81	0.54
582.149	0.53
582.489	0.54
582.828	0.54
583.167	0.53
583.507	0.5
583.846	0.48
584.185	0.5
584.525	0.53
584.864	0.53
585.203	0.55
585.542	0.55
585.881	0.55
586.22	0.56
586.559	0.56
586.898	0.55
587.236	0.55
587.575	0.55
587.914	0.55
588.252	0.56
588.591	0.57
588.93	0.57
589.268	0.57
589.607	0.57
589.945	0.57
590.283	0.57
590.622	0.58
590.96	0.58
591.298	0.58
591.636	0.59
591.974	0.59
592.313	0.59
592.651	0.6
592.989	0.6
593.326	0.6
593.664	0.6
594.002	0.61
594.34	0.6
594.678	0.61
595.015	0.61
595.353	0.6
595.691	0.61
596.028	0.62
596.366	0.62
596.703	0.62
597.04	0.62
597.378	0.63
597.715	0.63
598.052	0.63
598.389	0.63
598.726	0.64
599.064	0.64
599.401	0.64
599.738	0.64
600.074	0.65
600.411	0.65
600.748	0.64
601.085	0.64
601.422	0.64
601.758	0.64
602.095	0.64
602.432	0.64
602.768	0.64
603.105	0.64
603.441	0.65
603.777	0.65
604.114	0.65
604.45	0.65
604.786	0.65
605.122	0.66
605.459	0.65
605.795	0.65
606.131	0.65
606.467	0.65
606.803	0.65
607.139	0.65
607.474	0.65
607.81	0.64
608.146	0.65
608.482	0.65
608.817	0.64
609.153	0.64
609.488	0.64
609.824	0.64
610.159	0.64
610.495	0.63
610.83	0.63
611.165	0.63
611.5	0.64
611.836	0.63
612.171	0.63
612.506	0.63
612.841	0.63
613.176	0.63
613.511	0.62
613.845	0.62
614.18	0.62
614.515	0.62
614.85	0.61
615.184	0.62
615.519	0.61
615.854	0.61
616.188	0.61
616.523	0.61
616.857	0.61
617.191	0.61
617.526	0.6
617.86	0.6
618.194	0.6
618.528	0.59
618.862	0.6
619.196	0.59
619.53	0.59
619.864	0.59
620.198	0.59
620.532	0.59
620.866	0.58
621.2	0.58
621.533	0.58
621.867	0.58
622.201	0.58
622.534	0.58
622.868	0.57
623.201	0.57
623.534	0.57
623.868	0.57
624.201	0.56
624.534	0.56
624.868	0.56
625.201	0.56
625.534	0.56
625.867	0.55
626.2	0.55
626.533	0.55
626.865	0.54
627.198	0.54
627.531	0.54
627.864	0.54
628.196	0.53
628.529	0.53
628.862	0.53
629.194	0.53
629.527	0.53
629.859	0.52
630.191	0.52
630.524	0.52
630.856	0.51
631.188	0.51
631.52	0.51
631.852	0.5
632.184	0.5
632.516	0.5
632.848	0.49
633.18	0.49
633.512	0.49
633.844	0.48
634.175	0.47
634.507	0.47
634.839	0.47
635.17	0.47
635.502	0.47
635.833	0.46
636.165	0.46
636.496	0.46
636.827	0.45
637.159	0.45
637.49	0.45
637.821	0.44
638.152	0.44
638.483	0.44
638.814	0.43
639.145	0.43
639.476	0.43
639.807	0.42
640.137	0.42
640.468	0.41
640.799	0.41
641.129	0.41
641.46	0.4
641.791	0.4
642.121	0.4
642.451	0.39
642.782	0.39
643.112	0.39
643.442	0.38
643.773	0.38
644.103	0.38
644.433	0.38
644.763	0.37
645.093	0.37
645.423	0.37
645.753	0.37
646.082	0.37
646.412	0.37
646.742	0.37
647.072	0.37
647.401	0.37
647.731	0.37
648.06	0.36
648.39	0.36
648.719	0.36
649.048	0.35
649.378	0.35
649.707	0.35
650.036	0.35
650.365	0.35
650.694	0.35
651.023	0.35
651.352	0.35
651.681	0.35
652.01	0.35
652.339	0.35
652.668	0.35
652.996	0.34
653.325	0.34
653.654	0.34
653.982	0.34
654.311	0.35
654.639	0.34
654.967	0.34
655.296	0.34
655.624	0.34
655.952	0.34
656.28	0.34
656.609	0.34
656.937	0.34
657.265	0.35
657.593	0.32
657.92	0.18
658.248	0.12
658.576	0.11
658.904	0.2
659.231	0.29
659.559	0.33
659.887	0.33
660.214	0.33
660.542	0.34
660.869	0.33
661.196	0.33
661.524	0.33
661.851	0.34
662.178	0.33
662.505	0.33
662.832	0.33
663.159	0.33
663.486	0.32
663.813	0.32
664.14	0.33
664.467	0.33
664.794	0.33
665.12	0.33
665.447	0.33
665.774	0.32
666.1	0.33
666.427	0.32
666.753	0.32
667.079	0.32
667.406	0.32
667.732	0.32
668.058	0.32
668.384	0.32
668.71	0.32
669.036	0.32
669.362	0.31
669.688	0.31
670.014	0.31
670.34	0.31
670.666	0.31
670.991	0.31
671.317	0.31
671.643	0.3
671.968	0.31
672.294	0.3
672.619	0.3
672.945	0.3
673.27	0.3
673.595	0.3
673.92	0.3
674.246	0.29
674.571	0.29
674.896	0.29
675.221	0.29
675.546	0.29
675.87	0.29
676.195	0.28
676.52	0.28
676.845	0.28
677.169	0.27
677.494	0.28
677.819	0.27
678.143	0.27
678.468	0.26
678.792	0.26
679.116	0.26
679.44	0.26
679.765	0.26
680.089	0.26
680.413	0.25
680.737	0.25
681.061	0.25
681.385	0.25
681.709	0.24
682.033	0.24
682.356	0.23
682.68	0.23
683.004	0.23
683.327	0.23
683.651	0.23
683.974	0.22
684.298	0.22
684.621	0.22
684.944	0.22
685.268	0.22
685.591	0.22
685.914	0.21
686.237	0.21
686.56	0.21
686.883	0.2
687.206	0.2
687.529	0.2
687.852	0.2
688.175	0.19
688.497	0.19
688.82	0.19
689.142	0.19
689.465	0.19
689.787	0.18
690.11	0.18
690.432	0.18
690.755	0.18
691.077	0.18
691.399	0.17
691.721	0.18
692.043	0.17
692.365	0.17
692.687	0.17
693.009	0.16
693.331	0.16
693.653	0.16
693.974	0.16
694.296	0.16
694.618	0.15
694.939	0.16
695.261	0.15
695.582	0.15
695.904	0.15
696.225	0.15
696.546	0.15
696.868	0.15
697.189	0.14
697.51	0.14
697.831	0.14
698.152	0.14
698.473	0.14
698.794	0.14
699.114	0.14
699.435	0.13
699.756	0.13
700.077	0.13
700.397	0.13
700.718	0.13
701.038	0.13
701.359	0.13
701.679	0.13
701.999	0.13
702.32	0.13
702.64	0.13
702.96	0.13
703.28	0.13
703.6	0.12
703.92	0.12
704.24	0.12
704.56	0.12
704.879	0.12
705.199	0.11
705.519	0.11
705.838	0.11
706.158	0.12
706.478	0.11
706.797	0.11
707.116	0.12
707.436	0.11
707.755	0.11
708.074	0.12
708.393	0.12
708.712	0.11
709.031	0.11
709.35	0.11
709.669	0.11
709.988	0.1
710.307	0.1
710.626	0.11
710.944	0.11
711.263	0.11
711.582	0.1
711.9	0.1
712.219	0.1
712.537	0.1
712.855	0.1
713.174	0.1
713.492	0.11
713.81	0.1
714.128	0.1
714.446	0.1
714.764	0.1
715.082	0.1
715.4	0.1
715.718	0.1
716.035	0.1
716.353	0.1
716.671	0.1
716.988	0.1
717.306	0.1
717.623	0.1
717.941	0.11
718.258	0.11
718.575	0.11
718.893	0.11
719.21	0.11
719.527	0.11
719.844	0.11
720.161	0.11
720.478	0.11
720.795	0.11
721.112	0.11
721.428	0.11
721.745	0.11
722.062	0.11
722.378	0.11
722.695	0.11
723.011	0.11
723.328	0.11
723.644	0.11
723.96	0.11
724.276	0.11
724.593	0.11
724.909	0.11
725.225	0.12
725.541	0.12
725.857	0.11
726.173	0.12
726.488	0.12
726.804	0.12
727.12	0.12
727.435	0.12
727.751	0.12
728.067	0.12
728.382	0.12
728.697	0.12
729.013	0.12
729.328	0.12
729.643	0.12
729.958	0.12
730.273	0.12
730.588	0.12
730.903	0.12
731.218	0.12
731.533	0.12
731.848	0.12
732.163	0.12
732.477	0.12
732.792	0.12
733.107	0.12
733.421	0.12
733.736	0.12
734.05	0.12
734.364	0.12
734.678	0.12
734.993	0.12
735.307	0.12
735.621	0.12
735.935	0.12
736.249	0.12
736.563	0.12
736.877	0.12
737.19	0.12
737.504	0.12
737.818	0.12
738.131	0.11
738.445	0.11
738.758	0.11
739.072	0.11
739.385	0.11
739.698	0.11
740.012	0.11
740.325	0.11
740.638	0.11
740.951	0.11
741.264	0.11
741.577	0.11
741.89	0.11
742.203	0.11
742.515	0.11
742.828	0.11
743.141	0.11
743.453	0.12
743.766	0.11
744.078	0.11
744.391	0.11
744.703	0.11
745.015	0.1
745.327	0.1
745.639	0.1
745.952	0.1
746.264	0.1
746.575	0.1
746.887	0.1
747.199	0.1
747.511	0.1
747.823	0.09
748.134	0.09
748.446	0.09
748.757	0.09
749.069	0.09
749.38	0.09
749.692	0.09
750.003	0.09
750.314	0.09
750.625	0.09
750.936	0.09
751.248	0.08
751.559	0.08
751.869	0.08
752.18	0.08
752.491	0.08
752.802	0.08
753.112	0.08
753.423	0.08
753.734	0.07
754.044	0.08
754.355	0.07
754.665	0.07
754.975	0.07
755.285	0.07
755.596	0.06
755.906	0.06
756.216	0.06
756.526	0.06
756.836	0.06
757.146	0.06
757.455	0.06
757.765	0.06
758.075	0.06
758.385	0.06
758.694	0.06
759.004	0.06
759.313	0.06
759.622	0.06
759.932	0.05
760.241	0.05
760.55	0.06
760.859	0.06
761.168	0.05
761.477	0.05
761.786	0.05
762.095	0.05
762.404	0.05
762.713	0.05
763.021	0.05
763.33	0.05
763.639	0.04
763.947	0.04
764.256	0.04
764.564	0.04
764.872	0.04
765.181	0.04
765.489	0.04
765.797	0.04
766.105	0.04
766.413	0.04
766.721	0.04
767.029	0.04
767.337	0.04
767.644	0.04
767.952	0.04
768.26	0.04
768.567	0.04
768.875	0.04
769.182	0.04
769.49	0.03
769.797	0.03
770.104	0.03
770.411	0.03
770.718	0.03
771.026	0.03
771.333	0.03
771.639	0.03
771.946	0.03
772.253	0.03
772.56	0.03
772.867	0.03
773.173	0.03
773.48	0.03
773.786	0.03
774.093	0.03
774.399	0.03
774.705	0.02
775.012	0.03
775.318	0.03
775.624	0.03
775.93	0.03
776.236	0.03
776.542	0.03
776.848	0.03
777.154	0.03
777.459	0.03
777.765	0.03
778.071	0.03
778.376	0.03
778.682	0.03
778.987	0.03
779.292	0.03
779.598	0.03
779.903	0.03
780.208	0.03
780.513	0.03
780.818	0.03
781.123	0.03
781.428	0.03
781.733	0.03
782.038	0.03
782.343	0.03
782.647	0.03
782.952	0.03
783.256	0.03
783.561	0.03
783.865	0.03
784.17	0.03
784.474	0.03
784.778	0.03
785.082	0.02
785.386	0.03
785.69	0.03
785.994	0.03
786.298	0.03
786.602	0.03
786.906	0.02
787.209	0.02
787.513	0.02
787.817	0.02
788.12	0.02
788.424	0.03
788.727	0.03
789.03	0.03
789.333	0.03
789.637	0.03
789.94	0.03
790.243	0.03
790.546	0.03
790.849	0.03
791.152	0.03
791.454	0.03
791.757	0.03
792.06	0.03
792.362	0.03
792.665	0.03
792.967	0.02
793.27	0.02
793.572	0.02
793.874	0.02
794.177	0.02
794.479	0.02
794.781	0.02
795.083	0.02
795.385	0.02
795.687	0.02
795.989	0.02
796.29	0.02
796.592	0.02
796.894	0.02
797.195	0.02
797.497	0.02
797.798	0.02
798.1	0.02
798.401	0.03
798.702	0.02
799.003	0.03
799.304	0.02
799.605	0.02
799.906	0.02
800.207	0.02
800.508	0.03
800.809	0.03
801.11	0.03
801.41	0.03
801.711	0.03
802.011	0.03
802.312	0.03
802.612	0.03
802.913	0.03
803.213	0.03
803.513	0.03
803.813	0.03
804.113	0.03
804.413	0.03
804.713	0.04
805.013	0.03
805.313	0.03
805.613	0.04
805.912	0.03
806.212	0.04
806.511	0.03
806.811	0.03
807.11	0.03
807.41	0.03
807.709	0.03
808.008	0.03
808.307	0.03
808.606	0.03
808.905	0.02
809.204	0.03
809.503	0.02
809.802	0.02
810.101	0.03
810.399	0.02
810.698	0.02
810.997	0.03
811.295	0.02
811.593	0.02
811.892	0.02
812.19	0.03
812.488	0.03
812.786	0.02
813.084	0.02
813.383	0.02
813.68	0.02
813.978	0.02
814.276	0.02
814.574	0.02
814.872	0.02
815.169	0.02
815.467	0.02
815.764	0.02
816.062	0.03
816.359	0.02
816.656	0.02
816.954	0.02
817.251	0.02
817.548	0.01
817.845	0.02
818.142	0.03
818.439	0.02
818.735	0.02
819.032	0.02
819.329	0.02
819.626	0.02
819.922	0.02
820.219	0.02
820.515	0.03
820.811	0.02
821.108	0.02
821.404	0.02
821.7	0.02
821.996	0.02
822.292	0.02
822.588	0.02
822.884	0.02
823.18	0.02
823.475	0.02
823.771	0.02
824.067	0.02
824.362	0.03
824.658	0.03
824.953	0.03
825.249	0.03
825.544	0.03
825.839	0.03
826.134	0.03
826.429	0.03
826.724	0.03
827.019	0.02
827.314	0.03
827.609	0.03
827.904	0.03
828.198	0.02
828.493	0.03
828.787	0.02
829.082	0.02
829.376	0.02
829.671	0.02
829.965	0.02
830.259	0.02
830.553	0.02
830.847	0.02
831.141	0.02
831.435	0.02
831.729	0.02
832.023	0.03
832.317	0.03
832.61	0.02
832.904	0.02
833.197	0.02
833.491	0.03
833.784	0.02
834.077	0.03
834.371	0.03
834.664	0.03
834.957	0.02
835.25	0.03
835.543	0.02
835.836	0.03
836.129	0.03
836.421	0.03
836.714	0.03
837.007	0.03
837.299	0.03
837.592	0.04
837.884	0.03
838.177	0.03
838.469	0.03
838.761	0.03
839.053	0.03
839.345	0.03
839.637	0.03
839.929	0.03
840.221	0.03
840.513	0.03
840.805	0.03
841.096	0.03
841.388	0.02
841.68	0.03
841.971	0.03
842.262	0.03
842.554	0.03
842.845	0.02
843.136	0.03
843.427	0.03
843.718	0.04
844.009	0.03
844.3	0.03
844.591	0.03
844.882	0.02
845.173	0.02
845.463	0.02
845.754	0.03
846.044	0.02
846.335	0.03
846.625	0.03
846.915	0.03
847.206	0.03
847.496	0.03
847.786	0.03
848.076	0.03
848.366	0.03
848.656	0.04
848.945	0.03
849.235	0.04
849.525	0.04
849.814	0.03
850.104	0.03
850.393	0.02
850.683	0.03
850.972	0.04
851.261	0.02
851.551	0.04
851.84	0.03
852.129	0.03
852.418	0.02
852.707	0.01
852.995	0.02
853.284	0.02
853.573	0.03
853.862	0.02
854.15	0.02
854.439	0.03
854.727	0.03
855.015	0.03
855.304	0.02
855.592	0.01
855.88	0.03
856.168	0.03
856.456	0.03
856.744	0.03
857.032	0.02
857.32	0.04
857.607	0.03
857.895	0.04
858.183	0.03
858.47	0.03
858.757	0.02
859.045	0.03
859.332	0.04
859.619	0.02
859.907	0.03
860.194	0.03
860.481	0.02
860.768	0.03
861.054	0.03
861.341	0.04
861.628	0.05
861.915	0.03
862.201	0.05
862.488	0.02
862.774	0.04
863.061	0.02
863.347	0.02
863.633	0.02
863.919	0.04
864.205	0.02
864.491	0.05
864.777	0.02
865.063	0.02
865.349	0.03
865.635	-0.01
865.92	0.02
866.206	0.04
866.492	0.04
866.777	0.04
867.062	0.03
867.348	0.02
867.633	0.01
867.918	0
868.203	0.03
868.488	0.03
868.773	0.02
869.058	0.04
869.343	0.01
869.628	0.04
869.912	0.03
870.197	-0
870.482	0.04
870.766	0.07
871.05	0.06
871.335	0.06
871.619	0.03
871.903	0.06
872.187	0.05
872.471	0.01
872.755	0.04
873.039	0.01
873.323	0.04
873.607	0.02
873.89	0.02
874.174	0.01
874.458	0.03
874.741	0.04
875.024	0.04
875.308	0
875.591	0.04
875.874	-0.01
876.157	0.06
876.44	-0.02
876.723	0.07
877.006	0.02
877.289	0.03
877.572	0.03
877.854	0.07
878.137	0.11
878.42	0.05
878.702	0.07
878.984	0.12
879.267	0.1
879.549	0.18
879.831	0.07
880.113	0.03
880.395	0.14
880.677	0.08
880.959	-0.03
