Data from Rubpy_EV_1500_EDTA_Buffered_Absorbance_14-50-50-885.txt Node
Date: Tue Jun 30 14:50:50 BST 2026
User: fpm-admin
Spectrometer: OFX00224
Trigger mode: 0
Integration Time (sec): 7.000000E-2
Scans to average: 3
Nonlinearity correction enabled: false
Boxcar width: 0
Storing dark spectrum: false
XAxis mode: Wavelengths
Number of Pixels in Spectrum: 2136
>>>>>Begin Spectral Data<<<<<
154.91	-0.03
155.289	-0.53
155.669	-0.43
156.048	0.05
156.428	-0.32
156.807	-0
157.186	-0.7
157.566	0.05
157.945	-0.26
158.325	-1.41
158.704	-1.52
159.083	0.7
159.462	-0.83
159.842	-0.38
160.221	-0.03
160.6	-0
160.979	1.32
161.359	-0.26
161.738	-0
162.117	-0
162.496	-0
162.875	0.51
163.254	-0
163.633	0.1
164.012	-0
164.391	0.14
164.77	0.12
165.149	0.07
165.528	-0
165.907	0.22
166.286	-0.62
166.665	-0.53
167.044	0.4
167.423	0.58
167.802	-0
168.181	0.29
168.559	-0.51
168.938	0.03
169.317	-0
169.696	0.03
170.074	1.04
170.453	-0.48
170.832	0.03
171.21	-0
171.589	0.85
171.968	1.04
172.346	-0.78
172.725	-0
173.103	-0.39
173.482	-0.3
173.861	1.2
174.239	-0
174.617	0.38
174.996	-0.43
175.374	0.4
175.753	-0.66
176.131	0.12
176.51	-0.12
176.888	-0.07
177.266	-0
177.645	-0.15
178.023	-0
178.401	-0.2
178.779	-0.24
179.158	0.73
179.536	-0.14
179.914	-0
180.292	0.35
180.67	-0.11
181.048	-0.44
181.427	0.02
181.805	-0
182.183	-0
182.561	-0.05
182.939	-0.95
183.317	-0
183.695	-0
184.073	-0.25
184.451	-0
184.829	-0.2
185.206	-0.12
185.584	-0.03
185.962	-0.12
186.34	-0
186.718	-0
187.096	-1.28
187.473	-0
187.851	0.79
188.229	-0.17
188.607	0.15
188.984	0.17
189.362	0.16
189.74	0.04
190.117	0.3
190.495	0.07
190.872	0
191.25	0.17
191.627	0.2
192.005	0.19
192.382	0.23
192.76	0.19
193.137	0.15
193.515	0.21
193.892	0.2
194.269	0.15
194.647	0.05
195.024	0.09
195.401	0.13
195.779	0.2
196.156	0.2
196.533	0.14
196.91	0.03
197.288	0.1
197.665	0.13
198.042	0.01
198.419	0.1
198.796	0.14
199.173	0.16
199.55	0.02
199.927	0.15
200.304	0.04
200.681	0.19
201.058	0.16
201.435	0.11
201.812	0.19
202.189	0.16
202.566	0.23
202.943	0.02
203.32	0.12
203.697	0.25
204.073	0.14
204.45	0.09
204.827	0.17
205.204	0.22
205.58	0.12
205.957	0.1
206.334	0.25
206.71	0.05
207.087	0.27
207.464	0.14
207.84	0.15
208.217	0.25
208.593	0.21
208.97	0.18
209.346	0.09
209.723	0.12
210.099	0.16
210.476	0.19
210.852	0.18
211.228	0.13
211.605	0.15
211.981	0.1
212.357	0.17
212.733	0.21
213.11	0.36
213.486	0.19
213.862	0.16
214.238	0.13
214.614	0.23
214.991	0.13
215.367	0.17
215.743	0.16
216.119	0.13
216.495	0.19
216.871	0.21
217.247	0.01
217.623	0.12
217.999	0.11
218.375	0.15
218.751	0.19
219.127	0.15
219.502	0.17
219.878	0.11
220.254	0.14
220.63	0.16
221.006	0.18
221.381	0.13
221.757	0.13
222.133	0.26
222.508	0.11
222.884	0.2
223.26	0.2
223.635	0.12
224.011	0.18
224.386	0.1
224.762	0.12
225.137	0.08
225.513	0.2
225.888	0.16
226.264	0.09
226.639	0.16
227.014	0.16
227.39	0.18
227.765	0.25
228.14	0.16
228.516	0.12
228.891	0.18
229.266	0.23
229.641	0.16
230.017	0.09
230.392	0.18
230.767	0.22
231.142	0.16
231.517	0.16
231.892	0.19
232.267	0.19
232.642	0.21
233.017	0.16
233.392	0.21
233.767	0.32
234.142	0.16
234.517	0.18
234.892	0.1
235.267	0.16
235.641	0.22
236.016	0.12
236.391	0.02
236.766	0.2
237.14	0.21
237.515	0.17
237.89	0.27
238.264	0.13
238.639	0.21
239.014	0.16
239.388	0.15
239.763	0.24
240.137	0.11
240.512	0.27
240.886	0.17
241.261	0.16
241.635	0.24
242.009	0.09
242.384	0.2
242.758	0.19
243.132	0.21
243.507	0.19
243.881	0.18
244.255	0.23
244.629	0.22
245.004	0.2
245.378	0.18
245.752	0.17
246.126	0.14
246.5	0.25
246.874	0.02
247.248	0.11
247.622	0.23
247.996	0.19
248.37	0.14
248.744	0.22
249.118	0.18
249.492	0.12
249.866	0.13
250.24	0.2
250.613	0.11
250.987	0.23
251.361	0.17
251.735	0.19
252.108	0.11
252.482	0.07
252.856	0.12
253.229	0.18
253.603	0.18
253.977	0.18
254.35	0.09
254.724	0.11
255.097	0.1
255.471	0.15
255.844	0.13
256.218	0.22
256.591	0.18
256.964	0.13
257.338	0.14
257.711	0.16
258.084	0.15
258.458	0.23
258.831	0.18
259.204	0.16
259.577	0.18
259.95	0.15
260.323	0.17
260.697	0.12
261.07	0.17
261.443	0.15
261.816	0.11
262.189	0.18
262.562	0.25
262.935	0.19
263.308	0.24
263.68	0.13
264.053	0.22
264.426	0.1
264.799	0.27
265.172	0.21
265.545	0.24
265.917	0.17
266.29	0.19
266.663	0.2
267.035	0.21
267.408	0.13
267.781	0.13
268.153	0.2
268.526	0.21
268.898	0.18
269.271	0.19
269.643	0.12
270.016	0.09
270.388	0.13
270.76	0.16
271.133	0.14
271.505	0.13
271.877	0.19
272.25	0.21
272.622	0.2
272.994	0.14
273.366	0.15
273.739	0.21
274.111	0.15
274.483	0.19
274.855	0.2
275.227	0.18
275.599	0.1
275.971	0.18
276.343	0.16
276.715	0.18
277.087	0.17
277.459	0.16
277.831	0.14
278.203	0.25
278.574	0.18
278.946	0.16
279.318	0.16
279.69	0.2
280.061	0.12
280.433	0.12
280.805	0.2
281.176	0.16
281.548	0.09
281.92	0.18
282.291	0.16
282.663	0.24
283.034	0.16
283.406	0.13
283.777	0.18
284.148	0.12
284.52	0.28
284.891	0.15
285.262	0.16
285.634	0.17
286.005	0.24
286.376	0.13
286.747	0.12
287.119	0.13
287.49	0.14
287.861	0.15
288.232	0.14
288.603	0.17
288.974	0.15
289.345	0.09
289.716	0.18
290.087	0.13
290.458	0.2
290.829	0.26
291.2	0.18
291.571	0.18
291.941	0.18
292.312	0.17
292.683	0.18
293.054	0.15
293.424	0.04
293.795	0.17
294.166	0.19
294.536	0.13
294.907	0.11
295.277	0.18
295.648	0.15
296.018	0.19
296.389	0.19
296.759	0.16
297.13	0.17
297.5	0.19
297.871	0.19
298.241	0.17
298.611	0.17
298.981	0.16
299.352	0.14
299.722	0.18
300.092	0.11
300.462	0.14
300.832	0.12
301.202	0.14
301.573	0.12
301.943	0.14
302.313	0.17
302.683	0.12
303.053	0.15
303.422	0.12
303.792	0.13
304.162	0.12
304.532	0.14
304.902	0.12
305.272	0.13
305.641	0.12
306.011	0.13
306.381	0.13
306.75	0.13
307.12	0.12
307.49	0.13
307.859	0.14
308.229	0.13
308.598	0.13
308.968	0.13
309.337	0.13
309.707	0.14
310.076	0.13
310.445	0.14
310.815	0.14
311.184	0.14
311.553	0.14
311.923	0.15
312.292	0.14
312.661	0.14
313.03	0.14
313.399	0.15
313.768	0.15
314.137	0.14
314.506	0.15
314.875	0.14
315.244	0.16
315.613	0.15
315.982	0.15
316.351	0.14
316.72	0.14
317.089	0.14
317.458	0.13
317.826	0.14
318.195	0.14
318.564	0.14
318.933	0.14
319.301	0.13
319.67	0.13
320.038	0.13
320.407	0.13
320.775	0.13
321.144	0.13
321.512	0.13
321.881	0.12
322.249	0.13
322.618	0.13
322.986	0.12
323.354	0.12
323.723	0.12
324.091	0.12
324.459	0.12
324.827	0.12
325.195	0.12
325.564	0.12
325.932	0.12
326.3	0.11
326.668	0.12
327.036	0.11
327.404	0.12
327.772	0.12
328.14	0.11
328.508	0.11
328.875	0.11
329.243	0.12
329.611	0.12
329.979	0.12
330.346	0.11
330.714	0.12
331.082	0.11
331.449	0.12
331.817	0.12
332.185	0.12
332.552	0.12
332.92	0.12
333.287	0.12
333.655	0.13
334.022	0.13
334.389	0.13
334.757	0.13
335.124	0.13
335.491	0.13
335.859	0.13
336.226	0.14
336.593	0.13
336.96	0.14
337.327	0.14
337.695	0.14
338.062	0.14
338.429	0.14
338.796	0.15
339.163	0.15
339.53	0.15
339.897	0.15
340.263	0.15
340.63	0.16
340.997	0.16
341.364	0.16
341.731	0.17
342.097	0.17
342.464	0.17
342.831	0.18
343.197	0.18
343.564	0.18
343.931	0.18
344.297	0.19
344.664	0.19
345.03	0.19
345.396	0.19
345.763	0.2
346.129	0.2
346.496	0.2
346.862	0.21
347.228	0.21
347.594	0.21
347.961	0.22
348.327	0.22
348.693	0.22
349.059	0.22
349.425	0.23
349.791	0.23
350.157	0.23
350.523	0.24
350.889	0.25
351.255	0.25
351.621	0.25
351.987	0.26
352.353	0.27
352.719	0.27
353.084	0.28
353.45	0.28
353.816	0.28
354.181	0.29
354.547	0.3
354.913	0.3
355.278	0.31
355.644	0.31
356.009	0.33
356.375	0.33
356.74	0.33
357.106	0.34
357.471	0.34
357.836	0.35
358.202	0.37
358.567	0.36
358.932	0.37
359.297	0.38
359.663	0.39
360.028	0.4
360.393	0.4
360.758	0.4
361.123	0.41
361.488	0.41
361.853	0.42
362.218	0.43
362.583	0.43
362.948	0.44
363.312	0.44
363.677	0.45
364.042	0.45
364.407	0.46
364.772	0.47
365.136	0.48
365.501	0.49
365.865	0.49
366.23	0.51
366.595	0.51
366.959	0.53
367.324	0.54
367.688	0.55
368.052	0.56
368.417	0.56
368.781	0.57
369.145	0.58
369.51	0.58
369.874	0.58
370.238	0.58
370.602	0.58
370.967	0.59
371.331	0.58
371.695	0.58
372.059	0.59
372.423	0.58
372.787	0.57
373.151	0.57
373.515	0.57
373.878	0.56
374.242	0.57
374.606	0.56
374.97	0.57
375.334	0.57
375.697	0.57
376.061	0.57
376.425	0.57
376.788	0.58
377.152	0.59
377.515	0.59
377.879	0.59
378.242	0.61
378.606	0.61
378.969	0.62
379.333	0.63
379.696	0.62
380.059	0.64
380.422	0.65
380.786	0.66
381.149	0.68
381.512	0.69
381.875	0.71
382.238	0.72
382.601	0.73
382.964	0.76
383.327	0.77
383.69	0.8
384.053	0.81
384.416	0.83
384.779	0.86
385.142	0.86
385.504	0.88
385.867	0.89
386.23	0.91
386.593	0.91
386.955	0.92
387.318	0.91
387.68	0.91
388.043	0.91
388.405	0.9
388.768	0.9
389.13	0.88
389.493	0.88
389.855	0.88
390.217	0.87
390.58	0.87
390.942	0.87
391.304	0.88
391.666	0.89
392.028	0.9
392.391	0.92
392.753	0.94
393.115	0.98
393.477	1.01
393.839	1.05
394.201	1.09
394.563	1.13
394.924	1.18
395.286	1.2
395.648	1.25
396.01	1.29
396.371	1.33
396.733	1.34
397.095	1.37
397.456	1.37
397.818	1.37
398.18	1.36
398.541	1.33
398.903	1.32
399.264	1.29
399.625	1.24
399.987	1.2
400.348	1.15
400.709	1.09
401.071	1.04
401.432	0.97
401.793	0.92
402.154	0.85
402.515	0.8
402.876	0.74
403.238	0.69
403.599	0.65
403.96	0.6
404.32	0.56
404.681	0.51
405.042	0.48
405.403	0.44
405.764	0.42
406.125	0.39
406.485	0.36
406.846	0.34
407.207	0.31
407.567	0.29
407.928	0.28
408.288	0.27
408.649	0.25
409.009	0.24
409.37	0.22
409.73	0.22
410.091	0.2
410.451	0.19
410.811	0.18
411.171	0.17
411.532	0.17
411.892	0.16
412.252	0.16
412.612	0.15
412.972	0.15
413.332	0.14
413.692	0.14
414.052	0.13
414.412	0.12
414.772	0.12
415.132	0.12
415.492	0.12
415.851	0.11
416.211	0.11
416.571	0.1
416.931	0.11
417.29	0.1
417.65	0.1
418.009	0.09
418.369	0.09
418.728	0.09
419.088	0.09
419.447	0.08
419.807	0.08
420.166	0.09
420.525	0.08
420.884	0.08
421.244	0.08
421.603	0.08
421.962	0.07
422.321	0.08
422.68	0.07
423.039	0.08
423.398	0.07
423.757	0.08
424.116	0.07
424.475	0.07
424.834	0.07
425.193	0.07
425.551	0.06
425.91	0.07
426.269	0.06
426.628	0.06
426.986	0.06
427.345	0.06
427.703	0.07
428.062	0.07
428.42	0.06
428.779	0.06
429.137	0.06
429.496	0.06
429.854	0.06
430.212	0.06
430.57	0.06
430.929	0.06
431.287	0.06
431.645	0.06
432.003	0.05
432.361	0.06
432.719	0.05
433.077	0.05
433.435	0.05
433.793	0.06
434.151	0.04
434.509	0.05
434.866	0.05
435.224	0.05
435.582	0.05
435.94	0.05
436.297	0.05
436.655	0.06
437.012	0.05
437.37	0.05
437.727	0.04
438.085	0.05
438.442	0.04
438.8	0.04
439.157	0.04
439.514	0.05
439.872	0.04
440.229	0.06
440.586	0.05
440.943	0.04
441.3	0.05
441.657	0.04
442.014	0.04
442.371	0.05
442.728	0.04
443.085	0.03
443.442	0.05
443.799	0.05
444.156	0.03
444.513	0.03
444.869	0.04
445.226	0.04
445.583	0.04
445.939	0.04
446.296	0.04
446.652	0.04
447.009	0.04
447.365	0.03
447.722	0.03
448.078	0.03
448.434	0.03
448.791	0.03
449.147	0.02
449.503	0.03
449.859	0.03
450.215	0.03
450.571	0.03
450.928	0.03
451.284	0.03
451.64	0.02
451.995	0.02
452.351	0.02
452.707	0.03
453.063	0.02
453.419	0.02
453.775	0.02
454.13	0.02
454.486	0.02
454.842	0.01
455.197	0.02
455.553	0
455.908	0.02
456.264	0
456.619	-0
456.975	0.01
457.33	0.01
457.685	0
458.04	0
458.396	-0
458.751	0.01
459.106	-0.01
459.461	-0.01
459.816	-0
460.171	-0.01
460.526	-0.01
460.881	-0.02
461.236	-0.02
461.591	-0.01
461.946	-0.02
462.301	-0.02
462.655	-0.02
463.01	-0.01
463.365	-0.03
463.719	-0.03
464.074	-0.04
464.428	-0.04
464.783	-0.03
465.137	-0.04
465.492	-0.05
465.846	-0.04
466.201	-0.04
466.555	-0.04
466.909	-0.04
467.263	-0.03
467.618	-0.03
467.972	-0.04
468.326	-0.04
468.68	-0.04
469.034	-0.05
469.388	-0.05
469.742	-0.04
470.096	-0.04
470.45	-0.04
470.804	-0.04
471.157	-0.04
471.511	-0.04
471.865	-0.04
472.218	-0.04
472.572	-0.04
472.926	-0.03
473.279	-0.03
473.633	-0.03
473.986	-0.03
474.34	-0.03
474.693	-0.02
475.046	-0.02
475.4	-0.02
475.753	-0.01
476.106	-0.01
476.459	-0
476.812	-0
477.165	-0
477.519	0.01
477.872	0.01
478.224	0.01
478.577	0.01
478.93	0.02
479.283	0.01
479.636	0.01
479.989	0.02
480.341	0.02
480.694	0.02
481.047	0.03
481.399	0.03
481.752	0.03
482.104	0.03
482.457	0.03
482.809	0.03
483.162	0.04
483.514	0.03
483.866	0.04
484.219	0.04
484.571	0.04
484.923	0.04
485.275	0.04
485.627	0.04
485.979	0.05
486.331	0.05
486.683	0.05
487.035	0.05
487.387	0.05
487.739	0.06
488.091	0.05
488.443	0.06
488.794	0.06
489.146	0.06
489.498	0.06
489.849	0.06
490.201	0.06
490.552	0.06
490.904	0.06
491.255	0.06
491.607	0.06
491.958	0.06
492.309	0.07
492.661	0.07
493.012	0.07
493.363	0.07
493.714	0.07
494.065	0.07
494.416	0.07
494.767	0.07
495.118	0.08
495.469	0.08
495.82	0.07
496.171	0.08
496.522	0.08
496.872	0.08
497.223	0.08
497.574	0.09
497.924	0.09
498.275	0.09
498.626	0.09
498.976	0.09
499.327	0.09
499.677	0.09
500.027	0.09
500.378	0.09
500.728	0.1
501.078	0.1
501.428	0.09
501.779	0.1
502.129	0.1
502.479	0.1
502.829	0.1
503.179	0.1
503.529	0.1
503.879	0.11
504.229	0.11
504.578	0.11
504.928	0.11
505.278	0.1
505.628	0.11
505.977	0.12
506.327	0.11
506.676	0.11
507.026	0.12
507.375	0.12
507.725	0.12
508.074	0.11
508.424	0.12
508.773	0.12
509.122	0.12
509.471	0.12
509.82	0.12
510.17	0.13
510.519	0.13
510.868	0.13
511.217	0.13
511.566	0.13
511.915	0.13
512.263	0.13
512.612	0.14
512.961	0.14
513.31	0.14
513.659	0.14
514.007	0.14
514.356	0.14
514.704	0.14
515.053	0.14
515.401	0.14
515.75	0.15
516.098	0.15
516.447	0.15
516.795	0.15
517.143	0.15
517.491	0.15
517.839	0.15
518.188	0.15
518.536	0.15
518.884	0.15
519.232	0.16
519.58	0.16
519.928	0.16
520.275	0.16
520.623	0.16
520.971	0.17
521.319	0.17
521.666	0.17
522.014	0.17
522.362	0.17
522.709	0.17
523.057	0.17
523.404	0.17
523.752	0.17
524.099	0.17
524.446	0.18
524.794	0.18
525.141	0.18
525.488	0.19
525.835	0.18
526.182	0.19
526.529	0.19
526.876	0.19
527.223	0.19
527.57	0.19
527.917	0.19
528.264	0.19
528.611	0.19
528.958	0.19
529.304	0.2
529.651	0.19
529.998	0.2
530.344	0.2
530.691	0.2
531.037	0.2
531.384	0.21
531.73	0.2
532.076	0.2
532.423	0.21
532.769	0.21
533.115	0.21
533.461	0.21
533.807	0.22
534.154	0.22
534.5	0.22
534.846	0.22
535.192	0.22
535.537	0.22
535.883	0.22
536.229	0.23
536.575	0.23
536.921	0.23
537.266	0.23
537.612	0.23
537.957	0.24
538.303	0.24
538.649	0.24
538.994	0.23
539.339	0.24
539.685	0.24
540.03	0.25
540.375	0.24
540.721	0.25
541.066	0.25
541.411	0.25
541.756	0.25
542.101	0.25
542.446	0.25
542.791	0.25
543.136	0.26
543.481	0.26
543.825	0.26
544.17	0.27
544.515	0.27
544.86	0.27
545.204	0.27
545.549	0.27
545.893	0.28
546.238	0.28
546.582	0.27
546.927	0.28
547.271	0.28
547.615	0.29
547.96	0.29
548.304	0.29
548.648	0.29
548.992	0.29
549.336	0.29
549.68	0.29
550.024	0.3
550.368	0.3
550.712	0.3
551.056	0.3
551.4	0.31
551.743	0.31
552.087	0.31
552.431	0.3
552.774	0.31
553.118	0.31
553.462	0.31
553.805	0.31
554.148	0.31
554.492	0.31
554.835	0.31
555.178	0.32
555.522	0.32
555.865	0.32
556.208	0.31
556.551	0.32
556.894	0.32
557.237	0.32
557.58	0.32
557.923	0.33
558.266	0.32
558.609	0.33
558.952	0.33
559.294	0.33
559.637	0.33
559.98	0.33
560.322	0.34
560.665	0.33
561.007	0.34
561.35	0.34
561.692	0.34
562.034	0.34
562.377	0.34
562.719	0.34
563.061	0.34
563.403	0.34
563.745	0.34
564.088	0.35
564.43	0.34
564.772	0.34
565.113	0.34
565.455	0.35
565.797	0.34
566.139	0.34
566.481	0.35
566.822	0.35
567.164	0.35
567.506	0.35
567.847	0.35
568.189	0.35
568.53	0.35
568.872	0.35
569.213	0.35
569.554	0.36
569.895	0.35
570.237	0.35
570.578	0.35
570.919	0.35
571.26	0.35
571.601	0.35
571.942	0.35
572.283	0.35
572.624	0.35
572.965	0.35
573.306	0.35
573.646	0.35
573.987	0.35
574.328	0.35
574.668	0.35
575.009	0.35
575.349	0.35
575.69	0.35
576.03	0.35
576.37	0.35
576.711	0.34
577.051	0.35
577.391	0.35
577.731	0.35
578.072	0.35
578.412	0.35
578.752	0.36
579.092	0.35
579.431	0.35
579.771	0.34
580.111	0.34
580.451	0.34
580.791	0.35
581.13	0.36
581.47	0.35
581.81	0.36
582.149	0.35
582.489	0.36
582.828	0.36
583.167	0.35
583.507	0.32
583.846	0.3
584.185	0.32
584.525	0.34
584.864	0.35
585.203	0.36
585.542	0.37
585.881	0.37
586.22	0.37
586.559	0.37
586.898	0.37
587.236	0.36
587.575	0.36
587.914	0.37
588.252	0.37
588.591	0.38
588.93	0.38
589.268	0.38
589.607	0.38
589.945	0.38
590.283	0.38
590.622	0.38
590.96	0.39
591.298	0.39
591.636	0.4
591.974	0.39
592.313	0.4
592.651	0.4
592.989	0.4
593.326	0.4
593.664	0.41
594.002	0.41
594.34	0.41
594.678	0.4
595.015	0.4
595.353	0.4
595.691	0.41
596.028	0.41
596.366	0.42
596.703	0.42
597.04	0.42
597.378	0.42
597.715	0.42
598.052	0.43
598.389	0.43
598.726	0.43
599.064	0.44
599.401	0.43
599.738	0.43
600.074	0.43
600.411	0.43
600.748	0.43
601.085	0.43
601.422	0.43
601.758	0.43
602.095	0.43
602.432	0.43
602.768	0.43
603.105	0.43
603.441	0.44
603.777	0.44
604.114	0.44
604.45	0.44
604.786	0.44
605.122	0.44
605.459	0.44
605.795	0.44
606.131	0.44
606.467	0.44
606.803	0.43
607.139	0.44
607.474	0.43
607.81	0.43
608.146	0.44
608.482	0.43
608.817	0.43
609.153	0.43
609.488	0.43
609.824	0.43
610.159	0.43
610.495	0.42
610.83	0.43
611.165	0.43
611.5	0.43
611.836	0.42
612.171	0.42
612.506	0.42
612.841	0.42
613.176	0.42
613.511	0.42
613.845	0.42
614.18	0.42
614.515	0.42
614.85	0.42
615.184	0.41
615.519	0.41
615.854	0.41
616.188	0.41
616.523	0.41
616.857	0.41
617.191	0.41
617.526	0.41
617.86	0.41
618.194	0.4
618.528	0.41
618.862	0.4
619.196	0.4
619.53	0.4
619.864	0.4
620.198	0.4
620.532	0.4
620.866	0.4
621.2	0.39
621.533	0.39
621.867	0.39
622.201	0.39
622.534	0.38
622.868	0.39
623.201	0.38
623.534	0.39
623.868	0.39
624.201	0.38
624.534	0.38
624.868	0.38
625.201	0.38
625.534	0.38
625.867	0.38
626.2	0.37
626.533	0.37
626.865	0.37
627.198	0.37
627.531	0.37
627.864	0.36
628.196	0.36
628.529	0.36
628.862	0.36
629.194	0.36
629.527	0.36
629.859	0.35
630.191	0.35
630.524	0.35
630.856	0.35
631.188	0.34
631.52	0.34
631.852	0.34
632.184	0.34
632.516	0.34
632.848	0.33
633.18	0.33
633.512	0.33
633.844	0.33
634.175	0.32
634.507	0.32
634.839	0.32
635.17	0.32
635.502	0.32
635.833	0.31
636.165	0.31
636.496	0.31
636.827	0.31
637.159	0.31
637.49	0.3
637.821	0.3
638.152	0.3
638.483	0.3
638.814	0.29
639.145	0.29
639.476	0.29
639.807	0.28
640.137	0.28
640.468	0.28
640.799	0.28
641.129	0.28
641.46	0.27
641.791	0.27
642.121	0.27
642.451	0.27
642.782	0.26
643.112	0.26
643.442	0.26
643.773	0.26
644.103	0.25
644.433	0.25
644.763	0.25
645.093	0.25
645.423	0.25
645.753	0.25
646.082	0.25
646.412	0.25
646.742	0.25
647.072	0.25
647.401	0.25
647.731	0.25
648.06	0.25
648.39	0.24
648.719	0.25
649.048	0.24
649.378	0.24
649.707	0.24
650.036	0.24
650.365	0.24
650.694	0.23
651.023	0.23
651.352	0.23
651.681	0.23
652.01	0.23
652.339	0.23
652.668	0.23
652.996	0.23
653.325	0.23
653.654	0.23
653.982	0.23
654.311	0.23
654.639	0.23
654.967	0.23
655.296	0.23
655.624	0.23
655.952	0.23
656.28	0.23
656.609	0.23
656.937	0.23
657.265	0.23
657.593	0.19
657.92	0.07
658.248	0.02
658.576	0.02
658.904	0.1
659.231	0.18
659.559	0.22
659.887	0.23
660.214	0.23
660.542	0.23
660.869	0.23
661.196	0.23
661.524	0.23
661.851	0.23
662.178	0.22
662.505	0.22
662.832	0.22
663.159	0.22
663.486	0.22
663.813	0.22
664.14	0.22
664.467	0.22
664.794	0.22
665.12	0.22
665.447	0.22
665.774	0.22
666.1	0.22
666.427	0.22
666.753	0.22
667.079	0.22
667.406	0.22
667.732	0.22
668.058	0.22
668.384	0.22
668.71	0.22
669.036	0.22
669.362	0.22
669.688	0.22
670.014	0.21
670.34	0.21
670.666	0.21
670.991	0.21
671.317	0.21
671.643	0.21
671.968	0.21
672.294	0.21
672.619	0.2
672.945	0.2
673.27	0.2
673.595	0.2
673.92	0.2
674.246	0.2
674.571	0.2
674.896	0.2
675.221	0.2
675.546	0.2
675.87	0.19
676.195	0.19
676.52	0.19
676.845	0.19
677.169	0.19
677.494	0.19
677.819	0.19
678.143	0.18
678.468	0.18
678.792	0.18
679.116	0.18
679.44	0.18
679.765	0.18
680.089	0.18
680.413	0.17
680.737	0.17
681.061	0.17
681.385	0.17
681.709	0.17
682.033	0.16
682.356	0.16
682.68	0.16
683.004	0.16
683.327	0.16
683.651	0.15
683.974	0.15
684.298	0.15
684.621	0.15
684.944	0.15
685.268	0.15
685.591	0.15
685.914	0.15
686.237	0.14
686.56	0.14
686.883	0.14
687.206	0.14
687.529	0.13
687.852	0.13
688.175	0.13
688.497	0.13
688.82	0.13
689.142	0.13
689.465	0.13
689.787	0.13
690.11	0.13
690.432	0.12
690.755	0.12
691.077	0.12
691.399	0.12
691.721	0.12
692.043	0.12
692.365	0.12
692.687	0.11
693.009	0.11
693.331	0.11
693.653	0.11
693.974	0.11
694.296	0.11
694.618	0.1
694.939	0.1
695.261	0.1
695.582	0.1
695.904	0.11
696.225	0.1
696.546	0.1
696.868	0.1
697.189	0.1
697.51	0.1
697.831	0.1
698.152	0.1
698.473	0.1
698.794	0.09
699.114	0.09
699.435	0.09
699.756	0.09
700.077	0.09
700.397	0.09
700.718	0.09
701.038	0.09
701.359	0.09
701.679	0.09
701.999	0.09
702.32	0.09
702.64	0.09
702.96	0.09
703.28	0.09
703.6	0.09
703.92	0.08
704.24	0.08
704.56	0.08
704.879	0.08
705.199	0.08
705.519	0.08
705.838	0.08
706.158	0.08
706.478	0.08
706.797	0.08
707.116	0.08
707.436	0.08
707.755	0.08
708.074	0.08
708.393	0.08
708.712	0.08
709.031	0.07
709.35	0.07
709.669	0.07
709.988	0.07
710.307	0.07
710.626	0.07
710.944	0.07
711.263	0.07
711.582	0.07
711.9	0.07
712.219	0.07
712.537	0.07
712.855	0.07
713.174	0.07
713.492	0.07
713.81	0.07
714.128	0.07
714.446	0.07
714.764	0.07
715.082	0.07
715.4	0.07
715.718	0.07
716.035	0.07
716.353	0.07
716.671	0.07
716.988	0.07
717.306	0.07
717.623	0.07
717.941	0.07
718.258	0.07
718.575	0.07
718.893	0.07
719.21	0.07
719.527	0.07
719.844	0.07
720.161	0.08
720.478	0.08
720.795	0.07
721.112	0.07
721.428	0.07
721.745	0.07
722.062	0.07
722.378	0.07
722.695	0.08
723.011	0.08
723.328	0.08
723.644	0.08
723.96	0.08
724.276	0.08
724.593	0.07
724.909	0.08
725.225	0.08
725.541	0.08
725.857	0.08
726.173	0.08
726.488	0.08
726.804	0.08
727.12	0.08
727.435	0.08
727.751	0.08
728.067	0.08
728.382	0.08
728.697	0.08
729.013	0.08
729.328	0.08
729.643	0.08
729.958	0.08
730.273	0.08
730.588	0.08
730.903	0.08
731.218	0.08
731.533	0.08
731.848	0.08
732.163	0.09
732.477	0.08
732.792	0.08
733.107	0.08
733.421	0.08
733.736	0.08
734.05	0.08
734.364	0.08
734.678	0.09
734.993	0.08
735.307	0.08
735.621	0.08
735.935	0.08
736.249	0.08
736.563	0.08
736.877	0.08
737.19	0.08
737.504	0.08
737.818	0.08
738.131	0.08
738.445	0.08
738.758	0.08
739.072	0.08
739.385	0.08
739.698	0.08
740.012	0.08
740.325	0.08
740.638	0.08
740.951	0.08
741.264	0.08
741.577	0.08
741.89	0.08
742.203	0.08
742.515	0.08
742.828	0.08
743.141	0.08
743.453	0.08
743.766	0.08
744.078	0.08
744.391	0.08
744.703	0.08
745.015	0.07
745.327	0.07
745.639	0.07
745.952	0.07
746.264	0.07
746.575	0.07
746.887	0.07
747.199	0.07
747.511	0.07
747.823	0.06
748.134	0.06
748.446	0.06
748.757	0.06
749.069	0.06
749.38	0.06
749.692	0.06
750.003	0.06
750.314	0.06
750.625	0.06
750.936	0.06
751.248	0.06
751.559	0.06
751.869	0.05
752.18	0.05
752.491	0.06
752.802	0.06
753.112	0.05
753.423	0.05
753.734	0.05
754.044	0.05
754.355	0.05
754.665	0.05
754.975	0.05
755.285	0.05
755.596	0.04
755.906	0.04
756.216	0.04
756.526	0.04
756.836	0.04
757.146	0.04
757.455	0.04
757.765	0.04
758.075	0.04
758.385	0.04
758.694	0.04
759.004	0.04
759.313	0.04
759.622	0.03
759.932	0.04
760.241	0.04
760.55	0.04
760.859	0.04
761.168	0.04
761.477	0.04
761.786	0.04
762.095	0.03
762.404	0.03
762.713	0.03
763.021	0.03
763.33	0.03
763.639	0.03
763.947	0.03
764.256	0.02
764.564	0.02
764.872	0.02
765.181	0.03
765.489	0.02
765.797	0.02
766.105	0.02
766.413	0.03
766.721	0.03
767.029	0.03
767.337	0.03
767.644	0.03
767.952	0.03
768.26	0.03
768.567	0.03
768.875	0.03
769.182	0.03
769.49	0.03
769.797	0.03
770.104	0.03
770.411	0.02
770.718	0.02
771.026	0.02
771.333	0.02
771.639	0.02
771.946	0.02
772.253	0.02
772.56	0.03
772.867	0.02
773.173	0.02
773.48	0.02
773.786	0.02
774.093	0.02
774.399	0.02
774.705	0.02
775.012	0.02
775.318	0.02
775.624	0.02
775.93	0.02
776.236	0.02
776.542	0.02
776.848	0.02
777.154	0.02
777.459	0.02
777.765	0.02
778.071	0.02
778.376	0.02
778.682	0.02
778.987	0.02
779.292	0.02
779.598	0.02
779.903	0.02
780.208	0.02
780.513	0.02
780.818	0.02
781.123	0.02
781.428	0.02
781.733	0.02
782.038	0.02
782.343	0.02
782.647	0.02
782.952	0.02
783.256	0.02
783.561	0.02
783.865	0.02
784.17	0.02
784.474	0.02
784.778	0.02
785.082	0.02
785.386	0.02
785.69	0.02
785.994	0.02
786.298	0.02
786.602	0.02
786.906	0.02
787.209	0.01
787.513	0.02
787.817	0.02
788.12	0.02
788.424	0.02
788.727	0.02
789.03	0.02
789.333	0.02
789.637	0.02
789.94	0.02
790.243	0.02
790.546	0.02
790.849	0.02
791.152	0.02
791.454	0.02
791.757	0.02
792.06	0.02
792.362	0.02
792.665	0.02
792.967	0.02
793.27	0.02
793.572	0.02
793.874	0.02
794.177	0.02
794.479	0.02
794.781	0.02
795.083	0.02
795.385	0.02
795.687	0.02
795.989	0.02
796.29	0.02
796.592	0.02
796.894	0.02
797.195	0.02
797.497	0.02
797.798	0.02
798.1	0.02
798.401	0.02
798.702	0.02
799.003	0.02
799.304	0.02
799.605	0.02
799.906	0.02
800.207	0.02
800.508	0.02
800.809	0.02
801.11	0.02
801.41	0.02
801.711	0.02
802.011	0.02
802.312	0.02
802.612	0.02
802.913	0.02
803.213	0.02
803.513	0.03
803.813	0.02
804.113	0.02
804.413	0.03
804.713	0.03
805.013	0.03
805.313	0.03
805.613	0.02
805.912	0.02
806.212	0.03
806.511	0.03
806.811	0.03
807.11	0.03
807.41	0.03
807.709	0.03
808.008	0.03
808.307	0.02
808.606	0.03
808.905	0.03
809.204	0.03
809.503	0.02
809.802	0.03
810.101	0.03
810.399	0.02
810.698	0.02
810.997	0.02
811.295	0.02
811.593	0.02
811.892	0.02
812.19	0.02
812.488	0.02
812.786	0.02
813.084	0.02
813.383	0.02
813.68	0.02
813.978	0.02
814.276	0.01
814.574	0.02
814.872	0.02
815.169	0.02
815.467	0.03
815.764	0.03
816.062	0.03
816.359	0.03
816.656	0.03
816.954	0.02
817.251	0.02
817.548	0.02
817.845	0.02
818.142	0.03
818.439	0.03
818.735	0.03
819.032	0.02
819.329	0.03
819.626	0.02
819.922	0.02
820.219	0.03
820.515	0.03
820.811	0.02
821.108	0.02
821.404	0.02
821.7	0.01
821.996	0.02
822.292	0.02
822.588	0.02
822.884	0.02
823.18	0.02
823.475	0.02
823.771	0.02
824.067	0.02
824.362	0.02
824.658	0.03
824.953	0.03
825.249	0.03
825.544	0.03
825.839	0.03
826.134	0.03
826.429	0.03
826.724	0.03
827.019	0.02
827.314	0.02
827.609	0.02
827.904	0.02
828.198	0.02
828.493	0.03
828.787	0.02
829.082	0.02
829.376	0.02
829.671	0.02
829.965	0.02
830.259	0.02
830.553	0.02
830.847	0.03
831.141	0.02
831.435	0.02
831.729	0.02
832.023	0.03
832.317	0.03
832.61	0.02
832.904	0.01
833.197	0.02
833.491	0.03
833.784	0.02
834.077	0.02
834.371	0.03
834.664	0.02
834.957	0.02
835.25	0.01
835.543	0.02
835.836	0.02
836.129	0.02
836.421	0.02
836.714	0.02
837.007	0.02
837.299	0.03
837.592	0.03
837.884	0.03
838.177	0.03
838.469	0.02
838.761	0.03
839.053	0.02
839.345	0.03
839.637	0.03
839.929	0.02
840.221	0.03
840.513	0.03
840.805	0.02
841.096	0.02
841.388	0.03
841.68	0.03
841.971	0.03
842.262	0.02
842.554	0.03
842.845	0.02
843.136	0.02
843.427	0.02
843.718	0.02
844.009	0.03
844.3	0.02
844.591	0.03
844.882	0.01
845.173	0.02
845.463	0.01
845.754	0.02
846.044	0.02
846.335	0.02
846.625	0.03
846.915	0.02
847.206	0.03
847.496	0.03
847.786	0.02
848.076	0.03
848.366	0.02
848.656	0.04
848.945	0.03
849.235	0.03
849.525	0.04
849.814	0.04
850.104	0.04
850.393	0.04
850.683	0.03
850.972	0.03
851.261	0.03
851.551	0.04
851.84	0.02
852.129	0.02
852.418	0.03
852.707	0.02
852.995	0.03
853.284	0.02
853.573	0.02
853.862	0.03
854.15	0.01
854.439	0.02
854.727	0.02
855.015	0.02
855.304	0.02
855.592	0.02
855.88	0.03
856.168	0.02
856.456	0.01
856.744	0.02
857.032	0.02
857.32	0.03
857.607	0.02
857.895	0.02
858.183	0.04
858.47	0.01
858.757	0.01
859.045	0.03
859.332	0.03
859.619	0.02
859.907	0.03
860.194	0.02
860.481	0.03
860.768	0.01
861.054	0.03
861.341	0.03
861.628	0.04
861.915	0.01
862.201	0.04
862.488	0.03
862.774	0.02
863.061	0.02
863.347	0.01
863.633	0.02
863.919	0.04
864.205	0.03
864.491	0.03
864.777	0
865.063	0.03
865.349	0.02
865.635	-0.01
865.92	0
866.206	0.04
866.492	0.03
866.777	0.03
867.062	-0
867.348	-0.01
867.633	0.01
867.918	0.01
868.203	-0
868.488	0.06
868.773	0.04
869.058	-0.01
869.343	-0
869.628	0.02
869.912	-0.01
870.197	-0.01
870.482	0.04
870.766	0.05
871.05	0.01
871.335	0.05
871.619	0.04
871.903	0.05
872.187	0.06
872.471	-0
872.755	0.01
873.039	0.04
873.323	0.02
873.607	0.05
873.89	0.02
874.174	0.05
874.458	0.02
874.741	0.06
875.024	0.01
875.308	-0.06
875.591	-0.03
875.874	-0
876.157	0.06
876.44	0.01
876.723	0.05
877.006	0.03
877.289	0.05
877.572	0.07
877.854	0.06
878.137	0.08
878.42	0.04
878.702	-0.05
878.984	-0.02
879.267	0.02
879.549	0.12
879.831	0.15
880.113	0.07
880.395	0.1
880.677	0.1
880.959	-0.02
