Data from Rubpy_EV_1500_EDTA_Buffered_Absorbance_15-06-47-977.txt Node
Date: Tue Jun 30 15:06:47 BST 2026
User: fpm-admin
Spectrometer: OFX00224
Trigger mode: 0
Integration Time (sec): 7.000000E-2
Scans to average: 3
Nonlinearity correction enabled: false
Boxcar width: 0
Storing dark spectrum: false
XAxis mode: Wavelengths
Number of Pixels in Spectrum: 2136
>>>>>Begin Spectral Data<<<<<
154.91	0.19
155.289	-0.03
155.669	-0.08
156.048	-0
156.428	-0
156.807	0.18
157.186	-0.2
157.566	0.15
157.945	-0
158.325	-0
158.704	-1.15
159.083	1
159.462	-0
159.842	0.2
160.221	0.48
160.6	0.56
160.979	0.72
161.359	-0.04
161.738	-0
162.117	-0
162.496	-0
162.875	-0
163.254	-0
163.633	0.18
164.012	1.04
164.391	-0
164.77	0.13
165.149	0.21
165.528	0.14
165.907	-0
166.286	-0.43
166.665	-0
167.044	0.22
167.423	0.15
167.802	-0
168.181	0.14
168.559	-0.24
168.938	0.14
169.317	-0
169.696	0.51
170.074	0.34
170.453	-0.48
170.832	-0
171.21	-0
171.589	-0
171.968	0.34
172.346	-0.86
172.725	-0
173.103	-0.33
173.482	-0.93
173.861	0.16
174.239	-0
174.617	-0
174.996	0.78
175.374	-0
175.753	1.11
176.131	0.2
176.51	-0
176.888	-0.02
177.266	-0
177.645	-0.07
178.023	1.06
178.401	-0.2
178.779	0.2
179.158	0.05
179.536	-0
179.914	-0.24
180.292	0.05
180.67	0.24
181.048	-0.21
181.427	1.16
181.805	-0.27
182.183	-0
182.561	-0.13
182.939	-0
183.317	-0
183.695	0.11
184.073	-0.44
184.451	0.68
184.829	-0
185.206	0.12
185.584	0.06
185.962	-0.85
186.34	-0
186.718	0.93
187.096	-1.18
187.473	0.14
187.851	0.04
188.229	0.13
188.607	0.31
188.984	0.28
189.362	0.24
189.74	0.24
190.117	0.16
190.495	0.09
190.872	0.26
191.25	0.28
191.627	0.15
192.005	0.27
192.382	0.19
192.76	0.33
193.137	0.14
193.515	0.27
193.892	0.2
194.269	0.3
194.647	0.1
195.024	0.24
195.401	0.22
195.779	0.4
196.156	0.24
196.533	0.21
196.91	0.03
197.288	0.12
197.665	0.16
198.042	0.1
198.419	0.22
198.796	0.26
199.173	0.1
199.55	0.15
199.927	0.29
200.304	0.14
200.681	0.22
201.058	0.25
201.435	0.15
201.812	0.3
202.189	0.19
202.566	0.27
202.943	0.17
203.32	0.19
203.697	0.3
204.073	0.23
204.45	0.15
204.827	0.29
205.204	0.4
205.58	0.37
205.957	0.19
206.334	0.36
206.71	0.16
207.087	0.25
207.464	0.34
207.84	0.19
208.217	0.26
208.593	0.2
208.97	0.21
209.346	0.27
209.723	0.35
210.099	0.2
210.476	0.24
210.852	0.21
211.228	0.18
211.605	0.29
211.981	0.27
212.357	0.18
212.733	0.26
213.11	0.26
213.486	0.23
213.862	0.28
214.238	0.12
214.614	0.44
214.991	0.12
215.367	0.27
215.743	0.29
216.119	0.15
216.495	0.14
216.871	0.34
217.247	0.06
217.623	0.24
217.999	0.22
218.375	0.42
218.751	0.2
219.127	0.34
219.502	0.29
219.878	0.21
220.254	0.2
220.63	0.29
221.006	0.16
221.381	0.16
221.757	0.28
222.133	0.27
222.508	0.18
222.884	0.19
223.26	0.29
223.635	0.21
224.011	0.25
224.386	0.16
224.762	0.24
225.137	0.13
225.513	0.36
225.888	0.24
226.264	0.4
226.639	0.27
227.014	0.29
227.39	0.24
227.765	0.3
228.14	0.23
228.516	0.4
228.891	0.26
229.266	0.21
229.641	0.23
230.017	0.2
230.392	0.18
230.767	0.3
231.142	0.33
231.517	0.28
231.892	0.2
232.267	0.31
232.642	0.34
233.017	0.24
233.392	0.31
233.767	0.25
234.142	0.19
234.517	0.29
234.892	0.19
235.267	0.28
235.641	0.23
236.016	0.22
236.391	0.06
236.766	0.25
237.14	0.23
237.515	0.22
237.89	0.33
238.264	0.3
238.639	0.21
239.014	0.27
239.388	0.19
239.763	0.47
240.137	0.3
240.512	0.2
240.886	0.2
241.261	0.25
241.635	0.33
242.009	0.26
242.384	0.34
242.758	0.3
243.132	0.27
243.507	0.27
243.881	0.24
244.255	0.31
244.629	0.27
245.004	0.46
245.378	0.27
245.752	0.29
246.126	0.22
246.5	0.52
246.874	0.15
247.248	0.1
247.622	0.23
247.996	0.3
248.37	0.17
248.744	0.28
249.118	0.3
249.492	0.26
249.866	0.27
250.24	0.26
250.613	0.24
250.987	0.15
251.361	0.23
251.735	0.3
252.108	0.26
252.482	0.17
252.856	0.21
253.229	0.18
253.603	0.3
253.977	0.23
254.35	0.19
254.724	0.29
255.097	0.24
255.471	0.3
255.844	0.2
256.218	0.21
256.591	0.14
256.964	0.21
257.338	0.39
257.711	0.2
258.084	0.31
258.458	0.24
258.831	0.28
259.204	0.26
259.577	0.26
259.95	0.36
260.323	0.28
260.697	0.34
261.07	0.25
261.443	0.22
261.816	0.22
262.189	0.25
262.562	0.3
262.935	0.24
263.308	0.3
263.68	0.33
264.053	0.28
264.426	0.18
264.799	0.25
265.172	0.24
265.545	0.41
265.917	0.22
266.29	0.21
266.663	0.23
267.035	0.28
267.408	0.2
267.781	0.25
268.153	0.25
268.526	0.42
268.898	0.39
269.271	0.34
269.643	0.17
270.016	0.21
270.388	0.27
270.76	0.2
271.133	0.24
271.505	0.2
271.877	0.28
272.25	0.24
272.622	0.27
272.994	0.25
273.366	0.24
273.739	0.3
274.111	0.31
274.483	0.27
274.855	0.34
275.227	0.22
275.599	0.31
275.971	0.32
276.343	0.33
276.715	0.3
277.087	0.28
277.459	0.22
277.831	0.22
278.203	0.31
278.574	0.23
278.946	0.38
279.318	0.25
279.69	0.29
280.061	0.27
280.433	0.31
280.805	0.34
281.176	0.31
281.548	0.28
281.92	0.35
282.291	0.25
282.663	0.42
283.034	0.34
283.406	0.22
283.777	0.3
284.148	0.31
284.52	0.32
284.891	0.25
285.262	0.27
285.634	0.2
286.005	0.24
286.376	0.24
286.747	0.24
287.119	0.23
287.49	0.15
287.861	0.27
288.232	0.21
288.603	0.23
288.974	0.28
289.345	0.23
289.716	0.28
290.087	0.25
290.458	0.32
290.829	0.32
291.2	0.33
291.571	0.26
291.941	0.23
292.312	0.24
292.683	0.24
293.054	0.25
293.424	0.18
293.795	0.32
294.166	0.24
294.536	0.28
294.907	0.26
295.277	0.22
295.648	0.25
296.018	0.33
296.389	0.22
296.759	0.3
297.13	0.29
297.5	0.24
297.871	0.3
298.241	0.26
298.611	0.31
298.981	0.27
299.352	0.27
299.722	0.28
300.092	0.23
300.462	0.2
300.832	0.23
301.202	0.21
301.573	0.25
301.943	0.21
302.313	0.25
302.683	0.21
303.053	0.21
303.422	0.19
303.792	0.2
304.162	0.21
304.532	0.22
304.902	0.21
305.272	0.22
305.641	0.22
306.011	0.23
306.381	0.24
306.75	0.25
307.12	0.23
307.49	0.24
307.859	0.24
308.229	0.23
308.598	0.25
308.968	0.24
309.337	0.24
309.707	0.25
310.076	0.24
310.445	0.26
310.815	0.25
311.184	0.26
311.553	0.26
311.923	0.26
312.292	0.27
312.661	0.27
313.03	0.27
313.399	0.27
313.768	0.27
314.137	0.26
314.506	0.27
314.875	0.26
315.244	0.27
315.613	0.27
315.982	0.27
316.351	0.26
316.72	0.26
317.089	0.26
317.458	0.26
317.826	0.26
318.195	0.25
318.564	0.26
318.933	0.25
319.301	0.24
319.67	0.24
320.038	0.24
320.407	0.24
320.775	0.24
321.144	0.23
321.512	0.24
321.881	0.24
322.249	0.23
322.618	0.24
322.986	0.22
323.354	0.23
323.723	0.23
324.091	0.22
324.459	0.22
324.827	0.22
325.195	0.22
325.564	0.22
325.932	0.22
326.3	0.22
326.668	0.21
327.036	0.21
327.404	0.22
327.772	0.22
328.14	0.22
328.508	0.22
328.875	0.21
329.243	0.22
329.611	0.23
329.979	0.23
330.346	0.22
330.714	0.23
331.082	0.22
331.449	0.23
331.817	0.23
332.185	0.23
332.552	0.23
332.92	0.24
333.287	0.24
333.655	0.24
334.022	0.24
334.389	0.24
334.757	0.25
335.124	0.25
335.491	0.25
335.859	0.25
336.226	0.26
336.593	0.26
336.96	0.26
337.327	0.27
337.695	0.27
338.062	0.27
338.429	0.28
338.796	0.28
339.163	0.29
339.53	0.29
339.897	0.29
340.263	0.29
340.63	0.31
340.997	0.3
341.364	0.31
341.731	0.32
342.097	0.32
342.464	0.32
342.831	0.33
343.197	0.34
343.564	0.35
343.931	0.35
344.297	0.36
344.664	0.36
345.03	0.37
345.396	0.37
345.763	0.38
346.129	0.39
346.496	0.39
346.862	0.39
347.228	0.4
347.594	0.41
347.961	0.41
348.327	0.42
348.693	0.42
349.059	0.43
349.425	0.43
349.791	0.44
350.157	0.45
350.523	0.46
350.889	0.47
351.255	0.48
351.621	0.49
351.987	0.49
352.353	0.51
352.719	0.51
353.084	0.52
353.45	0.53
353.816	0.55
354.181	0.55
354.547	0.56
354.913	0.57
355.278	0.58
355.644	0.59
356.009	0.61
356.375	0.63
356.74	0.64
357.106	0.65
357.471	0.66
357.836	0.68
358.202	0.69
358.567	0.69
358.932	0.71
359.297	0.73
359.663	0.73
360.028	0.75
360.393	0.75
360.758	0.75
361.123	0.77
361.488	0.77
361.853	0.79
362.218	0.8
362.583	0.81
362.948	0.82
363.312	0.82
363.677	0.84
364.042	0.85
364.407	0.87
364.772	0.88
365.136	0.89
365.501	0.91
365.865	0.92
366.23	0.94
366.595	0.96
366.959	0.99
367.324	0.99
367.688	1.02
368.052	1.03
368.417	1.04
368.781	1.05
369.145	1.07
369.51	1.06
369.874	1.09
370.238	1.08
370.602	1.09
370.967	1.07
371.331	1.06
371.695	1.07
372.059	1.06
372.423	1.05
372.787	1.05
373.151	1.05
373.515	1.05
373.878	1.04
374.242	1.04
374.606	1.03
374.97	1.04
375.334	1.04
375.697	1.05
376.061	1.04
376.425	1.06
376.788	1.07
377.152	1.07
377.515	1.08
377.879	1.08
378.242	1.1
378.606	1.11
378.969	1.12
379.333	1.14
379.696	1.14
380.059	1.16
380.422	1.18
380.786	1.19
381.149	1.23
381.512	1.22
381.875	1.25
382.238	1.29
382.601	1.32
382.964	1.33
383.327	1.36
383.69	1.39
384.053	1.42
384.416	1.47
384.779	1.5
385.142	1.5
385.504	1.53
385.867	1.55
386.23	1.57
386.593	1.58
386.955	1.59
387.318	1.61
387.68	1.59
388.043	1.58
388.405	1.58
388.768	1.56
389.13	1.57
389.493	1.55
389.855	1.55
390.217	1.53
390.58	1.52
390.942	1.52
391.304	1.54
391.666	1.55
392.028	1.57
392.391	1.57
392.753	1.61
393.115	1.69
393.477	1.68
393.839	1.75
394.201	1.81
394.563	1.87
394.924	1.9
395.286	1.95
395.648	1.95
396.01	1.97
396.371	2.04
396.733	2.03
397.095	2.02
397.456	2.03
397.818	1.95
398.18	1.97
398.541	2.01
398.903	2
399.264	1.98
399.625	1.94
399.987	1.93
400.348	1.86
400.709	1.79
401.071	1.74
401.432	1.64
401.793	1.55
402.154	1.49
402.515	1.4
402.876	1.31
403.238	1.22
403.599	1.16
403.96	1.07
404.32	0.99
404.681	0.92
405.042	0.85
405.403	0.81
405.764	0.75
406.125	0.69
406.485	0.66
406.846	0.62
407.207	0.58
407.567	0.53
407.928	0.51
408.288	0.48
408.649	0.46
409.009	0.42
409.37	0.41
409.73	0.39
410.091	0.37
410.451	0.35
410.811	0.34
411.171	0.32
411.532	0.31
411.892	0.29
412.252	0.28
412.612	0.27
412.972	0.26
413.332	0.26
413.692	0.24
414.052	0.24
414.412	0.23
414.772	0.23
415.132	0.21
415.492	0.21
415.851	0.2
416.211	0.19
416.571	0.19
416.931	0.18
417.29	0.18
417.65	0.18
418.009	0.17
418.369	0.16
418.728	0.16
419.088	0.16
419.447	0.16
419.807	0.15
420.166	0.15
420.525	0.15
420.884	0.14
421.244	0.14
421.603	0.14
421.962	0.14
422.321	0.14
422.68	0.13
423.039	0.13
423.398	0.13
423.757	0.13
424.116	0.13
424.475	0.13
424.834	0.12
425.193	0.12
425.551	0.12
425.91	0.12
426.269	0.12
426.628	0.12
426.986	0.1
427.345	0.11
427.703	0.12
428.062	0.11
428.42	0.11
428.779	0.11
429.137	0.11
429.496	0.11
429.854	0.1
430.212	0.1
430.57	0.11
430.929	0.11
431.287	0.1
431.645	0.1
432.003	0.1
432.361	0.1
432.719	0.09
433.077	0.1
433.435	0.09
433.793	0.09
434.151	0.09
434.509	0.09
434.866	0.09
435.224	0.09
435.582	0.09
435.94	0.09
436.297	0.09
436.655	0.09
437.012	0.09
437.37	0.09
437.727	0.09
438.085	0.08
438.442	0.09
438.8	0.08
439.157	0.08
439.514	0.08
439.872	0.07
440.229	0.09
440.586	0.08
440.943	0.08
441.3	0.08
441.657	0.08
442.014	0.08
442.371	0.07
442.728	0.07
443.085	0.07
443.442	0.08
443.799	0.08
444.156	0.07
444.513	0.07
444.869	0.07
445.226	0.07
445.583	0.07
445.939	0.07
446.296	0.07
446.652	0.07
447.009	0.07
447.365	0.06
447.722	0.07
448.078	0.06
448.434	0.07
448.791	0.07
449.147	0.05
449.503	0.06
449.859	0.05
450.215	0.06
450.571	0.07
450.928	0.05
451.284	0.05
451.64	0.05
451.995	0.05
452.351	0.05
452.707	0.06
453.063	0.05
453.419	0.05
453.775	0.05
454.13	0.06
454.486	0.05
454.842	0.04
455.197	0.04
455.553	0.03
455.908	0.04
456.264	0.03
456.619	0.03
456.975	0.04
457.33	0.03
457.685	0.03
458.04	0.03
458.396	0.03
458.751	0.03
459.106	0.03
459.461	0.02
459.816	0.02
460.171	0.01
460.526	0.02
460.881	0.01
461.236	0
461.591	0.02
461.946	0
462.301	0.01
462.655	0.01
463.01	0.02
463.365	-0
463.719	0
464.074	-0.01
464.428	-0.02
464.783	-0.01
465.137	-0.02
465.492	-0.02
465.846	-0.01
466.201	-0.01
466.555	-0.01
466.909	-0.01
467.263	-0
467.618	-0.01
467.972	-0.01
468.326	-0.02
468.68	-0.02
469.034	-0.02
469.388	-0.01
469.742	-0.01
470.096	-0.02
470.45	-0.01
470.804	-0.01
471.157	-0.01
471.511	-0.01
471.865	-0.01
472.218	-0.01
472.572	-0
472.926	-0.01
473.279	0
473.633	0
473.986	0.01
474.34	0.01
474.693	0.02
475.046	0.02
475.4	0.02
475.753	0.03
476.106	0.03
476.459	0.03
476.812	0.04
477.165	0.04
477.519	0.04
477.872	0.05
478.224	0.06
478.577	0.05
478.93	0.06
479.283	0.06
479.636	0.06
479.989	0.06
480.341	0.07
480.694	0.07
481.047	0.07
481.399	0.08
481.752	0.08
482.104	0.09
482.457	0.09
482.809	0.09
483.162	0.09
483.514	0.09
483.866	0.09
484.219	0.09
484.571	0.1
484.923	0.1
485.275	0.1
485.627	0.1
485.979	0.11
486.331	0.11
486.683	0.11
487.035	0.11
487.387	0.12
487.739	0.12
488.091	0.12
488.443	0.12
488.794	0.12
489.146	0.13
489.498	0.12
489.849	0.12
490.201	0.12
490.552	0.13
490.904	0.13
491.255	0.13
491.607	0.13
491.958	0.13
492.309	0.14
492.661	0.13
493.012	0.14
493.363	0.14
493.714	0.14
494.065	0.14
494.416	0.15
494.767	0.15
495.118	0.15
495.469	0.16
495.82	0.15
496.171	0.16
496.522	0.16
496.872	0.17
497.223	0.16
497.574	0.17
497.924	0.17
498.275	0.17
498.626	0.17
498.976	0.17
499.327	0.17
499.677	0.17
500.027	0.18
500.378	0.18
500.728	0.19
501.078	0.19
501.428	0.18
501.779	0.19
502.129	0.19
502.479	0.19
502.829	0.2
503.179	0.2
503.529	0.2
503.879	0.21
504.229	0.21
504.578	0.21
504.928	0.21
505.278	0.21
505.628	0.22
505.977	0.22
506.327	0.22
506.676	0.22
507.026	0.23
507.375	0.23
507.725	0.23
508.074	0.23
508.424	0.23
508.773	0.23
509.122	0.24
509.471	0.24
509.82	0.24
510.17	0.24
510.519	0.25
510.868	0.24
511.217	0.25
511.566	0.26
511.915	0.25
512.263	0.26
512.612	0.26
512.961	0.26
513.31	0.26
513.659	0.26
514.007	0.27
514.356	0.27
514.704	0.27
515.053	0.27
515.401	0.27
515.75	0.28
516.098	0.28
516.447	0.29
516.795	0.29
517.143	0.29
517.491	0.29
517.839	0.29
518.188	0.29
518.536	0.29
518.884	0.3
519.232	0.3
519.58	0.3
519.928	0.3
520.275	0.31
520.623	0.31
520.971	0.31
521.319	0.32
521.666	0.31
522.014	0.31
522.362	0.32
522.709	0.33
523.057	0.33
523.404	0.32
523.752	0.33
524.099	0.33
524.446	0.33
524.794	0.33
525.141	0.34
525.488	0.35
525.835	0.34
526.182	0.35
526.529	0.35
526.876	0.36
527.223	0.36
527.57	0.36
527.917	0.36
528.264	0.36
528.611	0.36
528.958	0.36
529.304	0.37
529.651	0.37
529.998	0.38
530.344	0.38
530.691	0.38
531.037	0.38
531.384	0.38
531.73	0.39
532.076	0.38
532.423	0.39
532.769	0.4
533.115	0.39
533.461	0.4
533.807	0.4
534.154	0.41
534.5	0.41
534.846	0.41
535.192	0.41
535.537	0.42
535.883	0.42
536.229	0.43
536.575	0.43
536.921	0.43
537.266	0.43
537.612	0.44
537.957	0.44
538.303	0.44
538.649	0.44
538.994	0.45
539.339	0.45
539.685	0.46
540.03	0.45
540.375	0.46
540.721	0.46
541.066	0.46
541.411	0.47
541.756	0.47
542.101	0.47
542.446	0.48
542.791	0.48
543.136	0.49
543.481	0.49
543.825	0.49
544.17	0.5
544.515	0.5
544.86	0.5
545.204	0.51
545.549	0.51
545.893	0.51
546.238	0.51
546.582	0.52
546.927	0.52
547.271	0.52
547.615	0.52
547.96	0.53
548.304	0.53
548.648	0.54
548.992	0.54
549.336	0.55
549.68	0.55
550.024	0.55
550.368	0.55
550.712	0.55
551.056	0.56
551.4	0.56
551.743	0.56
552.087	0.56
552.431	0.56
552.774	0.57
553.118	0.57
553.462	0.57
553.805	0.58
554.148	0.58
554.492	0.58
554.835	0.58
555.178	0.59
555.522	0.59
555.865	0.59
556.208	0.59
556.551	0.59
556.894	0.6
557.237	0.6
557.58	0.6
557.923	0.6
558.266	0.6
558.609	0.6
558.952	0.61
559.294	0.61
559.637	0.61
559.98	0.61
560.322	0.62
560.665	0.62
561.007	0.62
561.35	0.62
561.692	0.62
562.034	0.62
562.377	0.62
562.719	0.63
563.061	0.63
563.403	0.62
563.745	0.63
564.088	0.63
564.43	0.63
564.772	0.63
565.113	0.63
565.455	0.63
565.797	0.64
566.139	0.63
566.481	0.64
566.822	0.64
567.164	0.64
567.506	0.65
567.847	0.64
568.189	0.64
568.53	0.64
568.872	0.64
569.213	0.64
569.554	0.65
569.895	0.65
570.237	0.65
570.578	0.65
570.919	0.65
571.26	0.65
571.601	0.65
571.942	0.65
572.283	0.65
572.624	0.65
572.965	0.65
573.306	0.65
573.646	0.65
573.987	0.65
574.328	0.65
574.668	0.65
575.009	0.65
575.349	0.65
575.69	0.65
576.03	0.65
576.37	0.65
576.711	0.65
577.051	0.65
577.391	0.65
577.731	0.66
578.072	0.66
578.412	0.66
578.752	0.66
579.092	0.66
579.431	0.66
579.771	0.65
580.111	0.64
580.451	0.64
580.791	0.65
581.13	0.66
581.47	0.66
581.81	0.66
582.149	0.66
582.489	0.66
582.828	0.67
583.167	0.66
583.507	0.63
583.846	0.61
584.185	0.63
584.525	0.66
584.864	0.66
585.203	0.68
585.542	0.68
585.881	0.68
586.22	0.69
586.559	0.69
586.898	0.68
587.236	0.68
587.575	0.68
587.914	0.68
588.252	0.69
588.591	0.7
588.93	0.71
589.268	0.7
589.607	0.71
589.945	0.71
590.283	0.71
590.622	0.71
590.96	0.72
591.298	0.72
591.636	0.72
591.974	0.73
592.313	0.73
592.651	0.73
592.989	0.74
593.326	0.74
593.664	0.75
594.002	0.75
594.34	0.75
594.678	0.75
595.015	0.75
595.353	0.75
595.691	0.75
596.028	0.76
596.366	0.76
596.703	0.77
597.04	0.77
597.378	0.77
597.715	0.77
598.052	0.78
598.389	0.78
598.726	0.79
599.064	0.79
599.401	0.79
599.738	0.79
600.074	0.8
600.411	0.8
600.748	0.79
601.085	0.8
601.422	0.79
601.758	0.79
602.095	0.8
602.432	0.79
602.768	0.79
603.105	0.79
603.441	0.8
603.777	0.8
604.114	0.8
604.45	0.81
604.786	0.8
605.122	0.8
605.459	0.81
605.795	0.81
606.131	0.8
606.467	0.8
606.803	0.8
607.139	0.8
607.474	0.8
607.81	0.79
608.146	0.79
608.482	0.79
608.817	0.79
609.153	0.78
609.488	0.78
609.824	0.79
610.159	0.79
610.495	0.78
610.83	0.78
611.165	0.78
611.5	0.78
611.836	0.78
612.171	0.78
612.506	0.77
612.841	0.77
613.176	0.77
613.511	0.77
613.845	0.76
614.18	0.76
614.515	0.76
614.85	0.76
615.184	0.75
615.519	0.75
615.854	0.75
616.188	0.75
616.523	0.75
616.857	0.75
617.191	0.75
617.526	0.74
617.86	0.74
618.194	0.74
618.528	0.74
618.862	0.73
619.196	0.74
619.53	0.73
619.864	0.73
620.198	0.73
620.532	0.72
620.866	0.72
621.2	0.71
621.533	0.71
621.867	0.71
622.201	0.71
622.534	0.7
622.868	0.7
623.201	0.7
623.534	0.71
623.868	0.7
624.201	0.69
624.534	0.69
624.868	0.69
625.201	0.69
625.534	0.69
625.867	0.68
626.2	0.68
626.533	0.67
626.865	0.67
627.198	0.67
627.531	0.67
627.864	0.67
628.196	0.66
628.529	0.66
628.862	0.65
629.194	0.65
629.527	0.65
629.859	0.64
630.191	0.63
630.524	0.64
630.856	0.63
631.188	0.63
631.52	0.62
631.852	0.62
632.184	0.62
632.516	0.62
632.848	0.61
633.18	0.6
633.512	0.6
633.844	0.59
634.175	0.59
634.507	0.58
634.839	0.58
635.17	0.58
635.502	0.57
635.833	0.57
636.165	0.56
636.496	0.56
636.827	0.56
637.159	0.55
637.49	0.55
637.821	0.54
638.152	0.54
638.483	0.54
638.814	0.54
639.145	0.53
639.476	0.52
639.807	0.52
640.137	0.52
640.468	0.51
640.799	0.51
641.129	0.51
641.46	0.5
641.791	0.49
642.121	0.49
642.451	0.49
642.782	0.48
643.112	0.48
643.442	0.48
643.773	0.47
644.103	0.47
644.433	0.47
644.763	0.46
645.093	0.46
645.423	0.46
645.753	0.46
646.082	0.46
646.412	0.45
646.742	0.45
647.072	0.45
647.401	0.45
647.731	0.45
648.06	0.45
648.39	0.44
648.719	0.44
649.048	0.44
649.378	0.43
649.707	0.43
650.036	0.43
650.365	0.44
650.694	0.43
651.023	0.43
651.352	0.43
651.681	0.43
652.01	0.43
652.339	0.43
652.668	0.43
652.996	0.42
653.325	0.42
653.654	0.42
653.982	0.42
654.311	0.42
654.639	0.42
654.967	0.42
655.296	0.42
655.624	0.42
655.952	0.42
656.28	0.42
656.609	0.42
656.937	0.42
657.265	0.43
657.593	0.4
657.92	0.26
658.248	0.19
658.576	0.18
658.904	0.27
659.231	0.36
659.559	0.41
659.887	0.41
660.214	0.41
660.542	0.41
660.869	0.41
661.196	0.41
661.524	0.41
661.851	0.41
662.178	0.41
662.505	0.41
662.832	0.41
663.159	0.41
663.486	0.4
663.813	0.41
664.14	0.41
664.467	0.4
664.794	0.41
665.12	0.4
665.447	0.4
665.774	0.4
666.1	0.4
666.427	0.4
666.753	0.4
667.079	0.4
667.406	0.4
667.732	0.39
668.058	0.4
668.384	0.4
668.71	0.39
669.036	0.39
669.362	0.39
669.688	0.39
670.014	0.39
670.34	0.39
670.666	0.38
670.991	0.38
671.317	0.38
671.643	0.38
671.968	0.38
672.294	0.37
672.619	0.37
672.945	0.37
673.27	0.37
673.595	0.37
673.92	0.36
674.246	0.36
674.571	0.36
674.896	0.36
675.221	0.36
675.546	0.36
675.87	0.35
676.195	0.35
676.52	0.34
676.845	0.34
677.169	0.34
677.494	0.34
677.819	0.33
678.143	0.33
678.468	0.33
678.792	0.33
679.116	0.32
679.44	0.32
679.765	0.32
680.089	0.32
680.413	0.31
680.737	0.31
681.061	0.31
681.385	0.3
681.709	0.3
682.033	0.3
682.356	0.29
682.68	0.29
683.004	0.29
683.327	0.28
683.651	0.28
683.974	0.28
684.298	0.28
684.621	0.27
684.944	0.27
685.268	0.27
685.591	0.27
685.914	0.26
686.237	0.26
686.56	0.26
686.883	0.25
687.206	0.25
687.529	0.25
687.852	0.24
688.175	0.24
688.497	0.24
688.82	0.24
689.142	0.23
689.465	0.23
689.787	0.23
690.11	0.23
690.432	0.23
690.755	0.22
691.077	0.22
691.399	0.22
691.721	0.22
692.043	0.21
692.365	0.21
692.687	0.21
693.009	0.2
693.331	0.2
693.653	0.2
693.974	0.2
694.296	0.2
694.618	0.2
694.939	0.19
695.261	0.19
695.582	0.19
695.904	0.19
696.225	0.18
696.546	0.18
696.868	0.18
697.189	0.18
697.51	0.17
697.831	0.17
698.152	0.18
698.473	0.18
698.794	0.17
699.114	0.17
699.435	0.16
699.756	0.16
700.077	0.16
700.397	0.16
700.718	0.16
701.038	0.16
701.359	0.16
701.679	0.16
701.999	0.16
702.32	0.16
702.64	0.16
702.96	0.16
703.28	0.15
703.6	0.15
703.92	0.15
704.24	0.15
704.56	0.15
704.879	0.14
705.199	0.14
705.519	0.14
705.838	0.14
706.158	0.14
706.478	0.14
706.797	0.14
707.116	0.14
707.436	0.14
707.755	0.14
708.074	0.14
708.393	0.14
708.712	0.14
709.031	0.13
709.35	0.13
709.669	0.13
709.988	0.13
710.307	0.13
710.626	0.13
710.944	0.13
711.263	0.13
711.582	0.13
711.9	0.13
712.219	0.13
712.537	0.13
712.855	0.13
713.174	0.13
713.492	0.13
713.81	0.13
714.128	0.13
714.446	0.13
714.764	0.13
715.082	0.12
715.4	0.12
715.718	0.13
716.035	0.12
716.353	0.12
716.671	0.12
716.988	0.12
717.306	0.12
717.623	0.13
717.941	0.13
718.258	0.13
718.575	0.14
718.893	0.14
719.21	0.14
719.527	0.13
719.844	0.14
720.161	0.13
720.478	0.14
720.795	0.14
721.112	0.14
721.428	0.14
721.745	0.14
722.062	0.14
722.378	0.14
722.695	0.14
723.011	0.14
723.328	0.14
723.644	0.14
723.96	0.14
724.276	0.14
724.593	0.14
724.909	0.14
725.225	0.15
725.541	0.14
725.857	0.14
726.173	0.15
726.488	0.15
726.804	0.15
727.12	0.15
727.435	0.15
727.751	0.15
728.067	0.15
728.382	0.15
728.697	0.15
729.013	0.15
729.328	0.15
729.643	0.15
729.958	0.15
730.273	0.15
730.588	0.15
730.903	0.15
731.218	0.15
731.533	0.15
731.848	0.15
732.163	0.15
732.477	0.15
732.792	0.15
733.107	0.14
733.421	0.15
733.736	0.15
734.05	0.15
734.364	0.15
734.678	0.15
734.993	0.15
735.307	0.15
735.621	0.15
735.935	0.15
736.249	0.15
736.563	0.15
736.877	0.15
737.19	0.15
737.504	0.15
737.818	0.15
738.131	0.14
738.445	0.14
738.758	0.14
739.072	0.14
739.385	0.14
739.698	0.14
740.012	0.14
740.325	0.14
740.638	0.14
740.951	0.14
741.264	0.13
741.577	0.14
741.89	0.14
742.203	0.14
742.515	0.14
742.828	0.14
743.141	0.14
743.453	0.14
743.766	0.14
744.078	0.13
744.391	0.13
744.703	0.13
745.015	0.13
745.327	0.13
745.639	0.13
745.952	0.13
746.264	0.12
746.575	0.13
746.887	0.12
747.199	0.12
747.511	0.12
747.823	0.12
748.134	0.12
748.446	0.11
748.757	0.11
749.069	0.11
749.38	0.11
749.692	0.11
750.003	0.11
750.314	0.11
750.625	0.11
750.936	0.11
751.248	0.1
751.559	0.1
751.869	0.1
752.18	0.1
752.491	0.1
752.802	0.1
753.112	0.1
753.423	0.09
753.734	0.09
754.044	0.09
754.355	0.09
754.665	0.09
754.975	0.09
755.285	0.08
755.596	0.08
755.906	0.08
756.216	0.08
756.526	0.07
756.836	0.08
757.146	0.08
757.455	0.08
757.765	0.08
758.075	0.08
758.385	0.07
758.694	0.07
759.004	0.07
759.313	0.07
759.622	0.07
759.932	0.07
760.241	0.07
760.55	0.07
760.859	0.07
761.168	0.07
761.477	0.07
761.786	0.07
762.095	0.07
762.404	0.06
762.713	0.06
763.021	0.06
763.33	0.06
763.639	0.05
763.947	0.05
764.256	0.05
764.564	0.05
764.872	0.05
765.181	0.05
765.489	0.05
765.797	0.05
766.105	0.05
766.413	0.05
766.721	0.05
767.029	0.05
767.337	0.05
767.644	0.05
767.952	0.05
768.26	0.05
768.567	0.05
768.875	0.05
769.182	0.04
769.49	0.04
769.797	0.04
770.104	0.04
770.411	0.04
770.718	0.04
771.026	0.04
771.333	0.04
771.639	0.04
771.946	0.04
772.253	0.04
772.56	0.04
772.867	0.04
773.173	0.04
773.48	0.04
773.786	0.04
774.093	0.03
774.399	0.03
774.705	0.03
775.012	0.03
775.318	0.03
775.624	0.03
775.93	0.03
776.236	0.03
776.542	0.04
776.848	0.04
777.154	0.04
777.459	0.04
777.765	0.04
778.071	0.04
778.376	0.04
778.682	0.03
778.987	0.03
779.292	0.03
779.598	0.03
779.903	0.03
780.208	0.04
780.513	0.04
780.818	0.03
781.123	0.03
781.428	0.04
781.733	0.04
782.038	0.03
782.343	0.04
782.647	0.03
782.952	0.03
783.256	0.04
783.561	0.04
783.865	0.04
784.17	0.04
784.474	0.04
784.778	0.03
785.082	0.03
785.386	0.03
785.69	0.04
785.994	0.03
786.298	0.03
786.602	0.04
786.906	0.03
787.209	0.03
787.513	0.03
787.817	0.03
788.12	0.03
788.424	0.03
788.727	0.03
789.03	0.03
789.333	0.03
789.637	0.04
789.94	0.03
790.243	0.04
790.546	0.04
790.849	0.04
791.152	0.03
791.454	0.04
791.757	0.03
792.06	0.03
792.362	0.04
792.665	0.03
792.967	0.03
793.27	0.03
793.572	0.03
793.874	0.02
794.177	0.03
794.479	0.03
794.781	0.03
795.083	0.03
795.385	0.03
795.687	0.03
795.989	0.03
796.29	0.03
796.592	0.03
796.894	0.03
797.195	0.03
797.497	0.03
797.798	0.03
798.1	0.03
798.401	0.03
798.702	0.03
799.003	0.03
799.304	0.03
799.605	0.03
799.906	0.03
800.207	0.03
800.508	0.03
800.809	0.04
801.11	0.04
801.41	0.04
801.711	0.04
802.011	0.04
802.312	0.04
802.612	0.03
802.913	0.04
803.213	0.04
803.513	0.04
803.813	0.04
804.113	0.04
804.413	0.04
804.713	0.04
805.013	0.04
805.313	0.04
805.613	0.04
805.912	0.04
806.212	0.04
806.511	0.04
806.811	0.04
807.11	0.04
807.41	0.04
807.709	0.04
808.008	0.03
808.307	0.03
808.606	0.03
808.905	0.03
809.204	0.03
809.503	0.03
809.802	0.03
810.101	0.03
810.399	0.03
810.698	0.03
810.997	0.03
811.295	0.03
811.593	0.03
811.892	0.03
812.19	0.03
812.488	0.04
812.786	0.03
813.084	0.03
813.383	0.03
813.68	0.03
813.978	0.03
814.276	0.03
814.574	0.03
814.872	0.03
815.169	0.03
815.467	0.03
815.764	0.03
816.062	0.03
816.359	0.03
816.656	0.03
816.954	0.02
817.251	0.03
817.548	0.02
817.845	0.03
818.142	0.03
818.439	0.03
818.735	0.03
819.032	0.03
819.329	0.03
819.626	0.03
819.922	0.03
820.219	0.03
820.515	0.03
820.811	0.03
821.108	0.02
821.404	0.03
821.7	0.02
821.996	0.03
822.292	0.03
822.588	0.03
822.884	0.03
823.18	0.03
823.475	0.03
823.771	0.03
824.067	0.03
824.362	0.03
824.658	0.04
824.953	0.04
825.249	0.04
825.544	0.04
825.839	0.04
826.134	0.04
826.429	0.03
826.724	0.04
827.019	0.03
827.314	0.03
827.609	0.03
827.904	0.03
828.198	0.03
828.493	0.03
828.787	0.02
829.082	0.03
829.376	0.03
829.671	0.03
829.965	0.03
830.259	0.02
830.553	0.03
830.847	0.03
831.141	0.03
831.435	0.03
831.729	0.03
832.023	0.04
832.317	0.03
832.61	0.04
832.904	0.03
833.197	0.04
833.491	0.04
833.784	0.03
834.077	0.03
834.371	0.04
834.664	0.03
834.957	0.04
835.25	0.03
835.543	0.03
835.836	0.04
836.129	0.04
836.421	0.04
836.714	0.04
837.007	0.03
837.299	0.04
837.592	0.04
837.884	0.04
838.177	0.05
838.469	0.04
838.761	0.04
839.053	0.04
839.345	0.04
839.637	0.04
839.929	0.03
840.221	0.04
840.513	0.04
840.805	0.04
841.096	0.04
841.388	0.03
841.68	0.04
841.971	0.04
842.262	0.04
842.554	0.03
842.845	0.04
843.136	0.03
843.427	0.03
843.718	0.04
844.009	0.03
844.3	0.04
844.591	0.04
844.882	0.03
845.173	0.04
845.463	0.03
845.754	0.04
846.044	0.03
846.335	0.03
846.625	0.03
846.915	0.03
847.206	0.04
847.496	0.04
847.786	0.04
848.076	0.05
848.366	0.03
848.656	0.04
848.945	0.03
849.235	0.05
849.525	0.04
849.814	0.04
850.104	0.04
850.393	0.03
850.683	0.03
850.972	0.04
851.261	0.04
851.551	0.06
851.84	0.04
852.129	0.03
852.418	0.03
852.707	0.02
852.995	0.03
853.284	0.02
853.573	0.03
853.862	0.02
854.15	0.02
854.439	0.03
854.727	0.04
855.015	0.03
855.304	0.04
855.592	0.04
855.88	0.04
856.168	0.03
856.456	0.04
856.744	0.04
857.032	0.03
857.32	0.03
857.607	0.04
857.895	0.03
858.183	0.05
858.47	0.04
858.757	0.04
859.045	0.04
859.332	0.04
859.619	0.04
859.907	0.04
860.194	0.04
860.481	0.05
860.768	0.02
861.054	0.03
861.341	0.05
861.628	0.04
861.915	0.04
862.201	0.05
862.488	0.04
862.774	0.01
863.061	0.02
863.347	0.01
863.633	0.04
863.919	0.03
864.205	0.05
864.491	0.06
864.777	0.03
865.063	0.02
865.349	0.03
865.635	0.02
865.92	-0
866.206	0.04
866.492	0.05
866.777	0.02
867.062	0.02
867.348	0
867.633	0
867.918	0.03
868.203	0.03
868.488	0.05
868.773	0.05
869.058	0.02
869.343	0.02
869.628	0.05
869.912	0.04
870.197	0.03
870.482	0.04
870.766	0.05
871.05	0.03
871.335	0.04
871.619	0.05
871.903	0.05
872.187	0.05
872.471	0.04
872.755	0.04
873.039	0.04
873.323	0.03
873.607	0.07
873.89	0.01
874.174	0.02
874.458	0.04
874.741	0.02
875.024	0.04
875.308	-0.03
875.591	0.05
875.874	-0.03
876.157	0.03
876.44	0.05
876.723	0.13
877.006	0.07
877.289	0
877.572	0.03
877.854	0.03
878.137	0.12
878.42	0.01
878.702	0.06
878.984	0.06
879.267	0.09
879.549	0.12
879.831	0
880.113	0.08
880.395	0.08
880.677	0.15
880.959	0.09
