Data from Rubpy_EV_1500_EDTA_Buffered_Absorbance_14-56-59-867.txt Node
Date: Tue Jun 30 14:56:59 BST 2026
User: fpm-admin
Spectrometer: OFX00224
Trigger mode: 0
Integration Time (sec): 7.000000E-2
Scans to average: 3
Nonlinearity correction enabled: false
Boxcar width: 0
Storing dark spectrum: false
XAxis mode: Wavelengths
Number of Pixels in Spectrum: 2136
>>>>>Begin Spectral Data<<<<<
154.91	0.24
155.289	-0.27
155.669	0.9
156.048	-0
156.428	1
156.807	0.5
157.186	-0.32
157.566	-0.11
157.945	-0
158.325	-1.26
158.704	-0.95
159.083	-0
159.462	-0.35
159.842	0.43
160.221	-0.07
160.6	0.48
160.979	-0
161.359	-0.3
161.738	0.73
162.117	-0
162.496	-0
162.875	-0.09
163.254	-0.66
163.633	-0.14
164.012	1.34
164.391	0.9
164.77	0.27
165.149	-0
165.528	-0
165.907	-0
166.286	0.18
166.665	-0
167.044	1.46
167.423	0.08
167.802	-0
168.181	0.04
168.559	-0.53
168.938	0.47
169.317	-0.06
169.696	0.3
170.074	1.22
170.453	-0
170.832	-0
171.21	0.26
171.589	-0
171.968	-0
172.346	-0
172.725	-0
173.103	0.04
173.482	-0.57
173.861	-0.21
174.239	0.24
174.617	0.38
174.996	-0
175.374	-0.27
175.753	-0
176.131	0.51
176.51	0.67
176.888	0.33
177.266	-0
177.645	-0.08
178.023	-0
178.401	-0.32
178.779	-0
179.158	0.95
179.536	-0.03
179.914	-0
180.292	0.63
180.67	-0.07
181.048	0.06
181.427	-0
181.805	-0
182.183	-0
182.561	-0
182.939	-0
183.317	-0.6
183.695	0.18
184.073	-0.15
184.451	-0.2
184.829	-0.03
185.206	0.49
185.584	-0
185.962	-0.56
186.34	-0.19
186.718	0.75
187.096	-1.04
187.473	-0
187.851	0.17
188.229	-0
188.607	0.25
188.984	0.12
189.362	0.09
189.74	0.23
190.117	0.3
190.495	0.06
190.872	0.06
191.25	0.1
191.627	0.09
192.005	0.21
192.382	0.27
192.76	0.17
193.137	0.08
193.515	0.11
193.892	0.19
194.269	0.21
194.647	0.12
195.024	0.12
195.401	0.19
195.779	0.15
196.156	0.15
196.533	0.27
196.91	0.05
197.288	0.1
197.665	0.17
198.042	0.07
198.419	0.09
198.796	0.16
199.173	0.21
199.55	0.08
199.927	0.26
200.304	0.19
200.681	0.11
201.058	-0.01
201.435	0.09
201.812	0.17
202.189	0.17
202.566	0.28
202.943	0.1
203.32	0.19
203.697	0.21
204.073	0.18
204.45	0.08
204.827	0.2
205.204	0.26
205.58	0.27
205.957	0.15
206.334	0.19
206.71	0.16
207.087	0.22
207.464	0.06
207.84	0.15
208.217	0.19
208.593	0.14
208.97	0.18
209.346	0.23
209.723	0.15
210.099	0.17
210.476	0.24
210.852	0.16
211.228	0.07
211.605	0.1
211.981	0.22
212.357	0.21
212.733	0.13
213.11	0.31
213.486	0.12
213.862	0.11
214.238	0.13
214.614	0.15
214.991	0.24
215.367	0.21
215.743	0.17
216.119	0.21
216.495	0.12
216.871	0.32
217.247	0.25
217.623	0.13
217.999	0.08
218.375	0.23
218.751	0.12
219.127	0.21
219.502	0.24
219.878	0.14
220.254	0.24
220.63	0.03
221.006	0.16
221.381	0.16
221.757	0.13
222.133	0.27
222.508	0.09
222.884	0.21
223.26	0.18
223.635	0.16
224.011	0.16
224.386	0.17
224.762	0.21
225.137	0.11
225.513	0.21
225.888	0.2
226.264	0.2
226.639	0.18
227.014	0.23
227.39	0.23
227.765	0.31
228.14	0.18
228.516	0.25
228.891	0.16
229.266	0.16
229.641	0.12
230.017	0.18
230.392	0.19
230.767	0.17
231.142	0.22
231.517	0.21
231.892	0.13
232.267	0.13
232.642	0.17
233.017	0.15
233.392	0.24
233.767	0.18
234.142	0.16
234.517	0.19
234.892	0.14
235.267	0.17
235.641	0.33
236.016	0.12
236.391	0.11
236.766	0.16
237.14	0.15
237.515	0.2
237.89	0.12
238.264	0.11
238.639	0.18
239.014	0.25
239.388	0.15
239.763	0.22
240.137	0.12
240.512	0.24
240.886	0.09
241.261	0.17
241.635	0.31
242.009	0.2
242.384	0.16
242.758	0.24
243.132	0.14
243.507	0.27
243.881	0.21
244.255	0.26
244.629	0.24
245.004	0.15
245.378	0.14
245.752	0.18
246.126	0.21
246.5	0.2
246.874	0.18
247.248	0.11
247.622	0.26
247.996	0.26
248.37	0.18
248.744	0.24
249.118	0.24
249.492	0.24
249.866	0.16
250.24	0.25
250.613	0.19
250.987	0.07
251.361	0.19
251.735	0.22
252.108	0.2
252.482	0.24
252.856	0.2
253.229	0.18
253.603	0.27
253.977	0.29
254.35	0.14
254.724	0.12
255.097	0.1
255.471	0.27
255.844	0.25
256.218	0.23
256.591	0.08
256.964	0.19
257.338	0.19
257.711	0.21
258.084	0.24
258.458	0.21
258.831	0.18
259.204	0.2
259.577	0.2
259.95	0.16
260.323	0.17
260.697	0.15
261.07	0.16
261.443	0.18
261.816	0.12
262.189	0.25
262.562	0.22
262.935	0.23
263.308	0.27
263.68	0.18
264.053	0.29
264.426	0.16
264.799	0.15
265.172	0.23
265.545	0.18
265.917	0.16
266.29	0.12
266.663	0.26
267.035	0.16
267.408	0.19
267.781	0.17
268.153	0.17
268.526	0.22
268.898	0.24
269.271	0.21
269.643	0.17
270.016	0.18
270.388	0.22
270.76	0.14
271.133	0.21
271.505	0.23
271.877	0.22
272.25	0.19
272.622	0.19
272.994	0.16
273.366	0.21
273.739	0.27
274.111	0.2
274.483	0.22
274.855	0.24
275.227	0.28
275.599	0.17
275.971	0.25
276.343	0.19
276.715	0.12
277.087	0.21
277.459	0.17
277.831	0.15
278.203	0.2
278.574	0.18
278.946	0.22
279.318	0.18
279.69	0.21
280.061	0.14
280.433	0.23
280.805	0.17
281.176	0.25
281.548	0.18
281.92	0.26
282.291	0.15
282.663	0.26
283.034	0.25
283.406	0.23
283.777	0.24
284.148	0.17
284.52	0.22
284.891	0.15
285.262	0.19
285.634	0.16
286.005	0.14
286.376	0.13
286.747	0.14
287.119	0.23
287.49	0.07
287.861	0.16
288.232	0.15
288.603	0.19
288.974	0.18
289.345	0.12
289.716	0.19
290.087	0.19
290.458	0.22
290.829	0.28
291.2	0.16
291.571	0.17
291.941	0.16
292.312	0.24
292.683	0.23
293.054	0.2
293.424	0.2
293.795	0.2
294.166	0.15
294.536	0.22
294.907	0.19
295.277	0.23
295.648	0.12
296.018	0.22
296.389	0.15
296.759	0.16
297.13	0.14
297.5	0.19
297.871	0.18
298.241	0.15
298.611	0.19
298.981	0.14
299.352	0.22
299.722	0.17
300.092	0.18
300.462	0.15
300.832	0.15
301.202	0.16
301.573	0.16
301.943	0.12
302.313	0.15
302.683	0.14
303.053	0.17
303.422	0.13
303.792	0.13
304.162	0.16
304.532	0.15
304.902	0.15
305.272	0.14
305.641	0.14
306.011	0.16
306.381	0.13
306.75	0.16
307.12	0.14
307.49	0.14
307.859	0.15
308.229	0.16
308.598	0.15
308.968	0.15
309.337	0.16
309.707	0.16
310.076	0.15
310.445	0.16
310.815	0.16
311.184	0.15
311.553	0.17
311.923	0.16
312.292	0.17
312.661	0.17
313.03	0.17
313.399	0.18
313.768	0.18
314.137	0.17
314.506	0.17
314.875	0.16
315.244	0.16
315.613	0.16
315.982	0.17
316.351	0.16
316.72	0.16
317.089	0.16
317.458	0.16
317.826	0.17
318.195	0.16
318.564	0.16
318.933	0.16
319.301	0.15
319.67	0.15
320.038	0.15
320.407	0.15
320.775	0.15
321.144	0.15
321.512	0.14
321.881	0.15
322.249	0.15
322.618	0.15
322.986	0.14
323.354	0.14
323.723	0.14
324.091	0.14
324.459	0.14
324.827	0.14
325.195	0.14
325.564	0.13
325.932	0.13
326.3	0.13
326.668	0.14
327.036	0.14
327.404	0.14
327.772	0.14
328.14	0.14
328.508	0.13
328.875	0.13
329.243	0.13
329.611	0.14
329.979	0.14
330.346	0.14
330.714	0.14
331.082	0.14
331.449	0.14
331.817	0.14
332.185	0.14
332.552	0.14
332.92	0.14
333.287	0.15
333.655	0.15
334.022	0.15
334.389	0.16
334.757	0.16
335.124	0.16
335.491	0.16
335.859	0.16
336.226	0.17
336.593	0.17
336.96	0.16
337.327	0.17
337.695	0.17
338.062	0.18
338.429	0.17
338.796	0.18
339.163	0.18
339.53	0.18
339.897	0.18
340.263	0.19
340.63	0.19
340.997	0.19
341.364	0.2
341.731	0.21
342.097	0.2
342.464	0.21
342.831	0.21
343.197	0.22
343.564	0.22
343.931	0.22
344.297	0.23
344.664	0.23
345.03	0.23
345.396	0.23
345.763	0.24
346.129	0.24
346.496	0.24
346.862	0.25
347.228	0.25
347.594	0.25
347.961	0.26
348.327	0.26
348.693	0.27
349.059	0.27
349.425	0.28
349.791	0.28
350.157	0.28
350.523	0.29
350.889	0.3
351.255	0.3
351.621	0.3
351.987	0.31
352.353	0.32
352.719	0.32
353.084	0.33
353.45	0.34
353.816	0.34
354.181	0.34
354.547	0.35
354.913	0.36
355.278	0.37
355.644	0.38
356.009	0.39
356.375	0.39
356.74	0.4
357.106	0.41
357.471	0.41
357.836	0.42
358.202	0.43
358.567	0.43
358.932	0.44
359.297	0.46
359.663	0.46
360.028	0.47
360.393	0.47
360.758	0.48
361.123	0.48
361.488	0.48
361.853	0.5
362.218	0.5
362.583	0.51
362.948	0.51
363.312	0.52
363.677	0.52
364.042	0.54
364.407	0.54
364.772	0.55
365.136	0.55
365.501	0.57
365.865	0.58
366.23	0.59
366.595	0.61
366.959	0.61
367.324	0.62
367.688	0.64
368.052	0.64
368.417	0.66
368.781	0.66
369.145	0.67
369.51	0.67
369.874	0.67
370.238	0.67
370.602	0.68
370.967	0.67
371.331	0.67
371.695	0.66
372.059	0.66
372.423	0.66
372.787	0.65
373.151	0.65
373.515	0.65
373.878	0.64
374.242	0.65
374.606	0.65
374.97	0.64
375.334	0.64
375.697	0.64
376.061	0.65
376.425	0.65
376.788	0.66
377.152	0.66
377.515	0.67
377.879	0.67
378.242	0.68
378.606	0.69
378.969	0.7
379.333	0.71
379.696	0.71
380.059	0.72
380.422	0.73
380.786	0.75
381.149	0.75
381.512	0.77
381.875	0.79
382.238	0.8
382.601	0.82
382.964	0.83
383.327	0.85
383.69	0.88
384.053	0.9
384.416	0.92
384.779	0.94
385.142	0.96
385.504	0.97
385.867	0.99
386.23	0.99
386.593	1.01
386.955	1
387.318	1
387.68	1
388.043	1
388.405	0.98
388.768	0.98
389.13	0.98
389.493	0.97
389.855	0.97
390.217	0.97
390.58	0.95
390.942	0.96
391.304	0.97
391.666	0.97
392.028	0.99
392.391	1.02
392.753	1.04
393.115	1.08
393.477	1.11
393.839	1.15
394.201	1.19
394.563	1.23
394.924	1.29
395.286	1.33
395.648	1.37
396.01	1.39
396.371	1.44
396.733	1.45
397.095	1.48
397.456	1.5
397.818	1.47
398.18	1.47
398.541	1.46
398.903	1.43
399.264	1.4
399.625	1.35
399.987	1.32
400.348	1.25
400.709	1.21
401.071	1.14
401.432	1.07
401.793	1
402.154	0.95
402.515	0.88
402.876	0.83
403.238	0.76
403.599	0.71
403.96	0.66
404.32	0.62
404.681	0.57
405.042	0.53
405.403	0.49
405.764	0.46
406.125	0.43
406.485	0.4
406.846	0.38
407.207	0.36
407.567	0.33
407.928	0.31
408.288	0.29
408.649	0.27
409.009	0.26
409.37	0.25
409.73	0.24
410.091	0.23
410.451	0.21
410.811	0.21
411.171	0.2
411.532	0.19
411.892	0.18
412.252	0.17
412.612	0.17
412.972	0.16
413.332	0.16
413.692	0.15
414.052	0.15
414.412	0.14
414.772	0.14
415.132	0.13
415.492	0.13
415.851	0.13
416.211	0.12
416.571	0.12
416.931	0.11
417.29	0.11
417.65	0.11
418.009	0.1
418.369	0.1
418.728	0.1
419.088	0.1
419.447	0.09
419.807	0.09
420.166	0.1
420.525	0.09
420.884	0.08
421.244	0.09
421.603	0.09
421.962	0.09
422.321	0.09
422.68	0.08
423.039	0.08
423.398	0.08
423.757	0.09
424.116	0.08
424.475	0.08
424.834	0.08
425.193	0.07
425.551	0.07
425.91	0.07
426.269	0.07
426.628	0.07
426.986	0.07
427.345	0.07
427.703	0.07
428.062	0.07
428.42	0.07
428.779	0.07
429.137	0.07
429.496	0.07
429.854	0.06
430.212	0.07
430.57	0.06
430.929	0.07
431.287	0.06
431.645	0.07
432.003	0.05
432.361	0.06
432.719	0.06
433.077	0.07
433.435	0.06
433.793	0.06
434.151	0.05
434.509	0.06
434.866	0.06
435.224	0.05
435.582	0.06
435.94	0.06
436.297	0.06
436.655	0.06
437.012	0.06
437.37	0.06
437.727	0.05
438.085	0.05
438.442	0.05
438.8	0.05
439.157	0.05
439.514	0.05
439.872	0.04
440.229	0.06
440.586	0.05
440.943	0.05
441.3	0.05
441.657	0.05
442.014	0.05
442.371	0.04
442.728	0.05
443.085	0.04
443.442	0.05
443.799	0.04
444.156	0.04
444.513	0.04
444.869	0.05
445.226	0.05
445.583	0.04
445.939	0.05
446.296	0.04
446.652	0.04
447.009	0.04
447.365	0.04
447.722	0.04
448.078	0.04
448.434	0.04
448.791	0.04
449.147	0.03
449.503	0.03
449.859	0.03
450.215	0.04
450.571	0.04
450.928	0.03
451.284	0.03
451.64	0.03
451.995	0.03
452.351	0.02
452.707	0.03
453.063	0.02
453.419	0.03
453.775	0.03
454.13	0.02
454.486	0.03
454.842	0.02
455.197	0.02
455.553	0.02
455.908	0.02
456.264	0.01
456.619	0.01
456.975	0.02
457.33	0.01
457.685	0.01
458.04	-0
458.396	0.01
458.751	0
459.106	0
459.461	-0
459.816	-0
460.171	-0.01
460.526	-0
460.881	-0.01
461.236	-0.02
461.591	-0.01
461.946	-0.02
462.301	-0.01
462.655	-0.02
463.01	-0.01
463.365	-0.02
463.719	-0.02
464.074	-0.03
464.428	-0.04
464.783	-0.03
465.137	-0.03
465.492	-0.04
465.846	-0.04
466.201	-0.03
466.555	-0.03
466.909	-0.03
467.263	-0.03
467.618	-0.03
467.972	-0.03
468.326	-0.04
468.68	-0.04
469.034	-0.04
469.388	-0.03
469.742	-0.03
470.096	-0.03
470.45	-0.04
470.804	-0.03
471.157	-0.03
471.511	-0.04
471.865	-0.03
472.218	-0.03
472.572	-0.03
472.926	-0.03
473.279	-0.03
473.633	-0.02
473.986	-0.02
474.34	-0.02
474.693	-0.01
475.046	-0.01
475.4	-0
475.753	-0.01
476.106	-0.01
476.459	0
476.812	0.01
477.165	0.01
477.519	0.01
477.872	0.02
478.224	0.03
478.577	0.02
478.93	0.03
479.283	0.03
479.636	0.02
479.989	0.03
480.341	0.04
480.694	0.03
481.047	0.04
481.399	0.04
481.752	0.04
482.104	0.05
482.457	0.05
482.809	0.05
483.162	0.05
483.514	0.05
483.866	0.05
484.219	0.05
484.571	0.06
484.923	0.06
485.275	0.06
485.627	0.06
485.979	0.06
486.331	0.06
486.683	0.07
487.035	0.07
487.387	0.07
487.739	0.08
488.091	0.07
488.443	0.07
488.794	0.08
489.146	0.08
489.498	0.08
489.849	0.07
490.201	0.08
490.552	0.08
490.904	0.08
491.255	0.08
491.607	0.08
491.958	0.08
492.309	0.08
492.661	0.09
493.012	0.09
493.363	0.09
493.714	0.09
494.065	0.09
494.416	0.09
494.767	0.09
495.118	0.09
495.469	0.1
495.82	0.1
496.171	0.1
496.522	0.1
496.872	0.1
497.223	0.1
497.574	0.1
497.924	0.11
498.275	0.11
498.626	0.11
498.976	0.11
499.327	0.11
499.677	0.11
500.027	0.12
500.378	0.12
500.728	0.12
501.078	0.12
501.428	0.12
501.779	0.11
502.129	0.12
502.479	0.12
502.829	0.13
503.179	0.13
503.529	0.13
503.879	0.13
504.229	0.13
504.578	0.14
504.928	0.13
505.278	0.14
505.628	0.14
505.977	0.14
506.327	0.14
506.676	0.14
507.026	0.15
507.375	0.14
507.725	0.15
508.074	0.14
508.424	0.15
508.773	0.15
509.122	0.15
509.471	0.15
509.82	0.15
510.17	0.15
510.519	0.15
510.868	0.16
511.217	0.15
511.566	0.16
511.915	0.16
512.263	0.16
512.612	0.16
512.961	0.16
513.31	0.17
513.659	0.17
514.007	0.17
514.356	0.17
514.704	0.17
515.053	0.17
515.401	0.17
515.75	0.17
516.098	0.17
516.447	0.18
516.795	0.18
517.143	0.18
517.491	0.18
517.839	0.18
518.188	0.19
518.536	0.19
518.884	0.18
519.232	0.19
519.58	0.19
519.928	0.19
520.275	0.19
520.623	0.2
520.971	0.2
521.319	0.2
521.666	0.2
522.014	0.2
522.362	0.2
522.709	0.2
523.057	0.2
523.404	0.2
523.752	0.21
524.099	0.21
524.446	0.21
524.794	0.21
525.141	0.21
525.488	0.21
525.835	0.22
526.182	0.22
526.529	0.22
526.876	0.22
527.223	0.23
527.57	0.22
527.917	0.23
528.264	0.22
528.611	0.22
528.958	0.23
529.304	0.23
529.651	0.23
529.998	0.24
530.344	0.23
530.691	0.24
531.037	0.24
531.384	0.24
531.73	0.24
532.076	0.24
532.423	0.24
532.769	0.25
533.115	0.25
533.461	0.25
533.807	0.25
534.154	0.25
534.5	0.26
534.846	0.25
535.192	0.26
535.537	0.26
535.883	0.27
536.229	0.27
536.575	0.27
536.921	0.27
537.266	0.27
537.612	0.27
537.957	0.27
538.303	0.27
538.649	0.27
538.994	0.28
539.339	0.28
539.685	0.28
540.03	0.28
540.375	0.29
540.721	0.29
541.066	0.29
541.411	0.29
541.756	0.29
542.101	0.29
542.446	0.3
542.791	0.3
543.136	0.3
543.481	0.31
543.825	0.3
544.17	0.31
544.515	0.31
544.86	0.31
545.204	0.31
545.549	0.32
545.893	0.32
546.238	0.32
546.582	0.32
546.927	0.32
547.271	0.33
547.615	0.33
547.96	0.33
548.304	0.33
548.648	0.33
548.992	0.34
549.336	0.34
549.68	0.34
550.024	0.34
550.368	0.34
550.712	0.35
551.056	0.35
551.4	0.35
551.743	0.35
552.087	0.35
552.431	0.35
552.774	0.35
553.118	0.35
553.462	0.36
553.805	0.36
554.148	0.36
554.492	0.36
554.835	0.36
555.178	0.36
555.522	0.36
555.865	0.37
556.208	0.37
556.551	0.37
556.894	0.37
557.237	0.37
557.58	0.37
557.923	0.37
558.266	0.37
558.609	0.37
558.952	0.37
559.294	0.38
559.637	0.38
559.98	0.38
560.322	0.38
560.665	0.38
561.007	0.38
561.35	0.38
561.692	0.39
562.034	0.39
562.377	0.39
562.719	0.39
563.061	0.39
563.403	0.39
563.745	0.39
564.088	0.39
564.43	0.39
564.772	0.39
565.113	0.39
565.455	0.39
565.797	0.39
566.139	0.39
566.481	0.4
566.822	0.4
567.164	0.4
567.506	0.4
567.847	0.4
568.189	0.4
568.53	0.4
568.872	0.4
569.213	0.4
569.554	0.4
569.895	0.4
570.237	0.4
570.578	0.4
570.919	0.4
571.26	0.4
571.601	0.4
571.942	0.4
572.283	0.4
572.624	0.4
572.965	0.4
573.306	0.4
573.646	0.4
573.987	0.4
574.328	0.4
574.668	0.4
575.009	0.4
575.349	0.4
575.69	0.4
576.03	0.4
576.37	0.4
576.711	0.39
577.051	0.4
577.391	0.4
577.731	0.4
578.072	0.4
578.412	0.4
578.752	0.4
579.092	0.4
579.431	0.4
579.771	0.39
580.111	0.38
580.451	0.39
580.791	0.4
581.13	0.4
581.47	0.4
581.81	0.4
582.149	0.4
582.489	0.41
582.828	0.41
583.167	0.4
583.507	0.37
583.846	0.35
584.185	0.37
584.525	0.39
584.864	0.4
585.203	0.41
585.542	0.42
585.881	0.42
586.22	0.42
586.559	0.42
586.898	0.41
587.236	0.41
587.575	0.41
587.914	0.41
588.252	0.42
588.591	0.43
588.93	0.43
589.268	0.43
589.607	0.43
589.945	0.43
590.283	0.43
590.622	0.43
590.96	0.44
591.298	0.44
591.636	0.44
591.974	0.44
592.313	0.45
592.651	0.45
592.989	0.45
593.326	0.45
593.664	0.46
594.002	0.46
594.34	0.46
594.678	0.46
595.015	0.46
595.353	0.45
595.691	0.46
596.028	0.47
596.366	0.47
596.703	0.47
597.04	0.47
597.378	0.47
597.715	0.48
598.052	0.48
598.389	0.48
598.726	0.48
599.064	0.49
599.401	0.49
599.738	0.49
600.074	0.49
600.411	0.49
600.748	0.48
601.085	0.48
601.422	0.48
601.758	0.49
602.095	0.48
602.432	0.48
602.768	0.48
603.105	0.49
603.441	0.49
603.777	0.49
604.114	0.49
604.45	0.49
604.786	0.49
605.122	0.5
605.459	0.49
605.795	0.49
606.131	0.49
606.467	0.49
606.803	0.49
607.139	0.49
607.474	0.49
607.81	0.49
608.146	0.49
608.482	0.49
608.817	0.48
609.153	0.48
609.488	0.48
609.824	0.48
610.159	0.48
610.495	0.48
610.83	0.48
611.165	0.48
611.5	0.48
611.836	0.48
612.171	0.47
612.506	0.48
612.841	0.47
613.176	0.48
613.511	0.47
613.845	0.47
614.18	0.47
614.515	0.47
614.85	0.47
615.184	0.46
615.519	0.46
615.854	0.46
616.188	0.46
616.523	0.46
616.857	0.46
617.191	0.46
617.526	0.46
617.86	0.45
618.194	0.45
618.528	0.45
618.862	0.45
619.196	0.45
619.53	0.45
619.864	0.45
620.198	0.44
620.532	0.44
620.866	0.44
621.2	0.44
621.533	0.44
621.867	0.44
622.201	0.43
622.534	0.43
622.868	0.43
623.201	0.43
623.534	0.43
623.868	0.43
624.201	0.43
624.534	0.42
624.868	0.42
625.201	0.42
625.534	0.43
625.867	0.42
626.2	0.42
626.533	0.41
626.865	0.41
627.198	0.41
627.531	0.41
627.864	0.41
628.196	0.41
628.529	0.4
628.862	0.4
629.194	0.4
629.527	0.39
629.859	0.39
630.191	0.39
630.524	0.39
630.856	0.39
631.188	0.39
631.52	0.38
631.852	0.38
632.184	0.38
632.516	0.37
632.848	0.37
633.18	0.37
633.512	0.37
633.844	0.36
634.175	0.36
634.507	0.36
634.839	0.35
635.17	0.36
635.502	0.35
635.833	0.35
636.165	0.35
636.496	0.34
636.827	0.34
637.159	0.34
637.49	0.34
637.821	0.33
638.152	0.33
638.483	0.33
638.814	0.32
639.145	0.32
639.476	0.32
639.807	0.32
640.137	0.31
640.468	0.32
640.799	0.31
641.129	0.31
641.46	0.31
641.791	0.3
642.121	0.3
642.451	0.3
642.782	0.3
643.112	0.29
643.442	0.29
643.773	0.28
644.103	0.29
644.433	0.28
644.763	0.28
645.093	0.28
645.423	0.28
645.753	0.28
646.082	0.28
646.412	0.28
646.742	0.28
647.072	0.28
647.401	0.28
647.731	0.27
648.06	0.28
648.39	0.27
648.719	0.27
649.048	0.27
649.378	0.27
649.707	0.26
650.036	0.27
650.365	0.26
650.694	0.26
651.023	0.26
651.352	0.26
651.681	0.26
652.01	0.26
652.339	0.26
652.668	0.26
652.996	0.26
653.325	0.26
653.654	0.26
653.982	0.26
654.311	0.26
654.639	0.26
654.967	0.26
655.296	0.26
655.624	0.26
655.952	0.25
656.28	0.25
656.609	0.25
656.937	0.26
657.265	0.26
657.593	0.22
657.92	0.09
658.248	0.04
658.576	0.04
658.904	0.12
659.231	0.21
659.559	0.25
659.887	0.25
660.214	0.25
660.542	0.25
660.869	0.25
661.196	0.25
661.524	0.25
661.851	0.25
662.178	0.25
662.505	0.25
662.832	0.25
663.159	0.24
663.486	0.24
663.813	0.24
664.14	0.25
664.467	0.25
664.794	0.25
665.12	0.25
665.447	0.25
665.774	0.24
666.1	0.24
666.427	0.24
666.753	0.24
667.079	0.24
667.406	0.24
667.732	0.24
668.058	0.24
668.384	0.24
668.71	0.24
669.036	0.24
669.362	0.24
669.688	0.24
670.014	0.23
670.34	0.24
670.666	0.23
670.991	0.23
671.317	0.23
671.643	0.23
671.968	0.23
672.294	0.23
672.619	0.23
672.945	0.22
673.27	0.23
673.595	0.22
673.92	0.22
674.246	0.22
674.571	0.22
674.896	0.22
675.221	0.22
675.546	0.22
675.87	0.21
676.195	0.21
676.52	0.21
676.845	0.21
677.169	0.21
677.494	0.21
677.819	0.2
678.143	0.2
678.468	0.2
678.792	0.2
679.116	0.19
679.44	0.2
679.765	0.2
680.089	0.2
680.413	0.19
680.737	0.19
681.061	0.19
681.385	0.19
681.709	0.18
682.033	0.18
682.356	0.18
682.68	0.17
683.004	0.17
683.327	0.17
683.651	0.17
683.974	0.17
684.298	0.17
684.621	0.17
684.944	0.16
685.268	0.16
685.591	0.16
685.914	0.16
686.237	0.16
686.56	0.16
686.883	0.15
687.206	0.15
687.529	0.15
687.852	0.15
688.175	0.14
688.497	0.14
688.82	0.14
689.142	0.14
689.465	0.14
689.787	0.14
690.11	0.14
690.432	0.14
690.755	0.13
691.077	0.13
691.399	0.13
691.721	0.13
692.043	0.13
692.365	0.12
692.687	0.13
693.009	0.12
693.331	0.12
693.653	0.12
693.974	0.12
694.296	0.12
694.618	0.12
694.939	0.12
695.261	0.12
695.582	0.12
695.904	0.11
696.225	0.11
696.546	0.11
696.868	0.11
697.189	0.11
697.51	0.11
697.831	0.11
698.152	0.11
698.473	0.11
698.794	0.1
699.114	0.1
699.435	0.1
699.756	0.1
700.077	0.1
700.397	0.1
700.718	0.09
701.038	0.1
701.359	0.1
701.679	0.1
701.999	0.09
702.32	0.1
702.64	0.1
702.96	0.1
703.28	0.1
703.6	0.09
703.92	0.09
704.24	0.09
704.56	0.09
704.879	0.09
705.199	0.09
705.519	0.08
705.838	0.08
706.158	0.09
706.478	0.09
706.797	0.08
707.116	0.09
707.436	0.09
707.755	0.09
708.074	0.09
708.393	0.08
708.712	0.09
709.031	0.08
709.35	0.08
709.669	0.08
709.988	0.08
710.307	0.08
710.626	0.08
710.944	0.08
711.263	0.08
711.582	0.08
711.9	0.08
712.219	0.08
712.537	0.08
712.855	0.08
713.174	0.08
713.492	0.08
713.81	0.08
714.128	0.08
714.446	0.08
714.764	0.07
715.082	0.07
715.4	0.07
715.718	0.07
716.035	0.07
716.353	0.07
716.671	0.07
716.988	0.07
717.306	0.07
717.623	0.07
717.941	0.08
718.258	0.08
718.575	0.08
718.893	0.08
719.21	0.08
719.527	0.08
719.844	0.08
720.161	0.08
720.478	0.08
720.795	0.08
721.112	0.08
721.428	0.08
721.745	0.08
722.062	0.08
722.378	0.08
722.695	0.08
723.011	0.08
723.328	0.08
723.644	0.08
723.96	0.08
724.276	0.08
724.593	0.08
724.909	0.09
725.225	0.09
725.541	0.09
725.857	0.08
726.173	0.09
726.488	0.09
726.804	0.09
727.12	0.09
727.435	0.09
727.751	0.09
728.067	0.09
728.382	0.09
728.697	0.09
729.013	0.09
729.328	0.09
729.643	0.09
729.958	0.09
730.273	0.09
730.588	0.09
730.903	0.09
731.218	0.09
731.533	0.09
731.848	0.09
732.163	0.09
732.477	0.09
732.792	0.09
733.107	0.09
733.421	0.09
733.736	0.09
734.05	0.09
734.364	0.09
734.678	0.1
734.993	0.09
735.307	0.09
735.621	0.09
735.935	0.09
736.249	0.09
736.563	0.09
736.877	0.09
737.19	0.09
737.504	0.09
737.818	0.09
738.131	0.09
738.445	0.08
738.758	0.08
739.072	0.08
739.385	0.08
739.698	0.08
740.012	0.09
740.325	0.08
740.638	0.08
740.951	0.08
741.264	0.08
741.577	0.08
741.89	0.08
742.203	0.08
742.515	0.09
742.828	0.09
743.141	0.09
743.453	0.09
743.766	0.08
744.078	0.08
744.391	0.08
744.703	0.08
745.015	0.08
745.327	0.08
745.639	0.08
745.952	0.08
746.264	0.08
746.575	0.08
746.887	0.08
747.199	0.08
747.511	0.08
747.823	0.07
748.134	0.07
748.446	0.07
748.757	0.07
749.069	0.07
749.38	0.07
749.692	0.07
750.003	0.07
750.314	0.07
750.625	0.07
750.936	0.07
751.248	0.06
751.559	0.06
751.869	0.06
752.18	0.06
752.491	0.06
752.802	0.06
753.112	0.06
753.423	0.06
753.734	0.06
754.044	0.06
754.355	0.06
754.665	0.06
754.975	0.06
755.285	0.05
755.596	0.05
755.906	0.05
756.216	0.05
756.526	0.04
756.836	0.04
757.146	0.05
757.455	0.05
757.765	0.05
758.075	0.05
758.385	0.05
758.694	0.04
759.004	0.04
759.313	0.04
759.622	0.04
759.932	0.04
760.241	0.04
760.55	0.04
760.859	0.04
761.168	0.04
761.477	0.04
761.786	0.04
762.095	0.04
762.404	0.04
762.713	0.04
763.021	0.04
763.33	0.04
763.639	0.03
763.947	0.03
764.256	0.03
764.564	0.03
764.872	0.03
765.181	0.03
765.489	0.03
765.797	0.03
766.105	0.03
766.413	0.03
766.721	0.03
767.029	0.03
767.337	0.03
767.644	0.03
767.952	0.03
768.26	0.03
768.567	0.03
768.875	0.03
769.182	0.03
769.49	0.03
769.797	0.02
770.104	0.02
770.411	0.02
770.718	0.02
771.026	0.02
771.333	0.02
771.639	0.03
771.946	0.02
772.253	0.02
772.56	0.03
772.867	0.03
773.173	0.02
773.48	0.02
773.786	0.02
774.093	0.02
774.399	0.02
774.705	0.02
775.012	0.02
775.318	0.02
775.624	0.02
775.93	0.02
776.236	0.02
776.542	0.02
776.848	0.02
777.154	0.02
777.459	0.02
777.765	0.02
778.071	0.02
778.376	0.02
778.682	0.02
778.987	0.02
779.292	0.02
779.598	0.02
779.903	0.02
780.208	0.02
780.513	0.02
780.818	0.02
781.123	0.02
781.428	0.02
781.733	0.02
782.038	0.02
782.343	0.03
782.647	0.03
782.952	0.02
783.256	0.02
783.561	0.03
783.865	0.03
784.17	0.03
784.474	0.03
784.778	0.02
785.082	0.02
785.386	0.02
785.69	0.03
785.994	0.02
786.298	0.02
786.602	0.02
786.906	0.02
787.209	0.02
787.513	0.02
787.817	0.02
788.12	0.02
788.424	0.02
788.727	0.02
789.03	0.02
789.333	0.02
789.637	0.03
789.94	0.02
790.243	0.03
790.546	0.03
790.849	0.03
791.152	0.02
791.454	0.03
791.757	0.03
792.06	0.03
792.362	0.03
792.665	0.02
792.967	0.02
793.27	0.02
793.572	0.02
793.874	0.02
794.177	0.02
794.479	0.02
794.781	0.02
795.083	0.02
795.385	0.02
795.687	0.02
795.989	0.02
796.29	0.02
796.592	0.02
796.894	0.02
797.195	0.02
797.497	0.02
797.798	0.02
798.1	0.02
798.401	0.02
798.702	0.02
799.003	0.02
799.304	0.02
799.605	0.02
799.906	0.02
800.207	0.02
800.508	0.02
800.809	0.02
801.11	0.02
801.41	0.02
801.711	0.03
802.011	0.03
802.312	0.03
802.612	0.03
802.913	0.03
803.213	0.03
803.513	0.03
803.813	0.03
804.113	0.03
804.413	0.03
804.713	0.03
805.013	0.03
805.313	0.03
805.613	0.03
805.912	0.03
806.212	0.03
806.511	0.03
806.811	0.03
807.11	0.03
807.41	0.03
807.709	0.03
808.008	0.02
808.307	0.02
808.606	0.02
808.905	0.02
809.204	0.02
809.503	0.02
809.802	0.02
810.101	0.02
810.399	0.02
810.698	0.02
810.997	0.03
811.295	0.02
811.593	0.02
811.892	0.02
812.19	0.02
812.488	0.03
812.786	0.03
813.084	0.02
813.383	0.02
813.68	0.02
813.978	0.02
814.276	0.02
814.574	0.02
814.872	0.02
815.169	0.02
815.467	0.02
815.764	0.02
816.062	0.02
816.359	0.02
816.656	0.02
816.954	0.01
817.251	0.02
817.548	0.01
817.845	0.02
818.142	0.02
818.439	0.02
818.735	0.02
819.032	0.02
819.329	0.02
819.626	0.02
819.922	0.02
820.219	0.02
820.515	0.02
820.811	0.02
821.108	0.02
821.404	0.02
821.7	0.02
821.996	0.02
822.292	0.02
822.588	0.02
822.884	0.02
823.18	0.02
823.475	0.02
823.771	0.03
824.067	0.02
824.362	0.03
824.658	0.03
824.953	0.03
825.249	0.03
825.544	0.03
825.839	0.03
826.134	0.03
826.429	0.03
826.724	0.03
827.019	0.02
827.314	0.02
827.609	0.02
827.904	0.02
828.198	0.02
828.493	0.03
828.787	0.02
829.082	0.02
829.376	0.02
829.671	0.02
829.965	0.02
830.259	0.02
830.553	0.02
830.847	0.02
831.141	0.02
831.435	0.03
831.729	0.02
832.023	0.03
832.317	0.02
832.61	0.03
832.904	0.02
833.197	0.02
833.491	0.02
833.784	0.02
834.077	0.03
834.371	0.03
834.664	0.02
834.957	0.03
835.25	0.02
835.543	0.02
835.836	0.04
836.129	0.03
836.421	0.03
836.714	0.03
837.007	0.02
837.299	0.03
837.592	0.03
837.884	0.03
838.177	0.03
838.469	0.03
838.761	0.03
839.053	0.03
839.345	0.03
839.637	0.04
839.929	0.03
840.221	0.03
840.513	0.03
840.805	0.02
841.096	0.03
841.388	0.03
841.68	0.02
841.971	0.02
842.262	0.03
842.554	0.03
842.845	0.03
843.136	0.02
843.427	0.02
843.718	0.03
844.009	0.02
844.3	0.02
844.591	0.04
844.882	0.01
845.173	0.03
845.463	0.02
845.754	0.03
846.044	0.02
846.335	0.02
846.625	0.03
846.915	0.02
847.206	0.02
847.496	0.03
847.786	0.02
848.076	0.02
848.366	0.02
848.656	0.03
848.945	0.03
849.235	0.02
849.525	0.03
849.814	0.03
850.104	0.03
850.393	0.02
850.683	0.03
850.972	0.02
851.261	0.03
851.551	0.03
851.84	0.03
852.129	0.02
852.418	0.03
852.707	0.02
852.995	0.02
853.284	0.02
853.573	0.01
853.862	0.02
854.15	0.01
854.439	0.02
854.727	0.02
855.015	0.02
855.304	0.02
855.592	0.01
855.88	0.04
856.168	0.03
856.456	0.03
856.744	0.02
857.032	0.03
857.32	0.03
857.607	0.02
857.895	0.03
858.183	0.03
858.47	0.01
858.757	0.03
859.045	0.02
859.332	0.03
859.619	0.03
859.907	0.03
860.194	0.03
860.481	0.03
860.768	0.02
861.054	0.02
861.341	0.03
861.628	0.03
861.915	0.01
862.201	0.03
862.488	0.03
862.774	0.02
863.061	0.02
863.347	0.01
863.633	0.04
863.919	0.03
864.205	0.02
864.491	0.03
864.777	0.02
865.063	0.04
865.349	0.03
865.635	0.02
865.92	0.01
866.206	0.02
866.492	0.04
866.777	0.02
867.062	-0.01
867.348	0.01
867.633	-0
867.918	0.01
868.203	0.04
868.488	0.03
868.773	0.03
869.058	0.02
869.343	0.01
869.628	0.02
869.912	0.01
870.197	0.02
870.482	0.02
870.766	0.03
871.05	0.02
871.335	0.01
871.619	0.03
871.903	0.06
872.187	0.03
872.471	0.01
872.755	0.01
873.039	0.01
873.323	0.01
873.607	-0.01
873.89	0.02
874.174	0.04
874.458	0.04
874.741	0.03
875.024	0.01
875.308	-0.03
875.591	0.12
875.874	-0.04
876.157	0.06
876.44	-0.04
876.723	0.03
877.006	0.02
877.289	0.09
877.572	0.03
877.854	0.02
878.137	0.07
878.42	0.03
878.702	0.05
878.984	0.02
879.267	0.02
879.549	0.06
879.831	0.02
880.113	0.09
880.395	0.03
880.677	0.1
880.959	-0.18
