Data from Rubpy_EV_1500_EDTA_Buffered_Absorbance_15-14-22-022.txt Node
Date: Tue Jun 30 15:14:22 BST 2026
User: fpm-admin
Spectrometer: OFX00224
Trigger mode: 0
Integration Time (sec): 7.000000E-2
Scans to average: 3
Nonlinearity correction enabled: false
Boxcar width: 0
Storing dark spectrum: false
XAxis mode: Wavelengths
Number of Pixels in Spectrum: 2136
>>>>>Begin Spectral Data<<<<<
154.91	-0
155.289	0.15
155.669	0.54
156.048	0.3
156.428	0.15
156.807	-0
157.186	-0.54
157.566	0.23
157.945	-0.57
158.325	-0
158.704	-1.3
159.083	1.3
159.462	-0
159.842	0.43
160.221	-0
160.6	-0
160.979	-0
161.359	-0.2
161.738	-0
162.117	-0
162.496	-0
162.875	-0
163.254	-0.3
163.633	0.3
164.012	-0
164.391	1.03
164.77	0.06
165.149	0.24
165.528	0.14
165.907	-0
166.286	-0.68
166.665	0.7
167.044	-0
167.423	0.69
167.802	-0
168.181	-0.05
168.559	-0.58
168.938	-0.05
169.317	-0
169.696	0.18
170.074	0.24
170.453	-0
170.832	-0
171.21	-0.59
171.589	-0
171.968	-0
172.346	-0.15
172.725	-0.85
173.103	-0.3
173.482	-0.1
173.861	-0.19
174.239	-0.04
174.617	0.32
174.996	-0.1
175.374	0.46
175.753	-0.19
176.131	0.43
176.51	0.14
176.888	0.22
177.266	-0
177.645	0.07
178.023	0.61
178.401	-0.09
178.779	-0.2
179.158	0.39
179.536	0.6
179.914	-0
180.292	0.79
180.67	-0.2
181.048	-0
181.427	0.32
181.805	-0.24
182.183	-0
182.561	0.08
182.939	-0.9
183.317	-0
183.695	-0
184.073	1.15
184.451	0.29
184.829	-0.58
185.206	-0.09
185.584	-0
185.962	-0
186.34	-0
186.718	0.45
187.096	-0.85
187.473	-0
187.851	0.59
188.229	0.06
188.607	0.47
188.984	0.3
189.362	0.27
189.74	0.37
190.117	0.29
190.495	0.29
190.872	0.28
191.25	0.34
191.627	0.27
192.005	0.22
192.382	0.26
192.76	0.3
193.137	0.25
193.515	0.36
193.892	0.28
194.269	0.41
194.647	0.23
195.024	0.27
195.401	0.26
195.779	0.37
196.156	0.23
196.533	0.4
196.91	0.29
197.288	0.15
197.665	0.35
198.042	0.3
198.419	0.44
198.796	0.17
199.173	0.39
199.55	0.27
199.927	0.43
200.304	0.41
200.681	0.31
201.058	0.2
201.435	0.21
201.812	0.32
202.189	0.4
202.566	0.44
202.943	0.25
203.32	0.42
203.697	0.34
204.073	0.15
204.45	0.15
204.827	0.33
205.204	0.36
205.58	0.24
205.957	0.38
206.334	0.39
206.71	0.25
207.087	0.68
207.464	0.37
207.84	0.39
208.217	0.33
208.593	0.38
208.97	0.36
209.346	0.61
209.723	0.46
210.099	0.34
210.476	0.33
210.852	0.58
211.228	0.4
211.605	0.27
211.981	0.37
212.357	0.38
212.733	0.46
213.11	0.45
213.486	0.3
213.862	0.43
214.238	0.31
214.614	0.41
214.991	0.29
215.367	0.29
215.743	0.3
216.119	0.2
216.495	0.36
216.871	0.43
217.247	0.14
217.623	0.37
217.999	0.29
218.375	0.68
218.751	0.33
219.127	0.46
219.502	0.38
219.878	0.25
220.254	0.27
220.63	0.48
221.006	0.23
221.381	0.3
221.757	0.3
222.133	0.43
222.508	0.23
222.884	0.36
223.26	0.36
223.635	0.36
224.011	0.37
224.386	0.3
224.762	0.38
225.137	0.25
225.513	0.33
225.888	0.26
226.264	0.44
226.639	0.28
227.014	0.3
227.39	0.34
227.765	0.38
228.14	0.34
228.516	0.38
228.891	0.3
229.266	0.63
229.641	0.49
230.017	0.27
230.392	0.29
230.767	0.34
231.142	0.39
231.517	0.29
231.892	0.39
232.267	0.34
232.642	0.35
233.017	0.31
233.392	0.36
233.767	0.26
234.142	0.29
234.517	0.23
234.892	0.26
235.267	0.38
235.641	0.3
236.016	0.25
236.391	0.23
236.766	0.27
237.14	0.31
237.515	0.23
237.89	0.39
238.264	0.37
238.639	0.3
239.014	0.32
239.388	0.25
239.763	0.34
240.137	0.31
240.512	0.38
240.886	0.34
241.261	0.36
241.635	0.42
242.009	0.35
242.384	0.44
242.758	0.34
243.132	0.32
243.507	0.43
243.881	0.32
244.255	0.36
244.629	0.48
245.004	0.35
245.378	0.35
245.752	0.31
246.126	0.31
246.5	0.29
246.874	0.22
247.248	0.26
247.622	0.43
247.996	0.46
248.37	0.26
248.744	0.4
249.118	0.36
249.492	0.24
249.866	0.36
250.24	0.45
250.613	0.24
250.987	0.26
251.361	0.3
251.735	0.38
252.108	0.38
252.482	0.26
252.856	0.35
253.229	0.39
253.603	0.43
253.977	0.66
254.35	0.26
254.724	0.42
255.097	0.36
255.471	0.41
255.844	0.41
256.218	0.43
256.591	0.19
256.964	0.31
257.338	0.36
257.711	0.47
258.084	0.27
258.458	0.36
258.831	0.44
259.204	0.28
259.577	0.23
259.95	0.36
260.323	0.36
260.697	0.29
261.07	0.35
261.443	0.37
261.816	0.38
262.189	0.37
262.562	0.48
262.935	0.3
263.308	0.38
263.68	0.27
264.053	0.43
264.426	0.4
264.799	0.38
265.172	0.25
265.545	0.44
265.917	0.3
266.29	0.33
266.663	0.43
267.035	0.35
267.408	0.28
267.781	0.35
268.153	0.31
268.526	0.38
268.898	0.34
269.271	0.39
269.643	0.35
270.016	0.36
270.388	0.35
270.76	0.28
271.133	0.4
271.505	0.35
271.877	0.41
272.25	0.35
272.622	0.44
272.994	0.34
273.366	0.34
273.739	0.38
274.111	0.29
274.483	0.32
274.855	0.32
275.227	0.44
275.599	0.3
275.971	0.43
276.343	0.35
276.715	0.23
277.087	0.35
277.459	0.41
277.831	0.3
278.203	0.32
278.574	0.39
278.946	0.32
279.318	0.27
279.69	0.32
280.061	0.32
280.433	0.38
280.805	0.3
281.176	0.41
281.548	0.34
281.92	0.39
282.291	0.37
282.663	0.42
283.034	0.4
283.406	0.32
283.777	0.33
284.148	0.31
284.52	0.4
284.891	0.43
285.262	0.34
285.634	0.31
286.005	0.34
286.376	0.26
286.747	0.35
287.119	0.34
287.49	0.28
287.861	0.39
288.232	0.29
288.603	0.36
288.974	0.39
289.345	0.32
289.716	0.35
290.087	0.34
290.458	0.33
290.829	0.47
291.2	0.42
291.571	0.31
291.941	0.23
292.312	0.43
292.683	0.44
293.054	0.47
293.424	0.18
293.795	0.42
294.166	0.42
294.536	0.37
294.907	0.3
295.277	0.36
295.648	0.35
296.018	0.36
296.389	0.34
296.759	0.33
297.13	0.36
297.5	0.28
297.871	0.4
298.241	0.32
298.611	0.38
298.981	0.3
299.352	0.35
299.722	0.34
300.092	0.29
300.462	0.33
300.832	0.33
301.202	0.29
301.573	0.32
301.943	0.3
302.313	0.31
302.683	0.28
303.053	0.31
303.422	0.27
303.792	0.27
304.162	0.3
304.532	0.32
304.902	0.29
305.272	0.29
305.641	0.29
306.011	0.28
306.381	0.29
306.75	0.32
307.12	0.3
307.49	0.31
307.859	0.3
308.229	0.31
308.598	0.33
308.968	0.32
309.337	0.32
309.707	0.33
310.076	0.33
310.445	0.34
310.815	0.34
311.184	0.34
311.553	0.35
311.923	0.35
312.292	0.36
312.661	0.35
313.03	0.36
313.399	0.35
313.768	0.35
314.137	0.34
314.506	0.35
314.875	0.36
315.244	0.34
315.613	0.35
315.982	0.35
316.351	0.34
316.72	0.34
317.089	0.34
317.458	0.34
317.826	0.34
318.195	0.33
318.564	0.33
318.933	0.33
319.301	0.32
319.67	0.32
320.038	0.32
320.407	0.32
320.775	0.32
321.144	0.32
321.512	0.31
321.881	0.31
322.249	0.31
322.618	0.31
322.986	0.31
323.354	0.3
323.723	0.31
324.091	0.3
324.459	0.3
324.827	0.3
325.195	0.29
325.564	0.29
325.932	0.29
326.3	0.29
326.668	0.3
327.036	0.29
327.404	0.3
327.772	0.29
328.14	0.3
328.508	0.29
328.875	0.29
329.243	0.29
329.611	0.31
329.979	0.3
330.346	0.3
330.714	0.3
331.082	0.3
331.449	0.31
331.817	0.31
332.185	0.31
332.552	0.31
332.92	0.32
333.287	0.33
333.655	0.32
334.022	0.33
334.389	0.33
334.757	0.34
335.124	0.34
335.491	0.34
335.859	0.34
336.226	0.35
336.593	0.35
336.96	0.36
337.327	0.36
337.695	0.37
338.062	0.37
338.429	0.38
338.796	0.37
339.163	0.39
339.53	0.4
339.897	0.39
340.263	0.4
340.63	0.41
340.997	0.42
341.364	0.42
341.731	0.43
342.097	0.43
342.464	0.44
342.831	0.45
343.197	0.46
343.564	0.47
343.931	0.47
344.297	0.48
344.664	0.49
345.03	0.5
345.396	0.5
345.763	0.51
346.129	0.52
346.496	0.53
346.862	0.53
347.228	0.54
347.594	0.54
347.961	0.55
348.327	0.56
348.693	0.56
349.059	0.57
349.425	0.59
349.791	0.6
350.157	0.61
350.523	0.61
350.889	0.63
351.255	0.64
351.621	0.65
351.987	0.66
352.353	0.68
352.719	0.69
353.084	0.7
353.45	0.71
353.816	0.73
354.181	0.74
354.547	0.76
354.913	0.77
355.278	0.78
355.644	0.79
356.009	0.81
356.375	0.82
356.74	0.84
357.106	0.86
357.471	0.88
357.836	0.91
358.202	0.91
358.567	0.94
358.932	0.94
359.297	0.95
359.663	0.97
360.028	1
360.393	0.99
360.758	1
361.123	1.02
361.488	1.03
361.853	1.05
362.218	1.05
362.583	1.06
362.948	1.07
363.312	1.09
363.677	1.12
364.042	1.12
364.407	1.12
364.772	1.15
365.136	1.17
365.501	1.2
365.865	1.21
366.23	1.25
366.595	1.24
366.959	1.28
367.324	1.29
367.688	1.31
368.052	1.34
368.417	1.35
368.781	1.37
369.145	1.38
369.51	1.4
369.874	1.38
370.238	1.39
370.602	1.41
370.967	1.38
371.331	1.38
371.695	1.37
372.059	1.39
372.423	1.36
372.787	1.36
373.151	1.34
373.515	1.35
373.878	1.34
374.242	1.34
374.606	1.32
374.97	1.35
375.334	1.34
375.697	1.35
376.061	1.37
376.425	1.36
376.788	1.37
377.152	1.37
377.515	1.37
377.879	1.39
378.242	1.4
378.606	1.42
378.969	1.41
379.333	1.43
379.696	1.45
380.059	1.48
380.422	1.5
380.786	1.52
381.149	1.55
381.512	1.56
381.875	1.58
382.238	1.6
382.601	1.66
382.964	1.67
383.327	1.7
383.69	1.74
384.053	1.76
384.416	1.82
384.779	1.83
385.142	1.88
385.504	1.87
385.867	1.9
386.23	1.9
386.593	1.94
386.955	1.94
387.318	1.93
387.68	1.91
388.043	1.93
388.405	1.92
388.768	1.94
389.13	1.87
389.493	1.93
389.855	1.88
390.217	1.86
390.58	1.87
390.942	1.87
391.304	1.9
391.666	1.89
392.028	1.9
392.391	1.92
392.753	1.95
393.115	1.97
393.477	2.02
393.839	2.05
394.201	2.08
394.563	2.1
394.924	2.19
395.286	2.15
395.648	2.19
396.01	2.23
396.371	2.24
396.733	2.17
397.095	2.21
397.456	2.18
397.818	2.11
398.18	2.19
398.541	2.17
398.903	2.11
399.264	2.16
399.625	2.13
399.987	2.17
400.348	2.12
400.709	2.04
401.071	2.02
401.432	1.94
401.793	1.87
402.154	1.83
402.515	1.73
402.876	1.61
403.238	1.51
403.599	1.42
403.96	1.34
404.32	1.23
404.681	1.17
405.042	1.1
405.403	1.02
405.764	0.95
406.125	0.88
406.485	0.83
406.846	0.79
407.207	0.73
407.567	0.68
407.928	0.64
408.288	0.61
408.649	0.58
409.009	0.55
409.37	0.52
409.73	0.49
410.091	0.47
410.451	0.45
410.811	0.42
411.171	0.41
411.532	0.4
411.892	0.37
412.252	0.36
412.612	0.35
412.972	0.34
413.332	0.32
413.692	0.31
414.052	0.3
414.412	0.29
414.772	0.29
415.132	0.27
415.492	0.27
415.851	0.26
416.211	0.24
416.571	0.25
416.931	0.24
417.29	0.23
417.65	0.22
418.009	0.22
418.369	0.22
418.728	0.22
419.088	0.21
419.447	0.21
419.807	0.2
420.166	0.2
420.525	0.19
420.884	0.19
421.244	0.19
421.603	0.18
421.962	0.18
422.321	0.18
422.68	0.17
423.039	0.18
423.398	0.17
423.757	0.17
424.116	0.17
424.475	0.16
424.834	0.16
425.193	0.15
425.551	0.15
425.91	0.16
426.269	0.15
426.628	0.15
426.986	0.14
427.345	0.15
427.703	0.14
428.062	0.14
428.42	0.14
428.779	0.15
429.137	0.14
429.496	0.14
429.854	0.13
430.212	0.14
430.57	0.14
430.929	0.13
431.287	0.14
431.645	0.13
432.003	0.13
432.361	0.13
432.719	0.13
433.077	0.13
433.435	0.13
433.793	0.13
434.151	0.12
434.509	0.12
434.866	0.12
435.224	0.12
435.582	0.12
435.94	0.12
436.297	0.12
436.655	0.12
437.012	0.13
437.37	0.12
437.727	0.12
438.085	0.12
438.442	0.11
438.8	0.11
439.157	0.1
439.514	0.11
439.872	0.11
440.229	0.11
440.586	0.1
440.943	0.1
441.3	0.11
441.657	0.1
442.014	0.1
442.371	0.1
442.728	0.1
443.085	0.11
443.442	0.1
443.799	0.1
444.156	0.09
444.513	0.1
444.869	0.1
445.226	0.1
445.583	0.1
445.939	0.1
446.296	0.09
446.652	0.09
447.009	0.09
447.365	0.08
447.722	0.09
448.078	0.09
448.434	0.09
448.791	0.09
449.147	0.08
449.503	0.07
449.859	0.08
450.215	0.09
450.571	0.08
450.928	0.08
451.284	0.08
451.64	0.08
451.995	0.08
452.351	0.08
452.707	0.08
453.063	0.07
453.419	0.08
453.775	0.07
454.13	0.08
454.486	0.08
454.842	0.06
455.197	0.06
455.553	0.06
455.908	0.07
456.264	0.06
456.619	0.06
456.975	0.06
457.33	0.06
457.685	0.06
458.04	0.06
458.396	0.06
458.751	0.05
459.106	0.05
459.461	0.05
459.816	0.05
460.171	0.04
460.526	0.04
460.881	0.04
461.236	0.03
461.591	0.04
461.946	0.02
462.301	0.03
462.655	0.03
463.01	0.04
463.365	0.02
463.719	0.02
464.074	0.02
464.428	0.01
464.783	0.01
465.137	0.01
465.492	0.01
465.846	0.01
466.201	0.01
466.555	0.01
466.909	0.01
467.263	0.03
467.618	0.02
467.972	0.03
468.326	0.01
468.68	0.01
469.034	0.01
469.388	0.01
469.742	0.02
470.096	0.01
470.45	0.02
470.804	0.02
471.157	0.02
471.511	0.02
471.865	0.01
472.218	0.02
472.572	0.02
472.926	0.03
473.279	0.03
473.633	0.03
473.986	0.04
474.34	0.04
474.693	0.04
475.046	0.05
475.4	0.06
475.753	0.06
476.106	0.06
476.459	0.07
476.812	0.08
477.165	0.08
477.519	0.08
477.872	0.09
478.224	0.09
478.577	0.09
478.93	0.1
479.283	0.09
479.636	0.1
479.989	0.1
480.341	0.11
480.694	0.11
481.047	0.11
481.399	0.12
481.752	0.12
482.104	0.13
482.457	0.13
482.809	0.13
483.162	0.13
483.514	0.13
483.866	0.13
484.219	0.13
484.571	0.14
484.923	0.14
485.275	0.15
485.627	0.15
485.979	0.15
486.331	0.16
486.683	0.16
487.035	0.16
487.387	0.16
487.739	0.16
488.091	0.17
488.443	0.16
488.794	0.17
489.146	0.17
489.498	0.17
489.849	0.17
490.201	0.17
490.552	0.18
490.904	0.19
491.255	0.18
491.607	0.18
491.958	0.19
492.309	0.19
492.661	0.19
493.012	0.19
493.363	0.2
493.714	0.2
494.065	0.2
494.416	0.2
494.767	0.21
495.118	0.21
495.469	0.21
495.82	0.22
496.171	0.22
496.522	0.22
496.872	0.22
497.223	0.22
497.574	0.23
497.924	0.24
498.275	0.24
498.626	0.24
498.976	0.24
499.327	0.24
499.677	0.24
500.027	0.25
500.378	0.24
500.728	0.26
501.078	0.25
501.428	0.26
501.779	0.26
502.129	0.26
502.479	0.27
502.829	0.26
503.179	0.27
503.529	0.28
503.879	0.27
504.229	0.28
504.578	0.28
504.928	0.28
505.278	0.29
505.628	0.29
505.977	0.3
506.327	0.3
506.676	0.3
507.026	0.31
507.375	0.31
507.725	0.31
508.074	0.31
508.424	0.31
508.773	0.32
509.122	0.32
509.471	0.32
509.82	0.32
510.17	0.33
510.519	0.33
510.868	0.33
511.217	0.33
511.566	0.34
511.915	0.34
512.263	0.34
512.612	0.35
512.961	0.35
513.31	0.35
513.659	0.36
514.007	0.35
514.356	0.36
514.704	0.37
515.053	0.37
515.401	0.37
515.75	0.38
516.098	0.38
516.447	0.38
516.795	0.38
517.143	0.38
517.491	0.38
517.839	0.39
518.188	0.39
518.536	0.39
518.884	0.39
519.232	0.4
519.58	0.41
519.928	0.41
520.275	0.41
520.623	0.42
520.971	0.42
521.319	0.42
521.666	0.42
522.014	0.42
522.362	0.42
522.709	0.43
523.057	0.43
523.404	0.43
523.752	0.44
524.099	0.44
524.446	0.45
524.794	0.45
525.141	0.45
525.488	0.46
525.835	0.46
526.182	0.46
526.529	0.47
526.876	0.46
527.223	0.48
527.57	0.47
527.917	0.48
528.264	0.48
528.611	0.47
528.958	0.48
529.304	0.48
529.651	0.49
529.998	0.49
530.344	0.5
530.691	0.51
531.037	0.5
531.384	0.51
531.73	0.51
532.076	0.51
532.423	0.51
532.769	0.52
533.115	0.52
533.461	0.53
533.807	0.53
534.154	0.53
534.5	0.54
534.846	0.54
535.192	0.54
535.537	0.55
535.883	0.55
536.229	0.56
536.575	0.56
536.921	0.57
537.266	0.57
537.612	0.57
537.957	0.57
538.303	0.57
538.649	0.57
538.994	0.58
539.339	0.59
539.685	0.59
540.03	0.6
540.375	0.6
540.721	0.6
541.066	0.61
541.411	0.61
541.756	0.61
542.101	0.62
542.446	0.62
542.791	0.63
543.136	0.64
543.481	0.64
543.825	0.64
544.17	0.64
544.515	0.65
544.86	0.66
545.204	0.66
545.549	0.67
545.893	0.67
546.238	0.67
546.582	0.67
546.927	0.68
547.271	0.68
547.615	0.68
547.96	0.69
548.304	0.69
548.648	0.7
548.992	0.7
549.336	0.71
549.68	0.71
550.024	0.71
550.368	0.71
550.712	0.72
551.056	0.72
551.4	0.72
551.743	0.73
552.087	0.73
552.431	0.73
552.774	0.74
553.118	0.74
553.462	0.75
553.805	0.75
554.148	0.76
554.492	0.75
554.835	0.76
555.178	0.76
555.522	0.76
555.865	0.77
556.208	0.76
556.551	0.77
556.894	0.77
557.237	0.78
557.58	0.78
557.923	0.78
558.266	0.78
558.609	0.78
558.952	0.78
559.294	0.8
559.637	0.79
559.98	0.79
560.322	0.8
560.665	0.79
561.007	0.8
561.35	0.8
561.692	0.8
562.034	0.81
562.377	0.81
562.719	0.81
563.061	0.8
563.403	0.81
563.745	0.81
564.088	0.81
564.43	0.81
564.772	0.82
565.113	0.81
565.455	0.82
565.797	0.82
566.139	0.82
566.481	0.82
566.822	0.82
567.164	0.82
567.506	0.83
567.847	0.83
568.189	0.82
568.53	0.83
568.872	0.83
569.213	0.83
569.554	0.84
569.895	0.83
570.237	0.83
570.578	0.83
570.919	0.83
571.26	0.83
571.601	0.84
571.942	0.84
572.283	0.84
572.624	0.84
572.965	0.84
573.306	0.84
573.646	0.84
573.987	0.84
574.328	0.84
574.668	0.84
575.009	0.84
575.349	0.84
575.69	0.84
576.03	0.84
576.37	0.84
576.711	0.84
577.051	0.84
577.391	0.84
577.731	0.85
578.072	0.85
578.412	0.84
578.752	0.85
579.092	0.85
579.431	0.85
579.771	0.84
580.111	0.83
580.451	0.83
580.791	0.84
581.13	0.85
581.47	0.85
581.81	0.85
582.149	0.86
582.489	0.86
582.828	0.87
583.167	0.86
583.507	0.82
583.846	0.8
584.185	0.82
584.525	0.85
584.864	0.85
585.203	0.87
585.542	0.88
585.881	0.88
586.22	0.89
586.559	0.89
586.898	0.89
587.236	0.89
587.575	0.88
587.914	0.88
588.252	0.89
588.591	0.9
588.93	0.9
589.268	0.9
589.607	0.91
589.945	0.9
590.283	0.91
590.622	0.91
590.96	0.92
591.298	0.92
591.636	0.93
591.974	0.93
592.313	0.94
592.651	0.94
592.989	0.94
593.326	0.94
593.664	0.95
594.002	0.95
594.34	0.96
594.678	0.96
595.015	0.97
595.353	0.96
595.691	0.96
596.028	0.97
596.366	0.98
596.703	0.98
597.04	0.99
597.378	0.99
597.715	0.99
598.052	0.99
598.389	0.99
598.726	1.01
599.064	1
599.401	1.01
599.738	1.01
600.074	1.01
600.411	1.01
600.748	1.01
601.085	1.01
601.422	1.01
601.758	1.01
602.095	1.01
602.432	1.02
602.768	1.02
603.105	1.01
603.441	1.02
603.777	1.02
604.114	1.03
604.45	1.02
604.786	1.02
605.122	1.03
605.459	1.03
605.795	1.02
606.131	1.02
606.467	1.02
606.803	1.02
607.139	1.02
607.474	1.01
607.81	1.01
608.146	1.01
608.482	1.01
608.817	1.01
609.153	1.01
609.488	1
609.824	1
610.159	0.99
610.495	0.99
610.83	0.99
611.165	0.99
611.5	0.99
611.836	0.99
612.171	0.98
612.506	0.98
612.841	0.98
613.176	0.98
613.511	0.97
613.845	0.97
614.18	0.97
614.515	0.97
614.85	0.97
615.184	0.96
615.519	0.96
615.854	0.95
616.188	0.96
616.523	0.95
616.857	0.96
617.191	0.95
617.526	0.94
617.86	0.94
618.194	0.94
618.528	0.94
618.862	0.93
619.196	0.93
619.53	0.93
619.864	0.92
620.198	0.92
620.532	0.92
620.866	0.91
621.2	0.9
621.533	0.91
621.867	0.91
622.201	0.9
622.534	0.89
622.868	0.89
623.201	0.89
623.534	0.89
623.868	0.89
624.201	0.89
624.534	0.88
624.868	0.88
625.201	0.87
625.534	0.88
625.867	0.87
626.2	0.87
626.533	0.86
626.865	0.86
627.198	0.85
627.531	0.85
627.864	0.85
628.196	0.84
628.529	0.84
628.862	0.84
629.194	0.83
629.527	0.82
629.859	0.82
630.191	0.82
630.524	0.81
630.856	0.81
631.188	0.81
631.52	0.8
631.852	0.79
632.184	0.79
632.516	0.79
632.848	0.77
633.18	0.77
633.512	0.76
633.844	0.76
634.175	0.75
634.507	0.75
634.839	0.74
635.17	0.74
635.502	0.74
635.833	0.73
636.165	0.72
636.496	0.72
636.827	0.71
637.159	0.7
637.49	0.71
637.821	0.7
638.152	0.69
638.483	0.68
638.814	0.68
639.145	0.67
639.476	0.66
639.807	0.66
640.137	0.66
640.468	0.65
640.799	0.64
641.129	0.64
641.46	0.64
641.791	0.63
642.121	0.63
642.451	0.62
642.782	0.62
643.112	0.61
643.442	0.61
643.773	0.6
644.103	0.6
644.433	0.59
644.763	0.59
645.093	0.59
645.423	0.59
645.753	0.58
646.082	0.58
646.412	0.58
646.742	0.58
647.072	0.57
647.401	0.58
647.731	0.57
648.06	0.57
648.39	0.57
648.719	0.57
649.048	0.56
649.378	0.56
649.707	0.55
650.036	0.55
650.365	0.56
650.694	0.55
651.023	0.55
651.352	0.55
651.681	0.55
652.01	0.55
652.339	0.55
652.668	0.54
652.996	0.54
653.325	0.54
653.654	0.54
653.982	0.54
654.311	0.54
654.639	0.54
654.967	0.54
655.296	0.54
655.624	0.54
655.952	0.54
656.28	0.53
656.609	0.54
656.937	0.54
657.265	0.55
657.593	0.52
657.92	0.38
658.248	0.31
658.576	0.29
658.904	0.38
659.231	0.47
659.559	0.52
659.887	0.52
660.214	0.53
660.542	0.53
660.869	0.53
661.196	0.52
661.524	0.53
661.851	0.53
662.178	0.53
662.505	0.52
662.832	0.52
663.159	0.52
663.486	0.52
663.813	0.52
664.14	0.52
664.467	0.51
664.794	0.51
665.12	0.51
665.447	0.51
665.774	0.51
666.1	0.51
666.427	0.51
666.753	0.51
667.079	0.51
667.406	0.51
667.732	0.51
668.058	0.51
668.384	0.51
668.71	0.5
669.036	0.5
669.362	0.5
669.688	0.5
670.014	0.5
670.34	0.5
670.666	0.49
670.991	0.49
671.317	0.49
671.643	0.48
671.968	0.48
672.294	0.48
672.619	0.47
672.945	0.47
673.27	0.47
673.595	0.47
673.92	0.47
674.246	0.46
674.571	0.47
674.896	0.46
675.221	0.46
675.546	0.46
675.87	0.45
676.195	0.45
676.52	0.44
676.845	0.44
677.169	0.44
677.494	0.44
677.819	0.43
678.143	0.43
678.468	0.43
678.792	0.42
679.116	0.43
679.44	0.42
679.765	0.41
680.089	0.41
680.413	0.4
680.737	0.4
681.061	0.4
681.385	0.4
681.709	0.39
682.033	0.38
682.356	0.38
682.68	0.37
683.004	0.37
683.327	0.37
683.651	0.36
683.974	0.36
684.298	0.36
684.621	0.35
684.944	0.35
685.268	0.34
685.591	0.34
685.914	0.34
686.237	0.34
686.56	0.34
686.883	0.33
687.206	0.33
687.529	0.32
687.852	0.31
688.175	0.31
688.497	0.31
688.82	0.31
689.142	0.3
689.465	0.3
689.787	0.3
690.11	0.29
690.432	0.29
690.755	0.29
691.077	0.29
691.399	0.28
691.721	0.28
692.043	0.28
692.365	0.27
692.687	0.27
693.009	0.27
693.331	0.26
693.653	0.26
693.974	0.26
694.296	0.25
694.618	0.25
694.939	0.25
695.261	0.25
695.582	0.24
695.904	0.24
696.225	0.24
696.546	0.24
696.868	0.23
697.189	0.23
697.51	0.23
697.831	0.23
698.152	0.23
698.473	0.23
698.794	0.22
699.114	0.22
699.435	0.21
699.756	0.21
700.077	0.21
700.397	0.21
700.718	0.21
701.038	0.21
701.359	0.21
701.679	0.2
701.999	0.21
702.32	0.2
702.64	0.2
702.96	0.2
703.28	0.2
703.6	0.2
703.92	0.2
704.24	0.19
704.56	0.19
704.879	0.19
705.199	0.19
705.519	0.19
705.838	0.18
706.158	0.19
706.478	0.19
706.797	0.18
707.116	0.18
707.436	0.18
707.755	0.18
708.074	0.18
708.393	0.18
708.712	0.18
709.031	0.18
709.35	0.18
709.669	0.17
709.988	0.17
710.307	0.17
710.626	0.17
710.944	0.17
711.263	0.17
711.582	0.17
711.9	0.17
712.219	0.17
712.537	0.17
712.855	0.17
713.174	0.17
713.492	0.17
713.81	0.17
714.128	0.17
714.446	0.17
714.764	0.17
715.082	0.16
715.4	0.17
715.718	0.17
716.035	0.17
716.353	0.17
716.671	0.17
716.988	0.17
717.306	0.17
717.623	0.17
717.941	0.17
718.258	0.18
718.575	0.18
718.893	0.18
719.21	0.18
719.527	0.17
719.844	0.18
720.161	0.17
720.478	0.18
720.795	0.18
721.112	0.18
721.428	0.18
721.745	0.18
722.062	0.18
722.378	0.18
722.695	0.18
723.011	0.18
723.328	0.18
723.644	0.18
723.96	0.18
724.276	0.18
724.593	0.18
724.909	0.19
725.225	0.19
725.541	0.19
725.857	0.19
726.173	0.19
726.488	0.19
726.804	0.19
727.12	0.19
727.435	0.19
727.751	0.19
728.067	0.19
728.382	0.19
728.697	0.19
729.013	0.19
729.328	0.19
729.643	0.2
729.958	0.2
730.273	0.19
730.588	0.19
730.903	0.19
731.218	0.2
731.533	0.2
731.848	0.2
732.163	0.2
732.477	0.2
732.792	0.19
733.107	0.19
733.421	0.19
733.736	0.19
734.05	0.2
734.364	0.19
734.678	0.2
734.993	0.19
735.307	0.19
735.621	0.19
735.935	0.19
736.249	0.19
736.563	0.19
736.877	0.19
737.19	0.19
737.504	0.19
737.818	0.19
738.131	0.19
738.445	0.19
738.758	0.19
739.072	0.18
739.385	0.18
739.698	0.18
740.012	0.18
740.325	0.18
740.638	0.18
740.951	0.18
741.264	0.18
741.577	0.18
741.89	0.18
742.203	0.18
742.515	0.18
742.828	0.18
743.141	0.18
743.453	0.18
743.766	0.17
744.078	0.17
744.391	0.17
744.703	0.17
745.015	0.17
745.327	0.17
745.639	0.16
745.952	0.16
746.264	0.16
746.575	0.16
746.887	0.16
747.199	0.16
747.511	0.15
747.823	0.15
748.134	0.15
748.446	0.15
748.757	0.15
749.069	0.15
749.38	0.14
749.692	0.14
750.003	0.14
750.314	0.14
750.625	0.14
750.936	0.14
751.248	0.13
751.559	0.13
751.869	0.13
752.18	0.13
752.491	0.13
752.802	0.13
753.112	0.12
753.423	0.12
753.734	0.13
754.044	0.12
754.355	0.12
754.665	0.12
754.975	0.11
755.285	0.11
755.596	0.11
755.906	0.11
756.216	0.11
756.526	0.1
756.836	0.1
757.146	0.11
757.455	0.11
757.765	0.11
758.075	0.1
758.385	0.1
758.694	0.1
759.004	0.1
759.313	0.09
759.622	0.09
759.932	0.09
760.241	0.09
760.55	0.09
760.859	0.09
761.168	0.09
761.477	0.09
761.786	0.09
762.095	0.09
762.404	0.08
762.713	0.08
763.021	0.08
763.33	0.08
763.639	0.08
763.947	0.07
764.256	0.07
764.564	0.07
764.872	0.07
765.181	0.07
765.489	0.07
765.797	0.07
766.105	0.07
766.413	0.07
766.721	0.07
767.029	0.07
767.337	0.07
767.644	0.07
767.952	0.07
768.26	0.07
768.567	0.07
768.875	0.07
769.182	0.07
769.49	0.06
769.797	0.06
770.104	0.06
770.411	0.06
770.718	0.06
771.026	0.06
771.333	0.06
771.639	0.06
771.946	0.06
772.253	0.06
772.56	0.06
772.867	0.06
773.173	0.06
773.48	0.06
773.786	0.06
774.093	0.06
774.399	0.06
774.705	0.05
775.012	0.05
775.318	0.05
775.624	0.05
775.93	0.05
776.236	0.05
776.542	0.05
776.848	0.05
777.154	0.05
777.459	0.06
777.765	0.05
778.071	0.05
778.376	0.05
778.682	0.05
778.987	0.05
779.292	0.05
779.598	0.05
779.903	0.05
780.208	0.05
780.513	0.05
780.818	0.05
781.123	0.05
781.428	0.04
781.733	0.05
782.038	0.05
782.343	0.05
782.647	0.05
782.952	0.05
783.256	0.05
783.561	0.05
783.865	0.05
784.17	0.05
784.474	0.06
784.778	0.05
785.082	0.05
785.386	0.05
785.69	0.05
785.994	0.05
786.298	0.05
786.602	0.05
786.906	0.04
787.209	0.04
787.513	0.05
787.817	0.04
788.12	0.05
788.424	0.05
788.727	0.05
789.03	0.05
789.333	0.05
789.637	0.05
789.94	0.05
790.243	0.05
790.546	0.05
790.849	0.04
791.152	0.05
791.454	0.05
791.757	0.05
792.06	0.05
792.362	0.05
792.665	0.05
792.967	0.05
793.27	0.04
793.572	0.05
793.874	0.04
794.177	0.04
794.479	0.04
794.781	0.05
795.083	0.05
795.385	0.05
795.687	0.05
795.989	0.05
796.29	0.05
796.592	0.05
796.894	0.05
797.195	0.05
797.497	0.04
797.798	0.04
798.1	0.04
798.401	0.05
798.702	0.05
799.003	0.04
799.304	0.04
799.605	0.04
799.906	0.04
800.207	0.04
800.508	0.05
800.809	0.05
801.11	0.04
801.41	0.05
801.711	0.05
802.011	0.05
802.312	0.05
802.612	0.05
802.913	0.05
803.213	0.05
803.513	0.05
803.813	0.05
804.113	0.05
804.413	0.05
804.713	0.06
805.013	0.06
805.313	0.05
805.613	0.05
805.912	0.05
806.212	0.06
806.511	0.05
806.811	0.06
807.11	0.06
807.41	0.06
807.709	0.06
808.008	0.06
808.307	0.05
808.606	0.06
808.905	0.05
809.204	0.05
809.503	0.05
809.802	0.05
810.101	0.05
810.399	0.04
810.698	0.04
810.997	0.05
811.295	0.04
811.593	0.05
811.892	0.04
812.19	0.04
812.488	0.05
812.786	0.05
813.084	0.05
813.383	0.05
813.68	0.04
813.978	0.05
814.276	0.04
814.574	0.05
814.872	0.04
815.169	0.04
815.467	0.05
815.764	0.04
816.062	0.04
816.359	0.05
816.656	0.05
816.954	0.04
817.251	0.04
817.548	0.04
817.845	0.04
818.142	0.05
818.439	0.05
818.735	0.05
819.032	0.05
819.329	0.05
819.626	0.05
819.922	0.04
820.219	0.05
820.515	0.05
820.811	0.04
821.108	0.05
821.404	0.04
821.7	0.04
821.996	0.04
822.292	0.04
822.588	0.05
822.884	0.04
823.18	0.04
823.475	0.04
823.771	0.05
824.067	0.04
824.362	0.05
824.658	0.05
824.953	0.05
825.249	0.05
825.544	0.06
825.839	0.05
826.134	0.06
826.429	0.06
826.724	0.06
827.019	0.05
827.314	0.05
827.609	0.05
827.904	0.05
828.198	0.05
828.493	0.05
828.787	0.05
829.082	0.05
829.376	0.05
829.671	0.05
829.965	0.05
830.259	0.05
830.553	0.05
830.847	0.05
831.141	0.05
831.435	0.05
831.729	0.05
832.023	0.05
832.317	0.05
832.61	0.06
832.904	0.05
833.197	0.04
833.491	0.06
833.784	0.05
834.077	0.05
834.371	0.06
834.664	0.05
834.957	0.05
835.25	0.04
835.543	0.05
835.836	0.05
836.129	0.05
836.421	0.05
836.714	0.06
837.007	0.05
837.299	0.05
837.592	0.07
837.884	0.05
838.177	0.07
838.469	0.05
838.761	0.06
839.053	0.06
839.345	0.06
839.637	0.06
839.929	0.05
840.221	0.06
840.513	0.05
840.805	0.05
841.096	0.06
841.388	0.04
841.68	0.05
841.971	0.06
842.262	0.05
842.554	0.05
842.845	0.05
843.136	0.05
843.427	0.05
843.718	0.06
844.009	0.05
844.3	0.05
844.591	0.05
844.882	0.04
845.173	0.05
845.463	0.05
845.754	0.06
846.044	0.05
846.335	0.05
846.625	0.06
846.915	0.06
847.206	0.06
847.496	0.07
847.786	0.05
848.076	0.06
848.366	0.06
848.656	0.07
848.945	0.05
849.235	0.07
849.525	0.06
849.814	0.06
850.104	0.06
850.393	0.06
850.683	0.06
850.972	0.06
851.261	0.06
851.551	0.05
851.84	0.05
852.129	0.05
852.418	0.05
852.707	0.05
852.995	0.05
853.284	0.05
853.573	0.05
853.862	0.05
854.15	0.05
854.439	0.04
854.727	0.05
855.015	0.06
855.304	0.05
855.592	0.05
855.88	0.06
856.168	0.04
856.456	0.05
856.744	0.05
857.032	0.06
857.32	0.05
857.607	0.07
857.895	0.06
858.183	0.07
858.47	0.06
858.757	0.04
859.045	0.05
859.332	0.06
859.619	0.06
859.907	0.05
860.194	0.07
860.481	0.05
860.768	0.06
861.054	0.05
861.341	0.06
861.628	0.07
861.915	0.05
862.201	0.06
862.488	0.05
862.774	0.04
863.061	0.04
863.347	0.04
863.633	0.07
863.919	0.05
864.205	0.06
864.491	0.07
864.777	0.04
865.063	0.05
865.349	0.06
865.635	0.05
865.92	0.05
866.206	0.06
866.492	0.1
866.777	0.06
867.062	0.05
867.348	0.02
867.633	0.05
867.918	0.04
868.203	0.08
868.488	0.05
868.773	0.08
869.058	0.07
869.343	0.05
869.628	0.07
869.912	0.05
870.197	0.04
870.482	0.06
870.766	0.08
871.05	0.06
871.335	0.09
871.619	0.08
871.903	0.06
872.187	0.07
872.471	0.05
872.755	0.02
873.039	0.05
873.323	0.09
873.607	0.06
873.89	0.07
874.174	0.13
874.458	0.05
874.741	0.07
875.024	0.11
875.308	0.01
875.591	0.08
875.874	-0
876.157	0.08
876.44	0.07
876.723	0.09
877.006	0.08
877.289	0.13
877.572	0.04
877.854	0.08
878.137	0.09
878.42	0.02
878.702	0.06
878.984	-0.01
879.267	0.11
879.549	0.11
879.831	0.15
880.113	0.09
880.395	0.15
880.677	0.17
880.959	0.11
