Data from Rubpy_EV_1500_EDTA_Buffered_Absorbance_15-06-31-048.txt Node
Date: Tue Jun 30 15:06:31 BST 2026
User: fpm-admin
Spectrometer: OFX00224
Trigger mode: 0
Integration Time (sec): 7.000000E-2
Scans to average: 3
Nonlinearity correction enabled: false
Boxcar width: 0
Storing dark spectrum: false
XAxis mode: Wavelengths
Number of Pixels in Spectrum: 2136
>>>>>Begin Spectral Data<<<<<
154.91	0.91
155.289	-0.11
155.669	0.06
156.048	-0.45
156.428	0.1
156.807	0.05
157.186	0.3
157.566	0.11
157.945	-0.15
158.325	-0
158.704	-1.45
159.083	0.1
159.462	-0
159.842	-0
160.221	-0
160.6	-0
160.979	0.51
161.359	-0
161.738	-0
162.117	-0
162.496	-0
162.875	-0
163.254	0.38
163.633	-0
164.012	0.5
164.391	0.07
164.77	0.45
165.149	0.42
165.528	0.74
165.907	0.18
166.286	-0.49
166.665	-0
167.044	0.07
167.423	0.13
167.802	-0
168.181	0.17
168.559	-0.4
168.938	-0.08
169.317	-0
169.696	0.72
170.074	0.92
170.453	-0
170.832	-0
171.21	-0
171.589	-0
171.968	-0
172.346	-0.66
172.725	-1.43
173.103	-0.25
173.482	-0
173.861	-0.57
174.239	0.2
174.617	0.58
174.996	-0.3
175.374	0.26
175.753	0.34
176.131	-0.1
176.51	-0.22
176.888	0.07
177.266	-0
177.645	0.02
178.023	0.1
178.401	-0.29
178.779	0.22
179.158	-0
179.536	-0
179.914	-0.34
180.292	0.38
180.67	0.05
181.048	-0.14
181.427	-0
181.805	-0.7
182.183	-0
182.561	0.43
182.939	-0
183.317	-0.35
183.695	1.13
184.073	-0
184.451	0.35
184.829	-0.18
185.206	-0.07
185.584	-0.08
185.962	0.35
186.34	0.15
186.718	0.03
187.096	-0.48
187.473	0.35
187.851	0.35
188.229	-0.12
188.607	0.26
188.984	0.22
189.362	0.34
189.74	0.28
190.117	0.27
190.495	0.23
190.872	0.1
191.25	0.34
191.627	0.18
192.005	0.15
192.382	0.14
192.76	0.28
193.137	0.24
193.515	0.3
193.892	0.15
194.269	0.09
194.647	0.15
195.024	0.15
195.401	0.23
195.779	0.26
196.156	0.25
196.533	0.27
196.91	0.17
197.288	0.12
197.665	0.23
198.042	0.22
198.419	0.1
198.796	0.15
199.173	0.17
199.55	0.17
199.927	0.4
200.304	0.23
200.681	0.22
201.058	0.23
201.435	0.24
201.812	0.25
202.189	0.22
202.566	0.23
202.943	0.17
203.32	0.16
203.697	0.35
204.073	0.23
204.45	0.16
204.827	0.22
205.204	0.26
205.58	0.31
205.957	0.15
206.334	0.36
206.71	0.21
207.087	0.29
207.464	0.19
207.84	0.21
208.217	0.29
208.593	0.34
208.97	0.22
209.346	0.27
209.723	0.3
210.099	0.23
210.476	0.3
210.852	0.34
211.228	0.16
211.605	0.2
211.981	0.24
212.357	0.25
212.733	0.26
213.11	0.22
213.486	0.2
213.862	0.19
214.238	0.14
214.614	0.29
214.991	0.27
215.367	0.39
215.743	0.28
216.119	0.26
216.495	0.16
216.871	0.25
217.247	0.07
217.623	0.2
217.999	0.2
218.375	0.21
218.751	0.15
219.127	0.3
219.502	0.28
219.878	0.14
220.254	0.16
220.63	0.31
221.006	0.26
221.381	0.16
221.757	0.18
222.133	0.22
222.508	0.27
222.884	0.24
223.26	0.23
223.635	0.23
224.011	0.27
224.386	0.34
224.762	0.29
225.137	0.19
225.513	0.32
225.888	0.17
226.264	0.3
226.639	0.24
227.014	0.26
227.39	0.32
227.765	0.37
228.14	0.17
228.516	0.24
228.891	0.27
229.266	0.33
229.641	0.22
230.017	0.24
230.392	0.2
230.767	0.35
231.142	0.26
231.517	0.25
231.892	0.23
232.267	0.18
232.642	0.24
233.017	0.28
233.392	0.28
233.767	0.23
234.142	0.26
234.517	0.21
234.892	0.15
235.267	0.3
235.641	0.2
236.016	0.14
236.391	0.16
236.766	0.19
237.14	0.18
237.515	0.27
237.89	0.35
238.264	0.12
238.639	0.33
239.014	0.24
239.388	0.23
239.763	0.3
240.137	0.28
240.512	0.27
240.886	0.23
241.261	0.27
241.635	0.29
242.009	0.22
242.384	0.33
242.758	0.27
243.132	0.18
243.507	0.21
243.881	0.25
244.255	0.21
244.629	0.29
245.004	0.29
245.378	0.28
245.752	0.19
246.126	0.16
246.5	0.38
246.874	0.21
247.248	0.24
247.622	0.33
247.996	0.33
248.37	0.23
248.744	0.19
249.118	0.19
249.492	0.21
249.866	0.28
250.24	0.28
250.613	0.21
250.987	0.21
251.361	0.24
251.735	0.24
252.108	0.28
252.482	0.11
252.856	0.18
253.229	0.26
253.603	0.26
253.977	0.33
254.35	0.36
254.724	0.17
255.097	0.17
255.471	0.36
255.844	0.31
256.218	0.23
256.591	0.06
256.964	0.33
257.338	0.23
257.711	0.26
258.084	0.24
258.458	0.35
258.831	0.27
259.204	0.18
259.577	0.28
259.95	0.27
260.323	0.19
260.697	0.26
261.07	0.27
261.443	0.19
261.816	0.24
262.189	0.27
262.562	0.35
262.935	0.3
263.308	0.27
263.68	0.17
264.053	0.35
264.426	0.24
264.799	0.25
265.172	0.18
265.545	0.38
265.917	0.27
266.29	0.27
266.663	0.26
267.035	0.31
267.408	0.24
267.781	0.28
268.153	0.29
268.526	0.3
268.898	0.27
269.271	0.26
269.643	0.25
270.016	0.21
270.388	0.25
270.76	0.22
271.133	0.25
271.505	0.27
271.877	0.3
272.25	0.25
272.622	0.25
272.994	0.22
273.366	0.26
273.739	0.32
274.111	0.29
274.483	0.26
274.855	0.32
275.227	0.21
275.599	0.32
275.971	0.41
276.343	0.3
276.715	0.22
277.087	0.27
277.459	0.22
277.831	0.28
278.203	0.28
278.574	0.31
278.946	0.2
279.318	0.24
279.69	0.21
280.061	0.27
280.433	0.26
280.805	0.27
281.176	0.24
281.548	0.22
281.92	0.31
282.291	0.18
282.663	0.33
283.034	0.28
283.406	0.24
283.777	0.27
284.148	0.2
284.52	0.41
284.891	0.32
285.262	0.23
285.634	0.27
286.005	0.27
286.376	0.22
286.747	0.21
287.119	0.25
287.49	0.13
287.861	0.23
288.232	0.24
288.603	0.26
288.974	0.23
289.345	0.24
289.716	0.35
290.087	0.24
290.458	0.26
290.829	0.26
291.2	0.22
291.571	0.28
291.941	0.22
292.312	0.24
292.683	0.26
293.054	0.26
293.424	0.16
293.795	0.23
294.166	0.28
294.536	0.28
294.907	0.25
295.277	0.31
295.648	0.27
296.018	0.28
296.389	0.29
296.759	0.24
297.13	0.29
297.5	0.24
297.871	0.27
298.241	0.26
298.611	0.23
298.981	0.25
299.352	0.24
299.722	0.26
300.092	0.25
300.462	0.24
300.832	0.22
301.202	0.23
301.573	0.22
301.943	0.24
302.313	0.22
302.683	0.23
303.053	0.23
303.422	0.21
303.792	0.22
304.162	0.21
304.532	0.21
304.902	0.2
305.272	0.21
305.641	0.21
306.011	0.23
306.381	0.23
306.75	0.24
307.12	0.21
307.49	0.21
307.859	0.23
308.229	0.23
308.598	0.24
308.968	0.24
309.337	0.24
309.707	0.25
310.076	0.24
310.445	0.26
310.815	0.25
311.184	0.25
311.553	0.26
311.923	0.25
312.292	0.26
312.661	0.26
313.03	0.26
313.399	0.26
313.768	0.26
314.137	0.26
314.506	0.26
314.875	0.26
315.244	0.26
315.613	0.26
315.982	0.26
316.351	0.25
316.72	0.25
317.089	0.25
317.458	0.26
317.826	0.26
318.195	0.25
318.564	0.25
318.933	0.24
319.301	0.24
319.67	0.24
320.038	0.24
320.407	0.23
320.775	0.23
321.144	0.24
321.512	0.23
321.881	0.23
322.249	0.23
322.618	0.23
322.986	0.23
323.354	0.22
323.723	0.22
324.091	0.22
324.459	0.22
324.827	0.21
325.195	0.21
325.564	0.22
325.932	0.21
326.3	0.21
326.668	0.21
327.036	0.21
327.404	0.22
327.772	0.22
328.14	0.22
328.508	0.21
328.875	0.21
329.243	0.21
329.611	0.22
329.979	0.22
330.346	0.22
330.714	0.22
331.082	0.22
331.449	0.22
331.817	0.23
332.185	0.23
332.552	0.23
332.92	0.23
333.287	0.23
333.655	0.24
334.022	0.24
334.389	0.24
334.757	0.24
335.124	0.25
335.491	0.25
335.859	0.25
336.226	0.25
336.593	0.26
336.96	0.26
337.327	0.26
337.695	0.27
338.062	0.27
338.429	0.27
338.796	0.27
339.163	0.28
339.53	0.28
339.897	0.29
340.263	0.29
340.63	0.3
340.997	0.3
341.364	0.31
341.731	0.31
342.097	0.32
342.464	0.32
342.831	0.33
343.197	0.33
343.564	0.34
343.931	0.34
344.297	0.35
344.664	0.36
345.03	0.36
345.396	0.37
345.763	0.37
346.129	0.37
346.496	0.38
346.862	0.38
347.228	0.39
347.594	0.4
347.961	0.4
348.327	0.41
348.693	0.41
349.059	0.42
349.425	0.43
349.791	0.44
350.157	0.44
350.523	0.44
350.889	0.46
351.255	0.47
351.621	0.47
351.987	0.48
352.353	0.49
352.719	0.5
353.084	0.52
353.45	0.52
353.816	0.53
354.181	0.54
354.547	0.55
354.913	0.57
355.278	0.57
355.644	0.59
356.009	0.6
356.375	0.61
356.74	0.62
357.106	0.64
357.471	0.65
357.836	0.67
358.202	0.68
358.567	0.68
358.932	0.69
359.297	0.71
359.663	0.71
360.028	0.73
360.393	0.74
360.758	0.76
361.123	0.76
361.488	0.76
361.853	0.78
362.218	0.79
362.583	0.79
362.948	0.81
363.312	0.82
363.677	0.82
364.042	0.84
364.407	0.84
364.772	0.86
365.136	0.86
365.501	0.89
365.865	0.9
366.23	0.92
366.595	0.95
366.959	0.96
367.324	0.97
367.688	1
368.052	1.02
368.417	1.02
368.781	1.03
369.145	1.04
369.51	1.05
369.874	1.06
370.238	1.06
370.602	1.06
370.967	1.04
371.331	1.05
371.695	1.04
372.059	1.05
372.423	1.04
372.787	1.03
373.151	1.03
373.515	1.02
373.878	1.02
374.242	1.01
374.606	1.01
374.97	1.02
375.334	1.03
375.697	1.05
376.061	1.03
376.425	1.04
376.788	1.04
377.152	1.04
377.515	1.05
377.879	1.06
378.242	1.09
378.606	1.09
378.969	1.11
379.333	1.11
379.696	1.12
380.059	1.13
380.422	1.15
380.786	1.18
381.149	1.2
381.512	1.22
381.875	1.23
382.238	1.27
382.601	1.29
382.964	1.31
383.327	1.35
383.69	1.37
384.053	1.39
384.416	1.44
384.779	1.47
385.142	1.5
385.504	1.51
385.867	1.54
386.23	1.53
386.593	1.54
386.955	1.56
387.318	1.58
387.68	1.57
388.043	1.54
388.405	1.52
388.768	1.55
389.13	1.53
389.493	1.52
389.855	1.52
390.217	1.53
390.58	1.49
390.942	1.49
391.304	1.5
391.666	1.52
392.028	1.55
392.391	1.57
392.753	1.59
393.115	1.65
393.477	1.69
393.839	1.71
394.201	1.78
394.563	1.83
394.924	1.88
395.286	1.95
395.648	1.96
396.01	1.98
396.371	1.95
396.733	2
397.095	2.06
397.456	1.99
397.818	1.99
398.18	1.97
398.541	2.02
398.903	2
399.264	1.98
399.625	1.9
399.987	1.9
400.348	1.83
400.709	1.79
401.071	1.72
401.432	1.62
401.793	1.56
402.154	1.45
402.515	1.36
402.876	1.28
403.238	1.2
403.599	1.13
403.96	1.06
404.32	0.97
404.681	0.91
405.042	0.85
405.403	0.8
405.764	0.74
406.125	0.68
406.485	0.64
406.846	0.61
407.207	0.57
407.567	0.53
407.928	0.5
408.288	0.47
408.649	0.45
409.009	0.42
409.37	0.4
409.73	0.38
410.091	0.36
410.451	0.34
410.811	0.33
411.171	0.32
411.532	0.31
411.892	0.29
412.252	0.28
412.612	0.27
412.972	0.26
413.332	0.25
413.692	0.24
414.052	0.24
414.412	0.22
414.772	0.22
415.132	0.21
415.492	0.2
415.851	0.2
416.211	0.19
416.571	0.19
416.931	0.18
417.29	0.17
417.65	0.18
418.009	0.16
418.369	0.17
418.728	0.16
419.088	0.16
419.447	0.15
419.807	0.15
420.166	0.15
420.525	0.15
420.884	0.14
421.244	0.14
421.603	0.14
421.962	0.13
422.321	0.13
422.68	0.13
423.039	0.13
423.398	0.13
423.757	0.13
424.116	0.13
424.475	0.12
424.834	0.12
425.193	0.12
425.551	0.11
425.91	0.12
426.269	0.12
426.628	0.11
426.986	0.11
427.345	0.11
427.703	0.11
428.062	0.11
428.42	0.11
428.779	0.11
429.137	0.11
429.496	0.1
429.854	0.1
430.212	0.1
430.57	0.09
430.929	0.1
431.287	0.1
431.645	0.1
432.003	0.1
432.361	0.1
432.719	0.09
433.077	0.09
433.435	0.09
433.793	0.09
434.151	0.09
434.509	0.09
434.866	0.09
435.224	0.09
435.582	0.09
435.94	0.09
436.297	0.1
436.655	0.09
437.012	0.09
437.37	0.09
437.727	0.08
438.085	0.08
438.442	0.09
438.8	0.08
439.157	0.08
439.514	0.08
439.872	0.07
440.229	0.08
440.586	0.08
440.943	0.08
441.3	0.08
441.657	0.08
442.014	0.08
442.371	0.07
442.728	0.08
443.085	0.07
443.442	0.08
443.799	0.08
444.156	0.07
444.513	0.07
444.869	0.07
445.226	0.07
445.583	0.07
445.939	0.07
446.296	0.07
446.652	0.07
447.009	0.07
447.365	0.05
447.722	0.06
448.078	0.06
448.434	0.06
448.791	0.06
449.147	0.05
449.503	0.06
449.859	0.06
450.215	0.06
450.571	0.06
450.928	0.05
451.284	0.05
451.64	0.05
451.995	0.05
452.351	0.05
452.707	0.05
453.063	0.05
453.419	0.04
453.775	0.05
454.13	0.05
454.486	0.06
454.842	0.04
455.197	0.04
455.553	0.03
455.908	0.04
456.264	0.03
456.619	0.03
456.975	0.04
457.33	0.03
457.685	0.03
458.04	0.02
458.396	0.03
458.751	0.04
459.106	0.02
459.461	0.02
459.816	0.02
460.171	0.01
460.526	0.01
460.881	0.02
461.236	0
461.591	0.02
461.946	-0
462.301	-0
462.655	0
463.01	0.01
463.365	0
463.719	0.01
464.074	-0.01
464.428	-0.01
464.783	-0.01
465.137	-0.02
465.492	-0.02
465.846	-0.01
466.201	-0.02
466.555	-0.01
466.909	-0.01
467.263	-0
467.618	-0
467.972	-0.01
468.326	-0.02
468.68	-0.02
469.034	-0.02
469.388	-0.02
469.742	-0.01
470.096	-0.01
470.45	-0.01
470.804	-0.01
471.157	-0.01
471.511	-0.01
471.865	-0.01
472.218	-0.02
472.572	-0.01
472.926	-0
473.279	0
473.633	0
473.986	0.01
474.34	0.01
474.693	0.02
475.046	0.02
475.4	0.02
475.753	0.02
476.106	0.03
476.459	0.04
476.812	0.04
477.165	0.04
477.519	0.05
477.872	0.05
478.224	0.05
478.577	0.05
478.93	0.06
479.283	0.05
479.636	0.06
479.989	0.06
480.341	0.07
480.694	0.07
481.047	0.07
481.399	0.07
481.752	0.08
482.104	0.08
482.457	0.09
482.809	0.09
483.162	0.09
483.514	0.09
483.866	0.09
484.219	0.09
484.571	0.09
484.923	0.1
485.275	0.1
485.627	0.1
485.979	0.1
486.331	0.1
486.683	0.11
487.035	0.11
487.387	0.12
487.739	0.12
488.091	0.11
488.443	0.11
488.794	0.12
489.146	0.12
489.498	0.12
489.849	0.12
490.201	0.12
490.552	0.13
490.904	0.13
491.255	0.13
491.607	0.13
491.958	0.13
492.309	0.13
492.661	0.14
493.012	0.14
493.363	0.14
493.714	0.14
494.065	0.14
494.416	0.14
494.767	0.15
495.118	0.15
495.469	0.16
495.82	0.15
496.171	0.15
496.522	0.15
496.872	0.16
497.223	0.16
497.574	0.16
497.924	0.17
498.275	0.17
498.626	0.17
498.976	0.17
499.327	0.17
499.677	0.17
500.027	0.18
500.378	0.18
500.728	0.19
501.078	0.18
501.428	0.18
501.779	0.18
502.129	0.2
502.479	0.19
502.829	0.2
503.179	0.2
503.529	0.2
503.879	0.2
504.229	0.2
504.578	0.21
504.928	0.2
505.278	0.21
505.628	0.22
505.977	0.22
506.327	0.21
506.676	0.22
507.026	0.22
507.375	0.22
507.725	0.22
508.074	0.22
508.424	0.23
508.773	0.23
509.122	0.23
509.471	0.24
509.82	0.24
510.17	0.24
510.519	0.24
510.868	0.24
511.217	0.24
511.566	0.25
511.915	0.25
512.263	0.25
512.612	0.25
512.961	0.26
513.31	0.26
513.659	0.26
514.007	0.26
514.356	0.26
514.704	0.27
515.053	0.27
515.401	0.27
515.75	0.28
516.098	0.28
516.447	0.28
516.795	0.28
517.143	0.28
517.491	0.28
517.839	0.29
518.188	0.29
518.536	0.29
518.884	0.29
519.232	0.29
519.58	0.3
519.928	0.3
520.275	0.3
520.623	0.31
520.971	0.31
521.319	0.31
521.666	0.31
522.014	0.31
522.362	0.31
522.709	0.32
523.057	0.32
523.404	0.32
523.752	0.33
524.099	0.32
524.446	0.33
524.794	0.33
525.141	0.34
525.488	0.34
525.835	0.34
526.182	0.34
526.529	0.34
526.876	0.35
527.223	0.35
527.57	0.35
527.917	0.36
528.264	0.35
528.611	0.36
528.958	0.36
529.304	0.36
529.651	0.36
529.998	0.37
530.344	0.37
530.691	0.37
531.037	0.37
531.384	0.38
531.73	0.38
532.076	0.38
532.423	0.38
532.769	0.38
533.115	0.39
533.461	0.39
533.807	0.39
534.154	0.4
534.5	0.4
534.846	0.4
535.192	0.41
535.537	0.41
535.883	0.41
536.229	0.42
536.575	0.42
536.921	0.42
537.266	0.42
537.612	0.43
537.957	0.43
538.303	0.44
538.649	0.43
538.994	0.44
539.339	0.45
539.685	0.45
540.03	0.45
540.375	0.45
540.721	0.45
541.066	0.46
541.411	0.46
541.756	0.46
542.101	0.47
542.446	0.47
542.791	0.47
543.136	0.48
543.481	0.48
543.825	0.48
544.17	0.48
544.515	0.49
544.86	0.5
545.204	0.5
545.549	0.5
545.893	0.5
546.238	0.51
546.582	0.51
546.927	0.51
547.271	0.52
547.615	0.52
547.96	0.52
548.304	0.52
548.648	0.53
548.992	0.53
549.336	0.54
549.68	0.54
550.024	0.54
550.368	0.54
550.712	0.54
551.056	0.55
551.4	0.55
551.743	0.56
552.087	0.55
552.431	0.56
552.774	0.56
553.118	0.56
553.462	0.56
553.805	0.57
554.148	0.57
554.492	0.57
554.835	0.57
555.178	0.58
555.522	0.58
555.865	0.58
556.208	0.58
556.551	0.58
556.894	0.59
557.237	0.59
557.58	0.59
557.923	0.59
558.266	0.58
558.609	0.59
558.952	0.6
559.294	0.6
559.637	0.6
559.98	0.6
560.322	0.6
560.665	0.61
561.007	0.6
561.35	0.61
561.692	0.61
562.034	0.61
562.377	0.62
562.719	0.62
563.061	0.62
563.403	0.62
563.745	0.61
564.088	0.62
564.43	0.62
564.772	0.62
565.113	0.62
565.455	0.62
565.797	0.62
566.139	0.63
566.481	0.63
566.822	0.63
567.164	0.63
567.506	0.63
567.847	0.63
568.189	0.63
568.53	0.63
568.872	0.63
569.213	0.64
569.554	0.64
569.895	0.63
570.237	0.63
570.578	0.64
570.919	0.64
571.26	0.64
571.601	0.64
571.942	0.64
572.283	0.64
572.624	0.64
572.965	0.64
573.306	0.64
573.646	0.63
573.987	0.64
574.328	0.64
574.668	0.64
575.009	0.64
575.349	0.65
575.69	0.64
576.03	0.64
576.37	0.64
576.711	0.64
577.051	0.64
577.391	0.64
577.731	0.65
578.072	0.65
578.412	0.64
578.752	0.65
579.092	0.65
579.431	0.64
579.771	0.64
580.111	0.63
580.451	0.63
580.791	0.64
581.13	0.65
581.47	0.65
581.81	0.65
582.149	0.65
582.489	0.66
582.828	0.66
583.167	0.65
583.507	0.62
583.846	0.6
584.185	0.62
584.525	0.64
584.864	0.65
585.203	0.66
585.542	0.67
585.881	0.67
586.22	0.68
586.559	0.68
586.898	0.67
587.236	0.67
587.575	0.67
587.914	0.67
588.252	0.68
588.591	0.69
588.93	0.69
589.268	0.69
589.607	0.69
589.945	0.7
590.283	0.7
590.622	0.7
590.96	0.7
591.298	0.71
591.636	0.71
591.974	0.71
592.313	0.72
592.651	0.72
592.989	0.73
593.326	0.73
593.664	0.73
594.002	0.73
594.34	0.74
594.678	0.73
595.015	0.74
595.353	0.73
595.691	0.74
596.028	0.74
596.366	0.75
596.703	0.76
597.04	0.76
597.378	0.76
597.715	0.77
598.052	0.77
598.389	0.77
598.726	0.77
599.064	0.78
599.401	0.78
599.738	0.78
600.074	0.78
600.411	0.78
600.748	0.78
601.085	0.78
601.422	0.78
601.758	0.78
602.095	0.78
602.432	0.78
602.768	0.78
603.105	0.78
603.441	0.78
603.777	0.79
604.114	0.78
604.45	0.79
604.786	0.79
605.122	0.79
605.459	0.79
605.795	0.79
606.131	0.78
606.467	0.79
606.803	0.79
607.139	0.79
607.474	0.78
607.81	0.78
608.146	0.78
608.482	0.78
608.817	0.78
609.153	0.77
609.488	0.77
609.824	0.77
610.159	0.77
610.495	0.77
610.83	0.77
611.165	0.77
611.5	0.77
611.836	0.76
612.171	0.76
612.506	0.76
612.841	0.76
613.176	0.75
613.511	0.76
613.845	0.75
614.18	0.75
614.515	0.75
614.85	0.75
615.184	0.74
615.519	0.74
615.854	0.74
616.188	0.73
616.523	0.73
616.857	0.73
617.191	0.73
617.526	0.73
617.86	0.73
618.194	0.72
618.528	0.72
618.862	0.72
619.196	0.72
619.53	0.72
619.864	0.71
620.198	0.71
620.532	0.71
620.866	0.7
621.2	0.7
621.533	0.71
621.867	0.71
622.201	0.69
622.534	0.69
622.868	0.69
623.201	0.69
623.534	0.69
623.868	0.69
624.201	0.68
624.534	0.68
624.868	0.68
625.201	0.67
625.534	0.68
625.867	0.67
626.2	0.67
626.533	0.66
626.865	0.66
627.198	0.65
627.531	0.66
627.864	0.66
628.196	0.65
628.529	0.65
628.862	0.64
629.194	0.64
629.527	0.64
629.859	0.63
630.191	0.63
630.524	0.62
630.856	0.62
631.188	0.62
631.52	0.62
631.852	0.61
632.184	0.61
632.516	0.61
632.848	0.6
633.18	0.59
633.512	0.59
633.844	0.58
634.175	0.58
634.507	0.58
634.839	0.57
635.17	0.57
635.502	0.57
635.833	0.56
636.165	0.56
636.496	0.56
636.827	0.55
637.159	0.54
637.49	0.54
637.821	0.53
638.152	0.53
638.483	0.53
638.814	0.53
639.145	0.52
639.476	0.51
639.807	0.51
640.137	0.51
640.468	0.5
640.799	0.5
641.129	0.49
641.46	0.49
641.791	0.49
642.121	0.49
642.451	0.48
642.782	0.47
643.112	0.47
643.442	0.47
643.773	0.46
644.103	0.46
644.433	0.46
644.763	0.45
645.093	0.45
645.423	0.45
645.753	0.45
646.082	0.45
646.412	0.44
646.742	0.44
647.072	0.44
647.401	0.44
647.731	0.44
648.06	0.44
648.39	0.43
648.719	0.44
649.048	0.43
649.378	0.43
649.707	0.43
650.036	0.42
650.365	0.43
650.694	0.42
651.023	0.42
651.352	0.42
651.681	0.42
652.01	0.42
652.339	0.42
652.668	0.42
652.996	0.41
653.325	0.42
653.654	0.41
653.982	0.42
654.311	0.42
654.639	0.41
654.967	0.42
655.296	0.42
655.624	0.41
655.952	0.41
656.28	0.41
656.609	0.41
656.937	0.42
657.265	0.42
657.593	0.39
657.92	0.25
658.248	0.19
658.576	0.18
658.904	0.26
659.231	0.36
659.559	0.4
659.887	0.4
660.214	0.41
660.542	0.41
660.869	0.41
661.196	0.4
661.524	0.4
661.851	0.41
662.178	0.4
662.505	0.4
662.832	0.4
663.159	0.4
663.486	0.4
663.813	0.4
664.14	0.4
664.467	0.4
664.794	0.4
665.12	0.4
665.447	0.4
665.774	0.39
666.1	0.39
666.427	0.39
666.753	0.39
667.079	0.39
667.406	0.39
667.732	0.39
668.058	0.39
668.384	0.39
668.71	0.38
669.036	0.38
669.362	0.39
669.688	0.38
670.014	0.38
670.34	0.38
670.666	0.38
670.991	0.38
671.317	0.37
671.643	0.37
671.968	0.37
672.294	0.37
672.619	0.36
672.945	0.36
673.27	0.36
673.595	0.36
673.92	0.36
674.246	0.36
674.571	0.35
674.896	0.35
675.221	0.35
675.546	0.35
675.87	0.35
676.195	0.34
676.52	0.34
676.845	0.34
677.169	0.33
677.494	0.33
677.819	0.33
678.143	0.33
678.468	0.32
678.792	0.32
679.116	0.32
679.44	0.32
679.765	0.31
680.089	0.31
680.413	0.31
680.737	0.31
681.061	0.3
681.385	0.3
681.709	0.29
682.033	0.29
682.356	0.28
682.68	0.28
683.004	0.28
683.327	0.28
683.651	0.27
683.974	0.27
684.298	0.27
684.621	0.27
684.944	0.27
685.268	0.27
685.591	0.26
685.914	0.26
686.237	0.26
686.56	0.25
686.883	0.25
687.206	0.25
687.529	0.24
687.852	0.24
688.175	0.23
688.497	0.23
688.82	0.24
689.142	0.23
689.465	0.23
689.787	0.22
690.11	0.23
690.432	0.22
690.755	0.22
691.077	0.22
691.399	0.21
691.721	0.21
692.043	0.21
692.365	0.21
692.687	0.2
693.009	0.2
693.331	0.2
693.653	0.2
693.974	0.2
694.296	0.19
694.618	0.19
694.939	0.19
695.261	0.19
695.582	0.19
695.904	0.19
696.225	0.18
696.546	0.18
696.868	0.18
697.189	0.17
697.51	0.17
697.831	0.17
698.152	0.17
698.473	0.17
698.794	0.17
699.114	0.16
699.435	0.16
699.756	0.16
700.077	0.16
700.397	0.16
700.718	0.16
701.038	0.15
701.359	0.16
701.679	0.15
701.999	0.15
702.32	0.15
702.64	0.15
702.96	0.15
703.28	0.15
703.6	0.15
703.92	0.15
704.24	0.15
704.56	0.14
704.879	0.14
705.199	0.14
705.519	0.14
705.838	0.14
706.158	0.14
706.478	0.14
706.797	0.14
707.116	0.14
707.436	0.14
707.755	0.14
708.074	0.14
708.393	0.14
708.712	0.14
709.031	0.13
709.35	0.13
709.669	0.13
709.988	0.13
710.307	0.13
710.626	0.13
710.944	0.13
711.263	0.13
711.582	0.13
711.9	0.13
712.219	0.13
712.537	0.13
712.855	0.13
713.174	0.13
713.492	0.13
713.81	0.13
714.128	0.13
714.446	0.13
714.764	0.12
715.082	0.12
715.4	0.12
715.718	0.12
716.035	0.12
716.353	0.12
716.671	0.12
716.988	0.12
717.306	0.12
717.623	0.13
717.941	0.13
718.258	0.13
718.575	0.13
718.893	0.13
719.21	0.13
719.527	0.13
719.844	0.13
720.161	0.13
720.478	0.13
720.795	0.13
721.112	0.13
721.428	0.13
721.745	0.13
722.062	0.13
722.378	0.14
722.695	0.14
723.011	0.14
723.328	0.14
723.644	0.14
723.96	0.14
724.276	0.14
724.593	0.14
724.909	0.14
725.225	0.14
725.541	0.14
725.857	0.14
726.173	0.15
726.488	0.14
726.804	0.14
727.12	0.14
727.435	0.15
727.751	0.15
728.067	0.15
728.382	0.15
728.697	0.15
729.013	0.15
729.328	0.15
729.643	0.15
729.958	0.15
730.273	0.15
730.588	0.14
730.903	0.15
731.218	0.15
731.533	0.15
731.848	0.15
732.163	0.15
732.477	0.15
732.792	0.14
733.107	0.15
733.421	0.15
733.736	0.15
734.05	0.15
734.364	0.15
734.678	0.15
734.993	0.15
735.307	0.15
735.621	0.14
735.935	0.14
736.249	0.14
736.563	0.14
736.877	0.14
737.19	0.15
737.504	0.14
737.818	0.14
738.131	0.14
738.445	0.14
738.758	0.14
739.072	0.14
739.385	0.14
739.698	0.14
740.012	0.14
740.325	0.14
740.638	0.14
740.951	0.13
741.264	0.13
741.577	0.13
741.89	0.13
742.203	0.13
742.515	0.14
742.828	0.14
743.141	0.13
743.453	0.13
743.766	0.13
744.078	0.13
744.391	0.13
744.703	0.13
745.015	0.13
745.327	0.13
745.639	0.12
745.952	0.12
746.264	0.12
746.575	0.12
746.887	0.12
747.199	0.12
747.511	0.12
747.823	0.12
748.134	0.11
748.446	0.11
748.757	0.11
749.069	0.11
749.38	0.11
749.692	0.11
750.003	0.11
750.314	0.11
750.625	0.11
750.936	0.1
751.248	0.1
751.559	0.1
751.869	0.1
752.18	0.1
752.491	0.1
752.802	0.09
753.112	0.09
753.423	0.09
753.734	0.09
754.044	0.09
754.355	0.09
754.665	0.09
754.975	0.09
755.285	0.08
755.596	0.08
755.906	0.08
756.216	0.08
756.526	0.07
756.836	0.07
757.146	0.07
757.455	0.07
757.765	0.08
758.075	0.07
758.385	0.07
758.694	0.07
759.004	0.07
759.313	0.07
759.622	0.07
759.932	0.07
760.241	0.07
760.55	0.07
760.859	0.07
761.168	0.07
761.477	0.06
761.786	0.06
762.095	0.06
762.404	0.06
762.713	0.06
763.021	0.06
763.33	0.06
763.639	0.05
763.947	0.05
764.256	0.05
764.564	0.05
764.872	0.05
765.181	0.05
765.489	0.05
765.797	0.05
766.105	0.05
766.413	0.05
766.721	0.05
767.029	0.05
767.337	0.05
767.644	0.05
767.952	0.05
768.26	0.05
768.567	0.05
768.875	0.05
769.182	0.04
769.49	0.04
769.797	0.04
770.104	0.04
770.411	0.04
770.718	0.04
771.026	0.04
771.333	0.04
771.639	0.04
771.946	0.04
772.253	0.04
772.56	0.04
772.867	0.04
773.173	0.04
773.48	0.04
773.786	0.04
774.093	0.04
774.399	0.03
774.705	0.03
775.012	0.03
775.318	0.03
775.624	0.03
775.93	0.03
776.236	0.03
776.542	0.04
776.848	0.03
777.154	0.03
777.459	0.04
777.765	0.04
778.071	0.03
778.376	0.04
778.682	0.03
778.987	0.03
779.292	0.03
779.598	0.03
779.903	0.03
780.208	0.04
780.513	0.03
780.818	0.03
781.123	0.03
781.428	0.03
781.733	0.04
782.038	0.03
782.343	0.04
782.647	0.03
782.952	0.03
783.256	0.03
783.561	0.04
783.865	0.04
784.17	0.04
784.474	0.04
784.778	0.03
785.082	0.03
785.386	0.03
785.69	0.03
785.994	0.03
786.298	0.03
786.602	0.04
786.906	0.03
787.209	0.03
787.513	0.03
787.817	0.03
788.12	0.03
788.424	0.03
788.727	0.03
789.03	0.03
789.333	0.03
789.637	0.04
789.94	0.04
790.243	0.04
790.546	0.04
790.849	0.03
791.152	0.03
791.454	0.04
791.757	0.03
792.06	0.04
792.362	0.04
792.665	0.03
792.967	0.03
793.27	0.03
793.572	0.03
793.874	0.02
794.177	0.03
794.479	0.02
794.781	0.03
795.083	0.03
795.385	0.03
795.687	0.03
795.989	0.03
796.29	0.03
796.592	0.03
796.894	0.03
797.195	0.03
797.497	0.03
797.798	0.03
798.1	0.03
798.401	0.03
798.702	0.03
799.003	0.03
799.304	0.03
799.605	0.03
799.906	0.03
800.207	0.03
800.508	0.03
800.809	0.03
801.11	0.03
801.41	0.03
801.711	0.03
802.011	0.04
802.312	0.04
802.612	0.03
802.913	0.04
803.213	0.04
803.513	0.04
803.813	0.04
804.113	0.04
804.413	0.04
804.713	0.04
805.013	0.04
805.313	0.04
805.613	0.04
805.912	0.04
806.212	0.04
806.511	0.04
806.811	0.04
807.11	0.04
807.41	0.04
807.709	0.04
808.008	0.04
808.307	0.03
808.606	0.03
808.905	0.03
809.204	0.03
809.503	0.03
809.802	0.03
810.101	0.03
810.399	0.03
810.698	0.03
810.997	0.03
811.295	0.03
811.593	0.03
811.892	0.03
812.19	0.03
812.488	0.03
812.786	0.03
813.084	0.04
813.383	0.03
813.68	0.03
813.978	0.03
814.276	0.03
814.574	0.02
814.872	0.02
815.169	0.02
815.467	0.03
815.764	0.03
816.062	0.03
816.359	0.03
816.656	0.03
816.954	0.02
817.251	0.02
817.548	0.02
817.845	0.02
818.142	0.03
818.439	0.03
818.735	0.03
819.032	0.03
819.329	0.03
819.626	0.03
819.922	0.02
820.219	0.03
820.515	0.03
820.811	0.02
821.108	0.03
821.404	0.02
821.7	0.02
821.996	0.03
822.292	0.03
822.588	0.03
822.884	0.03
823.18	0.02
823.475	0.02
823.771	0.03
824.067	0.03
824.362	0.03
824.658	0.04
824.953	0.04
825.249	0.04
825.544	0.04
825.839	0.04
826.134	0.04
826.429	0.03
826.724	0.04
827.019	0.03
827.314	0.03
827.609	0.03
827.904	0.03
828.198	0.03
828.493	0.03
828.787	0.03
829.082	0.03
829.376	0.03
829.671	0.03
829.965	0.03
830.259	0.03
830.553	0.03
830.847	0.03
831.141	0.03
831.435	0.03
831.729	0.03
832.023	0.04
832.317	0.03
832.61	0.04
832.904	0.03
833.197	0.03
833.491	0.04
833.784	0.03
834.077	0.04
834.371	0.04
834.664	0.04
834.957	0.03
835.25	0.03
835.543	0.03
835.836	0.04
836.129	0.04
836.421	0.04
836.714	0.03
837.007	0.03
837.299	0.04
837.592	0.05
837.884	0.04
838.177	0.04
838.469	0.04
838.761	0.04
839.053	0.04
839.345	0.04
839.637	0.04
839.929	0.03
840.221	0.04
840.513	0.04
840.805	0.03
841.096	0.04
841.388	0.03
841.68	0.03
841.971	0.04
842.262	0.03
842.554	0.03
842.845	0.03
843.136	0.03
843.427	0.04
843.718	0.04
844.009	0.03
844.3	0.03
844.591	0.04
844.882	0.02
845.173	0.03
845.463	0.03
845.754	0.04
846.044	0.03
846.335	0.02
846.625	0.04
846.915	0.04
847.206	0.04
847.496	0.04
847.786	0.03
848.076	0.04
848.366	0.04
848.656	0.05
848.945	0.03
849.235	0.04
849.525	0.04
849.814	0.04
850.104	0.04
850.393	0.04
850.683	0.03
850.972	0.04
851.261	0.04
851.551	0.05
851.84	0.03
852.129	0.03
852.418	0.03
852.707	0.01
852.995	0.03
853.284	0.03
853.573	0.03
853.862	0.02
854.15	0.03
854.439	0.03
854.727	0.03
855.015	0.04
855.304	0.03
855.592	0.02
855.88	0.04
856.168	0.04
856.456	0.02
856.744	0.03
857.032	0.04
857.32	0.04
857.607	0.03
857.895	0.04
858.183	0.05
858.47	0.03
858.757	0.03
859.045	0.05
859.332	0.04
859.619	0.02
859.907	0.04
860.194	0.05
860.481	0.03
860.768	0.05
861.054	0.02
861.341	0.03
861.628	0.05
861.915	0.03
862.201	0.06
862.488	0.03
862.774	0.02
863.061	0.01
863.347	0
863.633	0.03
863.919	0.05
864.205	0.06
864.491	0.04
864.777	0.04
865.063	0.03
865.349	0.03
865.635	-0
865.92	0.02
866.206	0.05
866.492	0.05
866.777	0.04
867.062	0.03
867.348	0
867.633	0.01
867.918	-0
868.203	0.03
868.488	0.05
868.773	0.06
869.058	0.02
869.343	0.03
869.628	0.03
869.912	0.04
870.197	0.02
870.482	0.07
870.766	0.07
871.05	0.04
871.335	0.03
871.619	0.07
871.903	0.05
872.187	0.07
872.471	0.03
872.755	0.05
873.039	0.02
873.323	0.07
873.607	0.01
873.89	0.04
874.174	0.04
874.458	0.1
874.741	0.05
875.024	0.02
875.308	-0
875.591	-0.01
875.874	-0.06
876.157	0.07
876.44	0.04
876.723	0.09
877.006	0.07
877.289	0.11
877.572	0.04
877.854	0.07
878.137	0.04
878.42	0.06
878.702	0.03
878.984	0.05
879.267	0.05
879.549	0.09
879.831	0.07
880.113	0.03
880.395	0.08
880.677	0.08
880.959	-0.03
