Data from Rubpy_EV_1500_EDTA_Buffered_Absorbance_15-09-23-020.txt Node
Date: Tue Jun 30 15:09:23 BST 2026
User: fpm-admin
Spectrometer: OFX00224
Trigger mode: 0
Integration Time (sec): 7.000000E-2
Scans to average: 3
Nonlinearity correction enabled: false
Boxcar width: 0
Storing dark spectrum: false
XAxis mode: Wavelengths
Number of Pixels in Spectrum: 2136
>>>>>Begin Spectral Data<<<<<
154.91	0.99
155.289	-0.71
155.669	-0.03
156.048	-0
156.428	-0.64
156.807	0.6
157.186	-0.46
157.566	-0.16
157.945	-0.6
158.325	-1.32
158.704	-1.65
159.083	-0
159.462	-0.88
159.842	-0.87
160.221	-0.12
160.6	-0.28
160.979	-0
161.359	-0.32
161.738	0.51
162.117	-0
162.496	-0
162.875	-0.21
163.254	-0.35
163.633	0.08
164.012	-0
164.391	0.43
164.77	-0.05
165.149	0.07
165.528	-0
165.907	-0
166.286	-0.57
166.665	-0
167.044	0.35
167.423	0.75
167.802	-0
168.181	0.28
168.559	-0.34
168.938	1.01
169.317	-0.41
169.696	0.02
170.074	0.06
170.453	-0.92
170.832	-0
171.21	-0
171.589	-0
171.968	-0
172.346	-0.9
172.725	-1.49
173.103	-0.35
173.482	0.3
173.861	-0.49
174.239	0.1
174.617	-0
174.996	-0.43
175.374	-0
175.753	-0.54
176.131	0.04
176.51	-0.13
176.888	0.97
177.266	-0
177.645	-0.04
178.023	-0
178.401	-0.11
178.779	-0.22
179.158	0.59
179.536	-0.38
179.914	-0
180.292	-0
180.67	-0.38
181.048	-0.57
181.427	-0.04
181.805	-0
182.183	-0
182.561	0.15
182.939	-1.18
183.317	-0
183.695	-0
184.073	-0.43
184.451	-0
184.829	-0.65
185.206	-0.2
185.584	0.22
185.962	-0.77
186.34	0.7
186.718	-0
187.096	-0
187.473	-0
187.851	0.59
188.229	0.03
188.607	0.32
188.984	0.32
189.362	0.3
189.74	0.32
190.117	0.31
190.495	0.28
190.872	0.21
191.25	0.28
191.627	0.38
192.005	0.35
192.382	0.3
192.76	0.26
193.137	0.25
193.515	0.32
193.892	0.44
194.269	0.34
194.647	0.2
195.024	0.14
195.401	0.3
195.779	0.3
196.156	0.2
196.533	0.36
196.91	0.07
197.288	0.1
197.665	0.19
198.042	0.24
198.419	0.22
198.796	0.32
199.173	0.28
199.55	0.12
199.927	0.26
200.304	0.22
200.681	0.29
201.058	0.31
201.435	0.2
201.812	0.39
202.189	0.26
202.566	0.38
202.943	0.12
203.32	0.24
203.697	0.32
204.073	0.25
204.45	0.18
204.827	0.36
205.204	0.41
205.58	0.37
205.957	0.3
206.334	0.35
206.71	0.19
207.087	0.33
207.464	0.32
207.84	0.42
208.217	0.21
208.593	0.37
208.97	0.28
209.346	0.36
209.723	0.29
210.099	0.18
210.476	0.3
210.852	0.33
211.228	0.33
211.605	0.22
211.981	0.27
212.357	0.33
212.733	0.24
213.11	0.43
213.486	0.22
213.862	0.29
214.238	0.23
214.614	0.38
214.991	0.31
215.367	0.26
215.743	0.27
216.119	0.24
216.495	0.33
216.871	0.19
217.247	0.26
217.623	0.28
217.999	0.24
218.375	0.35
218.751	0.33
219.127	0.33
219.502	0.29
219.878	0.22
220.254	0.27
220.63	0.36
221.006	0.29
221.381	0.3
221.757	0.28
222.133	0.5
222.508	0.23
222.884	0.24
223.26	0.31
223.635	0.25
224.011	0.29
224.386	0.2
224.762	0.28
225.137	0.18
225.513	0.3
225.888	0.37
226.264	0.24
226.639	0.23
227.014	0.22
227.39	0.53
227.765	0.33
228.14	0.36
228.516	0.3
228.891	0.29
229.266	0.35
229.641	0.37
230.017	0.22
230.392	0.22
230.767	0.28
231.142	0.31
231.517	0.26
231.892	0.3
232.267	0.39
232.642	0.35
233.017	0.36
233.392	0.45
233.767	0.31
234.142	0.17
234.517	0.19
234.892	0.25
235.267	0.26
235.641	0.24
236.016	0.35
236.391	0.27
236.766	0.28
237.14	0.22
237.515	0.33
237.89	0.26
238.264	0.32
238.639	0.29
239.014	0.32
239.388	0.21
239.763	0.3
240.137	0.27
240.512	0.26
240.886	0.23
241.261	0.3
241.635	0.29
242.009	0.23
242.384	0.34
242.758	0.31
243.132	0.31
243.507	0.25
243.881	0.3
244.255	0.37
244.629	0.38
245.004	0.3
245.378	0.22
245.752	0.28
246.126	0.27
246.5	0.24
246.874	0.2
247.248	0.25
247.622	0.34
247.996	0.27
248.37	0.2
248.744	0.25
249.118	0.25
249.492	0.43
249.866	0.3
250.24	0.28
250.613	0.27
250.987	0.28
251.361	0.3
251.735	0.27
252.108	0.31
252.482	0.24
252.856	0.19
253.229	0.29
253.603	0.29
253.977	0.36
254.35	0.16
254.724	0.3
255.097	0.36
255.471	0.32
255.844	0.34
256.218	0.27
256.591	0.2
256.964	0.23
257.338	0.32
257.711	0.27
258.084	0.34
258.458	0.34
258.831	0.35
259.204	0.34
259.577	0.36
259.95	0.27
260.323	0.41
260.697	0.24
261.07	0.34
261.443	0.29
261.816	0.24
262.189	0.29
262.562	0.3
262.935	0.32
263.308	0.28
263.68	0.26
264.053	0.26
264.426	0.28
264.799	0.34
265.172	0.3
265.545	0.32
265.917	0.31
266.29	0.24
266.663	0.37
267.035	0.29
267.408	0.24
267.781	0.29
268.153	0.27
268.526	0.29
268.898	0.37
269.271	0.32
269.643	0.32
270.016	0.3
270.388	0.31
270.76	0.29
271.133	0.29
271.505	0.28
271.877	0.38
272.25	0.32
272.622	0.31
272.994	0.32
273.366	0.36
273.739	0.36
274.111	0.3
274.483	0.25
274.855	0.28
275.227	0.29
275.599	0.27
275.971	0.21
276.343	0.28
276.715	0.26
277.087	0.24
277.459	0.25
277.831	0.28
278.203	0.32
278.574	0.29
278.946	0.37
279.318	0.31
279.69	0.26
280.061	0.38
280.433	0.28
280.805	0.27
281.176	0.27
281.548	0.31
281.92	0.4
282.291	0.33
282.663	0.39
283.034	0.32
283.406	0.3
283.777	0.34
284.148	0.27
284.52	0.29
284.891	0.25
285.262	0.28
285.634	0.28
286.005	0.28
286.376	0.25
286.747	0.24
287.119	0.31
287.49	0.2
287.861	0.37
288.232	0.21
288.603	0.26
288.974	0.28
289.345	0.23
289.716	0.28
290.087	0.33
290.458	0.26
290.829	0.29
291.2	0.31
291.571	0.33
291.941	0.27
292.312	0.28
292.683	0.3
293.054	0.26
293.424	0.27
293.795	0.27
294.166	0.24
294.536	0.34
294.907	0.26
295.277	0.33
295.648	0.27
296.018	0.3
296.389	0.26
296.759	0.28
297.13	0.28
297.5	0.28
297.871	0.29
298.241	0.26
298.611	0.29
298.981	0.26
299.352	0.31
299.722	0.28
300.092	0.23
300.462	0.3
300.832	0.27
301.202	0.25
301.573	0.27
301.943	0.24
302.313	0.23
302.683	0.24
303.053	0.26
303.422	0.24
303.792	0.22
304.162	0.25
304.532	0.23
304.902	0.22
305.272	0.23
305.641	0.24
306.011	0.23
306.381	0.24
306.75	0.26
307.12	0.24
307.49	0.23
307.859	0.24
308.229	0.25
308.598	0.25
308.968	0.25
309.337	0.25
309.707	0.25
310.076	0.26
310.445	0.26
310.815	0.27
311.184	0.27
311.553	0.27
311.923	0.27
312.292	0.27
312.661	0.27
313.03	0.27
313.399	0.27
313.768	0.28
314.137	0.27
314.506	0.28
314.875	0.28
315.244	0.27
315.613	0.27
315.982	0.27
316.351	0.27
316.72	0.26
317.089	0.26
317.458	0.26
317.826	0.26
318.195	0.26
318.564	0.26
318.933	0.26
319.301	0.25
319.67	0.25
320.038	0.25
320.407	0.24
320.775	0.25
321.144	0.24
321.512	0.24
321.881	0.24
322.249	0.24
322.618	0.24
322.986	0.23
323.354	0.23
323.723	0.23
324.091	0.23
324.459	0.23
324.827	0.23
325.195	0.23
325.564	0.22
325.932	0.22
326.3	0.22
326.668	0.22
327.036	0.22
327.404	0.23
327.772	0.22
328.14	0.23
328.508	0.22
328.875	0.22
329.243	0.22
329.611	0.23
329.979	0.23
330.346	0.23
330.714	0.23
331.082	0.23
331.449	0.23
331.817	0.23
332.185	0.23
332.552	0.24
332.92	0.24
333.287	0.24
333.655	0.24
334.022	0.25
334.389	0.25
334.757	0.25
335.124	0.25
335.491	0.26
335.859	0.26
336.226	0.27
336.593	0.26
336.96	0.27
337.327	0.27
337.695	0.27
338.062	0.28
338.429	0.28
338.796	0.29
339.163	0.29
339.53	0.3
339.897	0.3
340.263	0.3
340.63	0.32
340.997	0.31
341.364	0.31
341.731	0.33
342.097	0.33
342.464	0.33
342.831	0.34
343.197	0.35
343.564	0.36
343.931	0.36
344.297	0.37
344.664	0.37
345.03	0.37
345.396	0.38
345.763	0.39
346.129	0.39
346.496	0.39
346.862	0.4
347.228	0.41
347.594	0.41
347.961	0.41
348.327	0.42
348.693	0.43
349.059	0.43
349.425	0.44
349.791	0.45
350.157	0.46
350.523	0.47
350.889	0.48
351.255	0.49
351.621	0.49
351.987	0.5
352.353	0.51
352.719	0.52
353.084	0.53
353.45	0.54
353.816	0.55
354.181	0.56
354.547	0.57
354.913	0.59
355.278	0.59
355.644	0.61
356.009	0.62
356.375	0.64
356.74	0.65
357.106	0.66
357.471	0.67
357.836	0.69
358.202	0.7
358.567	0.71
358.932	0.73
359.297	0.73
359.663	0.75
360.028	0.75
360.393	0.76
360.758	0.77
361.123	0.79
361.488	0.79
361.853	0.8
362.218	0.82
362.583	0.82
362.948	0.84
363.312	0.84
363.677	0.85
364.042	0.87
364.407	0.88
364.772	0.9
365.136	0.89
365.501	0.92
365.865	0.94
366.23	0.97
366.595	0.98
366.959	0.99
367.324	1.01
367.688	1.03
368.052	1.05
368.417	1.06
368.781	1.06
369.145	1.09
369.51	1.09
369.874	1.09
370.238	1.09
370.602	1.1
370.967	1.09
371.331	1.1
371.695	1.07
372.059	1.08
372.423	1.06
372.787	1.06
373.151	1.06
373.515	1.07
373.878	1.05
374.242	1.06
374.606	1.05
374.97	1.06
375.334	1.06
375.697	1.06
376.061	1.06
376.425	1.06
376.788	1.07
377.152	1.08
377.515	1.09
377.879	1.1
378.242	1.12
378.606	1.13
378.969	1.14
379.333	1.15
379.696	1.16
380.059	1.17
380.422	1.18
380.786	1.22
381.149	1.24
381.512	1.25
381.875	1.26
382.238	1.3
382.601	1.34
382.964	1.35
383.327	1.4
383.69	1.41
384.053	1.44
384.416	1.48
384.779	1.5
385.142	1.53
385.504	1.55
385.867	1.58
386.23	1.57
386.593	1.61
386.955	1.6
387.318	1.61
387.68	1.6
388.043	1.59
388.405	1.58
388.768	1.57
389.13	1.57
389.493	1.58
389.855	1.56
390.217	1.55
390.58	1.55
390.942	1.54
391.304	1.56
391.666	1.56
392.028	1.57
392.391	1.58
392.753	1.63
393.115	1.68
393.477	1.74
393.839	1.76
394.201	1.84
394.563	1.89
394.924	1.93
395.286	1.97
395.648	2
396.01	1.96
396.371	2.09
396.733	2.03
397.095	2.03
397.456	2.01
397.818	2.03
398.18	2.02
398.541	2.01
398.903	1.99
399.264	1.99
399.625	1.94
399.987	1.92
400.348	1.87
400.709	1.82
401.071	1.76
401.432	1.66
401.793	1.58
402.154	1.49
402.515	1.4
402.876	1.35
403.238	1.24
403.599	1.17
403.96	1.09
404.32	1.01
404.681	0.94
405.042	0.87
405.403	0.81
405.764	0.76
406.125	0.7
406.485	0.67
406.846	0.62
407.207	0.58
407.567	0.55
407.928	0.52
408.288	0.49
408.649	0.46
409.009	0.44
409.37	0.41
409.73	0.4
410.091	0.37
410.451	0.36
410.811	0.34
411.171	0.33
411.532	0.31
411.892	0.3
412.252	0.28
412.612	0.27
412.972	0.26
413.332	0.26
413.692	0.24
414.052	0.24
414.412	0.23
414.772	0.22
415.132	0.22
415.492	0.21
415.851	0.21
416.211	0.2
416.571	0.19
416.931	0.18
417.29	0.18
417.65	0.18
418.009	0.18
418.369	0.17
418.728	0.16
419.088	0.16
419.447	0.16
419.807	0.16
420.166	0.15
420.525	0.15
420.884	0.15
421.244	0.15
421.603	0.14
421.962	0.14
422.321	0.13
422.68	0.13
423.039	0.14
423.398	0.13
423.757	0.13
424.116	0.13
424.475	0.13
424.834	0.12
425.193	0.12
425.551	0.12
425.91	0.12
426.269	0.12
426.628	0.11
426.986	0.11
427.345	0.11
427.703	0.11
428.062	0.12
428.42	0.11
428.779	0.1
429.137	0.11
429.496	0.11
429.854	0.11
430.212	0.11
430.57	0.11
430.929	0.11
431.287	0.11
431.645	0.11
432.003	0.1
432.361	0.1
432.719	0.1
433.077	0.1
433.435	0.09
433.793	0.09
434.151	0.09
434.509	0.09
434.866	0.09
435.224	0.09
435.582	0.09
435.94	0.09
436.297	0.1
436.655	0.1
437.012	0.09
437.37	0.09
437.727	0.09
438.085	0.09
438.442	0.09
438.8	0.09
439.157	0.08
439.514	0.08
439.872	0.08
440.229	0.09
440.586	0.09
440.943	0.08
441.3	0.08
441.657	0.08
442.014	0.08
442.371	0.09
442.728	0.08
443.085	0.07
443.442	0.08
443.799	0.08
444.156	0.07
444.513	0.07
444.869	0.07
445.226	0.07
445.583	0.07
445.939	0.07
446.296	0.07
446.652	0.07
447.009	0.08
447.365	0.06
447.722	0.06
448.078	0.06
448.434	0.06
448.791	0.06
449.147	0.06
449.503	0.06
449.859	0.06
450.215	0.06
450.571	0.07
450.928	0.06
451.284	0.06
451.64	0.05
451.995	0.05
452.351	0.05
452.707	0.05
453.063	0.04
453.419	0.06
453.775	0.05
454.13	0.05
454.486	0.05
454.842	0.04
455.197	0.04
455.553	0.04
455.908	0.04
456.264	0.04
456.619	0.03
456.975	0.05
457.33	0.03
457.685	0.03
458.04	0.03
458.396	0.03
458.751	0.03
459.106	0.03
459.461	0.02
459.816	0.02
460.171	0.01
460.526	0.01
460.881	0.02
461.236	0
461.591	0.01
461.946	0
462.301	0.01
462.655	0.01
463.01	0.01
463.365	-0
463.719	0
464.074	-0.01
464.428	-0.01
464.783	-0.01
465.137	-0.01
465.492	-0.02
465.846	-0.01
466.201	-0.01
466.555	-0.01
466.909	-0.01
467.263	0
467.618	-0
467.972	-0.01
468.326	-0.01
468.68	-0.02
469.034	-0.02
469.388	-0.01
469.742	-0.01
470.096	-0.01
470.45	-0.01
470.804	-0.01
471.157	-0.01
471.511	-0.01
471.865	-0.01
472.218	-0.01
472.572	-0.01
472.926	0
473.279	-0
473.633	0
473.986	0.01
474.34	0.01
474.693	0.02
475.046	0.02
475.4	0.03
475.753	0.03
476.106	0.03
476.459	0.04
476.812	0.05
477.165	0.05
477.519	0.04
477.872	0.05
478.224	0.05
478.577	0.05
478.93	0.06
479.283	0.06
479.636	0.06
479.989	0.07
480.341	0.07
480.694	0.07
481.047	0.07
481.399	0.08
481.752	0.08
482.104	0.08
482.457	0.09
482.809	0.09
483.162	0.09
483.514	0.09
483.866	0.09
484.219	0.1
484.571	0.1
484.923	0.1
485.275	0.1
485.627	0.1
485.979	0.11
486.331	0.11
486.683	0.11
487.035	0.12
487.387	0.12
487.739	0.12
488.091	0.12
488.443	0.12
488.794	0.12
489.146	0.12
489.498	0.12
489.849	0.12
490.201	0.13
490.552	0.13
490.904	0.13
491.255	0.13
491.607	0.13
491.958	0.14
492.309	0.14
492.661	0.14
493.012	0.14
493.363	0.14
493.714	0.14
494.065	0.15
494.416	0.15
494.767	0.15
495.118	0.15
495.469	0.16
495.82	0.16
496.171	0.16
496.522	0.16
496.872	0.16
497.223	0.17
497.574	0.17
497.924	0.17
498.275	0.17
498.626	0.17
498.976	0.18
499.327	0.18
499.677	0.18
500.027	0.18
500.378	0.19
500.728	0.19
501.078	0.19
501.428	0.19
501.779	0.19
502.129	0.2
502.479	0.2
502.829	0.2
503.179	0.2
503.529	0.21
503.879	0.2
504.229	0.21
504.578	0.21
504.928	0.21
505.278	0.21
505.628	0.22
505.977	0.22
506.327	0.22
506.676	0.23
507.026	0.23
507.375	0.23
507.725	0.23
508.074	0.23
508.424	0.24
508.773	0.23
509.122	0.24
509.471	0.24
509.82	0.24
510.17	0.24
510.519	0.25
510.868	0.25
511.217	0.25
511.566	0.26
511.915	0.26
512.263	0.26
512.612	0.26
512.961	0.26
513.31	0.26
513.659	0.26
514.007	0.27
514.356	0.27
514.704	0.27
515.053	0.28
515.401	0.28
515.75	0.28
516.098	0.29
516.447	0.28
516.795	0.29
517.143	0.29
517.491	0.29
517.839	0.3
518.188	0.3
518.536	0.3
518.884	0.3
519.232	0.3
519.58	0.3
519.928	0.31
520.275	0.31
520.623	0.32
520.971	0.32
521.319	0.32
521.666	0.32
522.014	0.32
522.362	0.32
522.709	0.33
523.057	0.33
523.404	0.33
523.752	0.33
524.099	0.34
524.446	0.34
524.794	0.34
525.141	0.34
525.488	0.35
525.835	0.35
526.182	0.35
526.529	0.35
526.876	0.36
527.223	0.36
527.57	0.36
527.917	0.36
528.264	0.37
528.611	0.36
528.958	0.37
529.304	0.37
529.651	0.38
529.998	0.38
530.344	0.38
530.691	0.39
531.037	0.39
531.384	0.38
531.73	0.39
532.076	0.39
532.423	0.39
532.769	0.39
533.115	0.4
533.461	0.4
533.807	0.41
534.154	0.41
534.5	0.41
534.846	0.41
535.192	0.42
535.537	0.42
535.883	0.42
536.229	0.43
536.575	0.44
536.921	0.44
537.266	0.43
537.612	0.44
537.957	0.44
538.303	0.44
538.649	0.44
538.994	0.45
539.339	0.45
539.685	0.46
540.03	0.46
540.375	0.46
540.721	0.46
541.066	0.47
541.411	0.47
541.756	0.48
542.101	0.48
542.446	0.48
542.791	0.48
543.136	0.49
543.481	0.49
543.825	0.5
544.17	0.5
544.515	0.5
544.86	0.51
545.204	0.51
545.549	0.51
545.893	0.52
546.238	0.52
546.582	0.52
546.927	0.52
547.271	0.53
547.615	0.53
547.96	0.54
548.304	0.54
548.648	0.54
548.992	0.54
549.336	0.55
549.68	0.56
550.024	0.56
550.368	0.56
550.712	0.56
551.056	0.57
551.4	0.57
551.743	0.57
552.087	0.57
552.431	0.57
552.774	0.57
553.118	0.58
553.462	0.58
553.805	0.59
554.148	0.58
554.492	0.59
554.835	0.59
555.178	0.59
555.522	0.59
555.865	0.6
556.208	0.59
556.551	0.6
556.894	0.6
557.237	0.6
557.58	0.6
557.923	0.61
558.266	0.61
558.609	0.61
558.952	0.61
559.294	0.62
559.637	0.62
559.98	0.62
560.322	0.62
560.665	0.62
561.007	0.62
561.35	0.63
561.692	0.62
562.034	0.63
562.377	0.64
562.719	0.63
563.061	0.63
563.403	0.63
563.745	0.63
564.088	0.64
564.43	0.63
564.772	0.63
565.113	0.64
565.455	0.64
565.797	0.64
566.139	0.64
566.481	0.64
566.822	0.64
567.164	0.65
567.506	0.65
567.847	0.65
568.189	0.65
568.53	0.65
568.872	0.65
569.213	0.65
569.554	0.65
569.895	0.66
570.237	0.65
570.578	0.65
570.919	0.66
571.26	0.65
571.601	0.66
571.942	0.66
572.283	0.66
572.624	0.66
572.965	0.66
573.306	0.66
573.646	0.66
573.987	0.66
574.328	0.65
574.668	0.66
575.009	0.66
575.349	0.66
575.69	0.65
576.03	0.66
576.37	0.66
576.711	0.65
577.051	0.66
577.391	0.65
577.731	0.67
578.072	0.66
578.412	0.66
578.752	0.66
579.092	0.67
579.431	0.66
579.771	0.65
580.111	0.65
580.451	0.65
580.791	0.66
581.13	0.67
581.47	0.66
581.81	0.67
582.149	0.67
582.489	0.67
582.828	0.68
583.167	0.67
583.507	0.64
583.846	0.62
584.185	0.64
584.525	0.66
584.864	0.67
585.203	0.68
585.542	0.69
585.881	0.69
586.22	0.7
586.559	0.7
586.898	0.69
587.236	0.69
587.575	0.69
587.914	0.69
588.252	0.7
588.591	0.7
588.93	0.71
589.268	0.71
589.607	0.71
589.945	0.71
590.283	0.71
590.622	0.72
590.96	0.72
591.298	0.73
591.636	0.73
591.974	0.73
592.313	0.74
592.651	0.74
592.989	0.74
593.326	0.75
593.664	0.75
594.002	0.75
594.34	0.76
594.678	0.76
595.015	0.76
595.353	0.75
595.691	0.75
596.028	0.76
596.366	0.77
596.703	0.78
597.04	0.78
597.378	0.78
597.715	0.78
598.052	0.79
598.389	0.78
598.726	0.79
599.064	0.8
599.401	0.8
599.738	0.8
600.074	0.8
600.411	0.8
600.748	0.8
601.085	0.8
601.422	0.79
601.758	0.8
602.095	0.8
602.432	0.8
602.768	0.8
603.105	0.8
603.441	0.8
603.777	0.8
604.114	0.81
604.45	0.81
604.786	0.81
605.122	0.81
605.459	0.81
605.795	0.81
606.131	0.8
606.467	0.8
606.803	0.81
607.139	0.81
607.474	0.8
607.81	0.81
608.146	0.8
608.482	0.8
608.817	0.8
609.153	0.79
609.488	0.79
609.824	0.79
610.159	0.79
610.495	0.79
610.83	0.79
611.165	0.79
611.5	0.79
611.836	0.79
612.171	0.78
612.506	0.78
612.841	0.78
613.176	0.78
613.511	0.77
613.845	0.77
614.18	0.77
614.515	0.77
614.85	0.77
615.184	0.76
615.519	0.76
615.854	0.76
616.188	0.76
616.523	0.75
616.857	0.75
617.191	0.75
617.526	0.75
617.86	0.75
618.194	0.74
618.528	0.74
618.862	0.74
619.196	0.74
619.53	0.73
619.864	0.73
620.198	0.73
620.532	0.73
620.866	0.73
621.2	0.72
621.533	0.72
621.867	0.72
622.201	0.71
622.534	0.71
622.868	0.71
623.201	0.7
623.534	0.71
623.868	0.71
624.201	0.7
624.534	0.7
624.868	0.7
625.201	0.69
625.534	0.69
625.867	0.69
626.2	0.69
626.533	0.68
626.865	0.68
627.198	0.67
627.531	0.67
627.864	0.67
628.196	0.67
628.529	0.67
628.862	0.66
629.194	0.66
629.527	0.65
629.859	0.65
630.191	0.65
630.524	0.64
630.856	0.64
631.188	0.64
631.52	0.63
631.852	0.63
632.184	0.62
632.516	0.62
632.848	0.61
633.18	0.61
633.512	0.61
633.844	0.6
634.175	0.59
634.507	0.59
634.839	0.58
635.17	0.58
635.502	0.58
635.833	0.58
636.165	0.57
636.496	0.57
636.827	0.56
637.159	0.56
637.49	0.55
637.821	0.55
638.152	0.55
638.483	0.55
638.814	0.54
639.145	0.53
639.476	0.53
639.807	0.52
640.137	0.52
640.468	0.52
640.799	0.51
641.129	0.5
641.46	0.5
641.791	0.5
642.121	0.5
642.451	0.49
642.782	0.49
643.112	0.48
643.442	0.47
643.773	0.48
644.103	0.47
644.433	0.47
644.763	0.47
645.093	0.47
645.423	0.46
645.753	0.46
646.082	0.46
646.412	0.45
646.742	0.45
647.072	0.46
647.401	0.46
647.731	0.45
648.06	0.45
648.39	0.44
648.719	0.45
649.048	0.44
649.378	0.44
649.707	0.44
650.036	0.44
650.365	0.44
650.694	0.43
651.023	0.43
651.352	0.43
651.681	0.43
652.01	0.44
652.339	0.43
652.668	0.43
652.996	0.42
653.325	0.43
653.654	0.43
653.982	0.43
654.311	0.43
654.639	0.42
654.967	0.42
655.296	0.42
655.624	0.42
655.952	0.42
656.28	0.42
656.609	0.42
656.937	0.42
657.265	0.44
657.593	0.41
657.92	0.26
658.248	0.2
658.576	0.18
658.904	0.27
659.231	0.36
659.559	0.4
659.887	0.41
660.214	0.41
660.542	0.42
660.869	0.41
661.196	0.41
661.524	0.41
661.851	0.42
662.178	0.42
662.505	0.41
662.832	0.41
663.159	0.4
663.486	0.41
663.813	0.41
664.14	0.41
664.467	0.41
664.794	0.4
665.12	0.41
665.447	0.4
665.774	0.41
666.1	0.4
666.427	0.4
666.753	0.4
667.079	0.4
667.406	0.4
667.732	0.4
668.058	0.4
668.384	0.4
668.71	0.4
669.036	0.39
669.362	0.39
669.688	0.39
670.014	0.39
670.34	0.39
670.666	0.38
670.991	0.38
671.317	0.38
671.643	0.38
671.968	0.38
672.294	0.38
672.619	0.37
672.945	0.37
673.27	0.37
673.595	0.37
673.92	0.37
674.246	0.36
674.571	0.36
674.896	0.36
675.221	0.36
675.546	0.36
675.87	0.35
676.195	0.35
676.52	0.35
676.845	0.34
677.169	0.34
677.494	0.34
677.819	0.34
678.143	0.34
678.468	0.33
678.792	0.33
679.116	0.33
679.44	0.33
679.765	0.32
680.089	0.32
680.413	0.31
680.737	0.31
681.061	0.31
681.385	0.31
681.709	0.3
682.033	0.3
682.356	0.29
682.68	0.29
683.004	0.29
683.327	0.29
683.651	0.28
683.974	0.28
684.298	0.28
684.621	0.28
684.944	0.27
685.268	0.27
685.591	0.27
685.914	0.27
686.237	0.27
686.56	0.26
686.883	0.26
687.206	0.25
687.529	0.25
687.852	0.24
688.175	0.24
688.497	0.24
688.82	0.24
689.142	0.24
689.465	0.23
689.787	0.23
690.11	0.23
690.432	0.23
690.755	0.22
691.077	0.22
691.399	0.22
691.721	0.22
692.043	0.22
692.365	0.21
692.687	0.21
693.009	0.21
693.331	0.2
693.653	0.2
693.974	0.2
694.296	0.2
694.618	0.2
694.939	0.2
695.261	0.19
695.582	0.19
695.904	0.19
696.225	0.19
696.546	0.18
696.868	0.18
697.189	0.18
697.51	0.18
697.831	0.18
698.152	0.18
698.473	0.18
698.794	0.17
699.114	0.17
699.435	0.17
699.756	0.16
700.077	0.16
700.397	0.16
700.718	0.16
701.038	0.16
701.359	0.16
701.679	0.16
701.999	0.16
702.32	0.16
702.64	0.16
702.96	0.16
703.28	0.16
703.6	0.16
703.92	0.15
704.24	0.15
704.56	0.15
704.879	0.15
705.199	0.15
705.519	0.14
705.838	0.14
706.158	0.14
706.478	0.14
706.797	0.14
707.116	0.14
707.436	0.14
707.755	0.14
708.074	0.14
708.393	0.14
708.712	0.14
709.031	0.14
709.35	0.14
709.669	0.13
709.988	0.13
710.307	0.13
710.626	0.13
710.944	0.13
711.263	0.13
711.582	0.13
711.9	0.13
712.219	0.13
712.537	0.13
712.855	0.13
713.174	0.13
713.492	0.13
713.81	0.13
714.128	0.13
714.446	0.13
714.764	0.13
715.082	0.12
715.4	0.13
715.718	0.13
716.035	0.12
716.353	0.13
716.671	0.13
716.988	0.13
717.306	0.13
717.623	0.13
717.941	0.13
718.258	0.14
718.575	0.14
718.893	0.14
719.21	0.14
719.527	0.13
719.844	0.14
720.161	0.14
720.478	0.14
720.795	0.14
721.112	0.14
721.428	0.14
721.745	0.14
722.062	0.14
722.378	0.14
722.695	0.14
723.011	0.14
723.328	0.14
723.644	0.14
723.96	0.14
724.276	0.14
724.593	0.14
724.909	0.14
725.225	0.15
725.541	0.15
725.857	0.15
726.173	0.15
726.488	0.15
726.804	0.15
727.12	0.15
727.435	0.15
727.751	0.15
728.067	0.15
728.382	0.15
728.697	0.15
729.013	0.15
729.328	0.15
729.643	0.15
729.958	0.15
730.273	0.15
730.588	0.15
730.903	0.15
731.218	0.15
731.533	0.15
731.848	0.15
732.163	0.16
732.477	0.15
732.792	0.15
733.107	0.15
733.421	0.15
733.736	0.15
734.05	0.15
734.364	0.15
734.678	0.16
734.993	0.15
735.307	0.15
735.621	0.15
735.935	0.15
736.249	0.15
736.563	0.15
736.877	0.15
737.19	0.15
737.504	0.15
737.818	0.15
738.131	0.14
738.445	0.14
738.758	0.15
739.072	0.14
739.385	0.14
739.698	0.14
740.012	0.14
740.325	0.14
740.638	0.14
740.951	0.14
741.264	0.14
741.577	0.14
741.89	0.14
742.203	0.14
742.515	0.14
742.828	0.14
743.141	0.14
743.453	0.14
743.766	0.14
744.078	0.14
744.391	0.14
744.703	0.13
745.015	0.13
745.327	0.13
745.639	0.13
745.952	0.13
746.264	0.12
746.575	0.13
746.887	0.12
747.199	0.12
747.511	0.12
747.823	0.12
748.134	0.12
748.446	0.12
748.757	0.12
749.069	0.11
749.38	0.11
749.692	0.11
750.003	0.11
750.314	0.11
750.625	0.11
750.936	0.11
751.248	0.1
751.559	0.11
751.869	0.1
752.18	0.1
752.491	0.1
752.802	0.1
753.112	0.1
753.423	0.09
753.734	0.09
754.044	0.09
754.355	0.09
754.665	0.09
754.975	0.09
755.285	0.08
755.596	0.08
755.906	0.08
756.216	0.08
756.526	0.08
756.836	0.08
757.146	0.08
757.455	0.08
757.765	0.08
758.075	0.07
758.385	0.07
758.694	0.07
759.004	0.07
759.313	0.07
759.622	0.07
759.932	0.07
760.241	0.07
760.55	0.07
760.859	0.07
761.168	0.07
761.477	0.07
761.786	0.07
762.095	0.06
762.404	0.06
762.713	0.06
763.021	0.06
763.33	0.06
763.639	0.05
763.947	0.05
764.256	0.05
764.564	0.05
764.872	0.05
765.181	0.05
765.489	0.05
765.797	0.05
766.105	0.05
766.413	0.05
766.721	0.05
767.029	0.05
767.337	0.05
767.644	0.05
767.952	0.05
768.26	0.05
768.567	0.05
768.875	0.05
769.182	0.05
769.49	0.05
769.797	0.04
770.104	0.04
770.411	0.04
770.718	0.04
771.026	0.04
771.333	0.04
771.639	0.04
771.946	0.04
772.253	0.04
772.56	0.04
772.867	0.04
773.173	0.04
773.48	0.04
773.786	0.04
774.093	0.04
774.399	0.04
774.705	0.03
775.012	0.03
775.318	0.03
775.624	0.03
775.93	0.03
776.236	0.03
776.542	0.04
776.848	0.04
777.154	0.04
777.459	0.04
777.765	0.04
778.071	0.04
778.376	0.04
778.682	0.03
778.987	0.03
779.292	0.03
779.598	0.03
779.903	0.04
780.208	0.04
780.513	0.03
780.818	0.03
781.123	0.03
781.428	0.04
781.733	0.04
782.038	0.03
782.343	0.03
782.647	0.04
782.952	0.04
783.256	0.04
783.561	0.04
783.865	0.04
784.17	0.04
784.474	0.04
784.778	0.04
785.082	0.03
785.386	0.04
785.69	0.04
785.994	0.04
786.298	0.03
786.602	0.04
786.906	0.03
787.209	0.03
787.513	0.03
787.817	0.03
788.12	0.03
788.424	0.03
788.727	0.03
789.03	0.04
789.333	0.03
789.637	0.04
789.94	0.03
790.243	0.04
790.546	0.04
790.849	0.04
791.152	0.03
791.454	0.03
791.757	0.03
792.06	0.04
792.362	0.04
792.665	0.03
792.967	0.03
793.27	0.03
793.572	0.03
793.874	0.03
794.177	0.03
794.479	0.02
794.781	0.03
795.083	0.03
795.385	0.03
795.687	0.03
795.989	0.03
796.29	0.03
796.592	0.03
796.894	0.03
797.195	0.03
797.497	0.03
797.798	0.03
798.1	0.03
798.401	0.03
798.702	0.03
799.003	0.03
799.304	0.03
799.605	0.03
799.906	0.03
800.207	0.03
800.508	0.04
800.809	0.03
801.11	0.04
801.41	0.03
801.711	0.04
802.011	0.04
802.312	0.04
802.612	0.03
802.913	0.04
803.213	0.04
803.513	0.04
803.813	0.04
804.113	0.04
804.413	0.04
804.713	0.04
805.013	0.04
805.313	0.04
805.613	0.04
805.912	0.04
806.212	0.04
806.511	0.04
806.811	0.04
807.11	0.04
807.41	0.04
807.709	0.04
808.008	0.04
808.307	0.03
808.606	0.03
808.905	0.03
809.204	0.03
809.503	0.03
809.802	0.03
810.101	0.03
810.399	0.03
810.698	0.03
810.997	0.03
811.295	0.03
811.593	0.03
811.892	0.03
812.19	0.03
812.488	0.03
812.786	0.03
813.084	0.03
813.383	0.03
813.68	0.03
813.978	0.03
814.276	0.02
814.574	0.03
814.872	0.02
815.169	0.03
815.467	0.02
815.764	0.03
816.062	0.03
816.359	0.03
816.656	0.03
816.954	0.02
817.251	0.02
817.548	0.02
817.845	0.03
818.142	0.03
818.439	0.03
818.735	0.03
819.032	0.03
819.329	0.03
819.626	0.03
819.922	0.03
820.219	0.03
820.515	0.03
820.811	0.03
821.108	0.03
821.404	0.03
821.7	0.02
821.996	0.03
822.292	0.02
822.588	0.03
822.884	0.03
823.18	0.02
823.475	0.03
823.771	0.03
824.067	0.03
824.362	0.04
824.658	0.03
824.953	0.04
825.249	0.04
825.544	0.04
825.839	0.04
826.134	0.04
826.429	0.04
826.724	0.04
827.019	0.03
827.314	0.03
827.609	0.03
827.904	0.04
828.198	0.03
828.493	0.03
828.787	0.03
829.082	0.03
829.376	0.03
829.671	0.02
829.965	0.03
830.259	0.03
830.553	0.03
830.847	0.03
831.141	0.03
831.435	0.03
831.729	0.03
832.023	0.04
832.317	0.04
832.61	0.04
832.904	0.03
833.197	0.03
833.491	0.04
833.784	0.03
834.077	0.03
834.371	0.04
834.664	0.04
834.957	0.04
835.25	0.03
835.543	0.03
835.836	0.04
836.129	0.04
836.421	0.03
836.714	0.04
837.007	0.04
837.299	0.04
837.592	0.04
837.884	0.04
838.177	0.04
838.469	0.04
838.761	0.04
839.053	0.04
839.345	0.04
839.637	0.05
839.929	0.03
840.221	0.04
840.513	0.04
840.805	0.03
841.096	0.04
841.388	0.04
841.68	0.03
841.971	0.04
842.262	0.03
842.554	0.04
842.845	0.03
843.136	0.03
843.427	0.03
843.718	0.03
844.009	0.03
844.3	0.03
844.591	0.03
844.882	0.03
845.173	0.04
845.463	0.03
845.754	0.04
846.044	0.03
846.335	0.02
846.625	0.04
846.915	0.03
847.206	0.04
847.496	0.04
847.786	0.04
848.076	0.03
848.366	0.04
848.656	0.05
848.945	0.03
849.235	0.05
849.525	0.05
849.814	0.04
850.104	0.05
850.393	0.03
850.683	0.04
850.972	0.04
851.261	0.04
851.551	0.05
851.84	0.03
852.129	0.04
852.418	0.04
852.707	0.02
852.995	0.03
853.284	0.02
853.573	0.03
853.862	0.03
854.15	0.02
854.439	0.03
854.727	0.04
855.015	0.04
855.304	0.03
855.592	0.03
855.88	0.04
856.168	0.03
856.456	0.03
856.744	0.04
857.032	0.05
857.32	0.04
857.607	0.04
857.895	0.05
858.183	0.05
858.47	0.04
858.757	0.02
859.045	0.05
859.332	0.03
859.619	0.03
859.907	0.04
860.194	0.04
860.481	0.04
860.768	0.04
861.054	0.03
861.341	0.04
861.628	0.05
861.915	0.04
862.201	0.04
862.488	0.02
862.774	0.02
863.061	0.02
863.347	0.02
863.633	0.06
863.919	0.04
864.205	0.04
864.491	0.05
864.777	0.03
865.063	0.03
865.349	0.02
865.635	0.02
865.92	0.03
866.206	0.04
866.492	0.02
866.777	0.04
867.062	0.02
867.348	0.02
867.633	0.04
867.918	0.04
868.203	0.04
868.488	0.04
868.773	0.05
869.058	0.05
869.343	0.04
869.628	0.05
869.912	0.05
870.197	0.01
870.482	0.05
870.766	0.06
871.05	0.06
871.335	0.05
871.619	0.07
871.903	0.08
872.187	0.05
872.471	0.01
872.755	0.01
873.039	0.06
873.323	0.04
873.607	0.04
873.89	0.02
874.174	0.05
874.458	0.05
874.741	0.03
875.024	0.03
875.308	-0.02
875.591	0.15
875.874	0.02
876.157	0.06
876.44	-0.03
876.723	0.06
877.006	0.08
877.289	0.1
877.572	0.05
877.854	0.14
878.137	0.08
878.42	0.05
878.702	0.06
878.984	0.03
879.267	0.11
879.549	0.12
879.831	0.13
880.113	0.14
880.395	0.17
880.677	0.11
880.959	-0.01
