Data from Rubpy_EV_1500_EDTA_Buffered_Absorbance_14-51-55-925.txt Node
Date: Tue Jun 30 14:51:55 BST 2026
User: fpm-admin
Spectrometer: OFX00224
Trigger mode: 0
Integration Time (sec): 7.000000E-2
Scans to average: 3
Nonlinearity correction enabled: false
Boxcar width: 0
Storing dark spectrum: false
XAxis mode: Wavelengths
Number of Pixels in Spectrum: 2136
>>>>>Begin Spectral Data<<<<<
154.91	-0
155.289	-0.03
155.669	-0
156.048	0.05
156.428	-0.45
156.807	0.56
157.186	0.22
157.566	0.32
157.945	0.3
158.325	-1.08
158.704	-0
159.083	0.1
159.462	-0
159.842	-0
160.221	0.04
160.6	-0
160.979	0.21
161.359	-0.23
161.738	-0.16
162.117	-0
162.496	0.72
162.875	-0
163.254	-0
163.633	0.15
164.012	0.26
164.391	0.51
164.77	0.22
165.149	-0
165.528	-0.13
165.907	-0.1
166.286	-0.24
166.665	-0
167.044	0.03
167.423	-0
167.802	-0
168.181	0.26
168.559	-0.24
168.938	0.12
169.317	-0
169.696	-0
170.074	0.24
170.453	-0.24
170.832	0.63
171.21	-0.13
171.589	-0
171.968	0.02
172.346	-0
172.725	-0.48
173.103	-0.19
173.482	-0.65
173.861	-0.51
174.239	-0.14
174.617	-0
174.996	-0.26
175.374	-0
175.753	0.81
176.131	-0
176.51	-0
176.888	-0.28
177.266	-0
177.645	-0.09
178.023	0.32
178.401	-0.31
178.779	-0.22
179.158	0.73
179.536	-0
179.914	0.14
180.292	0.16
180.67	0.11
181.048	0.43
181.427	0.68
181.805	-0.72
182.183	-0
182.561	0.01
182.939	-1
183.317	-0
183.695	0.15
184.073	-0.06
184.451	0.29
184.829	-0.43
185.206	0.36
185.584	0.13
185.962	0.26
186.34	-0
186.718	-0.35
187.096	-0
187.473	-0
187.851	0.08
188.229	0.88
188.607	0.19
188.984	0.33
189.362	0.15
189.74	0.16
190.117	0.13
190.495	0.13
190.872	0.11
191.25	0.15
191.627	0.08
192.005	0.18
192.382	0.3
192.76	0.13
193.137	0.24
193.515	0.28
193.892	0.12
194.269	0.22
194.647	0.06
195.024	0.16
195.401	0.12
195.779	0.3
196.156	0.24
196.533	0.13
196.91	0.15
197.288	0.06
197.665	0.21
198.042	-0.02
198.419	0.13
198.796	0.12
199.173	0.06
199.55	0.06
199.927	0.23
200.304	0.1
200.681	0.06
201.058	0.08
201.435	0.14
201.812	0.1
202.189	0.12
202.566	0.17
202.943	0.06
203.32	0.15
203.697	0.23
204.073	0.17
204.45	0.11
204.827	0.2
205.204	0.17
205.58	0.11
205.957	0.16
206.334	0.09
206.71	0.09
207.087	0.25
207.464	0.18
207.84	0.19
208.217	0.18
208.593	0.1
208.97	0.14
209.346	0.24
209.723	0.19
210.099	0.03
210.476	0.24
210.852	0.16
211.228	0.11
211.605	0.3
211.981	0.22
212.357	0.17
212.733	0.14
213.11	0.26
213.486	0.21
213.862	0.21
214.238	0.08
214.614	0.18
214.991	0.14
215.367	0.15
215.743	0.19
216.119	0.09
216.495	0.19
216.871	0.35
217.247	0.04
217.623	0.14
217.999	0.18
218.375	0.2
218.751	0.2
219.127	0.11
219.502	0.22
219.878	0.11
220.254	0.17
220.63	0.14
221.006	0.08
221.381	0.17
221.757	0.18
222.133	0.33
222.508	0.04
222.884	0.22
223.26	0.1
223.635	0.16
224.011	0.13
224.386	0.13
224.762	0.13
225.137	0.14
225.513	0.23
225.888	0.06
226.264	0.32
226.639	0.2
227.014	0.19
227.39	0.2
227.765	0.39
228.14	0.25
228.516	0.22
228.891	0.2
229.266	0.2
229.641	0.15
230.017	0.24
230.392	0.12
230.767	0.19
231.142	0.22
231.517	0.13
231.892	0.24
232.267	0.25
232.642	0.26
233.017	0.18
233.392	0.16
233.767	0.24
234.142	0.16
234.517	0.1
234.892	0.13
235.267	0.18
235.641	0.2
236.016	0.1
236.391	0.11
236.766	0.26
237.14	0.18
237.515	0.14
237.89	0.15
238.264	0.12
238.639	0.19
239.014	0.25
239.388	0.13
239.763	0.15
240.137	0.08
240.512	0.07
240.886	0.17
241.261	0.18
241.635	0.26
242.009	0.21
242.384	0.25
242.758	0.16
243.132	0.15
243.507	0.16
243.881	0.13
244.255	0.16
244.629	0.24
245.004	0.14
245.378	0.14
245.752	0.14
246.126	0.18
246.5	0.36
246.874	0.11
247.248	0.2
247.622	0.21
247.996	0.26
248.37	0.15
248.744	0.24
249.118	0.08
249.492	0.25
249.866	0.16
250.24	0.14
250.613	0.16
250.987	0.09
251.361	0.23
251.735	0.13
252.108	0.15
252.482	0.11
252.856	0.28
253.229	0.12
253.603	0.17
253.977	0.36
254.35	0.17
254.724	0.16
255.097	0.09
255.471	0.16
255.844	0.21
256.218	0.2
256.591	0.1
256.964	0.17
257.338	0.15
257.711	0.26
258.084	0.18
258.458	0.22
258.831	0.19
259.204	0.11
259.577	0.16
259.95	0.21
260.323	0.14
260.697	0.18
261.07	0.17
261.443	0.17
261.816	0.07
262.189	0.14
262.562	0.25
262.935	0.13
263.308	0.2
263.68	0.21
264.053	0.18
264.426	0.2
264.799	0.22
265.172	0.19
265.545	0.17
265.917	0.2
266.29	0.12
266.663	0.28
267.035	0.21
267.408	0.13
267.781	0.15
268.153	0.18
268.526	0.2
268.898	0.19
269.271	0.22
269.643	0.2
270.016	0.16
270.388	0.27
270.76	0.12
271.133	0.21
271.505	0.14
271.877	0.15
272.25	0.22
272.622	0.24
272.994	0.22
273.366	0.14
273.739	0.24
274.111	0.15
274.483	0.16
274.855	0.17
275.227	0.21
275.599	0.16
275.971	0.11
276.343	0.22
276.715	0.17
277.087	0.2
277.459	0.16
277.831	0.24
278.203	0.12
278.574	0.22
278.946	0.25
279.318	0.19
279.69	0.17
280.061	0.18
280.433	0.22
280.805	0.14
281.176	0.21
281.548	0.1
281.92	0.21
282.291	0.16
282.663	0.24
283.034	0.23
283.406	0.14
283.777	0.23
284.148	0.14
284.52	0.28
284.891	0.24
285.262	0.19
285.634	0.17
286.005	0.15
286.376	0.15
286.747	0.15
287.119	0.23
287.49	0.1
287.861	0.17
288.232	0.13
288.603	0.18
288.974	0.17
289.345	0.11
289.716	0.22
290.087	0.2
290.458	0.24
290.829	0.22
291.2	0.17
291.571	0.16
291.941	0.18
292.312	0.18
292.683	0.2
293.054	0.19
293.424	0.1
293.795	0.13
294.166	0.17
294.536	0.2
294.907	0.16
295.277	0.23
295.648	0.14
296.018	0.22
296.389	0.21
296.759	0.1
297.13	0.2
297.5	0.16
297.871	0.18
298.241	0.16
298.611	0.16
298.981	0.17
299.352	0.18
299.722	0.13
300.092	0.09
300.462	0.14
300.832	0.16
301.202	0.15
301.573	0.16
301.943	0.15
302.313	0.15
302.683	0.13
303.053	0.14
303.422	0.15
303.792	0.13
304.162	0.14
304.532	0.14
304.902	0.13
305.272	0.15
305.641	0.12
306.011	0.14
306.381	0.14
306.75	0.14
307.12	0.13
307.49	0.14
307.859	0.15
308.229	0.14
308.598	0.16
308.968	0.15
309.337	0.15
309.707	0.15
310.076	0.15
310.445	0.15
310.815	0.15
311.184	0.15
311.553	0.15
311.923	0.15
312.292	0.15
312.661	0.16
313.03	0.16
313.399	0.16
313.768	0.17
314.137	0.16
314.506	0.16
314.875	0.16
315.244	0.16
315.613	0.15
315.982	0.16
316.351	0.16
316.72	0.15
317.089	0.15
317.458	0.15
317.826	0.15
318.195	0.15
318.564	0.15
318.933	0.15
319.301	0.15
319.67	0.15
320.038	0.14
320.407	0.14
320.775	0.14
321.144	0.14
321.512	0.14
321.881	0.14
322.249	0.14
322.618	0.14
322.986	0.14
323.354	0.13
323.723	0.14
324.091	0.14
324.459	0.13
324.827	0.13
325.195	0.13
325.564	0.12
325.932	0.13
326.3	0.13
326.668	0.12
327.036	0.12
327.404	0.13
327.772	0.13
328.14	0.13
328.508	0.13
328.875	0.12
329.243	0.13
329.611	0.13
329.979	0.13
330.346	0.13
330.714	0.13
331.082	0.13
331.449	0.13
331.817	0.14
332.185	0.13
332.552	0.13
332.92	0.14
333.287	0.13
333.655	0.14
334.022	0.14
334.389	0.14
334.757	0.14
335.124	0.15
335.491	0.15
335.859	0.15
336.226	0.15
336.593	0.16
336.96	0.15
337.327	0.15
337.695	0.16
338.062	0.16
338.429	0.16
338.796	0.17
339.163	0.16
339.53	0.17
339.897	0.17
340.263	0.17
340.63	0.18
340.997	0.18
341.364	0.18
341.731	0.19
342.097	0.19
342.464	0.19
342.831	0.2
343.197	0.2
343.564	0.2
343.931	0.2
344.297	0.21
344.664	0.21
345.03	0.21
345.396	0.22
345.763	0.22
346.129	0.22
346.496	0.22
346.862	0.22
347.228	0.23
347.594	0.24
347.961	0.24
348.327	0.24
348.693	0.24
349.059	0.25
349.425	0.25
349.791	0.26
350.157	0.26
350.523	0.27
350.889	0.27
351.255	0.28
351.621	0.29
351.987	0.29
352.353	0.3
352.719	0.3
353.084	0.3
353.45	0.31
353.816	0.32
354.181	0.32
354.547	0.33
354.913	0.34
355.278	0.34
355.644	0.35
356.009	0.36
356.375	0.36
356.74	0.37
357.106	0.38
357.471	0.38
357.836	0.4
358.202	0.4
358.567	0.4
358.932	0.42
359.297	0.42
359.663	0.43
360.028	0.44
360.393	0.44
360.758	0.45
361.123	0.45
361.488	0.46
361.853	0.46
362.218	0.47
362.583	0.47
362.948	0.48
363.312	0.48
363.677	0.49
364.042	0.5
364.407	0.51
364.772	0.52
365.136	0.52
365.501	0.54
365.865	0.54
366.23	0.56
366.595	0.57
366.959	0.58
367.324	0.59
367.688	0.6
368.052	0.61
368.417	0.62
368.781	0.63
369.145	0.63
369.51	0.63
369.874	0.64
370.238	0.65
370.602	0.65
370.967	0.64
371.331	0.64
371.695	0.63
372.059	0.63
372.423	0.63
372.787	0.62
373.151	0.62
373.515	0.62
373.878	0.62
374.242	0.62
374.606	0.61
374.97	0.62
375.334	0.63
375.697	0.62
376.061	0.62
376.425	0.63
376.788	0.63
377.152	0.64
377.515	0.65
377.879	0.65
378.242	0.66
378.606	0.67
378.969	0.67
379.333	0.68
379.696	0.69
380.059	0.7
380.422	0.7
380.786	0.72
381.149	0.73
381.512	0.75
381.875	0.77
382.238	0.78
382.601	0.8
382.964	0.82
383.327	0.84
383.69	0.86
384.053	0.88
384.416	0.9
384.779	0.93
385.142	0.94
385.504	0.96
385.867	0.97
386.23	0.98
386.593	0.99
386.955	0.99
387.318	0.98
387.68	0.99
388.043	0.98
388.405	0.96
388.768	0.97
389.13	0.97
389.493	0.96
389.855	0.94
390.217	0.95
390.58	0.94
390.942	0.94
391.304	0.96
391.666	0.96
392.028	0.98
392.391	1
392.753	1.02
393.115	1.06
393.477	1.09
393.839	1.14
394.201	1.18
394.563	1.22
394.924	1.27
395.286	1.31
395.648	1.34
396.01	1.38
396.371	1.43
396.733	1.43
397.095	1.47
397.456	1.46
397.818	1.45
398.18	1.45
398.541	1.43
398.903	1.41
399.264	1.38
399.625	1.34
399.987	1.29
400.348	1.22
400.709	1.17
401.071	1.13
401.432	1.06
401.793	0.99
402.154	0.92
402.515	0.86
402.876	0.8
403.238	0.75
403.599	0.7
403.96	0.65
404.32	0.6
404.681	0.56
405.042	0.52
405.403	0.49
405.764	0.45
406.125	0.42
406.485	0.39
406.846	0.37
407.207	0.35
407.567	0.32
407.928	0.31
408.288	0.29
408.649	0.27
409.009	0.26
409.37	0.24
409.73	0.23
410.091	0.22
410.451	0.21
410.811	0.2
411.171	0.19
411.532	0.19
411.892	0.18
412.252	0.17
412.612	0.16
412.972	0.15
413.332	0.15
413.692	0.14
414.052	0.15
414.412	0.14
414.772	0.14
415.132	0.13
415.492	0.13
415.851	0.13
416.211	0.12
416.571	0.12
416.931	0.12
417.29	0.11
417.65	0.1
418.009	0.1
418.369	0.1
418.728	0.1
419.088	0.09
419.447	0.09
419.807	0.09
420.166	0.09
420.525	0.09
420.884	0.09
421.244	0.08
421.603	0.09
421.962	0.08
422.321	0.08
422.68	0.08
423.039	0.08
423.398	0.08
423.757	0.08
424.116	0.08
424.475	0.08
424.834	0.07
425.193	0.07
425.551	0.07
425.91	0.07
426.269	0.07
426.628	0.07
426.986	0.06
427.345	0.06
427.703	0.07
428.062	0.07
428.42	0.06
428.779	0.07
429.137	0.07
429.496	0.07
429.854	0.06
430.212	0.07
430.57	0.06
430.929	0.06
431.287	0.06
431.645	0.06
432.003	0.06
432.361	0.06
432.719	0.06
433.077	0.06
433.435	0.06
433.793	0.06
434.151	0.05
434.509	0.06
434.866	0.06
435.224	0.05
435.582	0.06
435.94	0.05
436.297	0.06
436.655	0.05
437.012	0.05
437.37	0.06
437.727	0.05
438.085	0.05
438.442	0.06
438.8	0.05
439.157	0.05
439.514	0.05
439.872	0.04
440.229	0.05
440.586	0.05
440.943	0.04
441.3	0.06
441.657	0.04
442.014	0.05
442.371	0.05
442.728	0.05
443.085	0.03
443.442	0.05
443.799	0.04
444.156	0.04
444.513	0.03
444.869	0.04
445.226	0.04
445.583	0.04
445.939	0.04
446.296	0.04
446.652	0.04
447.009	0.04
447.365	0.03
447.722	0.04
448.078	0.03
448.434	0.04
448.791	0.04
449.147	0.02
449.503	0.03
449.859	0.03
450.215	0.03
450.571	0.04
450.928	0.03
451.284	0.03
451.64	0.02
451.995	0.02
452.351	0.02
452.707	0.03
453.063	0.02
453.419	0.03
453.775	0.02
454.13	0.02
454.486	0.02
454.842	0.02
455.197	0.02
455.553	0
455.908	0.02
456.264	0
456.619	0
456.975	0.02
457.33	0
457.685	0
458.04	0.01
458.396	-0
458.751	-0
459.106	0
459.461	-0.01
459.816	0
460.171	-0.01
460.526	-0.01
460.881	-0
461.236	-0.02
461.591	-0.01
461.946	-0.02
462.301	-0.02
462.655	-0.02
463.01	-0.02
463.365	-0.02
463.719	-0.02
464.074	-0.03
464.428	-0.04
464.783	-0.04
465.137	-0.04
465.492	-0.04
465.846	-0.04
466.201	-0.03
466.555	-0.04
466.909	-0.04
467.263	-0.03
467.618	-0.03
467.972	-0.03
468.326	-0.04
468.68	-0.04
469.034	-0.04
469.388	-0.04
469.742	-0.04
470.096	-0.04
470.45	-0.04
470.804	-0.04
471.157	-0.04
471.511	-0.04
471.865	-0.03
472.218	-0.03
472.572	-0.04
472.926	-0.03
473.279	-0.03
473.633	-0.03
473.986	-0.02
474.34	-0.02
474.693	-0.02
475.046	-0.01
475.4	-0.01
475.753	-0.01
476.106	-0.01
476.459	0
476.812	0
477.165	0
477.519	0.01
477.872	0.01
478.224	0.01
478.577	0.01
478.93	0.02
479.283	0.02
479.636	0.02
479.989	0.02
480.341	0.03
480.694	0.03
481.047	0.03
481.399	0.03
481.752	0.03
482.104	0.04
482.457	0.04
482.809	0.04
483.162	0.05
483.514	0.04
483.866	0.05
484.219	0.04
484.571	0.05
484.923	0.05
485.275	0.05
485.627	0.05
485.979	0.06
486.331	0.05
486.683	0.06
487.035	0.06
487.387	0.06
487.739	0.07
488.091	0.07
488.443	0.06
488.794	0.06
489.146	0.07
489.498	0.07
489.849	0.07
490.201	0.07
490.552	0.07
490.904	0.07
491.255	0.07
491.607	0.07
491.958	0.07
492.309	0.07
492.661	0.07
493.012	0.08
493.363	0.08
493.714	0.08
494.065	0.08
494.416	0.08
494.767	0.08
495.118	0.08
495.469	0.09
495.82	0.08
496.171	0.09
496.522	0.09
496.872	0.09
497.223	0.09
497.574	0.1
497.924	0.1
498.275	0.1
498.626	0.09
498.976	0.1
499.327	0.1
499.677	0.1
500.027	0.11
500.378	0.1
500.728	0.11
501.078	0.11
501.428	0.11
501.779	0.11
502.129	0.11
502.479	0.11
502.829	0.11
503.179	0.11
503.529	0.11
503.879	0.12
504.229	0.12
504.578	0.13
504.928	0.12
505.278	0.12
505.628	0.13
505.977	0.13
506.327	0.13
506.676	0.13
507.026	0.13
507.375	0.13
507.725	0.13
508.074	0.13
508.424	0.14
508.773	0.13
509.122	0.14
509.471	0.14
509.82	0.14
510.17	0.14
510.519	0.15
510.868	0.14
511.217	0.14
511.566	0.15
511.915	0.15
512.263	0.15
512.612	0.15
512.961	0.15
513.31	0.15
513.659	0.15
514.007	0.15
514.356	0.15
514.704	0.16
515.053	0.16
515.401	0.16
515.75	0.17
516.098	0.16
516.447	0.17
516.795	0.16
517.143	0.17
517.491	0.17
517.839	0.17
518.188	0.17
518.536	0.17
518.884	0.17
519.232	0.17
519.58	0.17
519.928	0.18
520.275	0.18
520.623	0.18
520.971	0.18
521.319	0.19
521.666	0.19
522.014	0.18
522.362	0.19
522.709	0.19
523.057	0.19
523.404	0.19
523.752	0.2
524.099	0.19
524.446	0.19
524.794	0.2
525.141	0.2
525.488	0.2
525.835	0.2
526.182	0.21
526.529	0.21
526.876	0.21
527.223	0.21
527.57	0.21
527.917	0.21
528.264	0.21
528.611	0.21
528.958	0.21
529.304	0.21
529.651	0.22
529.998	0.22
530.344	0.22
530.691	0.22
531.037	0.22
531.384	0.23
531.73	0.23
532.076	0.23
532.423	0.23
532.769	0.23
533.115	0.23
533.461	0.24
533.807	0.24
534.154	0.24
534.5	0.24
534.846	0.24
535.192	0.24
535.537	0.24
535.883	0.25
536.229	0.25
536.575	0.25
536.921	0.25
537.266	0.25
537.612	0.26
537.957	0.26
538.303	0.26
538.649	0.26
538.994	0.26
539.339	0.27
539.685	0.27
540.03	0.27
540.375	0.27
540.721	0.27
541.066	0.27
541.411	0.27
541.756	0.28
542.101	0.28
542.446	0.28
542.791	0.28
543.136	0.28
543.481	0.29
543.825	0.29
544.17	0.29
544.515	0.29
544.86	0.3
545.204	0.3
545.549	0.29
545.893	0.3
546.238	0.3
546.582	0.3
546.927	0.31
547.271	0.31
547.615	0.31
547.96	0.32
548.304	0.31
548.648	0.32
548.992	0.32
549.336	0.32
549.68	0.32
550.024	0.33
550.368	0.32
550.712	0.33
551.056	0.33
551.4	0.33
551.743	0.33
552.087	0.34
552.431	0.34
552.774	0.34
553.118	0.34
553.462	0.34
553.805	0.34
554.148	0.34
554.492	0.34
554.835	0.34
555.178	0.35
555.522	0.35
555.865	0.35
556.208	0.35
556.551	0.35
556.894	0.35
557.237	0.35
557.58	0.35
557.923	0.36
558.266	0.36
558.609	0.36
558.952	0.36
559.294	0.37
559.637	0.36
559.98	0.36
560.322	0.36
560.665	0.37
561.007	0.36
561.35	0.37
561.692	0.37
562.034	0.37
562.377	0.37
562.719	0.37
563.061	0.37
563.403	0.38
563.745	0.37
564.088	0.38
564.43	0.38
564.772	0.38
565.113	0.38
565.455	0.37
565.797	0.38
566.139	0.38
566.481	0.38
566.822	0.38
567.164	0.38
567.506	0.38
567.847	0.38
568.189	0.38
568.53	0.38
568.872	0.38
569.213	0.39
569.554	0.39
569.895	0.38
570.237	0.38
570.578	0.38
570.919	0.38
571.26	0.38
571.601	0.39
571.942	0.38
572.283	0.38
572.624	0.38
572.965	0.38
573.306	0.38
573.646	0.38
573.987	0.39
574.328	0.38
574.668	0.39
575.009	0.39
575.349	0.38
575.69	0.38
576.03	0.38
576.37	0.38
576.711	0.38
577.051	0.38
577.391	0.38
577.731	0.39
578.072	0.39
578.412	0.38
578.752	0.39
579.092	0.39
579.431	0.38
579.771	0.37
580.111	0.37
580.451	0.37
580.791	0.38
581.13	0.39
581.47	0.39
581.81	0.39
582.149	0.39
582.489	0.39
582.828	0.39
583.167	0.38
583.507	0.36
583.846	0.33
584.185	0.36
584.525	0.38
584.864	0.39
585.203	0.4
585.542	0.4
585.881	0.4
586.22	0.41
586.559	0.4
586.898	0.4
587.236	0.4
587.575	0.4
587.914	0.4
588.252	0.41
588.591	0.41
588.93	0.42
589.268	0.41
589.607	0.41
589.945	0.42
590.283	0.42
590.622	0.42
590.96	0.43
591.298	0.43
591.636	0.43
591.974	0.43
592.313	0.43
592.651	0.44
592.989	0.44
593.326	0.44
593.664	0.44
594.002	0.44
594.34	0.44
594.678	0.44
595.015	0.44
595.353	0.44
595.691	0.44
596.028	0.45
596.366	0.45
596.703	0.46
597.04	0.46
597.378	0.46
597.715	0.46
598.052	0.46
598.389	0.47
598.726	0.47
599.064	0.47
599.401	0.47
599.738	0.47
600.074	0.47
600.411	0.47
600.748	0.47
601.085	0.47
601.422	0.47
601.758	0.47
602.095	0.47
602.432	0.47
602.768	0.47
603.105	0.47
603.441	0.48
603.777	0.48
604.114	0.48
604.45	0.48
604.786	0.48
605.122	0.48
605.459	0.48
605.795	0.48
606.131	0.48
606.467	0.48
606.803	0.48
607.139	0.48
607.474	0.47
607.81	0.47
608.146	0.47
608.482	0.47
608.817	0.47
609.153	0.47
609.488	0.46
609.824	0.47
610.159	0.47
610.495	0.46
610.83	0.46
611.165	0.46
611.5	0.47
611.836	0.46
612.171	0.46
612.506	0.46
612.841	0.46
613.176	0.46
613.511	0.46
613.845	0.45
614.18	0.45
614.515	0.46
614.85	0.45
615.184	0.45
615.519	0.45
615.854	0.45
616.188	0.45
616.523	0.45
616.857	0.45
617.191	0.45
617.526	0.44
617.86	0.44
618.194	0.44
618.528	0.44
618.862	0.44
619.196	0.44
619.53	0.44
619.864	0.44
620.198	0.43
620.532	0.43
620.866	0.43
621.2	0.43
621.533	0.42
621.867	0.42
622.201	0.42
622.534	0.42
622.868	0.42
623.201	0.42
623.534	0.42
623.868	0.42
624.201	0.42
624.534	0.41
624.868	0.41
625.201	0.41
625.534	0.41
625.867	0.41
626.2	0.41
626.533	0.41
626.865	0.4
627.198	0.4
627.531	0.4
627.864	0.4
628.196	0.4
628.529	0.4
628.862	0.39
629.194	0.39
629.527	0.39
629.859	0.39
630.191	0.38
630.524	0.38
630.856	0.38
631.188	0.38
631.52	0.38
631.852	0.37
632.184	0.37
632.516	0.37
632.848	0.36
633.18	0.36
633.512	0.36
633.844	0.36
634.175	0.35
634.507	0.35
634.839	0.35
635.17	0.35
635.502	0.34
635.833	0.34
636.165	0.34
636.496	0.34
636.827	0.34
637.159	0.33
637.49	0.33
637.821	0.33
638.152	0.32
638.483	0.32
638.814	0.32
639.145	0.32
639.476	0.31
639.807	0.31
640.137	0.31
640.468	0.31
640.799	0.3
641.129	0.3
641.46	0.3
641.791	0.29
642.121	0.29
642.451	0.29
642.782	0.29
643.112	0.29
643.442	0.28
643.773	0.28
644.103	0.28
644.433	0.28
644.763	0.28
645.093	0.27
645.423	0.27
645.753	0.27
646.082	0.27
646.412	0.27
646.742	0.27
647.072	0.27
647.401	0.27
647.731	0.27
648.06	0.27
648.39	0.26
648.719	0.27
649.048	0.26
649.378	0.26
649.707	0.26
650.036	0.26
650.365	0.26
650.694	0.25
651.023	0.25
651.352	0.25
651.681	0.25
652.01	0.26
652.339	0.25
652.668	0.25
652.996	0.25
653.325	0.25
653.654	0.25
653.982	0.25
654.311	0.25
654.639	0.25
654.967	0.25
655.296	0.25
655.624	0.25
655.952	0.25
656.28	0.25
656.609	0.25
656.937	0.25
657.265	0.25
657.593	0.21
657.92	0.09
658.248	0.03
658.576	0.03
658.904	0.12
659.231	0.21
659.559	0.24
659.887	0.25
660.214	0.25
660.542	0.25
660.869	0.24
661.196	0.25
661.524	0.25
661.851	0.25
662.178	0.25
662.505	0.24
662.832	0.24
663.159	0.24
663.486	0.24
663.813	0.24
664.14	0.24
664.467	0.24
664.794	0.24
665.12	0.24
665.447	0.24
665.774	0.24
666.1	0.24
666.427	0.24
666.753	0.24
667.079	0.24
667.406	0.24
667.732	0.24
668.058	0.24
668.384	0.24
668.71	0.24
669.036	0.24
669.362	0.23
669.688	0.23
670.014	0.23
670.34	0.23
670.666	0.23
670.991	0.23
671.317	0.23
671.643	0.23
671.968	0.22
672.294	0.22
672.619	0.22
672.945	0.22
673.27	0.22
673.595	0.22
673.92	0.22
674.246	0.22
674.571	0.22
674.896	0.22
675.221	0.22
675.546	0.21
675.87	0.21
676.195	0.21
676.52	0.21
676.845	0.2
677.169	0.2
677.494	0.21
677.819	0.2
678.143	0.2
678.468	0.2
678.792	0.2
679.116	0.2
679.44	0.19
679.765	0.19
680.089	0.19
680.413	0.19
680.737	0.19
681.061	0.19
681.385	0.18
681.709	0.18
682.033	0.18
682.356	0.17
682.68	0.17
683.004	0.17
683.327	0.17
683.651	0.17
683.974	0.17
684.298	0.17
684.621	0.16
684.944	0.16
685.268	0.16
685.591	0.16
685.914	0.16
686.237	0.16
686.56	0.16
686.883	0.15
687.206	0.15
687.529	0.14
687.852	0.14
688.175	0.14
688.497	0.14
688.82	0.14
689.142	0.14
689.465	0.14
689.787	0.14
690.11	0.14
690.432	0.13
690.755	0.13
691.077	0.14
691.399	0.13
691.721	0.13
692.043	0.13
692.365	0.13
692.687	0.12
693.009	0.12
693.331	0.12
693.653	0.12
693.974	0.12
694.296	0.11
694.618	0.11
694.939	0.12
695.261	0.12
695.582	0.12
695.904	0.11
696.225	0.11
696.546	0.11
696.868	0.11
697.189	0.11
697.51	0.11
697.831	0.11
698.152	0.11
698.473	0.11
698.794	0.1
699.114	0.1
699.435	0.1
699.756	0.1
700.077	0.1
700.397	0.1
700.718	0.1
701.038	0.09
701.359	0.09
701.679	0.09
701.999	0.09
702.32	0.1
702.64	0.1
702.96	0.09
703.28	0.09
703.6	0.09
703.92	0.09
704.24	0.09
704.56	0.09
704.879	0.09
705.199	0.09
705.519	0.09
705.838	0.08
706.158	0.09
706.478	0.09
706.797	0.08
707.116	0.08
707.436	0.08
707.755	0.09
708.074	0.09
708.393	0.09
708.712	0.09
709.031	0.08
709.35	0.08
709.669	0.08
709.988	0.08
710.307	0.08
710.626	0.08
710.944	0.08
711.263	0.08
711.582	0.08
711.9	0.08
712.219	0.08
712.537	0.08
712.855	0.08
713.174	0.08
713.492	0.08
713.81	0.08
714.128	0.07
714.446	0.08
714.764	0.08
715.082	0.07
715.4	0.08
715.718	0.07
716.035	0.07
716.353	0.07
716.671	0.07
716.988	0.07
717.306	0.07
717.623	0.08
717.941	0.08
718.258	0.08
718.575	0.08
718.893	0.08
719.21	0.08
719.527	0.08
719.844	0.08
720.161	0.08
720.478	0.08
720.795	0.08
721.112	0.08
721.428	0.08
721.745	0.08
722.062	0.08
722.378	0.08
722.695	0.08
723.011	0.08
723.328	0.08
723.644	0.08
723.96	0.08
724.276	0.08
724.593	0.08
724.909	0.09
725.225	0.09
725.541	0.09
725.857	0.08
726.173	0.09
726.488	0.08
726.804	0.09
727.12	0.09
727.435	0.09
727.751	0.09
728.067	0.09
728.382	0.09
728.697	0.09
729.013	0.09
729.328	0.09
729.643	0.09
729.958	0.09
730.273	0.09
730.588	0.09
730.903	0.09
731.218	0.09
731.533	0.09
731.848	0.09
732.163	0.09
732.477	0.09
732.792	0.09
733.107	0.08
733.421	0.09
733.736	0.09
734.05	0.09
734.364	0.09
734.678	0.09
734.993	0.09
735.307	0.09
735.621	0.09
735.935	0.09
736.249	0.09
736.563	0.09
736.877	0.09
737.19	0.09
737.504	0.09
737.818	0.09
738.131	0.08
738.445	0.08
738.758	0.08
739.072	0.08
739.385	0.08
739.698	0.08
740.012	0.08
740.325	0.08
740.638	0.08
740.951	0.08
741.264	0.08
741.577	0.08
741.89	0.09
742.203	0.09
742.515	0.09
742.828	0.09
743.141	0.09
743.453	0.09
743.766	0.09
744.078	0.09
744.391	0.08
744.703	0.08
745.015	0.08
745.327	0.08
745.639	0.08
745.952	0.08
746.264	0.08
746.575	0.08
746.887	0.08
747.199	0.07
747.511	0.07
747.823	0.07
748.134	0.07
748.446	0.07
748.757	0.07
749.069	0.07
749.38	0.07
749.692	0.07
750.003	0.07
750.314	0.07
750.625	0.07
750.936	0.07
751.248	0.06
751.559	0.06
751.869	0.06
752.18	0.06
752.491	0.06
752.802	0.06
753.112	0.06
753.423	0.06
753.734	0.06
754.044	0.06
754.355	0.05
754.665	0.06
754.975	0.05
755.285	0.05
755.596	0.05
755.906	0.05
756.216	0.05
756.526	0.04
756.836	0.04
757.146	0.05
757.455	0.04
757.765	0.05
758.075	0.05
758.385	0.04
758.694	0.04
759.004	0.04
759.313	0.04
759.622	0.04
759.932	0.04
760.241	0.04
760.55	0.04
760.859	0.04
761.168	0.04
761.477	0.04
761.786	0.04
762.095	0.04
762.404	0.04
762.713	0.04
763.021	0.03
763.33	0.04
763.639	0.03
763.947	0.03
764.256	0.03
764.564	0.03
764.872	0.03
765.181	0.03
765.489	0.03
765.797	0.03
766.105	0.03
766.413	0.03
766.721	0.03
767.029	0.03
767.337	0.03
767.644	0.03
767.952	0.03
768.26	0.03
768.567	0.03
768.875	0.03
769.182	0.03
769.49	0.03
769.797	0.03
770.104	0.03
770.411	0.03
770.718	0.03
771.026	0.02
771.333	0.03
771.639	0.03
771.946	0.03
772.253	0.03
772.56	0.03
772.867	0.02
773.173	0.02
773.48	0.02
773.786	0.02
774.093	0.02
774.399	0.02
774.705	0.02
775.012	0.02
775.318	0.02
775.624	0.02
775.93	0.02
776.236	0.02
776.542	0.02
776.848	0.02
777.154	0.02
777.459	0.02
777.765	0.02
778.071	0.02
778.376	0.02
778.682	0.02
778.987	0.02
779.292	0.02
779.598	0.02
779.903	0.02
780.208	0.02
780.513	0.02
780.818	0.02
781.123	0.02
781.428	0.02
781.733	0.02
782.038	0.02
782.343	0.02
782.647	0.02
782.952	0.02
783.256	0.02
783.561	0.03
783.865	0.02
784.17	0.02
784.474	0.03
784.778	0.02
785.082	0.02
785.386	0.02
785.69	0.02
785.994	0.02
786.298	0.02
786.602	0.02
786.906	0.02
787.209	0.02
787.513	0.02
787.817	0.02
788.12	0.02
788.424	0.02
788.727	0.02
789.03	0.03
789.333	0.02
789.637	0.02
789.94	0.02
790.243	0.03
790.546	0.02
790.849	0.02
791.152	0.02
791.454	0.02
791.757	0.02
792.06	0.02
792.362	0.02
792.665	0.02
792.967	0.02
793.27	0.02
793.572	0.02
793.874	0.02
794.177	0.02
794.479	0.02
794.781	0.02
795.083	0.02
795.385	0.02
795.687	0.03
795.989	0.02
796.29	0.02
796.592	0.03
796.894	0.03
797.195	0.02
797.497	0.03
797.798	0.02
798.1	0.02
798.401	0.02
798.702	0.02
799.003	0.02
799.304	0.02
799.605	0.02
799.906	0.02
800.207	0.02
800.508	0.02
800.809	0.02
801.11	0.02
801.41	0.02
801.711	0.02
802.011	0.03
802.312	0.03
802.612	0.02
802.913	0.03
803.213	0.03
803.513	0.03
803.813	0.03
804.113	0.03
804.413	0.03
804.713	0.03
805.013	0.03
805.313	0.03
805.613	0.03
805.912	0.03
806.212	0.03
806.511	0.03
806.811	0.03
807.11	0.03
807.41	0.03
807.709	0.03
808.008	0.03
808.307	0.03
808.606	0.03
808.905	0.03
809.204	0.03
809.503	0.03
809.802	0.03
810.101	0.03
810.399	0.02
810.698	0.02
810.997	0.02
811.295	0.02
811.593	0.02
811.892	0.02
812.19	0.03
812.488	0.03
812.786	0.02
813.084	0.02
813.383	0.02
813.68	0.02
813.978	0.02
814.276	0.02
814.574	0.02
814.872	0.02
815.169	0.02
815.467	0.02
815.764	0.02
816.062	0.03
816.359	0.03
816.656	0.02
816.954	0.02
817.251	0.02
817.548	0.02
817.845	0.02
818.142	0.02
818.439	0.02
818.735	0.03
819.032	0.02
819.329	0.02
819.626	0.02
819.922	0.02
820.219	0.02
820.515	0.03
820.811	0.02
821.108	0.02
821.404	0.02
821.7	0.02
821.996	0.02
822.292	0.02
822.588	0.03
822.884	0.02
823.18	0.02
823.475	0.02
823.771	0.02
824.067	0.02
824.362	0.03
824.658	0.03
824.953	0.03
825.249	0.03
825.544	0.03
825.839	0.03
826.134	0.03
826.429	0.03
826.724	0.03
827.019	0.02
827.314	0.02
827.609	0.02
827.904	0.02
828.198	0.02
828.493	0.02
828.787	0.02
829.082	0.03
829.376	0.03
829.671	0.02
829.965	0.02
830.259	0.02
830.553	0.03
830.847	0.03
831.141	0.03
831.435	0.03
831.729	0.02
832.023	0.03
832.317	0.02
832.61	0.02
832.904	0.02
833.197	0.02
833.491	0.02
833.784	0.03
834.077	0.02
834.371	0.03
834.664	0.03
834.957	0.02
835.25	0.02
835.543	0.02
835.836	0.03
836.129	0.02
836.421	0.02
836.714	0.03
837.007	0.02
837.299	0.03
837.592	0.04
837.884	0.03
838.177	0.03
838.469	0.02
838.761	0.03
839.053	0.03
839.345	0.02
839.637	0.03
839.929	0.02
840.221	0.03
840.513	0.03
840.805	0.03
841.096	0.03
841.388	0.02
841.68	0.02
841.971	0.03
842.262	0.03
842.554	0.03
842.845	0.02
843.136	0.02
843.427	0.03
843.718	0.03
844.009	0.01
844.3	0.02
844.591	0.02
844.882	0.01
845.173	0.02
845.463	0.02
845.754	0.03
846.044	0.02
846.335	0.02
846.625	0.02
846.915	0.03
847.206	0.03
847.496	0.03
847.786	0.03
848.076	0.03
848.366	0.03
848.656	0.04
848.945	0.02
849.235	0.04
849.525	0.03
849.814	0.03
850.104	0.03
850.393	0.03
850.683	0.03
850.972	0.03
851.261	0.02
851.551	0.04
851.84	0.03
852.129	0.02
852.418	0.03
852.707	0.01
852.995	0.03
853.284	0.01
853.573	0.02
853.862	0.01
854.15	0.01
854.439	0.02
854.727	0.02
855.015	0.03
855.304	0.02
855.592	0.02
855.88	0.03
856.168	0.03
856.456	0.03
856.744	0.02
857.032	0.02
857.32	0.02
857.607	0.02
857.895	0.01
858.183	0.03
858.47	0.02
858.757	0.01
859.045	0.03
859.332	0.02
859.619	0.03
859.907	0.03
860.194	0.02
860.481	0.02
860.768	0.02
861.054	0.02
861.341	0.01
861.628	0.03
861.915	0.02
862.201	0.01
862.488	0.03
862.774	0.02
863.061	0.01
863.347	0.02
863.633	0.01
863.919	0.06
864.205	0.03
864.491	0.04
864.777	0.03
865.063	0.02
865.349	0.01
865.635	0.01
865.92	0.01
866.206	0.05
866.492	0.02
866.777	0.04
867.062	0.03
867.348	0.04
867.633	0
867.918	-0
868.203	0.02
868.488	0.04
868.773	0.01
869.058	0.02
869.343	0.01
869.628	0.02
869.912	-0.02
870.197	0.01
870.482	0.03
870.766	0.02
871.05	0.04
871.335	0.01
871.619	0.05
871.903	0
872.187	0.02
872.471	-0.01
872.755	0.01
873.039	0.05
873.323	0.02
873.607	0.03
873.89	-0.02
874.174	0.02
874.458	0.03
874.741	0.02
875.024	0.01
875.308	-0.03
875.591	-0.04
875.874	-0.03
876.157	-0.02
876.44	-0.01
876.723	0.02
877.006	0.06
877.289	0.06
877.572	0.01
877.854	0.07
878.137	0.08
878.42	0.08
878.702	-0
878.984	0.03
879.267	0.03
879.549	0.09
879.831	0.08
880.113	0.08
880.395	0.15
880.677	0.19
880.959	-0.08
