Data from Rubpy_EV_1500_EDTA_Buffered_Absorbance_15-12-23-968.txt Node
Date: Tue Jun 30 15:12:23 BST 2026
User: fpm-admin
Spectrometer: OFX00224
Trigger mode: 0
Integration Time (sec): 7.000000E-2
Scans to average: 3
Nonlinearity correction enabled: false
Boxcar width: 0
Storing dark spectrum: false
XAxis mode: Wavelengths
Number of Pixels in Spectrum: 2136
>>>>>Begin Spectral Data<<<<<
154.91	0.31
155.289	-0.54
155.669	-0.27
156.048	-0.63
156.428	0.22
156.807	0.2
157.186	-0.08
157.566	0.39
157.945	-0.44
158.325	-0
158.704	-1.2
159.083	-0
159.462	-0
159.842	-0
160.221	-0.48
160.6	-0
160.979	0.09
161.359	-0.6
161.738	-0
162.117	-0.05
162.496	0.07
162.875	0.07
163.254	-0.34
163.633	0.3
164.012	-0
164.391	-0
164.77	0.29
165.149	-0
165.528	-0
165.907	0.03
166.286	-0.2
166.665	-0.58
167.044	0.15
167.423	-0.06
167.802	-0
168.181	0.29
168.559	-0.49
168.938	0.08
169.317	-0.41
169.696	-0.05
170.074	0.03
170.453	-0.88
170.832	-0
171.21	-0.46
171.589	-0
171.968	0.56
172.346	-0.84
172.725	-0
173.103	0.44
173.482	-0.6
173.861	-0.42
174.239	0.43
174.617	0.43
174.996	-0
175.374	0.07
175.753	-0
176.131	0.25
176.51	-0
176.888	0.05
177.266	-0
177.645	-0.01
178.023	0.11
178.401	-0.15
178.779	0.2
179.158	0.53
179.536	-0
179.914	-0
180.292	0.1
180.67	-0.01
181.048	-0
181.427	0.76
181.805	-0
182.183	-0
182.561	-0.11
182.939	-0
183.317	-0
183.695	0.09
184.073	-0.36
184.451	0.51
184.829	-0.57
185.206	0.31
185.584	0.27
185.962	-0
186.34	0.52
186.718	-0.07
187.096	-1.26
187.473	-0
187.851	-0.23
188.229	0.06
188.607	0.3
188.984	0.22
189.362	0.32
189.74	0.25
190.117	0.24
190.495	0.3
190.872	0.24
191.25	0.27
191.627	0.29
192.005	0.16
192.382	0.25
192.76	0.36
193.137	0.2
193.515	0.32
193.892	0.26
194.269	0.31
194.647	0.16
195.024	0.1
195.401	0.25
195.779	0.47
196.156	0.27
196.533	0.33
196.91	0.19
197.288	0.11
197.665	0.3
198.042	0.16
198.419	0.31
198.796	0.17
199.173	0.28
199.55	0.1
199.927	0.43
200.304	0.24
200.681	0.2
201.058	0.1
201.435	0.19
201.812	0.36
202.189	0.4
202.566	0.36
202.943	0.17
203.32	0.22
203.697	0.28
204.073	0.28
204.45	0.22
204.827	0.18
205.204	0.34
205.58	0.29
205.957	0.25
206.334	0.36
206.71	0.23
207.087	0.44
207.464	0.37
207.84	0.21
208.217	0.25
208.593	0.31
208.97	0.29
209.346	0.34
209.723	0.36
210.099	0.17
210.476	0.26
210.852	0.32
211.228	0.32
211.605	0.22
211.981	0.23
212.357	0.43
212.733	0.24
213.11	0.46
213.486	0.35
213.862	0.26
214.238	0.19
214.614	0.28
214.991	0.24
215.367	0.34
215.743	0.28
216.119	0.29
216.495	0.2
216.871	0.35
217.247	0.19
217.623	0.31
217.999	0.31
218.375	0.34
218.751	0.22
219.127	0.28
219.502	0.33
219.878	0.27
220.254	0.36
220.63	0.25
221.006	0.44
221.381	0.29
221.757	0.28
222.133	0.38
222.508	0.34
222.884	0.26
223.26	0.31
223.635	0.22
224.011	0.31
224.386	0.19
224.762	0.27
225.137	0.32
225.513	0.28
225.888	0.34
226.264	0.28
226.639	0.46
227.014	0.35
227.39	0.27
227.765	0.42
228.14	0.33
228.516	0.36
228.891	0.32
229.266	0.37
229.641	0.37
230.017	0.28
230.392	0.21
230.767	0.41
231.142	0.29
231.517	0.32
231.892	0.27
232.267	0.41
232.642	0.27
233.017	0.24
233.392	0.28
233.767	0.56
234.142	0.27
234.517	0.21
234.892	0.25
235.267	0.31
235.641	0.29
236.016	0.19
236.391	0.24
236.766	0.19
237.14	0.32
237.515	0.3
237.89	0.29
238.264	0.34
238.639	0.26
239.014	0.32
239.388	0.3
239.763	0.32
240.137	0.28
240.512	0.17
240.886	0.29
241.261	0.34
241.635	0.42
242.009	0.27
242.384	0.34
242.758	0.4
243.132	0.2
243.507	0.42
243.881	0.24
244.255	0.41
244.629	0.38
245.004	0.31
245.378	0.32
245.752	0.34
246.126	0.23
246.5	0.34
246.874	0.29
247.248	0.25
247.622	0.39
247.996	0.39
248.37	0.25
248.744	0.34
249.118	0.22
249.492	0.35
249.866	0.24
250.24	0.3
250.613	0.33
250.987	0.21
251.361	0.26
251.735	0.25
252.108	0.41
252.482	0.27
252.856	0.25
253.229	0.28
253.603	0.36
253.977	0.4
254.35	0.32
254.724	0.23
255.097	0.26
255.471	0.35
255.844	0.36
256.218	0.3
256.591	0.23
256.964	0.38
257.338	0.41
257.711	0.27
258.084	0.38
258.458	0.35
258.831	0.28
259.204	0.32
259.577	0.42
259.95	0.37
260.323	0.24
260.697	0.35
261.07	0.23
261.443	0.29
261.816	0.25
262.189	0.34
262.562	0.37
262.935	0.25
263.308	0.36
263.68	0.24
264.053	0.35
264.426	0.22
264.799	0.34
265.172	0.26
265.545	0.31
265.917	0.34
266.29	0.3
266.663	0.39
267.035	0.29
267.408	0.24
267.781	0.29
268.153	0.25
268.526	0.35
268.898	0.4
269.271	0.32
269.643	0.29
270.016	0.2
270.388	0.29
270.76	0.23
271.133	0.3
271.505	0.3
271.877	0.37
272.25	0.34
272.622	0.29
272.994	0.27
273.366	0.28
273.739	0.35
274.111	0.26
274.483	0.27
274.855	0.39
275.227	0.35
275.599	0.36
275.971	0.41
276.343	0.29
276.715	0.27
277.087	0.36
277.459	0.35
277.831	0.34
278.203	0.31
278.574	0.31
278.946	0.28
279.318	0.25
279.69	0.33
280.061	0.31
280.433	0.35
280.805	0.34
281.176	0.38
281.548	0.31
281.92	0.4
282.291	0.26
282.663	0.43
283.034	0.38
283.406	0.23
283.777	0.41
284.148	0.32
284.52	0.42
284.891	0.32
285.262	0.34
285.634	0.4
286.005	0.37
286.376	0.3
286.747	0.3
287.119	0.33
287.49	0.21
287.861	0.36
288.232	0.28
288.603	0.32
288.974	0.35
289.345	0.25
289.716	0.39
290.087	0.28
290.458	0.36
290.829	0.46
291.2	0.3
291.571	0.26
291.941	0.27
292.312	0.36
292.683	0.4
293.054	0.45
293.424	0.2
293.795	0.32
294.166	0.36
294.536	0.32
294.907	0.29
295.277	0.35
295.648	0.34
296.018	0.3
296.389	0.33
296.759	0.34
297.13	0.36
297.5	0.29
297.871	0.36
298.241	0.29
298.611	0.3
298.981	0.32
299.352	0.33
299.722	0.32
300.092	0.26
300.462	0.27
300.832	0.33
301.202	0.29
301.573	0.31
301.943	0.3
302.313	0.29
302.683	0.26
303.053	0.3
303.422	0.27
303.792	0.28
304.162	0.29
304.532	0.3
304.902	0.28
305.272	0.29
305.641	0.29
306.011	0.29
306.381	0.28
306.75	0.29
307.12	0.29
307.49	0.29
307.859	0.3
308.229	0.31
308.598	0.32
308.968	0.31
309.337	0.31
309.707	0.32
310.076	0.32
310.445	0.33
310.815	0.32
311.184	0.33
311.553	0.33
311.923	0.33
312.292	0.34
312.661	0.34
313.03	0.34
313.399	0.34
313.768	0.35
314.137	0.34
314.506	0.34
314.875	0.34
315.244	0.34
315.613	0.34
315.982	0.34
316.351	0.33
316.72	0.33
317.089	0.33
317.458	0.33
317.826	0.33
318.195	0.32
318.564	0.32
318.933	0.32
319.301	0.31
319.67	0.31
320.038	0.31
320.407	0.31
320.775	0.31
321.144	0.31
321.512	0.3
321.881	0.3
322.249	0.3
322.618	0.3
322.986	0.29
323.354	0.29
323.723	0.29
324.091	0.29
324.459	0.3
324.827	0.29
325.195	0.29
325.564	0.27
325.932	0.28
326.3	0.28
326.668	0.28
327.036	0.28
327.404	0.28
327.772	0.28
328.14	0.29
328.508	0.29
328.875	0.28
329.243	0.28
329.611	0.29
329.979	0.29
330.346	0.29
330.714	0.29
331.082	0.28
331.449	0.3
331.817	0.3
332.185	0.3
332.552	0.3
332.92	0.31
333.287	0.31
333.655	0.31
334.022	0.32
334.389	0.32
334.757	0.32
335.124	0.32
335.491	0.33
335.859	0.33
336.226	0.34
336.593	0.34
336.96	0.35
337.327	0.34
337.695	0.35
338.062	0.35
338.429	0.36
338.796	0.37
339.163	0.37
339.53	0.38
339.897	0.38
340.263	0.39
340.63	0.4
340.997	0.4
341.364	0.41
341.731	0.42
342.097	0.42
342.464	0.43
342.831	0.44
343.197	0.45
343.564	0.46
343.931	0.46
344.297	0.47
344.664	0.47
345.03	0.48
345.396	0.48
345.763	0.49
346.129	0.5
346.496	0.51
346.862	0.51
347.228	0.52
347.594	0.53
347.961	0.53
348.327	0.54
348.693	0.55
349.059	0.56
349.425	0.57
349.791	0.58
350.157	0.59
350.523	0.6
350.889	0.6
351.255	0.62
351.621	0.63
351.987	0.64
352.353	0.66
352.719	0.66
353.084	0.69
353.45	0.69
353.816	0.7
354.181	0.72
354.547	0.73
354.913	0.75
355.278	0.75
355.644	0.78
356.009	0.78
356.375	0.81
356.74	0.83
357.106	0.84
357.471	0.85
357.836	0.87
358.202	0.89
358.567	0.9
358.932	0.92
359.297	0.93
359.663	0.94
360.028	0.96
360.393	0.97
360.758	0.98
361.123	0.99
361.488	1.01
361.853	1.02
362.218	1.02
362.583	1.02
362.948	1.05
363.312	1.05
363.677	1.07
364.042	1.09
364.407	1.1
364.772	1.12
365.136	1.13
365.501	1.16
365.865	1.17
366.23	1.21
366.595	1.22
366.959	1.24
367.324	1.26
367.688	1.29
368.052	1.3
368.417	1.31
368.781	1.32
369.145	1.34
369.51	1.35
369.874	1.35
370.238	1.34
370.602	1.35
370.967	1.35
371.331	1.33
371.695	1.31
372.059	1.34
372.423	1.34
372.787	1.32
373.151	1.31
373.515	1.32
373.878	1.28
374.242	1.3
374.606	1.29
374.97	1.31
375.334	1.29
375.697	1.31
376.061	1.3
376.425	1.3
376.788	1.34
377.152	1.33
377.515	1.33
377.879	1.36
378.242	1.36
378.606	1.36
378.969	1.39
379.333	1.39
379.696	1.4
380.059	1.43
380.422	1.44
380.786	1.49
381.149	1.5
381.512	1.53
381.875	1.53
382.238	1.58
382.601	1.59
382.964	1.62
383.327	1.65
383.69	1.68
384.053	1.71
384.416	1.8
384.779	1.8
385.142	1.82
385.504	1.83
385.867	1.91
386.23	1.85
386.593	1.92
386.955	1.86
387.318	1.89
387.68	1.85
388.043	1.86
388.405	1.86
388.768	1.86
389.13	1.87
389.493	1.86
389.855	1.86
390.217	1.81
390.58	1.81
390.942	1.81
391.304	1.87
391.666	1.85
392.028	1.87
392.391	1.89
392.753	1.91
393.115	1.95
393.477	1.98
393.839	1.96
394.201	2.09
394.563	2.09
394.924	2.13
395.286	2.15
395.648	2.16
396.01	2.15
396.371	2.21
396.733	2.1
397.095	2.16
397.456	2.18
397.818	2.08
398.18	2.1
398.541	2.13
398.903	2.08
399.264	2.1
399.625	2.12
399.987	2.15
400.348	2.1
400.709	2.04
401.071	1.94
401.432	1.91
401.793	1.81
402.154	1.74
402.515	1.66
402.876	1.58
403.238	1.47
403.599	1.4
403.96	1.3
404.32	1.21
404.681	1.13
405.042	1.06
405.403	1
405.764	0.93
406.125	0.86
406.485	0.81
406.846	0.77
407.207	0.71
407.567	0.67
407.928	0.63
408.288	0.59
408.649	0.56
409.009	0.54
409.37	0.51
409.73	0.49
410.091	0.46
410.451	0.43
410.811	0.42
411.171	0.41
411.532	0.38
411.892	0.36
412.252	0.35
412.612	0.34
412.972	0.33
413.332	0.31
413.692	0.3
414.052	0.29
414.412	0.28
414.772	0.27
415.132	0.26
415.492	0.26
415.851	0.25
416.211	0.24
416.571	0.24
416.931	0.24
417.29	0.21
417.65	0.21
418.009	0.21
418.369	0.2
418.728	0.21
419.088	0.2
419.447	0.19
419.807	0.18
420.166	0.19
420.525	0.18
420.884	0.18
421.244	0.18
421.603	0.18
421.962	0.18
422.321	0.17
422.68	0.16
423.039	0.17
423.398	0.16
423.757	0.17
424.116	0.16
424.475	0.15
424.834	0.16
425.193	0.15
425.551	0.14
425.91	0.15
426.269	0.15
426.628	0.14
426.986	0.14
427.345	0.14
427.703	0.14
428.062	0.14
428.42	0.14
428.779	0.14
429.137	0.14
429.496	0.13
429.854	0.13
430.212	0.13
430.57	0.13
430.929	0.14
431.287	0.13
431.645	0.13
432.003	0.12
432.361	0.13
432.719	0.12
433.077	0.11
433.435	0.12
433.793	0.12
434.151	0.11
434.509	0.12
434.866	0.12
435.224	0.12
435.582	0.12
435.94	0.12
436.297	0.12
436.655	0.12
437.012	0.11
437.37	0.11
437.727	0.11
438.085	0.1
438.442	0.11
438.8	0.1
439.157	0.1
439.514	0.11
439.872	0.1
440.229	0.11
440.586	0.1
440.943	0.1
441.3	0.11
441.657	0.1
442.014	0.1
442.371	0.1
442.728	0.1
443.085	0.1
443.442	0.1
443.799	0.09
444.156	0.09
444.513	0.1
444.869	0.09
445.226	0.09
445.583	0.09
445.939	0.1
446.296	0.08
446.652	0.09
447.009	0.09
447.365	0.07
447.722	0.08
448.078	0.08
448.434	0.09
448.791	0.08
449.147	0.08
449.503	0.09
449.859	0.08
450.215	0.09
450.571	0.08
450.928	0.08
451.284	0.08
451.64	0.07
451.995	0.07
452.351	0.07
452.707	0.08
453.063	0.07
453.419	0.07
453.775	0.07
454.13	0.07
454.486	0.07
454.842	0.06
455.197	0.06
455.553	0.05
455.908	0.06
456.264	0.06
456.619	0.05
456.975	0.06
457.33	0.05
457.685	0.05
458.04	0.05
458.396	0.05
458.751	0.06
459.106	0.05
459.461	0.04
459.816	0.04
460.171	0.03
460.526	0.03
460.881	0.03
461.236	0.02
461.591	0.03
461.946	0.02
462.301	0.02
462.655	0.03
463.01	0.03
463.365	0.02
463.719	0.02
464.074	0.02
464.428	0
464.783	0.01
465.137	0.01
465.492	0.01
465.846	0.02
466.201	0.01
466.555	0.01
466.909	0.01
467.263	0.02
467.618	0.02
467.972	0.01
468.326	0.01
468.68	0
469.034	0.01
469.388	0.01
469.742	0.01
470.096	0.01
470.45	0.01
470.804	0.02
471.157	0.01
471.511	0.02
471.865	0.02
472.218	0.02
472.572	0.02
472.926	0.02
473.279	0.02
473.633	0.02
473.986	0.04
474.34	0.04
474.693	0.04
475.046	0.04
475.4	0.05
475.753	0.06
476.106	0.05
476.459	0.06
476.812	0.07
477.165	0.07
477.519	0.08
477.872	0.08
478.224	0.08
478.577	0.08
478.93	0.1
479.283	0.09
479.636	0.09
479.989	0.09
480.341	0.1
480.694	0.1
481.047	0.11
481.399	0.11
481.752	0.11
482.104	0.12
482.457	0.12
482.809	0.12
483.162	0.13
483.514	0.12
483.866	0.13
484.219	0.13
484.571	0.14
484.923	0.14
485.275	0.14
485.627	0.14
485.979	0.14
486.331	0.14
486.683	0.15
487.035	0.15
487.387	0.16
487.739	0.16
488.091	0.16
488.443	0.16
488.794	0.16
489.146	0.17
489.498	0.17
489.849	0.16
490.201	0.17
490.552	0.17
490.904	0.17
491.255	0.17
491.607	0.18
491.958	0.18
492.309	0.19
492.661	0.18
493.012	0.19
493.363	0.19
493.714	0.19
494.065	0.19
494.416	0.19
494.767	0.2
495.118	0.2
495.469	0.21
495.82	0.21
496.171	0.21
496.522	0.21
496.872	0.21
497.223	0.21
497.574	0.22
497.924	0.23
498.275	0.23
498.626	0.23
498.976	0.23
499.327	0.23
499.677	0.23
500.027	0.24
500.378	0.24
500.728	0.25
501.078	0.25
501.428	0.24
501.779	0.25
502.129	0.25
502.479	0.25
502.829	0.26
503.179	0.26
503.529	0.26
503.879	0.27
504.229	0.27
504.578	0.27
504.928	0.27
505.278	0.28
505.628	0.28
505.977	0.28
506.327	0.28
506.676	0.29
507.026	0.3
507.375	0.3
507.725	0.3
508.074	0.3
508.424	0.31
508.773	0.3
509.122	0.31
509.471	0.31
509.82	0.31
510.17	0.32
510.519	0.32
510.868	0.32
511.217	0.32
511.566	0.33
511.915	0.33
512.263	0.33
512.612	0.34
512.961	0.34
513.31	0.34
513.659	0.34
514.007	0.34
514.356	0.35
514.704	0.36
515.053	0.36
515.401	0.36
515.75	0.36
516.098	0.37
516.447	0.37
516.795	0.37
517.143	0.37
517.491	0.38
517.839	0.38
518.188	0.38
518.536	0.38
518.884	0.38
519.232	0.39
519.58	0.39
519.928	0.39
520.275	0.39
520.623	0.4
520.971	0.4
521.319	0.41
521.666	0.41
522.014	0.41
522.362	0.41
522.709	0.42
523.057	0.42
523.404	0.42
523.752	0.42
524.099	0.43
524.446	0.43
524.794	0.43
525.141	0.44
525.488	0.44
525.835	0.44
526.182	0.44
526.529	0.45
526.876	0.45
527.223	0.46
527.57	0.46
527.917	0.46
528.264	0.46
528.611	0.46
528.958	0.47
529.304	0.47
529.651	0.47
529.998	0.48
530.344	0.49
530.691	0.49
531.037	0.49
531.384	0.49
531.73	0.49
532.076	0.49
532.423	0.5
532.769	0.5
533.115	0.5
533.461	0.52
533.807	0.51
534.154	0.52
534.5	0.52
534.846	0.52
535.192	0.52
535.537	0.53
535.883	0.54
536.229	0.54
536.575	0.54
536.921	0.55
537.266	0.55
537.612	0.55
537.957	0.56
538.303	0.56
538.649	0.56
538.994	0.56
539.339	0.57
539.685	0.57
540.03	0.58
540.375	0.58
540.721	0.59
541.066	0.59
541.411	0.59
541.756	0.6
542.101	0.6
542.446	0.61
542.791	0.61
543.136	0.61
543.481	0.61
543.825	0.62
544.17	0.63
544.515	0.63
544.86	0.64
545.204	0.64
545.549	0.64
545.893	0.65
546.238	0.65
546.582	0.66
546.927	0.66
547.271	0.66
547.615	0.67
547.96	0.67
548.304	0.67
548.648	0.68
548.992	0.68
549.336	0.69
549.68	0.69
550.024	0.69
550.368	0.7
550.712	0.7
551.056	0.7
551.4	0.71
551.743	0.71
552.087	0.71
552.431	0.71
552.774	0.72
553.118	0.71
553.462	0.73
553.805	0.73
554.148	0.73
554.492	0.73
554.835	0.73
555.178	0.74
555.522	0.74
555.865	0.74
556.208	0.74
556.551	0.75
556.894	0.75
557.237	0.75
557.58	0.76
557.923	0.76
558.266	0.76
558.609	0.76
558.952	0.76
559.294	0.77
559.637	0.76
559.98	0.77
560.322	0.77
560.665	0.77
561.007	0.78
561.35	0.78
561.692	0.78
562.034	0.78
562.377	0.79
562.719	0.78
563.061	0.78
563.403	0.79
563.745	0.79
564.088	0.79
564.43	0.79
564.772	0.8
565.113	0.79
565.455	0.79
565.797	0.8
566.139	0.8
566.481	0.8
566.822	0.8
567.164	0.8
567.506	0.8
567.847	0.8
568.189	0.81
568.53	0.81
568.872	0.81
569.213	0.81
569.554	0.81
569.895	0.81
570.237	0.81
570.578	0.81
570.919	0.81
571.26	0.81
571.601	0.82
571.942	0.82
572.283	0.82
572.624	0.82
572.965	0.82
573.306	0.82
573.646	0.82
573.987	0.82
574.328	0.82
574.668	0.82
575.009	0.82
575.349	0.82
575.69	0.81
576.03	0.82
576.37	0.82
576.711	0.81
577.051	0.82
577.391	0.82
577.731	0.82
578.072	0.82
578.412	0.82
578.752	0.83
579.092	0.83
579.431	0.82
579.771	0.82
580.111	0.81
580.451	0.81
580.791	0.82
581.13	0.83
581.47	0.83
581.81	0.84
582.149	0.83
582.489	0.83
582.828	0.84
583.167	0.83
583.507	0.8
583.846	0.78
584.185	0.8
584.525	0.82
584.864	0.83
585.203	0.84
585.542	0.85
585.881	0.85
586.22	0.86
586.559	0.87
586.898	0.86
587.236	0.86
587.575	0.85
587.914	0.85
588.252	0.86
588.591	0.87
588.93	0.88
589.268	0.88
589.607	0.88
589.945	0.88
590.283	0.88
590.622	0.89
590.96	0.89
591.298	0.9
591.636	0.9
591.974	0.91
592.313	0.91
592.651	0.92
592.989	0.92
593.326	0.92
593.664	0.93
594.002	0.93
594.34	0.93
594.678	0.94
595.015	0.94
595.353	0.93
595.691	0.93
596.028	0.94
596.366	0.95
596.703	0.95
597.04	0.96
597.378	0.96
597.715	0.97
598.052	0.96
598.389	0.97
598.726	0.98
599.064	0.98
599.401	0.99
599.738	0.99
600.074	0.99
600.411	0.99
600.748	0.99
601.085	0.98
601.422	0.99
601.758	0.99
602.095	0.98
602.432	0.99
602.768	0.99
603.105	0.99
603.441	0.99
603.777	0.99
604.114	0.99
604.45	1
604.786	0.99
605.122	1
605.459	1
605.795	1
606.131	0.99
606.467	0.99
606.803	0.99
607.139	0.99
607.474	0.99
607.81	0.98
608.146	0.99
608.482	0.99
608.817	0.98
609.153	0.98
609.488	0.97
609.824	0.98
610.159	0.97
610.495	0.96
610.83	0.97
611.165	0.97
611.5	0.97
611.836	0.96
612.171	0.96
612.506	0.96
612.841	0.96
613.176	0.96
613.511	0.96
613.845	0.95
614.18	0.94
614.515	0.95
614.85	0.94
615.184	0.93
615.519	0.93
615.854	0.94
616.188	0.93
616.523	0.93
616.857	0.93
617.191	0.93
617.526	0.91
617.86	0.92
618.194	0.92
618.528	0.91
618.862	0.91
619.196	0.91
619.53	0.9
619.864	0.9
620.198	0.9
620.532	0.89
620.866	0.89
621.2	0.88
621.533	0.89
621.867	0.89
622.201	0.88
622.534	0.88
622.868	0.87
623.201	0.87
623.534	0.87
623.868	0.86
624.201	0.86
624.534	0.86
624.868	0.86
625.201	0.85
625.534	0.85
625.867	0.84
626.2	0.84
626.533	0.83
626.865	0.83
627.198	0.83
627.531	0.83
627.864	0.83
628.196	0.82
628.529	0.82
628.862	0.81
629.194	0.81
629.527	0.8
629.859	0.8
630.191	0.79
630.524	0.79
630.856	0.79
631.188	0.78
631.52	0.78
631.852	0.77
632.184	0.77
632.516	0.76
632.848	0.75
633.18	0.75
633.512	0.75
633.844	0.74
634.175	0.73
634.507	0.72
634.839	0.72
635.17	0.72
635.502	0.72
635.833	0.71
636.165	0.7
636.496	0.7
636.827	0.69
637.159	0.68
637.49	0.68
637.821	0.68
638.152	0.67
638.483	0.67
638.814	0.66
639.145	0.66
639.476	0.65
639.807	0.64
640.137	0.64
640.468	0.64
640.799	0.63
641.129	0.63
641.46	0.62
641.791	0.61
642.121	0.61
642.451	0.61
642.782	0.6
643.112	0.6
643.442	0.59
643.773	0.59
644.103	0.58
644.433	0.58
644.763	0.57
645.093	0.57
645.423	0.57
645.753	0.57
646.082	0.56
646.412	0.56
646.742	0.56
647.072	0.56
647.401	0.56
647.731	0.56
648.06	0.56
648.39	0.55
648.719	0.55
649.048	0.55
649.378	0.54
649.707	0.54
650.036	0.54
650.365	0.54
650.694	0.54
651.023	0.53
651.352	0.53
651.681	0.53
652.01	0.54
652.339	0.53
652.668	0.53
652.996	0.53
653.325	0.53
653.654	0.53
653.982	0.53
654.311	0.53
654.639	0.53
654.967	0.53
655.296	0.52
655.624	0.53
655.952	0.52
656.28	0.52
656.609	0.52
656.937	0.53
657.265	0.54
657.593	0.51
657.92	0.36
658.248	0.29
658.576	0.28
658.904	0.37
659.231	0.46
659.559	0.5
659.887	0.51
660.214	0.51
660.542	0.52
660.869	0.51
661.196	0.52
661.524	0.51
661.851	0.52
662.178	0.51
662.505	0.51
662.832	0.5
663.159	0.51
663.486	0.5
663.813	0.5
664.14	0.5
664.467	0.51
664.794	0.5
665.12	0.5
665.447	0.5
665.774	0.5
666.1	0.49
666.427	0.5
666.753	0.5
667.079	0.49
667.406	0.5
667.732	0.49
668.058	0.49
668.384	0.49
668.71	0.49
669.036	0.49
669.362	0.48
669.688	0.48
670.014	0.48
670.34	0.48
670.666	0.47
670.991	0.48
671.317	0.48
671.643	0.47
671.968	0.47
672.294	0.47
672.619	0.46
672.945	0.46
673.27	0.46
673.595	0.46
673.92	0.46
674.246	0.45
674.571	0.45
674.896	0.45
675.221	0.44
675.546	0.44
675.87	0.44
676.195	0.43
676.52	0.43
676.845	0.43
677.169	0.42
677.494	0.43
677.819	0.42
678.143	0.41
678.468	0.41
678.792	0.41
679.116	0.41
679.44	0.4
679.765	0.4
680.089	0.4
680.413	0.39
680.737	0.39
681.061	0.39
681.385	0.38
681.709	0.38
682.033	0.37
682.356	0.37
682.68	0.36
683.004	0.36
683.327	0.36
683.651	0.35
683.974	0.35
684.298	0.35
684.621	0.34
684.944	0.34
685.268	0.34
685.591	0.33
685.914	0.33
686.237	0.33
686.56	0.33
686.883	0.32
687.206	0.32
687.529	0.31
687.852	0.3
688.175	0.3
688.497	0.3
688.82	0.3
689.142	0.3
689.465	0.29
689.787	0.29
690.11	0.29
690.432	0.28
690.755	0.28
691.077	0.28
691.399	0.28
691.721	0.27
692.043	0.27
692.365	0.26
692.687	0.26
693.009	0.26
693.331	0.26
693.653	0.25
693.974	0.25
694.296	0.25
694.618	0.24
694.939	0.24
695.261	0.24
695.582	0.24
695.904	0.23
696.225	0.23
696.546	0.23
696.868	0.23
697.189	0.22
697.51	0.22
697.831	0.22
698.152	0.22
698.473	0.22
698.794	0.21
699.114	0.21
699.435	0.21
699.756	0.21
700.077	0.2
700.397	0.2
700.718	0.2
701.038	0.2
701.359	0.2
701.679	0.2
701.999	0.2
702.32	0.2
702.64	0.2
702.96	0.2
703.28	0.19
703.6	0.19
703.92	0.19
704.24	0.19
704.56	0.19
704.879	0.18
705.199	0.18
705.519	0.18
705.838	0.18
706.158	0.18
706.478	0.18
706.797	0.18
707.116	0.18
707.436	0.18
707.755	0.18
708.074	0.18
708.393	0.18
708.712	0.18
709.031	0.17
709.35	0.17
709.669	0.17
709.988	0.16
710.307	0.16
710.626	0.17
710.944	0.17
711.263	0.17
711.582	0.16
711.9	0.16
712.219	0.16
712.537	0.17
712.855	0.16
713.174	0.16
713.492	0.16
713.81	0.16
714.128	0.16
714.446	0.16
714.764	0.16
715.082	0.16
715.4	0.16
715.718	0.16
716.035	0.16
716.353	0.16
716.671	0.16
716.988	0.16
717.306	0.16
717.623	0.16
717.941	0.17
718.258	0.17
718.575	0.17
718.893	0.17
719.21	0.17
719.527	0.17
719.844	0.17
720.161	0.17
720.478	0.17
720.795	0.17
721.112	0.17
721.428	0.17
721.745	0.17
722.062	0.17
722.378	0.18
722.695	0.18
723.011	0.18
723.328	0.18
723.644	0.18
723.96	0.18
724.276	0.18
724.593	0.18
724.909	0.18
725.225	0.18
725.541	0.18
725.857	0.18
726.173	0.19
726.488	0.19
726.804	0.19
727.12	0.19
727.435	0.19
727.751	0.19
728.067	0.19
728.382	0.19
728.697	0.19
729.013	0.19
729.328	0.19
729.643	0.19
729.958	0.19
730.273	0.19
730.588	0.19
730.903	0.19
731.218	0.19
731.533	0.19
731.848	0.19
732.163	0.2
732.477	0.19
732.792	0.19
733.107	0.19
733.421	0.19
733.736	0.19
734.05	0.19
734.364	0.19
734.678	0.19
734.993	0.19
735.307	0.19
735.621	0.19
735.935	0.19
736.249	0.19
736.563	0.19
736.877	0.18
737.19	0.19
737.504	0.18
737.818	0.18
738.131	0.18
738.445	0.18
738.758	0.18
739.072	0.18
739.385	0.18
739.698	0.18
740.012	0.18
740.325	0.18
740.638	0.18
740.951	0.17
741.264	0.17
741.577	0.17
741.89	0.17
742.203	0.17
742.515	0.18
742.828	0.18
743.141	0.17
743.453	0.17
743.766	0.17
744.078	0.17
744.391	0.17
744.703	0.17
745.015	0.16
745.327	0.16
745.639	0.16
745.952	0.16
746.264	0.15
746.575	0.16
746.887	0.16
747.199	0.15
747.511	0.15
747.823	0.15
748.134	0.15
748.446	0.14
748.757	0.15
749.069	0.14
749.38	0.14
749.692	0.14
750.003	0.14
750.314	0.14
750.625	0.14
750.936	0.14
751.248	0.13
751.559	0.13
751.869	0.13
752.18	0.13
752.491	0.13
752.802	0.12
753.112	0.12
753.423	0.12
753.734	0.12
754.044	0.12
754.355	0.11
754.665	0.11
754.975	0.11
755.285	0.11
755.596	0.1
755.906	0.1
756.216	0.1
756.526	0.1
756.836	0.1
757.146	0.1
757.455	0.1
757.765	0.1
758.075	0.1
758.385	0.09
758.694	0.09
759.004	0.09
759.313	0.09
759.622	0.09
759.932	0.09
760.241	0.09
760.55	0.09
760.859	0.09
761.168	0.09
761.477	0.08
761.786	0.08
762.095	0.08
762.404	0.08
762.713	0.08
763.021	0.08
763.33	0.08
763.639	0.07
763.947	0.07
764.256	0.07
764.564	0.07
764.872	0.07
765.181	0.07
765.489	0.07
765.797	0.07
766.105	0.06
766.413	0.07
766.721	0.06
767.029	0.06
767.337	0.06
767.644	0.07
767.952	0.06
768.26	0.06
768.567	0.06
768.875	0.07
769.182	0.06
769.49	0.06
769.797	0.06
770.104	0.06
770.411	0.05
770.718	0.05
771.026	0.05
771.333	0.05
771.639	0.06
771.946	0.05
772.253	0.05
772.56	0.05
772.867	0.05
773.173	0.05
773.48	0.05
773.786	0.05
774.093	0.05
774.399	0.05
774.705	0.05
775.012	0.05
775.318	0.05
775.624	0.05
775.93	0.05
776.236	0.05
776.542	0.05
776.848	0.05
777.154	0.05
777.459	0.05
777.765	0.05
778.071	0.05
778.376	0.05
778.682	0.05
778.987	0.04
779.292	0.05
779.598	0.05
779.903	0.05
780.208	0.05
780.513	0.05
780.818	0.05
781.123	0.05
781.428	0.05
781.733	0.05
782.038	0.05
782.343	0.05
782.647	0.05
782.952	0.05
783.256	0.05
783.561	0.05
783.865	0.05
784.17	0.05
784.474	0.05
784.778	0.05
785.082	0.05
785.386	0.05
785.69	0.05
785.994	0.05
786.298	0.04
786.602	0.05
786.906	0.04
787.209	0.04
787.513	0.05
787.817	0.04
788.12	0.04
788.424	0.05
788.727	0.04
789.03	0.05
789.333	0.05
789.637	0.05
789.94	0.05
790.243	0.05
790.546	0.05
790.849	0.05
791.152	0.04
791.454	0.05
791.757	0.05
792.06	0.05
792.362	0.05
792.665	0.05
792.967	0.04
793.27	0.04
793.572	0.04
793.874	0.04
794.177	0.04
794.479	0.04
794.781	0.04
795.083	0.05
795.385	0.05
795.687	0.05
795.989	0.05
796.29	0.04
796.592	0.04
796.894	0.04
797.195	0.04
797.497	0.04
797.798	0.04
798.1	0.04
798.401	0.04
798.702	0.05
799.003	0.04
799.304	0.05
799.605	0.04
799.906	0.04
800.207	0.05
800.508	0.05
800.809	0.04
801.11	0.04
801.41	0.05
801.711	0.05
802.011	0.05
802.312	0.05
802.612	0.05
802.913	0.05
803.213	0.05
803.513	0.05
803.813	0.05
804.113	0.05
804.413	0.06
804.713	0.06
805.013	0.05
805.313	0.05
805.613	0.05
805.912	0.05
806.212	0.06
806.511	0.05
806.811	0.05
807.11	0.05
807.41	0.05
807.709	0.05
808.008	0.05
808.307	0.05
808.606	0.05
808.905	0.04
809.204	0.05
809.503	0.04
809.802	0.04
810.101	0.05
810.399	0.04
810.698	0.04
810.997	0.04
811.295	0.04
811.593	0.04
811.892	0.04
812.19	0.04
812.488	0.04
812.786	0.05
813.084	0.05
813.383	0.04
813.68	0.04
813.978	0.04
814.276	0.04
814.574	0.04
814.872	0.04
815.169	0.04
815.467	0.04
815.764	0.04
816.062	0.04
816.359	0.04
816.656	0.04
816.954	0.04
817.251	0.03
817.548	0.04
817.845	0.04
818.142	0.04
818.439	0.04
818.735	0.04
819.032	0.04
819.329	0.04
819.626	0.04
819.922	0.04
820.219	0.04
820.515	0.04
820.811	0.04
821.108	0.04
821.404	0.04
821.7	0.04
821.996	0.04
822.292	0.04
822.588	0.04
822.884	0.04
823.18	0.04
823.475	0.04
823.771	0.05
824.067	0.04
824.362	0.05
824.658	0.05
824.953	0.05
825.249	0.05
825.544	0.06
825.839	0.05
826.134	0.05
826.429	0.06
826.724	0.05
827.019	0.04
827.314	0.04
827.609	0.05
827.904	0.05
828.198	0.04
828.493	0.04
828.787	0.04
829.082	0.05
829.376	0.04
829.671	0.04
829.965	0.04
830.259	0.04
830.553	0.04
830.847	0.04
831.141	0.04
831.435	0.04
831.729	0.04
832.023	0.05
832.317	0.04
832.61	0.05
832.904	0.04
833.197	0.04
833.491	0.05
833.784	0.05
834.077	0.05
834.371	0.06
834.664	0.05
834.957	0.05
835.25	0.04
835.543	0.05
835.836	0.05
836.129	0.06
836.421	0.05
836.714	0.05
837.007	0.05
837.299	0.05
837.592	0.06
837.884	0.05
838.177	0.05
838.469	0.05
838.761	0.06
839.053	0.05
839.345	0.05
839.637	0.05
839.929	0.05
840.221	0.06
840.513	0.05
840.805	0.05
841.096	0.05
841.388	0.04
841.68	0.05
841.971	0.05
842.262	0.04
842.554	0.06
842.845	0.05
843.136	0.04
843.427	0.05
843.718	0.05
844.009	0.05
844.3	0.05
844.591	0.06
844.882	0.04
845.173	0.04
845.463	0.05
845.754	0.06
846.044	0.05
846.335	0.04
846.625	0.06
846.915	0.05
847.206	0.05
847.496	0.06
847.786	0.05
848.076	0.06
848.366	0.05
848.656	0.06
848.945	0.05
849.235	0.06
849.525	0.07
849.814	0.06
850.104	0.05
850.393	0.06
850.683	0.05
850.972	0.06
851.261	0.05
851.551	0.05
851.84	0.05
852.129	0.04
852.418	0.04
852.707	0.04
852.995	0.05
853.284	0.03
853.573	0.05
853.862	0.05
854.15	0.03
854.439	0.05
854.727	0.05
855.015	0.04
855.304	0.05
855.592	0.04
855.88	0.06
856.168	0.04
856.456	0.04
856.744	0.04
857.032	0.05
857.32	0.05
857.607	0.06
857.895	0.06
858.183	0.07
858.47	0.05
858.757	0.04
859.045	0.07
859.332	0.06
859.619	0.05
859.907	0.05
860.194	0.05
860.481	0.05
860.768	0.05
861.054	0.05
861.341	0.05
861.628	0.06
861.915	0.06
862.201	0.04
862.488	0.06
862.774	0.04
863.061	0.03
863.347	0.02
863.633	0.04
863.919	0.04
864.205	0.03
864.491	0.06
864.777	0.04
865.063	0.05
865.349	0.04
865.635	0.03
865.92	0.04
866.206	0.05
866.492	0.06
866.777	0.04
867.062	0.03
867.348	0.04
867.633	0.02
867.918	0.02
868.203	0.05
868.488	0.06
868.773	0.06
869.058	0.05
869.343	0.02
869.628	0.06
869.912	0.01
870.197	0.03
870.482	0.07
870.766	0.06
871.05	0.05
871.335	0.05
871.619	0.05
871.903	0.11
872.187	0.07
872.471	0.04
872.755	0.05
873.039	0.09
873.323	0.07
873.607	0.01
873.89	0.01
874.174	0.04
874.458	0.04
874.741	0.08
875.024	0.08
875.308	0
875.591	-0.07
875.874	0.02
876.157	0.04
876.44	0.1
876.723	0.13
877.006	0.08
877.289	0.04
877.572	0.03
877.854	0.08
878.137	0.09
878.42	0.03
878.702	0.02
878.984	0.04
879.267	0.05
879.549	0.14
879.831	0.09
880.113	0.02
880.395	0.1
880.677	0.16
880.959	-0.09
