Data from Rubpy_EV_1500_EDTA_Buffered_Absorbance_14-46-58-057.txt Node
Date: Tue Jun 30 14:46:58 BST 2026
User: fpm-admin
Spectrometer: OFX00224
Trigger mode: 0
Integration Time (sec): 7.000000E-2
Scans to average: 3
Nonlinearity correction enabled: false
Boxcar width: 0
Storing dark spectrum: false
XAxis mode: Wavelengths
Number of Pixels in Spectrum: 2136
>>>>>Begin Spectral Data<<<<<
154.91	0.33
155.289	-0
155.669	-0.38
156.048	0.3
156.428	-0
156.807	-0
157.186	-0.4
157.566	-0.12
157.945	0.6
158.325	-1.04
158.704	-0
159.083	-0
159.462	-0
159.842	-0
160.221	-0.37
160.6	-0.14
160.979	0.19
161.359	-0.23
161.738	-0
162.117	-0
162.496	1.32
162.875	-0
163.254	0.38
163.633	-0
164.012	-0
164.391	-0
164.77	-0
165.149	0.48
165.528	-0.37
165.907	-0.15
166.286	-0.46
166.665	-0
167.044	0.21
167.423	-0.09
167.802	-0
168.181	0.31
168.559	-0.45
168.938	0.27
169.317	-0
169.696	-0.25
170.074	1.52
170.453	-0
170.832	0.05
171.21	-0.42
171.589	-0
171.968	0.04
172.346	-0.43
172.725	-0
173.103	-0.37
173.482	-0.63
173.861	-0.3
174.239	0.98
174.617	-0
174.996	-0
175.374	1.3
175.753	-0
176.131	0.03
176.51	0.16
176.888	0.97
177.266	0.63
177.645	-0.05
178.023	-0
178.401	-0.12
178.779	0.1
179.158	-0
179.536	0.36
179.914	-0
180.292	0.19
180.67	-0.07
181.048	-0
181.427	-0
181.805	-0.3
182.183	-0
182.561	0.05
182.939	-0.9
183.317	-0.54
183.695	-0
184.073	-0.32
184.451	0.26
184.829	-0.43
185.206	0.29
185.584	-0.37
185.962	-0
186.34	-0
186.718	0.23
187.096	-1.34
187.473	-0
187.851	0.32
188.229	-0.05
188.607	0.13
188.984	0.01
189.362	0.04
189.74	0.04
190.117	0.02
190.495	-0
190.872	0.02
191.25	0.03
191.627	0.05
192.005	0.07
192.382	0.14
192.76	0.04
193.137	0.05
193.515	0.08
193.892	0.08
194.269	0.05
194.647	-0.04
195.024	-0.03
195.401	0.02
195.779	0.14
196.156	0.07
196.533	-0.02
196.91	-0.05
197.288	0.04
197.665	0.02
198.042	0.13
198.419	0.04
198.796	0.09
199.173	0.07
199.55	0.06
199.927	0.03
200.304	0.1
200.681	0.05
201.058	0.02
201.435	0.04
201.812	0.04
202.189	0.05
202.566	0.1
202.943	0.03
203.32	0.13
203.697	0.07
204.073	0.05
204.45	0.06
204.827	0.06
205.204	0.05
205.58	0.15
205.957	0.07
206.334	0.1
206.71	0.07
207.087	0.14
207.464	0.01
207.84	0.05
208.217	0.15
208.593	0.1
208.97	0.07
209.346	0.03
209.723	0.05
210.099	0.06
210.476	0.09
210.852	0.06
211.228	0.03
211.605	0.07
211.981	0.08
212.357	0.06
212.733	0.1
213.11	0.12
213.486	0.08
213.862	0.06
214.238	0.01
214.614	0.14
214.991	0.04
215.367	0.21
215.743	0.09
216.119	0.12
216.495	0.09
216.871	0.1
217.247	-0.06
217.623	0.04
217.999	0.09
218.375	0.06
218.751	-0.02
219.127	0.13
219.502	0.08
219.878	0.01
220.254	0.08
220.63	0.07
221.006	0.07
221.381	0.13
221.757	0.01
222.133	0.1
222.508	-0
222.884	0.07
223.26	0.07
223.635	0.1
224.011	0.09
224.386	0.02
224.762	0.09
225.137	0
225.513	0.05
225.888	0.08
226.264	0.02
226.639	0.04
227.014	0.09
227.39	0.07
227.765	0.21
228.14	0.1
228.516	0.09
228.891	0.07
229.266	0.05
229.641	-0.04
230.017	0.1
230.392	0.07
230.767	0.13
231.142	0.09
231.517	0.15
231.892	0.19
232.267	0.1
232.642	0.12
233.017	0.08
233.392	0.17
233.767	0.08
234.142	0.1
234.517	0.02
234.892	0.06
235.267	0.11
235.641	0.09
236.016	0
236.391	0
236.766	0.03
237.14	0.19
237.515	0.03
237.89	0.05
238.264	0.03
238.639	0.1
239.014	0.08
239.388	0.04
239.763	0.1
240.137	-0
240.512	0.09
240.886	0.07
241.261	0.11
241.635	0.15
242.009	0.05
242.384	0.06
242.758	0.12
243.132	0.05
243.507	0.1
243.881	0.11
244.255	0.08
244.629	0.03
245.004	0.07
245.378	0.06
245.752	0.13
246.126	0.11
246.5	0.17
246.874	0.02
247.248	0.08
247.622	0.1
247.996	0.11
248.37	0.02
248.744	0.08
249.118	0.13
249.492	0.25
249.866	0.03
250.24	0.14
250.613	0.08
250.987	0.04
251.361	0.06
251.735	0.09
252.108	0.09
252.482	0.07
252.856	0.04
253.229	0.04
253.603	0.09
253.977	0.09
254.35	-0
254.724	0.06
255.097	0.04
255.471	0.11
255.844	0.11
256.218	0.13
256.591	-0
256.964	0.08
257.338	0.05
257.711	0.08
258.084	0.07
258.458	0.14
258.831	0.08
259.204	0.08
259.577	0.08
259.95	0.1
260.323	0.08
260.697	0.06
261.07	0.12
261.443	0.01
261.816	-0.03
262.189	0.11
262.562	0.13
262.935	0.1
263.308	0.08
263.68	0.1
264.053	0.08
264.426	0.08
264.799	0.01
265.172	0.1
265.545	0.12
265.917	0.02
266.29	0.03
266.663	0.06
267.035	0.08
267.408	0.08
267.781	0.06
268.153	0.12
268.526	0.07
268.898	0.09
269.271	0.07
269.643	0.08
270.016	0.04
270.388	0.06
270.76	0.05
271.133	0.03
271.505	0.06
271.877	0.1
272.25	0.07
272.622	0.07
272.994	0.04
273.366	0.06
273.739	0.12
274.111	0.05
274.483	0.08
274.855	0.17
275.227	0.12
275.599	0.04
275.971	0.15
276.343	0.1
276.715	0.03
277.087	0.07
277.459	0.11
277.831	0.11
278.203	0.05
278.574	0.1
278.946	0.11
279.318	-0
279.69	0.04
280.061	0.07
280.433	0.16
280.805	0.08
281.176	0.11
281.548	0.06
281.92	0.18
282.291	0.04
282.663	0.11
283.034	0.07
283.406	0.04
283.777	0.12
284.148	0.04
284.52	0.11
284.891	0.1
285.262	0.06
285.634	0.09
286.005	0.08
286.376	0.02
286.747	0.04
287.119	0.06
287.49	0.01
287.861	0.02
288.232	0.04
288.603	0.11
288.974	0.14
289.345	0.05
289.716	0.09
290.087	0.09
290.458	0.12
290.829	0.09
291.2	0.07
291.571	0.1
291.941	0.13
292.312	0.07
292.683	0.13
293.054	0.14
293.424	0.01
293.795	0.08
294.166	0.12
294.536	0.07
294.907	0.07
295.277	0.06
295.648	0.08
296.018	0.07
296.389	0.08
296.759	0.1
297.13	0.05
297.5	0.08
297.871	0.09
298.241	0.07
298.611	0.04
298.981	0.06
299.352	0.11
299.722	0.09
300.092	0.04
300.462	0.05
300.832	0.05
301.202	0.1
301.573	0.06
301.943	0.07
302.313	0.07
302.683	0.07
303.053	0.07
303.422	0.06
303.792	0.06
304.162	0.08
304.532	0.06
304.902	0.05
305.272	0.04
305.641	0.06
306.011	0.05
306.381	0.05
306.75	0.05
307.12	0.05
307.49	0.06
307.859	0.06
308.229	0.05
308.598	0.06
308.968	0.06
309.337	0.05
309.707	0.05
310.076	0.05
310.445	0.06
310.815	0.06
311.184	0.05
311.553	0.06
311.923	0.06
312.292	0.06
312.661	0.06
313.03	0.06
313.399	0.06
313.768	0.06
314.137	0.06
314.506	0.06
314.875	0.06
315.244	0.06
315.613	0.06
315.982	0.06
316.351	0.06
316.72	0.05
317.089	0.05
317.458	0.06
317.826	0.07
318.195	0.05
318.564	0.05
318.933	0.05
319.301	0.05
319.67	0.05
320.038	0.05
320.407	0.05
320.775	0.05
321.144	0.05
321.512	0.05
321.881	0.05
322.249	0.05
322.618	0.05
322.986	0.05
323.354	0.04
323.723	0.05
324.091	0.05
324.459	0.04
324.827	0.04
325.195	0.05
325.564	0.05
325.932	0.04
326.3	0.05
326.668	0.05
327.036	0.04
327.404	0.05
327.772	0.04
328.14	0.04
328.508	0.05
328.875	0.04
329.243	0.04
329.611	0.05
329.979	0.05
330.346	0.04
330.714	0.04
331.082	0.04
331.449	0.05
331.817	0.05
332.185	0.05
332.552	0.04
332.92	0.05
333.287	0.04
333.655	0.05
334.022	0.05
334.389	0.05
334.757	0.05
335.124	0.05
335.491	0.05
335.859	0.04
336.226	0.05
336.593	0.05
336.96	0.05
337.327	0.05
337.695	0.05
338.062	0.05
338.429	0.06
338.796	0.06
339.163	0.06
339.53	0.06
339.897	0.06
340.263	0.06
340.63	0.06
340.997	0.06
341.364	0.06
341.731	0.07
342.097	0.06
342.464	0.07
342.831	0.06
343.197	0.07
343.564	0.07
343.931	0.07
344.297	0.08
344.664	0.07
345.03	0.07
345.396	0.07
345.763	0.07
346.129	0.08
346.496	0.07
346.862	0.08
347.228	0.08
347.594	0.08
347.961	0.08
348.327	0.09
348.693	0.09
349.059	0.08
349.425	0.09
349.791	0.09
350.157	0.09
350.523	0.09
350.889	0.1
351.255	0.1
351.621	0.1
351.987	0.1
352.353	0.1
352.719	0.1
353.084	0.1
353.45	0.11
353.816	0.11
354.181	0.11
354.547	0.11
354.913	0.12
355.278	0.12
355.644	0.12
356.009	0.13
356.375	0.13
356.74	0.13
357.106	0.13
357.471	0.14
357.836	0.14
358.202	0.14
358.567	0.14
358.932	0.15
359.297	0.15
359.663	0.15
360.028	0.15
360.393	0.16
360.758	0.16
361.123	0.16
361.488	0.16
361.853	0.17
362.218	0.17
362.583	0.17
362.948	0.17
363.312	0.18
363.677	0.18
364.042	0.18
364.407	0.18
364.772	0.19
365.136	0.19
365.501	0.2
365.865	0.2
366.23	0.2
366.595	0.21
366.959	0.22
367.324	0.22
367.688	0.22
368.052	0.22
368.417	0.23
368.781	0.24
369.145	0.23
369.51	0.24
369.874	0.24
370.238	0.24
370.602	0.24
370.967	0.24
371.331	0.23
371.695	0.24
372.059	0.24
372.423	0.24
372.787	0.24
373.151	0.23
373.515	0.24
373.878	0.24
374.242	0.23
374.606	0.23
374.97	0.24
375.334	0.24
375.697	0.23
376.061	0.24
376.425	0.24
376.788	0.24
377.152	0.24
377.515	0.25
377.879	0.26
378.242	0.25
378.606	0.26
378.969	0.26
379.333	0.26
379.696	0.27
380.059	0.28
380.422	0.28
380.786	0.28
381.149	0.29
381.512	0.29
381.875	0.29
382.238	0.31
382.601	0.31
382.964	0.32
383.327	0.33
383.69	0.35
384.053	0.35
384.416	0.36
384.779	0.37
385.142	0.38
385.504	0.38
385.867	0.39
386.23	0.39
386.593	0.4
386.955	0.4
387.318	0.4
387.68	0.39
388.043	0.4
388.405	0.39
388.768	0.39
389.13	0.38
389.493	0.38
389.855	0.38
390.217	0.38
390.58	0.38
390.942	0.38
391.304	0.38
391.666	0.39
392.028	0.4
392.391	0.4
392.753	0.41
393.115	0.43
393.477	0.45
393.839	0.46
394.201	0.48
394.563	0.51
394.924	0.52
395.286	0.54
395.648	0.56
396.01	0.58
396.371	0.59
396.733	0.61
397.095	0.62
397.456	0.63
397.818	0.62
398.18	0.62
398.541	0.6
398.903	0.6
399.264	0.58
399.625	0.56
399.987	0.53
400.348	0.51
400.709	0.49
401.071	0.46
401.432	0.43
401.793	0.4
402.154	0.38
402.515	0.35
402.876	0.33
403.238	0.3
403.599	0.29
403.96	0.26
404.32	0.24
404.681	0.23
405.042	0.21
405.403	0.19
405.764	0.18
406.125	0.17
406.485	0.15
406.846	0.15
407.207	0.14
407.567	0.13
407.928	0.12
408.288	0.11
408.649	0.11
409.009	0.1
409.37	0.1
409.73	0.09
410.091	0.09
410.451	0.08
410.811	0.08
411.171	0.08
411.532	0.08
411.892	0.07
412.252	0.06
412.612	0.07
412.972	0.06
413.332	0.06
413.692	0.06
414.052	0.06
414.412	0.05
414.772	0.06
415.132	0.05
415.492	0.05
415.851	0.05
416.211	0.05
416.571	0.05
416.931	0.05
417.29	0.04
417.65	0.05
418.009	0.04
418.369	0.04
418.728	0.04
419.088	0.04
419.447	0.03
419.807	0.03
420.166	0.04
420.525	0.03
420.884	0.03
421.244	0.04
421.603	0.03
421.962	0.03
422.321	0.03
422.68	0.03
423.039	0.04
423.398	0.03
423.757	0.04
424.116	0.04
424.475	0.03
424.834	0.04
425.193	0.03
425.551	0.02
425.91	0.03
426.269	0.02
426.628	0.02
426.986	0.02
427.345	0.02
427.703	0.03
428.062	0.03
428.42	0.02
428.779	0.02
429.137	0.03
429.496	0.03
429.854	0.02
430.212	0.03
430.57	0.02
430.929	0.02
431.287	0.02
431.645	0.02
432.003	0.02
432.361	0.02
432.719	0.02
433.077	0.02
433.435	0.02
433.793	0.03
434.151	0.01
434.509	0.02
434.866	0.02
435.224	0.02
435.582	0.02
435.94	0.02
436.297	0.02
436.655	0.02
437.012	0.02
437.37	0.02
437.727	0.02
438.085	0.02
438.442	0.02
438.8	0.01
439.157	0.01
439.514	0.02
439.872	0.01
440.229	0.02
440.586	0.02
440.943	0.01
441.3	0.02
441.657	0.02
442.014	0.02
442.371	0.02
442.728	0.01
443.085	0.01
443.442	0.02
443.799	0.02
444.156	0.01
444.513	0.01
444.869	0.01
445.226	0.01
445.583	0.01
445.939	0.02
446.296	0.01
446.652	0.01
447.009	0.01
447.365	0
447.722	0.01
448.078	0
448.434	0.01
448.791	0
449.147	0.01
449.503	-0
449.859	0.01
450.215	0
450.571	0.01
450.928	0.01
451.284	-0
451.64	-0
451.995	0
452.351	-0.01
452.707	0
453.063	-0
453.419	0.01
453.775	-0
454.13	-0
454.486	0
454.842	-0.01
455.197	-0.01
455.553	-0.01
455.908	-0.01
456.264	-0.02
456.619	-0.02
456.975	-0.01
457.33	-0.02
457.685	-0.03
458.04	-0.02
458.396	-0.02
458.751	-0.02
459.106	-0.02
459.461	-0.03
459.816	-0.02
460.171	-0.03
460.526	-0.03
460.881	-0.04
461.236	-0.04
461.591	-0.03
461.946	-0.04
462.301	-0.04
462.655	-0.04
463.01	-0.04
463.365	-0.05
463.719	-0.04
464.074	-0.05
464.428	-0.06
464.783	-0.05
465.137	-0.06
465.492	-0.07
465.846	-0.06
466.201	-0.06
466.555	-0.06
466.909	-0.06
467.263	-0.05
467.618	-0.06
467.972	-0.06
468.326	-0.07
468.68	-0.07
469.034	-0.07
469.388	-0.07
469.742	-0.06
470.096	-0.07
470.45	-0.06
470.804	-0.06
471.157	-0.06
471.511	-0.07
471.865	-0.06
472.218	-0.06
472.572	-0.06
472.926	-0.06
473.279	-0.06
473.633	-0.06
473.986	-0.05
474.34	-0.05
474.693	-0.05
475.046	-0.04
475.4	-0.04
475.753	-0.04
476.106	-0.04
476.459	-0.03
476.812	-0.03
477.165	-0.03
477.519	-0.03
477.872	-0.03
478.224	-0.02
478.577	-0.02
478.93	-0.01
479.283	-0.02
479.636	-0.02
479.989	-0.01
480.341	-0.01
480.694	-0.01
481.047	-0.01
481.399	-0.01
481.752	-0.01
482.104	-0.01
482.457	-0
482.809	-0
483.162	-0
483.514	-0
483.866	0
484.219	0
484.571	0
484.923	0.01
485.275	0.01
485.627	0
485.979	0
486.331	0.01
486.683	0.01
487.035	0.01
487.387	0.01
487.739	0.01
488.091	0.01
488.443	0.02
488.794	0.01
489.146	0.02
489.498	0.02
489.849	0.01
490.201	0.01
490.552	0.01
490.904	0.02
491.255	0.02
491.607	0.02
491.958	0.01
492.309	0.02
492.661	0.02
493.012	0.01
493.363	0.02
493.714	0.02
494.065	0.02
494.416	0.01
494.767	0.02
495.118	0.02
495.469	0.03
495.82	0.03
496.171	0.03
496.522	0.02
496.872	0.03
497.223	0.03
497.574	0.03
497.924	0.03
498.275	0.03
498.626	0.03
498.976	0.03
499.327	0.03
499.677	0.03
500.027	0.03
500.378	0.03
500.728	0.04
501.078	0.03
501.428	0.03
501.779	0.03
502.129	0.04
502.479	0.03
502.829	0.04
503.179	0.04
503.529	0.04
503.879	0.04
504.229	0.04
504.578	0.04
504.928	0.04
505.278	0.04
505.628	0.04
505.977	0.04
506.327	0.04
506.676	0.04
507.026	0.04
507.375	0.04
507.725	0.04
508.074	0.04
508.424	0.04
508.773	0.04
509.122	0.05
509.471	0.05
509.82	0.05
510.17	0.05
510.519	0.05
510.868	0.05
511.217	0.05
511.566	0.05
511.915	0.05
512.263	0.05
512.612	0.05
512.961	0.05
513.31	0.05
513.659	0.05
514.007	0.05
514.356	0.06
514.704	0.06
515.053	0.06
515.401	0.05
515.75	0.06
516.098	0.06
516.447	0.06
516.795	0.06
517.143	0.06
517.491	0.06
517.839	0.06
518.188	0.06
518.536	0.06
518.884	0.06
519.232	0.06
519.58	0.06
519.928	0.06
520.275	0.06
520.623	0.06
520.971	0.07
521.319	0.06
521.666	0.07
522.014	0.07
522.362	0.07
522.709	0.07
523.057	0.07
523.404	0.06
523.752	0.07
524.099	0.07
524.446	0.07
524.794	0.07
525.141	0.07
525.488	0.07
525.835	0.07
526.182	0.07
526.529	0.07
526.876	0.07
527.223	0.08
527.57	0.07
527.917	0.08
528.264	0.08
528.611	0.07
528.958	0.08
529.304	0.08
529.651	0.08
529.998	0.08
530.344	0.08
530.691	0.08
531.037	0.08
531.384	0.08
531.73	0.08
532.076	0.08
532.423	0.08
532.769	0.09
533.115	0.09
533.461	0.09
533.807	0.09
534.154	0.09
534.5	0.09
534.846	0.09
535.192	0.09
535.537	0.09
535.883	0.09
536.229	0.09
536.575	0.09
536.921	0.1
537.266	0.09
537.612	0.1
537.957	0.1
538.303	0.1
538.649	0.1
538.994	0.09
539.339	0.1
539.685	0.1
540.03	0.1
540.375	0.1
540.721	0.1
541.066	0.1
541.411	0.1
541.756	0.1
542.101	0.1
542.446	0.1
542.791	0.1
543.136	0.1
543.481	0.1
543.825	0.11
544.17	0.11
544.515	0.11
544.86	0.11
545.204	0.11
545.549	0.11
545.893	0.11
546.238	0.11
546.582	0.12
546.927	0.11
547.271	0.11
547.615	0.12
547.96	0.12
548.304	0.12
548.648	0.12
548.992	0.12
549.336	0.12
549.68	0.12
550.024	0.12
550.368	0.12
550.712	0.12
551.056	0.12
551.4	0.13
551.743	0.13
552.087	0.13
552.431	0.12
552.774	0.12
553.118	0.13
553.462	0.13
553.805	0.13
554.148	0.13
554.492	0.13
554.835	0.13
555.178	0.13
555.522	0.13
555.865	0.13
556.208	0.13
556.551	0.13
556.894	0.13
557.237	0.14
557.58	0.13
557.923	0.14
558.266	0.13
558.609	0.14
558.952	0.14
559.294	0.14
559.637	0.14
559.98	0.14
560.322	0.14
560.665	0.14
561.007	0.14
561.35	0.14
561.692	0.14
562.034	0.14
562.377	0.14
562.719	0.14
563.061	0.14
563.403	0.15
563.745	0.14
564.088	0.15
564.43	0.14
564.772	0.14
565.113	0.14
565.455	0.14
565.797	0.15
566.139	0.15
566.481	0.14
566.822	0.15
567.164	0.15
567.506	0.14
567.847	0.15
568.189	0.15
568.53	0.15
568.872	0.15
569.213	0.15
569.554	0.15
569.895	0.14
570.237	0.15
570.578	0.14
570.919	0.15
571.26	0.14
571.601	0.15
571.942	0.15
572.283	0.15
572.624	0.15
572.965	0.15
573.306	0.15
573.646	0.15
573.987	0.14
574.328	0.15
574.668	0.15
575.009	0.15
575.349	0.15
575.69	0.14
576.03	0.14
576.37	0.14
576.711	0.14
577.051	0.15
577.391	0.14
577.731	0.15
578.072	0.14
578.412	0.14
578.752	0.14
579.092	0.15
579.431	0.14
579.771	0.13
580.111	0.13
580.451	0.13
580.791	0.14
581.13	0.14
581.47	0.14
581.81	0.14
582.149	0.14
582.489	0.15
582.828	0.14
583.167	0.14
583.507	0.11
583.846	0.09
584.185	0.11
584.525	0.13
584.864	0.14
585.203	0.15
585.542	0.16
585.881	0.15
586.22	0.16
586.559	0.15
586.898	0.15
587.236	0.14
587.575	0.14
587.914	0.15
588.252	0.15
588.591	0.16
588.93	0.16
589.268	0.15
589.607	0.16
589.945	0.16
590.283	0.16
590.622	0.16
590.96	0.16
591.298	0.16
591.636	0.16
591.974	0.16
592.313	0.17
592.651	0.17
592.989	0.17
593.326	0.17
593.664	0.17
594.002	0.17
594.34	0.17
594.678	0.17
595.015	0.16
595.353	0.16
595.691	0.16
596.028	0.17
596.366	0.17
596.703	0.18
597.04	0.17
597.378	0.18
597.715	0.18
598.052	0.18
598.389	0.18
598.726	0.18
599.064	0.18
599.401	0.18
599.738	0.18
600.074	0.18
600.411	0.18
600.748	0.18
601.085	0.18
601.422	0.18
601.758	0.18
602.095	0.18
602.432	0.18
602.768	0.18
603.105	0.18
603.441	0.18
603.777	0.18
604.114	0.18
604.45	0.18
604.786	0.18
605.122	0.18
605.459	0.18
605.795	0.18
606.131	0.18
606.467	0.18
606.803	0.18
607.139	0.18
607.474	0.18
607.81	0.18
608.146	0.18
608.482	0.18
608.817	0.18
609.153	0.18
609.488	0.18
609.824	0.18
610.159	0.18
610.495	0.18
610.83	0.18
611.165	0.18
611.5	0.18
611.836	0.18
612.171	0.18
612.506	0.18
612.841	0.18
613.176	0.18
613.511	0.18
613.845	0.18
614.18	0.18
614.515	0.18
614.85	0.18
615.184	0.17
615.519	0.17
615.854	0.17
616.188	0.17
616.523	0.17
616.857	0.17
617.191	0.17
617.526	0.17
617.86	0.17
618.194	0.17
618.528	0.17
618.862	0.17
619.196	0.17
619.53	0.17
619.864	0.17
620.198	0.17
620.532	0.17
620.866	0.17
621.2	0.16
621.533	0.16
621.867	0.17
622.201	0.17
622.534	0.16
622.868	0.16
623.201	0.16
623.534	0.17
623.868	0.16
624.201	0.16
624.534	0.16
624.868	0.16
625.201	0.16
625.534	0.16
625.867	0.16
626.2	0.16
626.533	0.16
626.865	0.16
627.198	0.16
627.531	0.16
627.864	0.15
628.196	0.15
628.529	0.15
628.862	0.15
629.194	0.15
629.527	0.15
629.859	0.15
630.191	0.15
630.524	0.15
630.856	0.15
631.188	0.14
631.52	0.14
631.852	0.14
632.184	0.15
632.516	0.14
632.848	0.14
633.18	0.14
633.512	0.14
633.844	0.14
634.175	0.13
634.507	0.13
634.839	0.13
635.17	0.13
635.502	0.13
635.833	0.13
636.165	0.13
636.496	0.13
636.827	0.13
637.159	0.13
637.49	0.13
637.821	0.13
638.152	0.13
638.483	0.13
638.814	0.12
639.145	0.12
639.476	0.12
639.807	0.12
640.137	0.12
640.468	0.12
640.799	0.12
641.129	0.12
641.46	0.12
641.791	0.11
642.121	0.12
642.451	0.12
642.782	0.11
643.112	0.11
643.442	0.11
643.773	0.11
644.103	0.11
644.433	0.11
644.763	0.1
645.093	0.11
645.423	0.1
645.753	0.1
646.082	0.11
646.412	0.1
646.742	0.1
647.072	0.11
647.401	0.11
647.731	0.1
648.06	0.11
648.39	0.1
648.719	0.11
649.048	0.1
649.378	0.1
649.707	0.1
650.036	0.1
650.365	0.1
650.694	0.1
651.023	0.1
651.352	0.1
651.681	0.1
652.01	0.1
652.339	0.1
652.668	0.1
652.996	0.1
653.325	0.1
653.654	0.1
653.982	0.1
654.311	0.1
654.639	0.1
654.967	0.1
655.296	0.1
655.624	0.1
655.952	0.1
656.28	0.09
656.609	0.1
656.937	0.1
657.265	0.1
657.593	0.06
657.92	0
658.248	0
658.576	0
658.904	0
659.231	0.06
659.559	0.09
659.887	0.1
660.214	0.1
660.542	0.1
660.869	0.1
661.196	0.1
661.524	0.1
661.851	0.1
662.178	0.1
662.505	0.09
662.832	0.09
663.159	0.09
663.486	0.09
663.813	0.09
664.14	0.09
664.467	0.09
664.794	0.09
665.12	0.09
665.447	0.09
665.774	0.09
666.1	0.09
666.427	0.09
666.753	0.09
667.079	0.09
667.406	0.09
667.732	0.09
668.058	0.09
668.384	0.09
668.71	0.09
669.036	0.09
669.362	0.09
669.688	0.09
670.014	0.09
670.34	0.09
670.666	0.09
670.991	0.09
671.317	0.09
671.643	0.09
671.968	0.09
672.294	0.09
672.619	0.08
672.945	0.09
673.27	0.09
673.595	0.09
673.92	0.09
674.246	0.09
674.571	0.09
674.896	0.09
675.221	0.09
675.546	0.09
675.87	0.08
676.195	0.09
676.52	0.08
676.845	0.08
677.169	0.08
677.494	0.08
677.819	0.08
678.143	0.08
678.468	0.08
678.792	0.08
679.116	0.08
679.44	0.08
679.765	0.08
680.089	0.08
680.413	0.08
680.737	0.07
681.061	0.07
681.385	0.07
681.709	0.07
682.033	0.07
682.356	0.07
682.68	0.07
683.004	0.07
683.327	0.07
683.651	0.06
683.974	0.06
684.298	0.07
684.621	0.07
684.944	0.06
685.268	0.07
685.591	0.06
685.914	0.06
686.237	0.06
686.56	0.06
686.883	0.06
687.206	0.06
687.529	0.06
687.852	0.06
688.175	0.06
688.497	0.06
688.82	0.06
689.142	0.05
689.465	0.06
689.787	0.06
690.11	0.06
690.432	0.05
690.755	0.05
691.077	0.05
691.399	0.05
691.721	0.05
692.043	0.05
692.365	0.05
692.687	0.05
693.009	0.04
693.331	0.05
693.653	0.05
693.974	0.05
694.296	0.04
694.618	0.05
694.939	0.05
695.261	0.04
695.582	0.05
695.904	0.05
696.225	0.04
696.546	0.04
696.868	0.04
697.189	0.04
697.51	0.04
697.831	0.04
698.152	0.05
698.473	0.04
698.794	0.04
699.114	0.04
699.435	0.04
699.756	0.04
700.077	0.04
700.397	0.04
700.718	0.04
701.038	0.04
701.359	0.04
701.679	0.04
701.999	0.04
702.32	0.04
702.64	0.04
702.96	0.04
703.28	0.04
703.6	0.04
703.92	0.04
704.24	0.04
704.56	0.04
704.879	0.03
705.199	0.03
705.519	0.03
705.838	0.03
706.158	0.03
706.478	0.03
706.797	0.04
707.116	0.03
707.436	0.03
707.755	0.03
708.074	0.03
708.393	0.04
708.712	0.04
709.031	0.03
709.35	0.03
709.669	0.03
709.988	0.03
710.307	0.03
710.626	0.03
710.944	0.03
711.263	0.03
711.582	0.03
711.9	0.03
712.219	0.03
712.537	0.03
712.855	0.03
713.174	0.03
713.492	0.03
713.81	0.03
714.128	0.03
714.446	0.03
714.764	0.03
715.082	0.03
715.4	0.03
715.718	0.03
716.035	0.03
716.353	0.03
716.671	0.03
716.988	0.03
717.306	0.03
717.623	0.03
717.941	0.03
718.258	0.03
718.575	0.03
718.893	0.03
719.21	0.03
719.527	0.03
719.844	0.03
720.161	0.03
720.478	0.03
720.795	0.03
721.112	0.03
721.428	0.03
721.745	0.03
722.062	0.03
722.378	0.03
722.695	0.03
723.011	0.03
723.328	0.03
723.644	0.03
723.96	0.03
724.276	0.03
724.593	0.03
724.909	0.03
725.225	0.03
725.541	0.03
725.857	0.03
726.173	0.03
726.488	0.03
726.804	0.03
727.12	0.03
727.435	0.03
727.751	0.04
728.067	0.04
728.382	0.04
728.697	0.04
729.013	0.04
729.328	0.04
729.643	0.04
729.958	0.03
730.273	0.04
730.588	0.03
730.903	0.04
731.218	0.04
731.533	0.04
731.848	0.04
732.163	0.04
732.477	0.04
732.792	0.04
733.107	0.03
733.421	0.04
733.736	0.04
734.05	0.04
734.364	0.04
734.678	0.04
734.993	0.04
735.307	0.04
735.621	0.04
735.935	0.04
736.249	0.03
736.563	0.04
736.877	0.03
737.19	0.04
737.504	0.03
737.818	0.03
738.131	0.03
738.445	0.03
738.758	0.03
739.072	0.03
739.385	0.03
739.698	0.03
740.012	0.03
740.325	0.03
740.638	0.03
740.951	0.03
741.264	0.03
741.577	0.03
741.89	0.04
742.203	0.04
742.515	0.04
742.828	0.04
743.141	0.04
743.453	0.04
743.766	0.04
744.078	0.04
744.391	0.04
744.703	0.04
745.015	0.03
745.327	0.04
745.639	0.03
745.952	0.04
746.264	0.03
746.575	0.03
746.887	0.03
747.199	0.03
747.511	0.03
747.823	0.03
748.134	0.03
748.446	0.03
748.757	0.03
749.069	0.03
749.38	0.03
749.692	0.03
750.003	0.03
750.314	0.03
750.625	0.03
750.936	0.03
751.248	0.02
751.559	0.03
751.869	0.02
752.18	0.02
752.491	0.02
752.802	0.03
753.112	0.03
753.423	0.02
753.734	0.03
754.044	0.03
754.355	0.02
754.665	0.02
754.975	0.02
755.285	0.02
755.596	0.02
755.906	0.01
756.216	0.02
756.526	0.02
756.836	0.02
757.146	0.02
757.455	0.02
757.765	0.02
758.075	0.02
758.385	0.02
758.694	0.02
759.004	0.01
759.313	0.01
759.622	0.01
759.932	0.02
760.241	0.01
760.55	0.02
760.859	0.01
761.168	0.02
761.477	0.02
761.786	0.02
762.095	0.01
762.404	0.01
762.713	0.01
763.021	0.01
763.33	0.01
763.639	0.01
763.947	0.01
764.256	0.01
764.564	0.01
764.872	0.01
765.181	0.01
765.489	0.01
765.797	0.01
766.105	0.01
766.413	0.01
766.721	0.01
767.029	0.01
767.337	0.01
767.644	0.01
767.952	0.01
768.26	0.01
768.567	0.01
768.875	0.02
769.182	0.02
769.49	0.01
769.797	0.01
770.104	0.01
770.411	0.01
770.718	0.01
771.026	0.01
771.333	0.01
771.639	0.01
771.946	0.01
772.253	0.01
772.56	0.01
772.867	0.01
773.173	0.01
773.48	0.01
773.786	0.01
774.093	0.01
774.399	0.01
774.705	0.01
775.012	0.01
775.318	0.01
775.624	0.01
775.93	0.01
776.236	0.01
776.542	0.01
776.848	0.01
777.154	0.01
777.459	0.01
777.765	0.01
778.071	0.01
778.376	0.01
778.682	0.01
778.987	0.01
779.292	0.01
779.598	0.01
779.903	0.01
780.208	0.01
780.513	0.01
780.818	0.01
781.123	0.01
781.428	0.01
781.733	0.01
782.038	0.01
782.343	0.01
782.647	0.01
782.952	0.01
783.256	0.01
783.561	0.01
783.865	0.01
784.17	0.01
784.474	0.01
784.778	0.01
785.082	0.01
785.386	0.01
785.69	0.01
785.994	0.01
786.298	0.01
786.602	0.01
786.906	0.01
787.209	0.01
787.513	0.01
787.817	0.01
788.12	0.01
788.424	0.01
788.727	0.01
789.03	0.01
789.333	0.01
789.637	0.01
789.94	0.01
790.243	0.01
790.546	0.01
790.849	0.01
791.152	0.01
791.454	0.01
791.757	0.01
792.06	0.01
792.362	0.01
792.665	0.01
792.967	0.01
793.27	0.01
793.572	0.01
793.874	0.01
794.177	0.01
794.479	0.01
794.781	0.01
795.083	0.01
795.385	0.01
795.687	0.01
795.989	0.01
796.29	0.01
796.592	0.01
796.894	0.01
797.195	0.01
797.497	0.01
797.798	0.01
798.1	0.01
798.401	0.01
798.702	0.01
799.003	0.01
799.304	0.01
799.605	0.01
799.906	0.01
800.207	0.01
800.508	0.01
800.809	0.01
801.11	0.01
801.41	0.01
801.711	0.01
802.011	0.01
802.312	0.01
802.612	0.01
802.913	0.02
803.213	0.02
803.513	0.01
803.813	0.01
804.113	0.02
804.413	0.01
804.713	0.02
805.013	0.02
805.313	0.01
805.613	0.01
805.912	0.01
806.212	0.02
806.511	0.02
806.811	0.02
807.11	0.02
807.41	0.02
807.709	0.02
808.008	0.02
808.307	0.02
808.606	0.02
808.905	0.02
809.204	0.02
809.503	0.01
809.802	0.02
810.101	0.01
810.399	0.01
810.698	0.01
810.997	0.01
811.295	0.01
811.593	0.01
811.892	0.01
812.19	0.01
812.488	0.02
812.786	0.01
813.084	0.02
813.383	0.01
813.68	0.01
813.978	0.01
814.276	0.01
814.574	0.01
814.872	0.01
815.169	0.01
815.467	0.02
815.764	0.01
816.062	0.02
816.359	0.02
816.656	0.02
816.954	0.01
817.251	0.01
817.548	0.01
817.845	0.02
818.142	0.01
818.439	0.01
818.735	0.01
819.032	0.01
819.329	0.02
819.626	0.01
819.922	0.01
820.219	0.01
820.515	0.01
820.811	0.01
821.108	0.01
821.404	0.01
821.7	0.01
821.996	0.01
822.292	0.01
822.588	0.01
822.884	0.01
823.18	0.01
823.475	0.01
823.771	0.01
824.067	0.01
824.362	0.02
824.658	0.02
824.953	0.02
825.249	0.02
825.544	0.02
825.839	0.02
826.134	0.02
826.429	0.01
826.724	0.02
827.019	0.01
827.314	0.01
827.609	0.01
827.904	0.01
828.198	0.01
828.493	0.01
828.787	0.01
829.082	0.01
829.376	0.01
829.671	0.01
829.965	0.01
830.259	0.01
830.553	0.02
830.847	0.01
831.141	0.01
831.435	0.01
831.729	0.01
832.023	0.02
832.317	0.01
832.61	0.01
832.904	0
833.197	0.01
833.491	0.01
833.784	0.01
834.077	0.01
834.371	0.02
834.664	0.01
834.957	0.01
835.25	0.01
835.543	0.01
835.836	0.01
836.129	0.02
836.421	0.01
836.714	0.02
837.007	0.01
837.299	0.02
837.592	0.02
837.884	0.02
838.177	0.02
838.469	0.01
838.761	0.02
839.053	0.01
839.345	0.02
839.637	0.02
839.929	0.02
840.221	0.02
840.513	0.02
840.805	0.02
841.096	0.02
841.388	0.01
841.68	0.02
841.971	0.02
842.262	0.02
842.554	0.02
842.845	0.02
843.136	0.01
843.427	0.02
843.718	0.02
844.009	0.01
844.3	0.01
844.591	0.01
844.882	0
845.173	0.01
845.463	0.01
845.754	0.02
846.044	0.01
846.335	0.01
846.625	0.01
846.915	0.02
847.206	0.02
847.496	0.02
847.786	0.02
848.076	0.02
848.366	0.01
848.656	0.03
848.945	0.02
849.235	0.03
849.525	0.02
849.814	0.02
850.104	0.02
850.393	0.02
850.683	0.02
850.972	0.02
851.261	0.02
851.551	0.04
851.84	0.02
852.129	0.01
852.418	0.02
852.707	0
852.995	0.01
853.284	0
853.573	0.01
853.862	0.01
854.15	0
854.439	0.01
854.727	0.02
855.015	0.01
855.304	0.01
855.592	0
855.88	0.03
856.168	0.01
856.456	0.02
856.744	0.02
857.032	0.01
857.32	0.02
857.607	0.02
857.895	0.01
858.183	0.03
858.47	0.01
858.757	-0
859.045	0.02
859.332	0.01
859.619	-0
859.907	0.02
860.194	0.01
860.481	0
860.768	0
861.054	-0.01
861.341	0.02
861.628	0.03
861.915	0.01
862.201	0.02
862.488	-0
862.774	-0.01
863.061	-0
863.347	-0.01
863.633	0.01
863.919	0.02
864.205	0.02
864.491	0.02
864.777	0.01
865.063	0
865.349	-0
865.635	-0.02
865.92	-0
866.206	0
866.492	0.04
866.777	0.03
867.062	0
867.348	-0.02
867.633	-0
867.918	-0.03
868.203	0.02
868.488	0
868.773	0.02
869.058	-0
869.343	-0.01
869.628	0.02
869.912	0.03
870.197	0
870.482	0
870.766	0.03
871.05	-0.01
871.335	-0
871.619	0
871.903	0.02
872.187	0.03
872.471	-0
872.755	-0.02
873.039	0.07
873.323	-0
873.607	-0.01
873.89	-0.02
874.174	0.02
874.458	-0.03
874.741	-0.03
875.024	-0.02
875.308	-0.04
875.591	-0.06
875.874	-0.03
876.157	0.02
876.44	-0.02
876.723	-0
877.006	0.07
877.289	0.01
877.572	0.03
877.854	0.02
878.137	0.08
878.42	-0.01
878.702	0.06
878.984	0.02
879.267	0.05
879.549	0.03
879.831	0.01
880.113	-0.02
880.395	0.02
880.677	0.12
880.959	-0.11
