Data from Rubpy_EV_1500_EDTA_Buffered_Absorbance_14-57-51-003.txt Node
Date: Tue Jun 30 14:57:51 BST 2026
User: fpm-admin
Spectrometer: OFX00224
Trigger mode: 0
Integration Time (sec): 7.000000E-2
Scans to average: 3
Nonlinearity correction enabled: false
Boxcar width: 0
Storing dark spectrum: false
XAxis mode: Wavelengths
Number of Pixels in Spectrum: 2136
>>>>>Begin Spectral Data<<<<<
154.91	0.06
155.289	-0.54
155.669	-0.34
156.048	-0.15
156.428	-0.46
156.807	-0
157.186	-0
157.566	0.29
157.945	-0.59
158.325	-1.34
158.704	-0
159.083	-0
159.462	-0.35
159.842	-0.05
160.221	-0.1
160.6	0.48
160.979	0.51
161.359	-0.49
161.738	-0
162.117	0.12
162.496	-0
162.875	-0.32
163.254	-0.15
163.633	0.6
164.012	0.04
164.391	-0
164.77	0.05
165.149	0.18
165.528	-0
165.907	-0.29
166.286	-0.53
166.665	-0
167.044	0.18
167.423	0.08
167.802	-0
168.181	0.4
168.559	-0.33
168.938	0.5
169.317	-0.06
169.696	-0
170.074	0.07
170.453	-0.51
170.832	0.08
171.21	0.34
171.589	-0
171.968	0.17
172.346	-0.78
172.725	-0.3
173.103	-0.31
173.482	-0.8
173.861	-0.27
174.239	0.05
174.617	0.28
174.996	-0.34
175.374	-0
175.753	0.64
176.131	-0.12
176.51	-0
176.888	0.05
177.266	-0
177.645	-0.11
178.023	0.55
178.401	-0.33
178.779	0.2
179.158	0.43
179.536	-0
179.914	0.26
180.292	0.52
180.67	-0.26
181.048	-0
181.427	0.46
181.805	-0.24
182.183	-0
182.561	0.19
182.939	-1.23
183.317	-0
183.695	0.53
184.073	-0.4
184.451	-0.06
184.829	-0.1
185.206	0.09
185.584	-0.39
185.962	-0
186.34	-0
186.718	-0
187.096	-1.26
187.473	-0
187.851	-0
188.229	0.18
188.607	0.09
188.984	0.17
189.362	0.23
189.74	0.22
190.117	0.12
190.495	0.13
190.872	0.14
191.25	0.14
191.627	0.17
192.005	0.13
192.382	0.16
192.76	0.21
193.137	0.12
193.515	0.18
193.892	0.1
194.269	0.21
194.647	0.2
195.024	0.15
195.401	0.07
195.779	0.23
196.156	0.14
196.533	0.1
196.91	0.06
197.288	0.04
197.665	0.19
198.042	0.11
198.419	0.17
198.796	0.19
199.173	0.22
199.55	0.08
199.927	0.17
200.304	0.26
200.681	0.15
201.058	0.14
201.435	0.17
201.812	0.14
202.189	0.22
202.566	0.24
202.943	0.07
203.32	0.25
203.697	0.09
204.073	0.14
204.45	0.17
204.827	0.14
205.204	0.24
205.58	0.14
205.957	0.08
206.334	0.23
206.71	0.06
207.087	0.35
207.464	0.16
207.84	0.15
208.217	0.2
208.593	0.2
208.97	0.13
209.346	0.15
209.723	0.19
210.099	0.1
210.476	0.19
210.852	0.06
211.228	0.23
211.605	0.21
211.981	0.21
212.357	0.17
212.733	0.11
213.11	0.23
213.486	0.2
213.862	0.19
214.238	0.14
214.614	0.22
214.991	0.16
215.367	0.14
215.743	0.15
216.119	0.19
216.495	0.03
216.871	0.14
217.247	0.06
217.623	0.1
217.999	0.12
218.375	0.22
218.751	0.16
219.127	0.17
219.502	0.22
219.878	0.06
220.254	0.22
220.63	0.2
221.006	0.18
221.381	0.16
221.757	0.16
222.133	0.3
222.508	0.13
222.884	0.18
223.26	0.21
223.635	0.13
224.011	0.21
224.386	0.05
224.762	0.19
225.137	0.04
225.513	0.26
225.888	0.16
226.264	0.13
226.639	0.14
227.014	0.2
227.39	0.22
227.765	0.26
228.14	0.29
228.516	0.23
228.891	0.17
229.266	0.19
229.641	0.33
230.017	0.11
230.392	0.1
230.767	0.2
231.142	0.19
231.517	0.22
231.892	0.16
232.267	0.22
232.642	0.15
233.017	0.18
233.392	0.2
233.767	0.27
234.142	0.16
234.517	0.1
234.892	0.2
235.267	0.17
235.641	0.16
236.016	0.17
236.391	0.15
236.766	0.1
237.14	0.16
237.515	0.08
237.89	0.13
238.264	0.09
238.639	0.1
239.014	0.15
239.388	0.18
239.763	0.14
240.137	0.2
240.512	0.14
240.886	0.18
241.261	0.14
241.635	0.23
242.009	0.17
242.384	0.14
242.758	0.09
243.132	0.12
243.507	0.22
243.881	0.19
244.255	0.23
244.629	0.17
245.004	0.19
245.378	0.13
245.752	0.15
246.126	0.2
246.5	0.14
246.874	0.09
247.248	0.03
247.622	0.23
247.996	0.21
248.37	0.16
248.744	0.16
249.118	0.12
249.492	0.15
249.866	0.13
250.24	0.2
250.613	0.14
250.987	0.07
251.361	0.16
251.735	0.12
252.108	0.19
252.482	0.24
252.856	0.37
253.229	0.17
253.603	0.28
253.977	0.27
254.35	0.08
254.724	0.12
255.097	0.08
255.471	0.24
255.844	0.23
256.218	0.15
256.591	0.05
256.964	0.22
257.338	0.14
257.711	0.15
258.084	0.22
258.458	0.22
258.831	0.2
259.204	0.14
259.577	0.17
259.95	0.2
260.323	0.14
260.697	0.13
261.07	0.1
261.443	0.13
261.816	0.13
262.189	0.17
262.562	0.18
262.935	0.17
263.308	0.2
263.68	0.13
264.053	0.18
264.426	0.12
264.799	0.21
265.172	0.16
265.545	0.23
265.917	0.16
266.29	0.16
266.663	0.18
267.035	0.15
267.408	0.21
267.781	0.13
268.153	0.18
268.526	0.16
268.898	0.17
269.271	0.22
269.643	0.23
270.016	0.11
270.388	0.23
270.76	0.14
271.133	0.23
271.505	0.19
271.877	0.18
272.25	0.25
272.622	0.11
272.994	0.13
273.366	0.23
273.739	0.22
274.111	0.12
274.483	0.15
274.855	0.25
275.227	0.18
275.599	0.17
275.971	0.25
276.343	0.17
276.715	0.07
277.087	0.19
277.459	0.22
277.831	0.22
278.203	0.16
278.574	0.18
278.946	0.22
279.318	0.08
279.69	0.13
280.061	0.16
280.433	0.16
280.805	0.16
281.176	0.18
281.548	0.2
281.92	0.15
282.291	0.11
282.663	0.21
283.034	0.16
283.406	0.17
283.777	0.23
284.148	0.13
284.52	0.25
284.891	0.19
285.262	0.22
285.634	0.15
286.005	0.19
286.376	0.13
286.747	0.1
287.119	0.15
287.49	0.06
287.861	0.17
288.232	0.18
288.603	0.21
288.974	0.15
289.345	0.13
289.716	0.25
290.087	0.12
290.458	0.15
290.829	0.24
291.2	0.14
291.571	0.2
291.941	0.12
292.312	0.17
292.683	0.19
293.054	0.19
293.424	0.11
293.795	0.18
294.166	0.14
294.536	0.13
294.907	0.14
295.277	0.16
295.648	0.18
296.018	0.19
296.389	0.18
296.759	0.13
297.13	0.15
297.5	0.15
297.871	0.17
298.241	0.15
298.611	0.15
298.981	0.16
299.352	0.14
299.722	0.15
300.092	0.11
300.462	0.12
300.832	0.17
301.202	0.13
301.573	0.15
301.943	0.15
302.313	0.13
302.683	0.16
303.053	0.14
303.422	0.13
303.792	0.12
304.162	0.13
304.532	0.12
304.902	0.12
305.272	0.13
305.641	0.13
306.011	0.14
306.381	0.13
306.75	0.13
307.12	0.13
307.49	0.13
307.859	0.13
308.229	0.14
308.598	0.14
308.968	0.14
309.337	0.14
309.707	0.14
310.076	0.13
310.445	0.15
310.815	0.14
311.184	0.14
311.553	0.14
311.923	0.14
312.292	0.15
312.661	0.15
313.03	0.16
313.399	0.15
313.768	0.15
314.137	0.14
314.506	0.15
314.875	0.15
315.244	0.15
315.613	0.15
315.982	0.14
316.351	0.14
316.72	0.15
317.089	0.14
317.458	0.14
317.826	0.14
318.195	0.14
318.564	0.14
318.933	0.13
319.301	0.13
319.67	0.14
320.038	0.13
320.407	0.13
320.775	0.13
321.144	0.13
321.512	0.13
321.881	0.13
322.249	0.13
322.618	0.13
322.986	0.13
323.354	0.13
323.723	0.13
324.091	0.12
324.459	0.12
324.827	0.13
325.195	0.12
325.564	0.12
325.932	0.12
326.3	0.12
326.668	0.13
327.036	0.12
327.404	0.13
327.772	0.12
328.14	0.12
328.508	0.12
328.875	0.12
329.243	0.12
329.611	0.13
329.979	0.12
330.346	0.13
330.714	0.12
331.082	0.12
331.449	0.12
331.817	0.13
332.185	0.13
332.552	0.13
332.92	0.13
333.287	0.13
333.655	0.14
334.022	0.14
334.389	0.14
334.757	0.14
335.124	0.14
335.491	0.14
335.859	0.14
336.226	0.15
336.593	0.15
336.96	0.15
337.327	0.14
337.695	0.16
338.062	0.16
338.429	0.16
338.796	0.16
339.163	0.16
339.53	0.17
339.897	0.16
340.263	0.17
340.63	0.17
340.997	0.17
341.364	0.18
341.731	0.18
342.097	0.18
342.464	0.19
342.831	0.19
343.197	0.19
343.564	0.2
343.931	0.2
344.297	0.2
344.664	0.2
345.03	0.21
345.396	0.21
345.763	0.21
346.129	0.22
346.496	0.22
346.862	0.22
347.228	0.23
347.594	0.23
347.961	0.23
348.327	0.23
348.693	0.24
349.059	0.24
349.425	0.25
349.791	0.25
350.157	0.25
350.523	0.26
350.889	0.26
351.255	0.27
351.621	0.27
351.987	0.28
352.353	0.28
352.719	0.29
353.084	0.29
353.45	0.3
353.816	0.3
354.181	0.31
354.547	0.31
354.913	0.32
355.278	0.33
355.644	0.33
356.009	0.34
356.375	0.34
356.74	0.36
357.106	0.37
357.471	0.37
357.836	0.38
358.202	0.39
358.567	0.39
358.932	0.39
359.297	0.41
359.663	0.41
360.028	0.41
360.393	0.42
360.758	0.42
361.123	0.43
361.488	0.44
361.853	0.44
362.218	0.45
362.583	0.45
362.948	0.46
363.312	0.46
363.677	0.47
364.042	0.48
364.407	0.48
364.772	0.49
365.136	0.5
365.501	0.51
365.865	0.52
366.23	0.53
366.595	0.53
366.959	0.54
367.324	0.55
367.688	0.57
368.052	0.58
368.417	0.58
368.781	0.59
369.145	0.59
369.51	0.6
369.874	0.6
370.238	0.6
370.602	0.61
370.967	0.6
371.331	0.59
371.695	0.6
372.059	0.59
372.423	0.59
372.787	0.58
373.151	0.58
373.515	0.58
373.878	0.58
374.242	0.58
374.606	0.58
374.97	0.57
375.334	0.57
375.697	0.58
376.061	0.58
376.425	0.58
376.788	0.59
377.152	0.59
377.515	0.59
377.879	0.6
378.242	0.6
378.606	0.61
378.969	0.62
379.333	0.63
379.696	0.63
380.059	0.64
380.422	0.65
380.786	0.66
381.149	0.68
381.512	0.68
381.875	0.7
382.238	0.71
382.601	0.72
382.964	0.74
383.327	0.76
383.69	0.77
384.053	0.81
384.416	0.82
384.779	0.84
385.142	0.85
385.504	0.88
385.867	0.89
386.23	0.89
386.593	0.89
386.955	0.89
387.318	0.89
387.68	0.89
388.043	0.89
388.405	0.88
388.768	0.87
389.13	0.86
389.493	0.86
389.855	0.86
390.217	0.86
390.58	0.85
390.942	0.85
391.304	0.86
391.666	0.88
392.028	0.89
392.391	0.91
392.753	0.93
393.115	0.96
393.477	0.99
393.839	1.02
394.201	1.07
394.563	1.1
394.924	1.15
395.286	1.19
395.648	1.22
396.01	1.25
396.371	1.28
396.733	1.31
397.095	1.33
397.456	1.34
397.818	1.32
398.18	1.32
398.541	1.31
398.903	1.28
399.264	1.25
399.625	1.21
399.987	1.19
400.348	1.12
400.709	1.07
401.071	1.01
401.432	0.95
401.793	0.89
402.154	0.83
402.515	0.79
402.876	0.74
403.238	0.68
403.599	0.63
403.96	0.59
404.32	0.54
404.681	0.5
405.042	0.47
405.403	0.44
405.764	0.41
406.125	0.38
406.485	0.36
406.846	0.33
407.207	0.31
407.567	0.29
407.928	0.28
408.288	0.26
408.649	0.25
409.009	0.24
409.37	0.22
409.73	0.21
410.091	0.21
410.451	0.19
410.811	0.19
411.171	0.17
411.532	0.17
411.892	0.16
412.252	0.15
412.612	0.15
412.972	0.14
413.332	0.13
413.692	0.14
414.052	0.13
414.412	0.12
414.772	0.13
415.132	0.11
415.492	0.12
415.851	0.11
416.211	0.1
416.571	0.11
416.931	0.1
417.29	0.09
417.65	0.1
418.009	0.09
418.369	0.09
418.728	0.09
419.088	0.09
419.447	0.08
419.807	0.08
420.166	0.09
420.525	0.08
420.884	0.08
421.244	0.08
421.603	0.07
421.962	0.07
422.321	0.08
422.68	0.07
423.039	0.07
423.398	0.07
423.757	0.07
424.116	0.07
424.475	0.07
424.834	0.07
425.193	0.06
425.551	0.06
425.91	0.07
426.269	0.07
426.628	0.06
426.986	0.06
427.345	0.06
427.703	0.06
428.062	0.06
428.42	0.06
428.779	0.05
429.137	0.06
429.496	0.05
429.854	0.06
430.212	0.06
430.57	0.05
430.929	0.06
431.287	0.05
431.645	0.05
432.003	0.05
432.361	0.06
432.719	0.05
433.077	0.05
433.435	0.05
433.793	0.06
434.151	0.05
434.509	0.04
434.866	0.05
435.224	0.05
435.582	0.05
435.94	0.06
436.297	0.06
436.655	0.05
437.012	0.05
437.37	0.05
437.727	0.05
438.085	0.04
438.442	0.05
438.8	0.05
439.157	0.04
439.514	0.05
439.872	0.04
440.229	0.05
440.586	0.04
440.943	0.04
441.3	0.05
441.657	0.04
442.014	0.05
442.371	0.04
442.728	0.05
443.085	0.03
443.442	0.04
443.799	0.04
444.156	0.03
444.513	0.04
444.869	0.03
445.226	0.03
445.583	0.04
445.939	0.04
446.296	0.03
446.652	0.04
447.009	0.03
447.365	0.03
447.722	0.03
448.078	0.03
448.434	0.04
448.791	0.03
449.147	0.03
449.503	0.03
449.859	0.03
450.215	0.03
450.571	0.03
450.928	0.03
451.284	0.03
451.64	0.02
451.995	0.02
452.351	0.02
452.707	0.03
453.063	0.02
453.419	0.02
453.775	0.02
454.13	0.02
454.486	0.02
454.842	0.01
455.197	0.01
455.553	0.01
455.908	0.01
456.264	0.01
456.619	0.01
456.975	0.01
457.33	0.01
457.685	0.01
458.04	-0
458.396	-0
458.751	0.01
459.106	-0
459.461	-0.01
459.816	-0.01
460.171	-0.01
460.526	-0.01
460.881	-0.01
461.236	-0.03
461.591	-0.01
461.946	-0.03
462.301	-0.02
462.655	-0.02
463.01	-0.02
463.365	-0.02
463.719	-0.02
464.074	-0.03
464.428	-0.04
464.783	-0.04
465.137	-0.03
465.492	-0.04
465.846	-0.04
466.201	-0.04
466.555	-0.04
466.909	-0.04
467.263	-0.03
467.618	-0.04
467.972	-0.03
468.326	-0.04
468.68	-0.04
469.034	-0.04
469.388	-0.04
469.742	-0.04
470.096	-0.04
470.45	-0.04
470.804	-0.04
471.157	-0.04
471.511	-0.04
471.865	-0.04
472.218	-0.03
472.572	-0.03
472.926	-0.03
473.279	-0.03
473.633	-0.02
473.986	-0.02
474.34	-0.02
474.693	-0.02
475.046	-0.01
475.4	-0.01
475.753	-0.01
476.106	-0
476.459	0
476.812	0
477.165	0.01
477.519	0.01
477.872	0.01
478.224	0.02
478.577	0.01
478.93	0.02
479.283	0.02
479.636	0.02
479.989	0.02
480.341	0.03
480.694	0.03
481.047	0.03
481.399	0.03
481.752	0.03
482.104	0.04
482.457	0.04
482.809	0.04
483.162	0.04
483.514	0.04
483.866	0.05
484.219	0.05
484.571	0.05
484.923	0.05
485.275	0.05
485.627	0.05
485.979	0.06
486.331	0.05
486.683	0.06
487.035	0.06
487.387	0.06
487.739	0.06
488.091	0.07
488.443	0.06
488.794	0.07
489.146	0.07
489.498	0.06
489.849	0.07
490.201	0.07
490.552	0.07
490.904	0.07
491.255	0.07
491.607	0.07
491.958	0.07
492.309	0.08
492.661	0.07
493.012	0.08
493.363	0.08
493.714	0.08
494.065	0.08
494.416	0.08
494.767	0.08
495.118	0.09
495.469	0.09
495.82	0.09
496.171	0.09
496.522	0.09
496.872	0.09
497.223	0.09
497.574	0.1
497.924	0.09
498.275	0.1
498.626	0.09
498.976	0.1
499.327	0.1
499.677	0.1
500.027	0.1
500.378	0.1
500.728	0.11
501.078	0.11
501.428	0.1
501.779	0.1
502.129	0.11
502.479	0.11
502.829	0.12
503.179	0.11
503.529	0.11
503.879	0.11
504.229	0.12
504.578	0.12
504.928	0.12
505.278	0.12
505.628	0.13
505.977	0.12
506.327	0.12
506.676	0.13
507.026	0.13
507.375	0.13
507.725	0.13
508.074	0.13
508.424	0.13
508.773	0.13
509.122	0.13
509.471	0.13
509.82	0.14
510.17	0.14
510.519	0.14
510.868	0.14
511.217	0.14
511.566	0.14
511.915	0.14
512.263	0.15
512.612	0.15
512.961	0.14
513.31	0.15
513.659	0.15
514.007	0.15
514.356	0.15
514.704	0.15
515.053	0.16
515.401	0.15
515.75	0.16
516.098	0.16
516.447	0.16
516.795	0.16
517.143	0.16
517.491	0.17
517.839	0.16
518.188	0.16
518.536	0.17
518.884	0.16
519.232	0.17
519.58	0.17
519.928	0.17
520.275	0.17
520.623	0.17
520.971	0.18
521.319	0.18
521.666	0.18
522.014	0.18
522.362	0.18
522.709	0.18
523.057	0.18
523.404	0.18
523.752	0.19
524.099	0.18
524.446	0.18
524.794	0.19
525.141	0.19
525.488	0.19
525.835	0.2
526.182	0.2
526.529	0.2
526.876	0.2
527.223	0.2
527.57	0.2
527.917	0.2
528.264	0.2
528.611	0.2
528.958	0.21
529.304	0.21
529.651	0.21
529.998	0.21
530.344	0.21
530.691	0.21
531.037	0.21
531.384	0.21
531.73	0.21
532.076	0.21
532.423	0.22
532.769	0.22
533.115	0.22
533.461	0.22
533.807	0.22
534.154	0.23
534.5	0.23
534.846	0.23
535.192	0.23
535.537	0.23
535.883	0.23
536.229	0.24
536.575	0.24
536.921	0.24
537.266	0.24
537.612	0.24
537.957	0.24
538.303	0.24
538.649	0.24
538.994	0.24
539.339	0.25
539.685	0.25
540.03	0.25
540.375	0.25
540.721	0.25
541.066	0.26
541.411	0.26
541.756	0.26
542.101	0.26
542.446	0.26
542.791	0.27
543.136	0.27
543.481	0.27
543.825	0.27
544.17	0.27
544.515	0.27
544.86	0.28
545.204	0.28
545.549	0.28
545.893	0.28
546.238	0.29
546.582	0.29
546.927	0.28
547.271	0.29
547.615	0.29
547.96	0.3
548.304	0.3
548.648	0.3
548.992	0.3
549.336	0.3
549.68	0.3
550.024	0.3
550.368	0.3
550.712	0.3
551.056	0.31
551.4	0.31
551.743	0.31
552.087	0.31
552.431	0.31
552.774	0.32
553.118	0.32
553.462	0.32
553.805	0.32
554.148	0.32
554.492	0.32
554.835	0.32
555.178	0.32
555.522	0.32
555.865	0.33
556.208	0.32
556.551	0.33
556.894	0.33
557.237	0.33
557.58	0.33
557.923	0.34
558.266	0.33
558.609	0.33
558.952	0.33
559.294	0.34
559.637	0.34
559.98	0.34
560.322	0.34
560.665	0.34
561.007	0.34
561.35	0.34
561.692	0.35
562.034	0.34
562.377	0.35
562.719	0.35
563.061	0.35
563.403	0.35
563.745	0.35
564.088	0.35
564.43	0.35
564.772	0.35
565.113	0.35
565.455	0.35
565.797	0.35
566.139	0.35
566.481	0.35
566.822	0.36
567.164	0.36
567.506	0.35
567.847	0.35
568.189	0.35
568.53	0.36
568.872	0.36
569.213	0.35
569.554	0.36
569.895	0.35
570.237	0.35
570.578	0.36
570.919	0.35
571.26	0.35
571.601	0.36
571.942	0.36
572.283	0.36
572.624	0.36
572.965	0.36
573.306	0.36
573.646	0.35
573.987	0.36
574.328	0.35
574.668	0.36
575.009	0.36
575.349	0.35
575.69	0.35
576.03	0.35
576.37	0.35
576.711	0.35
577.051	0.35
577.391	0.35
577.731	0.36
578.072	0.36
578.412	0.36
578.752	0.36
579.092	0.36
579.431	0.35
579.771	0.34
580.111	0.34
580.451	0.34
580.791	0.35
581.13	0.36
581.47	0.36
581.81	0.36
582.149	0.36
582.489	0.36
582.828	0.36
583.167	0.35
583.507	0.32
583.846	0.3
584.185	0.33
584.525	0.35
584.864	0.35
585.203	0.37
585.542	0.37
585.881	0.37
586.22	0.37
586.559	0.37
586.898	0.37
587.236	0.36
587.575	0.36
587.914	0.36
588.252	0.37
588.591	0.38
588.93	0.38
589.268	0.38
589.607	0.38
589.945	0.38
590.283	0.38
590.622	0.39
590.96	0.39
591.298	0.39
591.636	0.39
591.974	0.4
592.313	0.4
592.651	0.4
592.989	0.4
593.326	0.4
593.664	0.41
594.002	0.41
594.34	0.41
594.678	0.41
595.015	0.41
595.353	0.4
595.691	0.4
596.028	0.41
596.366	0.42
596.703	0.42
597.04	0.42
597.378	0.42
597.715	0.42
598.052	0.42
598.389	0.43
598.726	0.43
599.064	0.44
599.401	0.43
599.738	0.43
600.074	0.44
600.411	0.43
600.748	0.43
601.085	0.43
601.422	0.42
601.758	0.43
602.095	0.43
602.432	0.43
602.768	0.43
603.105	0.43
603.441	0.43
603.777	0.43
604.114	0.44
604.45	0.44
604.786	0.44
605.122	0.44
605.459	0.44
605.795	0.44
606.131	0.44
606.467	0.44
606.803	0.44
607.139	0.44
607.474	0.44
607.81	0.43
608.146	0.43
608.482	0.43
608.817	0.43
609.153	0.42
609.488	0.43
609.824	0.43
610.159	0.43
610.495	0.42
610.83	0.42
611.165	0.43
611.5	0.43
611.836	0.42
612.171	0.42
612.506	0.42
612.841	0.42
613.176	0.42
613.511	0.42
613.845	0.42
614.18	0.42
614.515	0.42
614.85	0.41
615.184	0.41
615.519	0.41
615.854	0.41
616.188	0.41
616.523	0.41
616.857	0.41
617.191	0.41
617.526	0.4
617.86	0.4
618.194	0.4
618.528	0.4
618.862	0.4
619.196	0.4
619.53	0.4
619.864	0.4
620.198	0.4
620.532	0.39
620.866	0.39
621.2	0.39
621.533	0.39
621.867	0.39
622.201	0.39
622.534	0.38
622.868	0.38
623.201	0.38
623.534	0.38
623.868	0.38
624.201	0.38
624.534	0.38
624.868	0.38
625.201	0.37
625.534	0.38
625.867	0.37
626.2	0.37
626.533	0.37
626.865	0.37
627.198	0.36
627.531	0.36
627.864	0.36
628.196	0.36
628.529	0.36
628.862	0.36
629.194	0.36
629.527	0.35
629.859	0.35
630.191	0.35
630.524	0.35
630.856	0.35
631.188	0.35
631.52	0.34
631.852	0.34
632.184	0.34
632.516	0.33
632.848	0.33
633.18	0.33
633.512	0.33
633.844	0.32
634.175	0.32
634.507	0.32
634.839	0.32
635.17	0.32
635.502	0.31
635.833	0.31
636.165	0.31
636.496	0.31
636.827	0.3
637.159	0.3
637.49	0.3
637.821	0.3
638.152	0.3
638.483	0.29
638.814	0.29
639.145	0.29
639.476	0.28
639.807	0.28
640.137	0.28
640.468	0.28
640.799	0.27
641.129	0.27
641.46	0.27
641.791	0.27
642.121	0.27
642.451	0.26
642.782	0.26
643.112	0.26
643.442	0.25
643.773	0.26
644.103	0.25
644.433	0.25
644.763	0.25
645.093	0.25
645.423	0.25
645.753	0.25
646.082	0.25
646.412	0.24
646.742	0.25
647.072	0.24
647.401	0.24
647.731	0.24
648.06	0.24
648.39	0.24
648.719	0.24
649.048	0.24
649.378	0.23
649.707	0.23
650.036	0.23
650.365	0.24
650.694	0.23
651.023	0.23
651.352	0.23
651.681	0.23
652.01	0.23
652.339	0.23
652.668	0.23
652.996	0.23
653.325	0.23
653.654	0.23
653.982	0.23
654.311	0.23
654.639	0.23
654.967	0.23
655.296	0.23
655.624	0.23
655.952	0.23
656.28	0.22
656.609	0.22
656.937	0.23
657.265	0.23
657.593	0.2
657.92	0.07
658.248	0.02
658.576	0.02
658.904	0.09
659.231	0.18
659.559	0.22
659.887	0.22
660.214	0.22
660.542	0.22
660.869	0.22
661.196	0.22
661.524	0.22
661.851	0.22
662.178	0.22
662.505	0.22
662.832	0.22
663.159	0.22
663.486	0.21
663.813	0.22
664.14	0.22
664.467	0.22
664.794	0.22
665.12	0.22
665.447	0.22
665.774	0.22
666.1	0.21
666.427	0.21
666.753	0.22
667.079	0.21
667.406	0.21
667.732	0.21
668.058	0.22
668.384	0.21
668.71	0.21
669.036	0.21
669.362	0.21
669.688	0.21
670.014	0.21
670.34	0.21
670.666	0.21
670.991	0.21
671.317	0.2
671.643	0.2
671.968	0.2
672.294	0.2
672.619	0.2
672.945	0.2
673.27	0.2
673.595	0.19
673.92	0.2
674.246	0.19
674.571	0.19
674.896	0.19
675.221	0.19
675.546	0.19
675.87	0.19
676.195	0.19
676.52	0.19
676.845	0.18
677.169	0.18
677.494	0.18
677.819	0.18
678.143	0.18
678.468	0.17
678.792	0.17
679.116	0.17
679.44	0.17
679.765	0.17
680.089	0.17
680.413	0.17
680.737	0.17
681.061	0.16
681.385	0.16
681.709	0.16
682.033	0.16
682.356	0.16
682.68	0.15
683.004	0.15
683.327	0.15
683.651	0.15
683.974	0.15
684.298	0.15
684.621	0.15
684.944	0.14
685.268	0.14
685.591	0.14
685.914	0.14
686.237	0.14
686.56	0.14
686.883	0.13
687.206	0.13
687.529	0.13
687.852	0.13
688.175	0.13
688.497	0.13
688.82	0.13
689.142	0.12
689.465	0.12
689.787	0.12
690.11	0.12
690.432	0.12
690.755	0.12
691.077	0.12
691.399	0.11
691.721	0.11
692.043	0.11
692.365	0.11
692.687	0.11
693.009	0.11
693.331	0.11
693.653	0.11
693.974	0.11
694.296	0.1
694.618	0.1
694.939	0.1
695.261	0.1
695.582	0.1
695.904	0.1
696.225	0.1
696.546	0.1
696.868	0.09
697.189	0.09
697.51	0.09
697.831	0.09
698.152	0.09
698.473	0.1
698.794	0.09
699.114	0.09
699.435	0.09
699.756	0.08
700.077	0.09
700.397	0.09
700.718	0.08
701.038	0.08
701.359	0.09
701.679	0.08
701.999	0.08
702.32	0.08
702.64	0.09
702.96	0.09
703.28	0.09
703.6	0.08
703.92	0.08
704.24	0.08
704.56	0.08
704.879	0.08
705.199	0.08
705.519	0.07
705.838	0.07
706.158	0.07
706.478	0.07
706.797	0.08
707.116	0.08
707.436	0.08
707.755	0.08
708.074	0.08
708.393	0.08
708.712	0.08
709.031	0.07
709.35	0.07
709.669	0.07
709.988	0.07
710.307	0.07
710.626	0.07
710.944	0.07
711.263	0.07
711.582	0.07
711.9	0.07
712.219	0.07
712.537	0.07
712.855	0.07
713.174	0.07
713.492	0.07
713.81	0.07
714.128	0.06
714.446	0.07
714.764	0.06
715.082	0.06
715.4	0.06
715.718	0.06
716.035	0.06
716.353	0.06
716.671	0.06
716.988	0.06
717.306	0.06
717.623	0.06
717.941	0.07
718.258	0.07
718.575	0.07
718.893	0.07
719.21	0.07
719.527	0.07
719.844	0.07
720.161	0.07
720.478	0.07
720.795	0.07
721.112	0.07
721.428	0.07
721.745	0.07
722.062	0.07
722.378	0.07
722.695	0.07
723.011	0.08
723.328	0.07
723.644	0.07
723.96	0.07
724.276	0.07
724.593	0.07
724.909	0.07
725.225	0.08
725.541	0.07
725.857	0.07
726.173	0.08
726.488	0.08
726.804	0.08
727.12	0.08
727.435	0.08
727.751	0.08
728.067	0.08
728.382	0.08
728.697	0.08
729.013	0.08
729.328	0.08
729.643	0.08
729.958	0.08
730.273	0.08
730.588	0.08
730.903	0.08
731.218	0.08
731.533	0.08
731.848	0.08
732.163	0.08
732.477	0.08
732.792	0.08
733.107	0.08
733.421	0.08
733.736	0.08
734.05	0.08
734.364	0.08
734.678	0.09
734.993	0.08
735.307	0.08
735.621	0.08
735.935	0.08
736.249	0.08
736.563	0.08
736.877	0.08
737.19	0.08
737.504	0.08
737.818	0.07
738.131	0.08
738.445	0.07
738.758	0.07
739.072	0.07
739.385	0.07
739.698	0.07
740.012	0.08
740.325	0.07
740.638	0.07
740.951	0.07
741.264	0.07
741.577	0.07
741.89	0.08
742.203	0.07
742.515	0.08
742.828	0.08
743.141	0.08
743.453	0.08
743.766	0.08
744.078	0.08
744.391	0.07
744.703	0.07
745.015	0.07
745.327	0.07
745.639	0.07
745.952	0.07
746.264	0.07
746.575	0.07
746.887	0.07
747.199	0.07
747.511	0.07
747.823	0.06
748.134	0.06
748.446	0.06
748.757	0.06
749.069	0.06
749.38	0.06
749.692	0.06
750.003	0.06
750.314	0.06
750.625	0.06
750.936	0.06
751.248	0.06
751.559	0.06
751.869	0.06
752.18	0.06
752.491	0.05
752.802	0.06
753.112	0.05
753.423	0.05
753.734	0.05
754.044	0.05
754.355	0.05
754.665	0.05
754.975	0.05
755.285	0.05
755.596	0.04
755.906	0.04
756.216	0.04
756.526	0.04
756.836	0.04
757.146	0.04
757.455	0.04
757.765	0.04
758.075	0.04
758.385	0.04
758.694	0.04
759.004	0.04
759.313	0.04
759.622	0.04
759.932	0.04
760.241	0.04
760.55	0.04
760.859	0.04
761.168	0.04
761.477	0.04
761.786	0.04
762.095	0.04
762.404	0.04
762.713	0.04
763.021	0.03
763.33	0.03
763.639	0.03
763.947	0.03
764.256	0.02
764.564	0.03
764.872	0.03
765.181	0.03
765.489	0.02
765.797	0.03
766.105	0.02
766.413	0.03
766.721	0.03
767.029	0.03
767.337	0.03
767.644	0.03
767.952	0.03
768.26	0.03
768.567	0.03
768.875	0.03
769.182	0.02
769.49	0.02
769.797	0.02
770.104	0.02
770.411	0.02
770.718	0.02
771.026	0.02
771.333	0.02
771.639	0.02
771.946	0.02
772.253	0.02
772.56	0.02
772.867	0.02
773.173	0.02
773.48	0.02
773.786	0.02
774.093	0.02
774.399	0.02
774.705	0.01
775.012	0.01
775.318	0.02
775.624	0.01
775.93	0.02
776.236	0.02
776.542	0.02
776.848	0.02
777.154	0.02
777.459	0.02
777.765	0.02
778.071	0.02
778.376	0.02
778.682	0.02
778.987	0.02
779.292	0.01
779.598	0.02
779.903	0.02
780.208	0.02
780.513	0.02
780.818	0.02
781.123	0.02
781.428	0.02
781.733	0.02
782.038	0.02
782.343	0.02
782.647	0.02
782.952	0.02
783.256	0.02
783.561	0.02
783.865	0.02
784.17	0.02
784.474	0.03
784.778	0.02
785.082	0.02
785.386	0.02
785.69	0.02
785.994	0.02
786.298	0.02
786.602	0.02
786.906	0.02
787.209	0.01
787.513	0.02
787.817	0.02
788.12	0.02
788.424	0.02
788.727	0.02
789.03	0.02
789.333	0.02
789.637	0.02
789.94	0.02
790.243	0.03
790.546	0.02
790.849	0.02
791.152	0.02
791.454	0.02
791.757	0.02
792.06	0.02
792.362	0.02
792.665	0.02
792.967	0.02
793.27	0.02
793.572	0.02
793.874	0.01
794.177	0.02
794.479	0.01
794.781	0.01
795.083	0.02
795.385	0.02
795.687	0.02
795.989	0.02
796.29	0.02
796.592	0.02
796.894	0.02
797.195	0.02
797.497	0.02
797.798	0.01
798.1	0.02
798.401	0.02
798.702	0.02
799.003	0.02
799.304	0.02
799.605	0.02
799.906	0.02
800.207	0.02
800.508	0.02
800.809	0.02
801.11	0.02
801.41	0.02
801.711	0.02
802.011	0.02
802.312	0.02
802.612	0.02
802.913	0.03
803.213	0.03
803.513	0.03
803.813	0.03
804.113	0.03
804.413	0.03
804.713	0.03
805.013	0.03
805.313	0.03
805.613	0.03
805.912	0.03
806.212	0.03
806.511	0.02
806.811	0.02
807.11	0.03
807.41	0.03
807.709	0.02
808.008	0.02
808.307	0.02
808.606	0.02
808.905	0.02
809.204	0.02
809.503	0.02
809.802	0.02
810.101	0.02
810.399	0.02
810.698	0.02
810.997	0.02
811.295	0.02
811.593	0.02
811.892	0.02
812.19	0.02
812.488	0.03
812.786	0.02
813.084	0.02
813.383	0.02
813.68	0.02
813.978	0.02
814.276	0.02
814.574	0.01
814.872	0.01
815.169	0.01
815.467	0.02
815.764	0.02
816.062	0.02
816.359	0.02
816.656	0.02
816.954	0.02
817.251	0.02
817.548	0.02
817.845	0.02
818.142	0.02
818.439	0.02
818.735	0.02
819.032	0.01
819.329	0.02
819.626	0.02
819.922	0.02
820.219	0.02
820.515	0.02
820.811	0.02
821.108	0.01
821.404	0.01
821.7	0.01
821.996	0.02
822.292	0.02
822.588	0.02
822.884	0.02
823.18	0.02
823.475	0.02
823.771	0.02
824.067	0.02
824.362	0.02
824.658	0.03
824.953	0.03
825.249	0.03
825.544	0.03
825.839	0.03
826.134	0.03
826.429	0.02
826.724	0.02
827.019	0.02
827.314	0.02
827.609	0.02
827.904	0.02
828.198	0.02
828.493	0.02
828.787	0.02
829.082	0.02
829.376	0.02
829.671	0.01
829.965	0.02
830.259	0.02
830.553	0.02
830.847	0.02
831.141	0.03
831.435	0.02
831.729	0.02
832.023	0.03
832.317	0.02
832.61	0.03
832.904	0.02
833.197	0.02
833.491	0.02
833.784	0.02
834.077	0.02
834.371	0.02
834.664	0.02
834.957	0.03
835.25	0.02
835.543	0.02
835.836	0.03
836.129	0.03
836.421	0.03
836.714	0.03
837.007	0.02
837.299	0.02
837.592	0.04
837.884	0.03
838.177	0.03
838.469	0.02
838.761	0.02
839.053	0.02
839.345	0.03
839.637	0.03
839.929	0.03
840.221	0.03
840.513	0.03
840.805	0.02
841.096	0.03
841.388	0.02
841.68	0.02
841.971	0.03
842.262	0.02
842.554	0.03
842.845	0.02
843.136	0.01
843.427	0.02
843.718	0.02
844.009	0.01
844.3	0.02
844.591	0.03
844.882	0.01
845.173	0.02
845.463	0.01
845.754	0.03
846.044	0.02
846.335	0.01
846.625	0.02
846.915	0.02
847.206	0.02
847.496	0.03
847.786	0.03
848.076	0.03
848.366	0.03
848.656	0.03
848.945	0.03
849.235	0.04
849.525	0.03
849.814	0.02
850.104	0.02
850.393	0.02
850.683	0.03
850.972	0.02
851.261	0.02
851.551	0.03
851.84	0.03
852.129	0.02
852.418	0.02
852.707	0.01
852.995	0.01
853.284	0.02
853.573	0.02
853.862	0.02
854.15	0.01
854.439	0.02
854.727	0.01
855.015	0.02
855.304	0.01
855.592	0.02
855.88	0.03
856.168	0.02
856.456	0.03
856.744	0.02
857.032	0.03
857.32	0.02
857.607	0.02
857.895	0.02
858.183	0.04
858.47	0.02
858.757	0.02
859.045	0.02
859.332	0.04
859.619	0.03
859.907	0.03
860.194	0.03
860.481	0.02
860.768	0.02
861.054	0.03
861.341	0.02
861.628	0.02
861.915	0.03
862.201	0.03
862.488	0.03
862.774	0.02
863.061	0.01
863.347	0.02
863.633	0.04
863.919	0.02
864.205	0.04
864.491	0.05
864.777	0.04
865.063	0.04
865.349	0.02
865.635	-0.01
865.92	0.02
866.206	0.04
866.492	0.02
866.777	0.04
867.062	0.01
867.348	0.02
867.633	0.02
867.918	-0
868.203	0.03
868.488	0.03
868.773	0.01
869.058	0.02
869.343	0.02
869.628	0.02
869.912	0.03
870.197	-0.01
870.482	0.03
870.766	0.05
871.05	0.04
871.335	0.06
871.619	0.04
871.903	0.04
872.187	0.02
872.471	0.02
872.755	0.04
873.039	0.05
873.323	0.03
873.607	0.02
873.89	0.02
874.174	0.01
874.458	0.04
874.741	0.06
875.024	-0.01
875.308	-0.01
875.591	0.12
875.874	-0.05
876.157	0.08
876.44	-0.01
876.723	0.05
877.006	0.06
877.289	0.02
877.572	-0
877.854	0.03
878.137	0.12
878.42	0.05
878.702	0.03
878.984	-0.01
879.267	0.09
879.549	0.09
879.831	0.07
880.113	0.03
880.395	0.04
880.677	0.14
880.959	0.04
