Data from Rubpy_EV_1500_EDTA_Buffered_Absorbance_14-58-34-886.txt Node
Date: Tue Jun 30 14:58:34 BST 2026
User: fpm-admin
Spectrometer: OFX00224
Trigger mode: 0
Integration Time (sec): 7.000000E-2
Scans to average: 3
Nonlinearity correction enabled: false
Boxcar width: 0
Storing dark spectrum: false
XAxis mode: Wavelengths
Number of Pixels in Spectrum: 2136
>>>>>Begin Spectral Data<<<<<
154.91	0.31
155.289	-0.66
155.669	-0
156.048	-0
156.428	-0.48
156.807	0.56
157.186	-0.43
157.566	-0.05
157.945	-0
158.325	-0.6
158.704	-0.3
159.083	-0
159.462	-0.81
159.842	-0.33
160.221	0.12
160.6	0.21
160.979	0.85
161.359	-0.59
161.738	-0
162.117	0.6
162.496	0.37
162.875	0.51
163.254	-0.3
163.633	-0.07
164.012	0.64
164.391	0.36
164.77	0.16
165.149	0.48
165.528	-0
165.907	-0
166.286	-0.73
166.665	0.7
167.044	0.22
167.423	0.42
167.802	-0
168.181	0.23
168.559	-0.36
168.938	0.04
169.317	0.07
169.696	-0
170.074	-0.08
170.453	-0.8
170.832	-0
171.21	0.09
171.589	-0
171.968	-0
172.346	-0.66
172.725	-0
173.103	-0.15
173.482	-0
173.861	-0.31
174.239	-0
174.617	-0
174.996	0.78
175.374	-0
175.753	-0.23
176.131	0.66
176.51	0.16
176.888	0.19
177.266	-0
177.645	-0.12
178.023	-0
178.401	-0.28
178.779	-0.29
179.158	-0.02
179.536	0.12
179.914	0.2
180.292	0.59
180.67	-0
181.048	-0.3
181.427	0.05
181.805	0.06
182.183	-0
182.561	0.08
182.939	-0.78
183.317	-0
183.695	0.39
184.073	-0.4
184.451	0.42
184.829	-0
185.206	-0.1
185.584	-0
185.962	-0.46
186.34	-0.13
186.718	-0
187.096	-0
187.473	-0
187.851	-0
188.229	0.57
188.607	0.22
188.984	0.19
189.362	0.14
189.74	0.05
190.117	0.09
190.495	0.02
190.872	0.15
191.25	0.16
191.627	0.1
192.005	0.16
192.382	0.15
192.76	0.16
193.137	0.15
193.515	0.21
193.892	0.03
194.269	0.14
194.647	0.04
195.024	0.1
195.401	0.11
195.779	0.24
196.156	0.23
196.533	0.13
196.91	-0
197.288	0.06
197.665	0.07
198.042	0.05
198.419	0.11
198.796	0.2
199.173	0.12
199.55	0.07
199.927	0.14
200.304	0.17
200.681	0.08
201.058	-0.01
201.435	0.22
201.812	0.18
202.189	0.15
202.566	0.25
202.943	0.1
203.32	0.14
203.697	0.16
204.073	0.19
204.45	0.07
204.827	0.18
205.204	0.12
205.58	0.14
205.957	0.08
206.334	0.17
206.71	0.07
207.087	0.23
207.464	0.1
207.84	0.13
208.217	0.22
208.593	0.09
208.97	0.16
209.346	0.11
209.723	0.16
210.099	0.05
210.476	0.21
210.852	0.17
211.228	0.12
211.605	0.11
211.981	0.18
212.357	0.26
212.733	0.08
213.11	0.23
213.486	0.15
213.862	0.15
214.238	0.16
214.614	0.16
214.991	0.17
215.367	0.17
215.743	0.18
216.119	0.24
216.495	0.19
216.871	0.28
217.247	0.14
217.623	0.07
217.999	0.18
218.375	0.3
218.751	0.13
219.127	0.22
219.502	0.15
219.878	0.09
220.254	0.26
220.63	0.21
221.006	0.17
221.381	0.13
221.757	0.12
222.133	0.24
222.508	0.06
222.884	0.13
223.26	0.16
223.635	0.09
224.011	0.06
224.386	0.14
224.762	0.14
225.137	0.07
225.513	0.2
225.888	0.11
226.264	0.04
226.639	0.11
227.014	0.13
227.39	0.13
227.765	0.23
228.14	0.13
228.516	0.22
228.891	0.16
229.266	0.16
229.641	0.15
230.017	0.08
230.392	0.18
230.767	0.15
231.142	0.25
231.517	0.21
231.892	0.15
232.267	0.17
232.642	0.17
233.017	0.2
233.392	0.21
233.767	0.2
234.142	0.12
234.517	0.22
234.892	-0.01
235.267	0.18
235.641	0.17
236.016	0.13
236.391	0.12
236.766	0.15
237.14	0.14
237.515	0.12
237.89	0.13
238.264	0.2
238.639	0.14
239.014	0.19
239.388	0.16
239.763	0.15
240.137	0.2
240.512	0.12
240.886	0.17
241.261	0.19
241.635	0.19
242.009	0.13
242.384	0.17
242.758	0.09
243.132	0.14
243.507	0.24
243.881	0.17
244.255	0.26
244.629	0.2
245.004	0.16
245.378	0.13
245.752	0.13
246.126	0.11
246.5	0.25
246.874	0.05
247.248	0.14
247.622	0.21
247.996	0.09
248.37	0.17
248.744	0.15
249.118	0.16
249.492	0.14
249.866	0.14
250.24	0.16
250.613	0.14
250.987	0.08
251.361	0.17
251.735	0.19
252.108	0.13
252.482	0.14
252.856	0.15
253.229	0.12
253.603	0.24
253.977	0.2
254.35	0.09
254.724	0.08
255.097	0.13
255.471	0.2
255.844	0.19
256.218	0.15
256.591	0.08
256.964	0.19
257.338	0.19
257.711	0.22
258.084	0.15
258.458	0.26
258.831	0.11
259.204	0.13
259.577	0.17
259.95	0.09
260.323	0.17
260.697	0.11
261.07	0.11
261.443	0.14
261.816	0.09
262.189	0.16
262.562	0.22
262.935	0.12
263.308	0.23
263.68	0.19
264.053	0.18
264.426	0.16
264.799	0.12
265.172	0.13
265.545	0.23
265.917	0.17
266.29	0.16
266.663	0.16
267.035	0.14
267.408	0.13
267.781	0.09
268.153	0.21
268.526	0.15
268.898	0.24
269.271	0.17
269.643	0.19
270.016	0.09
270.388	0.2
270.76	0.11
271.133	0.14
271.505	0.12
271.877	0.19
272.25	0.21
272.622	0.18
272.994	0.17
273.366	0.16
273.739	0.17
274.111	0.18
274.483	0.14
274.855	0.2
275.227	0.12
275.599	0.17
275.971	0.16
276.343	0.24
276.715	0.05
277.087	0.19
277.459	0.16
277.831	0.12
278.203	0.19
278.574	0.18
278.946	0.14
279.318	0.08
279.69	0.15
280.061	0.14
280.433	0.18
280.805	0.14
281.176	0.19
281.548	0.15
281.92	0.11
282.291	0.1
282.663	0.18
283.034	0.16
283.406	0.17
283.777	0.18
284.148	0.14
284.52	0.19
284.891	0.18
285.262	0.16
285.634	0.12
286.005	0.14
286.376	0.13
286.747	0.06
287.119	0.14
287.49	0.07
287.861	0.08
288.232	0.06
288.603	0.24
288.974	0.15
289.345	0.11
289.716	0.19
290.087	0.14
290.458	0.17
290.829	0.11
291.2	0.2
291.571	0.12
291.941	0.14
292.312	0.15
292.683	0.15
293.054	0.15
293.424	0.07
293.795	0.12
294.166	0.15
294.536	0.2
294.907	0.12
295.277	0.14
295.648	0.12
296.018	0.22
296.389	0.14
296.759	0.09
297.13	0.14
297.5	0.17
297.871	0.13
298.241	0.15
298.611	0.12
298.981	0.1
299.352	0.15
299.722	0.15
300.092	0.1
300.462	0.14
300.832	0.1
301.202	0.13
301.573	0.13
301.943	0.12
302.313	0.12
302.683	0.1
303.053	0.13
303.422	0.1
303.792	0.09
304.162	0.13
304.532	0.1
304.902	0.09
305.272	0.11
305.641	0.1
306.011	0.1
306.381	0.12
306.75	0.11
307.12	0.11
307.49	0.1
307.859	0.12
308.229	0.12
308.598	0.11
308.968	0.1
309.337	0.11
309.707	0.12
310.076	0.12
310.445	0.12
310.815	0.12
311.184	0.13
311.553	0.12
311.923	0.12
312.292	0.12
312.661	0.13
313.03	0.13
313.399	0.12
313.768	0.13
314.137	0.12
314.506	0.12
314.875	0.13
315.244	0.13
315.613	0.12
315.982	0.12
316.351	0.11
316.72	0.12
317.089	0.11
317.458	0.12
317.826	0.12
318.195	0.11
318.564	0.12
318.933	0.11
319.301	0.12
319.67	0.12
320.038	0.11
320.407	0.1
320.775	0.11
321.144	0.11
321.512	0.11
321.881	0.11
322.249	0.11
322.618	0.11
322.986	0.11
323.354	0.11
323.723	0.1
324.091	0.11
324.459	0.11
324.827	0.1
325.195	0.1
325.564	0.1
325.932	0.1
326.3	0.1
326.668	0.1
327.036	0.1
327.404	0.11
327.772	0.1
328.14	0.1
328.508	0.1
328.875	0.1
329.243	0.09
329.611	0.11
329.979	0.1
330.346	0.1
330.714	0.1
331.082	0.1
331.449	0.11
331.817	0.1
332.185	0.1
332.552	0.11
332.92	0.11
333.287	0.11
333.655	0.11
334.022	0.11
334.389	0.11
334.757	0.12
335.124	0.12
335.491	0.12
335.859	0.12
336.226	0.13
336.593	0.12
336.96	0.12
337.327	0.12
337.695	0.13
338.062	0.13
338.429	0.14
338.796	0.13
339.163	0.14
339.53	0.14
339.897	0.14
340.263	0.14
340.63	0.14
340.997	0.15
341.364	0.15
341.731	0.15
342.097	0.15
342.464	0.16
342.831	0.16
343.197	0.16
343.564	0.17
343.931	0.16
344.297	0.17
344.664	0.17
345.03	0.18
345.396	0.17
345.763	0.18
346.129	0.18
346.496	0.18
346.862	0.18
347.228	0.19
347.594	0.19
347.961	0.19
348.327	0.19
348.693	0.2
349.059	0.2
349.425	0.21
349.791	0.21
350.157	0.21
350.523	0.21
350.889	0.22
351.255	0.23
351.621	0.23
351.987	0.23
352.353	0.24
352.719	0.24
353.084	0.24
353.45	0.25
353.816	0.26
354.181	0.26
354.547	0.27
354.913	0.28
355.278	0.28
355.644	0.28
356.009	0.29
356.375	0.3
356.74	0.3
357.106	0.31
357.471	0.31
357.836	0.31
358.202	0.32
358.567	0.33
358.932	0.33
359.297	0.34
359.663	0.34
360.028	0.35
360.393	0.35
360.758	0.36
361.123	0.36
361.488	0.36
361.853	0.37
362.218	0.37
362.583	0.38
362.948	0.39
363.312	0.39
363.677	0.39
364.042	0.4
364.407	0.4
364.772	0.41
365.136	0.42
365.501	0.43
365.865	0.43
366.23	0.45
366.595	0.45
366.959	0.46
367.324	0.47
367.688	0.48
368.052	0.49
368.417	0.49
368.781	0.5
369.145	0.5
369.51	0.5
369.874	0.51
370.238	0.51
370.602	0.51
370.967	0.51
371.331	0.5
371.695	0.5
372.059	0.5
372.423	0.49
372.787	0.49
373.151	0.48
373.515	0.49
373.878	0.49
374.242	0.48
374.606	0.49
374.97	0.48
375.334	0.49
375.697	0.49
376.061	0.49
376.425	0.5
376.788	0.5
377.152	0.5
377.515	0.5
377.879	0.5
378.242	0.51
378.606	0.52
378.969	0.52
379.333	0.53
379.696	0.53
380.059	0.54
380.422	0.55
380.786	0.55
381.149	0.57
381.512	0.58
381.875	0.59
382.238	0.6
382.601	0.61
382.964	0.62
383.327	0.64
383.69	0.66
384.053	0.67
384.416	0.69
384.779	0.71
385.142	0.72
385.504	0.73
385.867	0.74
386.23	0.75
386.593	0.75
386.955	0.76
387.318	0.75
387.68	0.75
388.043	0.75
388.405	0.75
388.768	0.73
389.13	0.73
389.493	0.73
389.855	0.73
390.217	0.72
390.58	0.73
390.942	0.71
391.304	0.73
391.666	0.74
392.028	0.75
392.391	0.76
392.753	0.78
393.115	0.81
393.477	0.84
393.839	0.87
394.201	0.89
394.563	0.94
394.924	0.97
395.286	1
395.648	1.04
396.01	1.07
396.371	1.09
396.733	1.12
397.095	1.14
397.456	1.14
397.818	1.14
398.18	1.14
398.541	1.12
398.903	1.1
399.264	1.07
399.625	1.04
399.987	1
400.348	0.95
400.709	0.91
401.071	0.86
401.432	0.81
401.793	0.76
402.154	0.71
402.515	0.67
402.876	0.62
403.238	0.58
403.599	0.54
403.96	0.5
404.32	0.46
404.681	0.43
405.042	0.4
405.403	0.37
405.764	0.35
406.125	0.32
406.485	0.3
406.846	0.29
407.207	0.27
407.567	0.25
407.928	0.23
408.288	0.22
408.649	0.21
409.009	0.2
409.37	0.19
409.73	0.18
410.091	0.17
410.451	0.16
410.811	0.15
411.171	0.14
411.532	0.14
411.892	0.13
412.252	0.13
412.612	0.12
412.972	0.12
413.332	0.11
413.692	0.11
414.052	0.11
414.412	0.1
414.772	0.1
415.132	0.1
415.492	0.1
415.851	0.09
416.211	0.09
416.571	0.09
416.931	0.09
417.29	0.08
417.65	0.08
418.009	0.08
418.369	0.07
418.728	0.08
419.088	0.08
419.447	0.07
419.807	0.07
420.166	0.07
420.525	0.06
420.884	0.06
421.244	0.08
421.603	0.06
421.962	0.06
422.321	0.07
422.68	0.05
423.039	0.06
423.398	0.06
423.757	0.07
424.116	0.06
424.475	0.06
424.834	0.06
425.193	0.05
425.551	0.05
425.91	0.06
426.269	0.05
426.628	0.05
426.986	0.05
427.345	0.04
427.703	0.05
428.062	0.05
428.42	0.05
428.779	0.05
429.137	0.06
429.496	0.05
429.854	0.04
430.212	0.04
430.57	0.05
430.929	0.05
431.287	0.04
431.645	0.04
432.003	0.04
432.361	0.05
432.719	0.04
433.077	0.04
433.435	0.05
433.793	0.05
434.151	0.04
434.509	0.04
434.866	0.05
435.224	0.03
435.582	0.04
435.94	0.04
436.297	0.04
436.655	0.04
437.012	0.05
437.37	0.04
437.727	0.04
438.085	0.04
438.442	0.04
438.8	0.04
439.157	0.03
439.514	0.04
439.872	0.02
440.229	0.03
440.586	0.03
440.943	0.04
441.3	0.04
441.657	0.04
442.014	0.04
442.371	0.04
442.728	0.04
443.085	0.03
443.442	0.04
443.799	0.03
444.156	0.03
444.513	0.03
444.869	0.03
445.226	0.03
445.583	0.03
445.939	0.03
446.296	0.03
446.652	0.02
447.009	0.02
447.365	0.02
447.722	0.02
448.078	0.02
448.434	0.02
448.791	0.02
449.147	0.02
449.503	0.02
449.859	0.02
450.215	0.03
450.571	0.02
450.928	0.02
451.284	0.01
451.64	0.01
451.995	0.02
452.351	0.01
452.707	0.02
453.063	0.02
453.419	0.02
453.775	0.01
454.13	0.01
454.486	0.01
454.842	0
455.197	0.01
455.553	0
455.908	-0
456.264	0
456.619	-0
456.975	0.01
457.33	0
457.685	-0
458.04	-0.01
458.396	-0.01
458.751	-0.01
459.106	-0.01
459.461	-0.01
459.816	-0.01
460.171	-0.02
460.526	-0.02
460.881	-0.02
461.236	-0.03
461.591	-0.02
461.946	-0.03
462.301	-0.03
462.655	-0.03
463.01	-0.02
463.365	-0.04
463.719	-0.03
464.074	-0.04
464.428	-0.05
464.783	-0.04
465.137	-0.05
465.492	-0.05
465.846	-0.04
466.201	-0.04
466.555	-0.04
466.909	-0.04
467.263	-0.04
467.618	-0.04
467.972	-0.04
468.326	-0.05
468.68	-0.05
469.034	-0.05
469.388	-0.05
469.742	-0.04
470.096	-0.05
470.45	-0.05
470.804	-0.04
471.157	-0.04
471.511	-0.05
471.865	-0.05
472.218	-0.04
472.572	-0.04
472.926	-0.04
473.279	-0.04
473.633	-0.03
473.986	-0.03
474.34	-0.03
474.693	-0.03
475.046	-0.02
475.4	-0.01
475.753	-0.01
476.106	-0.02
476.459	-0.01
476.812	0
477.165	-0
477.519	-0
477.872	0.01
478.224	0.01
478.577	0.01
478.93	0.01
479.283	0.01
479.636	0.01
479.989	0.02
480.341	0.02
480.694	0.02
481.047	0.02
481.399	0.02
481.752	0.02
482.104	0.03
482.457	0.04
482.809	0.03
483.162	0.03
483.514	0.03
483.866	0.04
484.219	0.04
484.571	0.04
484.923	0.04
485.275	0.04
485.627	0.04
485.979	0.04
486.331	0.05
486.683	0.05
487.035	0.05
487.387	0.05
487.739	0.05
488.091	0.05
488.443	0.05
488.794	0.05
489.146	0.06
489.498	0.06
489.849	0.05
490.201	0.06
490.552	0.06
490.904	0.06
491.255	0.06
491.607	0.06
491.958	0.06
492.309	0.06
492.661	0.06
493.012	0.06
493.363	0.07
493.714	0.06
494.065	0.07
494.416	0.06
494.767	0.06
495.118	0.07
495.469	0.07
495.82	0.07
496.171	0.07
496.522	0.08
496.872	0.07
497.223	0.07
497.574	0.08
497.924	0.08
498.275	0.08
498.626	0.08
498.976	0.08
499.327	0.08
499.677	0.08
500.027	0.09
500.378	0.09
500.728	0.09
501.078	0.09
501.428	0.09
501.779	0.09
502.129	0.09
502.479	0.09
502.829	0.09
503.179	0.09
503.529	0.1
503.879	0.09
504.229	0.09
504.578	0.1
504.928	0.1
505.278	0.1
505.628	0.11
505.977	0.11
506.327	0.1
506.676	0.11
507.026	0.11
507.375	0.11
507.725	0.11
508.074	0.11
508.424	0.11
508.773	0.11
509.122	0.11
509.471	0.11
509.82	0.12
510.17	0.12
510.519	0.12
510.868	0.12
511.217	0.12
511.566	0.12
511.915	0.12
512.263	0.12
512.612	0.12
512.961	0.12
513.31	0.13
513.659	0.12
514.007	0.13
514.356	0.13
514.704	0.13
515.053	0.13
515.401	0.13
515.75	0.13
516.098	0.14
516.447	0.14
516.795	0.14
517.143	0.14
517.491	0.14
517.839	0.14
518.188	0.14
518.536	0.14
518.884	0.14
519.232	0.14
519.58	0.14
519.928	0.14
520.275	0.14
520.623	0.15
520.971	0.15
521.319	0.15
521.666	0.15
522.014	0.15
522.362	0.15
522.709	0.15
523.057	0.16
523.404	0.15
523.752	0.16
524.099	0.16
524.446	0.16
524.794	0.16
525.141	0.16
525.488	0.16
525.835	0.17
526.182	0.16
526.529	0.17
526.876	0.17
527.223	0.17
527.57	0.16
527.917	0.17
528.264	0.17
528.611	0.17
528.958	0.17
529.304	0.17
529.651	0.17
529.998	0.17
530.344	0.18
530.691	0.18
531.037	0.18
531.384	0.18
531.73	0.18
532.076	0.18
532.423	0.18
532.769	0.18
533.115	0.19
533.461	0.19
533.807	0.19
534.154	0.19
534.5	0.19
534.846	0.19
535.192	0.19
535.537	0.2
535.883	0.2
536.229	0.2
536.575	0.2
536.921	0.2
537.266	0.2
537.612	0.21
537.957	0.2
538.303	0.21
538.649	0.21
538.994	0.21
539.339	0.21
539.685	0.21
540.03	0.21
540.375	0.21
540.721	0.21
541.066	0.22
541.411	0.22
541.756	0.22
542.101	0.22
542.446	0.22
542.791	0.22
543.136	0.23
543.481	0.22
543.825	0.23
544.17	0.23
544.515	0.23
544.86	0.24
545.204	0.24
545.549	0.24
545.893	0.24
546.238	0.24
546.582	0.24
546.927	0.24
547.271	0.24
547.615	0.25
547.96	0.25
548.304	0.25
548.648	0.25
548.992	0.25
549.336	0.26
549.68	0.26
550.024	0.26
550.368	0.25
550.712	0.26
551.056	0.26
551.4	0.26
551.743	0.26
552.087	0.27
552.431	0.27
552.774	0.26
553.118	0.27
553.462	0.27
553.805	0.27
554.148	0.27
554.492	0.27
554.835	0.27
555.178	0.27
555.522	0.27
555.865	0.27
556.208	0.28
556.551	0.28
556.894	0.28
557.237	0.28
557.58	0.28
557.923	0.28
558.266	0.28
558.609	0.28
558.952	0.28
559.294	0.29
559.637	0.28
559.98	0.28
560.322	0.29
560.665	0.28
561.007	0.29
561.35	0.29
561.692	0.29
562.034	0.29
562.377	0.29
562.719	0.29
563.061	0.29
563.403	0.3
563.745	0.29
564.088	0.29
564.43	0.29
564.772	0.29
565.113	0.29
565.455	0.29
565.797	0.3
566.139	0.3
566.481	0.3
566.822	0.3
567.164	0.3
567.506	0.3
567.847	0.3
568.189	0.3
568.53	0.3
568.872	0.3
569.213	0.3
569.554	0.3
569.895	0.3
570.237	0.3
570.578	0.3
570.919	0.3
571.26	0.3
571.601	0.3
571.942	0.3
572.283	0.3
572.624	0.3
572.965	0.3
573.306	0.3
573.646	0.3
573.987	0.3
574.328	0.3
574.668	0.3
575.009	0.3
575.349	0.3
575.69	0.3
576.03	0.3
576.37	0.3
576.711	0.29
577.051	0.3
577.391	0.3
577.731	0.3
578.072	0.3
578.412	0.3
578.752	0.3
579.092	0.3
579.431	0.3
579.771	0.29
580.111	0.28
580.451	0.29
580.791	0.29
581.13	0.3
581.47	0.3
581.81	0.3
582.149	0.3
582.489	0.3
582.828	0.3
583.167	0.29
583.507	0.27
583.846	0.25
584.185	0.27
584.525	0.29
584.864	0.3
585.203	0.31
585.542	0.31
585.881	0.31
586.22	0.32
586.559	0.31
586.898	0.31
587.236	0.31
587.575	0.3
587.914	0.31
588.252	0.31
588.591	0.32
588.93	0.32
589.268	0.32
589.607	0.32
589.945	0.32
590.283	0.32
590.622	0.33
590.96	0.33
591.298	0.33
591.636	0.33
591.974	0.33
592.313	0.34
592.651	0.34
592.989	0.34
593.326	0.34
593.664	0.34
594.002	0.34
594.34	0.34
594.678	0.34
595.015	0.34
595.353	0.33
595.691	0.34
596.028	0.35
596.366	0.35
596.703	0.35
597.04	0.35
597.378	0.35
597.715	0.36
598.052	0.36
598.389	0.36
598.726	0.37
599.064	0.36
599.401	0.37
599.738	0.36
600.074	0.37
600.411	0.37
600.748	0.36
601.085	0.36
601.422	0.36
601.758	0.36
602.095	0.36
602.432	0.36
602.768	0.36
603.105	0.36
603.441	0.36
603.777	0.37
604.114	0.37
604.45	0.37
604.786	0.37
605.122	0.37
605.459	0.37
605.795	0.37
606.131	0.37
606.467	0.37
606.803	0.37
607.139	0.37
607.474	0.37
607.81	0.36
608.146	0.36
608.482	0.36
608.817	0.36
609.153	0.36
609.488	0.36
609.824	0.36
610.159	0.36
610.495	0.36
610.83	0.36
611.165	0.36
611.5	0.36
611.836	0.36
612.171	0.36
612.506	0.36
612.841	0.36
613.176	0.35
613.511	0.35
613.845	0.35
614.18	0.35
614.515	0.35
614.85	0.35
615.184	0.34
615.519	0.35
615.854	0.35
616.188	0.34
616.523	0.34
616.857	0.34
617.191	0.34
617.526	0.34
617.86	0.34
618.194	0.34
618.528	0.34
618.862	0.34
619.196	0.34
619.53	0.34
619.864	0.33
620.198	0.33
620.532	0.33
620.866	0.33
621.2	0.32
621.533	0.32
621.867	0.33
622.201	0.32
622.534	0.32
622.868	0.32
623.201	0.32
623.534	0.32
623.868	0.32
624.201	0.32
624.534	0.32
624.868	0.32
625.201	0.31
625.534	0.32
625.867	0.31
626.2	0.31
626.533	0.31
626.865	0.31
627.198	0.31
627.531	0.31
627.864	0.3
628.196	0.3
628.529	0.3
628.862	0.3
629.194	0.3
629.527	0.29
629.859	0.29
630.191	0.29
630.524	0.29
630.856	0.29
631.188	0.29
631.52	0.29
631.852	0.28
632.184	0.28
632.516	0.28
632.848	0.28
633.18	0.28
633.512	0.28
633.844	0.27
634.175	0.27
634.507	0.27
634.839	0.26
635.17	0.26
635.502	0.26
635.833	0.26
636.165	0.26
636.496	0.26
636.827	0.26
637.159	0.25
637.49	0.25
637.821	0.25
638.152	0.25
638.483	0.25
638.814	0.24
639.145	0.24
639.476	0.24
639.807	0.24
640.137	0.23
640.468	0.23
640.799	0.23
641.129	0.23
641.46	0.23
641.791	0.23
642.121	0.23
642.451	0.23
642.782	0.22
643.112	0.22
643.442	0.21
643.773	0.21
644.103	0.21
644.433	0.21
644.763	0.21
645.093	0.21
645.423	0.21
645.753	0.21
646.082	0.21
646.412	0.2
646.742	0.21
647.072	0.21
647.401	0.21
647.731	0.21
648.06	0.21
648.39	0.2
648.719	0.2
649.048	0.2
649.378	0.2
649.707	0.2
650.036	0.19
650.365	0.2
650.694	0.19
651.023	0.2
651.352	0.19
651.681	0.19
652.01	0.2
652.339	0.2
652.668	0.19
652.996	0.19
653.325	0.19
653.654	0.19
653.982	0.19
654.311	0.19
654.639	0.19
654.967	0.19
655.296	0.19
655.624	0.19
655.952	0.19
656.28	0.19
656.609	0.19
656.937	0.19
657.265	0.2
657.593	0.17
657.92	0.03
658.248	0
658.576	0
658.904	0.06
659.231	0.15
659.559	0.19
659.887	0.19
660.214	0.19
660.542	0.19
660.869	0.19
661.196	0.19
661.524	0.18
661.851	0.19
662.178	0.19
662.505	0.18
662.832	0.18
663.159	0.18
663.486	0.18
663.813	0.18
664.14	0.18
664.467	0.18
664.794	0.18
665.12	0.18
665.447	0.18
665.774	0.18
666.1	0.18
666.427	0.18
666.753	0.18
667.079	0.18
667.406	0.18
667.732	0.18
668.058	0.18
668.384	0.18
668.71	0.18
669.036	0.18
669.362	0.18
669.688	0.18
670.014	0.18
670.34	0.18
670.666	0.17
670.991	0.17
671.317	0.17
671.643	0.17
671.968	0.17
672.294	0.17
672.619	0.17
672.945	0.17
673.27	0.17
673.595	0.17
673.92	0.17
674.246	0.17
674.571	0.16
674.896	0.16
675.221	0.16
675.546	0.16
675.87	0.16
676.195	0.16
676.52	0.16
676.845	0.15
677.169	0.15
677.494	0.15
677.819	0.15
678.143	0.15
678.468	0.15
678.792	0.14
679.116	0.15
679.44	0.14
679.765	0.15
680.089	0.14
680.413	0.14
680.737	0.14
681.061	0.14
681.385	0.14
681.709	0.13
682.033	0.13
682.356	0.13
682.68	0.13
683.004	0.13
683.327	0.13
683.651	0.12
683.974	0.12
684.298	0.12
684.621	0.12
684.944	0.12
685.268	0.12
685.591	0.12
685.914	0.12
686.237	0.12
686.56	0.12
686.883	0.11
687.206	0.11
687.529	0.11
687.852	0.11
688.175	0.11
688.497	0.11
688.82	0.11
689.142	0.1
689.465	0.1
689.787	0.1
690.11	0.1
690.432	0.1
690.755	0.1
691.077	0.1
691.399	0.1
691.721	0.1
692.043	0.1
692.365	0.09
692.687	0.09
693.009	0.09
693.331	0.09
693.653	0.09
693.974	0.09
694.296	0.09
694.618	0.09
694.939	0.09
695.261	0.09
695.582	0.08
695.904	0.09
696.225	0.08
696.546	0.08
696.868	0.08
697.189	0.08
697.51	0.08
697.831	0.08
698.152	0.08
698.473	0.08
698.794	0.08
699.114	0.08
699.435	0.07
699.756	0.07
700.077	0.07
700.397	0.07
700.718	0.07
701.038	0.07
701.359	0.07
701.679	0.07
701.999	0.07
702.32	0.07
702.64	0.07
702.96	0.07
703.28	0.07
703.6	0.07
703.92	0.07
704.24	0.07
704.56	0.07
704.879	0.06
705.199	0.06
705.519	0.06
705.838	0.06
706.158	0.06
706.478	0.06
706.797	0.06
707.116	0.06
707.436	0.07
707.755	0.07
708.074	0.07
708.393	0.07
708.712	0.07
709.031	0.06
709.35	0.06
709.669	0.06
709.988	0.06
710.307	0.06
710.626	0.06
710.944	0.06
711.263	0.06
711.582	0.06
711.9	0.05
712.219	0.06
712.537	0.06
712.855	0.06
713.174	0.06
713.492	0.06
713.81	0.05
714.128	0.05
714.446	0.06
714.764	0.05
715.082	0.05
715.4	0.05
715.718	0.05
716.035	0.05
716.353	0.05
716.671	0.05
716.988	0.05
717.306	0.05
717.623	0.05
717.941	0.06
718.258	0.06
718.575	0.06
718.893	0.06
719.21	0.06
719.527	0.06
719.844	0.06
720.161	0.06
720.478	0.06
720.795	0.06
721.112	0.06
721.428	0.06
721.745	0.06
722.062	0.06
722.378	0.06
722.695	0.06
723.011	0.06
723.328	0.06
723.644	0.06
723.96	0.06
724.276	0.06
724.593	0.06
724.909	0.06
725.225	0.06
725.541	0.06
725.857	0.06
726.173	0.07
726.488	0.06
726.804	0.07
727.12	0.06
727.435	0.07
727.751	0.07
728.067	0.07
728.382	0.07
728.697	0.07
729.013	0.07
729.328	0.07
729.643	0.07
729.958	0.07
730.273	0.07
730.588	0.07
730.903	0.07
731.218	0.07
731.533	0.07
731.848	0.07
732.163	0.07
732.477	0.07
732.792	0.07
733.107	0.06
733.421	0.07
733.736	0.07
734.05	0.07
734.364	0.07
734.678	0.07
734.993	0.07
735.307	0.07
735.621	0.07
735.935	0.07
736.249	0.06
736.563	0.07
736.877	0.07
737.19	0.07
737.504	0.06
737.818	0.06
738.131	0.06
738.445	0.06
738.758	0.06
739.072	0.06
739.385	0.06
739.698	0.06
740.012	0.06
740.325	0.06
740.638	0.06
740.951	0.06
741.264	0.06
741.577	0.06
741.89	0.06
742.203	0.06
742.515	0.07
742.828	0.07
743.141	0.06
743.453	0.07
743.766	0.07
744.078	0.06
744.391	0.06
744.703	0.06
745.015	0.06
745.327	0.06
745.639	0.06
745.952	0.06
746.264	0.06
746.575	0.06
746.887	0.06
747.199	0.06
747.511	0.06
747.823	0.05
748.134	0.05
748.446	0.05
748.757	0.05
749.069	0.05
749.38	0.05
749.692	0.05
750.003	0.05
750.314	0.05
750.625	0.05
750.936	0.05
751.248	0.05
751.559	0.05
751.869	0.05
752.18	0.05
752.491	0.05
752.802	0.05
753.112	0.04
753.423	0.04
753.734	0.04
754.044	0.04
754.355	0.04
754.665	0.04
754.975	0.04
755.285	0.04
755.596	0.04
755.906	0.04
756.216	0.03
756.526	0.03
756.836	0.03
757.146	0.03
757.455	0.04
757.765	0.04
758.075	0.04
758.385	0.03
758.694	0.03
759.004	0.03
759.313	0.03
759.622	0.03
759.932	0.03
760.241	0.03
760.55	0.03
760.859	0.03
761.168	0.03
761.477	0.03
761.786	0.03
762.095	0.03
762.404	0.03
762.713	0.03
763.021	0.03
763.33	0.03
763.639	0.03
763.947	0.02
764.256	0.02
764.564	0.02
764.872	0.02
765.181	0.02
765.489	0.02
765.797	0.02
766.105	0.02
766.413	0.02
766.721	0.02
767.029	0.02
767.337	0.02
767.644	0.03
767.952	0.02
768.26	0.02
768.567	0.03
768.875	0.03
769.182	0.02
769.49	0.02
769.797	0.02
770.104	0.02
770.411	0.02
770.718	0.02
771.026	0.02
771.333	0.02
771.639	0.02
771.946	0.02
772.253	0.02
772.56	0.02
772.867	0.02
773.173	0.02
773.48	0.02
773.786	0.02
774.093	0.01
774.399	0.01
774.705	0.01
775.012	0.01
775.318	0.01
775.624	0.01
775.93	0.01
776.236	0.02
776.542	0.02
776.848	0.01
777.154	0.02
777.459	0.02
777.765	0.02
778.071	0.02
778.376	0.02
778.682	0.01
778.987	0.01
779.292	0.01
779.598	0.02
779.903	0.02
780.208	0.02
780.513	0.02
780.818	0.02
781.123	0.02
781.428	0.02
781.733	0.02
782.038	0.02
782.343	0.02
782.647	0.02
782.952	0.02
783.256	0.02
783.561	0.02
783.865	0.02
784.17	0.02
784.474	0.02
784.778	0.02
785.082	0.01
785.386	0.02
785.69	0.02
785.994	0.02
786.298	0.02
786.602	0.02
786.906	0.01
787.209	0.01
787.513	0.02
787.817	0.02
788.12	0.01
788.424	0.02
788.727	0.02
789.03	0.02
789.333	0.02
789.637	0.02
789.94	0.02
790.243	0.02
790.546	0.02
790.849	0.02
791.152	0.02
791.454	0.02
791.757	0.02
792.06	0.02
792.362	0.02
792.665	0.02
792.967	0.01
793.27	0.01
793.572	0.01
793.874	0.01
794.177	0.01
794.479	0.01
794.781	0.02
795.083	0.02
795.385	0.02
795.687	0.02
795.989	0.02
796.29	0.02
796.592	0.02
796.894	0.02
797.195	0.02
797.497	0.01
797.798	0.01
798.1	0.01
798.401	0.02
798.702	0.02
799.003	0.02
799.304	0.02
799.605	0.01
799.906	0.02
800.207	0.02
800.508	0.02
800.809	0.02
801.11	0.02
801.41	0.02
801.711	0.02
802.011	0.02
802.312	0.02
802.612	0.02
802.913	0.03
803.213	0.02
803.513	0.03
803.813	0.03
804.113	0.03
804.413	0.03
804.713	0.03
805.013	0.03
805.313	0.03
805.613	0.03
805.912	0.02
806.212	0.03
806.511	0.02
806.811	0.02
807.11	0.03
807.41	0.03
807.709	0.02
808.008	0.02
808.307	0.02
808.606	0.02
808.905	0.01
809.204	0.02
809.503	0.01
809.802	0.02
810.101	0.02
810.399	0.01
810.698	0.01
810.997	0.02
811.295	0.02
811.593	0.02
811.892	0.01
812.19	0.02
812.488	0.02
812.786	0.02
813.084	0.02
813.383	0.01
813.68	0.01
813.978	0.02
814.276	0.01
814.574	0.01
814.872	0.01
815.169	0.01
815.467	0.01
815.764	0.01
816.062	0.02
816.359	0.02
816.656	0.01
816.954	0.01
817.251	0.01
817.548	0.01
817.845	0.02
818.142	0.01
818.439	0.01
818.735	0.02
819.032	0.02
819.329	0.02
819.626	0.01
819.922	0.01
820.219	0.02
820.515	0.01
820.811	0.02
821.108	0.02
821.404	0.01
821.7	0.01
821.996	0.01
822.292	0.01
822.588	0.01
822.884	0.02
823.18	0.01
823.475	0.02
823.771	0.02
824.067	0.01
824.362	0.03
824.658	0.03
824.953	0.02
825.249	0.03
825.544	0.03
825.839	0.02
826.134	0.03
826.429	0.02
826.724	0.02
827.019	0.02
827.314	0.02
827.609	0.02
827.904	0.02
828.198	0.01
828.493	0.02
828.787	0.02
829.082	0.02
829.376	0.02
829.671	0.01
829.965	0.02
830.259	0.02
830.553	0.02
830.847	0.02
831.141	0.02
831.435	0.02
831.729	0.02
832.023	0.03
832.317	0.02
832.61	0.02
832.904	0.01
833.197	0.02
833.491	0.03
833.784	0.02
834.077	0.02
834.371	0.03
834.664	0.02
834.957	0.02
835.25	0.02
835.543	0.02
835.836	0.03
836.129	0.03
836.421	0.02
836.714	0.02
837.007	0.02
837.299	0.02
837.592	0.02
837.884	0.02
838.177	0.03
838.469	0.02
838.761	0.03
839.053	0.03
839.345	0.03
839.637	0.03
839.929	0.02
840.221	0.03
840.513	0.03
840.805	0.03
841.096	0.02
841.388	0.02
841.68	0.02
841.971	0.02
842.262	0.02
842.554	0.02
842.845	0.02
843.136	0.02
843.427	0.02
843.718	0.03
844.009	0.01
844.3	0.02
844.591	0.03
844.882	0.02
845.173	0.02
845.463	0.02
845.754	0.03
846.044	0.02
846.335	0.01
846.625	0.02
846.915	0.01
847.206	0.03
847.496	0.03
847.786	0.02
848.076	0.02
848.366	0.02
848.656	0.03
848.945	0.02
849.235	0.03
849.525	0.02
849.814	0.02
850.104	0.03
850.393	0.02
850.683	0.03
850.972	0.03
851.261	0.02
851.551	0.03
851.84	0.02
852.129	0.03
852.418	0.03
852.707	0.01
852.995	0.02
853.284	0
853.573	0.01
853.862	0.02
854.15	0.01
854.439	0.02
854.727	0.02
855.015	0.02
855.304	0.02
855.592	0.01
855.88	0.02
856.168	0.02
856.456	0.02
856.744	0.02
857.032	0.02
857.32	0.02
857.607	0.02
857.895	0.03
858.183	0.04
858.47	0.01
858.757	0.02
859.045	0.03
859.332	0.02
859.619	0.03
859.907	0.04
860.194	0.02
860.481	0.01
860.768	0.03
861.054	0.03
861.341	0.04
861.628	0.03
861.915	0.01
862.201	0.04
862.488	0.02
862.774	0.02
863.061	0.01
863.347	0.01
863.633	0.02
863.919	0.03
864.205	0.03
864.491	0.05
864.777	0.01
865.063	0.04
865.349	0.02
865.635	-0.01
865.92	0.02
866.206	0.01
866.492	0.03
866.777	0.03
867.062	0.01
867.348	0
867.633	0.01
867.918	-0.01
868.203	0.01
868.488	0.04
868.773	0.02
869.058	-0.02
869.343	0.02
869.628	0.01
869.912	0.01
870.197	0.03
870.482	0.04
870.766	0.03
871.05	0.04
871.335	0.03
871.619	0.03
871.903	0.05
872.187	0.06
872.471	0
872.755	0.01
873.039	0.03
873.323	0.03
873.607	0.04
873.89	0.04
874.174	0.01
874.458	0.01
874.741	0
875.024	0.04
875.308	-0.05
875.591	-0.01
875.874	-0.01
876.157	0.04
876.44	-0.02
876.723	0.08
877.006	0.09
877.289	0.06
877.572	-0
877.854	0.04
878.137	0.08
878.42	0.04
878.702	0.05
878.984	-0
879.267	0.05
879.549	0.06
879.831	0.08
880.113	-0
880.395	0.07
880.677	-0
880.959	-0.16
