Data from Rubpy_EV_1500_EDTA_Buffered_Absorbance_14-58-07-869.txt Node
Date: Tue Jun 30 14:58:07 BST 2026
User: fpm-admin
Spectrometer: OFX00224
Trigger mode: 0
Integration Time (sec): 7.000000E-2
Scans to average: 3
Nonlinearity correction enabled: false
Boxcar width: 0
Storing dark spectrum: false
XAxis mode: Wavelengths
Number of Pixels in Spectrum: 2136
>>>>>Begin Spectral Data<<<<<
154.91	0.91
155.289	-0.35
155.669	0.18
156.048	-0
156.428	-0.08
156.807	-0
157.186	0.05
157.566	0.26
157.945	-0.15
158.325	-1
158.704	-0
159.083	-0
159.462	-0.72
159.842	-0.24
160.221	0.6
160.6	-0
160.979	-0
161.359	-0.56
161.738	-0
162.117	-0.1
162.496	0.54
162.875	-0
163.254	-0.48
163.633	-0.25
164.012	-0
164.391	-0
164.77	-0.02
165.149	-0
165.528	-0
165.907	-0
166.286	-0.56
166.665	-0
167.044	0.3
167.423	0.1
167.802	-0
168.181	0.19
168.559	-0.56
168.938	0.41
169.317	-0
169.696	-0.1
170.074	-0.01
170.453	-0
170.832	-0
171.21	-0
171.589	-0
171.968	0.74
172.346	-0.63
172.725	-1.4
173.103	-0.36
173.482	-0
173.861	-0.24
174.239	-0.31
174.617	-0
174.996	-0.26
175.374	-0
175.753	-0.21
176.131	-0
176.51	-0
176.888	0.15
177.266	-0
177.645	-0.09
178.023	0.8
178.401	-0.13
178.779	-0.23
179.158	-0.09
179.536	-0
179.914	-0
180.292	0.17
180.67	-0.06
181.048	-0
181.427	-0
181.805	-0.3
182.183	-0
182.561	0.46
182.939	-1.26
183.317	-0
183.695	0.59
184.073	-0.32
184.451	0.76
184.829	-0.15
185.206	-0.09
185.584	-0.32
185.962	0.48
186.34	0.02
186.718	-0
187.096	-0
187.473	-0
187.851	0.65
188.229	-0.36
188.607	0.25
188.984	0.17
189.362	0.13
189.74	0.11
190.117	0.1
190.495	0.18
190.872	0.06
191.25	0.1
191.627	0.02
192.005	0.1
192.382	0.12
192.76	0.15
193.137	0.13
193.515	0.2
193.892	0.17
194.269	0.08
194.647	0
195.024	0.09
195.401	0.07
195.779	0.16
196.156	0.15
196.533	0.19
196.91	-0
197.288	0.13
197.665	0.15
198.042	-0.01
198.419	0.06
198.796	0.18
199.173	0.15
199.55	0.05
199.927	0.19
200.304	0.04
200.681	0.13
201.058	0.1
201.435	0.18
201.812	0.08
202.189	0.2
202.566	0.18
202.943	0.1
203.32	0.1
203.697	0.16
204.073	0.11
204.45	0.12
204.827	0.16
205.204	0.3
205.58	0.15
205.957	0.17
206.334	0.15
206.71	0.1
207.087	0.17
207.464	0.2
207.84	0.2
208.217	0.13
208.593	0.17
208.97	0.18
209.346	0.17
209.723	0.17
210.099	0.08
210.476	0.18
210.852	0.11
211.228	0.18
211.605	0.17
211.981	0.15
212.357	0.13
212.733	0.14
213.11	0.18
213.486	0.08
213.862	0.15
214.238	0.07
214.614	0.22
214.991	0.15
215.367	0.2
215.743	0.22
216.119	0.15
216.495	0.12
216.871	0.2
217.247	0.15
217.623	0.15
217.999	0.14
218.375	0.22
218.751	0.1
219.127	0.2
219.502	0.11
219.878	0.11
220.254	0.15
220.63	0.15
221.006	0.13
221.381	0.15
221.757	0.2
222.133	0.2
222.508	0.15
222.884	0.15
223.26	0.18
223.635	0.19
224.011	0.15
224.386	0.13
224.762	0.2
225.137	0.17
225.513	0.13
225.888	0.17
226.264	0.13
226.639	0.21
227.014	0.16
227.39	0.15
227.765	0.26
228.14	0.23
228.516	0.24
228.891	0.23
229.266	0.14
229.641	0.15
230.017	0.16
230.392	0.13
230.767	0.2
231.142	0.26
231.517	0.23
231.892	0.18
232.267	0.18
232.642	0.16
233.017	0.17
233.392	0.27
233.767	0.08
234.142	0.19
234.517	0.2
234.892	0.06
235.267	0.16
235.641	0.13
236.016	0
236.391	0.09
236.766	0.06
237.14	0.18
237.515	0.13
237.89	0.18
238.264	0.12
238.639	0.22
239.014	0.17
239.388	0.13
239.763	0.19
240.137	0.08
240.512	0.02
240.886	0.13
241.261	0.17
241.635	0.23
242.009	0.13
242.384	0.16
242.758	0.2
243.132	0.09
243.507	0.24
243.881	0.17
244.255	0.13
244.629	0.22
245.004	0.14
245.378	0.23
245.752	0.14
246.126	0.26
246.5	0.11
246.874	0.14
247.248	0.08
247.622	0.14
247.996	0.13
248.37	0.2
248.744	0.22
249.118	0.13
249.492	0.21
249.866	0.07
250.24	0.17
250.613	0.14
250.987	0.11
251.361	0.15
251.735	0.18
252.108	0.16
252.482	0.11
252.856	0.13
253.229	0.09
253.603	0.28
253.977	0.21
254.35	0.11
254.724	0.15
255.097	0.12
255.471	0.24
255.844	0.09
256.218	0.15
256.591	0.11
256.964	0.17
257.338	0.24
257.711	0.12
258.084	0.14
258.458	0.14
258.831	0.27
259.204	0.15
259.577	0.15
259.95	0.12
260.323	0.15
260.697	0.11
261.07	0.13
261.443	0.13
261.816	0.09
262.189	0.13
262.562	0.14
262.935	0.17
263.308	0.12
263.68	0.19
264.053	0.17
264.426	0.13
264.799	0.2
265.172	0.16
265.545	0.14
265.917	0.14
266.29	0.18
266.663	0.16
267.035	0.15
267.408	0.13
267.781	0.11
268.153	0.12
268.526	0.16
268.898	0.26
269.271	0.22
269.643	0.12
270.016	0.14
270.388	0.13
270.76	0.11
271.133	0.19
271.505	0.22
271.877	0.12
272.25	0.19
272.622	0.13
272.994	0.12
273.366	0.15
273.739	0.24
274.111	0.11
274.483	0.17
274.855	0.21
275.227	0.19
275.599	0.11
275.971	0.2
276.343	0.22
276.715	0.14
277.087	0.17
277.459	0.18
277.831	0.15
278.203	0.16
278.574	0.18
278.946	0.2
279.318	0.15
279.69	0.2
280.061	0.11
280.433	0.14
280.805	0.16
281.176	0.2
281.548	0.08
281.92	0.22
282.291	0.13
282.663	0.25
283.034	0.2
283.406	0.17
283.777	0.19
284.148	0.2
284.52	0.2
284.891	0.19
285.262	0.2
285.634	0.14
286.005	0.17
286.376	0.11
286.747	0.18
287.119	0.16
287.49	0.07
287.861	0.15
288.232	0.14
288.603	0.16
288.974	0.18
289.345	0.08
289.716	0.22
290.087	0.13
290.458	0.18
290.829	0.22
291.2	0.11
291.571	0.16
291.941	0.14
292.312	0.17
292.683	0.18
293.054	0.2
293.424	0.08
293.795	0.17
294.166	0.17
294.536	0.19
294.907	0.11
295.277	0.14
295.648	0.13
296.018	0.23
296.389	0.18
296.759	0.17
297.13	0.21
297.5	0.12
297.871	0.21
298.241	0.11
298.611	0.12
298.981	0.12
299.352	0.15
299.722	0.11
300.092	0.13
300.462	0.17
300.832	0.12
301.202	0.13
301.573	0.15
301.943	0.13
302.313	0.16
302.683	0.1
303.053	0.12
303.422	0.12
303.792	0.11
304.162	0.13
304.532	0.13
304.902	0.11
305.272	0.12
305.641	0.11
306.011	0.12
306.381	0.12
306.75	0.12
307.12	0.12
307.49	0.13
307.859	0.13
308.229	0.13
308.598	0.13
308.968	0.13
309.337	0.12
309.707	0.13
310.076	0.12
310.445	0.14
310.815	0.14
311.184	0.13
311.553	0.14
311.923	0.14
312.292	0.14
312.661	0.14
313.03	0.15
313.399	0.14
313.768	0.14
314.137	0.14
314.506	0.14
314.875	0.14
315.244	0.14
315.613	0.13
315.982	0.14
316.351	0.14
316.72	0.13
317.089	0.13
317.458	0.13
317.826	0.14
318.195	0.13
318.564	0.13
318.933	0.13
319.301	0.13
319.67	0.13
320.038	0.13
320.407	0.12
320.775	0.13
321.144	0.12
321.512	0.12
321.881	0.12
322.249	0.12
322.618	0.12
322.986	0.11
323.354	0.12
323.723	0.12
324.091	0.12
324.459	0.11
324.827	0.12
325.195	0.12
325.564	0.11
325.932	0.11
326.3	0.11
326.668	0.11
327.036	0.11
327.404	0.11
327.772	0.12
328.14	0.12
328.508	0.12
328.875	0.12
329.243	0.11
329.611	0.12
329.979	0.12
330.346	0.12
330.714	0.12
331.082	0.12
331.449	0.12
331.817	0.13
332.185	0.12
332.552	0.12
332.92	0.13
333.287	0.12
333.655	0.13
334.022	0.13
334.389	0.13
334.757	0.14
335.124	0.13
335.491	0.13
335.859	0.13
336.226	0.14
336.593	0.14
336.96	0.14
337.327	0.14
337.695	0.15
338.062	0.15
338.429	0.15
338.796	0.15
339.163	0.15
339.53	0.15
339.897	0.16
340.263	0.16
340.63	0.17
340.997	0.16
341.364	0.17
341.731	0.17
342.097	0.17
342.464	0.18
342.831	0.18
343.197	0.18
343.564	0.19
343.931	0.18
344.297	0.19
344.664	0.19
345.03	0.19
345.396	0.2
345.763	0.2
346.129	0.21
346.496	0.21
346.862	0.21
347.228	0.21
347.594	0.22
347.961	0.22
348.327	0.22
348.693	0.23
349.059	0.23
349.425	0.23
349.791	0.24
350.157	0.24
350.523	0.25
350.889	0.25
351.255	0.25
351.621	0.25
351.987	0.26
352.353	0.27
352.719	0.27
353.084	0.28
353.45	0.28
353.816	0.29
354.181	0.29
354.547	0.3
354.913	0.31
355.278	0.31
355.644	0.32
356.009	0.32
356.375	0.33
356.74	0.34
357.106	0.34
357.471	0.35
357.836	0.36
358.202	0.37
358.567	0.37
358.932	0.38
359.297	0.39
359.663	0.38
360.028	0.39
360.393	0.4
360.758	0.4
361.123	0.41
361.488	0.41
361.853	0.42
362.218	0.42
362.583	0.43
362.948	0.43
363.312	0.43
363.677	0.45
364.042	0.46
364.407	0.45
364.772	0.47
365.136	0.47
365.501	0.48
365.865	0.49
366.23	0.5
366.595	0.5
366.959	0.52
367.324	0.52
367.688	0.54
368.052	0.54
368.417	0.55
368.781	0.55
369.145	0.57
369.51	0.56
369.874	0.57
370.238	0.57
370.602	0.57
370.967	0.56
371.331	0.56
371.695	0.56
372.059	0.56
372.423	0.56
372.787	0.55
373.151	0.55
373.515	0.55
373.878	0.54
374.242	0.55
374.606	0.54
374.97	0.55
375.334	0.54
375.697	0.54
376.061	0.55
376.425	0.55
376.788	0.56
377.152	0.56
377.515	0.56
377.879	0.57
378.242	0.58
378.606	0.58
378.969	0.59
379.333	0.59
379.696	0.59
380.059	0.61
380.422	0.62
380.786	0.62
381.149	0.63
381.512	0.65
381.875	0.66
382.238	0.67
382.601	0.69
382.964	0.7
383.327	0.72
383.69	0.73
384.053	0.75
384.416	0.78
384.779	0.79
385.142	0.8
385.504	0.82
385.867	0.82
386.23	0.83
386.593	0.85
386.955	0.84
387.318	0.85
387.68	0.84
388.043	0.84
388.405	0.83
388.768	0.82
389.13	0.82
389.493	0.81
389.855	0.81
390.217	0.81
390.58	0.8
390.942	0.8
391.304	0.81
391.666	0.82
392.028	0.84
392.391	0.85
392.753	0.87
393.115	0.91
393.477	0.93
393.839	0.96
394.201	0.99
394.563	1.05
394.924	1.08
395.286	1.12
395.648	1.16
396.01	1.18
396.371	1.21
396.733	1.25
397.095	1.26
397.456	1.27
397.818	1.26
398.18	1.26
398.541	1.25
398.903	1.22
399.264	1.2
399.625	1.16
399.987	1.1
400.348	1.06
400.709	1.01
401.071	0.97
401.432	0.91
401.793	0.85
402.154	0.8
402.515	0.74
402.876	0.69
403.238	0.64
403.599	0.6
403.96	0.56
404.32	0.51
404.681	0.48
405.042	0.45
405.403	0.42
405.764	0.39
406.125	0.36
406.485	0.33
406.846	0.32
407.207	0.3
407.567	0.28
407.928	0.26
408.288	0.25
408.649	0.23
409.009	0.22
409.37	0.21
409.73	0.2
410.091	0.2
410.451	0.18
410.811	0.17
411.171	0.16
411.532	0.16
411.892	0.15
412.252	0.14
412.612	0.14
412.972	0.13
413.332	0.13
413.692	0.12
414.052	0.12
414.412	0.11
414.772	0.12
415.132	0.11
415.492	0.12
415.851	0.1
416.211	0.09
416.571	0.1
416.931	0.1
417.29	0.09
417.65	0.09
418.009	0.08
418.369	0.09
418.728	0.09
419.088	0.08
419.447	0.08
419.807	0.08
420.166	0.08
420.525	0.08
420.884	0.07
421.244	0.08
421.603	0.08
421.962	0.07
422.321	0.08
422.68	0.06
423.039	0.06
423.398	0.07
423.757	0.07
424.116	0.07
424.475	0.07
424.834	0.07
425.193	0.06
425.551	0.06
425.91	0.06
426.269	0.06
426.628	0.06
426.986	0.06
427.345	0.06
427.703	0.06
428.062	0.06
428.42	0.06
428.779	0.06
429.137	0.06
429.496	0.06
429.854	0.05
430.212	0.06
430.57	0.06
430.929	0.05
431.287	0.05
431.645	0.05
432.003	0.05
432.361	0.05
432.719	0.05
433.077	0.05
433.435	0.05
433.793	0.05
434.151	0.04
434.509	0.05
434.866	0.05
435.224	0.05
435.582	0.05
435.94	0.05
436.297	0.05
436.655	0.05
437.012	0.06
437.37	0.04
437.727	0.04
438.085	0.05
438.442	0.05
438.8	0.04
439.157	0.04
439.514	0.05
439.872	0.03
440.229	0.04
440.586	0.05
440.943	0.04
441.3	0.05
441.657	0.04
442.014	0.04
442.371	0.04
442.728	0.04
443.085	0.04
443.442	0.04
443.799	0.04
444.156	0.03
444.513	0.03
444.869	0.03
445.226	0.04
445.583	0.03
445.939	0.04
446.296	0.03
446.652	0.03
447.009	0.04
447.365	0.03
447.722	0.03
448.078	0.03
448.434	0.03
448.791	0.02
449.147	0.03
449.503	0.02
449.859	0.02
450.215	0.03
450.571	0.03
450.928	0.02
451.284	0.02
451.64	0.03
451.995	0.02
452.351	0.02
452.707	0.02
453.063	0.02
453.419	0.01
453.775	0.02
454.13	0.02
454.486	0.02
454.842	0.01
455.197	0.02
455.553	0.01
455.908	0.01
456.264	0
456.619	0
456.975	0.02
457.33	0
457.685	0
458.04	0
458.396	-0
458.751	0
459.106	-0
459.461	-0
459.816	-0.01
460.171	-0.02
460.526	-0.01
460.881	-0.01
461.236	-0.02
461.591	-0.01
461.946	-0.03
462.301	-0.03
462.655	-0.03
463.01	-0.02
463.365	-0.02
463.719	-0.03
464.074	-0.04
464.428	-0.04
464.783	-0.04
465.137	-0.04
465.492	-0.04
465.846	-0.04
466.201	-0.04
466.555	-0.04
466.909	-0.04
467.263	-0.03
467.618	-0.03
467.972	-0.03
468.326	-0.04
468.68	-0.04
469.034	-0.04
469.388	-0.04
469.742	-0.04
470.096	-0.04
470.45	-0.04
470.804	-0.04
471.157	-0.04
471.511	-0.04
471.865	-0.04
472.218	-0.04
472.572	-0.04
472.926	-0.03
473.279	-0.03
473.633	-0.03
473.986	-0.02
474.34	-0.02
474.693	-0.02
475.046	-0.01
475.4	-0.01
475.753	-0.01
476.106	-0.01
476.459	0
476.812	0.01
477.165	0
477.519	0.01
477.872	0.01
478.224	0.01
478.577	0.01
478.93	0.02
479.283	0.02
479.636	0.02
479.989	0.02
480.341	0.03
480.694	0.03
481.047	0.03
481.399	0.03
481.752	0.03
482.104	0.04
482.457	0.04
482.809	0.04
483.162	0.04
483.514	0.04
483.866	0.04
484.219	0.05
484.571	0.05
484.923	0.05
485.275	0.05
485.627	0.05
485.979	0.05
486.331	0.05
486.683	0.06
487.035	0.06
487.387	0.06
487.739	0.06
488.091	0.06
488.443	0.06
488.794	0.06
489.146	0.06
489.498	0.06
489.849	0.06
490.201	0.06
490.552	0.06
490.904	0.07
491.255	0.07
491.607	0.07
491.958	0.07
492.309	0.07
492.661	0.07
493.012	0.07
493.363	0.07
493.714	0.07
494.065	0.07
494.416	0.08
494.767	0.08
495.118	0.08
495.469	0.08
495.82	0.08
496.171	0.09
496.522	0.08
496.872	0.08
497.223	0.08
497.574	0.09
497.924	0.09
498.275	0.09
498.626	0.09
498.976	0.09
499.327	0.09
499.677	0.09
500.027	0.1
500.378	0.1
500.728	0.1
501.078	0.1
501.428	0.1
501.779	0.1
502.129	0.11
502.479	0.11
502.829	0.11
503.179	0.11
503.529	0.11
503.879	0.11
504.229	0.11
504.578	0.11
504.928	0.11
505.278	0.11
505.628	0.12
505.977	0.12
506.327	0.12
506.676	0.12
507.026	0.12
507.375	0.12
507.725	0.12
508.074	0.12
508.424	0.12
508.773	0.12
509.122	0.13
509.471	0.13
509.82	0.13
510.17	0.13
510.519	0.13
510.868	0.13
511.217	0.13
511.566	0.13
511.915	0.14
512.263	0.14
512.612	0.14
512.961	0.14
513.31	0.14
513.659	0.14
514.007	0.14
514.356	0.14
514.704	0.15
515.053	0.15
515.401	0.15
515.75	0.15
516.098	0.15
516.447	0.15
516.795	0.15
517.143	0.15
517.491	0.16
517.839	0.16
518.188	0.16
518.536	0.16
518.884	0.16
519.232	0.16
519.58	0.16
519.928	0.17
520.275	0.16
520.623	0.17
520.971	0.17
521.319	0.17
521.666	0.17
522.014	0.17
522.362	0.17
522.709	0.17
523.057	0.17
523.404	0.17
523.752	0.18
524.099	0.18
524.446	0.17
524.794	0.18
525.141	0.18
525.488	0.18
525.835	0.19
526.182	0.19
526.529	0.19
526.876	0.18
527.223	0.19
527.57	0.19
527.917	0.19
528.264	0.19
528.611	0.19
528.958	0.19
529.304	0.2
529.651	0.19
529.998	0.2
530.344	0.2
530.691	0.2
531.037	0.2
531.384	0.2
531.73	0.2
532.076	0.2
532.423	0.2
532.769	0.21
533.115	0.21
533.461	0.21
533.807	0.21
534.154	0.21
534.5	0.21
534.846	0.22
535.192	0.22
535.537	0.22
535.883	0.22
536.229	0.22
536.575	0.23
536.921	0.23
537.266	0.23
537.612	0.23
537.957	0.23
538.303	0.23
538.649	0.23
538.994	0.23
539.339	0.23
539.685	0.24
540.03	0.24
540.375	0.24
540.721	0.24
541.066	0.24
541.411	0.25
541.756	0.25
542.101	0.25
542.446	0.25
542.791	0.25
543.136	0.25
543.481	0.26
543.825	0.26
544.17	0.26
544.515	0.26
544.86	0.26
545.204	0.27
545.549	0.27
545.893	0.27
546.238	0.27
546.582	0.27
546.927	0.27
547.271	0.28
547.615	0.28
547.96	0.28
548.304	0.28
548.648	0.28
548.992	0.28
549.336	0.29
549.68	0.29
550.024	0.29
550.368	0.29
550.712	0.29
551.056	0.29
551.4	0.3
551.743	0.3
552.087	0.3
552.431	0.29
552.774	0.3
553.118	0.3
553.462	0.3
553.805	0.3
554.148	0.3
554.492	0.3
554.835	0.3
555.178	0.31
555.522	0.31
555.865	0.31
556.208	0.3
556.551	0.31
556.894	0.31
557.237	0.31
557.58	0.31
557.923	0.31
558.266	0.31
558.609	0.31
558.952	0.31
559.294	0.32
559.637	0.32
559.98	0.32
560.322	0.32
560.665	0.32
561.007	0.32
561.35	0.32
561.692	0.32
562.034	0.32
562.377	0.32
562.719	0.33
563.061	0.33
563.403	0.33
563.745	0.33
564.088	0.33
564.43	0.33
564.772	0.33
565.113	0.33
565.455	0.33
565.797	0.33
566.139	0.33
566.481	0.33
566.822	0.34
567.164	0.33
567.506	0.33
567.847	0.34
568.189	0.33
568.53	0.34
568.872	0.34
569.213	0.34
569.554	0.34
569.895	0.33
570.237	0.34
570.578	0.34
570.919	0.34
571.26	0.34
571.601	0.34
571.942	0.34
572.283	0.34
572.624	0.34
572.965	0.33
573.306	0.33
573.646	0.33
573.987	0.34
574.328	0.33
574.668	0.34
575.009	0.34
575.349	0.34
575.69	0.33
576.03	0.33
576.37	0.33
576.711	0.33
577.051	0.33
577.391	0.33
577.731	0.34
578.072	0.34
578.412	0.34
578.752	0.34
579.092	0.34
579.431	0.33
579.771	0.32
580.111	0.32
580.451	0.32
580.791	0.33
581.13	0.34
581.47	0.34
581.81	0.34
582.149	0.34
582.489	0.34
582.828	0.34
583.167	0.33
583.507	0.3
583.846	0.28
584.185	0.3
584.525	0.32
584.864	0.34
585.203	0.34
585.542	0.35
585.881	0.35
586.22	0.36
586.559	0.35
586.898	0.35
587.236	0.35
587.575	0.34
587.914	0.34
588.252	0.35
588.591	0.36
588.93	0.36
589.268	0.36
589.607	0.36
589.945	0.36
590.283	0.36
590.622	0.36
590.96	0.37
591.298	0.37
591.636	0.37
591.974	0.37
592.313	0.38
592.651	0.38
592.989	0.38
593.326	0.38
593.664	0.38
594.002	0.38
594.34	0.38
594.678	0.38
595.015	0.38
595.353	0.38
595.691	0.38
596.028	0.39
596.366	0.4
596.703	0.39
597.04	0.4
597.378	0.4
597.715	0.4
598.052	0.4
598.389	0.41
598.726	0.41
599.064	0.41
599.401	0.41
599.738	0.41
600.074	0.41
600.411	0.41
600.748	0.41
601.085	0.4
601.422	0.4
601.758	0.41
602.095	0.4
602.432	0.41
602.768	0.41
603.105	0.41
603.441	0.41
603.777	0.41
604.114	0.41
604.45	0.42
604.786	0.41
605.122	0.41
605.459	0.41
605.795	0.42
606.131	0.41
606.467	0.41
606.803	0.41
607.139	0.42
607.474	0.41
607.81	0.41
608.146	0.41
608.482	0.41
608.817	0.41
609.153	0.4
609.488	0.4
609.824	0.4
610.159	0.4
610.495	0.4
610.83	0.4
611.165	0.4
611.5	0.4
611.836	0.4
612.171	0.4
612.506	0.39
612.841	0.4
613.176	0.4
613.511	0.4
613.845	0.39
614.18	0.39
614.515	0.39
614.85	0.39
615.184	0.39
615.519	0.39
615.854	0.39
616.188	0.39
616.523	0.38
616.857	0.39
617.191	0.38
617.526	0.38
617.86	0.38
618.194	0.38
618.528	0.38
618.862	0.38
619.196	0.38
619.53	0.38
619.864	0.37
620.198	0.37
620.532	0.37
620.866	0.37
621.2	0.37
621.533	0.37
621.867	0.37
622.201	0.36
622.534	0.36
622.868	0.36
623.201	0.36
623.534	0.36
623.868	0.36
624.201	0.36
624.534	0.35
624.868	0.35
625.201	0.35
625.534	0.36
625.867	0.35
626.2	0.35
626.533	0.35
626.865	0.35
627.198	0.34
627.531	0.35
627.864	0.34
628.196	0.34
628.529	0.34
628.862	0.34
629.194	0.33
629.527	0.33
629.859	0.33
630.191	0.33
630.524	0.33
630.856	0.33
631.188	0.33
631.52	0.32
631.852	0.32
632.184	0.32
632.516	0.32
632.848	0.31
633.18	0.31
633.512	0.31
633.844	0.31
634.175	0.3
634.507	0.3
634.839	0.3
635.17	0.3
635.502	0.3
635.833	0.29
636.165	0.29
636.496	0.29
636.827	0.29
637.159	0.28
637.49	0.28
637.821	0.28
638.152	0.28
638.483	0.28
638.814	0.28
639.145	0.27
639.476	0.27
639.807	0.27
640.137	0.26
640.468	0.26
640.799	0.26
641.129	0.26
641.46	0.26
641.791	0.25
642.121	0.25
642.451	0.25
642.782	0.25
643.112	0.25
643.442	0.24
643.773	0.24
644.103	0.24
644.433	0.24
644.763	0.24
645.093	0.23
645.423	0.23
645.753	0.23
646.082	0.23
646.412	0.23
646.742	0.23
647.072	0.23
647.401	0.23
647.731	0.23
648.06	0.23
648.39	0.23
648.719	0.23
649.048	0.22
649.378	0.22
649.707	0.22
650.036	0.22
650.365	0.22
650.694	0.22
651.023	0.22
651.352	0.22
651.681	0.22
652.01	0.22
652.339	0.22
652.668	0.22
652.996	0.21
653.325	0.22
653.654	0.21
653.982	0.22
654.311	0.22
654.639	0.21
654.967	0.22
655.296	0.22
655.624	0.22
655.952	0.21
656.28	0.21
656.609	0.21
656.937	0.22
657.265	0.22
657.593	0.18
657.92	0.06
658.248	0.01
658.576	0.01
658.904	0.08
659.231	0.17
659.559	0.21
659.887	0.21
660.214	0.21
660.542	0.21
660.869	0.21
661.196	0.21
661.524	0.21
661.851	0.21
662.178	0.21
662.505	0.21
662.832	0.2
663.159	0.2
663.486	0.2
663.813	0.2
664.14	0.21
664.467	0.2
664.794	0.2
665.12	0.2
665.447	0.21
665.774	0.2
666.1	0.2
666.427	0.2
666.753	0.2
667.079	0.2
667.406	0.2
667.732	0.2
668.058	0.2
668.384	0.2
668.71	0.2
669.036	0.2
669.362	0.2
669.688	0.2
670.014	0.2
670.34	0.2
670.666	0.2
670.991	0.19
671.317	0.2
671.643	0.19
671.968	0.19
672.294	0.19
672.619	0.19
672.945	0.19
673.27	0.19
673.595	0.19
673.92	0.19
674.246	0.18
674.571	0.18
674.896	0.18
675.221	0.18
675.546	0.18
675.87	0.18
676.195	0.18
676.52	0.18
676.845	0.17
677.169	0.17
677.494	0.17
677.819	0.17
678.143	0.17
678.468	0.17
678.792	0.16
679.116	0.17
679.44	0.16
679.765	0.16
680.089	0.16
680.413	0.16
680.737	0.16
681.061	0.16
681.385	0.15
681.709	0.15
682.033	0.15
682.356	0.15
682.68	0.15
683.004	0.14
683.327	0.14
683.651	0.14
683.974	0.14
684.298	0.14
684.621	0.14
684.944	0.13
685.268	0.14
685.591	0.13
685.914	0.13
686.237	0.13
686.56	0.13
686.883	0.13
687.206	0.13
687.529	0.12
687.852	0.12
688.175	0.12
688.497	0.12
688.82	0.12
689.142	0.12
689.465	0.12
689.787	0.12
690.11	0.12
690.432	0.11
690.755	0.11
691.077	0.11
691.399	0.11
691.721	0.11
692.043	0.11
692.365	0.11
692.687	0.1
693.009	0.1
693.331	0.1
693.653	0.1
693.974	0.1
694.296	0.1
694.618	0.1
694.939	0.1
695.261	0.1
695.582	0.1
695.904	0.1
696.225	0.09
696.546	0.09
696.868	0.09
697.189	0.09
697.51	0.09
697.831	0.09
698.152	0.09
698.473	0.09
698.794	0.08
699.114	0.08
699.435	0.08
699.756	0.08
700.077	0.08
700.397	0.08
700.718	0.08
701.038	0.08
701.359	0.08
701.679	0.08
701.999	0.08
702.32	0.08
702.64	0.08
702.96	0.08
703.28	0.08
703.6	0.08
703.92	0.08
704.24	0.08
704.56	0.08
704.879	0.07
705.199	0.07
705.519	0.07
705.838	0.07
706.158	0.07
706.478	0.07
706.797	0.07
707.116	0.07
707.436	0.07
707.755	0.07
708.074	0.07
708.393	0.07
708.712	0.07
709.031	0.07
709.35	0.07
709.669	0.07
709.988	0.07
710.307	0.07
710.626	0.07
710.944	0.07
711.263	0.07
711.582	0.06
711.9	0.06
712.219	0.07
712.537	0.06
712.855	0.06
713.174	0.06
713.492	0.06
713.81	0.06
714.128	0.06
714.446	0.06
714.764	0.06
715.082	0.06
715.4	0.06
715.718	0.06
716.035	0.06
716.353	0.06
716.671	0.06
716.988	0.06
717.306	0.06
717.623	0.06
717.941	0.07
718.258	0.07
718.575	0.07
718.893	0.07
719.21	0.07
719.527	0.07
719.844	0.07
720.161	0.07
720.478	0.07
720.795	0.07
721.112	0.07
721.428	0.07
721.745	0.07
722.062	0.07
722.378	0.07
722.695	0.07
723.011	0.07
723.328	0.07
723.644	0.07
723.96	0.07
724.276	0.07
724.593	0.07
724.909	0.07
725.225	0.07
725.541	0.07
725.857	0.07
726.173	0.07
726.488	0.07
726.804	0.07
727.12	0.07
727.435	0.08
727.751	0.08
728.067	0.08
728.382	0.08
728.697	0.07
729.013	0.08
729.328	0.08
729.643	0.08
729.958	0.08
730.273	0.08
730.588	0.08
730.903	0.07
731.218	0.08
731.533	0.08
731.848	0.08
732.163	0.08
732.477	0.08
732.792	0.07
733.107	0.07
733.421	0.08
733.736	0.08
734.05	0.08
734.364	0.08
734.678	0.08
734.993	0.08
735.307	0.08
735.621	0.08
735.935	0.08
736.249	0.07
736.563	0.07
736.877	0.07
737.19	0.08
737.504	0.07
737.818	0.07
738.131	0.07
738.445	0.07
738.758	0.07
739.072	0.07
739.385	0.07
739.698	0.07
740.012	0.07
740.325	0.07
740.638	0.07
740.951	0.07
741.264	0.07
741.577	0.07
741.89	0.07
742.203	0.07
742.515	0.07
742.828	0.07
743.141	0.07
743.453	0.07
743.766	0.07
744.078	0.07
744.391	0.07
744.703	0.07
745.015	0.07
745.327	0.07
745.639	0.07
745.952	0.06
746.264	0.07
746.575	0.07
746.887	0.07
747.199	0.07
747.511	0.06
747.823	0.06
748.134	0.06
748.446	0.06
748.757	0.06
749.069	0.06
749.38	0.06
749.692	0.06
750.003	0.06
750.314	0.06
750.625	0.06
750.936	0.06
751.248	0.05
751.559	0.06
751.869	0.06
752.18	0.05
752.491	0.05
752.802	0.05
753.112	0.05
753.423	0.05
753.734	0.05
754.044	0.05
754.355	0.05
754.665	0.05
754.975	0.05
755.285	0.04
755.596	0.04
755.906	0.04
756.216	0.04
756.526	0.04
756.836	0.04
757.146	0.04
757.455	0.04
757.765	0.04
758.075	0.04
758.385	0.04
758.694	0.04
759.004	0.04
759.313	0.04
759.622	0.04
759.932	0.04
760.241	0.04
760.55	0.04
760.859	0.04
761.168	0.04
761.477	0.03
761.786	0.04
762.095	0.03
762.404	0.03
762.713	0.03
763.021	0.03
763.33	0.03
763.639	0.03
763.947	0.03
764.256	0.03
764.564	0.03
764.872	0.03
765.181	0.03
765.489	0.02
765.797	0.03
766.105	0.03
766.413	0.03
766.721	0.03
767.029	0.02
767.337	0.03
767.644	0.03
767.952	0.03
768.26	0.03
768.567	0.03
768.875	0.03
769.182	0.02
769.49	0.02
769.797	0.02
770.104	0.02
770.411	0.02
770.718	0.02
771.026	0.02
771.333	0.02
771.639	0.02
771.946	0.02
772.253	0.02
772.56	0.02
772.867	0.02
773.173	0.02
773.48	0.02
773.786	0.02
774.093	0.02
774.399	0.02
774.705	0.02
775.012	0.01
775.318	0.01
775.624	0.01
775.93	0.01
776.236	0.02
776.542	0.02
776.848	0.02
777.154	0.02
777.459	0.02
777.765	0.02
778.071	0.02
778.376	0.02
778.682	0.02
778.987	0.01
779.292	0.02
779.598	0.02
779.903	0.02
780.208	0.02
780.513	0.02
780.818	0.02
781.123	0.02
781.428	0.02
781.733	0.02
782.038	0.02
782.343	0.02
782.647	0.02
782.952	0.02
783.256	0.02
783.561	0.02
783.865	0.02
784.17	0.02
784.474	0.02
784.778	0.02
785.082	0.02
785.386	0.02
785.69	0.02
785.994	0.02
786.298	0.02
786.602	0.02
786.906	0.02
787.209	0.02
787.513	0.02
787.817	0.02
788.12	0.02
788.424	0.02
788.727	0.02
789.03	0.02
789.333	0.02
789.637	0.02
789.94	0.02
790.243	0.03
790.546	0.02
790.849	0.02
791.152	0.02
791.454	0.02
791.757	0.02
792.06	0.02
792.362	0.02
792.665	0.02
792.967	0.02
793.27	0.02
793.572	0.02
793.874	0.01
794.177	0.01
794.479	0.01
794.781	0.01
795.083	0.02
795.385	0.02
795.687	0.02
795.989	0.02
796.29	0.02
796.592	0.02
796.894	0.02
797.195	0.02
797.497	0.02
797.798	0.02
798.1	0.02
798.401	0.02
798.702	0.02
799.003	0.02
799.304	0.02
799.605	0.02
799.906	0.02
800.207	0.02
800.508	0.02
800.809	0.02
801.11	0.02
801.41	0.02
801.711	0.02
802.011	0.03
802.312	0.02
802.612	0.02
802.913	0.02
803.213	0.03
803.513	0.03
803.813	0.03
804.113	0.03
804.413	0.03
804.713	0.04
805.013	0.03
805.313	0.03
805.613	0.03
805.912	0.03
806.212	0.03
806.511	0.03
806.811	0.03
807.11	0.03
807.41	0.03
807.709	0.03
808.008	0.02
808.307	0.02
808.606	0.02
808.905	0.02
809.204	0.02
809.503	0.02
809.802	0.02
810.101	0.02
810.399	0.02
810.698	0.02
810.997	0.02
811.295	0.02
811.593	0.02
811.892	0.02
812.19	0.02
812.488	0.02
812.786	0.02
813.084	0.02
813.383	0.02
813.68	0.02
813.978	0.02
814.276	0.01
814.574	0.02
814.872	0.01
815.169	0.02
815.467	0.01
815.764	0.02
816.062	0.02
816.359	0.02
816.656	0.02
816.954	0.01
817.251	0.02
817.548	0.01
817.845	0.02
818.142	0.02
818.439	0.02
818.735	0.02
819.032	0.02
819.329	0.02
819.626	0.02
819.922	0.02
820.219	0.02
820.515	0.02
820.811	0.02
821.108	0.01
821.404	0.01
821.7	0.01
821.996	0.02
822.292	0.02
822.588	0.02
822.884	0.02
823.18	0.02
823.475	0.02
823.771	0.02
824.067	0.02
824.362	0.03
824.658	0.03
824.953	0.03
825.249	0.03
825.544	0.03
825.839	0.03
826.134	0.03
826.429	0.03
826.724	0.02
827.019	0.02
827.314	0.02
827.609	0.02
827.904	0.02
828.198	0.02
828.493	0.02
828.787	0.02
829.082	0.02
829.376	0.02
829.671	0.02
829.965	0.02
830.259	0.02
830.553	0.02
830.847	0.02
831.141	0.02
831.435	0.01
831.729	0.02
832.023	0.03
832.317	0.02
832.61	0.03
832.904	0.01
833.197	0.02
833.491	0.03
833.784	0.02
834.077	0.02
834.371	0.03
834.664	0.02
834.957	0.02
835.25	0.02
835.543	0.02
835.836	0.03
836.129	0.03
836.421	0.02
836.714	0.03
837.007	0.03
837.299	0.03
837.592	0.04
837.884	0.03
838.177	0.03
838.469	0.02
838.761	0.02
839.053	0.03
839.345	0.03
839.637	0.03
839.929	0.03
840.221	0.03
840.513	0.02
840.805	0.03
841.096	0.03
841.388	0.02
841.68	0.02
841.971	0.02
842.262	0.03
842.554	0.02
842.845	0.02
843.136	0.02
843.427	0.02
843.718	0.02
844.009	0.01
844.3	0.02
844.591	0.02
844.882	0.02
845.173	0.02
845.463	0.02
845.754	0.02
846.044	0.02
846.335	0.02
846.625	0.03
846.915	0.02
847.206	0.02
847.496	0.02
847.786	0.02
848.076	0.03
848.366	0.03
848.656	0.03
848.945	0.02
849.235	0.04
849.525	0.03
849.814	0.03
850.104	0.03
850.393	0.03
850.683	0.02
850.972	0.03
851.261	0.02
851.551	0.03
851.84	0.03
852.129	0.01
852.418	0.02
852.707	0.01
852.995	0.03
853.284	0.01
853.573	0.02
853.862	0.01
854.15	0.01
854.439	0.03
854.727	0.02
855.015	0.03
855.304	0.02
855.592	0.02
855.88	0.03
856.168	0.03
856.456	0.02
856.744	0.02
857.032	0.03
857.32	0.01
857.607	0.04
857.895	0.02
858.183	0.03
858.47	0.02
858.757	0.01
859.045	0.03
859.332	0.03
859.619	0.02
859.907	0.02
860.194	0.01
860.481	0.02
860.768	0.02
861.054	0.01
861.341	0.03
861.628	0.03
861.915	0.03
862.201	0.04
862.488	0.03
862.774	0.01
863.061	0.01
863.347	0.02
863.633	0.02
863.919	0.02
864.205	0.04
864.491	0.04
864.777	0.03
865.063	0.01
865.349	0.02
865.635	-0
865.92	0.01
866.206	0.02
866.492	0.03
866.777	0.03
867.062	0
867.348	0.01
867.633	0
867.918	0.03
868.203	0.02
868.488	0
868.773	0.02
869.058	0.02
869.343	0.02
869.628	0.03
869.912	-0
870.197	0
870.482	0.04
870.766	0.05
871.05	0.01
871.335	0.02
871.619	0.02
871.903	0.05
872.187	0.04
872.471	0
872.755	0.01
873.039	0.02
873.323	0.04
873.607	0.03
873.89	-0.01
874.174	0.04
874.458	-0.01
874.741	0
875.024	0.03
875.308	-0.02
875.591	-0
875.874	-0.01
876.157	0
876.44	0.02
876.723	0.05
877.006	0.05
877.289	0.06
877.572	-0.02
877.854	0.03
878.137	0.04
878.42	0.02
878.702	0.05
878.984	-0
879.267	0.05
879.549	0.08
879.831	0.09
880.113	0.03
880.395	0.06
880.677	0.06
880.959	-0.04
