Data from Rubpy_EV_1500_EDTA_Buffered_Absorbance_14-57-14-046.txt Node
Date: Tue Jun 30 14:57:14 BST 2026
User: fpm-admin
Spectrometer: OFX00224
Trigger mode: 0
Integration Time (sec): 7.000000E-2
Scans to average: 3
Nonlinearity correction enabled: false
Boxcar width: 0
Storing dark spectrum: false
XAxis mode: Wavelengths
Number of Pixels in Spectrum: 2136
>>>>>Begin Spectral Data<<<<<
154.91	0.2
155.289	-0.35
155.669	-0
156.048	0.22
156.428	-0
156.807	0.87
157.186	-0.49
157.566	-0
157.945	-0.18
158.325	-0.95
158.704	-0
159.083	1.3
159.462	-0.51
159.842	-0
160.221	-0
160.6	-0
160.979	0.58
161.359	0.3
161.738	-0
162.117	-0.42
162.496	-0
162.875	-0
163.254	-0.44
163.633	0.23
164.012	0.5
164.391	0.9
164.77	0.4
165.149	-0.02
165.528	-0
165.907	-0
166.286	-0.35
166.665	-0
167.044	0.14
167.423	0.13
167.802	-0
168.181	0.72
168.559	-0.44
168.938	0.66
169.317	-0.65
169.696	-0.1
170.074	0.01
170.453	-0.95
170.832	-0
171.21	-0.16
171.589	-0
171.968	0.5
172.346	-0
172.725	-0
173.103	-0.12
173.482	-0.18
173.861	-0.52
174.239	0.8
174.617	0.13
174.996	-0.38
175.374	-0
175.753	-0.09
176.131	0.23
176.51	0.16
176.888	-0
177.266	-0
177.645	0.03
178.023	-0
178.401	-0.32
178.779	-0.17
179.158	-0
179.536	-0
179.914	0.26
180.292	0.43
180.67	0.29
181.048	-0
181.427	-0.03
181.805	0.06
182.183	-0
182.561	0.24
182.939	-0.95
183.317	-0
183.695	0.35
184.073	-0.06
184.451	-0
184.829	-0.56
185.206	-0.06
185.584	0.48
185.962	-0.44
186.34	0.1
186.718	-0
187.096	-0
187.473	-0
187.851	0.15
188.229	-0.2
188.607	0.27
188.984	0.19
189.362	0.18
189.74	0.15
190.117	0.35
190.495	0.13
190.872	0.2
191.25	0.24
191.627	0.17
192.005	0.19
192.382	0.24
192.76	0.18
193.137	0.09
193.515	0.24
193.892	0.17
194.269	0.22
194.647	0.1
195.024	0.15
195.401	0.12
195.779	0.21
196.156	0.15
196.533	0.22
196.91	0.01
197.288	0.13
197.665	0.07
198.042	0.04
198.419	0.13
198.796	0.1
199.173	0.12
199.55	0.16
199.927	0.23
200.304	0.15
200.681	0.2
201.058	0.22
201.435	0.12
201.812	0.21
202.189	0.15
202.566	0.2
202.943	0.06
203.32	0.27
203.697	0.2
204.073	0.18
204.45	0.13
204.827	0.28
205.204	0.3
205.58	0.13
205.957	0.1
206.334	0.18
206.71	0.11
207.087	0.23
207.464	0.16
207.84	0.2
208.217	0.17
208.593	0.18
208.97	0.17
209.346	0.27
209.723	0.1
210.099	0.16
210.476	0.19
210.852	0.24
211.228	0.03
211.605	0.16
211.981	0.16
212.357	0.23
212.733	0.23
213.11	0.26
213.486	0.1
213.862	0.23
214.238	0.12
214.614	0.29
214.991	0.2
215.367	0.26
215.743	0.23
216.119	0.16
216.495	0.22
216.871	0.31
217.247	0.07
217.623	0.17
217.999	0.15
218.375	0.27
218.751	0.1
219.127	0.2
219.502	0.11
219.878	0.1
220.254	0.14
220.63	0.18
221.006	0.23
221.381	0.23
221.757	0.17
222.133	0.4
222.508	0.15
222.884	0.06
223.26	0.24
223.635	0.17
224.011	0.16
224.386	0.1
224.762	0.21
225.137	0.16
225.513	0.15
225.888	0.2
226.264	0.17
226.639	0.25
227.014	0.15
227.39	0.18
227.765	0.29
228.14	0.17
228.516	0.21
228.891	0.22
229.266	0.18
229.641	0.45
230.017	0.15
230.392	0.17
230.767	0.22
231.142	0.23
231.517	0.26
231.892	0.31
232.267	0.21
232.642	0.28
233.017	0.19
233.392	0.28
233.767	0.27
234.142	0.19
234.517	0.14
234.892	0.16
235.267	0.22
235.641	0.28
236.016	0.12
236.391	0.08
236.766	0.12
237.14	0.17
237.515	0.2
237.89	0.25
238.264	0.14
238.639	0.25
239.014	0.16
239.388	0.14
239.763	0.24
240.137	0.2
240.512	0.14
240.886	0.14
241.261	0.19
241.635	0.23
242.009	0.12
242.384	0.26
242.758	0.17
243.132	0.14
243.507	0.2
243.881	0.17
244.255	0.21
244.629	0.17
245.004	0.09
245.378	0.17
245.752	0.22
246.126	0.26
246.5	0.27
246.874	0.19
247.248	0.12
247.622	0.31
247.996	0.28
248.37	0.1
248.744	0.2
249.118	0.15
249.492	0.3
249.866	0.13
250.24	0.18
250.613	0.16
250.987	0.12
251.361	0.24
251.735	0.16
252.108	0.2
252.482	0.15
252.856	0.17
253.229	0.17
253.603	0.29
253.977	0.28
254.35	0.25
254.724	0.16
255.097	0.19
255.471	0.23
255.844	0.29
256.218	0.26
256.591	0.15
256.964	0.26
257.338	0.22
257.711	0.2
258.084	0.25
258.458	0.17
258.831	0.14
259.204	0.18
259.577	0.28
259.95	0.19
260.323	0.15
260.697	0.21
261.07	0.25
261.443	0.16
261.816	0.21
262.189	0.19
262.562	0.23
262.935	0.16
263.308	0.15
263.68	0.12
264.053	0.28
264.426	0.16
264.799	0.22
265.172	0.13
265.545	0.27
265.917	0.14
266.29	0.19
266.663	0.23
267.035	0.2
267.408	0.23
267.781	0.25
268.153	0.25
268.526	0.28
268.898	0.24
269.271	0.21
269.643	0.17
270.016	0.2
270.388	0.19
270.76	0.22
271.133	0.21
271.505	0.2
271.877	0.24
272.25	0.18
272.622	0.26
272.994	0.19
273.366	0.2
273.739	0.19
274.111	0.16
274.483	0.21
274.855	0.18
275.227	0.16
275.599	0.17
275.971	0.29
276.343	0.18
276.715	0.14
277.087	0.19
277.459	0.13
277.831	0.16
278.203	0.21
278.574	0.2
278.946	0.22
279.318	0.17
279.69	0.18
280.061	0.16
280.433	0.21
280.805	0.14
281.176	0.25
281.548	0.18
281.92	0.18
282.291	0.13
282.663	0.2
283.034	0.2
283.406	0.12
283.777	0.27
284.148	0.14
284.52	0.24
284.891	0.14
285.262	0.18
285.634	0.18
286.005	0.21
286.376	0.15
286.747	0.1
287.119	0.2
287.49	0.1
287.861	0.12
288.232	0.12
288.603	0.21
288.974	0.19
289.345	0.14
289.716	0.26
290.087	0.2
290.458	0.16
290.829	0.29
291.2	0.17
291.571	0.16
291.941	0.14
292.312	0.19
292.683	0.2
293.054	0.21
293.424	0.1
293.795	0.2
294.166	0.18
294.536	0.19
294.907	0.1
295.277	0.2
295.648	0.22
296.018	0.21
296.389	0.17
296.759	0.13
297.13	0.18
297.5	0.16
297.871	0.22
298.241	0.15
298.611	0.23
298.981	0.15
299.352	0.18
299.722	0.16
300.092	0.13
300.462	0.13
300.832	0.17
301.202	0.18
301.573	0.14
301.943	0.16
302.313	0.14
302.683	0.12
303.053	0.17
303.422	0.16
303.792	0.14
304.162	0.16
304.532	0.14
304.902	0.14
305.272	0.14
305.641	0.15
306.011	0.15
306.381	0.13
306.75	0.15
307.12	0.14
307.49	0.14
307.859	0.15
308.229	0.14
308.598	0.15
308.968	0.15
309.337	0.16
309.707	0.15
310.076	0.15
310.445	0.16
310.815	0.16
311.184	0.15
311.553	0.17
311.923	0.16
312.292	0.16
312.661	0.16
313.03	0.16
313.399	0.17
313.768	0.16
314.137	0.16
314.506	0.16
314.875	0.16
315.244	0.16
315.613	0.16
315.982	0.16
316.351	0.16
316.72	0.16
317.089	0.16
317.458	0.15
317.826	0.16
318.195	0.15
318.564	0.16
318.933	0.15
319.301	0.14
319.67	0.14
320.038	0.15
320.407	0.15
320.775	0.14
321.144	0.14
321.512	0.14
321.881	0.14
322.249	0.14
322.618	0.14
322.986	0.14
323.354	0.14
323.723	0.14
324.091	0.14
324.459	0.14
324.827	0.13
325.195	0.13
325.564	0.13
325.932	0.13
326.3	0.13
326.668	0.13
327.036	0.13
327.404	0.13
327.772	0.13
328.14	0.13
328.508	0.14
328.875	0.13
329.243	0.13
329.611	0.14
329.979	0.13
330.346	0.14
330.714	0.14
331.082	0.13
331.449	0.14
331.817	0.14
332.185	0.14
332.552	0.14
332.92	0.15
333.287	0.15
333.655	0.15
334.022	0.15
334.389	0.15
334.757	0.15
335.124	0.15
335.491	0.16
335.859	0.15
336.226	0.16
336.593	0.16
336.96	0.16
337.327	0.16
337.695	0.17
338.062	0.17
338.429	0.17
338.796	0.18
339.163	0.18
339.53	0.18
339.897	0.18
340.263	0.18
340.63	0.19
340.997	0.19
341.364	0.19
341.731	0.2
342.097	0.2
342.464	0.21
342.831	0.21
343.197	0.21
343.564	0.21
343.931	0.22
344.297	0.22
344.664	0.22
345.03	0.22
345.396	0.23
345.763	0.23
346.129	0.24
346.496	0.24
346.862	0.24
347.228	0.24
347.594	0.25
347.961	0.25
348.327	0.26
348.693	0.26
349.059	0.26
349.425	0.27
349.791	0.27
350.157	0.27
350.523	0.28
350.889	0.29
351.255	0.3
351.621	0.3
351.987	0.3
352.353	0.31
352.719	0.31
353.084	0.32
353.45	0.33
353.816	0.33
354.181	0.34
354.547	0.34
354.913	0.35
355.278	0.36
355.644	0.36
356.009	0.37
356.375	0.38
356.74	0.39
357.106	0.4
357.471	0.41
357.836	0.41
358.202	0.42
358.567	0.43
358.932	0.43
359.297	0.44
359.663	0.45
360.028	0.46
360.393	0.46
360.758	0.47
361.123	0.47
361.488	0.48
361.853	0.48
362.218	0.49
362.583	0.49
362.948	0.5
363.312	0.5
363.677	0.51
364.042	0.52
364.407	0.52
364.772	0.54
365.136	0.54
365.501	0.56
365.865	0.57
366.23	0.58
366.595	0.59
366.959	0.59
367.324	0.61
367.688	0.61
368.052	0.62
368.417	0.64
368.781	0.64
369.145	0.65
369.51	0.66
369.874	0.66
370.238	0.66
370.602	0.66
370.967	0.66
371.331	0.65
371.695	0.64
372.059	0.65
372.423	0.64
372.787	0.63
373.151	0.63
373.515	0.64
373.878	0.63
374.242	0.63
374.606	0.63
374.97	0.63
375.334	0.63
375.697	0.63
376.061	0.64
376.425	0.64
376.788	0.65
377.152	0.64
377.515	0.65
377.879	0.66
378.242	0.67
378.606	0.67
378.969	0.68
379.333	0.68
379.696	0.69
380.059	0.7
380.422	0.71
380.786	0.72
381.149	0.74
381.512	0.75
381.875	0.76
382.238	0.78
382.601	0.8
382.964	0.82
383.327	0.83
383.69	0.86
384.053	0.88
384.416	0.9
384.779	0.91
385.142	0.94
385.504	0.95
385.867	0.97
386.23	0.97
386.593	0.98
386.955	0.98
387.318	0.99
387.68	0.98
388.043	0.98
388.405	0.97
388.768	0.97
389.13	0.96
389.493	0.95
389.855	0.94
390.217	0.94
390.58	0.94
390.942	0.94
391.304	0.95
391.666	0.95
392.028	0.97
392.391	0.99
392.753	1.01
393.115	1.05
393.477	1.08
393.839	1.12
394.201	1.16
394.563	1.21
394.924	1.26
395.286	1.29
395.648	1.34
396.01	1.38
396.371	1.4
396.733	1.42
397.095	1.44
397.456	1.44
397.818	1.42
398.18	1.43
398.541	1.42
398.903	1.41
399.264	1.37
399.625	1.33
399.987	1.28
400.348	1.22
400.709	1.16
401.071	1.11
401.432	1.04
401.793	0.97
402.154	0.92
402.515	0.86
402.876	0.8
403.238	0.74
403.599	0.7
403.96	0.64
404.32	0.59
404.681	0.55
405.042	0.53
405.403	0.48
405.764	0.45
406.125	0.41
406.485	0.39
406.846	0.37
407.207	0.34
407.567	0.32
407.928	0.3
408.288	0.28
408.649	0.27
409.009	0.26
409.37	0.24
409.73	0.24
410.091	0.22
410.451	0.21
410.811	0.2
411.171	0.19
411.532	0.18
411.892	0.18
412.252	0.17
412.612	0.16
412.972	0.16
413.332	0.16
413.692	0.14
414.052	0.14
414.412	0.14
414.772	0.14
415.132	0.13
415.492	0.13
415.851	0.12
416.211	0.12
416.571	0.11
416.931	0.11
417.29	0.11
417.65	0.11
418.009	0.1
418.369	0.1
418.728	0.1
419.088	0.1
419.447	0.09
419.807	0.09
420.166	0.09
420.525	0.09
420.884	0.09
421.244	0.09
421.603	0.09
421.962	0.09
422.321	0.08
422.68	0.08
423.039	0.08
423.398	0.08
423.757	0.08
424.116	0.08
424.475	0.08
424.834	0.08
425.193	0.07
425.551	0.06
425.91	0.07
426.269	0.07
426.628	0.07
426.986	0.07
427.345	0.07
427.703	0.07
428.062	0.07
428.42	0.06
428.779	0.07
429.137	0.07
429.496	0.06
429.854	0.07
430.212	0.06
430.57	0.06
430.929	0.06
431.287	0.07
431.645	0.06
432.003	0.06
432.361	0.06
432.719	0.06
433.077	0.05
433.435	0.06
433.793	0.06
434.151	0.05
434.509	0.06
434.866	0.05
435.224	0.05
435.582	0.05
435.94	0.06
436.297	0.06
436.655	0.06
437.012	0.06
437.37	0.06
437.727	0.05
438.085	0.05
438.442	0.06
438.8	0.05
439.157	0.05
439.514	0.05
439.872	0.04
440.229	0.05
440.586	0.05
440.943	0.05
441.3	0.05
441.657	0.04
442.014	0.05
442.371	0.05
442.728	0.05
443.085	0.04
443.442	0.05
443.799	0.05
444.156	0.05
444.513	0.04
444.869	0.04
445.226	0.04
445.583	0.04
445.939	0.04
446.296	0.04
446.652	0.04
447.009	0.05
447.365	0.03
447.722	0.04
448.078	0.04
448.434	0.04
448.791	0.03
449.147	0.03
449.503	0.02
449.859	0.04
450.215	0.04
450.571	0.04
450.928	0.03
451.284	0.03
451.64	0.03
451.995	0.04
452.351	0.03
452.707	0.02
453.063	0.03
453.419	0.02
453.775	0.02
454.13	0.02
454.486	0.02
454.842	0.01
455.197	0.02
455.553	0.01
455.908	0.02
456.264	0.01
456.619	0.01
456.975	0.02
457.33	0.01
457.685	0.01
458.04	0
458.396	0.01
458.751	0
459.106	0
459.461	-0
459.816	0
460.171	-0.01
460.526	-0.01
460.881	-0.01
461.236	-0.02
461.591	-0.01
461.946	-0.03
462.301	-0.01
462.655	-0.01
463.01	-0.02
463.365	-0.02
463.719	-0.02
464.074	-0.03
464.428	-0.04
464.783	-0.03
465.137	-0.04
465.492	-0.04
465.846	-0.03
466.201	-0.03
466.555	-0.04
466.909	-0.03
467.263	-0.03
467.618	-0.03
467.972	-0.03
468.326	-0.04
468.68	-0.04
469.034	-0.04
469.388	-0.04
469.742	-0.04
470.096	-0.04
470.45	-0.03
470.804	-0.03
471.157	-0.03
471.511	-0.04
471.865	-0.03
472.218	-0.03
472.572	-0.03
472.926	-0.02
473.279	-0.02
473.633	-0.02
473.986	-0.02
474.34	-0.02
474.693	-0.01
475.046	-0.01
475.4	-0
475.753	-0
476.106	-0
476.459	0
476.812	0.01
477.165	0.01
477.519	0.01
477.872	0.01
478.224	0.02
478.577	0.02
478.93	0.03
479.283	0.02
479.636	0.03
479.989	0.03
480.341	0.04
480.694	0.03
481.047	0.04
481.399	0.04
481.752	0.04
482.104	0.05
482.457	0.05
482.809	0.05
483.162	0.05
483.514	0.05
483.866	0.05
484.219	0.05
484.571	0.05
484.923	0.06
485.275	0.06
485.627	0.06
485.979	0.06
486.331	0.06
486.683	0.06
487.035	0.07
487.387	0.07
487.739	0.07
488.091	0.07
488.443	0.07
488.794	0.07
489.146	0.08
489.498	0.08
489.849	0.07
490.201	0.08
490.552	0.08
490.904	0.08
491.255	0.08
491.607	0.08
491.958	0.08
492.309	0.08
492.661	0.08
493.012	0.08
493.363	0.09
493.714	0.09
494.065	0.08
494.416	0.09
494.767	0.09
495.118	0.09
495.469	0.09
495.82	0.09
496.171	0.1
496.522	0.1
496.872	0.1
497.223	0.1
497.574	0.11
497.924	0.11
498.275	0.11
498.626	0.1
498.976	0.11
499.327	0.11
499.677	0.11
500.027	0.11
500.378	0.11
500.728	0.12
501.078	0.11
501.428	0.12
501.779	0.11
502.129	0.12
502.479	0.12
502.829	0.12
503.179	0.12
503.529	0.12
503.879	0.12
504.229	0.13
504.578	0.13
504.928	0.13
505.278	0.13
505.628	0.14
505.977	0.14
506.327	0.14
506.676	0.14
507.026	0.14
507.375	0.14
507.725	0.14
508.074	0.14
508.424	0.14
508.773	0.14
509.122	0.15
509.471	0.15
509.82	0.15
510.17	0.15
510.519	0.15
510.868	0.15
511.217	0.15
511.566	0.16
511.915	0.15
512.263	0.16
512.612	0.16
512.961	0.16
513.31	0.16
513.659	0.16
514.007	0.16
514.356	0.17
514.704	0.17
515.053	0.17
515.401	0.17
515.75	0.17
516.098	0.17
516.447	0.18
516.795	0.18
517.143	0.17
517.491	0.18
517.839	0.18
518.188	0.18
518.536	0.18
518.884	0.18
519.232	0.18
519.58	0.19
519.928	0.18
520.275	0.19
520.623	0.19
520.971	0.19
521.319	0.19
521.666	0.19
522.014	0.19
522.362	0.2
522.709	0.2
523.057	0.2
523.404	0.2
523.752	0.21
524.099	0.2
524.446	0.2
524.794	0.2
525.141	0.21
525.488	0.21
525.835	0.21
526.182	0.22
526.529	0.22
526.876	0.21
527.223	0.22
527.57	0.22
527.917	0.22
528.264	0.22
528.611	0.22
528.958	0.22
529.304	0.22
529.651	0.23
529.998	0.23
530.344	0.23
530.691	0.23
531.037	0.23
531.384	0.23
531.73	0.23
532.076	0.23
532.423	0.23
532.769	0.24
533.115	0.24
533.461	0.25
533.807	0.24
534.154	0.25
534.5	0.25
534.846	0.25
535.192	0.25
535.537	0.25
535.883	0.25
536.229	0.26
536.575	0.26
536.921	0.26
537.266	0.26
537.612	0.27
537.957	0.27
538.303	0.27
538.649	0.27
538.994	0.27
539.339	0.27
539.685	0.27
540.03	0.27
540.375	0.28
540.721	0.28
541.066	0.28
541.411	0.29
541.756	0.29
542.101	0.28
542.446	0.29
542.791	0.29
543.136	0.29
543.481	0.29
543.825	0.3
544.17	0.3
544.515	0.3
544.86	0.3
545.204	0.31
545.549	0.31
545.893	0.31
546.238	0.31
546.582	0.31
546.927	0.32
547.271	0.32
547.615	0.32
547.96	0.32
548.304	0.32
548.648	0.32
548.992	0.32
549.336	0.33
549.68	0.33
550.024	0.33
550.368	0.33
550.712	0.34
551.056	0.34
551.4	0.34
551.743	0.34
552.087	0.34
552.431	0.34
552.774	0.34
553.118	0.35
553.462	0.35
553.805	0.35
554.148	0.35
554.492	0.35
554.835	0.35
555.178	0.35
555.522	0.35
555.865	0.36
556.208	0.36
556.551	0.36
556.894	0.36
557.237	0.36
557.58	0.36
557.923	0.36
558.266	0.36
558.609	0.36
558.952	0.36
559.294	0.37
559.637	0.37
559.98	0.37
560.322	0.37
560.665	0.37
561.007	0.37
561.35	0.38
561.692	0.38
562.034	0.38
562.377	0.38
562.719	0.38
563.061	0.38
563.403	0.38
563.745	0.38
564.088	0.38
564.43	0.38
564.772	0.38
565.113	0.38
565.455	0.38
565.797	0.38
566.139	0.38
566.481	0.39
566.822	0.39
567.164	0.39
567.506	0.39
567.847	0.39
568.189	0.39
568.53	0.39
568.872	0.39
569.213	0.39
569.554	0.39
569.895	0.39
570.237	0.39
570.578	0.39
570.919	0.39
571.26	0.39
571.601	0.39
571.942	0.39
572.283	0.39
572.624	0.39
572.965	0.39
573.306	0.39
573.646	0.39
573.987	0.39
574.328	0.39
574.668	0.39
575.009	0.39
575.349	0.39
575.69	0.39
576.03	0.39
576.37	0.39
576.711	0.38
577.051	0.39
577.391	0.39
577.731	0.39
578.072	0.39
578.412	0.39
578.752	0.39
579.092	0.39
579.431	0.38
579.771	0.38
580.111	0.38
580.451	0.38
580.791	0.39
581.13	0.39
581.47	0.39
581.81	0.39
582.149	0.39
582.489	0.4
582.828	0.4
583.167	0.39
583.507	0.36
583.846	0.34
584.185	0.36
584.525	0.38
584.864	0.39
585.203	0.4
585.542	0.41
585.881	0.41
586.22	0.41
586.559	0.41
586.898	0.4
587.236	0.4
587.575	0.4
587.914	0.4
588.252	0.41
588.591	0.42
588.93	0.42
589.268	0.42
589.607	0.42
589.945	0.42
590.283	0.42
590.622	0.42
590.96	0.43
591.298	0.43
591.636	0.43
591.974	0.43
592.313	0.44
592.651	0.44
592.989	0.44
593.326	0.44
593.664	0.44
594.002	0.45
594.34	0.45
594.678	0.45
595.015	0.44
595.353	0.44
595.691	0.45
596.028	0.45
596.366	0.46
596.703	0.46
597.04	0.46
597.378	0.46
597.715	0.46
598.052	0.47
598.389	0.47
598.726	0.47
599.064	0.48
599.401	0.48
599.738	0.48
600.074	0.48
600.411	0.47
600.748	0.47
601.085	0.47
601.422	0.47
601.758	0.47
602.095	0.47
602.432	0.47
602.768	0.47
603.105	0.47
603.441	0.48
603.777	0.48
604.114	0.48
604.45	0.48
604.786	0.48
605.122	0.48
605.459	0.48
605.795	0.48
606.131	0.48
606.467	0.48
606.803	0.48
607.139	0.48
607.474	0.48
607.81	0.48
608.146	0.48
608.482	0.48
608.817	0.47
609.153	0.47
609.488	0.47
609.824	0.47
610.159	0.46
610.495	0.47
610.83	0.46
611.165	0.47
611.5	0.47
611.836	0.46
612.171	0.46
612.506	0.46
612.841	0.46
613.176	0.46
613.511	0.46
613.845	0.46
614.18	0.46
614.515	0.45
614.85	0.45
615.184	0.45
615.519	0.45
615.854	0.45
616.188	0.45
616.523	0.45
616.857	0.45
617.191	0.44
617.526	0.44
617.86	0.44
618.194	0.44
618.528	0.44
618.862	0.44
619.196	0.44
619.53	0.44
619.864	0.43
620.198	0.43
620.532	0.43
620.866	0.43
621.2	0.42
621.533	0.42
621.867	0.42
622.201	0.42
622.534	0.42
622.868	0.42
623.201	0.42
623.534	0.42
623.868	0.42
624.201	0.41
624.534	0.41
624.868	0.41
625.201	0.41
625.534	0.41
625.867	0.41
626.2	0.41
626.533	0.4
626.865	0.4
627.198	0.4
627.531	0.4
627.864	0.4
628.196	0.4
628.529	0.4
628.862	0.39
629.194	0.39
629.527	0.38
629.859	0.38
630.191	0.38
630.524	0.38
630.856	0.38
631.188	0.38
631.52	0.37
631.852	0.37
632.184	0.37
632.516	0.37
632.848	0.36
633.18	0.36
633.512	0.36
633.844	0.35
634.175	0.35
634.507	0.35
634.839	0.35
635.17	0.35
635.502	0.34
635.833	0.34
636.165	0.34
636.496	0.34
636.827	0.33
637.159	0.33
637.49	0.33
637.821	0.33
638.152	0.32
638.483	0.32
638.814	0.32
639.145	0.31
639.476	0.31
639.807	0.31
640.137	0.3
640.468	0.3
640.799	0.3
641.129	0.3
641.46	0.29
641.791	0.29
642.121	0.29
642.451	0.29
642.782	0.29
643.112	0.28
643.442	0.28
643.773	0.28
644.103	0.28
644.433	0.28
644.763	0.27
645.093	0.27
645.423	0.27
645.753	0.27
646.082	0.27
646.412	0.27
646.742	0.27
647.072	0.27
647.401	0.27
647.731	0.27
648.06	0.27
648.39	0.26
648.719	0.26
649.048	0.26
649.378	0.26
649.707	0.26
650.036	0.26
650.365	0.26
650.694	0.25
651.023	0.25
651.352	0.25
651.681	0.26
652.01	0.26
652.339	0.26
652.668	0.25
652.996	0.25
653.325	0.25
653.654	0.25
653.982	0.25
654.311	0.25
654.639	0.25
654.967	0.25
655.296	0.25
655.624	0.25
655.952	0.25
656.28	0.25
656.609	0.25
656.937	0.25
657.265	0.25
657.593	0.22
657.92	0.09
658.248	0.03
658.576	0.03
658.904	0.12
659.231	0.2
659.559	0.24
659.887	0.25
660.214	0.25
660.542	0.25
660.869	0.24
661.196	0.24
661.524	0.24
661.851	0.25
662.178	0.24
662.505	0.24
662.832	0.24
663.159	0.24
663.486	0.24
663.813	0.24
664.14	0.24
664.467	0.24
664.794	0.24
665.12	0.24
665.447	0.24
665.774	0.24
666.1	0.23
666.427	0.23
666.753	0.24
667.079	0.23
667.406	0.24
667.732	0.23
668.058	0.23
668.384	0.23
668.71	0.23
669.036	0.23
669.362	0.23
669.688	0.23
670.014	0.23
670.34	0.23
670.666	0.23
670.991	0.23
671.317	0.23
671.643	0.22
671.968	0.22
672.294	0.22
672.619	0.22
672.945	0.22
673.27	0.22
673.595	0.22
673.92	0.22
674.246	0.21
674.571	0.21
674.896	0.21
675.221	0.21
675.546	0.21
675.87	0.21
676.195	0.21
676.52	0.2
676.845	0.2
677.169	0.2
677.494	0.2
677.819	0.2
678.143	0.19
678.468	0.19
678.792	0.19
679.116	0.19
679.44	0.19
679.765	0.19
680.089	0.19
680.413	0.18
680.737	0.18
681.061	0.18
681.385	0.18
681.709	0.18
682.033	0.17
682.356	0.17
682.68	0.17
683.004	0.17
683.327	0.17
683.651	0.16
683.974	0.16
684.298	0.17
684.621	0.16
684.944	0.16
685.268	0.16
685.591	0.16
685.914	0.15
686.237	0.15
686.56	0.15
686.883	0.15
687.206	0.15
687.529	0.14
687.852	0.14
688.175	0.14
688.497	0.14
688.82	0.14
689.142	0.14
689.465	0.14
689.787	0.13
690.11	0.13
690.432	0.13
690.755	0.13
691.077	0.13
691.399	0.13
691.721	0.13
692.043	0.12
692.365	0.12
692.687	0.12
693.009	0.12
693.331	0.12
693.653	0.12
693.974	0.12
694.296	0.11
694.618	0.11
694.939	0.11
695.261	0.11
695.582	0.11
695.904	0.11
696.225	0.11
696.546	0.11
696.868	0.1
697.189	0.1
697.51	0.1
697.831	0.1
698.152	0.1
698.473	0.1
698.794	0.1
699.114	0.1
699.435	0.09
699.756	0.09
700.077	0.09
700.397	0.1
700.718	0.09
701.038	0.09
701.359	0.09
701.679	0.09
701.999	0.09
702.32	0.09
702.64	0.09
702.96	0.1
703.28	0.09
703.6	0.09
703.92	0.09
704.24	0.09
704.56	0.09
704.879	0.08
705.199	0.08
705.519	0.08
705.838	0.08
706.158	0.08
706.478	0.08
706.797	0.08
707.116	0.08
707.436	0.08
707.755	0.08
708.074	0.09
708.393	0.08
708.712	0.08
709.031	0.08
709.35	0.08
709.669	0.08
709.988	0.08
710.307	0.08
710.626	0.08
710.944	0.08
711.263	0.08
711.582	0.07
711.9	0.07
712.219	0.08
712.537	0.08
712.855	0.08
713.174	0.07
713.492	0.08
713.81	0.08
714.128	0.07
714.446	0.07
714.764	0.07
715.082	0.07
715.4	0.07
715.718	0.07
716.035	0.07
716.353	0.07
716.671	0.07
716.988	0.07
717.306	0.07
717.623	0.07
717.941	0.08
718.258	0.08
718.575	0.08
718.893	0.08
719.21	0.08
719.527	0.08
719.844	0.08
720.161	0.08
720.478	0.08
720.795	0.08
721.112	0.08
721.428	0.08
721.745	0.08
722.062	0.08
722.378	0.08
722.695	0.08
723.011	0.08
723.328	0.08
723.644	0.08
723.96	0.08
724.276	0.08
724.593	0.08
724.909	0.08
725.225	0.08
725.541	0.08
725.857	0.08
726.173	0.09
726.488	0.09
726.804	0.09
727.12	0.09
727.435	0.09
727.751	0.09
728.067	0.09
728.382	0.09
728.697	0.09
729.013	0.09
729.328	0.09
729.643	0.09
729.958	0.09
730.273	0.09
730.588	0.09
730.903	0.09
731.218	0.09
731.533	0.09
731.848	0.09
732.163	0.09
732.477	0.09
732.792	0.09
733.107	0.08
733.421	0.09
733.736	0.09
734.05	0.09
734.364	0.09
734.678	0.09
734.993	0.09
735.307	0.09
735.621	0.09
735.935	0.09
736.249	0.09
736.563	0.09
736.877	0.09
737.19	0.09
737.504	0.09
737.818	0.08
738.131	0.08
738.445	0.08
738.758	0.08
739.072	0.08
739.385	0.08
739.698	0.08
740.012	0.08
740.325	0.08
740.638	0.08
740.951	0.08
741.264	0.08
741.577	0.08
741.89	0.08
742.203	0.08
742.515	0.09
742.828	0.08
743.141	0.08
743.453	0.09
743.766	0.08
744.078	0.08
744.391	0.08
744.703	0.08
745.015	0.08
745.327	0.08
745.639	0.08
745.952	0.08
746.264	0.07
746.575	0.08
746.887	0.08
747.199	0.07
747.511	0.07
747.823	0.07
748.134	0.07
748.446	0.07
748.757	0.07
749.069	0.07
749.38	0.07
749.692	0.07
750.003	0.07
750.314	0.07
750.625	0.07
750.936	0.07
751.248	0.06
751.559	0.06
751.869	0.06
752.18	0.06
752.491	0.06
752.802	0.06
753.112	0.06
753.423	0.06
753.734	0.05
754.044	0.06
754.355	0.05
754.665	0.05
754.975	0.05
755.285	0.05
755.596	0.05
755.906	0.05
756.216	0.05
756.526	0.04
756.836	0.04
757.146	0.04
757.455	0.04
757.765	0.05
758.075	0.05
758.385	0.04
758.694	0.04
759.004	0.04
759.313	0.04
759.622	0.04
759.932	0.05
760.241	0.04
760.55	0.04
760.859	0.04
761.168	0.04
761.477	0.04
761.786	0.04
762.095	0.04
762.404	0.04
762.713	0.04
763.021	0.04
763.33	0.03
763.639	0.03
763.947	0.03
764.256	0.03
764.564	0.03
764.872	0.03
765.181	0.03
765.489	0.03
765.797	0.03
766.105	0.03
766.413	0.03
766.721	0.03
767.029	0.03
767.337	0.03
767.644	0.03
767.952	0.03
768.26	0.03
768.567	0.03
768.875	0.03
769.182	0.03
769.49	0.03
769.797	0.02
770.104	0.02
770.411	0.02
770.718	0.02
771.026	0.02
771.333	0.02
771.639	0.02
771.946	0.02
772.253	0.02
772.56	0.03
772.867	0.02
773.173	0.02
773.48	0.02
773.786	0.03
774.093	0.02
774.399	0.02
774.705	0.02
775.012	0.02
775.318	0.02
775.624	0.02
775.93	0.02
776.236	0.02
776.542	0.02
776.848	0.02
777.154	0.02
777.459	0.02
777.765	0.02
778.071	0.02
778.376	0.02
778.682	0.02
778.987	0.02
779.292	0.02
779.598	0.02
779.903	0.02
780.208	0.02
780.513	0.02
780.818	0.02
781.123	0.02
781.428	0.02
781.733	0.02
782.038	0.03
782.343	0.03
782.647	0.02
782.952	0.02
783.256	0.02
783.561	0.03
783.865	0.03
784.17	0.03
784.474	0.03
784.778	0.02
785.082	0.02
785.386	0.02
785.69	0.02
785.994	0.02
786.298	0.02
786.602	0.02
786.906	0.02
787.209	0.02
787.513	0.02
787.817	0.02
788.12	0.02
788.424	0.02
788.727	0.02
789.03	0.02
789.333	0.02
789.637	0.02
789.94	0.02
790.243	0.03
790.546	0.03
790.849	0.03
791.152	0.02
791.454	0.03
791.757	0.03
792.06	0.03
792.362	0.03
792.665	0.02
792.967	0.02
793.27	0.01
793.572	0.02
793.874	0.02
794.177	0.02
794.479	0.01
794.781	0.02
795.083	0.02
795.385	0.02
795.687	0.02
795.989	0.02
796.29	0.02
796.592	0.02
796.894	0.02
797.195	0.02
797.497	0.02
797.798	0.02
798.1	0.02
798.401	0.02
798.702	0.02
799.003	0.02
799.304	0.02
799.605	0.02
799.906	0.02
800.207	0.02
800.508	0.02
800.809	0.02
801.11	0.02
801.41	0.02
801.711	0.03
802.011	0.03
802.312	0.03
802.612	0.03
802.913	0.03
803.213	0.03
803.513	0.03
803.813	0.03
804.113	0.03
804.413	0.03
804.713	0.03
805.013	0.03
805.313	0.03
805.613	0.03
805.912	0.03
806.212	0.03
806.511	0.03
806.811	0.03
807.11	0.03
807.41	0.03
807.709	0.03
808.008	0.03
808.307	0.02
808.606	0.02
808.905	0.02
809.204	0.02
809.503	0.02
809.802	0.02
810.101	0.02
810.399	0.02
810.698	0.02
810.997	0.02
811.295	0.02
811.593	0.02
811.892	0.02
812.19	0.02
812.488	0.03
812.786	0.02
813.084	0.03
813.383	0.02
813.68	0.02
813.978	0.02
814.276	0.02
814.574	0.02
814.872	0.02
815.169	0.02
815.467	0.02
815.764	0.02
816.062	0.02
816.359	0.02
816.656	0.02
816.954	0.01
817.251	0.01
817.548	0.01
817.845	0.02
818.142	0.02
818.439	0.02
818.735	0.02
819.032	0.02
819.329	0.02
819.626	0.02
819.922	0.02
820.219	0.02
820.515	0.03
820.811	0.02
821.108	0.02
821.404	0.02
821.7	0.01
821.996	0.02
822.292	0.02
822.588	0.02
822.884	0.02
823.18	0.02
823.475	0.02
823.771	0.02
824.067	0.02
824.362	0.03
824.658	0.03
824.953	0.03
825.249	0.03
825.544	0.03
825.839	0.03
826.134	0.03
826.429	0.03
826.724	0.02
827.019	0.02
827.314	0.02
827.609	0.02
827.904	0.02
828.198	0.01
828.493	0.02
828.787	0.02
829.082	0.02
829.376	0.02
829.671	0.02
829.965	0.02
830.259	0.02
830.553	0.02
830.847	0.02
831.141	0.02
831.435	0.03
831.729	0.02
832.023	0.03
832.317	0.03
832.61	0.03
832.904	0.02
833.197	0.02
833.491	0.03
833.784	0.02
834.077	0.02
834.371	0.03
834.664	0.03
834.957	0.03
835.25	0.02
835.543	0.03
835.836	0.03
836.129	0.03
836.421	0.03
836.714	0.03
837.007	0.03
837.299	0.03
837.592	0.04
837.884	0.03
838.177	0.03
838.469	0.03
838.761	0.04
839.053	0.02
839.345	0.03
839.637	0.03
839.929	0.03
840.221	0.03
840.513	0.03
840.805	0.03
841.096	0.03
841.388	0.02
841.68	0.03
841.971	0.03
842.262	0.02
842.554	0.03
842.845	0.02
843.136	0.02
843.427	0.02
843.718	0.02
844.009	0.02
844.3	0.02
844.591	0.03
844.882	0.02
845.173	0.02
845.463	0.02
845.754	0.02
846.044	0.02
846.335	0.01
846.625	0.03
846.915	0.02
847.206	0.03
847.496	0.03
847.786	0.03
848.076	0.03
848.366	0.03
848.656	0.03
848.945	0.02
849.235	0.03
849.525	0.03
849.814	0.03
850.104	0.03
850.393	0.02
850.683	0.02
850.972	0.02
851.261	0.03
851.551	0.03
851.84	0.03
852.129	0.02
852.418	0.02
852.707	0.01
852.995	0.02
853.284	0.01
853.573	0.02
853.862	0.02
854.15	0.02
854.439	0.03
854.727	0.02
855.015	0.02
855.304	0.02
855.592	0.02
855.88	0.04
856.168	0.03
856.456	0.01
856.744	0.02
857.032	0.03
857.32	0.03
857.607	0.03
857.895	0.03
858.183	0.04
858.47	0.02
858.757	0.02
859.045	0.04
859.332	0.04
859.619	0.02
859.907	0.02
860.194	0.02
860.481	0.02
860.768	0.03
861.054	0.03
861.341	0.02
861.628	0.04
861.915	0.02
862.201	0.03
862.488	0.01
862.774	0.02
863.061	0.01
863.347	0.01
863.633	0.02
863.919	0.04
864.205	0.02
864.491	0.03
864.777	0.03
865.063	0.01
865.349	0.04
865.635	-0.01
865.92	0.03
866.206	0.03
866.492	0.02
866.777	0.03
867.062	0.02
867.348	0.02
867.633	0.03
867.918	-0
868.203	0.02
868.488	0.04
868.773	0.03
869.058	0.03
869.343	-0.01
869.628	0
869.912	0.02
870.197	-0.02
870.482	0.01
870.766	0.07
871.05	0.02
871.335	0.03
871.619	0.03
871.903	0.03
872.187	0.08
872.471	0.02
872.755	0.02
873.039	0.04
873.323	-0
873.607	0.02
873.89	0.04
874.174	0.04
874.458	0.02
874.741	0.05
875.024	0.04
875.308	-0
875.591	0.08
875.874	-0.03
876.157	0.08
876.44	-0.02
876.723	0.04
877.006	0.06
877.289	0.04
877.572	0.01
877.854	0.17
878.137	0.08
878.42	0.01
878.702	0
878.984	0.05
879.267	0.08
879.549	0.09
879.831	0.06
880.113	0.07
880.395	0.06
880.677	0.12
880.959	-0.16
