Data from Rubpy_EV_1500_EDTA_Buffered_Absorbance_15-10-40-056.txt Node
Date: Tue Jun 30 15:10:40 BST 2026
User: fpm-admin
Spectrometer: OFX00224
Trigger mode: 0
Integration Time (sec): 7.000000E-2
Scans to average: 3
Nonlinearity correction enabled: false
Boxcar width: 0
Storing dark spectrum: false
XAxis mode: Wavelengths
Number of Pixels in Spectrum: 2136
>>>>>Begin Spectral Data<<<<<
154.91	0.23
155.289	-0.35
155.669	0.68
156.048	-0
156.428	-0.15
156.807	0.47
157.186	-0.26
157.566	-0.21
157.945	0.48
158.325	-0
158.704	-1.46
159.083	-0
159.462	-0.88
159.842	0.6
160.221	0.3
160.6	-0
160.979	0.92
161.359	-0.63
161.738	-0
162.117	-0.33
162.496	-0
162.875	-0.25
163.254	-0
163.633	0.78
164.012	-0
164.391	-0
164.77	0.54
165.149	0.62
165.528	-0
165.907	-0
166.286	-0.57
166.665	-0
167.044	0.86
167.423	-0
167.802	-0
168.181	0.03
168.559	-0.38
168.938	0.11
169.317	0.85
169.696	0.3
170.074	0.67
170.453	0.12
170.832	-0
171.21	-0
171.589	0.37
171.968	0.56
172.346	-0.62
172.725	-0.9
173.103	-0.33
173.482	-0.24
173.861	-0.57
174.239	-0
174.617	0.58
174.996	-0.2
175.374	-0
175.753	0.16
176.131	-0
176.51	0.06
176.888	-0.06
177.266	-0
177.645	-0.01
178.023	1.76
178.401	-0.28
178.779	-0.21
179.158	1.13
179.536	-0
179.914	-0
180.292	0.93
180.67	-0.33
181.048	-0
181.427	0.38
181.805	0.2
182.183	-0
182.561	0.52
182.939	-1.52
183.317	-0
183.695	-0
184.073	-0.62
184.451	1.16
184.829	-0.3
185.206	-0.11
185.584	0.27
185.962	-0.41
186.34	-0.15
186.718	-0.18
187.096	-0.95
187.473	-0
187.851	0.35
188.229	0.4
188.607	0.33
188.984	0.17
189.362	0.23
189.74	0.32
190.117	0.28
190.495	0.18
190.872	0.15
191.25	0.24
191.627	0.15
192.005	0.27
192.382	0.24
192.76	0.26
193.137	0.22
193.515	0.37
193.892	0.21
194.269	0.3
194.647	0.1
195.024	0.22
195.401	0.22
195.779	0.37
196.156	0.26
196.533	0.44
196.91	0.24
197.288	0.22
197.665	0.29
198.042	0.17
198.419	0.18
198.796	0.26
199.173	0.2
199.55	0.22
199.927	0.41
200.304	0.21
200.681	0.28
201.058	0.24
201.435	0.23
201.812	0.27
202.189	0.3
202.566	0.34
202.943	0.16
203.32	0.36
203.697	0.32
204.073	0.28
204.45	0.17
204.827	0.28
205.204	0.19
205.58	0.45
205.957	0.29
206.334	0.31
206.71	0.24
207.087	0.34
207.464	0.39
207.84	0.2
208.217	0.3
208.593	0.39
208.97	0.22
209.346	0.26
209.723	0.43
210.099	0.26
210.476	0.38
210.852	0.39
211.228	0.4
211.605	0.22
211.981	0.33
212.357	0.41
212.733	0.13
213.11	0.38
213.486	0.28
213.862	0.21
214.238	0.16
214.614	0.36
214.991	0.3
215.367	0.29
215.743	0.26
216.119	0.26
216.495	0.22
216.871	0.5
217.247	0.14
217.623	0.41
217.999	0.29
218.375	0.29
218.751	0.19
219.127	0.32
219.502	0.37
219.878	0.28
220.254	0.31
220.63	0.26
221.006	0.34
221.381	0.3
221.757	0.47
222.133	0.3
222.508	0.19
222.884	0.24
223.26	0.29
223.635	0.22
224.011	0.24
224.386	0.2
224.762	0.25
225.137	0.14
225.513	0.23
225.888	0.33
226.264	0.25
226.639	0.24
227.014	0.35
227.39	0.22
227.765	0.33
228.14	0.27
228.516	0.27
228.891	0.32
229.266	0.34
229.641	0.15
230.017	0.27
230.392	0.42
230.767	0.27
231.142	0.41
231.517	0.3
231.892	0.3
232.267	0.34
232.642	0.26
233.017	0.21
233.392	0.31
233.767	0.45
234.142	0.3
234.517	0.22
234.892	0.3
235.267	0.26
235.641	0.33
236.016	0.27
236.391	0.28
236.766	0.22
237.14	0.28
237.515	0.21
237.89	0.28
238.264	0.32
238.639	0.35
239.014	0.3
239.388	0.27
239.763	0.33
240.137	0.18
240.512	0.12
240.886	0.2
241.261	0.28
241.635	0.39
242.009	0.28
242.384	0.21
242.758	0.23
243.132	0.2
243.507	0.43
243.881	0.29
244.255	0.34
244.629	0.32
245.004	0.35
245.378	0.29
245.752	0.29
246.126	0.31
246.5	0.3
246.874	0.21
247.248	0.2
247.622	0.29
247.996	0.45
248.37	0.18
248.744	0.37
249.118	0.19
249.492	0.4
249.866	0.2
250.24	0.37
250.613	0.11
250.987	0.18
251.361	0.26
251.735	0.2
252.108	0.26
252.482	0.15
252.856	0.35
253.229	0.22
253.603	0.38
253.977	0.34
254.35	0.17
254.724	0.22
255.097	0.2
255.471	0.33
255.844	0.3
256.218	0.25
256.591	0.2
256.964	0.27
257.338	0.32
257.711	0.36
258.084	0.3
258.458	0.44
258.831	0.32
259.204	0.29
259.577	0.28
259.95	0.29
260.323	0.28
260.697	0.18
261.07	0.28
261.443	0.29
261.816	0.24
262.189	0.31
262.562	0.25
262.935	0.27
263.308	0.26
263.68	0.26
264.053	0.45
264.426	0.24
264.799	0.36
265.172	0.27
265.545	0.37
265.917	0.32
266.29	0.23
266.663	0.27
267.035	0.28
267.408	0.21
267.781	0.29
268.153	0.3
268.526	0.3
268.898	0.3
269.271	0.31
269.643	0.27
270.016	0.27
270.388	0.21
270.76	0.35
271.133	0.38
271.505	0.23
271.877	0.28
272.25	0.27
272.622	0.29
272.994	0.26
273.366	0.26
273.739	0.37
274.111	0.41
274.483	0.3
274.855	0.27
275.227	0.36
275.599	0.24
275.971	0.38
276.343	0.32
276.715	0.23
277.087	0.4
277.459	0.27
277.831	0.3
278.203	0.32
278.574	0.27
278.946	0.25
279.318	0.21
279.69	0.24
280.061	0.28
280.433	0.36
280.805	0.27
281.176	0.28
281.548	0.2
281.92	0.33
282.291	0.3
282.663	0.47
283.034	0.34
283.406	0.25
283.777	0.33
284.148	0.26
284.52	0.35
284.891	0.28
285.262	0.3
285.634	0.29
286.005	0.31
286.376	0.18
286.747	0.24
287.119	0.24
287.49	0.19
287.861	0.32
288.232	0.28
288.603	0.27
288.974	0.31
289.345	0.26
289.716	0.33
290.087	0.25
290.458	0.29
290.829	0.35
291.2	0.35
291.571	0.27
291.941	0.3
292.312	0.36
292.683	0.31
293.054	0.32
293.424	0.23
293.795	0.3
294.166	0.34
294.536	0.26
294.907	0.27
295.277	0.29
295.648	0.29
296.018	0.3
296.389	0.3
296.759	0.24
297.13	0.35
297.5	0.3
297.871	0.34
298.241	0.28
298.611	0.23
298.981	0.26
299.352	0.31
299.722	0.3
300.092	0.24
300.462	0.29
300.832	0.28
301.202	0.22
301.573	0.24
301.943	0.26
302.313	0.22
302.683	0.24
303.053	0.24
303.422	0.25
303.792	0.24
304.162	0.25
304.532	0.26
304.902	0.24
305.272	0.24
305.641	0.25
306.011	0.25
306.381	0.24
306.75	0.26
307.12	0.26
307.49	0.26
307.859	0.25
308.229	0.27
308.598	0.28
308.968	0.27
309.337	0.27
309.707	0.28
310.076	0.27
310.445	0.28
310.815	0.29
311.184	0.29
311.553	0.29
311.923	0.29
312.292	0.29
312.661	0.29
313.03	0.3
313.399	0.3
313.768	0.3
314.137	0.3
314.506	0.31
314.875	0.3
315.244	0.29
315.613	0.29
315.982	0.3
316.351	0.29
316.72	0.29
317.089	0.28
317.458	0.29
317.826	0.29
318.195	0.27
318.564	0.28
318.933	0.28
319.301	0.27
319.67	0.28
320.038	0.28
320.407	0.26
320.775	0.27
321.144	0.26
321.512	0.27
321.881	0.26
322.249	0.26
322.618	0.26
322.986	0.25
323.354	0.25
323.723	0.25
324.091	0.25
324.459	0.25
324.827	0.25
325.195	0.25
325.564	0.25
325.932	0.24
326.3	0.24
326.668	0.24
327.036	0.24
327.404	0.25
327.772	0.24
328.14	0.25
328.508	0.24
328.875	0.24
329.243	0.24
329.611	0.25
329.979	0.25
330.346	0.25
330.714	0.25
331.082	0.25
331.449	0.26
331.817	0.26
332.185	0.25
332.552	0.25
332.92	0.26
333.287	0.26
333.655	0.26
334.022	0.27
334.389	0.28
334.757	0.27
335.124	0.28
335.491	0.28
335.859	0.28
336.226	0.29
336.593	0.29
336.96	0.29
337.327	0.3
337.695	0.31
338.062	0.31
338.429	0.31
338.796	0.32
339.163	0.32
339.53	0.33
339.897	0.32
340.263	0.33
340.63	0.34
340.997	0.34
341.364	0.35
341.731	0.36
342.097	0.36
342.464	0.37
342.831	0.38
343.197	0.38
343.564	0.39
343.931	0.39
344.297	0.4
344.664	0.4
345.03	0.41
345.396	0.42
345.763	0.43
346.129	0.43
346.496	0.43
346.862	0.44
347.228	0.45
347.594	0.46
347.961	0.45
348.327	0.47
348.693	0.47
349.059	0.48
349.425	0.49
349.791	0.5
350.157	0.5
350.523	0.51
350.889	0.52
351.255	0.53
351.621	0.54
351.987	0.55
352.353	0.56
352.719	0.57
353.084	0.59
353.45	0.59
353.816	0.6
354.181	0.61
354.547	0.63
354.913	0.65
355.278	0.65
355.644	0.66
356.009	0.68
356.375	0.69
356.74	0.7
357.106	0.72
357.471	0.73
357.836	0.75
358.202	0.76
358.567	0.77
358.932	0.78
359.297	0.8
359.663	0.81
360.028	0.83
360.393	0.83
360.758	0.84
361.123	0.85
361.488	0.86
361.853	0.87
362.218	0.89
362.583	0.89
362.948	0.9
363.312	0.91
363.677	0.93
364.042	0.94
364.407	0.96
364.772	0.97
365.136	0.98
365.501	1.01
365.865	1.03
366.23	1.05
366.595	1.06
366.959	1.08
367.324	1.09
367.688	1.12
368.052	1.13
368.417	1.15
368.781	1.17
369.145	1.18
369.51	1.2
369.874	1.18
370.238	1.18
370.602	1.19
370.967	1.18
371.331	1.17
371.695	1.17
372.059	1.16
372.423	1.16
372.787	1.16
373.151	1.16
373.515	1.15
373.878	1.15
374.242	1.14
374.606	1.13
374.97	1.15
375.334	1.14
375.697	1.15
376.061	1.15
376.425	1.16
376.788	1.18
377.152	1.17
377.515	1.18
377.879	1.2
378.242	1.21
378.606	1.23
378.969	1.23
379.333	1.24
379.696	1.25
380.059	1.27
380.422	1.29
380.786	1.29
381.149	1.34
381.512	1.34
381.875	1.37
382.238	1.4
382.601	1.44
382.964	1.45
383.327	1.49
383.69	1.51
384.053	1.55
384.416	1.58
384.779	1.61
385.142	1.63
385.504	1.67
385.867	1.69
386.23	1.69
386.593	1.71
386.955	1.71
387.318	1.75
387.68	1.71
388.043	1.72
388.405	1.68
388.768	1.68
389.13	1.66
389.493	1.69
389.855	1.67
390.217	1.67
390.58	1.64
390.942	1.64
391.304	1.68
391.666	1.67
392.028	1.69
392.391	1.72
392.753	1.74
393.115	1.8
393.477	1.82
393.839	1.85
394.201	1.9
394.563	2
394.924	2.05
395.286	2.02
395.648	2.06
396.01	2.07
396.371	2.16
396.733	2.07
397.095	2.1
397.456	2.18
397.818	2.05
398.18	2.04
398.541	2.02
398.903	2.11
399.264	2.04
399.625	2.01
399.987	1.99
400.348	1.94
400.709	1.91
401.071	1.85
401.432	1.77
401.793	1.66
402.154	1.6
402.515	1.5
402.876	1.41
403.238	1.32
403.599	1.26
403.96	1.17
404.32	1.09
404.681	1.01
405.042	0.95
405.403	0.87
405.764	0.83
406.125	0.76
406.485	0.72
406.846	0.67
407.207	0.63
407.567	0.59
407.928	0.56
408.288	0.52
408.649	0.49
409.009	0.47
409.37	0.44
409.73	0.42
410.091	0.4
410.451	0.38
410.811	0.37
411.171	0.35
411.532	0.34
411.892	0.32
412.252	0.31
412.612	0.3
412.972	0.29
413.332	0.28
413.692	0.27
414.052	0.26
414.412	0.25
414.772	0.25
415.132	0.23
415.492	0.23
415.851	0.22
416.211	0.22
416.571	0.2
416.931	0.2
417.29	0.2
417.65	0.19
418.009	0.19
418.369	0.19
418.728	0.18
419.088	0.18
419.447	0.18
419.807	0.17
420.166	0.16
420.525	0.16
420.884	0.16
421.244	0.16
421.603	0.15
421.962	0.15
422.321	0.16
422.68	0.15
423.039	0.14
423.398	0.14
423.757	0.15
424.116	0.15
424.475	0.14
424.834	0.14
425.193	0.13
425.551	0.13
425.91	0.12
426.269	0.13
426.628	0.13
426.986	0.12
427.345	0.12
427.703	0.12
428.062	0.12
428.42	0.12
428.779	0.12
429.137	0.13
429.496	0.12
429.854	0.11
430.212	0.12
430.57	0.12
430.929	0.11
431.287	0.11
431.645	0.11
432.003	0.1
432.361	0.11
432.719	0.11
433.077	0.11
433.435	0.1
433.793	0.1
434.151	0.1
434.509	0.1
434.866	0.1
435.224	0.09
435.582	0.1
435.94	0.11
436.297	0.1
436.655	0.1
437.012	0.1
437.37	0.1
437.727	0.1
438.085	0.09
438.442	0.1
438.8	0.09
439.157	0.09
439.514	0.1
439.872	0.09
440.229	0.1
440.586	0.09
440.943	0.09
441.3	0.09
441.657	0.09
442.014	0.09
442.371	0.09
442.728	0.09
443.085	0.08
443.442	0.09
443.799	0.08
444.156	0.08
444.513	0.08
444.869	0.08
445.226	0.08
445.583	0.08
445.939	0.08
446.296	0.07
446.652	0.08
447.009	0.07
447.365	0.06
447.722	0.08
448.078	0.07
448.434	0.07
448.791	0.07
449.147	0.07
449.503	0.07
449.859	0.07
450.215	0.07
450.571	0.07
450.928	0.07
451.284	0.06
451.64	0.06
451.995	0.07
452.351	0.06
452.707	0.07
453.063	0.05
453.419	0.05
453.775	0.06
454.13	0.06
454.486	0.06
454.842	0.05
455.197	0.05
455.553	0.04
455.908	0.05
456.264	0.04
456.619	0.04
456.975	0.04
457.33	0.04
457.685	0.03
458.04	0.04
458.396	0.04
458.751	0.04
459.106	0.04
459.461	0.03
459.816	0.03
460.171	0.02
460.526	0.03
460.881	0.02
461.236	0.01
461.591	0.03
461.946	0
462.301	0.02
462.655	0.01
463.01	0.01
463.365	0.01
463.719	0.01
464.074	0
464.428	-0.01
464.783	-0.01
465.137	-0.01
465.492	-0.01
465.846	0
466.201	0
466.555	-0
466.909	-0
467.263	0
467.618	0
467.972	0
468.326	-0.01
468.68	-0.01
469.034	-0.01
469.388	-0
469.742	-0
470.096	-0
470.45	-0
470.804	0
471.157	0
471.511	-0.01
471.865	0
472.218	0
472.572	0
472.926	0.01
473.279	0.01
473.633	0.01
473.986	0.02
474.34	0.01
474.693	0.03
475.046	0.03
475.4	0.03
475.753	0.04
476.106	0.04
476.459	0.04
476.812	0.06
477.165	0.06
477.519	0.06
477.872	0.06
478.224	0.07
478.577	0.06
478.93	0.08
479.283	0.07
479.636	0.07
479.989	0.08
480.341	0.08
480.694	0.09
481.047	0.08
481.399	0.09
481.752	0.09
482.104	0.09
482.457	0.1
482.809	0.1
483.162	0.1
483.514	0.1
483.866	0.11
484.219	0.1
484.571	0.11
484.923	0.11
485.275	0.11
485.627	0.11
485.979	0.12
486.331	0.12
486.683	0.13
487.035	0.13
487.387	0.14
487.739	0.13
488.091	0.14
488.443	0.13
488.794	0.13
489.146	0.14
489.498	0.14
489.849	0.13
490.201	0.14
490.552	0.14
490.904	0.15
491.255	0.15
491.607	0.15
491.958	0.15
492.309	0.15
492.661	0.16
493.012	0.15
493.363	0.16
493.714	0.16
494.065	0.16
494.416	0.17
494.767	0.17
495.118	0.17
495.469	0.17
495.82	0.17
496.171	0.18
496.522	0.18
496.872	0.18
497.223	0.18
497.574	0.19
497.924	0.19
498.275	0.19
498.626	0.19
498.976	0.19
499.327	0.19
499.677	0.19
500.027	0.2
500.378	0.2
500.728	0.2
501.078	0.21
501.428	0.21
501.779	0.21
502.129	0.22
502.479	0.22
502.829	0.22
503.179	0.23
503.529	0.23
503.879	0.23
504.229	0.23
504.578	0.23
504.928	0.23
505.278	0.23
505.628	0.24
505.977	0.24
506.327	0.24
506.676	0.25
507.026	0.25
507.375	0.25
507.725	0.25
508.074	0.25
508.424	0.26
508.773	0.26
509.122	0.26
509.471	0.27
509.82	0.27
510.17	0.27
510.519	0.27
510.868	0.27
511.217	0.28
511.566	0.28
511.915	0.28
512.263	0.28
512.612	0.28
512.961	0.29
513.31	0.29
513.659	0.29
514.007	0.29
514.356	0.3
514.704	0.3
515.053	0.3
515.401	0.31
515.75	0.31
516.098	0.31
516.447	0.31
516.795	0.32
517.143	0.32
517.491	0.32
517.839	0.32
518.188	0.33
518.536	0.33
518.884	0.33
519.232	0.33
519.58	0.33
519.928	0.33
520.275	0.34
520.623	0.34
520.971	0.35
521.319	0.35
521.666	0.35
522.014	0.35
522.362	0.36
522.709	0.36
523.057	0.36
523.404	0.36
523.752	0.36
524.099	0.37
524.446	0.37
524.794	0.37
525.141	0.38
525.488	0.38
525.835	0.39
526.182	0.38
526.529	0.38
526.876	0.39
527.223	0.4
527.57	0.39
527.917	0.4
528.264	0.4
528.611	0.4
528.958	0.41
529.304	0.41
529.651	0.41
529.998	0.42
530.344	0.41
530.691	0.42
531.037	0.42
531.384	0.42
531.73	0.42
532.076	0.43
532.423	0.43
532.769	0.43
533.115	0.44
533.461	0.44
533.807	0.44
534.154	0.45
534.5	0.45
534.846	0.45
535.192	0.46
535.537	0.46
535.883	0.46
536.229	0.47
536.575	0.47
536.921	0.47
537.266	0.47
537.612	0.48
537.957	0.48
538.303	0.48
538.649	0.49
538.994	0.49
539.339	0.49
539.685	0.5
540.03	0.5
540.375	0.51
540.721	0.51
541.066	0.51
541.411	0.52
541.756	0.52
542.101	0.52
542.446	0.53
542.791	0.53
543.136	0.53
543.481	0.53
543.825	0.54
544.17	0.54
544.515	0.55
544.86	0.55
545.204	0.56
545.549	0.56
545.893	0.56
546.238	0.57
546.582	0.57
546.927	0.57
547.271	0.58
547.615	0.58
547.96	0.59
548.304	0.58
548.648	0.59
548.992	0.59
549.336	0.6
549.68	0.6
550.024	0.61
550.368	0.6
550.712	0.61
551.056	0.61
551.4	0.61
551.743	0.62
552.087	0.62
552.431	0.62
552.774	0.62
553.118	0.63
553.462	0.63
553.805	0.64
554.148	0.64
554.492	0.64
554.835	0.64
555.178	0.65
555.522	0.64
555.865	0.65
556.208	0.64
556.551	0.65
556.894	0.66
557.237	0.65
557.58	0.65
557.923	0.66
558.266	0.66
558.609	0.66
558.952	0.67
559.294	0.67
559.637	0.67
559.98	0.67
560.322	0.68
560.665	0.67
561.007	0.68
561.35	0.68
561.692	0.68
562.034	0.68
562.377	0.69
562.719	0.69
563.061	0.69
563.403	0.69
563.745	0.69
564.088	0.69
564.43	0.69
564.772	0.69
565.113	0.69
565.455	0.7
565.797	0.7
566.139	0.7
566.481	0.7
566.822	0.7
567.164	0.7
567.506	0.7
567.847	0.7
568.189	0.71
568.53	0.71
568.872	0.71
569.213	0.71
569.554	0.71
569.895	0.71
570.237	0.71
570.578	0.72
570.919	0.71
571.26	0.71
571.601	0.71
571.942	0.71
572.283	0.71
572.624	0.71
572.965	0.71
573.306	0.71
573.646	0.71
573.987	0.71
574.328	0.71
574.668	0.71
575.009	0.72
575.349	0.72
575.69	0.72
576.03	0.71
576.37	0.72
576.711	0.71
577.051	0.71
577.391	0.71
577.731	0.72
578.072	0.72
578.412	0.72
578.752	0.72
579.092	0.72
579.431	0.72
579.771	0.71
580.111	0.71
580.451	0.71
580.791	0.71
581.13	0.73
581.47	0.72
581.81	0.73
582.149	0.73
582.489	0.73
582.828	0.74
583.167	0.73
583.507	0.7
583.846	0.68
584.185	0.69
584.525	0.72
584.864	0.73
585.203	0.73
585.542	0.74
585.881	0.75
586.22	0.76
586.559	0.76
586.898	0.75
587.236	0.75
587.575	0.74
587.914	0.75
588.252	0.76
588.591	0.77
588.93	0.77
589.268	0.77
589.607	0.77
589.945	0.77
590.283	0.78
590.622	0.78
590.96	0.78
591.298	0.79
591.636	0.79
591.974	0.79
592.313	0.8
592.651	0.81
592.989	0.81
593.326	0.81
593.664	0.82
594.002	0.82
594.34	0.82
594.678	0.82
595.015	0.82
595.353	0.82
595.691	0.82
596.028	0.83
596.366	0.83
596.703	0.84
597.04	0.84
597.378	0.84
597.715	0.84
598.052	0.85
598.389	0.85
598.726	0.86
599.064	0.87
599.401	0.87
599.738	0.87
600.074	0.87
600.411	0.87
600.748	0.88
601.085	0.87
601.422	0.86
601.758	0.87
602.095	0.87
602.432	0.87
602.768	0.87
603.105	0.87
603.441	0.87
603.777	0.87
604.114	0.88
604.45	0.88
604.786	0.88
605.122	0.88
605.459	0.88
605.795	0.88
606.131	0.87
606.467	0.87
606.803	0.88
607.139	0.87
607.474	0.88
607.81	0.87
608.146	0.87
608.482	0.87
608.817	0.86
609.153	0.86
609.488	0.85
609.824	0.85
610.159	0.86
610.495	0.85
610.83	0.85
611.165	0.85
611.5	0.85
611.836	0.84
612.171	0.84
612.506	0.85
612.841	0.84
613.176	0.84
613.511	0.84
613.845	0.83
614.18	0.83
614.515	0.83
614.85	0.83
615.184	0.83
615.519	0.82
615.854	0.82
616.188	0.82
616.523	0.82
616.857	0.82
617.191	0.82
617.526	0.81
617.86	0.81
618.194	0.8
618.528	0.8
618.862	0.8
619.196	0.8
619.53	0.79
619.864	0.79
620.198	0.79
620.532	0.79
620.866	0.79
621.2	0.78
621.533	0.78
621.867	0.78
622.201	0.77
622.534	0.76
622.868	0.77
623.201	0.77
623.534	0.77
623.868	0.77
624.201	0.76
624.534	0.76
624.868	0.75
625.201	0.75
625.534	0.75
625.867	0.75
626.2	0.74
626.533	0.74
626.865	0.74
627.198	0.73
627.531	0.73
627.864	0.72
628.196	0.72
628.529	0.72
628.862	0.72
629.194	0.71
629.527	0.71
629.859	0.7
630.191	0.7
630.524	0.7
630.856	0.69
631.188	0.69
631.52	0.68
631.852	0.68
632.184	0.68
632.516	0.67
632.848	0.66
633.18	0.66
633.512	0.66
633.844	0.65
634.175	0.64
634.507	0.64
634.839	0.63
635.17	0.63
635.502	0.63
635.833	0.62
636.165	0.62
636.496	0.61
636.827	0.61
637.159	0.61
637.49	0.6
637.821	0.59
638.152	0.59
638.483	0.59
638.814	0.58
639.145	0.58
639.476	0.57
639.807	0.57
640.137	0.56
640.468	0.56
640.799	0.55
641.129	0.54
641.46	0.54
641.791	0.54
642.121	0.54
642.451	0.53
642.782	0.53
643.112	0.52
643.442	0.52
643.773	0.52
644.103	0.51
644.433	0.51
644.763	0.51
645.093	0.5
645.423	0.5
645.753	0.5
646.082	0.5
646.412	0.5
646.742	0.49
647.072	0.49
647.401	0.49
647.731	0.49
648.06	0.49
648.39	0.48
648.719	0.49
649.048	0.48
649.378	0.48
649.707	0.48
650.036	0.48
650.365	0.47
650.694	0.47
651.023	0.47
651.352	0.47
651.681	0.47
652.01	0.47
652.339	0.47
652.668	0.46
652.996	0.46
653.325	0.46
653.654	0.46
653.982	0.46
654.311	0.46
654.639	0.46
654.967	0.46
655.296	0.46
655.624	0.46
655.952	0.46
656.28	0.45
656.609	0.45
656.937	0.46
657.265	0.47
657.593	0.44
657.92	0.3
658.248	0.23
658.576	0.22
658.904	0.3
659.231	0.4
659.559	0.44
659.887	0.45
660.214	0.45
660.542	0.45
660.869	0.45
661.196	0.45
661.524	0.45
661.851	0.45
662.178	0.45
662.505	0.45
662.832	0.45
663.159	0.44
663.486	0.44
663.813	0.44
664.14	0.44
664.467	0.45
664.794	0.44
665.12	0.44
665.447	0.44
665.774	0.44
666.1	0.44
666.427	0.44
666.753	0.44
667.079	0.43
667.406	0.43
667.732	0.43
668.058	0.43
668.384	0.43
668.71	0.43
669.036	0.43
669.362	0.43
669.688	0.43
670.014	0.42
670.34	0.42
670.666	0.42
670.991	0.42
671.317	0.41
671.643	0.41
671.968	0.41
672.294	0.41
672.619	0.41
672.945	0.41
673.27	0.4
673.595	0.4
673.92	0.4
674.246	0.4
674.571	0.39
674.896	0.39
675.221	0.39
675.546	0.39
675.87	0.38
676.195	0.38
676.52	0.38
676.845	0.38
677.169	0.37
677.494	0.37
677.819	0.37
678.143	0.36
678.468	0.36
678.792	0.36
679.116	0.36
679.44	0.35
679.765	0.35
680.089	0.35
680.413	0.34
680.737	0.34
681.061	0.34
681.385	0.34
681.709	0.33
682.033	0.32
682.356	0.32
682.68	0.32
683.004	0.32
683.327	0.31
683.651	0.31
683.974	0.31
684.298	0.3
684.621	0.3
684.944	0.3
685.268	0.3
685.591	0.29
685.914	0.29
686.237	0.29
686.56	0.28
686.883	0.28
687.206	0.28
687.529	0.27
687.852	0.27
688.175	0.26
688.497	0.26
688.82	0.26
689.142	0.26
689.465	0.26
689.787	0.25
690.11	0.25
690.432	0.25
690.755	0.24
691.077	0.24
691.399	0.24
691.721	0.24
692.043	0.24
692.365	0.23
692.687	0.23
693.009	0.22
693.331	0.22
693.653	0.22
693.974	0.22
694.296	0.21
694.618	0.21
694.939	0.21
695.261	0.21
695.582	0.21
695.904	0.21
696.225	0.2
696.546	0.2
696.868	0.2
697.189	0.2
697.51	0.19
697.831	0.19
698.152	0.19
698.473	0.19
698.794	0.19
699.114	0.19
699.435	0.18
699.756	0.18
700.077	0.17
700.397	0.18
700.718	0.17
701.038	0.18
701.359	0.17
701.679	0.17
701.999	0.17
702.32	0.17
702.64	0.17
702.96	0.17
703.28	0.17
703.6	0.17
703.92	0.17
704.24	0.17
704.56	0.16
704.879	0.16
705.199	0.16
705.519	0.15
705.838	0.16
706.158	0.16
706.478	0.16
706.797	0.16
707.116	0.16
707.436	0.15
707.755	0.16
708.074	0.16
708.393	0.16
708.712	0.15
709.031	0.15
709.35	0.15
709.669	0.14
709.988	0.14
710.307	0.14
710.626	0.14
710.944	0.14
711.263	0.14
711.582	0.14
711.9	0.14
712.219	0.14
712.537	0.14
712.855	0.14
713.174	0.14
713.492	0.14
713.81	0.14
714.128	0.14
714.446	0.14
714.764	0.14
715.082	0.14
715.4	0.14
715.718	0.14
716.035	0.14
716.353	0.14
716.671	0.14
716.988	0.14
717.306	0.14
717.623	0.14
717.941	0.15
718.258	0.15
718.575	0.15
718.893	0.15
719.21	0.15
719.527	0.15
719.844	0.15
720.161	0.15
720.478	0.15
720.795	0.15
721.112	0.15
721.428	0.15
721.745	0.15
722.062	0.15
722.378	0.15
722.695	0.15
723.011	0.16
723.328	0.15
723.644	0.15
723.96	0.15
724.276	0.16
724.593	0.16
724.909	0.16
725.225	0.16
725.541	0.16
725.857	0.16
726.173	0.16
726.488	0.16
726.804	0.16
727.12	0.16
727.435	0.16
727.751	0.16
728.067	0.16
728.382	0.16
728.697	0.16
729.013	0.16
729.328	0.16
729.643	0.17
729.958	0.17
730.273	0.17
730.588	0.16
730.903	0.16
731.218	0.17
731.533	0.17
731.848	0.17
732.163	0.17
732.477	0.17
732.792	0.16
733.107	0.16
733.421	0.16
733.736	0.16
734.05	0.17
734.364	0.17
734.678	0.17
734.993	0.17
735.307	0.16
735.621	0.16
735.935	0.16
736.249	0.16
736.563	0.16
736.877	0.16
737.19	0.16
737.504	0.16
737.818	0.16
738.131	0.16
738.445	0.16
738.758	0.16
739.072	0.15
739.385	0.15
739.698	0.15
740.012	0.15
740.325	0.15
740.638	0.15
740.951	0.15
741.264	0.15
741.577	0.15
741.89	0.15
742.203	0.15
742.515	0.16
742.828	0.15
743.141	0.15
743.453	0.15
743.766	0.15
744.078	0.15
744.391	0.15
744.703	0.14
745.015	0.14
745.327	0.14
745.639	0.14
745.952	0.14
746.264	0.13
746.575	0.14
746.887	0.13
747.199	0.14
747.511	0.13
747.823	0.13
748.134	0.13
748.446	0.13
748.757	0.13
749.069	0.12
749.38	0.12
749.692	0.12
750.003	0.12
750.314	0.12
750.625	0.12
750.936	0.12
751.248	0.11
751.559	0.11
751.869	0.11
752.18	0.11
752.491	0.11
752.802	0.11
753.112	0.1
753.423	0.1
753.734	0.1
754.044	0.1
754.355	0.1
754.665	0.1
754.975	0.1
755.285	0.09
755.596	0.09
755.906	0.09
756.216	0.09
756.526	0.08
756.836	0.08
757.146	0.09
757.455	0.09
757.765	0.09
758.075	0.08
758.385	0.08
758.694	0.08
759.004	0.08
759.313	0.08
759.622	0.07
759.932	0.08
760.241	0.07
760.55	0.07
760.859	0.08
761.168	0.08
761.477	0.07
761.786	0.07
762.095	0.07
762.404	0.07
762.713	0.07
763.021	0.06
763.33	0.07
763.639	0.06
763.947	0.06
764.256	0.06
764.564	0.06
764.872	0.06
765.181	0.06
765.489	0.06
765.797	0.06
766.105	0.06
766.413	0.06
766.721	0.06
767.029	0.05
767.337	0.05
767.644	0.06
767.952	0.06
768.26	0.06
768.567	0.05
768.875	0.06
769.182	0.06
769.49	0.05
769.797	0.05
770.104	0.05
770.411	0.04
770.718	0.05
771.026	0.04
771.333	0.04
771.639	0.05
771.946	0.05
772.253	0.05
772.56	0.05
772.867	0.04
773.173	0.04
773.48	0.04
773.786	0.04
774.093	0.04
774.399	0.04
774.705	0.04
775.012	0.04
775.318	0.04
775.624	0.04
775.93	0.04
776.236	0.04
776.542	0.04
776.848	0.04
777.154	0.04
777.459	0.04
777.765	0.04
778.071	0.04
778.376	0.04
778.682	0.04
778.987	0.04
779.292	0.04
779.598	0.04
779.903	0.04
780.208	0.04
780.513	0.04
780.818	0.04
781.123	0.04
781.428	0.04
781.733	0.04
782.038	0.04
782.343	0.04
782.647	0.04
782.952	0.04
783.256	0.04
783.561	0.04
783.865	0.04
784.17	0.04
784.474	0.04
784.778	0.04
785.082	0.04
785.386	0.04
785.69	0.04
785.994	0.04
786.298	0.04
786.602	0.04
786.906	0.03
787.209	0.04
787.513	0.04
787.817	0.04
788.12	0.04
788.424	0.04
788.727	0.04
789.03	0.04
789.333	0.04
789.637	0.04
789.94	0.04
790.243	0.04
790.546	0.04
790.849	0.04
791.152	0.04
791.454	0.04
791.757	0.04
792.06	0.04
792.362	0.04
792.665	0.04
792.967	0.04
793.27	0.04
793.572	0.04
793.874	0.03
794.177	0.04
794.479	0.04
794.781	0.04
795.083	0.04
795.385	0.04
795.687	0.04
795.989	0.04
796.29	0.04
796.592	0.04
796.894	0.04
797.195	0.03
797.497	0.04
797.798	0.04
798.1	0.03
798.401	0.04
798.702	0.04
799.003	0.04
799.304	0.04
799.605	0.03
799.906	0.04
800.207	0.03
800.508	0.04
800.809	0.04
801.11	0.04
801.41	0.04
801.711	0.04
802.011	0.04
802.312	0.04
802.612	0.04
802.913	0.04
803.213	0.04
803.513	0.05
803.813	0.04
804.113	0.05
804.413	0.05
804.713	0.05
805.013	0.05
805.313	0.05
805.613	0.04
805.912	0.04
806.212	0.05
806.511	0.04
806.811	0.04
807.11	0.05
807.41	0.04
807.709	0.04
808.008	0.04
808.307	0.04
808.606	0.04
808.905	0.04
809.204	0.04
809.503	0.03
809.802	0.04
810.101	0.04
810.399	0.04
810.698	0.03
810.997	0.03
811.295	0.03
811.593	0.03
811.892	0.03
812.19	0.03
812.488	0.04
812.786	0.04
813.084	0.04
813.383	0.03
813.68	0.03
813.978	0.03
814.276	0.03
814.574	0.03
814.872	0.03
815.169	0.03
815.467	0.03
815.764	0.03
816.062	0.03
816.359	0.03
816.656	0.03
816.954	0.03
817.251	0.03
817.548	0.03
817.845	0.03
818.142	0.04
818.439	0.04
818.735	0.03
819.032	0.04
819.329	0.04
819.626	0.03
819.922	0.03
820.219	0.03
820.515	0.04
820.811	0.03
821.108	0.03
821.404	0.03
821.7	0.03
821.996	0.03
822.292	0.03
822.588	0.03
822.884	0.03
823.18	0.03
823.475	0.03
823.771	0.04
824.067	0.03
824.362	0.04
824.658	0.04
824.953	0.04
825.249	0.04
825.544	0.04
825.839	0.05
826.134	0.04
826.429	0.04
826.724	0.04
827.019	0.04
827.314	0.04
827.609	0.04
827.904	0.04
828.198	0.03
828.493	0.03
828.787	0.04
829.082	0.03
829.376	0.03
829.671	0.04
829.965	0.04
830.259	0.04
830.553	0.03
830.847	0.04
831.141	0.04
831.435	0.03
831.729	0.04
832.023	0.04
832.317	0.04
832.61	0.04
832.904	0.04
833.197	0.04
833.491	0.04
833.784	0.03
834.077	0.04
834.371	0.04
834.664	0.04
834.957	0.04
835.25	0.03
835.543	0.04
835.836	0.04
836.129	0.04
836.421	0.04
836.714	0.04
837.007	0.04
837.299	0.05
837.592	0.05
837.884	0.05
838.177	0.04
838.469	0.04
838.761	0.05
839.053	0.04
839.345	0.05
839.637	0.04
839.929	0.04
840.221	0.05
840.513	0.04
840.805	0.04
841.096	0.04
841.388	0.04
841.68	0.04
841.971	0.04
842.262	0.04
842.554	0.03
842.845	0.04
843.136	0.03
843.427	0.04
843.718	0.04
844.009	0.03
844.3	0.04
844.591	0.04
844.882	0.03
845.173	0.03
845.463	0.04
845.754	0.04
846.044	0.04
846.335	0.03
846.625	0.04
846.915	0.04
847.206	0.04
847.496	0.05
847.786	0.04
848.076	0.04
848.366	0.03
848.656	0.05
848.945	0.04
849.235	0.05
849.525	0.05
849.814	0.05
850.104	0.04
850.393	0.05
850.683	0.04
850.972	0.04
851.261	0.04
851.551	0.05
851.84	0.05
852.129	0.03
852.418	0.04
852.707	0.02
852.995	0.03
853.284	0.04
853.573	0.03
853.862	0.04
854.15	0.01
854.439	0.03
854.727	0.04
855.015	0.04
855.304	0.04
855.592	0.04
855.88	0.04
856.168	0.04
856.456	0.03
856.744	0.04
857.032	0.03
857.32	0.04
857.607	0.04
857.895	0.05
858.183	0.06
858.47	0.04
858.757	0.03
859.045	0.05
859.332	0.05
859.619	0.05
859.907	0.05
860.194	0.03
860.481	0.05
860.768	0.04
861.054	0.04
861.341	0.04
861.628	0.06
861.915	0.05
862.201	0.05
862.488	0.04
862.774	0.03
863.061	0.02
863.347	0.02
863.633	0.05
863.919	0.04
864.205	0.03
864.491	0.05
864.777	0.04
865.063	0.05
865.349	0.04
865.635	0.01
865.92	0.05
866.206	0.06
866.492	0.05
866.777	0.05
867.062	0.03
867.348	0.03
867.633	0.03
867.918	0.04
868.203	0.06
868.488	0.02
868.773	0.08
869.058	0.02
869.343	0.03
869.628	0.04
869.912	0.04
870.197	0.05
870.482	0.07
870.766	0.08
871.05	0.07
871.335	0.04
871.619	0.06
871.903	0.07
872.187	0.06
872.471	0.04
872.755	0.03
873.039	0.03
873.323	0.07
873.607	0.07
873.89	0.02
874.174	0.05
874.458	0
874.741	0.06
875.024	0.05
875.308	0.04
875.591	0.05
875.874	-0.01
876.157	0.07
876.44	0.05
876.723	0.09
877.006	0.08
877.289	0.07
877.572	0.01
877.854	0.05
878.137	0.14
878.42	0.11
878.702	0.03
878.984	0.07
879.267	0.05
879.549	0.16
879.831	0.1
880.113	0.07
880.395	0.07
880.677	0.13
880.959	-0.01
