Data from Rubpy_EV_1500_EDTA_Buffered_Absorbance_14-50-09-941.txt Node
Date: Tue Jun 30 14:50:09 BST 2026
User: fpm-admin
Spectrometer: OFX00224
Trigger mode: 0
Integration Time (sec): 7.000000E-2
Scans to average: 3
Nonlinearity correction enabled: false
Boxcar width: 0
Storing dark spectrum: false
XAxis mode: Wavelengths
Number of Pixels in Spectrum: 2136
>>>>>Begin Spectral Data<<<<<
154.91	0.26
155.289	-0.42
155.669	-0.52
156.048	-0
156.428	-0
156.807	0.1
157.186	-0.2
157.566	-0.2
157.945	-0.34
158.325	-0.95
158.704	-0
159.083	-0
159.462	-0.6
159.842	-0
160.221	-0.35
160.6	-0
160.979	0.37
161.359	-0.72
161.738	-0
162.117	-0.67
162.496	-0.23
162.875	-0.12
163.254	1.08
163.633	-0
164.012	0.06
164.391	-0
164.77	0.35
165.149	-0
165.528	0.2
165.907	-0
166.286	-0.03
166.665	-0
167.044	0.4
167.423	-0
167.802	-0
168.181	0.05
168.559	0.03
168.938	0.5
169.317	-0.46
169.696	0.05
170.074	0.14
170.453	-0.18
170.832	-0
171.21	-0.19
171.589	-0
171.968	0.64
172.346	-0.54
172.725	-1.2
173.103	0.14
173.482	-0.6
173.861	-0.14
174.239	0.28
174.617	0.24
174.996	-0.07
175.374	0.12
175.753	-0.27
176.131	0.07
176.51	0.48
176.888	0.67
177.266	-0
177.645	-0.12
178.023	-0
178.401	-0.24
178.779	0.18
179.158	-0
179.536	-0
179.914	0.04
180.292	0.17
180.67	0.22
181.048	-0
181.427	0.46
181.805	-0.71
182.183	-0
182.561	-0.14
182.939	-0
183.317	-0
183.695	0.11
184.073	-0
184.451	-0
184.829	-0.37
185.206	0.01
185.584	-0
185.962	0.48
186.34	-0
186.718	0.28
187.096	-1.34
187.473	-0
187.851	0.01
188.229	-0
188.607	0.24
188.984	0.15
189.362	0.16
189.74	0.17
190.117	0.09
190.495	0.01
190.872	0.16
191.25	0.17
191.627	0.07
192.005	0.07
192.382	0.25
192.76	0.12
193.137	0.1
193.515	0.16
193.892	0.05
194.269	0.19
194.647	0.06
195.024	0.21
195.401	0.15
195.779	0.18
196.156	0.16
196.533	0.15
196.91	0.04
197.288	0.03
197.665	0.14
198.042	0
198.419	0.13
198.796	0.12
199.173	0.08
199.55	0.05
199.927	0.2
200.304	0.08
200.681	0.17
201.058	0.1
201.435	0.14
201.812	0.07
202.189	0.2
202.566	0.18
202.943	0.03
203.32	0.15
203.697	0.2
204.073	0.05
204.45	0.09
204.827	0.12
205.204	0.26
205.58	0.12
205.957	0.11
206.334	0.21
206.71	0.19
207.087	0.25
207.464	0.1
207.84	0.18
208.217	0.14
208.593	0.14
208.97	0.14
209.346	0.23
209.723	0.18
210.099	0.15
210.476	0.19
210.852	0.14
211.228	0.09
211.605	0.07
211.981	0.19
212.357	0.18
212.733	0.1
213.11	0.16
213.486	0.17
213.862	0.15
214.238	0.08
214.614	0.25
214.991	0.12
215.367	0.13
215.743	0.14
216.119	0.15
216.495	0.08
216.871	0.26
217.247	0.14
217.623	0.07
217.999	0.06
218.375	0.13
218.751	0.09
219.127	0.16
219.502	0.27
219.878	0.04
220.254	0.24
220.63	0.23
221.006	0.2
221.381	0.11
221.757	0.15
222.133	0.21
222.508	0.1
222.884	0.1
223.26	0.18
223.635	0.19
224.011	0.19
224.386	0.09
224.762	0.12
225.137	0.09
225.513	0.21
225.888	0.16
226.264	0.17
226.639	0.13
227.014	0.18
227.39	0.13
227.765	0.25
228.14	0.18
228.516	0.12
228.891	0.11
229.266	0.19
229.641	0.19
230.017	0.21
230.392	0.08
230.767	0.2
231.142	0.21
231.517	0.13
231.892	0.2
232.267	0.17
232.642	0.24
233.017	0.17
233.392	0.28
233.767	0.2
234.142	0.09
234.517	0.09
234.892	0.08
235.267	0.15
235.641	0.2
236.016	0.13
236.391	0.06
236.766	0.16
237.14	0.18
237.515	0.07
237.89	0.2
238.264	0.21
238.639	0.14
239.014	0.2
239.388	0.11
239.763	0.16
240.137	0.22
240.512	0.11
240.886	0.07
241.261	0.17
241.635	0.26
242.009	0.11
242.384	0.14
242.758	0.16
243.132	0.21
243.507	0.15
243.881	0.2
244.255	0.23
244.629	0.19
245.004	0.15
245.378	0.22
245.752	0.2
246.126	0.14
246.5	0.09
246.874	0.08
247.248	0.14
247.622	0.13
247.996	0.2
248.37	0.15
248.744	0.22
249.118	0.09
249.492	0.22
249.866	0.12
250.24	0.19
250.613	0.09
250.987	0.16
251.361	0.15
251.735	0.14
252.108	0.12
252.482	0.14
252.856	0.09
253.229	0.09
253.603	0.16
253.977	0.24
254.35	0.11
254.724	0.07
255.097	0.21
255.471	0.2
255.844	0.11
256.218	0.13
256.591	0.03
256.964	0.12
257.338	0.16
257.711	0.1
258.084	0.1
258.458	0.11
258.831	0.2
259.204	0.07
259.577	0.17
259.95	0.18
260.323	0.12
260.697	0.13
261.07	0.16
261.443	0.18
261.816	0.17
262.189	0.21
262.562	0.24
262.935	0.17
263.308	0.12
263.68	0.21
264.053	0.12
264.426	0.17
264.799	0.18
265.172	0.13
265.545	0.25
265.917	0.15
266.29	0.15
266.663	0.2
267.035	0.16
267.408	0.13
267.781	0.21
268.153	0.17
268.526	0.17
268.898	0.14
269.271	0.15
269.643	0.07
270.016	0.18
270.388	0.15
270.76	0.02
271.133	0.18
271.505	0.18
271.877	0.14
272.25	0.15
272.622	0.19
272.994	0.18
273.366	0.14
273.739	0.15
274.111	0.07
274.483	0.07
274.855	0.23
275.227	0.13
275.599	0.16
275.971	0.17
276.343	0.13
276.715	0.1
277.087	0.14
277.459	0.2
277.831	0.18
278.203	0.15
278.574	0.22
278.946	0.16
279.318	0.15
279.69	0.17
280.061	0.14
280.433	0.16
280.805	0.17
281.176	0.19
281.548	0.14
281.92	0.19
282.291	0.16
282.663	0.23
283.034	0.19
283.406	0.13
283.777	0.2
284.148	0.1
284.52	0.24
284.891	0.13
285.262	0.14
285.634	0.13
286.005	0.15
286.376	0.12
286.747	0.14
287.119	0.18
287.49	0.1
287.861	0.12
288.232	0.1
288.603	0.16
288.974	0.14
289.345	0.1
289.716	0.2
290.087	0.15
290.458	0.16
290.829	0.18
291.2	0.12
291.571	0.15
291.941	0.12
292.312	0.2
292.683	0.17
293.054	0.16
293.424	0.09
293.795	0.13
294.166	0.17
294.536	0.22
294.907	0.14
295.277	0.17
295.648	0.15
296.018	0.19
296.389	0.15
296.759	0.1
297.13	0.17
297.5	0.15
297.871	0.1
298.241	0.11
298.611	0.13
298.981	0.12
299.352	0.14
299.722	0.18
300.092	0.06
300.462	0.09
300.832	0.14
301.202	0.13
301.573	0.16
301.943	0.15
302.313	0.13
302.683	0.13
303.053	0.13
303.422	0.12
303.792	0.11
304.162	0.13
304.532	0.13
304.902	0.09
305.272	0.12
305.641	0.11
306.011	0.12
306.381	0.12
306.75	0.13
307.12	0.11
307.49	0.12
307.859	0.13
308.229	0.12
308.598	0.14
308.968	0.12
309.337	0.13
309.707	0.12
310.076	0.13
310.445	0.12
310.815	0.13
311.184	0.13
311.553	0.13
311.923	0.12
312.292	0.14
312.661	0.14
313.03	0.14
313.399	0.14
313.768	0.13
314.137	0.13
314.506	0.14
314.875	0.13
315.244	0.14
315.613	0.13
315.982	0.14
316.351	0.13
316.72	0.13
317.089	0.13
317.458	0.13
317.826	0.13
318.195	0.12
318.564	0.13
318.933	0.13
319.301	0.12
319.67	0.12
320.038	0.12
320.407	0.12
320.775	0.12
321.144	0.12
321.512	0.12
321.881	0.12
322.249	0.12
322.618	0.11
322.986	0.11
323.354	0.11
323.723	0.12
324.091	0.11
324.459	0.11
324.827	0.11
325.195	0.11
325.564	0.1
325.932	0.1
326.3	0.1
326.668	0.11
327.036	0.1
327.404	0.11
327.772	0.1
328.14	0.1
328.508	0.11
328.875	0.1
329.243	0.11
329.611	0.11
329.979	0.11
330.346	0.11
330.714	0.11
331.082	0.11
331.449	0.1
331.817	0.11
332.185	0.12
332.552	0.11
332.92	0.12
333.287	0.11
333.655	0.11
334.022	0.12
334.389	0.12
334.757	0.12
335.124	0.12
335.491	0.12
335.859	0.12
336.226	0.13
336.593	0.13
336.96	0.12
337.327	0.12
337.695	0.13
338.062	0.13
338.429	0.13
338.796	0.14
339.163	0.14
339.53	0.14
339.897	0.14
340.263	0.14
340.63	0.15
340.997	0.15
341.364	0.15
341.731	0.15
342.097	0.16
342.464	0.16
342.831	0.16
343.197	0.16
343.564	0.17
343.931	0.17
344.297	0.18
344.664	0.18
345.03	0.18
345.396	0.18
345.763	0.18
346.129	0.19
346.496	0.18
346.862	0.19
347.228	0.19
347.594	0.2
347.961	0.2
348.327	0.2
348.693	0.21
349.059	0.2
349.425	0.21
349.791	0.22
350.157	0.22
350.523	0.22
350.889	0.23
351.255	0.23
351.621	0.24
351.987	0.24
352.353	0.25
352.719	0.25
353.084	0.26
353.45	0.26
353.816	0.26
354.181	0.27
354.547	0.27
354.913	0.28
355.278	0.29
355.644	0.29
356.009	0.3
356.375	0.3
356.74	0.31
357.106	0.32
357.471	0.32
357.836	0.33
358.202	0.34
358.567	0.34
358.932	0.35
359.297	0.36
359.663	0.36
360.028	0.37
360.393	0.37
360.758	0.37
361.123	0.38
361.488	0.38
361.853	0.39
362.218	0.39
362.583	0.4
362.948	0.4
363.312	0.41
363.677	0.42
364.042	0.42
364.407	0.42
364.772	0.44
365.136	0.44
365.501	0.45
365.865	0.46
366.23	0.47
366.595	0.49
366.959	0.49
367.324	0.5
367.688	0.51
368.052	0.52
368.417	0.53
368.781	0.54
369.145	0.54
369.51	0.54
369.874	0.54
370.238	0.54
370.602	0.55
370.967	0.54
371.331	0.54
371.695	0.55
372.059	0.55
372.423	0.54
372.787	0.53
373.151	0.53
373.515	0.53
373.878	0.53
374.242	0.53
374.606	0.53
374.97	0.53
375.334	0.53
375.697	0.53
376.061	0.53
376.425	0.53
376.788	0.54
377.152	0.54
377.515	0.55
377.879	0.56
378.242	0.56
378.606	0.57
378.969	0.57
379.333	0.59
379.696	0.59
380.059	0.6
380.422	0.61
380.786	0.62
381.149	0.63
381.512	0.64
381.875	0.66
382.238	0.67
382.601	0.69
382.964	0.7
383.327	0.72
383.69	0.74
384.053	0.76
384.416	0.78
384.779	0.79
385.142	0.82
385.504	0.83
385.867	0.84
386.23	0.85
386.593	0.86
386.955	0.86
387.318	0.85
387.68	0.85
388.043	0.85
388.405	0.84
388.768	0.84
389.13	0.83
389.493	0.82
389.855	0.82
390.217	0.82
390.58	0.82
390.942	0.82
391.304	0.82
391.666	0.84
392.028	0.86
392.391	0.87
392.753	0.89
393.115	0.91
393.477	0.96
393.839	0.98
394.201	1.02
394.563	1.07
394.924	1.11
395.286	1.14
395.648	1.19
396.01	1.21
396.371	1.25
396.733	1.28
397.095	1.29
397.456	1.3
397.818	1.28
398.18	1.3
398.541	1.25
398.903	1.25
399.264	1.22
399.625	1.17
399.987	1.14
400.348	1.08
400.709	1.03
401.071	0.97
401.432	0.92
401.793	0.86
402.154	0.8
402.515	0.75
402.876	0.7
403.238	0.65
403.599	0.61
403.96	0.57
404.32	0.51
404.681	0.48
405.042	0.45
405.403	0.42
405.764	0.38
406.125	0.36
406.485	0.34
406.846	0.32
407.207	0.3
407.567	0.28
407.928	0.26
408.288	0.25
408.649	0.24
409.009	0.22
409.37	0.21
409.73	0.2
410.091	0.19
410.451	0.18
410.811	0.17
411.171	0.17
411.532	0.16
411.892	0.15
412.252	0.14
412.612	0.14
412.972	0.14
413.332	0.13
413.692	0.13
414.052	0.12
414.412	0.12
414.772	0.12
415.132	0.11
415.492	0.11
415.851	0.11
416.211	0.1
416.571	0.1
416.931	0.09
417.29	0.1
417.65	0.09
418.009	0.09
418.369	0.08
418.728	0.09
419.088	0.09
419.447	0.08
419.807	0.08
420.166	0.08
420.525	0.08
420.884	0.07
421.244	0.07
421.603	0.07
421.962	0.07
422.321	0.07
422.68	0.06
423.039	0.07
423.398	0.07
423.757	0.07
424.116	0.07
424.475	0.06
424.834	0.06
425.193	0.07
425.551	0.06
425.91	0.06
426.269	0.06
426.628	0.06
426.986	0.06
427.345	0.05
427.703	0.06
428.062	0.06
428.42	0.06
428.779	0.06
429.137	0.06
429.496	0.06
429.854	0.06
430.212	0.06
430.57	0.05
430.929	0.05
431.287	0.06
431.645	0.05
432.003	0.04
432.361	0.05
432.719	0.05
433.077	0.05
433.435	0.05
433.793	0.05
434.151	0.05
434.509	0.04
434.866	0.05
435.224	0.05
435.582	0.05
435.94	0.05
436.297	0.05
436.655	0.04
437.012	0.04
437.37	0.05
437.727	0.04
438.085	0.04
438.442	0.05
438.8	0.04
439.157	0.04
439.514	0.04
439.872	0.04
440.229	0.05
440.586	0.04
440.943	0.04
441.3	0.04
441.657	0.04
442.014	0.04
442.371	0.04
442.728	0.04
443.085	0.03
443.442	0.04
443.799	0.04
444.156	0.03
444.513	0.03
444.869	0.03
445.226	0.04
445.583	0.03
445.939	0.04
446.296	0.04
446.652	0.03
447.009	0.03
447.365	0.03
447.722	0.03
448.078	0.02
448.434	0.04
448.791	0.03
449.147	0.03
449.503	0.03
449.859	0.02
450.215	0.03
450.571	0.03
450.928	0.02
451.284	0.02
451.64	0.02
451.995	0.02
452.351	0.01
452.707	0.02
453.063	0.01
453.419	0.01
453.775	0.01
454.13	0.02
454.486	0.02
454.842	0
455.197	0.01
455.553	0.01
455.908	0.01
456.264	0
456.619	-0
456.975	0.01
457.33	0
457.685	-0
458.04	-0.01
458.396	-0
458.751	0
459.106	-0.01
459.461	-0.01
459.816	-0.01
460.171	-0.01
460.526	-0.02
460.881	-0.02
461.236	-0.02
461.591	-0.01
461.946	-0.02
462.301	-0.02
462.655	-0.03
463.01	-0.02
463.365	-0.03
463.719	-0.02
464.074	-0.04
464.428	-0.05
464.783	-0.03
465.137	-0.05
465.492	-0.05
465.846	-0.04
466.201	-0.04
466.555	-0.04
466.909	-0.04
467.263	-0.04
467.618	-0.04
467.972	-0.04
468.326	-0.04
468.68	-0.05
469.034	-0.05
469.388	-0.05
469.742	-0.04
470.096	-0.05
470.45	-0.05
470.804	-0.04
471.157	-0.04
471.511	-0.05
471.865	-0.04
472.218	-0.04
472.572	-0.04
472.926	-0.04
473.279	-0.03
473.633	-0.03
473.986	-0.03
474.34	-0.03
474.693	-0.03
475.046	-0.02
475.4	-0.02
475.753	-0.01
476.106	-0.01
476.459	-0.01
476.812	-0
477.165	-0
477.519	-0
477.872	0
478.224	0.01
478.577	0.01
478.93	0.01
479.283	0.01
479.636	0.01
479.989	0.02
480.341	0.02
480.694	0.02
481.047	0.02
481.399	0.02
481.752	0.02
482.104	0.03
482.457	0.03
482.809	0.03
483.162	0.03
483.514	0.02
483.866	0.03
484.219	0.03
484.571	0.04
484.923	0.04
485.275	0.04
485.627	0.04
485.979	0.04
486.331	0.04
486.683	0.05
487.035	0.05
487.387	0.05
487.739	0.05
488.091	0.05
488.443	0.05
488.794	0.05
489.146	0.05
489.498	0.05
489.849	0.05
490.201	0.05
490.552	0.06
490.904	0.06
491.255	0.06
491.607	0.06
491.958	0.06
492.309	0.06
492.661	0.06
493.012	0.06
493.363	0.06
493.714	0.06
494.065	0.06
494.416	0.06
494.767	0.07
495.118	0.07
495.469	0.07
495.82	0.07
496.171	0.07
496.522	0.07
496.872	0.08
497.223	0.07
497.574	0.08
497.924	0.08
498.275	0.08
498.626	0.08
498.976	0.08
499.327	0.08
499.677	0.08
500.027	0.08
500.378	0.09
500.728	0.09
501.078	0.09
501.428	0.08
501.779	0.09
502.129	0.1
502.479	0.09
502.829	0.1
503.179	0.1
503.529	0.1
503.879	0.1
504.229	0.1
504.578	0.1
504.928	0.1
505.278	0.1
505.628	0.1
505.977	0.11
506.327	0.1
506.676	0.1
507.026	0.11
507.375	0.11
507.725	0.11
508.074	0.11
508.424	0.11
508.773	0.11
509.122	0.12
509.471	0.11
509.82	0.12
510.17	0.12
510.519	0.12
510.868	0.12
511.217	0.12
511.566	0.13
511.915	0.12
512.263	0.13
512.612	0.12
512.961	0.12
513.31	0.13
513.659	0.13
514.007	0.13
514.356	0.13
514.704	0.14
515.053	0.14
515.401	0.13
515.75	0.14
516.098	0.14
516.447	0.14
516.795	0.14
517.143	0.14
517.491	0.14
517.839	0.14
518.188	0.14
518.536	0.14
518.884	0.14
519.232	0.14
519.58	0.15
519.928	0.15
520.275	0.15
520.623	0.15
520.971	0.15
521.319	0.15
521.666	0.15
522.014	0.16
522.362	0.16
522.709	0.16
523.057	0.16
523.404	0.16
523.752	0.16
524.099	0.16
524.446	0.16
524.794	0.16
525.141	0.17
525.488	0.17
525.835	0.17
526.182	0.17
526.529	0.17
526.876	0.17
527.223	0.18
527.57	0.17
527.917	0.18
528.264	0.18
528.611	0.18
528.958	0.18
529.304	0.19
529.651	0.19
529.998	0.19
530.344	0.19
530.691	0.19
531.037	0.19
531.384	0.19
531.73	0.19
532.076	0.19
532.423	0.19
532.769	0.19
533.115	0.2
533.461	0.2
533.807	0.2
534.154	0.2
534.5	0.2
534.846	0.2
535.192	0.2
535.537	0.21
535.883	0.21
536.229	0.21
536.575	0.22
536.921	0.21
537.266	0.21
537.612	0.22
537.957	0.22
538.303	0.22
538.649	0.22
538.994	0.22
539.339	0.22
539.685	0.22
540.03	0.23
540.375	0.23
540.721	0.23
541.066	0.23
541.411	0.24
541.756	0.24
542.101	0.24
542.446	0.24
542.791	0.24
543.136	0.24
543.481	0.24
543.825	0.24
544.17	0.25
544.515	0.25
544.86	0.25
545.204	0.26
545.549	0.26
545.893	0.26
546.238	0.26
546.582	0.26
546.927	0.26
547.271	0.26
547.615	0.26
547.96	0.27
548.304	0.27
548.648	0.27
548.992	0.27
549.336	0.28
549.68	0.28
550.024	0.28
550.368	0.28
550.712	0.28
551.056	0.28
551.4	0.28
551.743	0.28
552.087	0.29
552.431	0.28
552.774	0.29
553.118	0.29
553.462	0.29
553.805	0.29
554.148	0.29
554.492	0.29
554.835	0.29
555.178	0.3
555.522	0.29
555.865	0.3
556.208	0.29
556.551	0.3
556.894	0.3
557.237	0.3
557.58	0.3
557.923	0.31
558.266	0.3
558.609	0.31
558.952	0.31
559.294	0.31
559.637	0.31
559.98	0.31
560.322	0.32
560.665	0.31
561.007	0.32
561.35	0.32
561.692	0.32
562.034	0.32
562.377	0.32
562.719	0.32
563.061	0.32
563.403	0.32
563.745	0.32
564.088	0.32
564.43	0.32
564.772	0.32
565.113	0.32
565.455	0.32
565.797	0.32
566.139	0.32
566.481	0.32
566.822	0.33
567.164	0.33
567.506	0.33
567.847	0.33
568.189	0.33
568.53	0.33
568.872	0.33
569.213	0.33
569.554	0.33
569.895	0.33
570.237	0.33
570.578	0.33
570.919	0.33
571.26	0.32
571.601	0.33
571.942	0.33
572.283	0.33
572.624	0.33
572.965	0.33
573.306	0.33
573.646	0.33
573.987	0.33
574.328	0.33
574.668	0.33
575.009	0.33
575.349	0.33
575.69	0.33
576.03	0.33
576.37	0.33
576.711	0.32
577.051	0.33
577.391	0.33
577.731	0.33
578.072	0.33
578.412	0.33
578.752	0.33
579.092	0.33
579.431	0.32
579.771	0.32
580.111	0.31
580.451	0.32
580.791	0.32
581.13	0.33
581.47	0.33
581.81	0.33
582.149	0.33
582.489	0.33
582.828	0.33
583.167	0.33
583.507	0.3
583.846	0.28
584.185	0.3
584.525	0.32
584.864	0.33
585.203	0.34
585.542	0.35
585.881	0.34
586.22	0.35
586.559	0.35
586.898	0.34
587.236	0.34
587.575	0.34
587.914	0.34
588.252	0.35
588.591	0.36
588.93	0.36
589.268	0.35
589.607	0.35
589.945	0.36
590.283	0.36
590.622	0.36
590.96	0.37
591.298	0.37
591.636	0.37
591.974	0.37
592.313	0.37
592.651	0.38
592.989	0.38
593.326	0.37
593.664	0.38
594.002	0.38
594.34	0.38
594.678	0.38
595.015	0.38
595.353	0.37
595.691	0.38
596.028	0.38
596.366	0.39
596.703	0.39
597.04	0.39
597.378	0.39
597.715	0.4
598.052	0.4
598.389	0.4
598.726	0.41
599.064	0.41
599.401	0.41
599.738	0.41
600.074	0.4
600.411	0.41
600.748	0.4
601.085	0.4
601.422	0.4
601.758	0.4
602.095	0.4
602.432	0.41
602.768	0.4
603.105	0.41
603.441	0.41
603.777	0.41
604.114	0.41
604.45	0.41
604.786	0.41
605.122	0.41
605.459	0.41
605.795	0.41
606.131	0.41
606.467	0.41
606.803	0.41
607.139	0.41
607.474	0.41
607.81	0.4
608.146	0.41
608.482	0.41
608.817	0.4
609.153	0.4
609.488	0.4
609.824	0.4
610.159	0.4
610.495	0.4
610.83	0.4
611.165	0.4
611.5	0.4
611.836	0.4
612.171	0.4
612.506	0.4
612.841	0.4
613.176	0.4
613.511	0.4
613.845	0.39
614.18	0.39
614.515	0.39
614.85	0.39
615.184	0.39
615.519	0.39
615.854	0.39
616.188	0.38
616.523	0.38
616.857	0.38
617.191	0.38
617.526	0.38
617.86	0.38
618.194	0.38
618.528	0.38
618.862	0.38
619.196	0.38
619.53	0.38
619.864	0.38
620.198	0.38
620.532	0.37
620.866	0.37
621.2	0.37
621.533	0.37
621.867	0.37
622.201	0.36
622.534	0.37
622.868	0.36
623.201	0.36
623.534	0.36
623.868	0.36
624.201	0.36
624.534	0.36
624.868	0.35
625.201	0.35
625.534	0.35
625.867	0.35
626.2	0.35
626.533	0.35
626.865	0.35
627.198	0.34
627.531	0.35
627.864	0.34
628.196	0.34
628.529	0.34
628.862	0.34
629.194	0.34
629.527	0.33
629.859	0.33
630.191	0.33
630.524	0.33
630.856	0.33
631.188	0.32
631.52	0.32
631.852	0.32
632.184	0.32
632.516	0.32
632.848	0.31
633.18	0.31
633.512	0.31
633.844	0.31
634.175	0.3
634.507	0.3
634.839	0.3
635.17	0.3
635.502	0.3
635.833	0.29
636.165	0.29
636.496	0.29
636.827	0.29
637.159	0.29
637.49	0.29
637.821	0.28
638.152	0.28
638.483	0.28
638.814	0.27
639.145	0.27
639.476	0.27
639.807	0.27
640.137	0.27
640.468	0.26
640.799	0.26
641.129	0.26
641.46	0.26
641.791	0.25
642.121	0.25
642.451	0.25
642.782	0.25
643.112	0.24
643.442	0.24
643.773	0.24
644.103	0.24
644.433	0.24
644.763	0.24
645.093	0.24
645.423	0.23
645.753	0.23
646.082	0.23
646.412	0.23
646.742	0.23
647.072	0.23
647.401	0.23
647.731	0.23
648.06	0.23
648.39	0.23
648.719	0.23
649.048	0.23
649.378	0.22
649.707	0.22
650.036	0.22
650.365	0.22
650.694	0.22
651.023	0.22
651.352	0.22
651.681	0.22
652.01	0.22
652.339	0.22
652.668	0.22
652.996	0.22
653.325	0.22
653.654	0.22
653.982	0.22
654.311	0.22
654.639	0.22
654.967	0.22
655.296	0.22
655.624	0.22
655.952	0.22
656.28	0.22
656.609	0.21
656.937	0.22
657.265	0.22
657.593	0.18
657.92	0.05
658.248	0.01
658.576	0.01
658.904	0.08
659.231	0.17
659.559	0.21
659.887	0.21
660.214	0.21
660.542	0.21
660.869	0.21
661.196	0.21
661.524	0.21
661.851	0.21
662.178	0.21
662.505	0.21
662.832	0.21
663.159	0.21
663.486	0.2
663.813	0.21
664.14	0.21
664.467	0.21
664.794	0.2
665.12	0.21
665.447	0.21
665.774	0.21
666.1	0.2
666.427	0.2
666.753	0.2
667.079	0.2
667.406	0.2
667.732	0.21
668.058	0.2
668.384	0.21
668.71	0.2
669.036	0.2
669.362	0.2
669.688	0.2
670.014	0.2
670.34	0.2
670.666	0.2
670.991	0.19
671.317	0.19
671.643	0.19
671.968	0.19
672.294	0.19
672.619	0.19
672.945	0.19
673.27	0.19
673.595	0.19
673.92	0.19
674.246	0.19
674.571	0.19
674.896	0.19
675.221	0.19
675.546	0.18
675.87	0.18
676.195	0.18
676.52	0.18
676.845	0.18
677.169	0.18
677.494	0.18
677.819	0.17
678.143	0.17
678.468	0.17
678.792	0.17
679.116	0.17
679.44	0.17
679.765	0.17
680.089	0.17
680.413	0.16
680.737	0.16
681.061	0.16
681.385	0.16
681.709	0.16
682.033	0.15
682.356	0.15
682.68	0.15
683.004	0.15
683.327	0.14
683.651	0.14
683.974	0.14
684.298	0.14
684.621	0.14
684.944	0.14
685.268	0.14
685.591	0.14
685.914	0.14
686.237	0.14
686.56	0.13
686.883	0.13
687.206	0.13
687.529	0.13
687.852	0.12
688.175	0.12
688.497	0.12
688.82	0.12
689.142	0.12
689.465	0.12
689.787	0.12
690.11	0.12
690.432	0.12
690.755	0.11
691.077	0.11
691.399	0.11
691.721	0.11
692.043	0.11
692.365	0.11
692.687	0.11
693.009	0.1
693.331	0.1
693.653	0.1
693.974	0.1
694.296	0.1
694.618	0.1
694.939	0.1
695.261	0.1
695.582	0.1
695.904	0.1
696.225	0.09
696.546	0.1
696.868	0.09
697.189	0.09
697.51	0.09
697.831	0.09
698.152	0.09
698.473	0.09
698.794	0.09
699.114	0.09
699.435	0.08
699.756	0.08
700.077	0.08
700.397	0.08
700.718	0.08
701.038	0.08
701.359	0.08
701.679	0.08
701.999	0.08
702.32	0.08
702.64	0.08
702.96	0.08
703.28	0.08
703.6	0.08
703.92	0.08
704.24	0.08
704.56	0.08
704.879	0.07
705.199	0.07
705.519	0.07
705.838	0.07
706.158	0.07
706.478	0.07
706.797	0.07
707.116	0.07
707.436	0.07
707.755	0.07
708.074	0.07
708.393	0.07
708.712	0.07
709.031	0.07
709.35	0.07
709.669	0.07
709.988	0.07
710.307	0.07
710.626	0.07
710.944	0.07
711.263	0.07
711.582	0.07
711.9	0.07
712.219	0.07
712.537	0.07
712.855	0.07
713.174	0.07
713.492	0.07
713.81	0.07
714.128	0.07
714.446	0.07
714.764	0.06
715.082	0.06
715.4	0.07
715.718	0.07
716.035	0.06
716.353	0.06
716.671	0.06
716.988	0.06
717.306	0.06
717.623	0.06
717.941	0.07
718.258	0.07
718.575	0.07
718.893	0.07
719.21	0.07
719.527	0.07
719.844	0.07
720.161	0.07
720.478	0.07
720.795	0.07
721.112	0.07
721.428	0.07
721.745	0.07
722.062	0.07
722.378	0.07
722.695	0.07
723.011	0.07
723.328	0.07
723.644	0.07
723.96	0.07
724.276	0.07
724.593	0.07
724.909	0.07
725.225	0.07
725.541	0.07
725.857	0.07
726.173	0.08
726.488	0.08
726.804	0.07
727.12	0.07
727.435	0.08
727.751	0.08
728.067	0.08
728.382	0.08
728.697	0.08
729.013	0.08
729.328	0.07
729.643	0.08
729.958	0.08
730.273	0.08
730.588	0.08
730.903	0.08
731.218	0.08
731.533	0.08
731.848	0.08
732.163	0.08
732.477	0.08
732.792	0.08
733.107	0.07
733.421	0.08
733.736	0.08
734.05	0.08
734.364	0.08
734.678	0.08
734.993	0.08
735.307	0.08
735.621	0.07
735.935	0.07
736.249	0.07
736.563	0.08
736.877	0.08
737.19	0.08
737.504	0.08
737.818	0.07
738.131	0.07
738.445	0.07
738.758	0.07
739.072	0.07
739.385	0.07
739.698	0.07
740.012	0.07
740.325	0.07
740.638	0.07
740.951	0.07
741.264	0.07
741.577	0.07
741.89	0.08
742.203	0.07
742.515	0.08
742.828	0.08
743.141	0.07
743.453	0.08
743.766	0.07
744.078	0.07
744.391	0.07
744.703	0.07
745.015	0.07
745.327	0.07
745.639	0.07
745.952	0.07
746.264	0.07
746.575	0.07
746.887	0.07
747.199	0.06
747.511	0.06
747.823	0.06
748.134	0.06
748.446	0.06
748.757	0.06
749.069	0.06
749.38	0.06
749.692	0.06
750.003	0.06
750.314	0.06
750.625	0.06
750.936	0.06
751.248	0.05
751.559	0.05
751.869	0.05
752.18	0.05
752.491	0.05
752.802	0.05
753.112	0.05
753.423	0.05
753.734	0.05
754.044	0.05
754.355	0.05
754.665	0.05
754.975	0.05
755.285	0.04
755.596	0.04
755.906	0.04
756.216	0.04
756.526	0.04
756.836	0.04
757.146	0.04
757.455	0.04
757.765	0.04
758.075	0.04
758.385	0.04
758.694	0.03
759.004	0.03
759.313	0.03
759.622	0.03
759.932	0.03
760.241	0.03
760.55	0.03
760.859	0.03
761.168	0.04
761.477	0.03
761.786	0.03
762.095	0.03
762.404	0.03
762.713	0.03
763.021	0.03
763.33	0.03
763.639	0.03
763.947	0.02
764.256	0.02
764.564	0.02
764.872	0.02
765.181	0.02
765.489	0.02
765.797	0.02
766.105	0.02
766.413	0.02
766.721	0.02
767.029	0.02
767.337	0.02
767.644	0.03
767.952	0.03
768.26	0.03
768.567	0.03
768.875	0.03
769.182	0.03
769.49	0.03
769.797	0.02
770.104	0.02
770.411	0.02
770.718	0.02
771.026	0.02
771.333	0.02
771.639	0.02
771.946	0.02
772.253	0.02
772.56	0.02
772.867	0.02
773.173	0.02
773.48	0.02
773.786	0.02
774.093	0.02
774.399	0.02
774.705	0.02
775.012	0.02
775.318	0.02
775.624	0.02
775.93	0.02
776.236	0.02
776.542	0.02
776.848	0.02
777.154	0.02
777.459	0.02
777.765	0.02
778.071	0.02
778.376	0.02
778.682	0.02
778.987	0.02
779.292	0.02
779.598	0.02
779.903	0.02
780.208	0.02
780.513	0.02
780.818	0.02
781.123	0.02
781.428	0.02
781.733	0.02
782.038	0.02
782.343	0.02
782.647	0.02
782.952	0.01
783.256	0.02
783.561	0.02
783.865	0.02
784.17	0.02
784.474	0.02
784.778	0.02
785.082	0.02
785.386	0.02
785.69	0.02
785.994	0.02
786.298	0.02
786.602	0.02
786.906	0.02
787.209	0.01
787.513	0.02
787.817	0.01
788.12	0.01
788.424	0.02
788.727	0.02
789.03	0.02
789.333	0.02
789.637	0.02
789.94	0.02
790.243	0.02
790.546	0.02
790.849	0.02
791.152	0.02
791.454	0.02
791.757	0.02
792.06	0.02
792.362	0.02
792.665	0.02
792.967	0.02
793.27	0.02
793.572	0.02
793.874	0.02
794.177	0.02
794.479	0.02
794.781	0.02
795.083	0.02
795.385	0.02
795.687	0.02
795.989	0.02
796.29	0.02
796.592	0.02
796.894	0.02
797.195	0.02
797.497	0.02
797.798	0.02
798.1	0.02
798.401	0.02
798.702	0.02
799.003	0.02
799.304	0.02
799.605	0.02
799.906	0.02
800.207	0.02
800.508	0.02
800.809	0.02
801.11	0.02
801.41	0.02
801.711	0.02
802.011	0.02
802.312	0.02
802.612	0.02
802.913	0.02
803.213	0.02
803.513	0.03
803.813	0.02
804.113	0.02
804.413	0.02
804.713	0.03
805.013	0.03
805.313	0.03
805.613	0.03
805.912	0.02
806.212	0.03
806.511	0.03
806.811	0.03
807.11	0.03
807.41	0.03
807.709	0.03
808.008	0.03
808.307	0.02
808.606	0.02
808.905	0.02
809.204	0.03
809.503	0.02
809.802	0.02
810.101	0.02
810.399	0.02
810.698	0.02
810.997	0.02
811.295	0.02
811.593	0.02
811.892	0.01
812.19	0.02
812.488	0.02
812.786	0.02
813.084	0.02
813.383	0.02
813.68	0.02
813.978	0.02
814.276	0.01
814.574	0.02
814.872	0.02
815.169	0.02
815.467	0.02
815.764	0.02
816.062	0.02
816.359	0.02
816.656	0.02
816.954	0.02
817.251	0.01
817.548	0.02
817.845	0.02
818.142	0.02
818.439	0.02
818.735	0.02
819.032	0.02
819.329	0.02
819.626	0.02
819.922	0.02
820.219	0.02
820.515	0.02
820.811	0.02
821.108	0.02
821.404	0.02
821.7	0.01
821.996	0.02
822.292	0.01
822.588	0.02
822.884	0.02
823.18	0.01
823.475	0.02
823.771	0.02
824.067	0.02
824.362	0.02
824.658	0.03
824.953	0.03
825.249	0.03
825.544	0.03
825.839	0.03
826.134	0.03
826.429	0.03
826.724	0.03
827.019	0.02
827.314	0.02
827.609	0.02
827.904	0.02
828.198	0.01
828.493	0.02
828.787	0.01
829.082	0.01
829.376	0.02
829.671	0.02
829.965	0.01
830.259	0.02
830.553	0.02
830.847	0.02
831.141	0.02
831.435	0.02
831.729	0.02
832.023	0.03
832.317	0.02
832.61	0.03
832.904	0.02
833.197	0.02
833.491	0.02
833.784	0.01
834.077	0.02
834.371	0.02
834.664	0.02
834.957	0.02
835.25	0.01
835.543	0.02
835.836	0.02
836.129	0.02
836.421	0.02
836.714	0.03
837.007	0.02
837.299	0.03
837.592	0.03
837.884	0.03
838.177	0.03
838.469	0.03
838.761	0.04
839.053	0.03
839.345	0.03
839.637	0.03
839.929	0.02
840.221	0.03
840.513	0.02
840.805	0.02
841.096	0.02
841.388	0.02
841.68	0.02
841.971	0.03
842.262	0.03
842.554	0.03
842.845	0.02
843.136	0.02
843.427	0.02
843.718	0.03
844.009	0.02
844.3	0.02
844.591	0.02
844.882	0.01
845.173	0.03
845.463	0.02
845.754	0.02
846.044	0.02
846.335	0.01
846.625	0.02
846.915	0.02
847.206	0.03
847.496	0.03
847.786	0.03
848.076	0.03
848.366	0.02
848.656	0.03
848.945	0.02
849.235	0.03
849.525	0.04
849.814	0.03
850.104	0.04
850.393	0.02
850.683	0.02
850.972	0.02
851.261	0.03
851.551	0.04
851.84	0.02
852.129	0.02
852.418	0.03
852.707	0.02
852.995	0.03
853.284	0.02
853.573	0.02
853.862	0.02
854.15	0
854.439	0.03
854.727	0.02
855.015	0.02
855.304	0.01
855.592	0.02
855.88	0.03
856.168	0.03
856.456	0.03
856.744	0.02
857.032	0.03
857.32	0.01
857.607	0.02
857.895	0.02
858.183	0.02
858.47	0.02
858.757	0
859.045	0.02
859.332	0.03
859.619	0.02
859.907	0.02
860.194	0.01
860.481	0.02
860.768	0.02
861.054	0.02
861.341	0.03
861.628	0.03
861.915	0.04
862.201	0.04
862.488	0.04
862.774	0.02
863.061	0.02
863.347	0
863.633	0.02
863.919	0.02
864.205	0.03
864.491	0.05
864.777	0.03
865.063	0.02
865.349	0.02
865.635	0.02
865.92	0.03
866.206	0.02
866.492	0.05
866.777	0.01
867.062	0.02
867.348	0.01
867.633	-0.01
867.918	0.01
868.203	0.03
868.488	0.02
868.773	0.01
869.058	0.01
869.343	0.01
869.628	0.05
869.912	0.04
870.197	-0.01
870.482	0.03
870.766	0.06
871.05	0.04
871.335	0.02
871.619	0.04
871.903	0.03
872.187	0.06
872.471	0
872.755	0.02
873.039	0.04
873.323	0.03
873.607	0.05
873.89	-0.01
874.174	0.03
874.458	0.02
874.741	0.02
875.024	0.01
875.308	-0.04
875.591	-0.03
875.874	0.01
876.157	0.03
876.44	-0.04
876.723	0.03
877.006	0.06
877.289	0.05
877.572	0.11
877.854	0.08
878.137	0.07
878.42	0.06
878.702	0.08
878.984	0.01
879.267	0.05
879.549	0.04
879.831	0.04
880.113	0.09
880.395	0.08
880.677	0.04
880.959	-0.03
