Data from Rubpy_EV_1500_EDTA_Buffered_Absorbance_15-05-52-951.txt Node
Date: Tue Jun 30 15:05:52 BST 2026
User: fpm-admin
Spectrometer: OFX00224
Trigger mode: 0
Integration Time (sec): 7.000000E-2
Scans to average: 3
Nonlinearity correction enabled: false
Boxcar width: 0
Storing dark spectrum: false
XAxis mode: Wavelengths
Number of Pixels in Spectrum: 2136
>>>>>Begin Spectral Data<<<<<
154.91	0.1
155.289	-0.23
155.669	-0.07
156.048	-0
156.428	-0
156.807	0.26
157.186	-0.52
157.566	-0.11
157.945	-0
158.325	-1.11
158.704	-0.85
159.083	-0
159.462	-0.6
159.842	-0.21
160.221	-0.46
160.6	-0
160.979	0.72
161.359	0.3
161.738	0.03
162.117	0.06
162.496	0.85
162.875	-0
163.254	-0.34
163.633	0.15
164.012	-0
164.391	0.73
164.77	0.16
165.149	-0
165.528	0.2
165.907	-0.17
166.286	0.3
166.665	-0.75
167.044	0.27
167.423	-0
167.802	-0
168.181	0.02
168.559	-0
168.938	0.15
169.317	-0.33
169.696	1.11
170.074	0.12
170.453	-0
170.832	-0
171.21	0.09
171.589	-0
171.968	0.04
172.346	-0.43
172.725	-1.15
173.103	-0.33
173.482	-0.92
173.861	0.25
174.239	-0.21
174.617	-0.08
174.996	-0.34
175.374	0.02
175.753	-0
176.131	0.73
176.51	-0
176.888	-0
177.266	-0
177.645	-0.06
178.023	0.68
178.401	-0.34
178.779	0.12
179.158	-0
179.536	-0.21
179.914	0.34
180.292	0.4
180.67	0.11
181.048	0.3
181.427	-0
181.805	-0
182.183	-0
182.561	0.07
182.939	-0
183.317	-0
183.695	-0.02
184.073	-0.13
184.451	-0.04
184.829	0.38
185.206	-0.12
185.584	-0.1
185.962	0.26
186.34	0.7
186.718	0.75
187.096	-0.95
187.473	-0
187.851	0.17
188.229	0.48
188.607	0.27
188.984	0.25
189.362	0.22
189.74	0.16
190.117	0.08
190.495	0.16
190.872	0.12
191.25	0.19
191.627	0.18
192.005	0.25
192.382	0.19
192.76	0.22
193.137	0.1
193.515	0.32
193.892	0.22
194.269	0.16
194.647	0.18
195.024	0.12
195.401	0.25
195.779	0.39
196.156	0.23
196.533	0.22
196.91	0.23
197.288	0.14
197.665	0.16
198.042	0.19
198.419	0.29
198.796	0.13
199.173	0.13
199.55	0.17
199.927	0.36
200.304	0.18
200.681	0.33
201.058	0.1
201.435	0.24
201.812	0.27
202.189	0.31
202.566	0.26
202.943	0.14
203.32	0.24
203.697	0.26
204.073	0.18
204.45	0.11
204.827	0.29
205.204	0.31
205.58	0.2
205.957	0.27
206.334	0.23
206.71	0.12
207.087	0.27
207.464	0.25
207.84	0.2
208.217	0.26
208.593	0.31
208.97	0.21
209.346	0.16
209.723	0.21
210.099	0.23
210.476	0.28
210.852	0.23
211.228	0.17
211.605	0.15
211.981	0.18
212.357	0.32
212.733	0.25
213.11	0.31
213.486	0.16
213.862	0.28
214.238	0.14
214.614	0.37
214.991	0.22
215.367	0.21
215.743	0.19
216.119	0.18
216.495	0.17
216.871	0.25
217.247	0.1
217.623	0.18
217.999	0.17
218.375	0.28
218.751	0.15
219.127	0.27
219.502	0.23
219.878	0.11
220.254	0.29
220.63	0.19
221.006	0.22
221.381	0.21
221.757	0.23
222.133	0.27
222.508	0.17
222.884	0.16
223.26	0.22
223.635	0.33
224.011	0.24
224.386	0.19
224.762	0.24
225.137	0.14
225.513	0.18
225.888	0.21
226.264	0.33
226.639	0.3
227.014	0.24
227.39	0.28
227.765	0.25
228.14	0.16
228.516	0.3
228.891	0.14
229.266	0.25
229.641	0.35
230.017	0.26
230.392	0.28
230.767	0.19
231.142	0.22
231.517	0.28
231.892	0.16
232.267	0.24
232.642	0.3
233.017	0.25
233.392	0.35
233.767	0.44
234.142	0.18
234.517	0.2
234.892	0.13
235.267	0.28
235.641	0.33
236.016	0.24
236.391	0.17
236.766	0.41
237.14	0.18
237.515	0.19
237.89	0.24
238.264	0.27
238.639	0.35
239.014	0.24
239.388	0.24
239.763	0.33
240.137	0.28
240.512	0.12
240.886	0.15
241.261	0.24
241.635	0.37
242.009	0.18
242.384	0.3
242.758	0.24
243.132	0.23
243.507	0.31
243.881	0.32
244.255	0.24
244.629	0.25
245.004	0.25
245.378	0.3
245.752	0.22
246.126	0.25
246.5	0.23
246.874	0.1
247.248	0.17
247.622	0.3
247.996	0.3
248.37	0.18
248.744	0.22
249.118	0.11
249.492	0.33
249.866	0.21
250.24	0.24
250.613	0.21
250.987	0.2
251.361	0.25
251.735	0.22
252.108	0.33
252.482	0.14
252.856	0.16
253.229	0.2
253.603	0.3
253.977	0.24
254.35	0.26
254.724	0.27
255.097	0.18
255.471	0.37
255.844	0.31
256.218	0.2
256.591	0.12
256.964	0.28
257.338	0.33
257.711	0.23
258.084	0.24
258.458	0.35
258.831	0.24
259.204	0.22
259.577	0.32
259.95	0.22
260.323	0.18
260.697	0.23
261.07	0.26
261.443	0.24
261.816	0.13
262.189	0.22
262.562	0.22
262.935	0.28
263.308	0.2
263.68	0.28
264.053	0.2
264.426	0.19
264.799	0.22
265.172	0.27
265.545	0.37
265.917	0.23
266.29	0.14
266.663	0.31
267.035	0.21
267.408	0.24
267.781	0.2
268.153	0.23
268.526	0.26
268.898	0.21
269.271	0.36
269.643	0.27
270.016	0.23
270.388	0.31
270.76	0.18
271.133	0.28
271.505	0.22
271.877	0.28
272.25	0.28
272.622	0.29
272.994	0.28
273.366	0.23
273.739	0.31
274.111	0.24
274.483	0.25
274.855	0.3
275.227	0.22
275.599	0.22
275.971	0.36
276.343	0.22
276.715	0.17
277.087	0.16
277.459	0.26
277.831	0.28
278.203	0.28
278.574	0.28
278.946	0.28
279.318	0.13
279.69	0.25
280.061	0.22
280.433	0.26
280.805	0.23
281.176	0.3
281.548	0.19
281.92	0.3
282.291	0.28
282.663	0.3
283.034	0.28
283.406	0.27
283.777	0.27
284.148	0.17
284.52	0.36
284.891	0.26
285.262	0.28
285.634	0.26
286.005	0.23
286.376	0.19
286.747	0.16
287.119	0.24
287.49	0.18
287.861	0.19
288.232	0.13
288.603	0.28
288.974	0.24
289.345	0.11
289.716	0.28
290.087	0.26
290.458	0.26
290.829	0.32
291.2	0.26
291.571	0.26
291.941	0.23
292.312	0.25
292.683	0.32
293.054	0.25
293.424	0.17
293.795	0.29
294.166	0.25
294.536	0.28
294.907	0.22
295.277	0.24
295.648	0.24
296.018	0.27
296.389	0.24
296.759	0.26
297.13	0.22
297.5	0.23
297.871	0.28
298.241	0.22
298.611	0.24
298.981	0.23
299.352	0.21
299.722	0.22
300.092	0.19
300.462	0.17
300.832	0.24
301.202	0.22
301.573	0.23
301.943	0.23
302.313	0.21
302.683	0.21
303.053	0.22
303.422	0.21
303.792	0.21
304.162	0.21
304.532	0.19
304.902	0.21
305.272	0.2
305.641	0.22
306.011	0.22
306.381	0.2
306.75	0.21
307.12	0.21
307.49	0.21
307.859	0.22
308.229	0.22
308.598	0.24
308.968	0.23
309.337	0.23
309.707	0.23
310.076	0.24
310.445	0.24
310.815	0.24
311.184	0.24
311.553	0.24
311.923	0.25
312.292	0.24
312.661	0.25
313.03	0.25
313.399	0.25
313.768	0.25
314.137	0.25
314.506	0.25
314.875	0.25
315.244	0.26
315.613	0.25
315.982	0.25
316.351	0.24
316.72	0.24
317.089	0.24
317.458	0.24
317.826	0.24
318.195	0.24
318.564	0.24
318.933	0.24
319.301	0.23
319.67	0.23
320.038	0.22
320.407	0.22
320.775	0.22
321.144	0.22
321.512	0.22
321.881	0.22
322.249	0.22
322.618	0.21
322.986	0.22
323.354	0.21
323.723	0.21
324.091	0.21
324.459	0.21
324.827	0.21
325.195	0.21
325.564	0.2
325.932	0.2
326.3	0.2
326.668	0.2
327.036	0.2
327.404	0.21
327.772	0.2
328.14	0.2
328.508	0.21
328.875	0.2
329.243	0.2
329.611	0.21
329.979	0.21
330.346	0.2
330.714	0.21
331.082	0.2
331.449	0.21
331.817	0.22
332.185	0.21
332.552	0.21
332.92	0.22
333.287	0.21
333.655	0.23
334.022	0.23
334.389	0.23
334.757	0.23
335.124	0.24
335.491	0.23
335.859	0.24
336.226	0.24
336.593	0.24
336.96	0.24
337.327	0.25
337.695	0.25
338.062	0.26
338.429	0.26
338.796	0.27
339.163	0.27
339.53	0.27
339.897	0.27
340.263	0.27
340.63	0.29
340.997	0.29
341.364	0.29
341.731	0.3
342.097	0.3
342.464	0.31
342.831	0.31
343.197	0.32
343.564	0.33
343.931	0.33
344.297	0.33
344.664	0.34
345.03	0.34
345.396	0.35
345.763	0.35
346.129	0.36
346.496	0.36
346.862	0.36
347.228	0.37
347.594	0.38
347.961	0.38
348.327	0.39
348.693	0.39
349.059	0.4
349.425	0.41
349.791	0.41
350.157	0.41
350.523	0.44
350.889	0.43
351.255	0.45
351.621	0.45
351.987	0.46
352.353	0.48
352.719	0.47
353.084	0.49
353.45	0.5
353.816	0.51
354.181	0.52
354.547	0.53
354.913	0.54
355.278	0.55
355.644	0.55
356.009	0.57
356.375	0.58
356.74	0.59
357.106	0.61
357.471	0.61
357.836	0.63
358.202	0.64
358.567	0.65
358.932	0.67
359.297	0.67
359.663	0.68
360.028	0.7
360.393	0.7
360.758	0.71
361.123	0.72
361.488	0.73
361.853	0.74
362.218	0.74
362.583	0.76
362.948	0.76
363.312	0.77
363.677	0.78
364.042	0.8
364.407	0.8
364.772	0.83
365.136	0.84
365.501	0.85
365.865	0.87
366.23	0.88
366.595	0.9
366.959	0.92
367.324	0.93
367.688	0.96
368.052	0.96
368.417	0.98
368.781	1
369.145	1
369.51	1.01
369.874	1
370.238	1.01
370.602	1.01
370.967	1.01
371.331	1
371.695	0.99
372.059	1
372.423	0.99
372.787	0.99
373.151	0.98
373.515	0.98
373.878	0.98
374.242	0.97
374.606	0.97
374.97	0.98
375.334	0.98
375.697	0.98
376.061	0.98
376.425	1
376.788	0.99
377.152	1
377.515	1.02
377.879	1.03
378.242	1.03
378.606	1.04
378.969	1.06
379.333	1.07
379.696	1.06
380.059	1.09
380.422	1.11
380.786	1.12
381.149	1.15
381.512	1.16
381.875	1.19
382.238	1.21
382.601	1.24
382.964	1.27
383.327	1.29
383.69	1.31
384.053	1.33
384.416	1.39
384.779	1.4
385.142	1.44
385.504	1.45
385.867	1.47
386.23	1.49
386.593	1.49
386.955	1.5
387.318	1.49
387.68	1.49
388.043	1.47
388.405	1.5
388.768	1.47
389.13	1.48
389.493	1.46
389.855	1.46
390.217	1.44
390.58	1.44
390.942	1.44
391.304	1.44
391.666	1.48
392.028	1.46
392.391	1.53
392.753	1.53
393.115	1.59
393.477	1.62
393.839	1.66
394.201	1.73
394.563	1.77
394.924	1.84
395.286	1.87
395.648	1.89
396.01	1.9
396.371	1.94
396.733	1.95
397.095	1.99
397.456	1.95
397.818	1.95
398.18	1.91
398.541	1.94
398.903	1.9
399.264	1.89
399.625	1.87
399.987	1.82
400.348	1.8
400.709	1.71
401.071	1.65
401.432	1.56
401.793	1.48
402.154	1.4
402.515	1.32
402.876	1.24
403.238	1.15
403.599	1.08
403.96	1.01
404.32	0.93
404.681	0.87
405.042	0.81
405.403	0.76
405.764	0.71
406.125	0.66
406.485	0.62
406.846	0.58
407.207	0.54
407.567	0.51
407.928	0.48
408.288	0.45
408.649	0.43
409.009	0.4
409.37	0.39
409.73	0.37
410.091	0.34
410.451	0.33
410.811	0.32
411.171	0.3
411.532	0.29
411.892	0.27
412.252	0.27
412.612	0.26
412.972	0.25
413.332	0.23
413.692	0.22
414.052	0.22
414.412	0.21
414.772	0.21
415.132	0.2
415.492	0.19
415.851	0.19
416.211	0.17
416.571	0.18
416.931	0.18
417.29	0.17
417.65	0.16
418.009	0.16
418.369	0.16
418.728	0.15
419.088	0.15
419.447	0.14
419.807	0.14
420.166	0.14
420.525	0.14
420.884	0.13
421.244	0.13
421.603	0.14
421.962	0.13
422.321	0.13
422.68	0.12
423.039	0.13
423.398	0.13
423.757	0.13
424.116	0.13
424.475	0.12
424.834	0.12
425.193	0.12
425.551	0.11
425.91	0.11
426.269	0.11
426.628	0.11
426.986	0.1
427.345	0.11
427.703	0.11
428.062	0.11
428.42	0.1
428.779	0.1
429.137	0.1
429.496	0.1
429.854	0.09
430.212	0.1
430.57	0.1
430.929	0.1
431.287	0.1
431.645	0.1
432.003	0.09
432.361	0.1
432.719	0.09
433.077	0.09
433.435	0.09
433.793	0.09
434.151	0.08
434.509	0.09
434.866	0.09
435.224	0.08
435.582	0.09
435.94	0.08
436.297	0.08
436.655	0.09
437.012	0.08
437.37	0.09
437.727	0.08
438.085	0.08
438.442	0.09
438.8	0.08
439.157	0.07
439.514	0.08
439.872	0.07
440.229	0.08
440.586	0.08
440.943	0.07
441.3	0.07
441.657	0.08
442.014	0.07
442.371	0.08
442.728	0.07
443.085	0.07
443.442	0.08
443.799	0.07
444.156	0.07
444.513	0.07
444.869	0.06
445.226	0.06
445.583	0.06
445.939	0.07
446.296	0.06
446.652	0.07
447.009	0.07
447.365	0.06
447.722	0.06
448.078	0.06
448.434	0.06
448.791	0.06
449.147	0.05
449.503	0.06
449.859	0.05
450.215	0.06
450.571	0.06
450.928	0.05
451.284	0.05
451.64	0.05
451.995	0.05
452.351	0.05
452.707	0.05
453.063	0.04
453.419	0.04
453.775	0.05
454.13	0.04
454.486	0.05
454.842	0.04
455.197	0.04
455.553	0.03
455.908	0.03
456.264	0.03
456.619	0.03
456.975	0.04
457.33	0.03
457.685	0.03
458.04	0.03
458.396	0.02
458.751	0.03
459.106	0.02
459.461	0.02
459.816	0.02
460.171	0.01
460.526	0.02
460.881	0.01
461.236	0
461.591	0.01
461.946	-0.01
462.301	0
462.655	0.01
463.01	0.01
463.365	-0
463.719	-0
464.074	-0.01
464.428	-0.02
464.783	-0.01
465.137	-0.02
465.492	-0.02
465.846	-0.01
466.201	-0.01
466.555	-0.01
466.909	-0.01
467.263	-0
467.618	-0.01
467.972	-0.01
468.326	-0.02
468.68	-0.02
469.034	-0.02
469.388	-0.02
469.742	-0.01
470.096	-0.02
470.45	-0.02
470.804	-0.01
471.157	-0.02
471.511	-0.02
471.865	-0.01
472.218	-0.01
472.572	-0.01
472.926	-0
473.279	-0.01
473.633	-0
473.986	0
474.34	0
474.693	0.01
475.046	0.02
475.4	0.02
475.753	0.02
476.106	0.02
476.459	0.03
476.812	0.04
477.165	0.04
477.519	0.04
477.872	0.04
478.224	0.05
478.577	0.05
478.93	0.05
479.283	0.05
479.636	0.06
479.989	0.06
480.341	0.06
480.694	0.07
481.047	0.07
481.399	0.07
481.752	0.07
482.104	0.08
482.457	0.08
482.809	0.08
483.162	0.08
483.514	0.08
483.866	0.09
484.219	0.08
484.571	0.09
484.923	0.09
485.275	0.09
485.627	0.1
485.979	0.1
486.331	0.1
486.683	0.1
487.035	0.1
487.387	0.11
487.739	0.11
488.091	0.11
488.443	0.11
488.794	0.11
489.146	0.12
489.498	0.11
489.849	0.11
490.201	0.11
490.552	0.12
490.904	0.12
491.255	0.12
491.607	0.12
491.958	0.12
492.309	0.13
492.661	0.13
493.012	0.13
493.363	0.13
493.714	0.14
494.065	0.14
494.416	0.14
494.767	0.14
495.118	0.14
495.469	0.14
495.82	0.14
496.171	0.15
496.522	0.15
496.872	0.15
497.223	0.15
497.574	0.16
497.924	0.16
498.275	0.16
498.626	0.16
498.976	0.16
499.327	0.16
499.677	0.16
500.027	0.17
500.378	0.17
500.728	0.18
501.078	0.18
501.428	0.18
501.779	0.18
502.129	0.18
502.479	0.19
502.829	0.19
503.179	0.19
503.529	0.19
503.879	0.19
504.229	0.19
504.578	0.2
504.928	0.19
505.278	0.2
505.628	0.2
505.977	0.2
506.327	0.21
506.676	0.21
507.026	0.21
507.375	0.21
507.725	0.22
508.074	0.22
508.424	0.22
508.773	0.22
509.122	0.22
509.471	0.23
509.82	0.23
510.17	0.23
510.519	0.23
510.868	0.23
511.217	0.23
511.566	0.24
511.915	0.24
512.263	0.24
512.612	0.24
512.961	0.24
513.31	0.25
513.659	0.25
514.007	0.25
514.356	0.26
514.704	0.25
515.053	0.26
515.401	0.25
515.75	0.27
516.098	0.26
516.447	0.27
516.795	0.27
517.143	0.27
517.491	0.27
517.839	0.28
518.188	0.27
518.536	0.28
518.884	0.28
519.232	0.28
519.58	0.28
519.928	0.29
520.275	0.29
520.623	0.29
520.971	0.3
521.319	0.29
521.666	0.3
522.014	0.3
522.362	0.3
522.709	0.3
523.057	0.31
523.404	0.3
523.752	0.31
524.099	0.31
524.446	0.31
524.794	0.32
525.141	0.32
525.488	0.32
525.835	0.33
526.182	0.33
526.529	0.33
526.876	0.33
527.223	0.34
527.57	0.33
527.917	0.34
528.264	0.33
528.611	0.34
528.958	0.34
529.304	0.35
529.651	0.34
529.998	0.35
530.344	0.35
530.691	0.36
531.037	0.36
531.384	0.36
531.73	0.36
532.076	0.36
532.423	0.37
532.769	0.37
533.115	0.37
533.461	0.38
533.807	0.38
534.154	0.38
534.5	0.38
534.846	0.38
535.192	0.39
535.537	0.39
535.883	0.39
536.229	0.4
536.575	0.4
536.921	0.4
537.266	0.4
537.612	0.41
537.957	0.41
538.303	0.41
538.649	0.41
538.994	0.42
539.339	0.42
539.685	0.43
540.03	0.43
540.375	0.43
540.721	0.44
541.066	0.44
541.411	0.44
541.756	0.44
542.101	0.44
542.446	0.45
542.791	0.45
543.136	0.45
543.481	0.46
543.825	0.46
544.17	0.47
544.515	0.47
544.86	0.47
545.204	0.47
545.549	0.48
545.893	0.48
546.238	0.48
546.582	0.49
546.927	0.49
547.271	0.49
547.615	0.49
547.96	0.5
548.304	0.5
548.648	0.5
548.992	0.51
549.336	0.51
549.68	0.52
550.024	0.52
550.368	0.52
550.712	0.52
551.056	0.52
551.4	0.53
551.743	0.53
552.087	0.53
552.431	0.53
552.774	0.53
553.118	0.54
553.462	0.54
553.805	0.54
554.148	0.55
554.492	0.55
554.835	0.55
555.178	0.56
555.522	0.55
555.865	0.56
556.208	0.55
556.551	0.56
556.894	0.56
557.237	0.57
557.58	0.56
557.923	0.57
558.266	0.57
558.609	0.57
558.952	0.57
559.294	0.58
559.637	0.58
559.98	0.58
560.322	0.58
560.665	0.57
561.007	0.58
561.35	0.58
561.692	0.59
562.034	0.59
562.377	0.59
562.719	0.59
563.061	0.59
563.403	0.59
563.745	0.59
564.088	0.59
564.43	0.59
564.772	0.59
565.113	0.59
565.455	0.59
565.797	0.6
566.139	0.6
566.481	0.6
566.822	0.6
567.164	0.61
567.506	0.61
567.847	0.61
568.189	0.61
568.53	0.61
568.872	0.61
569.213	0.61
569.554	0.61
569.895	0.61
570.237	0.61
570.578	0.61
570.919	0.61
571.26	0.61
571.601	0.62
571.942	0.61
572.283	0.61
572.624	0.62
572.965	0.61
573.306	0.61
573.646	0.61
573.987	0.61
574.328	0.61
574.668	0.61
575.009	0.62
575.349	0.62
575.69	0.61
576.03	0.61
576.37	0.62
576.711	0.6
577.051	0.61
577.391	0.62
577.731	0.62
578.072	0.62
578.412	0.62
578.752	0.62
579.092	0.62
579.431	0.62
579.771	0.61
580.111	0.6
580.451	0.6
580.791	0.62
581.13	0.62
581.47	0.62
581.81	0.63
582.149	0.62
582.489	0.63
582.828	0.63
583.167	0.62
583.507	0.6
583.846	0.57
584.185	0.59
584.525	0.62
584.864	0.62
585.203	0.64
585.542	0.64
585.881	0.64
586.22	0.65
586.559	0.65
586.898	0.64
587.236	0.64
587.575	0.64
587.914	0.65
588.252	0.65
588.591	0.66
588.93	0.66
589.268	0.66
589.607	0.67
589.945	0.67
590.283	0.67
590.622	0.67
590.96	0.68
591.298	0.68
591.636	0.68
591.974	0.68
592.313	0.69
592.651	0.69
592.989	0.7
593.326	0.7
593.664	0.7
594.002	0.71
594.34	0.71
594.678	0.71
595.015	0.71
595.353	0.7
595.691	0.71
596.028	0.71
596.366	0.72
596.703	0.72
597.04	0.73
597.378	0.73
597.715	0.73
598.052	0.73
598.389	0.74
598.726	0.74
599.064	0.75
599.401	0.75
599.738	0.75
600.074	0.75
600.411	0.75
600.748	0.75
601.085	0.75
601.422	0.75
601.758	0.75
602.095	0.75
602.432	0.75
602.768	0.75
603.105	0.75
603.441	0.75
603.777	0.76
604.114	0.76
604.45	0.76
604.786	0.76
605.122	0.76
605.459	0.76
605.795	0.75
606.131	0.75
606.467	0.75
606.803	0.75
607.139	0.75
607.474	0.75
607.81	0.75
608.146	0.75
608.482	0.75
608.817	0.75
609.153	0.74
609.488	0.74
609.824	0.74
610.159	0.74
610.495	0.74
610.83	0.73
611.165	0.74
611.5	0.73
611.836	0.73
612.171	0.73
612.506	0.73
612.841	0.73
613.176	0.72
613.511	0.72
613.845	0.72
614.18	0.72
614.515	0.72
614.85	0.72
615.184	0.72
615.519	0.71
615.854	0.71
616.188	0.71
616.523	0.71
616.857	0.71
617.191	0.7
617.526	0.7
617.86	0.7
618.194	0.69
618.528	0.69
618.862	0.69
619.196	0.69
619.53	0.69
619.864	0.68
620.198	0.68
620.532	0.68
620.866	0.68
621.2	0.67
621.533	0.67
621.867	0.67
622.201	0.67
622.534	0.66
622.868	0.66
623.201	0.66
623.534	0.66
623.868	0.66
624.201	0.65
624.534	0.65
624.868	0.65
625.201	0.65
625.534	0.65
625.867	0.64
626.2	0.64
626.533	0.64
626.865	0.63
627.198	0.63
627.531	0.63
627.864	0.62
628.196	0.63
628.529	0.62
628.862	0.62
629.194	0.61
629.527	0.61
629.859	0.61
630.191	0.6
630.524	0.6
630.856	0.6
631.188	0.6
631.52	0.59
631.852	0.59
632.184	0.58
632.516	0.58
632.848	0.58
633.18	0.57
633.512	0.57
633.844	0.56
634.175	0.56
634.507	0.55
634.839	0.54
635.17	0.54
635.502	0.54
635.833	0.54
636.165	0.53
636.496	0.53
636.827	0.53
637.159	0.52
637.49	0.52
637.821	0.51
638.152	0.51
638.483	0.51
638.814	0.5
639.145	0.5
639.476	0.5
639.807	0.48
640.137	0.49
640.468	0.48
640.799	0.48
641.129	0.47
641.46	0.47
641.791	0.46
642.121	0.47
642.451	0.46
642.782	0.46
643.112	0.45
643.442	0.45
643.773	0.44
644.103	0.44
644.433	0.44
644.763	0.44
645.093	0.43
645.423	0.43
645.753	0.43
646.082	0.43
646.412	0.43
646.742	0.43
647.072	0.42
647.401	0.43
647.731	0.42
648.06	0.42
648.39	0.42
648.719	0.42
649.048	0.41
649.378	0.41
649.707	0.41
650.036	0.41
650.365	0.41
650.694	0.41
651.023	0.4
651.352	0.4
651.681	0.41
652.01	0.41
652.339	0.4
652.668	0.4
652.996	0.4
653.325	0.4
653.654	0.4
653.982	0.4
654.311	0.4
654.639	0.4
654.967	0.4
655.296	0.4
655.624	0.4
655.952	0.4
656.28	0.4
656.609	0.39
656.937	0.4
657.265	0.41
657.593	0.37
657.92	0.23
658.248	0.17
658.576	0.16
658.904	0.25
659.231	0.34
659.559	0.38
659.887	0.39
660.214	0.39
660.542	0.39
660.869	0.39
661.196	0.39
661.524	0.39
661.851	0.39
662.178	0.39
662.505	0.39
662.832	0.38
663.159	0.38
663.486	0.38
663.813	0.38
664.14	0.38
664.467	0.38
664.794	0.38
665.12	0.38
665.447	0.38
665.774	0.38
666.1	0.38
666.427	0.38
666.753	0.38
667.079	0.37
667.406	0.37
667.732	0.37
668.058	0.38
668.384	0.37
668.71	0.37
669.036	0.37
669.362	0.37
669.688	0.37
670.014	0.36
670.34	0.36
670.666	0.36
670.991	0.36
671.317	0.36
671.643	0.35
671.968	0.35
672.294	0.35
672.619	0.35
672.945	0.35
673.27	0.35
673.595	0.34
673.92	0.35
674.246	0.34
674.571	0.34
674.896	0.34
675.221	0.34
675.546	0.33
675.87	0.33
676.195	0.33
676.52	0.33
676.845	0.32
677.169	0.32
677.494	0.32
677.819	0.32
678.143	0.31
678.468	0.31
678.792	0.31
679.116	0.31
679.44	0.3
679.765	0.3
680.089	0.3
680.413	0.29
680.737	0.29
681.061	0.29
681.385	0.29
681.709	0.28
682.033	0.28
682.356	0.27
682.68	0.27
683.004	0.27
683.327	0.27
683.651	0.26
683.974	0.26
684.298	0.26
684.621	0.26
684.944	0.26
685.268	0.25
685.591	0.25
685.914	0.25
686.237	0.25
686.56	0.25
686.883	0.24
687.206	0.23
687.529	0.23
687.852	0.23
688.175	0.23
688.497	0.23
688.82	0.23
689.142	0.22
689.465	0.22
689.787	0.22
690.11	0.22
690.432	0.21
690.755	0.21
691.077	0.21
691.399	0.21
691.721	0.2
692.043	0.2
692.365	0.2
692.687	0.2
693.009	0.19
693.331	0.19
693.653	0.19
693.974	0.19
694.296	0.18
694.618	0.18
694.939	0.18
695.261	0.18
695.582	0.18
695.904	0.18
696.225	0.17
696.546	0.17
696.868	0.17
697.189	0.17
697.51	0.16
697.831	0.16
698.152	0.16
698.473	0.16
698.794	0.16
699.114	0.16
699.435	0.15
699.756	0.15
700.077	0.15
700.397	0.16
700.718	0.15
701.038	0.15
701.359	0.15
701.679	0.15
701.999	0.15
702.32	0.15
702.64	0.15
702.96	0.15
703.28	0.15
703.6	0.15
703.92	0.14
704.24	0.14
704.56	0.14
704.879	0.14
705.199	0.14
705.519	0.13
705.838	0.13
706.158	0.13
706.478	0.13
706.797	0.13
707.116	0.13
707.436	0.13
707.755	0.14
708.074	0.13
708.393	0.13
708.712	0.13
709.031	0.13
709.35	0.13
709.669	0.12
709.988	0.12
710.307	0.12
710.626	0.12
710.944	0.12
711.263	0.12
711.582	0.12
711.9	0.12
712.219	0.12
712.537	0.12
712.855	0.12
713.174	0.12
713.492	0.12
713.81	0.12
714.128	0.12
714.446	0.12
714.764	0.12
715.082	0.12
715.4	0.12
715.718	0.12
716.035	0.12
716.353	0.12
716.671	0.12
716.988	0.12
717.306	0.12
717.623	0.12
717.941	0.12
718.258	0.13
718.575	0.12
718.893	0.13
719.21	0.13
719.527	0.13
719.844	0.13
720.161	0.13
720.478	0.13
720.795	0.13
721.112	0.13
721.428	0.13
721.745	0.13
722.062	0.13
722.378	0.13
722.695	0.13
723.011	0.13
723.328	0.13
723.644	0.13
723.96	0.13
724.276	0.13
724.593	0.13
724.909	0.13
725.225	0.13
725.541	0.13
725.857	0.14
726.173	0.14
726.488	0.14
726.804	0.14
727.12	0.14
727.435	0.14
727.751	0.14
728.067	0.14
728.382	0.14
728.697	0.14
729.013	0.14
729.328	0.14
729.643	0.14
729.958	0.14
730.273	0.14
730.588	0.14
730.903	0.14
731.218	0.14
731.533	0.14
731.848	0.14
732.163	0.14
732.477	0.14
732.792	0.14
733.107	0.14
733.421	0.14
733.736	0.14
734.05	0.14
734.364	0.14
734.678	0.14
734.993	0.14
735.307	0.14
735.621	0.14
735.935	0.14
736.249	0.14
736.563	0.14
736.877	0.14
737.19	0.14
737.504	0.14
737.818	0.14
738.131	0.14
738.445	0.13
738.758	0.14
739.072	0.13
739.385	0.13
739.698	0.13
740.012	0.13
740.325	0.13
740.638	0.13
740.951	0.13
741.264	0.13
741.577	0.13
741.89	0.13
742.203	0.13
742.515	0.13
742.828	0.13
743.141	0.13
743.453	0.13
743.766	0.13
744.078	0.13
744.391	0.12
744.703	0.12
745.015	0.12
745.327	0.12
745.639	0.12
745.952	0.12
746.264	0.11
746.575	0.12
746.887	0.12
747.199	0.11
747.511	0.11
747.823	0.11
748.134	0.11
748.446	0.11
748.757	0.11
749.069	0.11
749.38	0.1
749.692	0.1
750.003	0.1
750.314	0.1
750.625	0.1
750.936	0.1
751.248	0.1
751.559	0.1
751.869	0.09
752.18	0.09
752.491	0.09
752.802	0.09
753.112	0.09
753.423	0.09
753.734	0.09
754.044	0.09
754.355	0.08
754.665	0.08
754.975	0.08
755.285	0.08
755.596	0.08
755.906	0.07
756.216	0.07
756.526	0.07
756.836	0.07
757.146	0.07
757.455	0.07
757.765	0.07
758.075	0.07
758.385	0.07
758.694	0.07
759.004	0.07
759.313	0.07
759.622	0.06
759.932	0.06
760.241	0.06
760.55	0.06
760.859	0.06
761.168	0.06
761.477	0.06
761.786	0.06
762.095	0.06
762.404	0.06
762.713	0.06
763.021	0.05
763.33	0.05
763.639	0.05
763.947	0.05
764.256	0.05
764.564	0.05
764.872	0.05
765.181	0.05
765.489	0.05
765.797	0.05
766.105	0.05
766.413	0.05
766.721	0.05
767.029	0.04
767.337	0.04
767.644	0.05
767.952	0.05
768.26	0.05
768.567	0.05
768.875	0.05
769.182	0.04
769.49	0.04
769.797	0.04
770.104	0.04
770.411	0.04
770.718	0.04
771.026	0.04
771.333	0.04
771.639	0.04
771.946	0.04
772.253	0.04
772.56	0.04
772.867	0.04
773.173	0.04
773.48	0.03
773.786	0.04
774.093	0.03
774.399	0.03
774.705	0.03
775.012	0.03
775.318	0.03
775.624	0.03
775.93	0.03
776.236	0.03
776.542	0.04
776.848	0.03
777.154	0.03
777.459	0.03
777.765	0.03
778.071	0.03
778.376	0.03
778.682	0.03
778.987	0.03
779.292	0.03
779.598	0.03
779.903	0.04
780.208	0.04
780.513	0.03
780.818	0.03
781.123	0.03
781.428	0.03
781.733	0.03
782.038	0.03
782.343	0.03
782.647	0.03
782.952	0.03
783.256	0.03
783.561	0.03
783.865	0.03
784.17	0.04
784.474	0.04
784.778	0.03
785.082	0.03
785.386	0.03
785.69	0.04
785.994	0.03
786.298	0.03
786.602	0.03
786.906	0.03
787.209	0.03
787.513	0.03
787.817	0.03
788.12	0.03
788.424	0.03
788.727	0.03
789.03	0.03
789.333	0.03
789.637	0.03
789.94	0.03
790.243	0.04
790.546	0.03
790.849	0.03
791.152	0.03
791.454	0.03
791.757	0.03
792.06	0.03
792.362	0.04
792.665	0.03
792.967	0.03
793.27	0.03
793.572	0.03
793.874	0.03
794.177	0.03
794.479	0.03
794.781	0.03
795.083	0.03
795.385	0.03
795.687	0.03
795.989	0.03
796.29	0.03
796.592	0.03
796.894	0.03
797.195	0.03
797.497	0.03
797.798	0.03
798.1	0.03
798.401	0.03
798.702	0.03
799.003	0.03
799.304	0.03
799.605	0.03
799.906	0.03
800.207	0.03
800.508	0.03
800.809	0.03
801.11	0.03
801.41	0.03
801.711	0.03
802.011	0.03
802.312	0.03
802.612	0.03
802.913	0.04
803.213	0.04
803.513	0.04
803.813	0.04
804.113	0.04
804.413	0.04
804.713	0.04
805.013	0.04
805.313	0.04
805.613	0.04
805.912	0.04
806.212	0.04
806.511	0.04
806.811	0.04
807.11	0.04
807.41	0.04
807.709	0.04
808.008	0.03
808.307	0.03
808.606	0.03
808.905	0.03
809.204	0.03
809.503	0.03
809.802	0.03
810.101	0.03
810.399	0.03
810.698	0.03
810.997	0.03
811.295	0.03
811.593	0.03
811.892	0.03
812.19	0.03
812.488	0.03
812.786	0.03
813.084	0.03
813.383	0.03
813.68	0.02
813.978	0.03
814.276	0.02
814.574	0.02
814.872	0.02
815.169	0.03
815.467	0.03
815.764	0.03
816.062	0.03
816.359	0.03
816.656	0.02
816.954	0.02
817.251	0.02
817.548	0.02
817.845	0.02
818.142	0.03
818.439	0.03
818.735	0.03
819.032	0.03
819.329	0.03
819.626	0.03
819.922	0.03
820.219	0.03
820.515	0.03
820.811	0.03
821.108	0.03
821.404	0.02
821.7	0.02
821.996	0.03
822.292	0.03
822.588	0.03
822.884	0.03
823.18	0.02
823.475	0.03
823.771	0.03
824.067	0.03
824.362	0.03
824.658	0.04
824.953	0.03
825.249	0.03
825.544	0.04
825.839	0.04
826.134	0.04
826.429	0.03
826.724	0.03
827.019	0.03
827.314	0.03
827.609	0.03
827.904	0.03
828.198	0.03
828.493	0.03
828.787	0.03
829.082	0.03
829.376	0.03
829.671	0.03
829.965	0.02
830.259	0.03
830.553	0.03
830.847	0.03
831.141	0.03
831.435	0.03
831.729	0.03
832.023	0.03
832.317	0.03
832.61	0.03
832.904	0.03
833.197	0.03
833.491	0.03
833.784	0.03
834.077	0.03
834.371	0.04
834.664	0.03
834.957	0.03
835.25	0.03
835.543	0.03
835.836	0.03
836.129	0.04
836.421	0.03
836.714	0.03
837.007	0.03
837.299	0.04
837.592	0.04
837.884	0.04
838.177	0.03
838.469	0.03
838.761	0.04
839.053	0.03
839.345	0.04
839.637	0.04
839.929	0.03
840.221	0.04
840.513	0.04
840.805	0.03
841.096	0.04
841.388	0.03
841.68	0.03
841.971	0.03
842.262	0.03
842.554	0.03
842.845	0.03
843.136	0.03
843.427	0.03
843.718	0.04
844.009	0.02
844.3	0.03
844.591	0.04
844.882	0.02
845.173	0.02
845.463	0.03
845.754	0.03
846.044	0.02
846.335	0.02
846.625	0.03
846.915	0.04
847.206	0.04
847.496	0.03
847.786	0.04
848.076	0.03
848.366	0.04
848.656	0.04
848.945	0.03
849.235	0.04
849.525	0.04
849.814	0.04
850.104	0.04
850.393	0.03
850.683	0.03
850.972	0.04
851.261	0.04
851.551	0.05
851.84	0.03
852.129	0.03
852.418	0.03
852.707	0.02
852.995	0.03
853.284	0.02
853.573	0.03
853.862	0.03
854.15	0.02
854.439	0.03
854.727	0.03
855.015	0.04
855.304	0.03
855.592	0.03
855.88	0.04
856.168	0.03
856.456	0.03
856.744	0.02
857.032	0.03
857.32	0.04
857.607	0.04
857.895	0.03
858.183	0.04
858.47	0.03
858.757	0.04
859.045	0.03
859.332	0.04
859.619	0.04
859.907	0.03
860.194	0.02
860.481	0.03
860.768	0.03
861.054	0.03
861.341	0.04
861.628	0.04
861.915	0.03
862.201	0.04
862.488	0.05
862.774	0.03
863.061	0.01
863.347	0.02
863.633	0.02
863.919	0.03
864.205	0.04
864.491	0.04
864.777	0.02
865.063	0.04
865.349	0.03
865.635	0
865.92	0.03
866.206	0.02
866.492	0.05
866.777	0.05
867.062	0
867.348	0.02
867.633	0.02
867.918	0.04
868.203	0.03
868.488	0.06
868.773	0.04
869.058	0.02
869.343	0.03
869.628	0.03
869.912	0.03
870.197	0.01
870.482	0.05
870.766	0.04
871.05	0.05
871.335	0.01
871.619	0.06
871.903	0.01
872.187	0.04
872.471	0.01
872.755	0.01
873.039	0.06
873.323	0.06
873.607	0.01
873.89	-0.02
874.174	0.04
874.458	0.02
874.741	0.04
875.024	0.02
875.308	0.01
875.591	0.01
875.874	-0.05
876.157	0.14
876.44	-0.03
876.723	-0.01
877.006	0.09
877.289	0.04
877.572	0.02
877.854	0.1
878.137	0.08
878.42	0.07
878.702	-0.01
878.984	0.06
879.267	0
879.549	0.1
879.831	0.02
880.113	0.1
880.395	-0.01
880.677	0.06
880.959	-0.02
