Data from Rubpy_EV_1500_EDTA_Buffered_Absorbance_14-56-15-980.txt Node
Date: Tue Jun 30 14:56:15 BST 2026
User: fpm-admin
Spectrometer: OFX00224
Trigger mode: 0
Integration Time (sec): 7.000000E-2
Scans to average: 3
Nonlinearity correction enabled: false
Boxcar width: 0
Storing dark spectrum: false
XAxis mode: Wavelengths
Number of Pixels in Spectrum: 2136
>>>>>Begin Spectral Data<<<<<
154.91	0.03
155.289	-0.06
155.669	-0.43
156.048	-0.57
156.428	-0
156.807	0.01
157.186	-0
157.566	0.29
157.945	0.38
158.325	-0
158.704	-0
159.083	0.15
159.462	-0.81
159.842	-0
160.221	-0.64
160.6	-0
160.979	0.01
161.359	-0
161.738	-0.24
162.117	-0.54
162.496	0.54
162.875	-0
163.254	-0
163.633	-0
164.012	-0.23
164.391	0.66
164.77	0.35
165.149	-0
165.528	0.09
165.907	-0.08
166.286	-0.61
166.665	-0.45
167.044	0.05
167.423	0.04
167.802	-0
168.181	0.18
168.559	0.03
168.938	-0.15
169.317	-0.11
169.696	-0
170.074	-0
170.453	-0.1
170.832	-0.13
171.21	0.44
171.589	-0
171.968	-0.2
172.346	0.37
172.725	-0
173.103	0.3
173.482	-0.44
173.861	-0
174.239	0.07
174.617	-0.23
174.996	-0
175.374	0.4
175.753	0.21
176.131	-0
176.51	0.74
176.888	-0.42
177.266	-0
177.645	0
178.023	0.64
178.401	-0.29
178.779	-0.05
179.158	1.13
179.536	-0
179.914	-0.42
180.292	0.09
180.67	0.34
181.048	-0
181.427	0.62
181.805	-0.67
182.183	-0
182.561	0.22
182.939	-0
183.317	-0.85
183.695	-0.1
184.073	-0
184.451	0.05
184.829	-0
185.206	0.45
185.584	-0.19
185.962	-0.35
186.34	-0
186.718	-0
187.096	-1.6
187.473	-0
187.851	0.01
188.229	-0
188.607	0.18
188.984	0.21
189.362	0.2
189.74	0.05
190.117	0.04
190.495	0.03
190.872	0.06
191.25	0.16
191.627	0.04
192.005	0.17
192.382	0.2
192.76	0.13
193.137	0.1
193.515	0.17
193.892	0.14
194.269	0.16
194.647	-0.01
195.024	0.04
195.401	0.11
195.779	0.14
196.156	0.17
196.533	0.23
196.91	0.09
197.288	0.1
197.665	0.06
198.042	0
198.419	0.16
198.796	0.14
199.173	0.01
199.55	0.03
199.927	0.23
200.304	0.06
200.681	0.12
201.058	0.08
201.435	0.04
201.812	0.14
202.189	0.17
202.566	0.21
202.943	0.04
203.32	0.19
203.697	0.14
204.073	0.17
204.45	-0.01
204.827	0.13
205.204	0.21
205.58	0.11
205.957	0.17
206.334	0.16
206.71	0.16
207.087	0.23
207.464	0.12
207.84	0.17
208.217	0.14
208.593	0.15
208.97	0.15
209.346	0.18
209.723	0.19
210.099	0.12
210.476	0.25
210.852	0.11
211.228	0.1
211.605	0.19
211.981	0.13
212.357	0.23
212.733	0.03
213.11	0.22
213.486	0.11
213.862	0.08
214.238	0.15
214.614	0.22
214.991	0.14
215.367	0.21
215.743	0.16
216.119	0.15
216.495	0.11
216.871	0.12
217.247	0.12
217.623	0.28
217.999	0.11
218.375	0.18
218.751	0.14
219.127	0.25
219.502	0.21
219.878	0.09
220.254	0.1
220.63	0.1
221.006	0.13
221.381	0.1
221.757	0.11
222.133	0.26
222.508	0.11
222.884	0.12
223.26	0.15
223.635	0.15
224.011	0.14
224.386	0.11
224.762	0.13
225.137	0.08
225.513	0.16
225.888	0.17
226.264	0.19
226.639	0.18
227.014	0.17
227.39	0.19
227.765	0.18
228.14	0.11
228.516	0.14
228.891	0.15
229.266	0.21
229.641	0.12
230.017	0.17
230.392	0.14
230.767	0.2
231.142	0.24
231.517	0.18
231.892	0.27
232.267	0.17
232.642	0.21
233.017	0.12
233.392	0.2
233.767	0.2
234.142	0.09
234.517	0.13
234.892	0.13
235.267	0.19
235.641	0.19
236.016	0.11
236.391	0.02
236.766	0.13
237.14	0.13
237.515	0.14
237.89	0.2
238.264	0.24
238.639	0.16
239.014	0.17
239.388	0.14
239.763	0.26
240.137	0.09
240.512	0.1
240.886	0.11
241.261	0.15
241.635	0.2
242.009	0.17
242.384	0.22
242.758	0.19
243.132	0.08
243.507	0.17
243.881	0.19
244.255	0.16
244.629	0.15
245.004	0.17
245.378	0.18
245.752	0.14
246.126	0.11
246.5	0.18
246.874	0.13
247.248	0.03
247.622	0.17
247.996	0.17
248.37	0.08
248.744	0.2
249.118	0.1
249.492	0.22
249.866	0.14
250.24	0.16
250.613	0.13
250.987	0.07
251.361	0.2
251.735	0.13
252.108	0.2
252.482	0.18
252.856	0.14
253.229	0.12
253.603	0.27
253.977	0.21
254.35	0.13
254.724	0.11
255.097	0.09
255.471	0.12
255.844	0.12
256.218	0.13
256.591	0.11
256.964	0.27
257.338	0.21
257.711	0.16
258.084	0.17
258.458	0.24
258.831	0.24
259.204	0.14
259.577	0.21
259.95	0.18
260.323	0.16
260.697	0.17
261.07	0.14
261.443	0.14
261.816	0.14
262.189	0.19
262.562	0.2
262.935	0.15
263.308	0.15
263.68	0.16
264.053	0.23
264.426	0.12
264.799	0.19
265.172	0.19
265.545	0.21
265.917	0.17
266.29	0.17
266.663	0.29
267.035	0.17
267.408	0.14
267.781	0.18
268.153	0.19
268.526	0.2
268.898	0.14
269.271	0.15
269.643	0.16
270.016	0.13
270.388	0.11
270.76	0.13
271.133	0.16
271.505	0.17
271.877	0.21
272.25	0.25
272.622	0.13
272.994	0.13
273.366	0.16
273.739	0.23
274.111	0.13
274.483	0.18
274.855	0.22
275.227	0.19
275.599	0.2
275.971	0.28
276.343	0.16
276.715	0.13
277.087	0.19
277.459	0.18
277.831	0.17
278.203	0.17
278.574	0.19
278.946	0.22
279.318	0.17
279.69	0.18
280.061	0.14
280.433	0.14
280.805	0.19
281.176	0.21
281.548	0.19
281.92	0.18
282.291	0.14
282.663	0.21
283.034	0.23
283.406	0.12
283.777	0.24
284.148	0.14
284.52	0.24
284.891	0.2
285.262	0.23
285.634	0.2
286.005	0.21
286.376	0.15
286.747	0.18
287.119	0.16
287.49	0.1
287.861	0.18
288.232	0.21
288.603	0.18
288.974	0.22
289.345	0.12
289.716	0.18
290.087	0.15
290.458	0.2
290.829	0.25
291.2	0.25
291.571	0.14
291.941	0.17
292.312	0.18
292.683	0.15
293.054	0.17
293.424	0.05
293.795	0.17
294.166	0.19
294.536	0.18
294.907	0.14
295.277	0.15
295.648	0.17
296.018	0.22
296.389	0.15
296.759	0.14
297.13	0.12
297.5	0.14
297.871	0.2
298.241	0.11
298.611	0.16
298.981	0.17
299.352	0.16
299.722	0.2
300.092	0.12
300.462	0.15
300.832	0.19
301.202	0.16
301.573	0.16
301.943	0.15
302.313	0.13
302.683	0.14
303.053	0.15
303.422	0.14
303.792	0.12
304.162	0.16
304.532	0.16
304.902	0.13
305.272	0.15
305.641	0.15
306.011	0.14
306.381	0.15
306.75	0.15
307.12	0.14
307.49	0.16
307.859	0.16
308.229	0.16
308.598	0.16
308.968	0.16
309.337	0.16
309.707	0.16
310.076	0.17
310.445	0.16
310.815	0.16
311.184	0.16
311.553	0.16
311.923	0.17
312.292	0.17
312.661	0.18
313.03	0.17
313.399	0.17
313.768	0.17
314.137	0.17
314.506	0.18
314.875	0.17
315.244	0.17
315.613	0.18
315.982	0.17
316.351	0.17
316.72	0.17
317.089	0.17
317.458	0.17
317.826	0.17
318.195	0.16
318.564	0.17
318.933	0.16
319.301	0.16
319.67	0.16
320.038	0.15
320.407	0.15
320.775	0.15
321.144	0.15
321.512	0.15
321.881	0.15
322.249	0.15
322.618	0.16
322.986	0.15
323.354	0.14
323.723	0.15
324.091	0.15
324.459	0.15
324.827	0.14
325.195	0.14
325.564	0.14
325.932	0.14
326.3	0.15
326.668	0.14
327.036	0.14
327.404	0.15
327.772	0.15
328.14	0.14
328.508	0.14
328.875	0.14
329.243	0.14
329.611	0.15
329.979	0.15
330.346	0.14
330.714	0.15
331.082	0.15
331.449	0.15
331.817	0.15
332.185	0.15
332.552	0.15
332.92	0.15
333.287	0.15
333.655	0.16
334.022	0.16
334.389	0.16
334.757	0.16
335.124	0.16
335.491	0.16
335.859	0.17
336.226	0.17
336.593	0.17
336.96	0.17
337.327	0.17
337.695	0.18
338.062	0.18
338.429	0.18
338.796	0.18
339.163	0.19
339.53	0.19
339.897	0.19
340.263	0.19
340.63	0.2
340.997	0.2
341.364	0.21
341.731	0.21
342.097	0.21
342.464	0.22
342.831	0.22
343.197	0.23
343.564	0.23
343.931	0.23
344.297	0.23
344.664	0.24
345.03	0.24
345.396	0.24
345.763	0.25
346.129	0.25
346.496	0.25
346.862	0.26
347.228	0.26
347.594	0.27
347.961	0.27
348.327	0.28
348.693	0.28
349.059	0.28
349.425	0.29
349.791	0.29
350.157	0.3
350.523	0.3
350.889	0.31
351.255	0.31
351.621	0.32
351.987	0.33
352.353	0.33
352.719	0.33
353.084	0.34
353.45	0.35
353.816	0.36
354.181	0.36
354.547	0.37
354.913	0.38
355.278	0.39
355.644	0.39
356.009	0.4
356.375	0.41
356.74	0.41
357.106	0.42
357.471	0.43
357.836	0.44
358.202	0.45
358.567	0.46
358.932	0.47
359.297	0.48
359.663	0.48
360.028	0.49
360.393	0.49
360.758	0.5
361.123	0.51
361.488	0.51
361.853	0.52
362.218	0.52
362.583	0.53
362.948	0.53
363.312	0.54
363.677	0.55
364.042	0.56
364.407	0.57
364.772	0.58
365.136	0.58
365.501	0.6
365.865	0.61
366.23	0.63
366.595	0.62
366.959	0.65
367.324	0.65
367.688	0.67
368.052	0.67
368.417	0.69
368.781	0.7
369.145	0.7
369.51	0.7
369.874	0.71
370.238	0.71
370.602	0.7
370.967	0.7
371.331	0.7
371.695	0.7
372.059	0.7
372.423	0.69
372.787	0.69
373.151	0.69
373.515	0.69
373.878	0.68
374.242	0.68
374.606	0.68
374.97	0.68
375.334	0.68
375.697	0.68
376.061	0.68
376.425	0.69
376.788	0.68
377.152	0.7
377.515	0.7
377.879	0.71
378.242	0.72
378.606	0.72
378.969	0.73
379.333	0.74
379.696	0.74
380.059	0.76
380.422	0.77
380.786	0.79
381.149	0.8
381.512	0.81
381.875	0.82
382.238	0.85
382.601	0.86
382.964	0.88
383.327	0.91
383.69	0.92
384.053	0.94
384.416	0.97
384.779	0.99
385.142	1.01
385.504	1.02
385.867	1.05
386.23	1.05
386.593	1.07
386.955	1.07
387.318	1.06
387.68	1.05
388.043	1.05
388.405	1.04
388.768	1.03
389.13	1.04
389.493	1.02
389.855	1.02
390.217	1.01
390.58	1.01
390.942	1.01
391.304	1.02
391.666	1.03
392.028	1.05
392.391	1.07
392.753	1.09
393.115	1.13
393.477	1.16
393.839	1.2
394.201	1.25
394.563	1.3
394.924	1.35
395.286	1.38
395.648	1.43
396.01	1.45
396.371	1.51
396.733	1.53
397.095	1.54
397.456	1.55
397.818	1.54
398.18	1.52
398.541	1.52
398.903	1.49
399.264	1.46
399.625	1.42
399.987	1.37
400.348	1.31
400.709	1.26
401.071	1.2
401.432	1.13
401.793	1.07
402.154	0.99
402.515	0.93
402.876	0.86
403.238	0.8
403.599	0.76
403.96	0.7
404.32	0.64
404.681	0.6
405.042	0.56
405.403	0.52
405.764	0.48
406.125	0.45
406.485	0.42
406.846	0.4
407.207	0.37
407.567	0.35
407.928	0.32
408.288	0.31
408.649	0.29
409.009	0.27
409.37	0.26
409.73	0.25
410.091	0.24
410.451	0.23
410.811	0.21
411.171	0.21
411.532	0.19
411.892	0.19
412.252	0.18
412.612	0.18
412.972	0.17
413.332	0.16
413.692	0.16
414.052	0.15
414.412	0.14
414.772	0.15
415.132	0.13
415.492	0.14
415.851	0.13
416.211	0.13
416.571	0.12
416.931	0.12
417.29	0.12
417.65	0.11
418.009	0.11
418.369	0.11
418.728	0.11
419.088	0.1
419.447	0.1
419.807	0.09
420.166	0.1
420.525	0.09
420.884	0.09
421.244	0.09
421.603	0.1
421.962	0.09
422.321	0.09
422.68	0.08
423.039	0.09
423.398	0.08
423.757	0.09
424.116	0.09
424.475	0.08
424.834	0.08
425.193	0.08
425.551	0.07
425.91	0.08
426.269	0.08
426.628	0.08
426.986	0.08
427.345	0.07
427.703	0.08
428.062	0.07
428.42	0.07
428.779	0.07
429.137	0.07
429.496	0.07
429.854	0.06
430.212	0.08
430.57	0.07
430.929	0.06
431.287	0.07
431.645	0.07
432.003	0.07
432.361	0.06
432.719	0.06
433.077	0.07
433.435	0.06
433.793	0.06
434.151	0.05
434.509	0.05
434.866	0.06
435.224	0.05
435.582	0.06
435.94	0.06
436.297	0.06
436.655	0.06
437.012	0.06
437.37	0.06
437.727	0.06
438.085	0.05
438.442	0.06
438.8	0.05
439.157	0.04
439.514	0.06
439.872	0.04
440.229	0.06
440.586	0.05
440.943	0.05
441.3	0.06
441.657	0.05
442.014	0.05
442.371	0.05
442.728	0.06
443.085	0.04
443.442	0.06
443.799	0.05
444.156	0.05
444.513	0.04
444.869	0.04
445.226	0.04
445.583	0.04
445.939	0.05
446.296	0.04
446.652	0.05
447.009	0.05
447.365	0.03
447.722	0.04
448.078	0.04
448.434	0.05
448.791	0.03
449.147	0.03
449.503	0.03
449.859	0.03
450.215	0.04
450.571	0.04
450.928	0.03
451.284	0.03
451.64	0.03
451.995	0.03
452.351	0.03
452.707	0.03
453.063	0.03
453.419	0.02
453.775	0.02
454.13	0.03
454.486	0.02
454.842	0.02
455.197	0.02
455.553	0.01
455.908	0.02
456.264	0.01
456.619	0.02
456.975	0.02
457.33	0.01
457.685	0.01
458.04	0
458.396	0.01
458.751	0
459.106	0
459.461	-0
459.816	-0
460.171	-0.01
460.526	-0.01
460.881	-0.01
461.236	-0.01
461.591	-0.01
461.946	-0.02
462.301	-0.01
462.655	-0.01
463.01	-0.01
463.365	-0.02
463.719	-0.02
464.074	-0.03
464.428	-0.04
464.783	-0.03
465.137	-0.04
465.492	-0.04
465.846	-0.03
466.201	-0.03
466.555	-0.03
466.909	-0.03
467.263	-0.02
467.618	-0.02
467.972	-0.03
468.326	-0.04
468.68	-0.04
469.034	-0.03
469.388	-0.04
469.742	-0.03
470.096	-0.03
470.45	-0.04
470.804	-0.03
471.157	-0.03
471.511	-0.03
471.865	-0.03
472.218	-0.03
472.572	-0.03
472.926	-0.03
473.279	-0.03
473.633	-0.02
473.986	-0.01
474.34	-0.02
474.693	-0.01
475.046	-0.01
475.4	0
475.753	0
476.106	0
476.459	0.01
476.812	0.01
477.165	0.01
477.519	0.02
477.872	0.02
478.224	0.02
478.577	0.02
478.93	0.03
479.283	0.03
479.636	0.03
479.989	0.03
480.341	0.04
480.694	0.04
481.047	0.04
481.399	0.04
481.752	0.04
482.104	0.05
482.457	0.05
482.809	0.05
483.162	0.06
483.514	0.05
483.866	0.06
484.219	0.06
484.571	0.06
484.923	0.06
485.275	0.06
485.627	0.06
485.979	0.06
486.331	0.06
486.683	0.07
487.035	0.07
487.387	0.07
487.739	0.08
488.091	0.07
488.443	0.08
488.794	0.08
489.146	0.08
489.498	0.08
489.849	0.08
490.201	0.08
490.552	0.08
490.904	0.08
491.255	0.08
491.607	0.08
491.958	0.08
492.309	0.09
492.661	0.09
493.012	0.09
493.363	0.09
493.714	0.09
494.065	0.09
494.416	0.09
494.767	0.09
495.118	0.1
495.469	0.1
495.82	0.1
496.171	0.1
496.522	0.1
496.872	0.11
497.223	0.11
497.574	0.11
497.924	0.11
498.275	0.11
498.626	0.11
498.976	0.11
499.327	0.11
499.677	0.11
500.027	0.12
500.378	0.12
500.728	0.12
501.078	0.12
501.428	0.12
501.779	0.12
502.129	0.13
502.479	0.13
502.829	0.13
503.179	0.13
503.529	0.13
503.879	0.13
504.229	0.14
504.578	0.14
504.928	0.14
505.278	0.14
505.628	0.15
505.977	0.15
506.327	0.14
506.676	0.15
507.026	0.15
507.375	0.15
507.725	0.15
508.074	0.15
508.424	0.15
508.773	0.15
509.122	0.16
509.471	0.15
509.82	0.16
510.17	0.16
510.519	0.16
510.868	0.16
511.217	0.16
511.566	0.16
511.915	0.17
512.263	0.17
512.612	0.17
512.961	0.17
513.31	0.17
513.659	0.17
514.007	0.18
514.356	0.18
514.704	0.18
515.053	0.18
515.401	0.18
515.75	0.18
516.098	0.19
516.447	0.18
516.795	0.19
517.143	0.19
517.491	0.19
517.839	0.19
518.188	0.19
518.536	0.19
518.884	0.2
519.232	0.19
519.58	0.2
519.928	0.2
520.275	0.2
520.623	0.21
520.971	0.21
521.319	0.21
521.666	0.21
522.014	0.21
522.362	0.21
522.709	0.21
523.057	0.21
523.404	0.22
523.752	0.22
524.099	0.22
524.446	0.22
524.794	0.22
525.141	0.22
525.488	0.22
525.835	0.22
526.182	0.23
526.529	0.23
526.876	0.23
527.223	0.24
527.57	0.23
527.917	0.24
528.264	0.24
528.611	0.23
528.958	0.24
529.304	0.24
529.651	0.24
529.998	0.25
530.344	0.25
530.691	0.25
531.037	0.25
531.384	0.25
531.73	0.25
532.076	0.25
532.423	0.25
532.769	0.26
533.115	0.26
533.461	0.26
533.807	0.26
534.154	0.26
534.5	0.26
534.846	0.27
535.192	0.27
535.537	0.27
535.883	0.28
536.229	0.28
536.575	0.28
536.921	0.28
537.266	0.28
537.612	0.28
537.957	0.29
538.303	0.29
538.649	0.29
538.994	0.29
539.339	0.29
539.685	0.3
540.03	0.3
540.375	0.29
540.721	0.3
541.066	0.31
541.411	0.3
541.756	0.31
542.101	0.31
542.446	0.31
542.791	0.31
543.136	0.32
543.481	0.31
543.825	0.32
544.17	0.32
544.515	0.33
544.86	0.33
545.204	0.33
545.549	0.33
545.893	0.33
546.238	0.34
546.582	0.34
546.927	0.34
547.271	0.34
547.615	0.34
547.96	0.35
548.304	0.35
548.648	0.35
548.992	0.35
549.336	0.35
549.68	0.36
550.024	0.36
550.368	0.36
550.712	0.36
551.056	0.36
551.4	0.37
551.743	0.37
552.087	0.37
552.431	0.37
552.774	0.37
553.118	0.37
553.462	0.37
553.805	0.38
554.148	0.38
554.492	0.38
554.835	0.38
555.178	0.38
555.522	0.38
555.865	0.38
556.208	0.38
556.551	0.39
556.894	0.39
557.237	0.39
557.58	0.39
557.923	0.39
558.266	0.39
558.609	0.39
558.952	0.4
559.294	0.4
559.637	0.4
559.98	0.4
560.322	0.4
560.665	0.4
561.007	0.4
561.35	0.4
561.692	0.4
562.034	0.41
562.377	0.41
562.719	0.41
563.061	0.4
563.403	0.41
563.745	0.41
564.088	0.41
564.43	0.41
564.772	0.41
565.113	0.41
565.455	0.41
565.797	0.41
566.139	0.41
566.481	0.41
566.822	0.42
567.164	0.42
567.506	0.42
567.847	0.42
568.189	0.42
568.53	0.42
568.872	0.42
569.213	0.42
569.554	0.42
569.895	0.42
570.237	0.42
570.578	0.42
570.919	0.42
571.26	0.42
571.601	0.42
571.942	0.42
572.283	0.42
572.624	0.42
572.965	0.42
573.306	0.42
573.646	0.42
573.987	0.42
574.328	0.42
574.668	0.42
575.009	0.42
575.349	0.42
575.69	0.42
576.03	0.42
576.37	0.42
576.711	0.41
577.051	0.42
577.391	0.42
577.731	0.43
578.072	0.42
578.412	0.42
578.752	0.43
579.092	0.42
579.431	0.42
579.771	0.41
580.111	0.41
580.451	0.41
580.791	0.42
581.13	0.43
581.47	0.43
581.81	0.43
582.149	0.43
582.489	0.43
582.828	0.43
583.167	0.42
583.507	0.39
583.846	0.37
584.185	0.39
584.525	0.41
584.864	0.43
585.203	0.43
585.542	0.44
585.881	0.44
586.22	0.45
586.559	0.44
586.898	0.44
587.236	0.43
587.575	0.43
587.914	0.44
588.252	0.45
588.591	0.45
588.93	0.45
589.268	0.45
589.607	0.46
589.945	0.46
590.283	0.45
590.622	0.46
590.96	0.46
591.298	0.47
591.636	0.47
591.974	0.47
592.313	0.47
592.651	0.48
592.989	0.48
593.326	0.48
593.664	0.48
594.002	0.49
594.34	0.48
594.678	0.48
595.015	0.48
595.353	0.48
595.691	0.48
596.028	0.49
596.366	0.49
596.703	0.5
597.04	0.5
597.378	0.5
597.715	0.5
598.052	0.5
598.389	0.51
598.726	0.51
599.064	0.51
599.401	0.51
599.738	0.51
600.074	0.51
600.411	0.52
600.748	0.51
601.085	0.51
601.422	0.51
601.758	0.51
602.095	0.51
602.432	0.51
602.768	0.51
603.105	0.51
603.441	0.51
603.777	0.52
604.114	0.52
604.45	0.52
604.786	0.52
605.122	0.52
605.459	0.52
605.795	0.52
606.131	0.52
606.467	0.52
606.803	0.52
607.139	0.52
607.474	0.52
607.81	0.51
608.146	0.51
608.482	0.52
608.817	0.51
609.153	0.51
609.488	0.51
609.824	0.51
610.159	0.5
610.495	0.5
610.83	0.5
611.165	0.51
611.5	0.5
611.836	0.5
612.171	0.5
612.506	0.5
612.841	0.5
613.176	0.5
613.511	0.5
613.845	0.49
614.18	0.49
614.515	0.49
614.85	0.49
615.184	0.49
615.519	0.49
615.854	0.49
616.188	0.48
616.523	0.48
616.857	0.49
617.191	0.48
617.526	0.48
617.86	0.48
618.194	0.48
618.528	0.48
618.862	0.48
619.196	0.47
619.53	0.47
619.864	0.47
620.198	0.47
620.532	0.47
620.866	0.46
621.2	0.46
621.533	0.46
621.867	0.46
622.201	0.46
622.534	0.46
622.868	0.46
623.201	0.45
623.534	0.46
623.868	0.45
624.201	0.45
624.534	0.45
624.868	0.45
625.201	0.45
625.534	0.45
625.867	0.44
626.2	0.44
626.533	0.44
626.865	0.43
627.198	0.43
627.531	0.43
627.864	0.43
628.196	0.43
628.529	0.43
628.862	0.42
629.194	0.42
629.527	0.42
629.859	0.41
630.191	0.41
630.524	0.41
630.856	0.41
631.188	0.41
631.52	0.41
631.852	0.4
632.184	0.4
632.516	0.4
632.848	0.39
633.18	0.39
633.512	0.39
633.844	0.38
634.175	0.38
634.507	0.38
634.839	0.38
635.17	0.37
635.502	0.37
635.833	0.37
636.165	0.36
636.496	0.36
636.827	0.36
637.159	0.36
637.49	0.36
637.821	0.36
638.152	0.35
638.483	0.35
638.814	0.35
639.145	0.34
639.476	0.34
639.807	0.33
640.137	0.33
640.468	0.33
640.799	0.33
641.129	0.33
641.46	0.32
641.791	0.32
642.121	0.32
642.451	0.31
642.782	0.31
643.112	0.31
643.442	0.3
643.773	0.3
644.103	0.3
644.433	0.3
644.763	0.29
645.093	0.3
645.423	0.29
645.753	0.29
646.082	0.29
646.412	0.29
646.742	0.29
647.072	0.29
647.401	0.29
647.731	0.29
648.06	0.29
648.39	0.29
648.719	0.29
649.048	0.28
649.378	0.28
649.707	0.28
650.036	0.28
650.365	0.28
650.694	0.28
651.023	0.28
651.352	0.27
651.681	0.28
652.01	0.28
652.339	0.28
652.668	0.28
652.996	0.27
653.325	0.27
653.654	0.27
653.982	0.27
654.311	0.28
654.639	0.27
654.967	0.27
655.296	0.27
655.624	0.27
655.952	0.27
656.28	0.26
656.609	0.26
656.937	0.27
657.265	0.27
657.593	0.24
657.92	0.1
658.248	0.05
658.576	0.05
658.904	0.14
659.231	0.23
659.559	0.26
659.887	0.27
660.214	0.27
660.542	0.27
660.869	0.26
661.196	0.27
661.524	0.26
661.851	0.26
662.178	0.27
662.505	0.26
662.832	0.26
663.159	0.26
663.486	0.26
663.813	0.26
664.14	0.26
664.467	0.26
664.794	0.26
665.12	0.26
665.447	0.26
665.774	0.26
666.1	0.25
666.427	0.25
666.753	0.25
667.079	0.25
667.406	0.25
667.732	0.25
668.058	0.26
668.384	0.26
668.71	0.25
669.036	0.25
669.362	0.25
669.688	0.25
670.014	0.25
670.34	0.25
670.666	0.25
670.991	0.24
671.317	0.24
671.643	0.24
671.968	0.24
672.294	0.24
672.619	0.24
672.945	0.24
673.27	0.24
673.595	0.23
673.92	0.24
674.246	0.23
674.571	0.23
674.896	0.23
675.221	0.23
675.546	0.23
675.87	0.23
676.195	0.22
676.52	0.22
676.845	0.22
677.169	0.22
677.494	0.22
677.819	0.21
678.143	0.21
678.468	0.21
678.792	0.21
679.116	0.21
679.44	0.21
679.765	0.2
680.089	0.21
680.413	0.2
680.737	0.2
681.061	0.2
681.385	0.2
681.709	0.19
682.033	0.19
682.356	0.18
682.68	0.18
683.004	0.18
683.327	0.18
683.651	0.18
683.974	0.18
684.298	0.18
684.621	0.17
684.944	0.17
685.268	0.17
685.591	0.17
685.914	0.17
686.237	0.17
686.56	0.17
686.883	0.16
687.206	0.16
687.529	0.15
687.852	0.15
688.175	0.15
688.497	0.15
688.82	0.15
689.142	0.15
689.465	0.15
689.787	0.15
690.11	0.15
690.432	0.14
690.755	0.14
691.077	0.14
691.399	0.14
691.721	0.14
692.043	0.13
692.365	0.13
692.687	0.13
693.009	0.13
693.331	0.13
693.653	0.13
693.974	0.13
694.296	0.12
694.618	0.12
694.939	0.12
695.261	0.12
695.582	0.12
695.904	0.12
696.225	0.12
696.546	0.12
696.868	0.11
697.189	0.11
697.51	0.11
697.831	0.11
698.152	0.11
698.473	0.11
698.794	0.11
699.114	0.11
699.435	0.1
699.756	0.1
700.077	0.1
700.397	0.1
700.718	0.1
701.038	0.1
701.359	0.1
701.679	0.1
701.999	0.1
702.32	0.1
702.64	0.1
702.96	0.1
703.28	0.1
703.6	0.1
703.92	0.1
704.24	0.1
704.56	0.1
704.879	0.09
705.199	0.09
705.519	0.09
705.838	0.09
706.158	0.09
706.478	0.09
706.797	0.09
707.116	0.09
707.436	0.09
707.755	0.09
708.074	0.09
708.393	0.09
708.712	0.09
709.031	0.09
709.35	0.08
709.669	0.08
709.988	0.08
710.307	0.08
710.626	0.09
710.944	0.08
711.263	0.08
711.582	0.08
711.9	0.08
712.219	0.08
712.537	0.08
712.855	0.08
713.174	0.08
713.492	0.08
713.81	0.08
714.128	0.08
714.446	0.08
714.764	0.08
715.082	0.07
715.4	0.08
715.718	0.08
716.035	0.07
716.353	0.07
716.671	0.07
716.988	0.08
717.306	0.08
717.623	0.08
717.941	0.08
718.258	0.09
718.575	0.09
718.893	0.09
719.21	0.08
719.527	0.08
719.844	0.09
720.161	0.09
720.478	0.09
720.795	0.09
721.112	0.09
721.428	0.09
721.745	0.08
722.062	0.08
722.378	0.09
722.695	0.09
723.011	0.09
723.328	0.09
723.644	0.09
723.96	0.09
724.276	0.09
724.593	0.09
724.909	0.09
725.225	0.09
725.541	0.09
725.857	0.09
726.173	0.09
726.488	0.09
726.804	0.09
727.12	0.09
727.435	0.1
727.751	0.1
728.067	0.1
728.382	0.1
728.697	0.1
729.013	0.09
729.328	0.1
729.643	0.1
729.958	0.1
730.273	0.1
730.588	0.1
730.903	0.1
731.218	0.1
731.533	0.1
731.848	0.1
732.163	0.1
732.477	0.1
732.792	0.1
733.107	0.09
733.421	0.09
733.736	0.1
734.05	0.1
734.364	0.1
734.678	0.1
734.993	0.1
735.307	0.1
735.621	0.09
735.935	0.1
736.249	0.09
736.563	0.1
736.877	0.09
737.19	0.09
737.504	0.09
737.818	0.09
738.131	0.09
738.445	0.09
738.758	0.09
739.072	0.09
739.385	0.09
739.698	0.09
740.012	0.09
740.325	0.09
740.638	0.09
740.951	0.09
741.264	0.09
741.577	0.09
741.89	0.09
742.203	0.09
742.515	0.09
742.828	0.09
743.141	0.09
743.453	0.09
743.766	0.09
744.078	0.09
744.391	0.09
744.703	0.09
745.015	0.09
745.327	0.08
745.639	0.08
745.952	0.08
746.264	0.08
746.575	0.08
746.887	0.08
747.199	0.08
747.511	0.08
747.823	0.07
748.134	0.07
748.446	0.07
748.757	0.07
749.069	0.07
749.38	0.07
749.692	0.07
750.003	0.07
750.314	0.07
750.625	0.07
750.936	0.07
751.248	0.07
751.559	0.07
751.869	0.07
752.18	0.07
752.491	0.07
752.802	0.07
753.112	0.06
753.423	0.06
753.734	0.06
754.044	0.06
754.355	0.06
754.665	0.06
754.975	0.06
755.285	0.05
755.596	0.05
755.906	0.05
756.216	0.05
756.526	0.05
756.836	0.05
757.146	0.05
757.455	0.05
757.765	0.05
758.075	0.05
758.385	0.05
758.694	0.05
759.004	0.05
759.313	0.05
759.622	0.05
759.932	0.05
760.241	0.04
760.55	0.04
760.859	0.04
761.168	0.04
761.477	0.04
761.786	0.04
762.095	0.04
762.404	0.04
762.713	0.04
763.021	0.04
763.33	0.04
763.639	0.04
763.947	0.03
764.256	0.03
764.564	0.03
764.872	0.03
765.181	0.03
765.489	0.03
765.797	0.03
766.105	0.03
766.413	0.03
766.721	0.03
767.029	0.03
767.337	0.03
767.644	0.04
767.952	0.03
768.26	0.04
768.567	0.03
768.875	0.03
769.182	0.03
769.49	0.03
769.797	0.02
770.104	0.02
770.411	0.02
770.718	0.03
771.026	0.03
771.333	0.03
771.639	0.03
771.946	0.02
772.253	0.03
772.56	0.03
772.867	0.03
773.173	0.03
773.48	0.02
773.786	0.02
774.093	0.02
774.399	0.02
774.705	0.02
775.012	0.02
775.318	0.02
775.624	0.02
775.93	0.02
776.236	0.02
776.542	0.02
776.848	0.02
777.154	0.02
777.459	0.02
777.765	0.02
778.071	0.02
778.376	0.02
778.682	0.02
778.987	0.02
779.292	0.02
779.598	0.02
779.903	0.02
780.208	0.02
780.513	0.02
780.818	0.02
781.123	0.02
781.428	0.02
781.733	0.02
782.038	0.02
782.343	0.03
782.647	0.02
782.952	0.02
783.256	0.03
783.561	0.03
783.865	0.03
784.17	0.03
784.474	0.03
784.778	0.02
785.082	0.02
785.386	0.02
785.69	0.03
785.994	0.02
786.298	0.02
786.602	0.03
786.906	0.02
787.209	0.02
787.513	0.02
787.817	0.02
788.12	0.02
788.424	0.02
788.727	0.02
789.03	0.03
789.333	0.02
789.637	0.02
789.94	0.02
790.243	0.03
790.546	0.03
790.849	0.03
791.152	0.03
791.454	0.03
791.757	0.03
792.06	0.03
792.362	0.03
792.665	0.02
792.967	0.02
793.27	0.02
793.572	0.02
793.874	0.02
794.177	0.02
794.479	0.02
794.781	0.02
795.083	0.02
795.385	0.02
795.687	0.02
795.989	0.02
796.29	0.02
796.592	0.02
796.894	0.02
797.195	0.02
797.497	0.02
797.798	0.02
798.1	0.02
798.401	0.02
798.702	0.02
799.003	0.02
799.304	0.02
799.605	0.02
799.906	0.02
800.207	0.02
800.508	0.02
800.809	0.02
801.11	0.02
801.41	0.02
801.711	0.03
802.011	0.03
802.312	0.03
802.612	0.02
802.913	0.03
803.213	0.03
803.513	0.03
803.813	0.03
804.113	0.03
804.413	0.03
804.713	0.04
805.013	0.03
805.313	0.04
805.613	0.03
805.912	0.03
806.212	0.03
806.511	0.03
806.811	0.03
807.11	0.03
807.41	0.03
807.709	0.03
808.008	0.03
808.307	0.02
808.606	0.02
808.905	0.02
809.204	0.02
809.503	0.02
809.802	0.02
810.101	0.02
810.399	0.02
810.698	0.02
810.997	0.02
811.295	0.02
811.593	0.02
811.892	0.02
812.19	0.02
812.488	0.03
812.786	0.02
813.084	0.03
813.383	0.02
813.68	0.02
813.978	0.02
814.276	0.02
814.574	0.02
814.872	0.02
815.169	0.02
815.467	0.02
815.764	0.02
816.062	0.03
816.359	0.02
816.656	0.02
816.954	0.01
817.251	0.02
817.548	0.02
817.845	0.02
818.142	0.02
818.439	0.02
818.735	0.02
819.032	0.02
819.329	0.02
819.626	0.02
819.922	0.02
820.219	0.02
820.515	0.02
820.811	0.02
821.108	0.02
821.404	0.02
821.7	0.02
821.996	0.02
822.292	0.03
822.588	0.02
822.884	0.02
823.18	0.02
823.475	0.02
823.771	0.03
824.067	0.02
824.362	0.03
824.658	0.03
824.953	0.03
825.249	0.03
825.544	0.03
825.839	0.03
826.134	0.03
826.429	0.03
826.724	0.03
827.019	0.02
827.314	0.02
827.609	0.02
827.904	0.02
828.198	0.02
828.493	0.03
828.787	0.02
829.082	0.02
829.376	0.02
829.671	0.02
829.965	0.02
830.259	0.02
830.553	0.03
830.847	0.02
831.141	0.02
831.435	0.02
831.729	0.02
832.023	0.03
832.317	0.02
832.61	0.02
832.904	0.02
833.197	0.02
833.491	0.03
833.784	0.02
834.077	0.02
834.371	0.03
834.664	0.02
834.957	0.03
835.25	0.02
835.543	0.02
835.836	0.03
836.129	0.03
836.421	0.03
836.714	0.03
837.007	0.02
837.299	0.03
837.592	0.03
837.884	0.03
838.177	0.03
838.469	0.03
838.761	0.03
839.053	0.02
839.345	0.03
839.637	0.03
839.929	0.02
840.221	0.04
840.513	0.02
840.805	0.03
841.096	0.03
841.388	0.01
841.68	0.03
841.971	0.03
842.262	0.03
842.554	0.02
842.845	0.02
843.136	0.02
843.427	0.02
843.718	0.03
844.009	0.02
844.3	0.02
844.591	0.03
844.882	0.02
845.173	0.02
845.463	0.02
845.754	0.02
846.044	0.02
846.335	0.01
846.625	0.03
846.915	0.02
847.206	0.03
847.496	0.03
847.786	0.03
848.076	0.03
848.366	0.03
848.656	0.03
848.945	0.02
849.235	0.03
849.525	0.04
849.814	0.03
850.104	0.03
850.393	0.03
850.683	0.02
850.972	0.03
851.261	0.02
851.551	0.04
851.84	0.03
852.129	0.02
852.418	0.02
852.707	0.01
852.995	0.02
853.284	0.02
853.573	0.02
853.862	0.01
854.15	0.01
854.439	0.02
854.727	0.01
855.015	0.02
855.304	0.02
855.592	0.01
855.88	0.03
856.168	0.03
856.456	0.02
856.744	0.02
857.032	0.03
857.32	0.03
857.607	0.03
857.895	0.02
858.183	0.04
858.47	0.03
858.757	0.02
859.045	0.03
859.332	0.03
859.619	0.01
859.907	0.03
860.194	0.02
860.481	0.02
860.768	0.01
861.054	0.03
861.341	0.04
861.628	0.04
861.915	0.02
862.201	0.02
862.488	0.02
862.774	0.01
863.061	0.01
863.347	0.01
863.633	0.02
863.919	0.04
864.205	0.02
864.491	0.05
864.777	0.03
865.063	0.02
865.349	0.02
865.635	-0
865.92	0
866.206	0.05
866.492	0.03
866.777	0.03
867.062	-0.01
867.348	-0.01
867.633	0.02
867.918	0.01
868.203	0
868.488	0.03
868.773	0.02
869.058	0.03
869.343	-0.01
869.628	0.02
869.912	0.01
870.197	-0
870.482	0.03
870.766	0.04
871.05	0.03
871.335	0.04
871.619	0.03
871.903	0.03
872.187	0.05
872.471	0.01
872.755	0.02
873.039	0.02
873.323	0.02
873.607	-0
873.89	-0.01
874.174	0
874.458	0.08
874.741	0.01
875.024	-0.01
875.308	-0.04
875.591	0.01
875.874	-0.01
876.157	0.02
876.44	-0.03
876.723	-0.02
877.006	0.08
877.289	0.05
877.572	-0.02
877.854	0.08
878.137	0.04
878.42	0.01
878.702	-0.01
878.984	-0.05
879.267	-0.02
879.549	0.06
879.831	0.1
880.113	-0.03
880.395	0.03
880.677	0.11
880.959	-0.05
