Data from Rubpy_EV_1500_EDTA_Buffered_Absorbance_14-47-03-910.txt Node
Date: Tue Jun 30 14:47:03 BST 2026
User: fpm-admin
Spectrometer: OFX00224
Trigger mode: 0
Integration Time (sec): 7.000000E-2
Scans to average: 3
Nonlinearity correction enabled: false
Boxcar width: 0
Storing dark spectrum: false
XAxis mode: Wavelengths
Number of Pixels in Spectrum: 2136
>>>>>Begin Spectral Data<<<<<
154.91	0.01
155.289	-0.11
155.669	-0.2
156.048	-0
156.428	-0
156.807	0.8
157.186	1
157.566	0.15
157.945	-0
158.325	-0
158.704	-0
159.083	0.15
159.462	-0
159.842	-0
160.221	-0.22
160.6	-0
160.979	0.23
161.359	-0.41
161.738	-0
162.117	-0.3
162.496	-0
162.875	0.11
163.254	-0
163.633	0.06
164.012	0.34
164.391	-0
164.77	0.54
165.149	-0
165.528	-0
165.907	0.06
166.286	-0.12
166.665	-0
167.044	0.72
167.423	1.23
167.802	-0
168.181	0.72
168.559	-0.03
168.938	0.91
169.317	-0
169.696	-0
170.074	0.31
170.453	-0.51
170.832	-0
171.21	-0.07
171.589	-0
171.968	-0
172.346	0.15
172.725	-1
173.103	-0
173.482	-0.63
173.861	-0.33
174.239	-0
174.617	-0
174.996	0.08
175.374	-0
175.753	-0
176.131	-0
176.51	-0.07
176.888	-0.1
177.266	-0
177.645	-0.07
178.023	0.29
178.401	-0.24
178.779	0.08
179.158	-0
179.536	1.2
179.914	-0
180.292	0.35
180.67	0.7
181.048	-0
181.427	-0
181.805	-0.05
182.183	0.28
182.561	-0.15
182.939	-0
183.317	-0
183.695	-0
184.073	-0.32
184.451	-0
184.829	-0
185.206	0.05
185.584	-0
185.962	-0.35
186.34	1
186.718	-0
187.096	-0
187.473	-0
187.851	-0.09
188.229	0.22
188.607	0.06
188.984	0.15
189.362	0.01
189.74	0.03
190.117	0.05
190.495	0.07
190.872	0.01
191.25	0.07
191.627	0.02
192.005	0.14
192.382	0.11
192.76	0.08
193.137	0.02
193.515	0.08
193.892	0.1
194.269	0.11
194.647	0.12
195.024	0.06
195.401	0.03
195.779	0.08
196.156	0.06
196.533	0.28
196.91	-0.01
197.288	-0.05
197.665	0.07
198.042	-0
198.419	0.05
198.796	0.05
199.173	0.06
199.55	0.02
199.927	0.13
200.304	0.06
200.681	0.08
201.058	0.17
201.435	0.05
201.812	0.04
202.189	0.12
202.566	0.16
202.943	-0.01
203.32	0.07
203.697	0.15
204.073	0.05
204.45	0.04
204.827	0.11
205.204	0.09
205.58	0.13
205.957	0.11
206.334	0.12
206.71	0.05
207.087	0.17
207.464	-0.03
207.84	0.13
208.217	0.16
208.593	0.06
208.97	0.11
209.346	0.16
209.723	0.12
210.099	0.12
210.476	0.16
210.852	0.14
211.228	0.12
211.605	0.1
211.981	0.09
212.357	0.16
212.733	0.11
213.11	0.23
213.486	0.11
213.862	0.11
214.238	0
214.614	0.11
214.991	0.06
215.367	0.1
215.743	0.13
216.119	0.04
216.495	0.02
216.871	0.15
217.247	-0.01
217.623	0.06
217.999	0.02
218.375	0.09
218.751	0
219.127	0.11
219.502	0.02
219.878	0.03
220.254	0.04
220.63	0.06
221.006	0.06
221.381	0.03
221.757	0.06
222.133	0.17
222.508	0.02
222.884	0.01
223.26	0.13
223.635	0.07
224.011	0.06
224.386	0.03
224.762	0.12
225.137	0.05
225.513	0.12
225.888	0.07
226.264	0.11
226.639	0.1
227.014	0.11
227.39	0.26
227.765	0.15
228.14	0.08
228.516	0.08
228.891	0.1
229.266	0.05
229.641	0.15
230.017	0.08
230.392	0.09
230.767	0.08
231.142	0.17
231.517	0.09
231.892	0.11
232.267	0.08
232.642	0.14
233.017	0.11
233.392	0.2
233.767	0.13
234.142	0.01
234.517	0.03
234.892	-0.02
235.267	0.09
235.641	0.04
236.016	0.01
236.391	-0.01
236.766	0.09
237.14	0.1
237.515	0.02
237.89	0.15
238.264	0.04
238.639	0.14
239.014	0.09
239.388	0.1
239.763	0.11
240.137	0.04
240.512	0.05
240.886	0.07
241.261	0.06
241.635	0.18
242.009	0.04
242.384	0.09
242.758	0.12
243.132	0.09
243.507	0.1
243.881	0.09
244.255	0.17
244.629	0.16
245.004	0.06
245.378	0.12
245.752	0.09
246.126	0.07
246.5	0.07
246.874	0.01
247.248	-0.01
247.622	0.15
247.996	0.06
248.37	0.17
248.744	0.11
249.118	-0
249.492	0.14
249.866	0.06
250.24	0.06
250.613	0.08
250.987	0.06
251.361	0.11
251.735	0.12
252.108	0.09
252.482	0.04
252.856	0
253.229	0.08
253.603	0.07
253.977	0.07
254.35	0.14
254.724	0.07
255.097	0.03
255.471	0.19
255.844	0.17
256.218	0.08
256.591	0.02
256.964	0.12
257.338	0.09
257.711	0.1
258.084	0.1
258.458	0.12
258.831	0.06
259.204	0.06
259.577	0.1
259.95	0.07
260.323	0.09
260.697	0.09
261.07	0.05
261.443	0.01
261.816	0.06
262.189	0.11
262.562	0.11
262.935	0.08
263.308	0.12
263.68	0.07
264.053	0.11
264.426	0.07
264.799	0.11
265.172	0.07
265.545	0.08
265.917	0.1
266.29	0.07
266.663	0.2
267.035	0.05
267.408	0.05
267.781	0.02
268.153	0.07
268.526	0.09
268.898	0.12
269.271	0.12
269.643	0.07
270.016	0.07
270.388	0.1
270.76	0.03
271.133	0.08
271.505	0.04
271.877	0.11
272.25	0.09
272.622	0.09
272.994	0.09
273.366	0.11
273.739	0.12
274.111	0.09
274.483	0.11
274.855	0.13
275.227	0.04
275.599	0.07
275.971	0.13
276.343	0.06
276.715	0.01
277.087	0.07
277.459	0.08
277.831	0.07
278.203	0.09
278.574	0.11
278.946	0.14
279.318	0.02
279.69	0.06
280.061	0.09
280.433	0.11
280.805	0.07
281.176	0.07
281.548	0.06
281.92	0.09
282.291	0.07
282.663	0.17
283.034	0.13
283.406	0.08
283.777	0.11
284.148	0.02
284.52	0.1
284.891	0.12
285.262	0.07
285.634	0.16
286.005	0.07
286.376	0.11
286.747	0.01
287.119	0.12
287.49	-0.05
287.861	0.07
288.232	0.05
288.603	0.03
288.974	0.05
289.345	0.01
289.716	0.1
290.087	0.09
290.458	0.1
290.829	0.09
291.2	0.03
291.571	0.05
291.941	0.05
292.312	0.08
292.683	0.1
293.054	0.07
293.424	-0.04
293.795	0.09
294.166	0.07
294.536	0.08
294.907	0.06
295.277	0.08
295.648	0.08
296.018	0.11
296.389	0.1
296.759	0.08
297.13	0.04
297.5	0.06
297.871	0.1
298.241	0.03
298.611	0.03
298.981	0.05
299.352	0.12
299.722	0.07
300.092	0.02
300.462	0.07
300.832	0.06
301.202	0.08
301.573	0.06
301.943	0.08
302.313	0.08
302.683	0.07
303.053	0.07
303.422	0.07
303.792	0.05
304.162	0.07
304.532	0.07
304.902	0.05
305.272	0.07
305.641	0.05
306.011	0.05
306.381	0.05
306.75	0.05
307.12	0.05
307.49	0.06
307.859	0.05
308.229	0.05
308.598	0.06
308.968	0.06
309.337	0.05
309.707	0.06
310.076	0.06
310.445	0.06
310.815	0.06
311.184	0.06
311.553	0.07
311.923	0.05
312.292	0.06
312.661	0.06
313.03	0.06
313.399	0.07
313.768	0.07
314.137	0.07
314.506	0.07
314.875	0.06
315.244	0.06
315.613	0.06
315.982	0.06
316.351	0.05
316.72	0.06
317.089	0.06
317.458	0.06
317.826	0.06
318.195	0.06
318.564	0.06
318.933	0.06
319.301	0.05
319.67	0.05
320.038	0.06
320.407	0.04
320.775	0.05
321.144	0.05
321.512	0.05
321.881	0.05
322.249	0.05
322.618	0.05
322.986	0.05
323.354	0.05
323.723	0.05
324.091	0.05
324.459	0.05
324.827	0.04
325.195	0.05
325.564	0.05
325.932	0.05
326.3	0.05
326.668	0.04
327.036	0.04
327.404	0.05
327.772	0.05
328.14	0.05
328.508	0.05
328.875	0.04
329.243	0.04
329.611	0.05
329.979	0.05
330.346	0.05
330.714	0.04
331.082	0.05
331.449	0.04
331.817	0.05
332.185	0.05
332.552	0.05
332.92	0.05
333.287	0.05
333.655	0.05
334.022	0.05
334.389	0.05
334.757	0.05
335.124	0.05
335.491	0.05
335.859	0.05
336.226	0.05
336.593	0.05
336.96	0.06
337.327	0.05
337.695	0.06
338.062	0.06
338.429	0.06
338.796	0.06
339.163	0.06
339.53	0.07
339.897	0.06
340.263	0.06
340.63	0.07
340.997	0.07
341.364	0.06
341.731	0.07
342.097	0.07
342.464	0.07
342.831	0.07
343.197	0.07
343.564	0.08
343.931	0.07
344.297	0.08
344.664	0.08
345.03	0.08
345.396	0.08
345.763	0.08
346.129	0.08
346.496	0.08
346.862	0.08
347.228	0.09
347.594	0.09
347.961	0.09
348.327	0.09
348.693	0.09
349.059	0.09
349.425	0.1
349.791	0.09
350.157	0.09
350.523	0.1
350.889	0.09
351.255	0.1
351.621	0.1
351.987	0.1
352.353	0.11
352.719	0.11
353.084	0.11
353.45	0.11
353.816	0.11
354.181	0.12
354.547	0.12
354.913	0.13
355.278	0.13
355.644	0.13
356.009	0.13
356.375	0.14
356.74	0.13
357.106	0.14
357.471	0.14
357.836	0.15
358.202	0.15
358.567	0.15
358.932	0.16
359.297	0.16
359.663	0.16
360.028	0.17
360.393	0.17
360.758	0.17
361.123	0.17
361.488	0.17
361.853	0.17
362.218	0.18
362.583	0.18
362.948	0.18
363.312	0.18
363.677	0.19
364.042	0.19
364.407	0.19
364.772	0.2
365.136	0.2
365.501	0.2
365.865	0.21
366.23	0.21
366.595	0.21
366.959	0.23
367.324	0.23
367.688	0.23
368.052	0.24
368.417	0.24
368.781	0.25
369.145	0.25
369.51	0.25
369.874	0.25
370.238	0.25
370.602	0.26
370.967	0.26
371.331	0.25
371.695	0.25
372.059	0.25
372.423	0.25
372.787	0.25
373.151	0.25
373.515	0.25
373.878	0.24
374.242	0.24
374.606	0.24
374.97	0.25
375.334	0.25
375.697	0.25
376.061	0.25
376.425	0.25
376.788	0.26
377.152	0.25
377.515	0.26
377.879	0.27
378.242	0.27
378.606	0.27
378.969	0.27
379.333	0.27
379.696	0.28
380.059	0.29
380.422	0.29
380.786	0.29
381.149	0.3
381.512	0.31
381.875	0.31
382.238	0.32
382.601	0.33
382.964	0.33
383.327	0.35
383.69	0.36
384.053	0.37
384.416	0.38
384.779	0.38
385.142	0.39
385.504	0.4
385.867	0.41
386.23	0.42
386.593	0.42
386.955	0.42
387.318	0.42
387.68	0.41
388.043	0.41
388.405	0.41
388.768	0.4
389.13	0.4
389.493	0.4
389.855	0.39
390.217	0.4
390.58	0.4
390.942	0.4
391.304	0.4
391.666	0.4
392.028	0.41
392.391	0.42
392.753	0.43
393.115	0.45
393.477	0.46
393.839	0.48
394.201	0.51
394.563	0.53
394.924	0.55
395.286	0.57
395.648	0.59
396.01	0.61
396.371	0.62
396.733	0.64
397.095	0.64
397.456	0.65
397.818	0.66
398.18	0.65
398.541	0.64
398.903	0.62
399.264	0.61
399.625	0.59
399.987	0.56
400.348	0.53
400.709	0.51
401.071	0.48
401.432	0.46
401.793	0.42
402.154	0.39
402.515	0.36
402.876	0.34
403.238	0.31
403.599	0.3
403.96	0.27
404.32	0.25
404.681	0.23
405.042	0.22
405.403	0.2
405.764	0.19
406.125	0.17
406.485	0.16
406.846	0.15
407.207	0.15
407.567	0.13
407.928	0.13
408.288	0.12
408.649	0.11
409.009	0.11
409.37	0.1
409.73	0.1
410.091	0.09
410.451	0.09
410.811	0.09
411.171	0.08
411.532	0.08
411.892	0.07
412.252	0.07
412.612	0.07
412.972	0.06
413.332	0.06
413.692	0.06
414.052	0.06
414.412	0.06
414.772	0.06
415.132	0.05
415.492	0.05
415.851	0.05
416.211	0.04
416.571	0.05
416.931	0.05
417.29	0.04
417.65	0.04
418.009	0.04
418.369	0.04
418.728	0.04
419.088	0.04
419.447	0.04
419.807	0.04
420.166	0.04
420.525	0.03
420.884	0.03
421.244	0.04
421.603	0.04
421.962	0.03
422.321	0.04
422.68	0.03
423.039	0.03
423.398	0.03
423.757	0.03
424.116	0.04
424.475	0.04
424.834	0.02
425.193	0.03
425.551	0.03
425.91	0.03
426.269	0.03
426.628	0.03
426.986	0.02
427.345	0.03
427.703	0.03
428.062	0.03
428.42	0.03
428.779	0.02
429.137	0.03
429.496	0.03
429.854	0.02
430.212	0.03
430.57	0.03
430.929	0.02
431.287	0.02
431.645	0.03
432.003	0.02
432.361	0.03
432.719	0.02
433.077	0.03
433.435	0.03
433.793	0.03
434.151	0.01
434.509	0.02
434.866	0.02
435.224	0.02
435.582	0.03
435.94	0.02
436.297	0.03
436.655	0.02
437.012	0.02
437.37	0.02
437.727	0.02
438.085	0.01
438.442	0.02
438.8	0.01
439.157	0.02
439.514	0.02
439.872	0.01
440.229	0.02
440.586	0.02
440.943	0.01
441.3	0.02
441.657	0.02
442.014	0.02
442.371	0.02
442.728	0.02
443.085	0.01
443.442	0.02
443.799	0.02
444.156	0.01
444.513	0.01
444.869	0.01
445.226	0.01
445.583	0.02
445.939	0.01
446.296	0.01
446.652	0.01
447.009	0.01
447.365	0
447.722	0.01
448.078	0.01
448.434	0.01
448.791	0.01
449.147	0.01
449.503	0
449.859	0
450.215	0.01
450.571	0.01
450.928	0.01
451.284	0.01
451.64	-0
451.995	-0
452.351	-0.01
452.707	0
453.063	-0.01
453.419	0
453.775	0
454.13	0
454.486	-0
454.842	-0.01
455.197	-0
455.553	-0.01
455.908	-0.01
456.264	-0.02
456.619	-0.02
456.975	-0.01
457.33	-0.02
457.685	-0.02
458.04	-0.03
458.396	-0.02
458.751	-0.02
459.106	-0.02
459.461	-0.03
459.816	-0.03
460.171	-0.03
460.526	-0.04
460.881	-0.04
461.236	-0.04
461.591	-0.04
461.946	-0.04
462.301	-0.04
462.655	-0.04
463.01	-0.03
463.365	-0.05
463.719	-0.04
464.074	-0.05
464.428	-0.07
464.783	-0.06
465.137	-0.06
465.492	-0.07
465.846	-0.06
466.201	-0.06
466.555	-0.06
466.909	-0.06
467.263	-0.06
467.618	-0.06
467.972	-0.06
468.326	-0.06
468.68	-0.07
469.034	-0.07
469.388	-0.07
469.742	-0.06
470.096	-0.07
470.45	-0.07
470.804	-0.06
471.157	-0.06
471.511	-0.06
471.865	-0.06
472.218	-0.06
472.572	-0.06
472.926	-0.06
473.279	-0.06
473.633	-0.06
473.986	-0.05
474.34	-0.05
474.693	-0.05
475.046	-0.04
475.4	-0.04
475.753	-0.04
476.106	-0.04
476.459	-0.03
476.812	-0.03
477.165	-0.03
477.519	-0.03
477.872	-0.02
478.224	-0.02
478.577	-0.02
478.93	-0.01
479.283	-0.02
479.636	-0.01
479.989	-0.01
480.341	-0.01
480.694	-0.01
481.047	-0.01
481.399	-0.01
481.752	-0
482.104	-0
482.457	0
482.809	-0
483.162	0
483.514	-0
483.866	0
484.219	0
484.571	0.01
484.923	0.01
485.275	0
485.627	0
485.979	0.01
486.331	0.01
486.683	0.01
487.035	0.01
487.387	0.01
487.739	0.01
488.091	0.01
488.443	0.02
488.794	0.01
489.146	0.02
489.498	0.01
489.849	0.01
490.201	0.02
490.552	0.01
490.904	0.02
491.255	0.01
491.607	0.02
491.958	0.02
492.309	0.02
492.661	0.02
493.012	0.02
493.363	0.02
493.714	0.02
494.065	0.02
494.416	0.02
494.767	0.02
495.118	0.03
495.469	0.03
495.82	0.03
496.171	0.03
496.522	0.03
496.872	0.03
497.223	0.03
497.574	0.03
497.924	0.03
498.275	0.03
498.626	0.03
498.976	0.03
499.327	0.03
499.677	0.03
500.027	0.04
500.378	0.03
500.728	0.04
501.078	0.04
501.428	0.03
501.779	0.03
502.129	0.04
502.479	0.04
502.829	0.04
503.179	0.04
503.529	0.04
503.879	0.04
504.229	0.04
504.578	0.04
504.928	0.04
505.278	0.04
505.628	0.04
505.977	0.05
506.327	0.05
506.676	0.05
507.026	0.05
507.375	0.05
507.725	0.05
508.074	0.05
508.424	0.05
508.773	0.05
509.122	0.05
509.471	0.05
509.82	0.05
510.17	0.05
510.519	0.05
510.868	0.05
511.217	0.05
511.566	0.05
511.915	0.05
512.263	0.05
512.612	0.05
512.961	0.05
513.31	0.05
513.659	0.06
514.007	0.05
514.356	0.06
514.704	0.06
515.053	0.06
515.401	0.06
515.75	0.06
516.098	0.06
516.447	0.06
516.795	0.06
517.143	0.06
517.491	0.06
517.839	0.06
518.188	0.06
518.536	0.07
518.884	0.06
519.232	0.06
519.58	0.07
519.928	0.06
520.275	0.07
520.623	0.07
520.971	0.07
521.319	0.07
521.666	0.07
522.014	0.07
522.362	0.07
522.709	0.07
523.057	0.07
523.404	0.07
523.752	0.08
524.099	0.07
524.446	0.07
524.794	0.07
525.141	0.08
525.488	0.08
525.835	0.08
526.182	0.08
526.529	0.08
526.876	0.08
527.223	0.08
527.57	0.08
527.917	0.08
528.264	0.08
528.611	0.08
528.958	0.08
529.304	0.08
529.651	0.08
529.998	0.08
530.344	0.09
530.691	0.08
531.037	0.09
531.384	0.08
531.73	0.08
532.076	0.09
532.423	0.09
532.769	0.09
533.115	0.09
533.461	0.09
533.807	0.09
534.154	0.09
534.5	0.09
534.846	0.09
535.192	0.09
535.537	0.09
535.883	0.1
536.229	0.09
536.575	0.1
536.921	0.1
537.266	0.1
537.612	0.11
537.957	0.1
538.303	0.1
538.649	0.1
538.994	0.1
539.339	0.1
539.685	0.1
540.03	0.1
540.375	0.11
540.721	0.1
541.066	0.11
541.411	0.11
541.756	0.11
542.101	0.11
542.446	0.11
542.791	0.11
543.136	0.11
543.481	0.11
543.825	0.11
544.17	0.11
544.515	0.11
544.86	0.12
545.204	0.11
545.549	0.11
545.893	0.12
546.238	0.12
546.582	0.12
546.927	0.12
547.271	0.12
547.615	0.12
547.96	0.12
548.304	0.12
548.648	0.12
548.992	0.12
549.336	0.13
549.68	0.13
550.024	0.13
550.368	0.13
550.712	0.13
551.056	0.13
551.4	0.13
551.743	0.13
552.087	0.13
552.431	0.13
552.774	0.13
553.118	0.13
553.462	0.13
553.805	0.13
554.148	0.14
554.492	0.13
554.835	0.13
555.178	0.14
555.522	0.13
555.865	0.14
556.208	0.14
556.551	0.14
556.894	0.14
557.237	0.14
557.58	0.14
557.923	0.14
558.266	0.14
558.609	0.14
558.952	0.14
559.294	0.15
559.637	0.15
559.98	0.15
560.322	0.15
560.665	0.14
561.007	0.14
561.35	0.15
561.692	0.15
562.034	0.15
562.377	0.15
562.719	0.15
563.061	0.15
563.403	0.15
563.745	0.15
564.088	0.15
564.43	0.15
564.772	0.15
565.113	0.15
565.455	0.15
565.797	0.15
566.139	0.15
566.481	0.15
566.822	0.15
567.164	0.16
567.506	0.15
567.847	0.16
568.189	0.15
568.53	0.16
568.872	0.15
569.213	0.15
569.554	0.16
569.895	0.15
570.237	0.15
570.578	0.15
570.919	0.15
571.26	0.15
571.601	0.15
571.942	0.15
572.283	0.15
572.624	0.15
572.965	0.15
573.306	0.15
573.646	0.15
573.987	0.15
574.328	0.15
574.668	0.15
575.009	0.16
575.349	0.15
575.69	0.15
576.03	0.15
576.37	0.15
576.711	0.15
577.051	0.15
577.391	0.15
577.731	0.15
578.072	0.15
578.412	0.15
578.752	0.15
579.092	0.15
579.431	0.15
579.771	0.14
580.111	0.14
580.451	0.14
580.791	0.15
581.13	0.15
581.47	0.15
581.81	0.15
582.149	0.15
582.489	0.15
582.828	0.15
583.167	0.14
583.507	0.12
583.846	0.1
584.185	0.12
584.525	0.14
584.864	0.15
585.203	0.16
585.542	0.16
585.881	0.16
586.22	0.16
586.559	0.16
586.898	0.16
587.236	0.15
587.575	0.15
587.914	0.15
588.252	0.16
588.591	0.16
588.93	0.16
589.268	0.16
589.607	0.16
589.945	0.16
590.283	0.16
590.622	0.16
590.96	0.17
591.298	0.17
591.636	0.17
591.974	0.17
592.313	0.17
592.651	0.17
592.989	0.18
593.326	0.18
593.664	0.18
594.002	0.18
594.34	0.17
594.678	0.17
595.015	0.17
595.353	0.17
595.691	0.17
596.028	0.18
596.366	0.18
596.703	0.18
597.04	0.18
597.378	0.19
597.715	0.19
598.052	0.19
598.389	0.19
598.726	0.19
599.064	0.19
599.401	0.19
599.738	0.19
600.074	0.19
600.411	0.19
600.748	0.19
601.085	0.18
601.422	0.18
601.758	0.18
602.095	0.18
602.432	0.18
602.768	0.19
603.105	0.19
603.441	0.19
603.777	0.19
604.114	0.19
604.45	0.19
604.786	0.19
605.122	0.19
605.459	0.19
605.795	0.19
606.131	0.19
606.467	0.19
606.803	0.19
607.139	0.19
607.474	0.19
607.81	0.19
608.146	0.19
608.482	0.19
608.817	0.19
609.153	0.19
609.488	0.19
609.824	0.19
610.159	0.19
610.495	0.18
610.83	0.19
611.165	0.18
611.5	0.19
611.836	0.18
612.171	0.19
612.506	0.18
612.841	0.19
613.176	0.19
613.511	0.19
613.845	0.18
614.18	0.18
614.515	0.19
614.85	0.18
615.184	0.18
615.519	0.18
615.854	0.18
616.188	0.18
616.523	0.18
616.857	0.18
617.191	0.18
617.526	0.18
617.86	0.18
618.194	0.18
618.528	0.18
618.862	0.18
619.196	0.18
619.53	0.18
619.864	0.18
620.198	0.18
620.532	0.17
620.866	0.17
621.2	0.17
621.533	0.17
621.867	0.17
622.201	0.17
622.534	0.17
622.868	0.17
623.201	0.17
623.534	0.17
623.868	0.17
624.201	0.17
624.534	0.17
624.868	0.17
625.201	0.16
625.534	0.17
625.867	0.16
626.2	0.16
626.533	0.16
626.865	0.16
627.198	0.16
627.531	0.17
627.864	0.16
628.196	0.16
628.529	0.16
628.862	0.16
629.194	0.16
629.527	0.16
629.859	0.16
630.191	0.16
630.524	0.15
630.856	0.16
631.188	0.15
631.52	0.15
631.852	0.15
632.184	0.15
632.516	0.15
632.848	0.15
633.18	0.14
633.512	0.15
633.844	0.14
634.175	0.14
634.507	0.14
634.839	0.14
635.17	0.14
635.502	0.14
635.833	0.14
636.165	0.14
636.496	0.14
636.827	0.14
637.159	0.13
637.49	0.14
637.821	0.13
638.152	0.13
638.483	0.13
638.814	0.13
639.145	0.13
639.476	0.13
639.807	0.13
640.137	0.13
640.468	0.12
640.799	0.12
641.129	0.12
641.46	0.12
641.791	0.12
642.121	0.12
642.451	0.12
642.782	0.11
643.112	0.11
643.442	0.11
643.773	0.11
644.103	0.11
644.433	0.11
644.763	0.11
645.093	0.11
645.423	0.11
645.753	0.11
646.082	0.11
646.412	0.11
646.742	0.11
647.072	0.11
647.401	0.11
647.731	0.11
648.06	0.11
648.39	0.11
648.719	0.11
649.048	0.11
649.378	0.1
649.707	0.1
650.036	0.11
650.365	0.1
650.694	0.1
651.023	0.1
651.352	0.1
651.681	0.1
652.01	0.1
652.339	0.1
652.668	0.1
652.996	0.1
653.325	0.1
653.654	0.1
653.982	0.1
654.311	0.11
654.639	0.1
654.967	0.1
655.296	0.1
655.624	0.1
655.952	0.1
656.28	0.1
656.609	0.1
656.937	0.1
657.265	0.1
657.593	0.07
657.92	0
658.248	0
658.576	0
658.904	0
659.231	0.07
659.559	0.1
659.887	0.1
660.214	0.1
660.542	0.1
660.869	0.1
661.196	0.1
661.524	0.1
661.851	0.1
662.178	0.1
662.505	0.1
662.832	0.1
663.159	0.1
663.486	0.09
663.813	0.1
664.14	0.1
664.467	0.1
664.794	0.09
665.12	0.1
665.447	0.1
665.774	0.1
666.1	0.1
666.427	0.09
666.753	0.09
667.079	0.1
667.406	0.1
667.732	0.1
668.058	0.1
668.384	0.1
668.71	0.1
669.036	0.1
669.362	0.1
669.688	0.1
670.014	0.1
670.34	0.1
670.666	0.09
670.991	0.09
671.317	0.09
671.643	0.09
671.968	0.09
672.294	0.09
672.619	0.09
672.945	0.09
673.27	0.09
673.595	0.09
673.92	0.09
674.246	0.09
674.571	0.09
674.896	0.09
675.221	0.09
675.546	0.09
675.87	0.09
676.195	0.09
676.52	0.08
676.845	0.08
677.169	0.08
677.494	0.09
677.819	0.08
678.143	0.08
678.468	0.08
678.792	0.08
679.116	0.08
679.44	0.08
679.765	0.08
680.089	0.08
680.413	0.08
680.737	0.08
681.061	0.08
681.385	0.08
681.709	0.07
682.033	0.07
682.356	0.07
682.68	0.07
683.004	0.07
683.327	0.07
683.651	0.07
683.974	0.07
684.298	0.07
684.621	0.07
684.944	0.07
685.268	0.07
685.591	0.06
685.914	0.06
686.237	0.07
686.56	0.07
686.883	0.06
687.206	0.06
687.529	0.06
687.852	0.06
688.175	0.06
688.497	0.06
688.82	0.06
689.142	0.06
689.465	0.06
689.787	0.06
690.11	0.06
690.432	0.06
690.755	0.05
691.077	0.05
691.399	0.06
691.721	0.05
692.043	0.05
692.365	0.05
692.687	0.05
693.009	0.05
693.331	0.05
693.653	0.05
693.974	0.05
694.296	0.05
694.618	0.05
694.939	0.05
695.261	0.05
695.582	0.05
695.904	0.05
696.225	0.05
696.546	0.05
696.868	0.05
697.189	0.04
697.51	0.05
697.831	0.05
698.152	0.05
698.473	0.05
698.794	0.04
699.114	0.04
699.435	0.04
699.756	0.04
700.077	0.04
700.397	0.04
700.718	0.04
701.038	0.04
701.359	0.04
701.679	0.04
701.999	0.04
702.32	0.04
702.64	0.04
702.96	0.04
703.28	0.04
703.6	0.04
703.92	0.04
704.24	0.04
704.56	0.04
704.879	0.04
705.199	0.03
705.519	0.04
705.838	0.03
706.158	0.03
706.478	0.04
706.797	0.04
707.116	0.03
707.436	0.03
707.755	0.03
708.074	0.04
708.393	0.04
708.712	0.04
709.031	0.03
709.35	0.03
709.669	0.03
709.988	0.03
710.307	0.03
710.626	0.03
710.944	0.03
711.263	0.03
711.582	0.03
711.9	0.03
712.219	0.03
712.537	0.03
712.855	0.03
713.174	0.03
713.492	0.03
713.81	0.03
714.128	0.03
714.446	0.03
714.764	0.03
715.082	0.03
715.4	0.03
715.718	0.03
716.035	0.03
716.353	0.03
716.671	0.03
716.988	0.03
717.306	0.03
717.623	0.03
717.941	0.03
718.258	0.03
718.575	0.03
718.893	0.03
719.21	0.03
719.527	0.03
719.844	0.03
720.161	0.03
720.478	0.03
720.795	0.03
721.112	0.03
721.428	0.03
721.745	0.03
722.062	0.03
722.378	0.03
722.695	0.03
723.011	0.03
723.328	0.03
723.644	0.03
723.96	0.03
724.276	0.03
724.593	0.03
724.909	0.03
725.225	0.03
725.541	0.04
725.857	0.04
726.173	0.04
726.488	0.03
726.804	0.03
727.12	0.03
727.435	0.03
727.751	0.04
728.067	0.04
728.382	0.04
728.697	0.04
729.013	0.04
729.328	0.04
729.643	0.04
729.958	0.04
730.273	0.04
730.588	0.04
730.903	0.04
731.218	0.04
731.533	0.04
731.848	0.04
732.163	0.04
732.477	0.04
732.792	0.04
733.107	0.03
733.421	0.04
733.736	0.04
734.05	0.04
734.364	0.04
734.678	0.04
734.993	0.04
735.307	0.04
735.621	0.04
735.935	0.04
736.249	0.04
736.563	0.04
736.877	0.04
737.19	0.04
737.504	0.03
737.818	0.04
738.131	0.03
738.445	0.03
738.758	0.04
739.072	0.03
739.385	0.03
739.698	0.03
740.012	0.04
740.325	0.03
740.638	0.03
740.951	0.03
741.264	0.03
741.577	0.03
741.89	0.04
742.203	0.04
742.515	0.04
742.828	0.04
743.141	0.04
743.453	0.04
743.766	0.04
744.078	0.04
744.391	0.04
744.703	0.04
745.015	0.04
745.327	0.04
745.639	0.04
745.952	0.04
746.264	0.04
746.575	0.04
746.887	0.04
747.199	0.03
747.511	0.03
747.823	0.03
748.134	0.03
748.446	0.03
748.757	0.03
749.069	0.03
749.38	0.03
749.692	0.03
750.003	0.03
750.314	0.03
750.625	0.03
750.936	0.03
751.248	0.03
751.559	0.03
751.869	0.02
752.18	0.02
752.491	0.02
752.802	0.03
753.112	0.02
753.423	0.03
753.734	0.03
754.044	0.03
754.355	0.02
754.665	0.02
754.975	0.02
755.285	0.02
755.596	0.02
755.906	0.02
756.216	0.02
756.526	0.02
756.836	0.02
757.146	0.02
757.455	0.02
757.765	0.02
758.075	0.02
758.385	0.02
758.694	0.02
759.004	0.01
759.313	0.01
759.622	0.01
759.932	0.02
760.241	0.01
760.55	0.02
760.859	0.02
761.168	0.01
761.477	0.02
761.786	0.02
762.095	0.01
762.404	0.02
762.713	0.01
763.021	0.01
763.33	0.01
763.639	0.01
763.947	0.01
764.256	0.01
764.564	0.01
764.872	0.01
765.181	0.01
765.489	0.01
765.797	0.01
766.105	0.01
766.413	0.01
766.721	0.01
767.029	0.01
767.337	0.01
767.644	0.01
767.952	0.01
768.26	0.01
768.567	0.01
768.875	0.02
769.182	0.02
769.49	0.02
769.797	0.01
770.104	0.01
770.411	0.01
770.718	0.01
771.026	0.01
771.333	0.01
771.639	0.01
771.946	0.01
772.253	0.01
772.56	0.01
772.867	0.01
773.173	0.01
773.48	0.01
773.786	0.01
774.093	0.01
774.399	0.01
774.705	0.01
775.012	0.01
775.318	0.01
775.624	0.01
775.93	0.01
776.236	0.01
776.542	0.01
776.848	0.01
777.154	0.01
777.459	0.01
777.765	0.01
778.071	0.01
778.376	0.01
778.682	0.01
778.987	0
779.292	0
779.598	0.01
779.903	0.01
780.208	0.01
780.513	0.01
780.818	0.01
781.123	0.01
781.428	0.01
781.733	0.01
782.038	0.01
782.343	0.01
782.647	0.01
782.952	0.01
783.256	0.01
783.561	0.01
783.865	0.01
784.17	0.01
784.474	0.01
784.778	0.01
785.082	0.01
785.386	0.01
785.69	0.01
785.994	0.01
786.298	0.01
786.602	0.01
786.906	0.01
787.209	0
787.513	0.01
787.817	0.01
788.12	0.01
788.424	0.01
788.727	0.01
789.03	0.01
789.333	0.01
789.637	0.01
789.94	0.01
790.243	0.01
790.546	0.01
790.849	0.01
791.152	0.01
791.454	0.01
791.757	0.01
792.06	0.01
792.362	0.01
792.665	0.01
792.967	0.01
793.27	0.01
793.572	0.01
793.874	0.01
794.177	0.01
794.479	0.01
794.781	0.01
795.083	0.01
795.385	0.01
795.687	0.01
795.989	0.01
796.29	0.01
796.592	0.01
796.894	0.01
797.195	0.01
797.497	0.01
797.798	0.01
798.1	0.01
798.401	0.01
798.702	0.01
799.003	0.01
799.304	0.01
799.605	0.01
799.906	0.01
800.207	0.01
800.508	0.01
800.809	0.01
801.11	0.01
801.41	0.01
801.711	0.01
802.011	0.01
802.312	0.02
802.612	0.01
802.913	0.02
803.213	0.02
803.513	0.02
803.813	0.02
804.113	0.02
804.413	0.02
804.713	0.02
805.013	0.01
805.313	0.01
805.613	0.01
805.912	0.02
806.212	0.02
806.511	0.02
806.811	0.02
807.11	0.02
807.41	0.02
807.709	0.02
808.008	0.02
808.307	0.02
808.606	0.02
808.905	0.02
809.204	0.02
809.503	0.01
809.802	0.01
810.101	0.02
810.399	0.01
810.698	0.01
810.997	0.01
811.295	0.01
811.593	0.01
811.892	0.01
812.19	0.01
812.488	0.01
812.786	0.01
813.084	0.01
813.383	0.02
813.68	0.01
813.978	0.01
814.276	0.01
814.574	0.01
814.872	0.01
815.169	0.01
815.467	0.01
815.764	0.02
816.062	0.02
816.359	0.02
816.656	0.02
816.954	0.02
817.251	0.02
817.548	0.01
817.845	0.01
818.142	0.02
818.439	0.02
818.735	0.02
819.032	0.01
819.329	0.02
819.626	0.01
819.922	0.01
820.219	0.02
820.515	0.02
820.811	0.01
821.108	0.01
821.404	0.01
821.7	0.01
821.996	0.01
822.292	0.01
822.588	0.01
822.884	0.01
823.18	0.01
823.475	0.01
823.771	0.01
824.067	0.01
824.362	0.01
824.658	0.02
824.953	0.02
825.249	0.02
825.544	0.02
825.839	0.02
826.134	0.02
826.429	0.02
826.724	0.01
827.019	0.01
827.314	0.01
827.609	0.01
827.904	0.01
828.198	0.01
828.493	0.01
828.787	0.01
829.082	0.01
829.376	0.01
829.671	0.01
829.965	0.01
830.259	0.01
830.553	0.02
830.847	0.01
831.141	0.01
831.435	0.01
831.729	0.01
832.023	0.02
832.317	0.01
832.61	0.02
832.904	0
833.197	0.01
833.491	0.01
833.784	0.01
834.077	0.01
834.371	0.02
834.664	0.01
834.957	0.01
835.25	0.01
835.543	0.01
835.836	0.01
836.129	0.01
836.421	0.01
836.714	0.02
837.007	0.01
837.299	0.01
837.592	0.02
837.884	0.03
838.177	0.02
838.469	0.02
838.761	0.02
839.053	0.01
839.345	0.02
839.637	0.02
839.929	0.01
840.221	0.02
840.513	0.02
840.805	0.02
841.096	0.02
841.388	0.02
841.68	0.02
841.971	0.02
842.262	0.02
842.554	0.02
842.845	0.02
843.136	0.01
843.427	0.02
843.718	0.01
844.009	0.01
844.3	0.01
844.591	0.01
844.882	0.01
845.173	0.01
845.463	0.01
845.754	0.01
846.044	0.02
846.335	0.01
846.625	0.02
846.915	0.01
847.206	0.02
847.496	0.02
847.786	0.02
848.076	0.02
848.366	0.02
848.656	0.02
848.945	0.02
849.235	0.02
849.525	0.02
849.814	0.03
850.104	0.02
850.393	0.02
850.683	0.01
850.972	0.03
851.261	0.02
851.551	0.03
851.84	0.02
852.129	0.02
852.418	0.02
852.707	0.01
852.995	0.02
853.284	0.01
853.573	0.01
853.862	0.01
854.15	-0
854.439	0.01
854.727	0.02
855.015	0
855.304	0.01
855.592	0
855.88	0.02
856.168	0.01
856.456	0.01
856.744	0.01
857.032	0.01
857.32	0.01
857.607	0.01
857.895	0.02
858.183	0.03
858.47	-0
858.757	0
859.045	0.01
859.332	0.02
859.619	0
859.907	0
860.194	0.02
860.481	-0
860.768	0
861.054	0.01
861.341	0.01
861.628	0.01
861.915	0.02
862.201	0.02
862.488	0.02
862.774	0
863.061	-0.01
863.347	0.02
863.633	0.02
863.919	0.03
864.205	0.01
864.491	0.03
864.777	0.01
865.063	-0
865.349	0
865.635	-0.01
865.92	0.02
866.206	0.01
866.492	0.03
866.777	0.03
867.062	-0.02
867.348	-0.01
867.633	-0
867.918	0
868.203	0.01
868.488	0.01
868.773	-0.01
869.058	-0.01
869.343	0.02
869.628	0.01
869.912	0.01
870.197	0
870.482	0.02
870.766	0.05
871.05	0.02
871.335	0.02
871.619	0.03
871.903	0.04
872.187	0.07
872.471	0.01
872.755	0.04
873.039	0.05
873.323	0.05
873.607	0.01
873.89	-0.03
874.174	0.06
874.458	0
874.741	0.04
875.024	-0.02
875.308	-0.03
875.591	-0.02
875.874	-0.05
876.157	-0
876.44	0
876.723	0.05
877.006	0.07
877.289	0.07
877.572	0.01
877.854	0.05
878.137	0.05
878.42	0.05
878.702	0.02
878.984	-0
879.267	0.01
879.549	0.08
879.831	0.05
880.113	0.06
880.395	0.06
880.677	0.11
880.959	0
