Data from Rubpy_EV_1500_EDTA_Buffered_Absorbance_14-47-23-050.txt Node
Date: Tue Jun 30 14:47:23 BST 2026
User: fpm-admin
Spectrometer: OFX00224
Trigger mode: 0
Integration Time (sec): 7.000000E-2
Scans to average: 3
Nonlinearity correction enabled: false
Boxcar width: 0
Storing dark spectrum: false
XAxis mode: Wavelengths
Number of Pixels in Spectrum: 2136
>>>>>Begin Spectral Data<<<<<
154.91	0.65
155.289	-0.08
155.669	-0
156.048	-0
156.428	0.15
156.807	0.3
157.186	-0.43
157.566	-0.1
157.945	-0
158.325	-1.28
158.704	-1.11
159.083	0.22
159.462	-0
159.842	-0
160.221	-0.03
160.6	-0
160.979	0.15
161.359	-0.41
161.738	-0
162.117	-0
162.496	0.85
162.875	0.51
163.254	-0
163.633	-0
164.012	-0
164.391	-0
164.77	0.24
165.149	-0
165.528	-0
165.907	-0.44
166.286	-0.32
166.665	-0.26
167.044	0.02
167.423	-0.05
167.802	-0
168.181	0.09
168.559	-0.5
168.938	0.11
169.317	-0
169.696	-0.08
170.074	0.16
170.453	-0.51
170.832	-0
171.21	-0.37
171.589	-0
171.968	0.44
172.346	-0.54
172.725	-1.3
173.103	-0.4
173.482	-0.85
173.861	-0.26
174.239	-0.2
174.617	-0.23
174.996	0.48
175.374	0.82
175.753	-0
176.131	0.25
176.51	0.04
176.888	0.3
177.266	-0
177.645	-0.08
178.023	0.36
178.401	-0.3
178.779	-0.14
179.158	0.48
179.536	-0
179.914	-0
180.292	0.55
180.67	0.08
181.048	-0
181.427	-0
181.805	-0.51
182.183	-0
182.561	0.2
182.939	-0.78
183.317	0.12
183.695	0.07
184.073	-0
184.451	0.08
184.829	-0.1
185.206	-0.13
185.584	0.33
185.962	-0
186.34	1.3
186.718	-0
187.096	-1.18
187.473	-0
187.851	0.38
188.229	0.7
188.607	0.13
188.984	0.09
189.362	0.08
189.74	0.02
190.117	0.03
190.495	0.07
190.872	-0.03
191.25	0.14
191.627	0.04
192.005	0.1
192.382	0.14
192.76	0.12
193.137	0.08
193.515	0.15
193.892	0.08
194.269	0.29
194.647	0.19
195.024	0.06
195.401	0.12
195.779	0.23
196.156	0.08
196.533	0.14
196.91	0.05
197.288	0.05
197.665	0.14
198.042	0.04
198.419	0.05
198.796	0.14
199.173	0.03
199.55	0.04
199.927	0.15
200.304	0.02
200.681	0.05
201.058	0.14
201.435	0.04
201.812	0.12
202.189	0.08
202.566	0.2
202.943	-0.01
203.32	0.09
203.697	0.14
204.073	0.1
204.45	0.08
204.827	0.08
205.204	0.18
205.58	0.06
205.957	0.13
206.334	0.08
206.71	0.08
207.087	0.06
207.464	0.05
207.84	0.07
208.217	0.07
208.593	0.05
208.97	0.08
209.346	0.06
209.723	0.05
210.099	0.07
210.476	0.15
210.852	0.14
211.228	0.12
211.605	0.06
211.981	0.14
212.357	0.15
212.733	0.03
213.11	0.13
213.486	0.09
213.862	0.09
214.238	0.05
214.614	0.16
214.991	0.09
215.367	0.12
215.743	0.16
216.119	0.09
216.495	0.02
216.871	0.14
217.247	0
217.623	0.02
217.999	0.08
218.375	0.03
218.751	0.03
219.127	0.05
219.502	0.02
219.878	0.08
220.254	0.11
220.63	0.08
221.006	0.03
221.381	0.06
221.757	0.09
222.133	0.14
222.508	0.09
222.884	0.05
223.26	0.13
223.635	0.11
224.011	0.13
224.386	0.04
224.762	0.1
225.137	0.05
225.513	0.09
225.888	0.13
226.264	0.08
226.639	0.05
227.014	0.1
227.39	0.06
227.765	0.2
228.14	0.12
228.516	0.03
228.891	0.12
229.266	0.07
229.641	0.05
230.017	0.08
230.392	0.11
230.767	0.1
231.142	0.19
231.517	0.17
231.892	0.14
232.267	0.14
232.642	0.16
233.017	0.18
233.392	0.13
233.767	0.07
234.142	0.14
234.517	0.07
234.892	0.07
235.267	0.05
235.641	0.13
236.016	0.07
236.391	0.01
236.766	0.16
237.14	0.08
237.515	0.03
237.89	0.01
238.264	0.1
238.639	0.09
239.014	0.15
239.388	0.14
239.763	0.17
240.137	0.06
240.512	0.06
240.886	0.05
241.261	0.12
241.635	0.14
242.009	0.07
242.384	0.09
242.758	0.1
243.132	0.01
243.507	0.15
243.881	0.18
244.255	0.06
244.629	0.19
245.004	0.13
245.378	0.12
245.752	0.06
246.126	0.05
246.5	0.06
246.874	0.06
247.248	0.01
247.622	0.18
247.996	0.1
248.37	0.15
248.744	0.12
249.118	0.04
249.492	0.17
249.866	0.01
250.24	0.13
250.613	0.06
250.987	0.04
251.361	0.07
251.735	0.12
252.108	0.08
252.482	0.04
252.856	0.09
253.229	0.05
253.603	0.14
253.977	0.26
254.35	0.08
254.724	0.06
255.097	0.1
255.471	0.06
255.844	0.17
256.218	0.06
256.591	0
256.964	0.1
257.338	0.09
257.711	0.11
258.084	0.14
258.458	0.08
258.831	0.09
259.204	0.06
259.577	0.08
259.95	0.1
260.323	0.14
260.697	0.08
261.07	0.09
261.443	0.05
261.816	0.04
262.189	0.16
262.562	0.11
262.935	0.05
263.308	0.11
263.68	0.12
264.053	0.13
264.426	0.05
264.799	0.09
265.172	0.1
265.545	0.16
265.917	0.07
266.29	0.06
266.663	0.15
267.035	0.14
267.408	0.07
267.781	0.08
268.153	0.12
268.526	0.08
268.898	0.21
269.271	0.16
269.643	0.1
270.016	0.07
270.388	0.11
270.76	0.06
271.133	0.1
271.505	0.05
271.877	0.04
272.25	0.07
272.622	0.08
272.994	0.1
273.366	0.13
273.739	0.16
274.111	0.1
274.483	0.07
274.855	0.12
275.227	0.1
275.599	0.07
275.971	0.12
276.343	0.06
276.715	0.09
277.087	0.16
277.459	0.16
277.831	0.07
278.203	0.08
278.574	0.13
278.946	0.13
279.318	0.06
279.69	0.07
280.061	0.06
280.433	0.09
280.805	0.07
281.176	0.15
281.548	0.09
281.92	0.09
282.291	0.05
282.663	0.15
283.034	0.09
283.406	0.08
283.777	0.13
284.148	0.16
284.52	0.13
284.891	0.07
285.262	0.09
285.634	0.07
286.005	0.09
286.376	0.05
286.747	0.06
287.119	0.07
287.49	0.07
287.861	0.08
288.232	0.09
288.603	0.11
288.974	0.14
289.345	0.02
289.716	0.12
290.087	0.11
290.458	0.1
290.829	0.06
291.2	0.12
291.571	0.08
291.941	0.04
292.312	0.07
292.683	0.08
293.054	0.13
293.424	0.02
293.795	0.08
294.166	0.09
294.536	0.11
294.907	0.07
295.277	0.08
295.648	0.08
296.018	0.1
296.389	0.08
296.759	0.07
297.13	0.05
297.5	0.09
297.871	0.09
298.241	0.06
298.611	0.08
298.981	0.1
299.352	0.09
299.722	0.1
300.092	0.07
300.462	0.08
300.832	0.06
301.202	0.08
301.573	0.07
301.943	0.08
302.313	0.09
302.683	0.07
303.053	0.08
303.422	0.07
303.792	0.06
304.162	0.06
304.532	0.08
304.902	0.05
305.272	0.07
305.641	0.06
306.011	0.06
306.381	0.07
306.75	0.06
307.12	0.07
307.49	0.07
307.859	0.06
308.229	0.06
308.598	0.08
308.968	0.06
309.337	0.06
309.707	0.06
310.076	0.07
310.445	0.07
310.815	0.07
311.184	0.06
311.553	0.07
311.923	0.07
312.292	0.07
312.661	0.07
313.03	0.07
313.399	0.07
313.768	0.08
314.137	0.07
314.506	0.07
314.875	0.07
315.244	0.07
315.613	0.07
315.982	0.07
316.351	0.07
316.72	0.07
317.089	0.06
317.458	0.06
317.826	0.07
318.195	0.06
318.564	0.06
318.933	0.06
319.301	0.06
319.67	0.06
320.038	0.06
320.407	0.06
320.775	0.07
321.144	0.06
321.512	0.06
321.881	0.06
322.249	0.06
322.618	0.06
322.986	0.06
323.354	0.06
323.723	0.05
324.091	0.06
324.459	0.05
324.827	0.05
325.195	0.05
325.564	0.06
325.932	0.05
326.3	0.05
326.668	0.05
327.036	0.06
327.404	0.06
327.772	0.05
328.14	0.05
328.508	0.05
328.875	0.05
329.243	0.05
329.611	0.06
329.979	0.06
330.346	0.05
330.714	0.05
331.082	0.05
331.449	0.05
331.817	0.06
332.185	0.06
332.552	0.06
332.92	0.06
333.287	0.06
333.655	0.06
334.022	0.06
334.389	0.06
334.757	0.06
335.124	0.06
335.491	0.06
335.859	0.06
336.226	0.06
336.593	0.06
336.96	0.07
337.327	0.06
337.695	0.07
338.062	0.07
338.429	0.07
338.796	0.07
339.163	0.07
339.53	0.07
339.897	0.07
340.263	0.07
340.63	0.07
340.997	0.07
341.364	0.07
341.731	0.08
342.097	0.08
342.464	0.08
342.831	0.08
343.197	0.08
343.564	0.09
343.931	0.08
344.297	0.09
344.664	0.09
345.03	0.09
345.396	0.09
345.763	0.09
346.129	0.09
346.496	0.09
346.862	0.1
347.228	0.1
347.594	0.1
347.961	0.1
348.327	0.1
348.693	0.11
349.059	0.1
349.425	0.1
349.791	0.11
350.157	0.11
350.523	0.11
350.889	0.11
351.255	0.12
351.621	0.12
351.987	0.12
352.353	0.13
352.719	0.12
353.084	0.13
353.45	0.13
353.816	0.13
354.181	0.14
354.547	0.14
354.913	0.14
355.278	0.15
355.644	0.14
356.009	0.15
356.375	0.15
356.74	0.16
357.106	0.16
357.471	0.16
357.836	0.17
358.202	0.17
358.567	0.17
358.932	0.18
359.297	0.18
359.663	0.18
360.028	0.19
360.393	0.19
360.758	0.19
361.123	0.2
361.488	0.2
361.853	0.2
362.218	0.2
362.583	0.21
362.948	0.2
363.312	0.21
363.677	0.21
364.042	0.22
364.407	0.22
364.772	0.23
365.136	0.23
365.501	0.24
365.865	0.24
366.23	0.24
366.595	0.25
366.959	0.26
367.324	0.26
367.688	0.26
368.052	0.27
368.417	0.28
368.781	0.28
369.145	0.28
369.51	0.29
369.874	0.29
370.238	0.29
370.602	0.29
370.967	0.29
371.331	0.28
371.695	0.28
372.059	0.29
372.423	0.28
372.787	0.28
373.151	0.28
373.515	0.28
373.878	0.28
374.242	0.28
374.606	0.28
374.97	0.28
375.334	0.28
375.697	0.28
376.061	0.28
376.425	0.28
376.788	0.29
377.152	0.29
377.515	0.3
377.879	0.3
378.242	0.3
378.606	0.3
378.969	0.31
379.333	0.32
379.696	0.32
380.059	0.33
380.422	0.33
380.786	0.33
381.149	0.34
381.512	0.35
381.875	0.35
382.238	0.37
382.601	0.37
382.964	0.38
383.327	0.39
383.69	0.41
384.053	0.41
384.416	0.43
384.779	0.44
385.142	0.44
385.504	0.45
385.867	0.46
386.23	0.47
386.593	0.47
386.955	0.47
387.318	0.47
387.68	0.47
388.043	0.47
388.405	0.46
388.768	0.46
389.13	0.45
389.493	0.45
389.855	0.45
390.217	0.44
390.58	0.44
390.942	0.45
391.304	0.46
391.666	0.46
392.028	0.47
392.391	0.47
392.753	0.49
393.115	0.51
393.477	0.52
393.839	0.55
394.201	0.57
394.563	0.6
394.924	0.62
395.286	0.64
395.648	0.67
396.01	0.68
396.371	0.7
396.733	0.72
397.095	0.73
397.456	0.74
397.818	0.74
398.18	0.73
398.541	0.72
398.903	0.71
399.264	0.69
399.625	0.66
399.987	0.63
400.348	0.61
400.709	0.58
401.071	0.54
401.432	0.51
401.793	0.47
402.154	0.44
402.515	0.42
402.876	0.39
403.238	0.36
403.599	0.33
403.96	0.31
404.32	0.28
404.681	0.27
405.042	0.24
405.403	0.23
405.764	0.21
406.125	0.2
406.485	0.18
406.846	0.18
407.207	0.16
407.567	0.15
407.928	0.15
408.288	0.14
408.649	0.13
409.009	0.12
409.37	0.12
409.73	0.11
410.091	0.11
410.451	0.09
410.811	0.09
411.171	0.09
411.532	0.08
411.892	0.08
412.252	0.08
412.612	0.07
412.972	0.07
413.332	0.07
413.692	0.07
414.052	0.07
414.412	0.06
414.772	0.07
415.132	0.06
415.492	0.06
415.851	0.05
416.211	0.06
416.571	0.06
416.931	0.05
417.29	0.05
417.65	0.05
418.009	0.04
418.369	0.05
418.728	0.05
419.088	0.04
419.447	0.04
419.807	0.04
420.166	0.04
420.525	0.04
420.884	0.04
421.244	0.04
421.603	0.04
421.962	0.04
422.321	0.04
422.68	0.04
423.039	0.04
423.398	0.04
423.757	0.04
424.116	0.04
424.475	0.03
424.834	0.03
425.193	0.04
425.551	0.03
425.91	0.03
426.269	0.03
426.628	0.03
426.986	0.03
427.345	0.02
427.703	0.03
428.062	0.03
428.42	0.03
428.779	0.02
429.137	0.03
429.496	0.03
429.854	0.03
430.212	0.03
430.57	0.03
430.929	0.03
431.287	0.03
431.645	0.03
432.003	0.02
432.361	0.03
432.719	0.03
433.077	0.03
433.435	0.03
433.793	0.03
434.151	0.02
434.509	0.02
434.866	0.02
435.224	0.02
435.582	0.02
435.94	0.03
436.297	0.03
436.655	0.03
437.012	0.02
437.37	0.02
437.727	0.02
438.085	0.02
438.442	0.03
438.8	0.02
439.157	0.02
439.514	0.02
439.872	0.01
440.229	0.02
440.586	0.02
440.943	0.02
441.3	0.03
441.657	0.02
442.014	0.02
442.371	0.02
442.728	0.02
443.085	0.01
443.442	0.02
443.799	0.02
444.156	0.01
444.513	0.02
444.869	0.01
445.226	0.01
445.583	0.01
445.939	0.02
446.296	0.01
446.652	0.01
447.009	0.01
447.365	0.01
447.722	0
448.078	0.01
448.434	0.01
448.791	0.01
449.147	0
449.503	-0
449.859	0.01
450.215	0.01
450.571	0.02
450.928	0.01
451.284	0.01
451.64	0.01
451.995	0
452.351	0
452.707	0
453.063	0
453.419	0.01
453.775	0.01
454.13	0
454.486	0.01
454.842	-0.01
455.197	-0.01
455.553	-0.01
455.908	-0.01
456.264	-0.01
456.619	-0.02
456.975	-0.01
457.33	-0.01
457.685	-0.02
458.04	-0.02
458.396	-0.02
458.751	-0.02
459.106	-0.02
459.461	-0.02
459.816	-0.02
460.171	-0.03
460.526	-0.03
460.881	-0.03
461.236	-0.04
461.591	-0.03
461.946	-0.05
462.301	-0.04
462.655	-0.04
463.01	-0.04
463.365	-0.04
463.719	-0.04
464.074	-0.05
464.428	-0.06
464.783	-0.05
465.137	-0.06
465.492	-0.06
465.846	-0.05
466.201	-0.06
466.555	-0.06
466.909	-0.06
467.263	-0.05
467.618	-0.05
467.972	-0.05
468.326	-0.06
468.68	-0.07
469.034	-0.06
469.388	-0.06
469.742	-0.06
470.096	-0.06
470.45	-0.06
470.804	-0.06
471.157	-0.06
471.511	-0.06
471.865	-0.06
472.218	-0.06
472.572	-0.06
472.926	-0.06
473.279	-0.06
473.633	-0.05
473.986	-0.05
474.34	-0.05
474.693	-0.05
475.046	-0.04
475.4	-0.04
475.753	-0.04
476.106	-0.04
476.459	-0.03
476.812	-0.03
477.165	-0.02
477.519	-0.02
477.872	-0.02
478.224	-0.02
478.577	-0.02
478.93	-0.01
479.283	-0.02
479.636	-0.01
479.989	-0.01
480.341	-0.01
480.694	-0.01
481.047	-0.01
481.399	-0
481.752	-0
482.104	-0
482.457	0
482.809	0
483.162	0
483.514	-0
483.866	0
484.219	0.01
484.571	0.01
484.923	0.01
485.275	0.01
485.627	0.01
485.979	0.01
486.331	0.01
486.683	0.01
487.035	0.02
487.387	0.01
487.739	0.02
488.091	0.02
488.443	0.02
488.794	0.02
489.146	0.02
489.498	0.02
489.849	0.02
490.201	0.02
490.552	0.02
490.904	0.02
491.255	0.02
491.607	0.02
491.958	0.02
492.309	0.02
492.661	0.02
493.012	0.02
493.363	0.03
493.714	0.02
494.065	0.02
494.416	0.02
494.767	0.03
495.118	0.03
495.469	0.03
495.82	0.03
496.171	0.03
496.522	0.03
496.872	0.03
497.223	0.03
497.574	0.04
497.924	0.03
498.275	0.04
498.626	0.04
498.976	0.04
499.327	0.04
499.677	0.03
500.027	0.04
500.378	0.04
500.728	0.04
501.078	0.04
501.428	0.04
501.779	0.04
502.129	0.05
502.479	0.04
502.829	0.05
503.179	0.04
503.529	0.05
503.879	0.04
504.229	0.04
504.578	0.05
504.928	0.04
505.278	0.05
505.628	0.05
505.977	0.05
506.327	0.05
506.676	0.05
507.026	0.06
507.375	0.05
507.725	0.05
508.074	0.05
508.424	0.05
508.773	0.05
509.122	0.06
509.471	0.05
509.82	0.05
510.17	0.06
510.519	0.06
510.868	0.06
511.217	0.06
511.566	0.06
511.915	0.06
512.263	0.06
512.612	0.06
512.961	0.06
513.31	0.06
513.659	0.06
514.007	0.06
514.356	0.07
514.704	0.07
515.053	0.07
515.401	0.07
515.75	0.07
516.098	0.07
516.447	0.07
516.795	0.07
517.143	0.07
517.491	0.07
517.839	0.07
518.188	0.07
518.536	0.07
518.884	0.07
519.232	0.07
519.58	0.07
519.928	0.07
520.275	0.07
520.623	0.07
520.971	0.08
521.319	0.08
521.666	0.08
522.014	0.08
522.362	0.08
522.709	0.08
523.057	0.08
523.404	0.08
523.752	0.08
524.099	0.08
524.446	0.08
524.794	0.09
525.141	0.09
525.488	0.09
525.835	0.09
526.182	0.09
526.529	0.09
526.876	0.09
527.223	0.09
527.57	0.09
527.917	0.09
528.264	0.1
528.611	0.09
528.958	0.09
529.304	0.09
529.651	0.09
529.998	0.1
530.344	0.1
530.691	0.1
531.037	0.1
531.384	0.09
531.73	0.1
532.076	0.09
532.423	0.1
532.769	0.1
533.115	0.1
533.461	0.1
533.807	0.1
534.154	0.1
534.5	0.11
534.846	0.1
535.192	0.11
535.537	0.11
535.883	0.11
536.229	0.11
536.575	0.11
536.921	0.11
537.266	0.11
537.612	0.11
537.957	0.11
538.303	0.11
538.649	0.11
538.994	0.11
539.339	0.12
539.685	0.12
540.03	0.12
540.375	0.12
540.721	0.12
541.066	0.12
541.411	0.12
541.756	0.12
542.101	0.12
542.446	0.12
542.791	0.12
543.136	0.13
543.481	0.13
543.825	0.13
544.17	0.13
544.515	0.13
544.86	0.13
545.204	0.13
545.549	0.13
545.893	0.13
546.238	0.14
546.582	0.14
546.927	0.13
547.271	0.14
547.615	0.14
547.96	0.14
548.304	0.14
548.648	0.14
548.992	0.14
549.336	0.14
549.68	0.14
550.024	0.14
550.368	0.15
550.712	0.14
551.056	0.15
551.4	0.15
551.743	0.15
552.087	0.15
552.431	0.15
552.774	0.15
553.118	0.15
553.462	0.15
553.805	0.15
554.148	0.15
554.492	0.15
554.835	0.15
555.178	0.15
555.522	0.16
555.865	0.16
556.208	0.16
556.551	0.16
556.894	0.16
557.237	0.16
557.58	0.16
557.923	0.16
558.266	0.16
558.609	0.16
558.952	0.16
559.294	0.17
559.637	0.16
559.98	0.16
560.322	0.16
560.665	0.16
561.007	0.17
561.35	0.17
561.692	0.17
562.034	0.17
562.377	0.17
562.719	0.17
563.061	0.17
563.403	0.17
563.745	0.17
564.088	0.17
564.43	0.17
564.772	0.17
565.113	0.17
565.455	0.17
565.797	0.17
566.139	0.17
566.481	0.17
566.822	0.17
567.164	0.18
567.506	0.17
567.847	0.17
568.189	0.17
568.53	0.17
568.872	0.17
569.213	0.18
569.554	0.18
569.895	0.17
570.237	0.18
570.578	0.17
570.919	0.17
571.26	0.17
571.601	0.17
571.942	0.17
572.283	0.17
572.624	0.17
572.965	0.17
573.306	0.17
573.646	0.17
573.987	0.17
574.328	0.17
574.668	0.17
575.009	0.18
575.349	0.17
575.69	0.17
576.03	0.17
576.37	0.17
576.711	0.16
577.051	0.17
577.391	0.17
577.731	0.17
578.072	0.17
578.412	0.17
578.752	0.17
579.092	0.17
579.431	0.17
579.771	0.16
580.111	0.16
580.451	0.16
580.791	0.17
581.13	0.17
581.47	0.17
581.81	0.17
582.149	0.17
582.489	0.17
582.828	0.17
583.167	0.16
583.507	0.14
583.846	0.12
584.185	0.14
584.525	0.16
584.864	0.17
585.203	0.18
585.542	0.18
585.881	0.18
586.22	0.18
586.559	0.18
586.898	0.18
587.236	0.18
587.575	0.17
587.914	0.18
588.252	0.18
588.591	0.19
588.93	0.19
589.268	0.18
589.607	0.19
589.945	0.19
590.283	0.19
590.622	0.19
590.96	0.19
591.298	0.19
591.636	0.19
591.974	0.19
592.313	0.2
592.651	0.2
592.989	0.2
593.326	0.2
593.664	0.2
594.002	0.2
594.34	0.2
594.678	0.2
595.015	0.2
595.353	0.19
595.691	0.2
596.028	0.2
596.366	0.2
596.703	0.21
597.04	0.21
597.378	0.21
597.715	0.21
598.052	0.21
598.389	0.21
598.726	0.22
599.064	0.22
599.401	0.21
599.738	0.22
600.074	0.22
600.411	0.21
600.748	0.21
601.085	0.21
601.422	0.21
601.758	0.21
602.095	0.21
602.432	0.21
602.768	0.21
603.105	0.21
603.441	0.21
603.777	0.21
604.114	0.22
604.45	0.22
604.786	0.22
605.122	0.22
605.459	0.22
605.795	0.22
606.131	0.22
606.467	0.22
606.803	0.22
607.139	0.22
607.474	0.21
607.81	0.21
608.146	0.22
608.482	0.22
608.817	0.21
609.153	0.21
609.488	0.21
609.824	0.21
610.159	0.21
610.495	0.21
610.83	0.21
611.165	0.21
611.5	0.22
611.836	0.21
612.171	0.21
612.506	0.21
612.841	0.21
613.176	0.21
613.511	0.21
613.845	0.21
614.18	0.21
614.515	0.21
614.85	0.21
615.184	0.2
615.519	0.21
615.854	0.21
616.188	0.21
616.523	0.2
616.857	0.21
617.191	0.2
617.526	0.2
617.86	0.2
618.194	0.2
618.528	0.2
618.862	0.2
619.196	0.2
619.53	0.2
619.864	0.2
620.198	0.2
620.532	0.2
620.866	0.2
621.2	0.19
621.533	0.19
621.867	0.19
622.201	0.19
622.534	0.19
622.868	0.2
623.201	0.19
623.534	0.2
623.868	0.19
624.201	0.19
624.534	0.19
624.868	0.19
625.201	0.18
625.534	0.19
625.867	0.19
626.2	0.19
626.533	0.18
626.865	0.18
627.198	0.18
627.531	0.18
627.864	0.18
628.196	0.18
628.529	0.18
628.862	0.18
629.194	0.18
629.527	0.18
629.859	0.18
630.191	0.17
630.524	0.18
630.856	0.18
631.188	0.18
631.52	0.17
631.852	0.17
632.184	0.17
632.516	0.17
632.848	0.17
633.18	0.16
633.512	0.17
633.844	0.16
634.175	0.16
634.507	0.16
634.839	0.16
635.17	0.16
635.502	0.16
635.833	0.15
636.165	0.16
636.496	0.15
636.827	0.16
637.159	0.15
637.49	0.15
637.821	0.15
638.152	0.15
638.483	0.15
638.814	0.15
639.145	0.15
639.476	0.14
639.807	0.14
640.137	0.14
640.468	0.14
640.799	0.14
641.129	0.14
641.46	0.14
641.791	0.13
642.121	0.14
642.451	0.13
642.782	0.13
643.112	0.13
643.442	0.13
643.773	0.13
644.103	0.13
644.433	0.13
644.763	0.12
645.093	0.13
645.423	0.12
645.753	0.12
646.082	0.12
646.412	0.13
646.742	0.12
647.072	0.13
647.401	0.13
647.731	0.12
648.06	0.13
648.39	0.12
648.719	0.12
649.048	0.12
649.378	0.12
649.707	0.12
650.036	0.12
650.365	0.12
650.694	0.12
651.023	0.12
651.352	0.12
651.681	0.12
652.01	0.12
652.339	0.12
652.668	0.12
652.996	0.12
653.325	0.12
653.654	0.12
653.982	0.12
654.311	0.12
654.639	0.11
654.967	0.12
655.296	0.11
655.624	0.11
655.952	0.11
656.28	0.11
656.609	0.11
656.937	0.11
657.265	0.11
657.593	0.08
657.92	0
658.248	-0
658.576	-0
658.904	0.01
659.231	0.08
659.559	0.11
659.887	0.12
660.214	0.12
660.542	0.12
660.869	0.11
661.196	0.11
661.524	0.11
661.851	0.11
662.178	0.11
662.505	0.11
662.832	0.11
663.159	0.11
663.486	0.11
663.813	0.11
664.14	0.11
664.467	0.11
664.794	0.11
665.12	0.11
665.447	0.11
665.774	0.11
666.1	0.11
666.427	0.11
666.753	0.11
667.079	0.11
667.406	0.11
667.732	0.11
668.058	0.11
668.384	0.11
668.71	0.11
669.036	0.11
669.362	0.11
669.688	0.11
670.014	0.11
670.34	0.1
670.666	0.11
670.991	0.1
671.317	0.1
671.643	0.1
671.968	0.1
672.294	0.1
672.619	0.1
672.945	0.1
673.27	0.1
673.595	0.1
673.92	0.1
674.246	0.1
674.571	0.1
674.896	0.1
675.221	0.1
675.546	0.1
675.87	0.1
676.195	0.1
676.52	0.09
676.845	0.1
677.169	0.09
677.494	0.09
677.819	0.09
678.143	0.09
678.468	0.09
678.792	0.09
679.116	0.09
679.44	0.09
679.765	0.09
680.089	0.09
680.413	0.09
680.737	0.09
681.061	0.09
681.385	0.08
681.709	0.08
682.033	0.08
682.356	0.08
682.68	0.08
683.004	0.08
683.327	0.08
683.651	0.07
683.974	0.08
684.298	0.08
684.621	0.08
684.944	0.08
685.268	0.07
685.591	0.07
685.914	0.07
686.237	0.07
686.56	0.07
686.883	0.07
687.206	0.07
687.529	0.07
687.852	0.06
688.175	0.06
688.497	0.06
688.82	0.06
689.142	0.06
689.465	0.06
689.787	0.06
690.11	0.06
690.432	0.06
690.755	0.06
691.077	0.06
691.399	0.06
691.721	0.06
692.043	0.06
692.365	0.06
692.687	0.06
693.009	0.05
693.331	0.05
693.653	0.05
693.974	0.05
694.296	0.05
694.618	0.05
694.939	0.05
695.261	0.05
695.582	0.05
695.904	0.05
696.225	0.05
696.546	0.05
696.868	0.05
697.189	0.05
697.51	0.05
697.831	0.05
698.152	0.05
698.473	0.05
698.794	0.05
699.114	0.05
699.435	0.05
699.756	0.04
700.077	0.04
700.397	0.04
700.718	0.04
701.038	0.04
701.359	0.04
701.679	0.04
701.999	0.04
702.32	0.04
702.64	0.04
702.96	0.05
703.28	0.04
703.6	0.04
703.92	0.04
704.24	0.04
704.56	0.04
704.879	0.04
705.199	0.04
705.519	0.04
705.838	0.04
706.158	0.04
706.478	0.04
706.797	0.04
707.116	0.04
707.436	0.04
707.755	0.04
708.074	0.04
708.393	0.04
708.712	0.04
709.031	0.04
709.35	0.04
709.669	0.03
709.988	0.03
710.307	0.04
710.626	0.04
710.944	0.04
711.263	0.04
711.582	0.04
711.9	0.04
712.219	0.04
712.537	0.04
712.855	0.04
713.174	0.03
713.492	0.04
713.81	0.03
714.128	0.03
714.446	0.03
714.764	0.03
715.082	0.03
715.4	0.03
715.718	0.03
716.035	0.03
716.353	0.03
716.671	0.03
716.988	0.03
717.306	0.03
717.623	0.03
717.941	0.04
718.258	0.04
718.575	0.04
718.893	0.04
719.21	0.04
719.527	0.03
719.844	0.04
720.161	0.03
720.478	0.04
720.795	0.04
721.112	0.03
721.428	0.04
721.745	0.03
722.062	0.03
722.378	0.04
722.695	0.04
723.011	0.04
723.328	0.04
723.644	0.04
723.96	0.04
724.276	0.04
724.593	0.04
724.909	0.04
725.225	0.04
725.541	0.04
725.857	0.04
726.173	0.04
726.488	0.04
726.804	0.04
727.12	0.04
727.435	0.04
727.751	0.04
728.067	0.04
728.382	0.04
728.697	0.04
729.013	0.04
729.328	0.04
729.643	0.04
729.958	0.04
730.273	0.04
730.588	0.04
730.903	0.04
731.218	0.04
731.533	0.05
731.848	0.04
732.163	0.04
732.477	0.04
732.792	0.04
733.107	0.04
733.421	0.04
733.736	0.04
734.05	0.05
734.364	0.04
734.678	0.05
734.993	0.04
735.307	0.04
735.621	0.04
735.935	0.04
736.249	0.04
736.563	0.04
736.877	0.04
737.19	0.04
737.504	0.04
737.818	0.04
738.131	0.04
738.445	0.04
738.758	0.04
739.072	0.04
739.385	0.04
739.698	0.04
740.012	0.04
740.325	0.04
740.638	0.04
740.951	0.04
741.264	0.03
741.577	0.04
741.89	0.04
742.203	0.04
742.515	0.04
742.828	0.04
743.141	0.04
743.453	0.04
743.766	0.04
744.078	0.04
744.391	0.04
744.703	0.04
745.015	0.04
745.327	0.04
745.639	0.04
745.952	0.04
746.264	0.04
746.575	0.04
746.887	0.04
747.199	0.04
747.511	0.04
747.823	0.03
748.134	0.03
748.446	0.03
748.757	0.03
749.069	0.03
749.38	0.03
749.692	0.03
750.003	0.03
750.314	0.03
750.625	0.03
750.936	0.03
751.248	0.03
751.559	0.03
751.869	0.03
752.18	0.03
752.491	0.03
752.802	0.03
753.112	0.03
753.423	0.03
753.734	0.03
754.044	0.03
754.355	0.03
754.665	0.03
754.975	0.03
755.285	0.02
755.596	0.02
755.906	0.02
756.216	0.02
756.526	0.02
756.836	0.02
757.146	0.02
757.455	0.02
757.765	0.02
758.075	0.02
758.385	0.02
758.694	0.02
759.004	0.02
759.313	0.02
759.622	0.02
759.932	0.02
760.241	0.02
760.55	0.02
760.859	0.02
761.168	0.02
761.477	0.02
761.786	0.02
762.095	0.02
762.404	0.02
762.713	0.02
763.021	0.02
763.33	0.02
763.639	0.01
763.947	0.01
764.256	0.01
764.564	0.01
764.872	0.01
765.181	0.01
765.489	0.01
765.797	0.01
766.105	0.01
766.413	0.01
766.721	0.01
767.029	0.01
767.337	0.01
767.644	0.02
767.952	0.02
768.26	0.02
768.567	0.01
768.875	0.02
769.182	0.01
769.49	0.01
769.797	0.01
770.104	0.01
770.411	0.01
770.718	0.01
771.026	0.01
771.333	0.01
771.639	0.01
771.946	0.01
772.253	0.01
772.56	0.01
772.867	0.01
773.173	0.01
773.48	0.01
773.786	0.01
774.093	0.01
774.399	0.01
774.705	0.01
775.012	0
775.318	0.01
775.624	0.01
775.93	0.01
776.236	0.01
776.542	0.01
776.848	0.01
777.154	0.01
777.459	0.01
777.765	0.01
778.071	0.01
778.376	0.01
778.682	0.01
778.987	0
779.292	0.01
779.598	0.01
779.903	0.01
780.208	0.01
780.513	0.01
780.818	0.01
781.123	0.01
781.428	0.01
781.733	0.01
782.038	0.01
782.343	0.01
782.647	0.01
782.952	0.01
783.256	0.01
783.561	0.01
783.865	0.01
784.17	0.01
784.474	0.02
784.778	0.01
785.082	0.01
785.386	0.01
785.69	0.01
785.994	0.01
786.298	0.01
786.602	0.01
786.906	0.01
787.209	0.01
787.513	0.01
787.817	0.01
788.12	0.01
788.424	0.01
788.727	0.01
789.03	0.01
789.333	0.01
789.637	0.01
789.94	0.01
790.243	0.01
790.546	0.01
790.849	0.01
791.152	0.01
791.454	0.01
791.757	0.01
792.06	0.01
792.362	0.01
792.665	0.01
792.967	0.01
793.27	0.01
793.572	0.01
793.874	0.01
794.177	0.01
794.479	0.01
794.781	0.01
795.083	0.01
795.385	0.01
795.687	0.01
795.989	0.01
796.29	0.01
796.592	0.01
796.894	0.01
797.195	0.01
797.497	0.01
797.798	0.01
798.1	0.01
798.401	0.01
798.702	0.01
799.003	0.01
799.304	0.01
799.605	0.01
799.906	0.01
800.207	0.01
800.508	0.01
800.809	0.01
801.11	0.01
801.41	0.01
801.711	0.01
802.011	0.01
802.312	0.01
802.612	0.01
802.913	0.02
803.213	0.02
803.513	0.02
803.813	0.02
804.113	0.02
804.413	0.02
804.713	0.02
805.013	0.02
805.313	0.02
805.613	0.02
805.912	0.01
806.212	0.02
806.511	0.02
806.811	0.02
807.11	0.02
807.41	0.02
807.709	0.02
808.008	0.02
808.307	0.01
808.606	0.01
808.905	0.01
809.204	0.02
809.503	0.01
809.802	0.01
810.101	0.02
810.399	0.01
810.698	0.01
810.997	0.01
811.295	0.01
811.593	0.01
811.892	0.01
812.19	0.01
812.488	0.01
812.786	0.01
813.084	0.01
813.383	0.01
813.68	0.01
813.978	0.01
814.276	0
814.574	0.01
814.872	0.01
815.169	0.01
815.467	0.01
815.764	0.01
816.062	0.02
816.359	0.02
816.656	0.01
816.954	0.01
817.251	0.01
817.548	0
817.845	0.01
818.142	0.01
818.439	0.01
818.735	0.01
819.032	0.01
819.329	0.01
819.626	0.01
819.922	0.01
820.219	0.01
820.515	0.02
820.811	0.01
821.108	0.01
821.404	0.01
821.7	0.01
821.996	0.01
822.292	0.01
822.588	0.01
822.884	0.01
823.18	0.01
823.475	0.01
823.771	0.01
824.067	0.01
824.362	0.02
824.658	0.02
824.953	0.02
825.249	0.02
825.544	0.02
825.839	0.02
826.134	0.02
826.429	0.02
826.724	0.02
827.019	0.01
827.314	0.01
827.609	0.01
827.904	0.01
828.198	0.01
828.493	0.01
828.787	0.01
829.082	0.01
829.376	0.01
829.671	0.01
829.965	0.01
830.259	0.01
830.553	0.01
830.847	0.01
831.141	0.01
831.435	0.01
831.729	0.01
832.023	0.02
832.317	0.01
832.61	0.01
832.904	0.01
833.197	0.01
833.491	0.01
833.784	0.01
834.077	0.01
834.371	0.02
834.664	0.01
834.957	0.01
835.25	0.01
835.543	0.01
835.836	0.01
836.129	0.01
836.421	0.01
836.714	0.01
837.007	0.01
837.299	0.02
837.592	0.02
837.884	0.02
838.177	0.01
838.469	0.02
838.761	0.02
839.053	0.01
839.345	0.02
839.637	0.02
839.929	0.01
840.221	0.02
840.513	0.02
840.805	0.01
841.096	0.02
841.388	0.01
841.68	0.02
841.971	0.02
842.262	0.02
842.554	0.02
842.845	0.02
843.136	0
843.427	0.02
843.718	0.02
844.009	0.01
844.3	0.01
844.591	0.02
844.882	0.01
845.173	0.01
845.463	0.01
845.754	0.01
846.044	0.01
846.335	0
846.625	0.02
846.915	0.01
847.206	0.01
847.496	0.02
847.786	0.02
848.076	0.02
848.366	0.01
848.656	0.03
848.945	0.01
849.235	0.02
849.525	0.02
849.814	0.01
850.104	0.01
850.393	0.01
850.683	0.01
850.972	0.02
851.261	0.01
851.551	0.02
851.84	0.01
852.129	0.01
852.418	0.01
852.707	0.01
852.995	0.01
853.284	0.01
853.573	0.01
853.862	0
854.15	0.01
854.439	0
854.727	0.01
855.015	0.01
855.304	0.02
855.592	0.01
855.88	0.02
856.168	0.02
856.456	0.01
856.744	0.01
857.032	0.02
857.32	0.02
857.607	0.02
857.895	0.01
858.183	0.02
858.47	0
858.757	0
859.045	0.02
859.332	0.02
859.619	0.01
859.907	0.01
860.194	0
860.481	0
860.768	0.02
861.054	0.01
861.341	0.03
861.628	0.03
861.915	0.01
862.201	0.02
862.488	-0
862.774	0.01
863.061	-0.01
863.347	-0.01
863.633	0.01
863.919	0.02
864.205	0.02
864.491	0.03
864.777	0.02
865.063	0.01
865.349	0
865.635	0
865.92	-0
866.206	0.01
866.492	0.02
866.777	0.01
867.062	-0
867.348	-0.01
867.633	0.01
867.918	0.01
868.203	0
868.488	0.03
868.773	0.02
869.058	-0.01
869.343	0.01
869.628	0.02
869.912	0.02
870.197	0.02
870.482	0.03
870.766	0.03
871.05	0.04
871.335	0
871.619	0.04
871.903	0.03
872.187	0.02
872.471	0.01
872.755	0.01
873.039	0.04
873.323	-0
873.607	0.03
873.89	0.02
874.174	0.04
874.458	0.02
874.741	0.01
875.024	0.05
875.308	-0.02
875.591	-0.03
875.874	-0.05
876.157	0.03
876.44	0.01
876.723	0.05
877.006	0.03
877.289	0.04
877.572	0.06
877.854	0.04
878.137	0.11
878.42	0.01
878.702	0.01
878.984	-0.03
879.267	0.03
879.549	0.08
879.831	0.05
880.113	0.05
880.395	0.06
880.677	0.13
880.959	-0.01
