Data from Rubpy_EV_1500_EDTA_Buffered_Absorbance_15-11-12-963.txt Node
Date: Tue Jun 30 15:11:12 BST 2026
User: fpm-admin
Spectrometer: OFX00224
Trigger mode: 0
Integration Time (sec): 7.000000E-2
Scans to average: 3
Nonlinearity correction enabled: false
Boxcar width: 0
Storing dark spectrum: false
XAxis mode: Wavelengths
Number of Pixels in Spectrum: 2136
>>>>>Begin Spectral Data<<<<<
154.91	-0
155.289	-0.62
155.669	-0
156.048	-0
156.428	0.1
156.807	0.3
157.186	-0.48
157.566	-0.09
157.945	0.04
158.325	-1.36
158.704	-0.7
159.083	-0.08
159.462	-0.65
159.842	-0.67
160.221	0.3
160.6	0.08
160.979	-0
161.359	-0.65
161.738	-0
162.117	-0.18
162.496	-0
162.875	0.51
163.254	-0
163.633	-0.34
164.012	0.17
164.391	-0
164.77	0.04
165.149	-0
165.528	-0
165.907	0.48
166.286	-0.38
166.665	-0
167.044	-0
167.423	1.05
167.802	-0
168.181	-0.11
168.559	-0.48
168.938	0.83
169.317	-0.52
169.696	-0.09
170.074	-0.24
170.453	-1.06
170.832	-0
171.21	-0.19
171.589	-0
171.968	-0
172.346	-0.75
172.725	-1.38
173.103	-0.23
173.482	-0
173.861	-0.33
174.239	-0
174.617	-0
174.996	-0.51
175.374	-0
175.753	-0.25
176.131	-0.19
176.51	0.09
176.888	-0
177.266	-0
177.645	0
178.023	1.06
178.401	0.01
178.779	-0.26
179.158	0.02
179.536	-0
179.914	-0
180.292	-0
180.67	-0
181.048	-0.54
181.427	-0
181.805	-0
182.183	0.36
182.561	0.2
182.939	-1.58
183.317	-0
183.695	0.32
184.073	-0.47
184.451	1.16
184.829	0.04
185.206	-0.08
185.584	0.4
185.962	-0.64
186.34	-0.37
186.718	0.28
187.096	-0
187.473	-0
187.851	-0
188.229	-0.55
188.607	0.28
188.984	0.31
189.362	0.21
189.74	0.26
190.117	0.24
190.495	0.35
190.872	0.21
191.25	0.33
191.627	0.26
192.005	0.29
192.382	0.28
192.76	0.34
193.137	0.22
193.515	0.2
193.892	0.47
194.269	0.34
194.647	0.31
195.024	0.18
195.401	0.23
195.779	0.37
196.156	0.34
196.533	0.54
196.91	0.19
197.288	0.28
197.665	0.27
198.042	0.17
198.419	0.21
198.796	0.2
199.173	0.31
199.55	0.25
199.927	0.32
200.304	0.33
200.681	0.21
201.058	0.2
201.435	0.29
201.812	0.18
202.189	0.29
202.566	0.3
202.943	0.17
203.32	0.25
203.697	0.27
204.073	0.2
204.45	0.14
204.827	0.35
205.204	0.49
205.58	0.26
205.957	0.23
206.334	0.37
206.71	0.22
207.087	0.54
207.464	0.28
207.84	0.35
208.217	0.37
208.593	0.44
208.97	0.34
209.346	0.29
209.723	0.32
210.099	0.32
210.476	0.33
210.852	0.36
211.228	0.41
211.605	0.37
211.981	0.36
212.357	0.35
212.733	0.45
213.11	0.38
213.486	0.31
213.862	0.25
214.238	0.25
214.614	0.29
214.991	0.38
215.367	0.42
215.743	0.22
216.119	0.44
216.495	0.24
216.871	0.37
217.247	0.12
217.623	0.31
217.999	0.31
218.375	0.44
218.751	0.19
219.127	0.45
219.502	0.28
219.878	0.24
220.254	0.31
220.63	0.2
221.006	0.4
221.381	0.24
221.757	0.26
222.133	0.35
222.508	0.25
222.884	0.28
223.26	0.33
223.635	0.25
224.011	0.29
224.386	0.38
224.762	0.28
225.137	0.26
225.513	0.29
225.888	0.4
226.264	0.41
226.639	0.21
227.014	0.39
227.39	0.41
227.765	0.42
228.14	0.3
228.516	0.41
228.891	0.3
229.266	0.26
229.641	0.56
230.017	0.32
230.392	0.28
230.767	0.33
231.142	0.39
231.517	0.4
231.892	0.32
232.267	0.3
232.642	0.45
233.017	0.32
233.392	0.52
233.767	0.43
234.142	0.28
234.517	0.45
234.892	0.21
235.267	0.31
235.641	0.31
236.016	0.37
236.391	0.17
236.766	0.25
237.14	0.23
237.515	0.36
237.89	0.46
238.264	0.51
238.639	0.28
239.014	0.43
239.388	0.32
239.763	0.33
240.137	0.3
240.512	0.4
240.886	0.23
241.261	0.51
241.635	0.34
242.009	0.26
242.384	0.4
242.758	0.35
243.132	0.24
243.507	0.33
243.881	0.34
244.255	0.3
244.629	0.3
245.004	0.48
245.378	0.39
245.752	0.3
246.126	0.29
246.5	0.48
246.874	0.21
247.248	0.25
247.622	0.46
247.996	0.41
248.37	0.36
248.744	0.34
249.118	0.17
249.492	0.33
249.866	0.34
250.24	0.41
250.613	0.36
250.987	0.29
251.361	0.36
251.735	0.31
252.108	0.3
252.482	0.24
252.856	0.33
253.229	0.21
253.603	0.35
253.977	0.4
254.35	0.25
254.724	0.35
255.097	0.23
255.471	0.35
255.844	0.38
256.218	0.3
256.591	0.27
256.964	0.3
257.338	0.37
257.711	0.23
258.084	0.34
258.458	0.46
258.831	0.26
259.204	0.31
259.577	0.35
259.95	0.37
260.323	0.41
260.697	0.29
261.07	0.28
261.443	0.31
261.816	0.28
262.189	0.27
262.562	0.34
262.935	0.3
263.308	0.26
263.68	0.31
264.053	0.38
264.426	0.21
264.799	0.38
265.172	0.25
265.545	0.39
265.917	0.41
266.29	0.25
266.663	0.32
267.035	0.36
267.408	0.3
267.781	0.33
268.153	0.29
268.526	0.34
268.898	0.26
269.271	0.32
269.643	0.26
270.016	0.28
270.388	0.29
270.76	0.33
271.133	0.3
271.505	0.35
271.877	0.25
272.25	0.3
272.622	0.38
272.994	0.31
273.366	0.25
273.739	0.35
274.111	0.36
274.483	0.43
274.855	0.37
275.227	0.38
275.599	0.3
275.971	0.29
276.343	0.26
276.715	0.24
277.087	0.27
277.459	0.34
277.831	0.35
278.203	0.36
278.574	0.27
278.946	0.3
279.318	0.25
279.69	0.32
280.061	0.26
280.433	0.4
280.805	0.31
281.176	0.39
281.548	0.27
281.92	0.4
282.291	0.25
282.663	0.32
283.034	0.3
283.406	0.32
283.777	0.41
284.148	0.32
284.52	0.43
284.891	0.31
285.262	0.28
285.634	0.34
286.005	0.33
286.376	0.33
286.747	0.28
287.119	0.34
287.49	0.26
287.861	0.24
288.232	0.29
288.603	0.31
288.974	0.32
289.345	0.3
289.716	0.42
290.087	0.32
290.458	0.33
290.829	0.4
291.2	0.31
291.571	0.3
291.941	0.32
292.312	0.32
292.683	0.41
293.054	0.32
293.424	0.2
293.795	0.29
294.166	0.27
294.536	0.31
294.907	0.25
295.277	0.3
295.648	0.35
296.018	0.42
296.389	0.33
296.759	0.3
297.13	0.37
297.5	0.25
297.871	0.36
298.241	0.3
298.611	0.36
298.981	0.26
299.352	0.31
299.722	0.32
300.092	0.25
300.462	0.28
300.832	0.25
301.202	0.26
301.573	0.29
301.943	0.28
302.313	0.26
302.683	0.29
303.053	0.25
303.422	0.25
303.792	0.23
304.162	0.27
304.532	0.27
304.902	0.26
305.272	0.26
305.641	0.26
306.011	0.25
306.381	0.27
306.75	0.28
307.12	0.27
307.49	0.27
307.859	0.28
308.229	0.27
308.598	0.29
308.968	0.28
309.337	0.28
309.707	0.3
310.076	0.3
310.445	0.3
310.815	0.3
311.184	0.31
311.553	0.31
311.923	0.31
312.292	0.31
312.661	0.31
313.03	0.31
313.399	0.31
313.768	0.31
314.137	0.31
314.506	0.32
314.875	0.3
315.244	0.32
315.613	0.31
315.982	0.31
316.351	0.31
316.72	0.3
317.089	0.31
317.458	0.3
317.826	0.31
318.195	0.3
318.564	0.3
318.933	0.29
319.301	0.28
319.67	0.29
320.038	0.28
320.407	0.28
320.775	0.28
321.144	0.28
321.512	0.28
321.881	0.28
322.249	0.28
322.618	0.27
322.986	0.27
323.354	0.27
323.723	0.27
324.091	0.27
324.459	0.26
324.827	0.27
325.195	0.26
325.564	0.26
325.932	0.26
326.3	0.25
326.668	0.25
327.036	0.25
327.404	0.26
327.772	0.25
328.14	0.26
328.508	0.26
328.875	0.26
329.243	0.26
329.611	0.27
329.979	0.27
330.346	0.26
330.714	0.27
331.082	0.26
331.449	0.27
331.817	0.27
332.185	0.27
332.552	0.28
332.92	0.28
333.287	0.28
333.655	0.29
334.022	0.29
334.389	0.29
334.757	0.29
335.124	0.3
335.491	0.29
335.859	0.3
336.226	0.31
336.593	0.31
336.96	0.31
337.327	0.31
337.695	0.32
338.062	0.32
338.429	0.33
338.796	0.34
339.163	0.34
339.53	0.34
339.897	0.34
340.263	0.35
340.63	0.36
340.997	0.36
341.364	0.37
341.731	0.38
342.097	0.38
342.464	0.39
342.831	0.4
343.197	0.4
343.564	0.41
343.931	0.41
344.297	0.42
344.664	0.43
345.03	0.43
345.396	0.44
345.763	0.45
346.129	0.46
346.496	0.45
346.862	0.46
347.228	0.47
347.594	0.48
347.961	0.48
348.327	0.49
348.693	0.5
349.059	0.51
349.425	0.51
349.791	0.52
350.157	0.53
350.523	0.53
350.889	0.55
351.255	0.56
351.621	0.58
351.987	0.58
352.353	0.6
352.719	0.6
353.084	0.61
353.45	0.62
353.816	0.64
354.181	0.65
354.547	0.66
354.913	0.67
355.278	0.68
355.644	0.7
356.009	0.71
356.375	0.73
356.74	0.75
357.106	0.76
357.471	0.77
357.836	0.79
358.202	0.81
358.567	0.82
358.932	0.83
359.297	0.85
359.663	0.86
360.028	0.88
360.393	0.9
360.758	0.89
361.123	0.9
361.488	0.91
361.853	0.93
362.218	0.93
362.583	0.94
362.948	0.96
363.312	0.95
363.677	0.98
364.042	0.99
364.407	1.01
364.772	1.03
365.136	1.04
365.501	1.06
365.865	1.08
366.23	1.1
366.595	1.11
366.959	1.14
367.324	1.16
367.688	1.18
368.052	1.19
368.417	1.21
368.781	1.23
369.145	1.23
369.51	1.24
369.874	1.25
370.238	1.24
370.602	1.24
370.967	1.24
371.331	1.24
371.695	1.23
372.059	1.25
372.423	1.22
372.787	1.22
373.151	1.21
373.515	1.2
373.878	1.21
374.242	1.19
374.606	1.18
374.97	1.2
375.334	1.2
375.697	1.2
376.061	1.2
376.425	1.21
376.788	1.24
377.152	1.22
377.515	1.24
377.879	1.25
378.242	1.27
378.606	1.27
378.969	1.29
379.333	1.3
379.696	1.3
380.059	1.34
380.422	1.35
380.786	1.38
381.149	1.4
381.512	1.4
381.875	1.44
382.238	1.47
382.601	1.5
382.964	1.54
383.327	1.55
383.69	1.58
384.053	1.61
384.416	1.66
384.779	1.69
385.142	1.71
385.504	1.73
385.867	1.74
386.23	1.74
386.593	1.76
386.955	1.78
387.318	1.78
387.68	1.76
388.043	1.78
388.405	1.74
388.768	1.77
389.13	1.74
389.493	1.74
389.855	1.73
390.217	1.71
390.58	1.73
390.942	1.72
391.304	1.76
391.666	1.74
392.028	1.76
392.391	1.79
392.753	1.81
393.115	1.84
393.477	1.87
393.839	1.93
394.201	1.98
394.563	2.03
394.924	2.08
395.286	2.14
395.648	2.12
396.01	2.1
396.371	2.14
396.733	2.11
397.095	2.15
397.456	2.19
397.818	2.06
398.18	2.06
398.541	2.11
398.903	2.11
399.264	2.09
399.625	2.12
399.987	2.05
400.348	2.01
400.709	1.94
401.071	1.93
401.432	1.82
401.793	1.74
402.154	1.67
402.515	1.57
402.876	1.49
403.238	1.39
403.599	1.3
403.96	1.22
404.32	1.13
404.681	1.05
405.042	0.98
405.403	0.92
405.764	0.85
406.125	0.8
406.485	0.76
406.846	0.71
407.207	0.66
407.567	0.62
407.928	0.58
408.288	0.55
408.649	0.52
409.009	0.49
409.37	0.47
409.73	0.44
410.091	0.43
410.451	0.4
410.811	0.39
411.171	0.37
411.532	0.35
411.892	0.34
412.252	0.33
412.612	0.31
412.972	0.3
413.332	0.29
413.692	0.28
414.052	0.27
414.412	0.26
414.772	0.26
415.132	0.24
415.492	0.24
415.851	0.24
416.211	0.22
416.571	0.22
416.931	0.21
417.29	0.21
417.65	0.2
418.009	0.2
418.369	0.19
418.728	0.19
419.088	0.18
419.447	0.18
419.807	0.18
420.166	0.17
420.525	0.17
420.884	0.17
421.244	0.17
421.603	0.17
421.962	0.16
422.321	0.16
422.68	0.15
423.039	0.16
423.398	0.15
423.757	0.16
424.116	0.15
424.475	0.15
424.834	0.14
425.193	0.14
425.551	0.14
425.91	0.14
426.269	0.14
426.628	0.13
426.986	0.12
427.345	0.12
427.703	0.13
428.062	0.13
428.42	0.13
428.779	0.13
429.137	0.13
429.496	0.12
429.854	0.11
430.212	0.12
430.57	0.12
430.929	0.12
431.287	0.12
431.645	0.13
432.003	0.11
432.361	0.12
432.719	0.11
433.077	0.11
433.435	0.11
433.793	0.12
434.151	0.1
434.509	0.11
434.866	0.11
435.224	0.1
435.582	0.12
435.94	0.11
436.297	0.11
436.655	0.1
437.012	0.11
437.37	0.11
437.727	0.1
438.085	0.1
438.442	0.1
438.8	0.1
439.157	0.09
439.514	0.1
439.872	0.09
440.229	0.1
440.586	0.1
440.943	0.09
441.3	0.1
441.657	0.09
442.014	0.1
442.371	0.09
442.728	0.1
443.085	0.08
443.442	0.09
443.799	0.09
444.156	0.08
444.513	0.08
444.869	0.09
445.226	0.08
445.583	0.08
445.939	0.08
446.296	0.08
446.652	0.08
447.009	0.09
447.365	0.08
447.722	0.08
448.078	0.08
448.434	0.08
448.791	0.08
449.147	0.07
449.503	0.08
449.859	0.07
450.215	0.08
450.571	0.07
450.928	0.07
451.284	0.07
451.64	0.06
451.995	0.07
452.351	0.06
452.707	0.07
453.063	0.06
453.419	0.06
453.775	0.06
454.13	0.07
454.486	0.07
454.842	0.06
455.197	0.06
455.553	0.05
455.908	0.05
456.264	0.05
456.619	0.05
456.975	0.06
457.33	0.05
457.685	0.04
458.04	0.04
458.396	0.05
458.751	0.04
459.106	0.04
459.461	0.04
459.816	0.04
460.171	0.03
460.526	0.03
460.881	0.03
461.236	0.02
461.591	0.03
461.946	0.01
462.301	0.02
462.655	0.02
463.01	0.02
463.365	0.01
463.719	0.01
464.074	0.01
464.428	-0
464.783	-0
465.137	-0
465.492	-0
465.846	0
466.201	0
466.555	-0
466.909	0.01
467.263	0
467.618	0
467.972	0.01
468.326	-0.01
468.68	-0
469.034	-0.01
469.388	-0
469.742	0
470.096	-0.01
470.45	0
470.804	0
471.157	0
471.511	0
471.865	0.01
472.218	0.01
472.572	0.01
472.926	0.01
473.279	0.01
473.633	0.01
473.986	0.03
474.34	0.02
474.693	0.03
475.046	0.03
475.4	0.04
475.753	0.04
476.106	0.04
476.459	0.05
476.812	0.06
477.165	0.06
477.519	0.06
477.872	0.07
478.224	0.07
478.577	0.07
478.93	0.09
479.283	0.08
479.636	0.08
479.989	0.08
480.341	0.09
480.694	0.09
481.047	0.09
481.399	0.1
481.752	0.1
482.104	0.11
482.457	0.11
482.809	0.11
483.162	0.11
483.514	0.11
483.866	0.12
484.219	0.12
484.571	0.12
484.923	0.12
485.275	0.12
485.627	0.12
485.979	0.13
486.331	0.13
486.683	0.13
487.035	0.13
487.387	0.15
487.739	0.14
488.091	0.14
488.443	0.14
488.794	0.14
489.146	0.15
489.498	0.15
489.849	0.15
490.201	0.15
490.552	0.15
490.904	0.16
491.255	0.15
491.607	0.16
491.958	0.16
492.309	0.17
492.661	0.16
493.012	0.17
493.363	0.17
493.714	0.17
494.065	0.18
494.416	0.17
494.767	0.18
495.118	0.18
495.469	0.18
495.82	0.19
496.171	0.19
496.522	0.19
496.872	0.19
497.223	0.2
497.574	0.2
497.924	0.2
498.275	0.2
498.626	0.2
498.976	0.2
499.327	0.21
499.677	0.2
500.027	0.21
500.378	0.21
500.728	0.22
501.078	0.23
501.428	0.22
501.779	0.22
502.129	0.23
502.479	0.23
502.829	0.24
503.179	0.24
503.529	0.24
503.879	0.24
504.229	0.24
504.578	0.25
504.928	0.25
505.278	0.25
505.628	0.26
505.977	0.26
506.327	0.26
506.676	0.26
507.026	0.27
507.375	0.26
507.725	0.27
508.074	0.27
508.424	0.28
508.773	0.27
509.122	0.28
509.471	0.28
509.82	0.29
510.17	0.29
510.519	0.29
510.868	0.29
511.217	0.3
511.566	0.3
511.915	0.3
512.263	0.3
512.612	0.3
512.961	0.3
513.31	0.31
513.659	0.31
514.007	0.31
514.356	0.32
514.704	0.32
515.053	0.32
515.401	0.32
515.75	0.33
516.098	0.33
516.447	0.33
516.795	0.33
517.143	0.34
517.491	0.34
517.839	0.35
518.188	0.35
518.536	0.35
518.884	0.35
519.232	0.35
519.58	0.36
519.928	0.36
520.275	0.36
520.623	0.37
520.971	0.37
521.319	0.37
521.666	0.38
522.014	0.37
522.362	0.37
522.709	0.38
523.057	0.38
523.404	0.38
523.752	0.39
524.099	0.39
524.446	0.39
524.794	0.39
525.141	0.4
525.488	0.4
525.835	0.41
526.182	0.41
526.529	0.41
526.876	0.41
527.223	0.41
527.57	0.41
527.917	0.42
528.264	0.42
528.611	0.42
528.958	0.43
529.304	0.43
529.651	0.43
529.998	0.43
530.344	0.44
530.691	0.44
531.037	0.45
531.384	0.44
531.73	0.45
532.076	0.45
532.423	0.45
532.769	0.46
533.115	0.46
533.461	0.47
533.807	0.47
534.154	0.47
534.5	0.47
534.846	0.48
535.192	0.48
535.537	0.48
535.883	0.49
536.229	0.49
536.575	0.5
536.921	0.5
537.266	0.5
537.612	0.51
537.957	0.5
538.303	0.51
538.649	0.51
538.994	0.51
539.339	0.52
539.685	0.53
540.03	0.53
540.375	0.53
540.721	0.53
541.066	0.54
541.411	0.54
541.756	0.55
542.101	0.55
542.446	0.56
542.791	0.55
543.136	0.57
543.481	0.57
543.825	0.57
544.17	0.57
544.515	0.57
544.86	0.58
545.204	0.58
545.549	0.59
545.893	0.6
546.238	0.6
546.582	0.6
546.927	0.61
547.271	0.61
547.615	0.61
547.96	0.62
548.304	0.61
548.648	0.62
548.992	0.63
549.336	0.63
549.68	0.63
550.024	0.63
550.368	0.64
550.712	0.64
551.056	0.64
551.4	0.64
551.743	0.65
552.087	0.65
552.431	0.66
552.774	0.66
553.118	0.66
553.462	0.67
553.805	0.67
554.148	0.67
554.492	0.67
554.835	0.67
555.178	0.68
555.522	0.68
555.865	0.68
556.208	0.68
556.551	0.69
556.894	0.69
557.237	0.69
557.58	0.69
557.923	0.69
558.266	0.7
558.609	0.69
558.952	0.7
559.294	0.71
559.637	0.7
559.98	0.7
560.322	0.71
560.665	0.71
561.007	0.71
561.35	0.71
561.692	0.71
562.034	0.72
562.377	0.72
562.719	0.72
563.061	0.72
563.403	0.72
563.745	0.72
564.088	0.72
564.43	0.72
564.772	0.72
565.113	0.73
565.455	0.73
565.797	0.73
566.139	0.73
566.481	0.73
566.822	0.74
567.164	0.74
567.506	0.74
567.847	0.74
568.189	0.74
568.53	0.74
568.872	0.74
569.213	0.75
569.554	0.74
569.895	0.75
570.237	0.75
570.578	0.75
570.919	0.75
571.26	0.75
571.601	0.75
571.942	0.75
572.283	0.75
572.624	0.75
572.965	0.75
573.306	0.75
573.646	0.75
573.987	0.75
574.328	0.75
574.668	0.75
575.009	0.75
575.349	0.75
575.69	0.75
576.03	0.75
576.37	0.75
576.711	0.75
577.051	0.75
577.391	0.75
577.731	0.75
578.072	0.76
578.412	0.76
578.752	0.76
579.092	0.76
579.431	0.76
579.771	0.75
580.111	0.75
580.451	0.74
580.791	0.75
581.13	0.76
581.47	0.76
581.81	0.76
582.149	0.76
582.489	0.77
582.828	0.77
583.167	0.76
583.507	0.74
583.846	0.71
584.185	0.73
584.525	0.75
584.864	0.76
585.203	0.77
585.542	0.78
585.881	0.79
586.22	0.79
586.559	0.8
586.898	0.79
587.236	0.79
587.575	0.78
587.914	0.78
588.252	0.79
588.591	0.8
588.93	0.8
589.268	0.81
589.607	0.81
589.945	0.81
590.283	0.81
590.622	0.82
590.96	0.82
591.298	0.83
591.636	0.83
591.974	0.83
592.313	0.84
592.651	0.84
592.989	0.84
593.326	0.85
593.664	0.86
594.002	0.85
594.34	0.86
594.678	0.86
595.015	0.86
595.353	0.86
595.691	0.86
596.028	0.86
596.366	0.87
596.703	0.87
597.04	0.88
597.378	0.89
597.715	0.89
598.052	0.89
598.389	0.9
598.726	0.9
599.064	0.91
599.401	0.91
599.738	0.91
600.074	0.91
600.411	0.91
600.748	0.91
601.085	0.91
601.422	0.91
601.758	0.91
602.095	0.91
602.432	0.91
602.768	0.91
603.105	0.91
603.441	0.91
603.777	0.91
604.114	0.91
604.45	0.92
604.786	0.92
605.122	0.92
605.459	0.92
605.795	0.92
606.131	0.91
606.467	0.92
606.803	0.91
607.139	0.91
607.474	0.91
607.81	0.91
608.146	0.91
608.482	0.91
608.817	0.9
609.153	0.9
609.488	0.9
609.824	0.9
610.159	0.9
610.495	0.89
610.83	0.89
611.165	0.89
611.5	0.89
611.836	0.89
612.171	0.88
612.506	0.88
612.841	0.88
613.176	0.89
613.511	0.88
613.845	0.87
614.18	0.87
614.515	0.87
614.85	0.87
615.184	0.86
615.519	0.86
615.854	0.86
616.188	0.86
616.523	0.86
616.857	0.85
617.191	0.85
617.526	0.85
617.86	0.84
618.194	0.84
618.528	0.84
618.862	0.84
619.196	0.84
619.53	0.83
619.864	0.83
620.198	0.83
620.532	0.82
620.866	0.82
621.2	0.82
621.533	0.81
621.867	0.81
622.201	0.81
622.534	0.81
622.868	0.8
623.201	0.8
623.534	0.8
623.868	0.8
624.201	0.79
624.534	0.79
624.868	0.79
625.201	0.79
625.534	0.79
625.867	0.78
626.2	0.78
626.533	0.77
626.865	0.77
627.198	0.77
627.531	0.76
627.864	0.76
628.196	0.75
628.529	0.75
628.862	0.75
629.194	0.74
629.527	0.74
629.859	0.73
630.191	0.73
630.524	0.72
630.856	0.72
631.188	0.72
631.52	0.72
631.852	0.71
632.184	0.71
632.516	0.7
632.848	0.7
633.18	0.69
633.512	0.69
633.844	0.68
634.175	0.68
634.507	0.67
634.839	0.66
635.17	0.66
635.502	0.66
635.833	0.65
636.165	0.65
636.496	0.64
636.827	0.64
637.159	0.63
637.49	0.63
637.821	0.62
638.152	0.62
638.483	0.62
638.814	0.61
639.145	0.61
639.476	0.6
639.807	0.6
640.137	0.59
640.468	0.58
640.799	0.58
641.129	0.58
641.46	0.57
641.791	0.57
642.121	0.56
642.451	0.56
642.782	0.55
643.112	0.55
643.442	0.54
643.773	0.54
644.103	0.54
644.433	0.53
644.763	0.53
645.093	0.53
645.423	0.53
645.753	0.52
646.082	0.52
646.412	0.52
646.742	0.52
647.072	0.51
647.401	0.52
647.731	0.51
648.06	0.51
648.39	0.51
648.719	0.51
649.048	0.5
649.378	0.5
649.707	0.5
650.036	0.5
650.365	0.5
650.694	0.49
651.023	0.5
651.352	0.49
651.681	0.49
652.01	0.49
652.339	0.49
652.668	0.49
652.996	0.49
653.325	0.48
653.654	0.49
653.982	0.49
654.311	0.48
654.639	0.48
654.967	0.48
655.296	0.48
655.624	0.48
655.952	0.49
656.28	0.48
656.609	0.48
656.937	0.48
657.265	0.49
657.593	0.47
657.92	0.32
658.248	0.25
658.576	0.24
658.904	0.33
659.231	0.42
659.559	0.46
659.887	0.47
660.214	0.47
660.542	0.47
660.869	0.47
661.196	0.47
661.524	0.47
661.851	0.47
662.178	0.47
662.505	0.47
662.832	0.47
663.159	0.46
663.486	0.46
663.813	0.46
664.14	0.46
664.467	0.47
664.794	0.46
665.12	0.46
665.447	0.46
665.774	0.46
666.1	0.46
666.427	0.46
666.753	0.46
667.079	0.46
667.406	0.46
667.732	0.45
668.058	0.46
668.384	0.45
668.71	0.45
669.036	0.45
669.362	0.45
669.688	0.44
670.014	0.44
670.34	0.44
670.666	0.44
670.991	0.44
671.317	0.43
671.643	0.43
671.968	0.43
672.294	0.43
672.619	0.43
672.945	0.42
673.27	0.42
673.595	0.42
673.92	0.42
674.246	0.41
674.571	0.41
674.896	0.41
675.221	0.41
675.546	0.41
675.87	0.4
676.195	0.4
676.52	0.4
676.845	0.4
677.169	0.39
677.494	0.39
677.819	0.38
678.143	0.38
678.468	0.38
678.792	0.38
679.116	0.37
679.44	0.37
679.765	0.37
680.089	0.37
680.413	0.36
680.737	0.36
681.061	0.36
681.385	0.35
681.709	0.34
682.033	0.34
682.356	0.34
682.68	0.33
683.004	0.33
683.327	0.33
683.651	0.32
683.974	0.32
684.298	0.32
684.621	0.32
684.944	0.31
685.268	0.31
685.591	0.31
685.914	0.3
686.237	0.3
686.56	0.3
686.883	0.29
687.206	0.29
687.529	0.28
687.852	0.28
688.175	0.28
688.497	0.28
688.82	0.28
689.142	0.27
689.465	0.27
689.787	0.26
690.11	0.27
690.432	0.26
690.755	0.26
691.077	0.25
691.399	0.25
691.721	0.25
692.043	0.25
692.365	0.24
692.687	0.24
693.009	0.24
693.331	0.23
693.653	0.23
693.974	0.23
694.296	0.23
694.618	0.22
694.939	0.22
695.261	0.22
695.582	0.22
695.904	0.22
696.225	0.22
696.546	0.21
696.868	0.21
697.189	0.21
697.51	0.2
697.831	0.2
698.152	0.2
698.473	0.2
698.794	0.2
699.114	0.19
699.435	0.19
699.756	0.19
700.077	0.19
700.397	0.19
700.718	0.18
701.038	0.18
701.359	0.18
701.679	0.18
701.999	0.18
702.32	0.18
702.64	0.18
702.96	0.18
703.28	0.18
703.6	0.18
703.92	0.17
704.24	0.17
704.56	0.17
704.879	0.17
705.199	0.17
705.519	0.17
705.838	0.16
706.158	0.16
706.478	0.16
706.797	0.16
707.116	0.17
707.436	0.16
707.755	0.17
708.074	0.16
708.393	0.16
708.712	0.16
709.031	0.16
709.35	0.15
709.669	0.15
709.988	0.15
710.307	0.15
710.626	0.15
710.944	0.15
711.263	0.15
711.582	0.15
711.9	0.15
712.219	0.15
712.537	0.15
712.855	0.15
713.174	0.15
713.492	0.15
713.81	0.15
714.128	0.15
714.446	0.15
714.764	0.15
715.082	0.14
715.4	0.15
715.718	0.15
716.035	0.14
716.353	0.14
716.671	0.15
716.988	0.15
717.306	0.15
717.623	0.15
717.941	0.15
718.258	0.16
718.575	0.16
718.893	0.16
719.21	0.16
719.527	0.15
719.844	0.16
720.161	0.16
720.478	0.16
720.795	0.16
721.112	0.16
721.428	0.16
721.745	0.16
722.062	0.16
722.378	0.16
722.695	0.16
723.011	0.16
723.328	0.16
723.644	0.16
723.96	0.16
724.276	0.16
724.593	0.16
724.909	0.17
725.225	0.17
725.541	0.17
725.857	0.17
726.173	0.17
726.488	0.17
726.804	0.17
727.12	0.17
727.435	0.17
727.751	0.17
728.067	0.17
728.382	0.17
728.697	0.17
729.013	0.17
729.328	0.17
729.643	0.17
729.958	0.18
730.273	0.17
730.588	0.17
730.903	0.17
731.218	0.17
731.533	0.18
731.848	0.18
732.163	0.18
732.477	0.18
732.792	0.17
733.107	0.17
733.421	0.17
733.736	0.17
734.05	0.17
734.364	0.17
734.678	0.18
734.993	0.17
735.307	0.17
735.621	0.17
735.935	0.17
736.249	0.17
736.563	0.17
736.877	0.17
737.19	0.17
737.504	0.17
737.818	0.17
738.131	0.17
738.445	0.17
738.758	0.16
739.072	0.16
739.385	0.16
739.698	0.16
740.012	0.16
740.325	0.16
740.638	0.16
740.951	0.16
741.264	0.16
741.577	0.16
741.89	0.16
742.203	0.16
742.515	0.16
742.828	0.16
743.141	0.16
743.453	0.16
743.766	0.16
744.078	0.16
744.391	0.15
744.703	0.15
745.015	0.15
745.327	0.15
745.639	0.14
745.952	0.15
746.264	0.14
746.575	0.14
746.887	0.14
747.199	0.14
747.511	0.14
747.823	0.13
748.134	0.13
748.446	0.13
748.757	0.13
749.069	0.13
749.38	0.13
749.692	0.13
750.003	0.13
750.314	0.13
750.625	0.13
750.936	0.12
751.248	0.12
751.559	0.12
751.869	0.12
752.18	0.12
752.491	0.12
752.802	0.11
753.112	0.11
753.423	0.11
753.734	0.11
754.044	0.11
754.355	0.11
754.665	0.1
754.975	0.1
755.285	0.1
755.596	0.1
755.906	0.09
756.216	0.09
756.526	0.09
756.836	0.09
757.146	0.09
757.455	0.09
757.765	0.09
758.075	0.09
758.385	0.09
758.694	0.08
759.004	0.08
759.313	0.08
759.622	0.08
759.932	0.08
760.241	0.08
760.55	0.08
760.859	0.08
761.168	0.08
761.477	0.08
761.786	0.08
762.095	0.07
762.404	0.08
762.713	0.07
763.021	0.07
763.33	0.07
763.639	0.07
763.947	0.06
764.256	0.06
764.564	0.06
764.872	0.06
765.181	0.06
765.489	0.06
765.797	0.06
766.105	0.06
766.413	0.06
766.721	0.06
767.029	0.06
767.337	0.06
767.644	0.06
767.952	0.06
768.26	0.06
768.567	0.06
768.875	0.06
769.182	0.06
769.49	0.05
769.797	0.05
770.104	0.05
770.411	0.05
770.718	0.05
771.026	0.05
771.333	0.05
771.639	0.05
771.946	0.05
772.253	0.05
772.56	0.05
772.867	0.05
773.173	0.04
773.48	0.05
773.786	0.05
774.093	0.04
774.399	0.04
774.705	0.04
775.012	0.04
775.318	0.04
775.624	0.04
775.93	0.04
776.236	0.04
776.542	0.04
776.848	0.04
777.154	0.05
777.459	0.04
777.765	0.05
778.071	0.04
778.376	0.04
778.682	0.04
778.987	0.04
779.292	0.04
779.598	0.04
779.903	0.04
780.208	0.04
780.513	0.04
780.818	0.04
781.123	0.04
781.428	0.04
781.733	0.04
782.038	0.04
782.343	0.04
782.647	0.04
782.952	0.04
783.256	0.04
783.561	0.05
783.865	0.05
784.17	0.04
784.474	0.05
784.778	0.04
785.082	0.04
785.386	0.04
785.69	0.04
785.994	0.04
786.298	0.04
786.602	0.04
786.906	0.04
787.209	0.04
787.513	0.04
787.817	0.04
788.12	0.04
788.424	0.04
788.727	0.04
789.03	0.04
789.333	0.04
789.637	0.05
789.94	0.04
790.243	0.05
790.546	0.04
790.849	0.04
791.152	0.04
791.454	0.04
791.757	0.04
792.06	0.04
792.362	0.04
792.665	0.04
792.967	0.04
793.27	0.04
793.572	0.04
793.874	0.03
794.177	0.04
794.479	0.03
794.781	0.04
795.083	0.04
795.385	0.04
795.687	0.04
795.989	0.04
796.29	0.04
796.592	0.04
796.894	0.04
797.195	0.04
797.497	0.04
797.798	0.04
798.1	0.04
798.401	0.04
798.702	0.04
799.003	0.04
799.304	0.04
799.605	0.04
799.906	0.04
800.207	0.04
800.508	0.04
800.809	0.04
801.11	0.04
801.41	0.04
801.711	0.04
802.011	0.04
802.312	0.04
802.612	0.04
802.913	0.05
803.213	0.05
803.513	0.04
803.813	0.05
804.113	0.05
804.413	0.05
804.713	0.05
805.013	0.05
805.313	0.05
805.613	0.05
805.912	0.05
806.212	0.05
806.511	0.05
806.811	0.05
807.11	0.05
807.41	0.05
807.709	0.05
808.008	0.05
808.307	0.04
808.606	0.04
808.905	0.04
809.204	0.04
809.503	0.04
809.802	0.04
810.101	0.04
810.399	0.03
810.698	0.04
810.997	0.04
811.295	0.03
811.593	0.04
811.892	0.04
812.19	0.04
812.488	0.04
812.786	0.04
813.084	0.04
813.383	0.04
813.68	0.04
813.978	0.04
814.276	0.03
814.574	0.03
814.872	0.03
815.169	0.04
815.467	0.04
815.764	0.03
816.062	0.04
816.359	0.04
816.656	0.04
816.954	0.04
817.251	0.03
817.548	0.03
817.845	0.03
818.142	0.04
818.439	0.03
818.735	0.04
819.032	0.04
819.329	0.04
819.626	0.04
819.922	0.04
820.219	0.04
820.515	0.04
820.811	0.04
821.108	0.04
821.404	0.03
821.7	0.03
821.996	0.03
822.292	0.04
822.588	0.04
822.884	0.04
823.18	0.03
823.475	0.04
823.771	0.04
824.067	0.04
824.362	0.04
824.658	0.05
824.953	0.05
825.249	0.05
825.544	0.05
825.839	0.05
826.134	0.05
826.429	0.05
826.724	0.04
827.019	0.04
827.314	0.04
827.609	0.04
827.904	0.04
828.198	0.03
828.493	0.04
828.787	0.04
829.082	0.04
829.376	0.04
829.671	0.03
829.965	0.04
830.259	0.04
830.553	0.04
830.847	0.04
831.141	0.04
831.435	0.04
831.729	0.04
832.023	0.05
832.317	0.04
832.61	0.05
832.904	0.04
833.197	0.04
833.491	0.05
833.784	0.04
834.077	0.04
834.371	0.05
834.664	0.04
834.957	0.05
835.25	0.04
835.543	0.04
835.836	0.04
836.129	0.05
836.421	0.05
836.714	0.05
837.007	0.05
837.299	0.05
837.592	0.05
837.884	0.05
838.177	0.05
838.469	0.04
838.761	0.05
839.053	0.05
839.345	0.05
839.637	0.05
839.929	0.04
840.221	0.05
840.513	0.05
840.805	0.04
841.096	0.05
841.388	0.04
841.68	0.04
841.971	0.04
842.262	0.04
842.554	0.04
842.845	0.03
843.136	0.04
843.427	0.05
843.718	0.05
844.009	0.04
844.3	0.04
844.591	0.04
844.882	0.04
845.173	0.04
845.463	0.05
845.754	0.04
846.044	0.04
846.335	0.03
846.625	0.05
846.915	0.04
847.206	0.05
847.496	0.05
847.786	0.05
848.076	0.05
848.366	0.04
848.656	0.05
848.945	0.04
849.235	0.05
849.525	0.06
849.814	0.05
850.104	0.05
850.393	0.05
850.683	0.04
850.972	0.05
851.261	0.05
851.551	0.05
851.84	0.04
852.129	0.05
852.418	0.04
852.707	0.03
852.995	0.04
853.284	0.04
853.573	0.04
853.862	0.04
854.15	0.02
854.439	0.05
854.727	0.05
855.015	0.05
855.304	0.04
855.592	0.05
855.88	0.05
856.168	0.05
856.456	0.04
856.744	0.04
857.032	0.05
857.32	0.05
857.607	0.06
857.895	0.05
858.183	0.07
858.47	0.04
858.757	0.05
859.045	0.05
859.332	0.05
859.619	0.05
859.907	0.05
860.194	0.05
860.481	0.04
860.768	0.06
861.054	0.05
861.341	0.05
861.628	0.06
861.915	0.05
862.201	0.05
862.488	0.05
862.774	0.03
863.061	0.03
863.347	0.03
863.633	0.05
863.919	0.04
864.205	0.07
864.491	0.07
864.777	0.03
865.063	0.05
865.349	0.05
865.635	0
865.92	0.04
866.206	0.06
866.492	0.07
866.777	0.03
867.062	0.03
867.348	0.05
867.633	0.01
867.918	0.04
868.203	0.06
868.488	0.04
868.773	0.07
869.058	0.07
869.343	0.05
869.628	0.04
869.912	0.07
870.197	0.05
870.482	0.09
870.766	0.07
871.05	0.08
871.335	0.03
871.619	0.04
871.903	0.04
872.187	0.06
872.471	0.08
872.755	0.05
873.039	0.09
873.323	0.08
873.607	0.08
873.89	0.08
874.174	0.01
874.458	0.02
874.741	0.08
875.024	0.06
875.308	0.01
875.591	0.08
875.874	0.01
876.157	0.05
876.44	0.01
876.723	0.05
877.006	0.08
877.289	0.08
877.572	0.04
877.854	0.06
878.137	0.05
878.42	0.03
878.702	0.04
878.984	0.1
879.267	0.09
879.549	0.09
879.831	0.13
880.113	0.07
880.395	0.1
880.677	0.11
880.959	0.01
