Data from Rubpy_EV_1500_EDTA_Buffered_Absorbance_14-45-58-869.txt Node
Date: Tue Jun 30 14:45:58 BST 2026
User: fpm-admin
Spectrometer: OFX00224
Trigger mode: 0
Integration Time (sec): 7.000000E-2
Scans to average: 3
Nonlinearity correction enabled: false
Boxcar width: 0
Storing dark spectrum: false
XAxis mode: Wavelengths
Number of Pixels in Spectrum: 2136
>>>>>Begin Spectral Data<<<<<
154.91	-0.1
155.289	-0.43
155.669	-0.3
156.048	0.7
156.428	-0
156.807	0.3
157.186	-0.15
157.566	-0.15
157.945	0.3
158.325	-1
158.704	-0.78
159.083	0.52
159.462	-0
159.842	-0
160.221	0.04
160.6	0.56
160.979	0.37
161.359	-0
161.738	-0
162.117	-0
162.496	-0
162.875	-0.06
163.254	-0
163.633	-0
164.012	-0
164.391	-0
164.77	0.4
165.149	0.09
165.528	0.14
165.907	-0
166.286	-0.43
166.665	-0
167.044	0.53
167.423	0.07
167.802	-0
168.181	0.19
168.559	-0.45
168.938	1.61
169.317	-0.43
169.696	0.02
170.074	-0
170.453	-0.35
170.832	-0
171.21	-0.1
171.589	-0.23
171.968	0.17
172.346	-0.43
172.725	-0
173.103	0.02
173.482	-0.68
173.861	-0.12
174.239	0.43
174.617	-0
174.996	0.08
175.374	-0
175.753	1.11
176.131	0.51
176.51	-0.16
176.888	-0
177.266	0.23
177.645	-0.12
178.023	0.11
178.401	-0.09
178.779	-0.26
179.158	-0.28
179.536	-0
179.914	0.09
180.292	0.52
180.67	-0.26
181.048	-0.53
181.427	-0
181.805	0.12
182.183	-0
182.561	-0.15
182.939	-0.85
183.317	-0
183.695	0.95
184.073	-0.11
184.451	0.32
184.829	-0.38
185.206	0.05
185.584	-0.15
185.962	-0.49
186.34	1.3
186.718	-0
187.096	-0
187.473	-0
187.851	0.15
188.229	0.7
188.607	0.08
188.984	0.06
189.362	0.07
189.74	0.08
190.117	0.04
190.495	-0.01
190.872	-0.05
191.25	0.1
191.627	-0.03
192.005	0.09
192.382	-0.04
192.76	0.06
193.137	-0.03
193.515	0.07
193.892	0.02
194.269	0.08
194.647	-0.05
195.024	0
195.401	0.03
195.779	0.1
196.156	0.09
196.533	0.02
196.91	-0.04
197.288	-0.03
197.665	0.07
198.042	-0.03
198.419	-0.02
198.796	-0.02
199.173	-0.07
199.55	-0.03
199.927	0.01
200.304	-0.02
200.681	0.08
201.058	-0.1
201.435	-0.03
201.812	-0.02
202.189	0.04
202.566	0.13
202.943	0.01
203.32	0.04
203.697	0.05
204.073	0.09
204.45	-0.05
204.827	0.09
205.204	0.12
205.58	0.08
205.957	0.02
206.334	0.01
206.71	0.01
207.087	0.08
207.464	0.05
207.84	0.03
208.217	0.06
208.593	0.02
208.97	0.07
209.346	-0
209.723	0
210.099	-0.02
210.476	0.06
210.852	0.04
211.228	-0.01
211.605	0.01
211.981	0.07
212.357	0.03
212.733	-0.02
213.11	0.09
213.486	0
213.862	0
214.238	-0.04
214.614	0.07
214.991	0.03
215.367	0.14
215.743	0.02
216.119	-0.04
216.495	-0.03
216.871	0.18
217.247	-0.14
217.623	-0.05
217.999	0.05
218.375	0.07
218.751	-0.06
219.127	0.08
219.502	0.02
219.878	0.01
220.254	0
220.63	0.04
221.006	0.11
221.381	0.02
221.757	0.06
222.133	0.09
222.508	-0.04
222.884	0.02
223.26	0.05
223.635	0.07
224.011	0.02
224.386	0.01
224.762	-0
225.137	0.01
225.513	0.06
225.888	-0.01
226.264	0.03
226.639	0.03
227.014	0.09
227.39	0.06
227.765	0.08
228.14	0.09
228.516	0.08
228.891	-0.04
229.266	-0.04
229.641	-0
230.017	0.06
230.392	0.03
230.767	0.03
231.142	0.09
231.517	0.06
231.892	-0.01
232.267	0.03
232.642	0.11
233.017	0.1
233.392	0.14
233.767	0
234.142	-0.04
234.517	-0.01
234.892	-0.02
235.267	0.05
235.641	0.06
236.016	-0.01
236.391	-0.08
236.766	-0.03
237.14	0.05
237.515	-0.05
237.89	-0.03
238.264	-0.01
238.639	-0.03
239.014	0.1
239.388	0.03
239.763	0.07
240.137	-0.05
240.512	-0
240.886	0.03
241.261	0.03
241.635	0.08
242.009	0
242.384	0.02
242.758	0.08
243.132	0.01
243.507	0.05
243.881	0.04
244.255	0.02
244.629	0.01
245.004	-0.03
245.378	0.05
245.752	0.05
246.126	0.04
246.5	0.01
246.874	-0.01
247.248	-0.04
247.622	0.06
247.996	0.05
248.37	-0
248.744	0.08
249.118	-0.01
249.492	0.08
249.866	-0.02
250.24	0.05
250.613	-0.02
250.987	-0.07
251.361	0.11
251.735	0.09
252.108	0.03
252.482	-0.04
252.856	-0.03
253.229	-0.01
253.603	0.05
253.977	0.08
254.35	-0.02
254.724	-0
255.097	0.01
255.471	0.04
255.844	0.11
256.218	0.02
256.591	-0.09
256.964	0.04
257.338	0.01
257.711	0
258.084	0.06
258.458	0.09
258.831	0.02
259.204	0.02
259.577	0.04
259.95	0.03
260.323	0.04
260.697	0.05
261.07	-0.02
261.443	0.04
261.816	-0
262.189	0.02
262.562	0.05
262.935	0.03
263.308	-0.01
263.68	0.03
264.053	0.04
264.426	0.05
264.799	-0
265.172	0.05
265.545	-0
265.917	0.04
266.29	0.05
266.663	0.09
267.035	0.03
267.408	0
267.781	0.01
268.153	0.03
268.526	0.08
268.898	0.05
269.271	0.06
269.643	0.01
270.016	-0.02
270.388	0.03
270.76	0.01
271.133	0.03
271.505	0.01
271.877	-0
272.25	0.06
272.622	0.05
272.994	0
273.366	0.06
273.739	0.1
274.111	-0.03
274.483	0.03
274.855	0.11
275.227	0.03
275.599	0.04
275.971	0.08
276.343	0.03
276.715	-0.05
277.087	0.02
277.459	0.06
277.831	0
278.203	0.04
278.574	0.07
278.946	0.07
279.318	-0.03
279.69	0.02
280.061	0.01
280.433	0.06
280.805	-0.03
281.176	0.06
281.548	0.04
281.92	0.04
282.291	-0.02
282.663	0.05
283.034	0.08
283.406	-0
283.777	0.08
284.148	0.01
284.52	0.03
284.891	0
285.262	0.08
285.634	0.03
286.005	0.07
286.376	-0.02
286.747	-0
287.119	0.03
287.49	-0.02
287.861	0.02
288.232	-0.01
288.603	0.06
288.974	0.03
289.345	-0.03
289.716	0.04
290.087	0.04
290.458	0.04
290.829	0.03
291.2	0.04
291.571	-0
291.941	0.02
292.312	0.04
292.683	0.05
293.054	0.02
293.424	-0.05
293.795	0.01
294.166	0.04
294.536	0.05
294.907	0.03
295.277	0.04
295.648	0.04
296.018	0.03
296.389	0
296.759	0.06
297.13	0.05
297.5	0.03
297.871	0.06
298.241	0
298.611	0
298.981	0.02
299.352	0.03
299.722	0.06
300.092	0.02
300.462	0.05
300.832	0.06
301.202	0.03
301.573	0.02
301.943	0.04
302.313	0
302.683	0.01
303.053	0.02
303.422	0.02
303.792	0.01
304.162	0.03
304.532	0.02
304.902	0.01
305.272	0.02
305.641	0.01
306.011	0.02
306.381	0.01
306.75	0.02
307.12	0.02
307.49	0.02
307.859	0.01
308.229	0.01
308.598	0.03
308.968	0.02
309.337	0.01
309.707	0.01
310.076	0.01
310.445	0.02
310.815	0.02
311.184	0.01
311.553	0.02
311.923	0.01
312.292	0.01
312.661	0.02
313.03	0.02
313.399	0.01
313.768	0.02
314.137	0.01
314.506	0.02
314.875	0.01
315.244	0.01
315.613	0.02
315.982	0.02
316.351	0.01
316.72	0.01
317.089	0.01
317.458	0.02
317.826	0.02
318.195	0.01
318.564	0.01
318.933	0.01
319.301	0.01
319.67	0.01
320.038	0.01
320.407	0.01
320.775	0.01
321.144	0.02
321.512	0.02
321.881	0.01
322.249	0.02
322.618	0.02
322.986	0.01
323.354	0.01
323.723	0.01
324.091	0.01
324.459	0.01
324.827	0.01
325.195	0.01
325.564	0.01
325.932	0.01
326.3	0
326.668	0.01
327.036	0.01
327.404	0.02
327.772	0.01
328.14	0.01
328.508	0.01
328.875	0.01
329.243	0.01
329.611	0.01
329.979	0.01
330.346	0.01
330.714	0.01
331.082	0
331.449	0.01
331.817	0.01
332.185	0.01
332.552	0
332.92	0.01
333.287	0.01
333.655	0.01
334.022	0.01
334.389	0.01
334.757	0.01
335.124	0.01
335.491	0.01
335.859	0.01
336.226	0.01
336.593	0.01
336.96	0.01
337.327	0.01
337.695	0.01
338.062	0.01
338.429	0.01
338.796	0.01
339.163	0.01
339.53	0.02
339.897	0.01
340.263	0.01
340.63	0.01
340.997	0.02
341.364	0.01
341.731	0.02
342.097	0.01
342.464	0.01
342.831	0.01
343.197	0.02
343.564	0.02
343.931	0.01
344.297	0.02
344.664	0.02
345.03	0.02
345.396	0.02
345.763	0.02
346.129	0.02
346.496	0.01
346.862	0.02
347.228	0.02
347.594	0.02
347.961	0.02
348.327	0.02
348.693	0.02
349.059	0.02
349.425	0.02
349.791	0.02
350.157	0.02
350.523	0.02
350.889	0.02
351.255	0.02
351.621	0.02
351.987	0.02
352.353	0.03
352.719	0.02
353.084	0.02
353.45	0.02
353.816	0.02
354.181	0.02
354.547	0.02
354.913	0.02
355.278	0.03
355.644	0.03
356.009	0.03
356.375	0.03
356.74	0.03
357.106	0.03
357.471	0.03
357.836	0.03
358.202	0.03
358.567	0.04
358.932	0.04
359.297	0.04
359.663	0.03
360.028	0.03
360.393	0.03
360.758	0.03
361.123	0.04
361.488	0.04
361.853	0.04
362.218	0.04
362.583	0.04
362.948	0.04
363.312	0.04
363.677	0.04
364.042	0.04
364.407	0.04
364.772	0.04
365.136	0.04
365.501	0.05
365.865	0.04
366.23	0.05
366.595	0.05
366.959	0.05
367.324	0.05
367.688	0.05
368.052	0.05
368.417	0.05
368.781	0.06
369.145	0.06
369.51	0.06
369.874	0.06
370.238	0.06
370.602	0.06
370.967	0.06
371.331	0.06
371.695	0.06
372.059	0.06
372.423	0.06
372.787	0.05
373.151	0.06
373.515	0.06
373.878	0.05
374.242	0.05
374.606	0.06
374.97	0.05
375.334	0.05
375.697	0.06
376.061	0.06
376.425	0.06
376.788	0.06
377.152	0.06
377.515	0.06
377.879	0.06
378.242	0.07
378.606	0.06
378.969	0.07
379.333	0.06
379.696	0.06
380.059	0.07
380.422	0.07
380.786	0.06
381.149	0.07
381.512	0.07
381.875	0.07
382.238	0.08
382.601	0.08
382.964	0.08
383.327	0.08
383.69	0.08
384.053	0.09
384.416	0.09
384.779	0.09
385.142	0.09
385.504	0.1
385.867	0.1
386.23	0.09
386.593	0.1
386.955	0.1
387.318	0.1
387.68	0.1
388.043	0.1
388.405	0.1
388.768	0.09
389.13	0.09
389.493	0.09
389.855	0.09
390.217	0.09
390.58	0.09
390.942	0.09
391.304	0.1
391.666	0.09
392.028	0.1
392.391	0.1
392.753	0.1
393.115	0.11
393.477	0.11
393.839	0.11
394.201	0.12
394.563	0.13
394.924	0.13
395.286	0.13
395.648	0.14
396.01	0.14
396.371	0.14
396.733	0.15
397.095	0.16
397.456	0.15
397.818	0.15
398.18	0.15
398.541	0.15
398.903	0.15
399.264	0.14
399.625	0.14
399.987	0.13
400.348	0.13
400.709	0.12
401.071	0.11
401.432	0.11
401.793	0.1
402.154	0.09
402.515	0.09
402.876	0.09
403.238	0.07
403.599	0.07
403.96	0.06
404.32	0.06
404.681	0.05
405.042	0.05
405.403	0.05
405.764	0.04
406.125	0.04
406.485	0.04
406.846	0.04
407.207	0.03
407.567	0.03
407.928	0.03
408.288	0.02
408.649	0.03
409.009	0.03
409.37	0.02
409.73	0.02
410.091	0.02
410.451	0.02
410.811	0.02
411.171	0.02
411.532	0.02
411.892	0.02
412.252	0.02
412.612	0.01
412.972	0.02
413.332	0.01
413.692	0.01
414.052	0.01
414.412	0.01
414.772	0.01
415.132	0.01
415.492	0.01
415.851	0.01
416.211	0.01
416.571	0.01
416.931	0.01
417.29	0
417.65	0.01
418.009	0
418.369	0.01
418.728	0.01
419.088	0.01
419.447	0.01
419.807	0.01
420.166	0.01
420.525	0.01
420.884	0
421.244	0.01
421.603	0.01
421.962	0.01
422.321	0.01
422.68	-0
423.039	0.01
423.398	0
423.757	0.01
424.116	0.01
424.475	0.01
424.834	0
425.193	0.01
425.551	0
425.91	0.01
426.269	0
426.628	-0
426.986	0.01
427.345	0.01
427.703	0.01
428.062	0
428.42	0
428.779	0.01
429.137	0.01
429.496	0
429.854	0
430.212	0.01
430.57	0
430.929	0.01
431.287	0.01
431.645	0.01
432.003	0
432.361	0
432.719	0
433.077	0.01
433.435	0
433.793	0.01
434.151	-0
434.509	0.01
434.866	0
435.224	0.01
435.582	0
435.94	0.01
436.297	0
436.655	0.01
437.012	0.01
437.37	0.01
437.727	-0
438.085	0
438.442	0.01
438.8	-0
439.157	-0
439.514	0
439.872	-0
440.229	0.01
440.586	0.01
440.943	-0
441.3	0.01
441.657	0
442.014	0.01
442.371	0
442.728	0.01
443.085	-0
443.442	0.01
443.799	0
444.156	-0
444.513	-0
444.869	-0
445.226	-0.01
445.583	-0
445.939	-0
446.296	-0
446.652	0
447.009	0
447.365	-0.01
447.722	-0
448.078	-0.01
448.434	0
448.791	-0.01
449.147	-0.01
449.503	-0.01
449.859	-0.01
450.215	-0
450.571	0
450.928	-0.01
451.284	-0.01
451.64	-0
451.995	-0.01
452.351	-0.01
452.707	-0.01
453.063	-0.01
453.419	-0.01
453.775	-0.02
454.13	-0.01
454.486	-0.01
454.842	-0.02
455.197	-0.02
455.553	-0.02
455.908	-0.03
456.264	-0.02
456.619	-0.03
456.975	-0.02
457.33	-0.03
457.685	-0.03
458.04	-0.03
458.396	-0.03
458.751	-0.03
459.106	-0.03
459.461	-0.03
459.816	-0.04
460.171	-0.05
460.526	-0.05
460.881	-0.05
461.236	-0.05
461.591	-0.04
461.946	-0.06
462.301	-0.05
462.655	-0.05
463.01	-0.05
463.365	-0.06
463.719	-0.05
464.074	-0.06
464.428	-0.07
464.783	-0.07
465.137	-0.07
465.492	-0.07
465.846	-0.07
466.201	-0.07
466.555	-0.07
466.909	-0.07
467.263	-0.07
467.618	-0.06
467.972	-0.07
468.326	-0.08
468.68	-0.08
469.034	-0.08
469.388	-0.08
469.742	-0.07
470.096	-0.08
470.45	-0.07
470.804	-0.07
471.157	-0.07
471.511	-0.08
471.865	-0.07
472.218	-0.08
472.572	-0.07
472.926	-0.07
473.279	-0.07
473.633	-0.07
473.986	-0.06
474.34	-0.07
474.693	-0.06
475.046	-0.06
475.4	-0.06
475.753	-0.05
476.106	-0.05
476.459	-0.04
476.812	-0.04
477.165	-0.04
477.519	-0.04
477.872	-0.04
478.224	-0.03
478.577	-0.04
478.93	-0.03
479.283	-0.03
479.636	-0.03
479.989	-0.03
480.341	-0.03
480.694	-0.03
481.047	-0.02
481.399	-0.02
481.752	-0.02
482.104	-0.02
482.457	-0.02
482.809	-0.02
483.162	-0.02
483.514	-0.02
483.866	-0.01
484.219	-0.01
484.571	-0.01
484.923	-0.01
485.275	-0.01
485.627	-0.01
485.979	-0.01
486.331	-0.01
486.683	-0.01
487.035	-0.01
487.387	-0.01
487.739	-0.01
488.091	-0.01
488.443	-0.01
488.794	-0.01
489.146	-0.01
489.498	-0
489.849	-0.01
490.201	-0.01
490.552	-0.01
490.904	-0
491.255	-0.01
491.607	-0
491.958	-0.01
492.309	-0
492.661	-0.01
493.012	-0
493.363	-0
493.714	-0.01
494.065	-0.01
494.416	-0
494.767	-0
495.118	-0
495.469	0
495.82	0
496.171	0
496.522	0
496.872	0
497.223	0
497.574	0.01
497.924	0
498.275	0
498.626	0
498.976	0.01
499.327	0
499.677	0
500.027	0.01
500.378	0
500.728	0.01
501.078	0.01
501.428	0
501.779	0
502.129	0.01
502.479	0.01
502.829	0.01
503.179	0
503.529	0
503.879	0.01
504.229	0.01
504.578	0.01
504.928	0.01
505.278	0.01
505.628	0.01
505.977	0.01
506.327	0.01
506.676	0.01
507.026	0.01
507.375	0.01
507.725	0.01
508.074	0.01
508.424	0.01
508.773	0.01
509.122	0.01
509.471	0.01
509.82	0.01
510.17	0.01
510.519	0.01
510.868	0.01
511.217	0.01
511.566	0.01
511.915	0.01
512.263	0.01
512.612	0.01
512.961	0.01
513.31	0.01
513.659	0.01
514.007	0.01
514.356	0.01
514.704	0.01
515.053	0.01
515.401	0.01
515.75	0.02
516.098	0.01
516.447	0.01
516.795	0.01
517.143	0.01
517.491	0.01
517.839	0.01
518.188	0.01
518.536	0.01
518.884	0.01
519.232	0.01
519.58	0.01
519.928	0.01
520.275	0.01
520.623	0.01
520.971	0.02
521.319	0.01
521.666	0.02
522.014	0.02
522.362	0.01
522.709	0.02
523.057	0.02
523.404	0.01
523.752	0.02
524.099	0.02
524.446	0.02
524.794	0.02
525.141	0.02
525.488	0.02
525.835	0.02
526.182	0.02
526.529	0.02
526.876	0.02
527.223	0.02
527.57	0.02
527.917	0.02
528.264	0.02
528.611	0.01
528.958	0.02
529.304	0.02
529.651	0.02
529.998	0.02
530.344	0.02
530.691	0.02
531.037	0.02
531.384	0.02
531.73	0.02
532.076	0.02
532.423	0.02
532.769	0.02
533.115	0.02
533.461	0.02
533.807	0.02
534.154	0.02
534.5	0.02
534.846	0.02
535.192	0.02
535.537	0.02
535.883	0.02
536.229	0.03
536.575	0.03
536.921	0.02
537.266	0.02
537.612	0.03
537.957	0.02
538.303	0.02
538.649	0.02
538.994	0.02
539.339	0.02
539.685	0.02
540.03	0.02
540.375	0.02
540.721	0.02
541.066	0.02
541.411	0.03
541.756	0.02
542.101	0.02
542.446	0.02
542.791	0.02
543.136	0.02
543.481	0.02
543.825	0.02
544.17	0.03
544.515	0.02
544.86	0.03
545.204	0.03
545.549	0.02
545.893	0.03
546.238	0.03
546.582	0.03
546.927	0.03
547.271	0.03
547.615	0.03
547.96	0.03
548.304	0.03
548.648	0.03
548.992	0.03
549.336	0.03
549.68	0.03
550.024	0.03
550.368	0.03
550.712	0.03
551.056	0.03
551.4	0.03
551.743	0.03
552.087	0.03
552.431	0.03
552.774	0.03
553.118	0.03
553.462	0.03
553.805	0.03
554.148	0.03
554.492	0.03
554.835	0.03
555.178	0.03
555.522	0.03
555.865	0.03
556.208	0.03
556.551	0.03
556.894	0.03
557.237	0.03
557.58	0.03
557.923	0.03
558.266	0.03
558.609	0.03
558.952	0.03
559.294	0.04
559.637	0.04
559.98	0.04
560.322	0.04
560.665	0.03
561.007	0.03
561.35	0.04
561.692	0.04
562.034	0.03
562.377	0.04
562.719	0.03
563.061	0.04
563.403	0.04
563.745	0.04
564.088	0.04
564.43	0.04
564.772	0.03
565.113	0.03
565.455	0.03
565.797	0.04
566.139	0.04
566.481	0.04
566.822	0.04
567.164	0.04
567.506	0.04
567.847	0.03
568.189	0.04
568.53	0.04
568.872	0.04
569.213	0.04
569.554	0.04
569.895	0.03
570.237	0.04
570.578	0.04
570.919	0.03
571.26	0.03
571.601	0.04
571.942	0.03
572.283	0.04
572.624	0.04
572.965	0.04
573.306	0.04
573.646	0.03
573.987	0.03
574.328	0.03
574.668	0.04
575.009	0.04
575.349	0.03
575.69	0.03
576.03	0.03
576.37	0.04
576.711	0.03
577.051	0.04
577.391	0.03
577.731	0.04
578.072	0.03
578.412	0.03
578.752	0.03
579.092	0.03
579.431	0.03
579.771	0.03
580.111	0.02
580.451	0.03
580.791	0.03
581.13	0.03
581.47	0.03
581.81	0.03
582.149	0.03
582.489	0.03
582.828	0.03
583.167	0.03
583.507	0.01
583.846	0
584.185	0.01
584.525	0.03
584.864	0.03
585.203	0.03
585.542	0.04
585.881	0.04
586.22	0.04
586.559	0.03
586.898	0.03
587.236	0.03
587.575	0.03
587.914	0.03
588.252	0.04
588.591	0.04
588.93	0.04
589.268	0.04
589.607	0.04
589.945	0.04
590.283	0.04
590.622	0.03
590.96	0.04
591.298	0.04
591.636	0.04
591.974	0.04
592.313	0.04
592.651	0.04
592.989	0.04
593.326	0.04
593.664	0.04
594.002	0.04
594.34	0.04
594.678	0.04
595.015	0.04
595.353	0.03
595.691	0.04
596.028	0.04
596.366	0.04
596.703	0.04
597.04	0.04
597.378	0.04
597.715	0.04
598.052	0.04
598.389	0.04
598.726	0.04
599.064	0.05
599.401	0.05
599.738	0.04
600.074	0.04
600.411	0.04
600.748	0.04
601.085	0.04
601.422	0.04
601.758	0.04
602.095	0.04
602.432	0.04
602.768	0.04
603.105	0.04
603.441	0.04
603.777	0.04
604.114	0.04
604.45	0.04
604.786	0.04
605.122	0.04
605.459	0.04
605.795	0.04
606.131	0.04
606.467	0.04
606.803	0.04
607.139	0.04
607.474	0.04
607.81	0.04
608.146	0.04
608.482	0.04
608.817	0.04
609.153	0.04
609.488	0.04
609.824	0.04
610.159	0.04
610.495	0.04
610.83	0.04
611.165	0.04
611.5	0.04
611.836	0.04
612.171	0.04
612.506	0.04
612.841	0.04
613.176	0.04
613.511	0.04
613.845	0.04
614.18	0.04
614.515	0.04
614.85	0.04
615.184	0.04
615.519	0.04
615.854	0.04
616.188	0.04
616.523	0.04
616.857	0.04
617.191	0.04
617.526	0.04
617.86	0.04
618.194	0.04
618.528	0.04
618.862	0.04
619.196	0.04
619.53	0.04
619.864	0.04
620.198	0.04
620.532	0.04
620.866	0.04
621.2	0.04
621.533	0.04
621.867	0.04
622.201	0.04
622.534	0.04
622.868	0.04
623.201	0.04
623.534	0.04
623.868	0.04
624.201	0.04
624.534	0.04
624.868	0.04
625.201	0.04
625.534	0.04
625.867	0.04
626.2	0.04
626.533	0.03
626.865	0.04
627.198	0.04
627.531	0.04
627.864	0.04
628.196	0.04
628.529	0.04
628.862	0.04
629.194	0.04
629.527	0.03
629.859	0.04
630.191	0.04
630.524	0.03
630.856	0.04
631.188	0.04
631.52	0.03
631.852	0.03
632.184	0.03
632.516	0.04
632.848	0.03
633.18	0.03
633.512	0.03
633.844	0.03
634.175	0.03
634.507	0.03
634.839	0.03
635.17	0.03
635.502	0.03
635.833	0.03
636.165	0.03
636.496	0.03
636.827	0.03
637.159	0.03
637.49	0.03
637.821	0.03
638.152	0.03
638.483	0.03
638.814	0.03
639.145	0.03
639.476	0.03
639.807	0.03
640.137	0.03
640.468	0.03
640.799	0.03
641.129	0.03
641.46	0.03
641.791	0.03
642.121	0.03
642.451	0.03
642.782	0.03
643.112	0.02
643.442	0.02
643.773	0.02
644.103	0.02
644.433	0.02
644.763	0.02
645.093	0.02
645.423	0.02
645.753	0.02
646.082	0.03
646.412	0.03
646.742	0.02
647.072	0.03
647.401	0.03
647.731	0.03
648.06	0.03
648.39	0.03
648.719	0.03
649.048	0.02
649.378	0.02
649.707	0.02
650.036	0.02
650.365	0.03
650.694	0.02
651.023	0.02
651.352	0.02
651.681	0.02
652.01	0.02
652.339	0.02
652.668	0.02
652.996	0.02
653.325	0.02
653.654	0.02
653.982	0.02
654.311	0.03
654.639	0.02
654.967	0.03
655.296	0.02
655.624	0.02
655.952	0.02
656.28	0.02
656.609	0.02
656.937	0.02
657.265	0.02
657.593	0.01
657.92	0
658.248	0
658.576	-0
658.904	0
659.231	0.01
659.559	0.02
659.887	0.02
660.214	0.02
660.542	0.02
660.869	0.02
661.196	0.02
661.524	0.02
661.851	0.02
662.178	0.02
662.505	0.02
662.832	0.02
663.159	0.02
663.486	0.02
663.813	0.02
664.14	0.02
664.467	0.02
664.794	0.02
665.12	0.02
665.447	0.02
665.774	0.02
666.1	0.02
666.427	0.02
666.753	0.02
667.079	0.02
667.406	0.02
667.732	0.02
668.058	0.02
668.384	0.02
668.71	0.02
669.036	0.03
669.362	0.02
669.688	0.02
670.014	0.02
670.34	0.02
670.666	0.02
670.991	0.02
671.317	0.02
671.643	0.02
671.968	0.02
672.294	0.02
672.619	0.02
672.945	0.02
673.27	0.02
673.595	0.02
673.92	0.03
674.246	0.02
674.571	0.03
674.896	0.02
675.221	0.03
675.546	0.02
675.87	0.02
676.195	0.02
676.52	0.02
676.845	0.02
677.169	0.02
677.494	0.02
677.819	0.02
678.143	0.02
678.468	0.02
678.792	0.02
679.116	0.02
679.44	0.02
679.765	0.02
680.089	0.02
680.413	0.02
680.737	0.02
681.061	0.02
681.385	0.02
681.709	0.02
682.033	0.02
682.356	0.02
682.68	0.02
683.004	0.02
683.327	0.02
683.651	0.02
683.974	0.02
684.298	0.02
684.621	0.02
684.944	0.02
685.268	0.02
685.591	0.02
685.914	0.02
686.237	0.02
686.56	0.02
686.883	0.02
687.206	0.02
687.529	0.02
687.852	0.01
688.175	0.01
688.497	0.02
688.82	0.02
689.142	0.01
689.465	0.01
689.787	0.02
690.11	0.02
690.432	0.02
690.755	0.01
691.077	0.01
691.399	0.01
691.721	0.01
692.043	0.01
692.365	0.01
692.687	0.01
693.009	0.01
693.331	0.01
693.653	0.01
693.974	0.01
694.296	0.01
694.618	0.01
694.939	0.01
695.261	0.01
695.582	0.01
695.904	0.02
696.225	0.01
696.546	0.01
696.868	0.01
697.189	0.01
697.51	0.01
697.831	0.02
698.152	0.02
698.473	0.01
698.794	0.01
699.114	0.01
699.435	0.01
699.756	0.01
700.077	0.01
700.397	0.01
700.718	0.01
701.038	0.01
701.359	0.01
701.679	0.01
701.999	0.01
702.32	0.01
702.64	0.01
702.96	0.01
703.28	0.01
703.6	0.01
703.92	0.01
704.24	0.01
704.56	0.01
704.879	0.01
705.199	0.01
705.519	0.01
705.838	0.01
706.158	0.01
706.478	0.01
706.797	0.01
707.116	0.01
707.436	0.01
707.755	0.01
708.074	0.01
708.393	0.01
708.712	0.01
709.031	0.01
709.35	0.01
709.669	0.01
709.988	0.01
710.307	0.01
710.626	0.01
710.944	0.01
711.263	0.01
711.582	0.01
711.9	0.01
712.219	0.01
712.537	0.01
712.855	0.01
713.174	0.01
713.492	0.01
713.81	0.01
714.128	0.01
714.446	0.01
714.764	0.01
715.082	0.01
715.4	0.01
715.718	0.01
716.035	0.01
716.353	0.01
716.671	0.01
716.988	0.01
717.306	0.01
717.623	0.01
717.941	0.01
718.258	0.01
718.575	0.01
718.893	0.01
719.21	0.01
719.527	0.01
719.844	0.01
720.161	0.01
720.478	0.01
720.795	0.01
721.112	0.01
721.428	0.01
721.745	0.01
722.062	0.01
722.378	0.01
722.695	0.01
723.011	0.01
723.328	0.01
723.644	0.01
723.96	0.01
724.276	0.01
724.593	0.01
724.909	0.01
725.225	0.01
725.541	0.01
725.857	0.01
726.173	0.01
726.488	0.01
726.804	0.01
727.12	0.01
727.435	0.01
727.751	0.01
728.067	0.01
728.382	0.01
728.697	0.01
729.013	0.01
729.328	0.01
729.643	0.01
729.958	0.01
730.273	0.01
730.588	0.01
730.903	0.01
731.218	0.01
731.533	0.01
731.848	0.01
732.163	0.01
732.477	0.01
732.792	0.01
733.107	0.01
733.421	0.01
733.736	0.01
734.05	0.01
734.364	0.01
734.678	0.02
734.993	0.01
735.307	0.01
735.621	0.01
735.935	0.01
736.249	0.01
736.563	0.01
736.877	0.01
737.19	0.01
737.504	0.01
737.818	0.01
738.131	0.01
738.445	0.01
738.758	0.01
739.072	0.01
739.385	0.01
739.698	0.01
740.012	0.01
740.325	0.01
740.638	0.01
740.951	0.01
741.264	0.01
741.577	0.01
741.89	0.01
742.203	0.01
742.515	0.02
742.828	0.02
743.141	0.02
743.453	0.02
743.766	0.02
744.078	0.02
744.391	0.02
744.703	0.02
745.015	0.01
745.327	0.01
745.639	0.01
745.952	0.01
746.264	0.01
746.575	0.01
746.887	0.01
747.199	0.01
747.511	0.01
747.823	0.01
748.134	0.01
748.446	0.01
748.757	0.01
749.069	0.01
749.38	0.01
749.692	0.01
750.003	0.01
750.314	0.01
750.625	0.01
750.936	0.01
751.248	0.01
751.559	0.01
751.869	0.01
752.18	0.01
752.491	0.01
752.802	0.01
753.112	0.01
753.423	0.01
753.734	0.01
754.044	0.01
754.355	0.01
754.665	0.01
754.975	0.01
755.285	0
755.596	0
755.906	0
756.216	0
756.526	0
756.836	0
757.146	0
757.455	0.01
757.765	0.01
758.075	0.01
758.385	0.01
758.694	0
759.004	0
759.313	0.01
759.622	0
759.932	0
760.241	0.01
760.55	0.01
760.859	0.01
761.168	0.01
761.477	0
761.786	0
762.095	0.01
762.404	0
762.713	0
763.021	0
763.33	0
763.639	0
763.947	0
764.256	-0
764.564	-0
764.872	-0
765.181	-0
765.489	0
765.797	0
766.105	0
766.413	0
766.721	0
767.029	0
767.337	0
767.644	0
767.952	0
768.26	0.01
768.567	0.01
768.875	0.01
769.182	0.01
769.49	0.01
769.797	0.01
770.104	0
770.411	0.01
770.718	0
771.026	0
771.333	0
771.639	0.01
771.946	0
772.253	0.01
772.56	0.01
772.867	0
773.173	0
773.48	0
773.786	0.01
774.093	0
774.399	0
774.705	0
775.012	0
775.318	0
775.624	0
775.93	0
776.236	0.01
776.542	0.01
776.848	0
777.154	0
777.459	0
777.765	0
778.071	0
778.376	0
778.682	0
778.987	0
779.292	0
779.598	0
779.903	0
780.208	0.01
780.513	0.01
780.818	0
781.123	0
781.428	0
781.733	0
782.038	0
782.343	0
782.647	0
782.952	0
783.256	0.01
783.561	0.01
783.865	0.01
784.17	0.01
784.474	0.01
784.778	0.01
785.082	0.01
785.386	0.01
785.69	0.01
785.994	0
786.298	0
786.602	0.01
786.906	0
787.209	0
787.513	0
787.817	0
788.12	0
788.424	0.01
788.727	0.01
789.03	0.01
789.333	0.01
789.637	0.01
789.94	0
790.243	0.01
790.546	0.01
790.849	0.01
791.152	0.01
791.454	0.01
791.757	0.01
792.06	0.01
792.362	0.01
792.665	0.01
792.967	0.01
793.27	0.01
793.572	0.01
793.874	0.01
794.177	0.01
794.479	0.01
794.781	0.01
795.083	0.01
795.385	0.01
795.687	0.01
795.989	0.01
796.29	0.01
796.592	0.01
796.894	0.01
797.195	0.01
797.497	0.01
797.798	0.01
798.1	0.01
798.401	0.01
798.702	0.01
799.003	0.01
799.304	0.01
799.605	0.01
799.906	0.01
800.207	0
800.508	0.01
800.809	0.01
801.11	0.01
801.41	0.01
801.711	0.01
802.011	0.01
802.312	0.01
802.612	0.01
802.913	0.01
803.213	0.01
803.513	0.01
803.813	0.01
804.113	0.01
804.413	0.01
804.713	0.01
805.013	0.01
805.313	0.02
805.613	0.01
805.912	0.01
806.212	0.02
806.511	0.02
806.811	0.02
807.11	0.02
807.41	0.02
807.709	0.02
808.008	0.01
808.307	0.01
808.606	0.02
808.905	0.02
809.204	0.02
809.503	0.01
809.802	0.01
810.101	0.01
810.399	0.01
810.698	0.01
810.997	0.01
811.295	0.01
811.593	0.01
811.892	0
812.19	0.01
812.488	0.01
812.786	0.01
813.084	0.01
813.383	0.01
813.68	0.01
813.978	0.01
814.276	0
814.574	0.01
814.872	0.01
815.169	0.01
815.467	0.01
815.764	0.01
816.062	0.01
816.359	0.02
816.656	0.01
816.954	0.01
817.251	0.01
817.548	0.01
817.845	0.01
818.142	0.01
818.439	0.01
818.735	0.01
819.032	0.01
819.329	0.01
819.626	0.01
819.922	0.01
820.219	0.02
820.515	0.02
820.811	0.01
821.108	0.01
821.404	0.01
821.7	0
821.996	0.01
822.292	0.01
822.588	0.01
822.884	0.01
823.18	0.01
823.475	0.01
823.771	0.01
824.067	0.01
824.362	0.02
824.658	0.02
824.953	0.02
825.249	0.02
825.544	0.02
825.839	0.02
826.134	0.02
826.429	0.01
826.724	0.02
827.019	0.01
827.314	0.01
827.609	0.01
827.904	0.01
828.198	0.01
828.493	0.01
828.787	0.01
829.082	0.01
829.376	0.01
829.671	0.01
829.965	0.01
830.259	0.01
830.553	0.01
830.847	0.01
831.141	0.01
831.435	0.01
831.729	0.01
832.023	0.01
832.317	0.01
832.61	0.02
832.904	0.01
833.197	0
833.491	0.01
833.784	0.01
834.077	0.01
834.371	0.01
834.664	0.01
834.957	0.01
835.25	0.01
835.543	-0
835.836	0.01
836.129	0
836.421	0.01
836.714	0.01
837.007	0.01
837.299	0.02
837.592	0.03
837.884	0.01
838.177	0.02
838.469	0.01
838.761	0.01
839.053	0.02
839.345	0.02
839.637	0.03
839.929	0.01
840.221	0.02
840.513	0.02
840.805	0.01
841.096	0.01
841.388	0.01
841.68	0.02
841.971	0.02
842.262	0.02
842.554	0.02
842.845	0.02
843.136	0.01
843.427	0.01
843.718	0.01
844.009	0.01
844.3	0.01
844.591	0.02
844.882	0.01
845.173	0.01
845.463	0.01
845.754	0.01
846.044	0.01
846.335	0
846.625	0.02
846.915	0.01
847.206	0.02
847.496	0.01
847.786	0.01
848.076	0.02
848.366	0.01
848.656	0.03
848.945	0.02
849.235	0.03
849.525	0.03
849.814	0.03
850.104	0.03
850.393	0.02
850.683	0.02
850.972	0.02
851.261	0.02
851.551	0.03
851.84	0.01
852.129	0.01
852.418	0.02
852.707	0.01
852.995	0.01
853.284	-0
853.573	0.01
853.862	0.01
854.15	0.01
854.439	0.02
854.727	0.01
855.015	0.01
855.304	0.01
855.592	-0
855.88	0.02
856.168	0.01
856.456	0.01
856.744	0.01
857.032	0.02
857.32	0.01
857.607	0.01
857.895	0
858.183	0.03
858.47	-0.01
858.757	-0
859.045	-0
859.332	0.02
859.619	0.01
859.907	0.02
860.194	0.01
860.481	0.01
860.768	0.02
861.054	0.03
861.341	0.01
861.628	0.02
861.915	0.02
862.201	0.01
862.488	0.01
862.774	0.02
863.061	-0.01
863.347	0.01
863.633	0.03
863.919	0.03
864.205	0.01
864.491	0.02
864.777	0
865.063	0.02
865.349	0.02
865.635	-0.02
865.92	0.01
866.206	0.02
866.492	0.04
866.777	0.02
867.062	-0.02
867.348	0.01
867.633	0.02
867.918	-0.02
868.203	0.02
868.488	0.05
868.773	0.02
869.058	0
869.343	-0.02
869.628	0.01
869.912	0.01
870.197	-0.01
870.482	0.02
870.766	0.03
871.05	-0
871.335	0.01
871.619	0.03
871.903	0.04
872.187	0.06
872.471	-0.02
872.755	0.01
873.039	0.04
873.323	-0
873.607	0.01
873.89	0.01
874.174	0
874.458	0.01
874.741	0.01
875.024	0.04
875.308	0.04
875.591	0.04
875.874	0
876.157	0.1
876.44	0.01
876.723	0.06
877.006	0.02
877.289	0.03
877.572	0.02
877.854	0.07
878.137	0.13
878.42	-0.01
878.702	0
878.984	-0.03
879.267	0.06
879.549	0.05
879.831	0.06
880.113	0.04
880.395	-0
880.677	0.08
880.959	-0.06
