Data from Rubpy_EV_1500_EDTA_Buffered_Absorbance_15-12-14-951.txt Node
Date: Tue Jun 30 15:12:14 BST 2026
User: fpm-admin
Spectrometer: OFX00224
Trigger mode: 0
Integration Time (sec): 7.000000E-2
Scans to average: 3
Nonlinearity correction enabled: false
Boxcar width: 0
Storing dark spectrum: false
XAxis mode: Wavelengths
Number of Pixels in Spectrum: 2136
>>>>>Begin Spectral Data<<<<<
154.91	-0.07
155.289	-0.06
155.669	-0.15
156.048	-0.04
156.428	0.1
156.807	0.74
157.186	-0.57
157.566	-0.07
157.945	-0.1
158.325	-0.3
158.704	-1.48
159.083	-0
159.462	0.6
159.842	-0.3
160.221	-0
160.6	1.26
160.979	0.72
161.359	-0.41
161.738	-0
162.117	-0
162.496	-0
162.875	-0.3
163.254	-0.45
163.633	0.34
164.012	-0
164.391	-0
164.77	-0.09
165.149	-0.06
165.528	-0
165.907	-0
166.286	-0.49
166.665	-0
167.044	0.27
167.423	0.19
167.802	-0
168.181	0.06
168.559	-0.48
168.938	-0
169.317	-0.52
169.696	0.3
170.074	1.04
170.453	-0
170.832	-0
171.21	0.56
171.589	-0
171.968	-0
172.346	-0
172.725	-1.04
173.103	-0.32
173.482	-0.35
173.861	-0
174.239	0.38
174.617	0.24
174.996	-0.5
175.374	0.52
175.753	-0.03
176.131	0.16
176.51	-0
176.888	0.49
177.266	-0
177.645	0.07
178.023	-0
178.401	-0.09
178.779	0.03
179.158	0.23
179.536	-0
179.914	0.44
180.292	-0
180.67	-0.1
181.048	0.06
181.427	0.46
181.805	0.06
182.183	-0
182.561	0.3
182.939	-0
183.317	-0
183.695	-0
184.073	0.07
184.451	0.18
184.829	0.12
185.206	-0.18
185.584	-0
185.962	-0.65
186.34	-0
186.718	-0
187.096	-0
187.473	-0
187.851	0.15
188.229	-0.2
188.607	0.39
188.984	0.3
189.362	0.49
189.74	0.18
190.117	0.28
190.495	0.29
190.872	0.23
191.25	0.43
191.627	0.21
192.005	0.27
192.382	0.35
192.76	0.25
193.137	0.19
193.515	0.3
193.892	0.36
194.269	0.3
194.647	0.21
195.024	0.27
195.401	0.26
195.779	0.31
196.156	0.22
196.533	0.5
196.91	0.21
197.288	0.21
197.665	0.28
198.042	0.25
198.419	0.26
198.796	0.2
199.173	0.43
199.55	0.21
199.927	0.35
200.304	0.24
200.681	0.4
201.058	0.44
201.435	0.24
201.812	0.28
202.189	0.23
202.566	0.38
202.943	0.2
203.32	0.27
203.697	0.24
204.073	0.29
204.45	0.19
204.827	0.3
205.204	0.5
205.58	0.25
205.957	0.18
206.334	0.37
206.71	0.17
207.087	0.24
207.464	0.39
207.84	0.28
208.217	0.44
208.593	0.25
208.97	0.24
209.346	0.4
209.723	0.5
210.099	0.29
210.476	0.36
210.852	0.34
211.228	0.38
211.605	0.31
211.981	0.39
212.357	0.47
212.733	0.26
213.11	0.46
213.486	0.3
213.862	0.25
214.238	0.45
214.614	0.45
214.991	0.24
215.367	0.45
215.743	0.3
216.119	0.21
216.495	0.46
216.871	0.46
217.247	0.17
217.623	0.36
217.999	0.23
218.375	0.31
218.751	0.18
219.127	0.36
219.502	0.29
219.878	0.21
220.254	0.34
220.63	0.32
221.006	0.3
221.381	0.39
221.757	0.28
222.133	0.44
222.508	0.36
222.884	0.23
223.26	0.28
223.635	0.3
224.011	0.28
224.386	0.2
224.762	0.32
225.137	0.18
225.513	0.24
225.888	0.34
226.264	0.26
226.639	0.25
227.014	0.36
227.39	0.23
227.765	0.42
228.14	0.28
228.516	0.23
228.891	0.38
229.266	0.3
229.641	0.37
230.017	0.28
230.392	0.26
230.767	0.45
231.142	0.51
231.517	0.36
231.892	0.32
232.267	0.62
232.642	0.36
233.017	0.29
233.392	0.4
233.767	0.47
234.142	0.31
234.517	0.19
234.892	0.21
235.267	0.31
235.641	0.31
236.016	0.28
236.391	0.36
236.766	0.36
237.14	0.32
237.515	0.22
237.89	0.29
238.264	0.29
238.639	0.29
239.014	0.34
239.388	0.2
239.763	0.42
240.137	0.24
240.512	0.26
240.886	0.29
241.261	0.31
241.635	0.39
242.009	0.2
242.384	0.24
242.758	0.29
243.132	0.31
243.507	0.4
243.881	0.23
244.255	0.31
244.629	0.35
245.004	0.45
245.378	0.24
245.752	0.3
246.126	0.28
246.5	0.35
246.874	0.28
247.248	0.24
247.622	0.35
247.996	0.31
248.37	0.3
248.744	0.38
249.118	0.39
249.492	0.41
249.866	0.25
250.24	0.36
250.613	0.24
250.987	0.25
251.361	0.28
251.735	0.43
252.108	0.3
252.482	0.25
252.856	0.38
253.229	0.3
253.603	0.48
253.977	0.48
254.35	0.22
254.724	0.19
255.097	0.31
255.471	0.31
255.844	0.34
256.218	0.34
256.591	0.14
256.964	0.35
257.338	0.45
257.711	0.29
258.084	0.31
258.458	0.32
258.831	0.29
259.204	0.26
259.577	0.33
259.95	0.35
260.323	0.33
260.697	0.31
261.07	0.3
261.443	0.22
261.816	0.26
262.189	0.28
262.562	0.31
262.935	0.23
263.308	0.34
263.68	0.3
264.053	0.43
264.426	0.36
264.799	0.43
265.172	0.31
265.545	0.44
265.917	0.24
266.29	0.27
266.663	0.36
267.035	0.29
267.408	0.25
267.781	0.36
268.153	0.39
268.526	0.32
268.898	0.44
269.271	0.24
269.643	0.3
270.016	0.24
270.388	0.36
270.76	0.3
271.133	0.3
271.505	0.41
271.877	0.25
272.25	0.38
272.622	0.33
272.994	0.29
273.366	0.34
273.739	0.35
274.111	0.27
274.483	0.28
274.855	0.33
275.227	0.38
275.599	0.29
275.971	0.41
276.343	0.34
276.715	0.3
277.087	0.32
277.459	0.35
277.831	0.31
278.203	0.32
278.574	0.3
278.946	0.32
279.318	0.34
279.69	0.41
280.061	0.27
280.433	0.3
280.805	0.33
281.176	0.36
281.548	0.28
281.92	0.39
282.291	0.31
282.663	0.38
283.034	0.38
283.406	0.29
283.777	0.38
284.148	0.38
284.52	0.38
284.891	0.34
285.262	0.29
285.634	0.27
286.005	0.28
286.376	0.27
286.747	0.3
287.119	0.23
287.49	0.25
287.861	0.26
288.232	0.26
288.603	0.33
288.974	0.33
289.345	0.24
289.716	0.46
290.087	0.35
290.458	0.36
290.829	0.35
291.2	0.3
291.571	0.29
291.941	0.31
292.312	0.33
292.683	0.33
293.054	0.41
293.424	0.23
293.795	0.28
294.166	0.32
294.536	0.33
294.907	0.33
295.277	0.35
295.648	0.28
296.018	0.37
296.389	0.35
296.759	0.29
297.13	0.33
297.5	0.3
297.871	0.34
298.241	0.25
298.611	0.3
298.981	0.3
299.352	0.25
299.722	0.29
300.092	0.25
300.462	0.33
300.832	0.3
301.202	0.26
301.573	0.24
301.943	0.29
302.313	0.28
302.683	0.29
303.053	0.3
303.422	0.28
303.792	0.28
304.162	0.28
304.532	0.3
304.902	0.28
305.272	0.28
305.641	0.29
306.011	0.27
306.381	0.28
306.75	0.29
307.12	0.29
307.49	0.29
307.859	0.29
308.229	0.3
308.598	0.32
308.968	0.31
309.337	0.31
309.707	0.32
310.076	0.32
310.445	0.33
310.815	0.32
311.184	0.32
311.553	0.33
311.923	0.33
312.292	0.33
312.661	0.34
313.03	0.34
313.399	0.34
313.768	0.34
314.137	0.33
314.506	0.34
314.875	0.34
315.244	0.34
315.613	0.33
315.982	0.33
316.351	0.34
316.72	0.33
317.089	0.33
317.458	0.33
317.826	0.33
318.195	0.32
318.564	0.32
318.933	0.32
319.301	0.31
319.67	0.32
320.038	0.31
320.407	0.31
320.775	0.31
321.144	0.3
321.512	0.3
321.881	0.3
322.249	0.29
322.618	0.3
322.986	0.29
323.354	0.29
323.723	0.29
324.091	0.29
324.459	0.29
324.827	0.29
325.195	0.28
325.564	0.28
325.932	0.28
326.3	0.28
326.668	0.28
327.036	0.28
327.404	0.28
327.772	0.28
328.14	0.29
328.508	0.28
328.875	0.28
329.243	0.28
329.611	0.29
329.979	0.28
330.346	0.29
330.714	0.29
331.082	0.29
331.449	0.29
331.817	0.3
332.185	0.3
332.552	0.3
332.92	0.3
333.287	0.31
333.655	0.31
334.022	0.31
334.389	0.32
334.757	0.32
335.124	0.32
335.491	0.32
335.859	0.33
336.226	0.34
336.593	0.33
336.96	0.34
337.327	0.34
337.695	0.35
338.062	0.36
338.429	0.36
338.796	0.37
339.163	0.37
339.53	0.39
339.897	0.38
340.263	0.38
340.63	0.39
340.997	0.4
341.364	0.4
341.731	0.41
342.097	0.42
342.464	0.42
342.831	0.43
343.197	0.44
343.564	0.45
343.931	0.45
344.297	0.46
344.664	0.47
345.03	0.48
345.396	0.48
345.763	0.49
346.129	0.5
346.496	0.5
346.862	0.51
347.228	0.52
347.594	0.52
347.961	0.53
348.327	0.53
348.693	0.55
349.059	0.55
349.425	0.57
349.791	0.57
350.157	0.58
350.523	0.59
350.889	0.6
351.255	0.62
351.621	0.63
351.987	0.64
352.353	0.65
352.719	0.66
353.084	0.68
353.45	0.68
353.816	0.7
354.181	0.71
354.547	0.72
354.913	0.73
355.278	0.75
355.644	0.76
356.009	0.78
356.375	0.8
356.74	0.8
357.106	0.83
357.471	0.84
357.836	0.86
358.202	0.88
358.567	0.89
358.932	0.91
359.297	0.92
359.663	0.93
360.028	0.96
360.393	0.96
360.758	0.98
361.123	0.98
361.488	0.99
361.853	1.01
362.218	1.01
362.583	1.02
362.948	1.04
363.312	1.05
363.677	1.07
364.042	1.09
364.407	1.09
364.772	1.12
365.136	1.13
365.501	1.15
365.865	1.15
366.23	1.19
366.595	1.22
366.959	1.23
367.324	1.25
367.688	1.28
368.052	1.3
368.417	1.3
368.781	1.31
369.145	1.34
369.51	1.32
369.874	1.33
370.238	1.34
370.602	1.34
370.967	1.32
371.331	1.33
371.695	1.31
372.059	1.33
372.423	1.32
372.787	1.29
373.151	1.28
373.515	1.31
373.878	1.29
374.242	1.28
374.606	1.29
374.97	1.3
375.334	1.28
375.697	1.31
376.061	1.3
376.425	1.31
376.788	1.33
377.152	1.32
377.515	1.32
377.879	1.34
378.242	1.35
378.606	1.37
378.969	1.4
379.333	1.4
379.696	1.4
380.059	1.41
380.422	1.42
380.786	1.46
381.149	1.5
381.512	1.5
381.875	1.52
382.238	1.57
382.601	1.59
382.964	1.62
383.327	1.66
383.69	1.67
384.053	1.71
384.416	1.74
384.779	1.79
385.142	1.78
385.504	1.8
385.867	1.83
386.23	1.82
386.593	1.84
386.955	1.86
387.318	1.86
387.68	1.85
388.043	1.85
388.405	1.84
388.768	1.88
389.13	1.83
389.493	1.82
389.855	1.82
390.217	1.83
390.58	1.81
390.942	1.81
391.304	1.84
391.666	1.85
392.028	1.81
392.391	1.87
392.753	1.84
393.115	1.96
393.477	2.02
393.839	1.97
394.201	2.05
394.563	2.08
394.924	2.12
395.286	2.11
395.648	2.14
396.01	2.15
396.371	2.2
396.733	2.17
397.095	2.21
397.456	2.17
397.818	2.13
398.18	2.07
398.541	2.11
398.903	2.16
399.264	2.09
399.625	2.08
399.987	2.08
400.348	2.01
400.709	2.03
401.071	1.98
401.432	1.93
401.793	1.85
402.154	1.74
402.515	1.68
402.876	1.57
403.238	1.49
403.599	1.39
403.96	1.31
404.32	1.21
404.681	1.13
405.042	1.06
405.403	0.99
405.764	0.92
406.125	0.86
406.485	0.81
406.846	0.75
407.207	0.71
407.567	0.67
407.928	0.62
408.288	0.58
408.649	0.56
409.009	0.53
409.37	0.5
409.73	0.48
410.091	0.46
410.451	0.43
410.811	0.41
411.171	0.4
411.532	0.38
411.892	0.36
412.252	0.35
412.612	0.33
412.972	0.33
413.332	0.31
413.692	0.3
414.052	0.29
414.412	0.28
414.772	0.28
415.132	0.27
415.492	0.26
415.851	0.25
416.211	0.24
416.571	0.24
416.931	0.23
417.29	0.22
417.65	0.22
418.009	0.21
418.369	0.2
418.728	0.21
419.088	0.2
419.447	0.19
419.807	0.19
420.166	0.2
420.525	0.19
420.884	0.18
421.244	0.18
421.603	0.18
421.962	0.17
422.321	0.17
422.68	0.16
423.039	0.16
423.398	0.16
423.757	0.16
424.116	0.17
424.475	0.16
424.834	0.16
425.193	0.15
425.551	0.14
425.91	0.15
426.269	0.15
426.628	0.15
426.986	0.14
427.345	0.14
427.703	0.14
428.062	0.14
428.42	0.13
428.779	0.14
429.137	0.14
429.496	0.13
429.854	0.12
430.212	0.13
430.57	0.13
430.929	0.13
431.287	0.13
431.645	0.13
432.003	0.12
432.361	0.12
432.719	0.12
433.077	0.13
433.435	0.11
433.793	0.12
434.151	0.11
434.509	0.1
434.866	0.11
435.224	0.12
435.582	0.11
435.94	0.11
436.297	0.11
436.655	0.11
437.012	0.12
437.37	0.11
437.727	0.11
438.085	0.11
438.442	0.11
438.8	0.1
439.157	0.1
439.514	0.11
439.872	0.1
440.229	0.11
440.586	0.11
440.943	0.1
441.3	0.1
441.657	0.1
442.014	0.1
442.371	0.1
442.728	0.11
443.085	0.1
443.442	0.1
443.799	0.1
444.156	0.09
444.513	0.09
444.869	0.09
445.226	0.09
445.583	0.09
445.939	0.09
446.296	0.09
446.652	0.09
447.009	0.09
447.365	0.08
447.722	0.09
448.078	0.09
448.434	0.08
448.791	0.09
449.147	0.08
449.503	0.08
449.859	0.08
450.215	0.09
450.571	0.08
450.928	0.08
451.284	0.08
451.64	0.07
451.995	0.07
452.351	0.07
452.707	0.07
453.063	0.07
453.419	0.07
453.775	0.07
454.13	0.07
454.486	0.07
454.842	0.06
455.197	0.06
455.553	0.05
455.908	0.07
456.264	0.06
456.619	0.05
456.975	0.06
457.33	0.05
457.685	0.05
458.04	0.05
458.396	0.05
458.751	0.05
459.106	0.05
459.461	0.04
459.816	0.05
460.171	0.03
460.526	0.04
460.881	0.03
461.236	0.02
461.591	0.03
461.946	0.02
462.301	0.03
462.655	0.03
463.01	0.03
463.365	0.03
463.719	0.02
464.074	0.02
464.428	0
464.783	0.01
465.137	0.01
465.492	0
465.846	0.01
466.201	0.01
466.555	0.01
466.909	0.01
467.263	0.02
467.618	0.02
467.972	0.01
468.326	0
468.68	0
469.034	0
469.388	0
469.742	0.01
470.096	0.01
470.45	0.01
470.804	0.01
471.157	0.01
471.511	0.01
471.865	0.01
472.218	0.02
472.572	0.02
472.926	0.02
473.279	0.02
473.633	0.03
473.986	0.04
474.34	0.03
474.693	0.04
475.046	0.05
475.4	0.05
475.753	0.05
476.106	0.05
476.459	0.06
476.812	0.07
477.165	0.07
477.519	0.07
477.872	0.08
478.224	0.08
478.577	0.08
478.93	0.1
479.283	0.09
479.636	0.09
479.989	0.1
480.341	0.1
480.694	0.1
481.047	0.11
481.399	0.11
481.752	0.11
482.104	0.12
482.457	0.12
482.809	0.12
483.162	0.12
483.514	0.12
483.866	0.13
484.219	0.13
484.571	0.13
484.923	0.14
485.275	0.14
485.627	0.14
485.979	0.14
486.331	0.15
486.683	0.15
487.035	0.15
487.387	0.16
487.739	0.16
488.091	0.16
488.443	0.15
488.794	0.16
489.146	0.16
489.498	0.16
489.849	0.16
490.201	0.17
490.552	0.17
490.904	0.17
491.255	0.17
491.607	0.18
491.958	0.18
492.309	0.18
492.661	0.18
493.012	0.19
493.363	0.19
493.714	0.19
494.065	0.19
494.416	0.19
494.767	0.19
495.118	0.2
495.469	0.2
495.82	0.2
496.171	0.2
496.522	0.21
496.872	0.21
497.223	0.22
497.574	0.22
497.924	0.22
498.275	0.23
498.626	0.22
498.976	0.22
499.327	0.23
499.677	0.23
500.027	0.24
500.378	0.24
500.728	0.24
501.078	0.24
501.428	0.24
501.779	0.25
502.129	0.25
502.479	0.26
502.829	0.26
503.179	0.26
503.529	0.26
503.879	0.26
504.229	0.26
504.578	0.27
504.928	0.27
505.278	0.28
505.628	0.28
505.977	0.28
506.327	0.28
506.676	0.29
507.026	0.29
507.375	0.29
507.725	0.29
508.074	0.29
508.424	0.3
508.773	0.3
509.122	0.31
509.471	0.31
509.82	0.31
510.17	0.31
510.519	0.31
510.868	0.32
511.217	0.32
511.566	0.33
511.915	0.33
512.263	0.33
512.612	0.34
512.961	0.33
513.31	0.34
513.659	0.34
514.007	0.34
514.356	0.35
514.704	0.35
515.053	0.35
515.401	0.35
515.75	0.36
516.098	0.36
516.447	0.37
516.795	0.37
517.143	0.37
517.491	0.37
517.839	0.37
518.188	0.38
518.536	0.38
518.884	0.38
519.232	0.38
519.58	0.39
519.928	0.39
520.275	0.39
520.623	0.4
520.971	0.4
521.319	0.4
521.666	0.4
522.014	0.4
522.362	0.41
522.709	0.42
523.057	0.42
523.404	0.42
523.752	0.42
524.099	0.42
524.446	0.43
524.794	0.43
525.141	0.44
525.488	0.44
525.835	0.45
526.182	0.44
526.529	0.45
526.876	0.45
527.223	0.45
527.57	0.45
527.917	0.46
528.264	0.46
528.611	0.46
528.958	0.47
529.304	0.47
529.651	0.47
529.998	0.47
530.344	0.48
530.691	0.48
531.037	0.48
531.384	0.49
531.73	0.49
532.076	0.49
532.423	0.49
532.769	0.49
533.115	0.5
533.461	0.51
533.807	0.51
534.154	0.51
534.5	0.51
534.846	0.52
535.192	0.52
535.537	0.53
535.883	0.53
536.229	0.54
536.575	0.54
536.921	0.54
537.266	0.54
537.612	0.55
537.957	0.55
538.303	0.55
538.649	0.56
538.994	0.56
539.339	0.57
539.685	0.57
540.03	0.57
540.375	0.58
540.721	0.58
541.066	0.58
541.411	0.59
541.756	0.59
542.101	0.6
542.446	0.6
542.791	0.61
543.136	0.61
543.481	0.61
543.825	0.61
544.17	0.62
544.515	0.63
544.86	0.63
545.204	0.63
545.549	0.64
545.893	0.64
546.238	0.65
546.582	0.65
546.927	0.65
547.271	0.66
547.615	0.66
547.96	0.67
548.304	0.67
548.648	0.67
548.992	0.68
549.336	0.68
549.68	0.68
550.024	0.69
550.368	0.69
550.712	0.69
551.056	0.7
551.4	0.7
551.743	0.7
552.087	0.71
552.431	0.71
552.774	0.71
553.118	0.71
553.462	0.72
553.805	0.72
554.148	0.73
554.492	0.72
554.835	0.73
555.178	0.73
555.522	0.74
555.865	0.74
556.208	0.74
556.551	0.74
556.894	0.75
557.237	0.75
557.58	0.75
557.923	0.75
558.266	0.74
558.609	0.75
558.952	0.76
559.294	0.76
559.637	0.76
559.98	0.76
560.322	0.77
560.665	0.76
561.007	0.77
561.35	0.77
561.692	0.78
562.034	0.78
562.377	0.78
562.719	0.79
563.061	0.78
563.403	0.78
563.745	0.78
564.088	0.78
564.43	0.79
564.772	0.79
565.113	0.78
565.455	0.79
565.797	0.78
566.139	0.79
566.481	0.79
566.822	0.8
567.164	0.8
567.506	0.8
567.847	0.8
568.189	0.8
568.53	0.8
568.872	0.8
569.213	0.8
569.554	0.81
569.895	0.8
570.237	0.81
570.578	0.8
570.919	0.81
571.26	0.81
571.601	0.82
571.942	0.81
572.283	0.81
572.624	0.81
572.965	0.81
573.306	0.81
573.646	0.81
573.987	0.81
574.328	0.81
574.668	0.81
575.009	0.82
575.349	0.81
575.69	0.81
576.03	0.81
576.37	0.81
576.711	0.8
577.051	0.81
577.391	0.82
577.731	0.82
578.072	0.82
578.412	0.82
578.752	0.81
579.092	0.82
579.431	0.82
579.771	0.81
580.111	0.8
580.451	0.8
580.791	0.81
581.13	0.82
581.47	0.82
581.81	0.83
582.149	0.82
582.489	0.83
582.828	0.83
583.167	0.82
583.507	0.8
583.846	0.77
584.185	0.79
584.525	0.81
584.864	0.82
585.203	0.84
585.542	0.85
585.881	0.85
586.22	0.85
586.559	0.85
586.898	0.85
587.236	0.85
587.575	0.84
587.914	0.85
588.252	0.86
588.591	0.87
588.93	0.87
589.268	0.87
589.607	0.87
589.945	0.88
590.283	0.88
590.622	0.88
590.96	0.89
591.298	0.89
591.636	0.9
591.974	0.9
592.313	0.91
592.651	0.91
592.989	0.91
593.326	0.91
593.664	0.92
594.002	0.92
594.34	0.92
594.678	0.93
595.015	0.93
595.353	0.93
595.691	0.93
596.028	0.93
596.366	0.94
596.703	0.95
597.04	0.95
597.378	0.96
597.715	0.96
598.052	0.96
598.389	0.96
598.726	0.96
599.064	0.98
599.401	0.97
599.738	0.98
600.074	0.98
600.411	0.98
600.748	0.98
601.085	0.98
601.422	0.98
601.758	0.98
602.095	0.98
602.432	0.98
602.768	0.98
603.105	0.98
603.441	0.98
603.777	0.98
604.114	0.99
604.45	0.99
604.786	0.99
605.122	0.99
605.459	0.99
605.795	0.99
606.131	0.98
606.467	0.99
606.803	0.99
607.139	0.99
607.474	0.98
607.81	0.98
608.146	0.98
608.482	0.98
608.817	0.97
609.153	0.97
609.488	0.97
609.824	0.97
610.159	0.96
610.495	0.96
610.83	0.96
611.165	0.96
611.5	0.96
611.836	0.95
612.171	0.95
612.506	0.96
612.841	0.95
613.176	0.95
613.511	0.95
613.845	0.94
614.18	0.94
614.515	0.93
614.85	0.94
615.184	0.93
615.519	0.93
615.854	0.93
616.188	0.92
616.523	0.92
616.857	0.92
617.191	0.92
617.526	0.91
617.86	0.91
618.194	0.9
618.528	0.91
618.862	0.9
619.196	0.9
619.53	0.9
619.864	0.89
620.198	0.89
620.532	0.89
620.866	0.88
621.2	0.88
621.533	0.88
621.867	0.88
622.201	0.88
622.534	0.87
622.868	0.86
623.201	0.86
623.534	0.87
623.868	0.86
624.201	0.85
624.534	0.85
624.868	0.85
625.201	0.85
625.534	0.85
625.867	0.84
626.2	0.84
626.533	0.83
626.865	0.83
627.198	0.82
627.531	0.83
627.864	0.82
628.196	0.81
628.529	0.81
628.862	0.8
629.194	0.81
629.527	0.8
629.859	0.79
630.191	0.79
630.524	0.78
630.856	0.78
631.188	0.78
631.52	0.77
631.852	0.77
632.184	0.76
632.516	0.76
632.848	0.75
633.18	0.74
633.512	0.74
633.844	0.73
634.175	0.72
634.507	0.72
634.839	0.72
635.17	0.71
635.502	0.71
635.833	0.7
636.165	0.69
636.496	0.7
636.827	0.69
637.159	0.68
637.49	0.68
637.821	0.67
638.152	0.66
638.483	0.66
638.814	0.66
639.145	0.66
639.476	0.65
639.807	0.64
640.137	0.64
640.468	0.63
640.799	0.62
641.129	0.62
641.46	0.61
641.791	0.61
642.121	0.61
642.451	0.6
642.782	0.59
643.112	0.59
643.442	0.59
643.773	0.58
644.103	0.58
644.433	0.58
644.763	0.57
645.093	0.57
645.423	0.57
645.753	0.56
646.082	0.56
646.412	0.56
646.742	0.56
647.072	0.55
647.401	0.56
647.731	0.55
648.06	0.56
648.39	0.55
648.719	0.54
649.048	0.54
649.378	0.54
649.707	0.54
650.036	0.54
650.365	0.54
650.694	0.53
651.023	0.53
651.352	0.53
651.681	0.53
652.01	0.53
652.339	0.53
652.668	0.53
652.996	0.52
653.325	0.52
653.654	0.52
653.982	0.52
654.311	0.52
654.639	0.52
654.967	0.52
655.296	0.52
655.624	0.52
655.952	0.52
656.28	0.52
656.609	0.51
656.937	0.52
657.265	0.53
657.593	0.51
657.92	0.36
658.248	0.29
658.576	0.27
658.904	0.36
659.231	0.46
659.559	0.5
659.887	0.5
660.214	0.51
660.542	0.51
660.869	0.51
661.196	0.51
661.524	0.51
661.851	0.51
662.178	0.51
662.505	0.51
662.832	0.5
663.159	0.5
663.486	0.5
663.813	0.5
664.14	0.5
664.467	0.5
664.794	0.5
665.12	0.5
665.447	0.5
665.774	0.5
666.1	0.5
666.427	0.49
666.753	0.49
667.079	0.49
667.406	0.49
667.732	0.49
668.058	0.49
668.384	0.49
668.71	0.49
669.036	0.48
669.362	0.48
669.688	0.48
670.014	0.48
670.34	0.48
670.666	0.47
670.991	0.47
671.317	0.47
671.643	0.46
671.968	0.47
672.294	0.46
672.619	0.46
672.945	0.46
673.27	0.46
673.595	0.45
673.92	0.46
674.246	0.45
674.571	0.45
674.896	0.44
675.221	0.44
675.546	0.44
675.87	0.43
676.195	0.43
676.52	0.43
676.845	0.43
677.169	0.42
677.494	0.42
677.819	0.41
678.143	0.41
678.468	0.41
678.792	0.41
679.116	0.4
679.44	0.4
679.765	0.4
680.089	0.4
680.413	0.39
680.737	0.38
681.061	0.38
681.385	0.38
681.709	0.37
682.033	0.37
682.356	0.36
682.68	0.36
683.004	0.36
683.327	0.35
683.651	0.35
683.974	0.35
684.298	0.34
684.621	0.34
684.944	0.34
685.268	0.34
685.591	0.33
685.914	0.33
686.237	0.33
686.56	0.32
686.883	0.32
687.206	0.31
687.529	0.31
687.852	0.31
688.175	0.3
688.497	0.3
688.82	0.3
689.142	0.29
689.465	0.29
689.787	0.29
690.11	0.28
690.432	0.28
690.755	0.28
691.077	0.27
691.399	0.27
691.721	0.27
692.043	0.26
692.365	0.26
692.687	0.26
693.009	0.26
693.331	0.25
693.653	0.25
693.974	0.25
694.296	0.24
694.618	0.24
694.939	0.24
695.261	0.24
695.582	0.24
695.904	0.23
696.225	0.23
696.546	0.23
696.868	0.23
697.189	0.22
697.51	0.22
697.831	0.22
698.152	0.22
698.473	0.22
698.794	0.21
699.114	0.21
699.435	0.2
699.756	0.2
700.077	0.2
700.397	0.2
700.718	0.2
701.038	0.2
701.359	0.2
701.679	0.19
701.999	0.2
702.32	0.2
702.64	0.19
702.96	0.2
703.28	0.19
703.6	0.19
703.92	0.19
704.24	0.19
704.56	0.18
704.879	0.18
705.199	0.18
705.519	0.18
705.838	0.18
706.158	0.18
706.478	0.18
706.797	0.18
707.116	0.18
707.436	0.18
707.755	0.18
708.074	0.18
708.393	0.18
708.712	0.18
709.031	0.17
709.35	0.17
709.669	0.16
709.988	0.17
710.307	0.16
710.626	0.16
710.944	0.17
711.263	0.16
711.582	0.16
711.9	0.16
712.219	0.16
712.537	0.16
712.855	0.16
713.174	0.16
713.492	0.16
713.81	0.16
714.128	0.16
714.446	0.16
714.764	0.16
715.082	0.16
715.4	0.16
715.718	0.16
716.035	0.16
716.353	0.16
716.671	0.16
716.988	0.16
717.306	0.16
717.623	0.16
717.941	0.17
718.258	0.17
718.575	0.17
718.893	0.17
719.21	0.17
719.527	0.17
719.844	0.17
720.161	0.17
720.478	0.17
720.795	0.17
721.112	0.17
721.428	0.17
721.745	0.17
722.062	0.17
722.378	0.18
722.695	0.18
723.011	0.18
723.328	0.18
723.644	0.18
723.96	0.18
724.276	0.18
724.593	0.18
724.909	0.18
725.225	0.18
725.541	0.18
725.857	0.18
726.173	0.18
726.488	0.18
726.804	0.18
727.12	0.18
727.435	0.19
727.751	0.18
728.067	0.19
728.382	0.19
728.697	0.19
729.013	0.19
729.328	0.18
729.643	0.19
729.958	0.19
730.273	0.19
730.588	0.19
730.903	0.19
731.218	0.19
731.533	0.19
731.848	0.19
732.163	0.19
732.477	0.19
732.792	0.19
733.107	0.18
733.421	0.19
733.736	0.19
734.05	0.19
734.364	0.19
734.678	0.19
734.993	0.19
735.307	0.19
735.621	0.18
735.935	0.19
736.249	0.18
736.563	0.18
736.877	0.18
737.19	0.19
737.504	0.18
737.818	0.18
738.131	0.18
738.445	0.18
738.758	0.18
739.072	0.18
739.385	0.18
739.698	0.17
740.012	0.18
740.325	0.17
740.638	0.17
740.951	0.17
741.264	0.17
741.577	0.17
741.89	0.17
742.203	0.17
742.515	0.17
742.828	0.18
743.141	0.17
743.453	0.17
743.766	0.17
744.078	0.17
744.391	0.17
744.703	0.17
745.015	0.16
745.327	0.16
745.639	0.16
745.952	0.16
746.264	0.15
746.575	0.15
746.887	0.15
747.199	0.15
747.511	0.15
747.823	0.15
748.134	0.14
748.446	0.14
748.757	0.14
749.069	0.14
749.38	0.14
749.692	0.14
750.003	0.13
750.314	0.13
750.625	0.14
750.936	0.13
751.248	0.13
751.559	0.13
751.869	0.13
752.18	0.12
752.491	0.12
752.802	0.12
753.112	0.12
753.423	0.12
753.734	0.12
754.044	0.12
754.355	0.12
754.665	0.11
754.975	0.11
755.285	0.11
755.596	0.1
755.906	0.1
756.216	0.1
756.526	0.1
756.836	0.1
757.146	0.1
757.455	0.1
757.765	0.1
758.075	0.1
758.385	0.1
758.694	0.09
759.004	0.09
759.313	0.09
759.622	0.09
759.932	0.09
760.241	0.09
760.55	0.09
760.859	0.09
761.168	0.09
761.477	0.08
761.786	0.08
762.095	0.08
762.404	0.08
762.713	0.08
763.021	0.08
763.33	0.08
763.639	0.07
763.947	0.07
764.256	0.07
764.564	0.07
764.872	0.07
765.181	0.07
765.489	0.07
765.797	0.07
766.105	0.06
766.413	0.06
766.721	0.06
767.029	0.06
767.337	0.07
767.644	0.07
767.952	0.06
768.26	0.06
768.567	0.06
768.875	0.06
769.182	0.06
769.49	0.06
769.797	0.06
770.104	0.05
770.411	0.05
770.718	0.05
771.026	0.05
771.333	0.05
771.639	0.05
771.946	0.05
772.253	0.05
772.56	0.06
772.867	0.05
773.173	0.05
773.48	0.05
773.786	0.05
774.093	0.05
774.399	0.05
774.705	0.05
775.012	0.05
775.318	0.05
775.624	0.05
775.93	0.05
776.236	0.05
776.542	0.05
776.848	0.05
777.154	0.05
777.459	0.05
777.765	0.05
778.071	0.05
778.376	0.05
778.682	0.05
778.987	0.04
779.292	0.04
779.598	0.05
779.903	0.04
780.208	0.05
780.513	0.05
780.818	0.04
781.123	0.04
781.428	0.05
781.733	0.05
782.038	0.04
782.343	0.05
782.647	0.05
782.952	0.05
783.256	0.05
783.561	0.05
783.865	0.05
784.17	0.05
784.474	0.05
784.778	0.05
785.082	0.04
785.386	0.05
785.69	0.05
785.994	0.05
786.298	0.05
786.602	0.05
786.906	0.04
787.209	0.04
787.513	0.05
787.817	0.04
788.12	0.04
788.424	0.04
788.727	0.05
789.03	0.05
789.333	0.04
789.637	0.05
789.94	0.05
790.243	0.05
790.546	0.05
790.849	0.05
791.152	0.04
791.454	0.04
791.757	0.05
792.06	0.05
792.362	0.05
792.665	0.04
792.967	0.04
793.27	0.04
793.572	0.04
793.874	0.04
794.177	0.04
794.479	0.04
794.781	0.04
795.083	0.04
795.385	0.04
795.687	0.05
795.989	0.05
796.29	0.04
796.592	0.05
796.894	0.04
797.195	0.04
797.497	0.04
797.798	0.04
798.1	0.04
798.401	0.04
798.702	0.04
799.003	0.04
799.304	0.04
799.605	0.04
799.906	0.04
800.207	0.04
800.508	0.05
800.809	0.04
801.11	0.05
801.41	0.04
801.711	0.05
802.011	0.05
802.312	0.05
802.612	0.05
802.913	0.05
803.213	0.05
803.513	0.05
803.813	0.05
804.113	0.05
804.413	0.05
804.713	0.06
805.013	0.06
805.313	0.06
805.613	0.05
805.912	0.05
806.212	0.06
806.511	0.05
806.811	0.05
807.11	0.05
807.41	0.05
807.709	0.05
808.008	0.05
808.307	0.05
808.606	0.05
808.905	0.04
809.204	0.05
809.503	0.05
809.802	0.05
810.101	0.05
810.399	0.04
810.698	0.04
810.997	0.04
811.295	0.04
811.593	0.04
811.892	0.04
812.19	0.04
812.488	0.05
812.786	0.05
813.084	0.04
813.383	0.04
813.68	0.04
813.978	0.04
814.276	0.04
814.574	0.04
814.872	0.04
815.169	0.04
815.467	0.04
815.764	0.04
816.062	0.04
816.359	0.04
816.656	0.04
816.954	0.04
817.251	0.04
817.548	0.04
817.845	0.04
818.142	0.04
818.439	0.04
818.735	0.05
819.032	0.04
819.329	0.04
819.626	0.04
819.922	0.04
820.219	0.04
820.515	0.05
820.811	0.04
821.108	0.04
821.404	0.04
821.7	0.04
821.996	0.04
822.292	0.04
822.588	0.04
822.884	0.04
823.18	0.04
823.475	0.04
823.771	0.04
824.067	0.04
824.362	0.05
824.658	0.05
824.953	0.05
825.249	0.05
825.544	0.06
825.839	0.05
826.134	0.05
826.429	0.05
826.724	0.05
827.019	0.04
827.314	0.04
827.609	0.04
827.904	0.05
828.198	0.04
828.493	0.04
828.787	0.04
829.082	0.04
829.376	0.05
829.671	0.04
829.965	0.05
830.259	0.04
830.553	0.04
830.847	0.05
831.141	0.04
831.435	0.04
831.729	0.04
832.023	0.05
832.317	0.05
832.61	0.05
832.904	0.04
833.197	0.05
833.491	0.05
833.784	0.05
834.077	0.05
834.371	0.05
834.664	0.05
834.957	0.05
835.25	0.05
835.543	0.04
835.836	0.05
836.129	0.05
836.421	0.05
836.714	0.05
837.007	0.05
837.299	0.06
837.592	0.06
837.884	0.05
838.177	0.06
838.469	0.05
838.761	0.05
839.053	0.05
839.345	0.05
839.637	0.06
839.929	0.05
840.221	0.06
840.513	0.05
840.805	0.05
841.096	0.05
841.388	0.04
841.68	0.05
841.971	0.05
842.262	0.05
842.554	0.05
842.845	0.05
843.136	0.04
843.427	0.05
843.718	0.05
844.009	0.04
844.3	0.05
844.591	0.05
844.882	0.04
845.173	0.05
845.463	0.04
845.754	0.06
846.044	0.04
846.335	0.04
846.625	0.05
846.915	0.05
847.206	0.06
847.496	0.05
847.786	0.05
848.076	0.05
848.366	0.05
848.656	0.06
848.945	0.06
849.235	0.06
849.525	0.05
849.814	0.06
850.104	0.06
850.393	0.06
850.683	0.05
850.972	0.06
851.261	0.05
851.551	0.06
851.84	0.06
852.129	0.04
852.418	0.04
852.707	0.04
852.995	0.05
853.284	0.05
853.573	0.04
853.862	0.05
854.15	0.04
854.439	0.06
854.727	0.05
855.015	0.05
855.304	0.04
855.592	0.05
855.88	0.06
856.168	0.05
856.456	0.05
856.744	0.05
857.032	0.06
857.32	0.05
857.607	0.05
857.895	0.05
858.183	0.08
858.47	0.05
858.757	0.04
859.045	0.06
859.332	0.05
859.619	0.05
859.907	0.05
860.194	0.05
860.481	0.04
860.768	0.05
861.054	0.06
861.341	0.05
861.628	0.07
861.915	0.06
862.201	0.05
862.488	0.05
862.774	0.05
863.061	0.04
863.347	0.04
863.633	0.06
863.919	0.05
864.205	0.06
864.491	0.06
864.777	0.05
865.063	0.05
865.349	0.05
865.635	0.03
865.92	0.04
866.206	0.03
866.492	0.07
866.777	0.05
867.062	0.03
867.348	0.04
867.633	0.04
867.918	0.01
868.203	0.04
868.488	0.05
868.773	0.07
869.058	0.05
869.343	0.04
869.628	0.06
869.912	0.07
870.197	0.03
870.482	0.05
870.766	0.05
871.05	0.07
871.335	0.04
871.619	0.08
871.903	0.12
872.187	0.05
872.471	-0
872.755	0.05
873.039	0.08
873.323	0.06
873.607	0.02
873.89	0.05
874.174	0.05
874.458	0.07
874.741	0.05
875.024	0.03
875.308	0.02
875.591	-0.01
875.874	0.02
876.157	0.05
876.44	0.03
876.723	0.08
877.006	0.06
877.289	0.18
877.572	0.06
877.854	0.05
878.137	0.08
878.42	0.07
878.702	0.12
878.984	-0.02
879.267	0.09
879.549	0.12
879.831	0.07
880.113	0.08
880.395	0.03
880.677	0.11
880.959	-0.05
