Data from Rubpy_BV_EDTA_LV_UV_StopFlow_Absorbance__12__15-34-15-180.txt Node

Date: Mon Jul 13 15:34:15 BST 2026
User: fpm-admin
Spectrometer: SR600986
Trigger mode: 0
Integration Time (sec): 1.800000E-2
Scans to average: 3
Nonlinearity correction enabled: true
Boxcar width: 0
Storing dark spectrum: false
XAxis mode: Wavelengths
Number of Pixels in Spectrum: 2048
>>>>>Begin Spectral Data<<<<<
188.613	0.04
189.078	0.08
189.542	0.03
190.007	0.08
190.472	0.07
190.936	0.07
191.401	0.07
191.865	0.06
192.33	0.06
192.794	0.03
193.258	0.04
193.723	0.07
194.187	0.06
194.651	0.05
195.115	0.06
195.579	0.06
196.043	0.06
196.507	0.06
196.971	0.05
197.435	0.05
197.899	0.04
198.363	0.07
198.827	0.07
199.29	0.04
199.754	0.05
200.218	0.05
200.681	0.06
201.145	0.04
201.608	0.06
202.072	0.06
202.535	0.05
202.998	0.06
203.462	0.06
203.925	0.05
204.388	0.04
204.851	0.07
205.314	0.06
205.777	0.06
206.24	0.04
206.703	0.07
207.166	0.04
207.629	0.06
208.092	0.05
208.555	0.04
209.018	0.07
209.48	0.05
209.943	0.06
210.406	0.05
210.868	0.05
211.331	0.05
211.793	0.07
212.256	0.06
212.718	0.07
213.18	0.05
213.643	0.05
214.105	0.05
214.567	0.06
215.029	0.08
215.491	0.05
215.953	0.06
216.415	0.05
216.877	0.08
217.339	0.05
217.801	0.05
218.263	0.05
218.725	0.05
219.186	0.05
219.648	0.05
220.11	0.05
220.571	0.04
221.033	0.05
221.494	0.03
221.956	0.05
222.417	0.05
222.878	0.06
223.34	0.05
223.801	0.06
224.262	0.05
224.723	0.05
225.185	0.05
225.646	0.05
226.107	0.07
226.568	0.07
227.029	0.04
227.489	0.05
227.95	0.08
228.411	0.05
228.872	0.05
229.332	0.08
229.793	0.04
230.254	0.06
230.714	0.05
231.175	0.06
231.635	0.04
232.096	0.06
232.556	0.07
233.016	0.04
233.477	0.05
233.937	0.07
234.397	0.06
234.857	0.04
235.317	0.07
235.777	0.06
236.237	0.03
236.697	0.06
237.157	0.05
237.617	0.03
238.077	0.06
238.537	0.06
238.996	0.06
239.456	0.05
239.916	0.06
240.375	0.05
240.835	0.07
241.294	0.04
241.754	0.04
242.213	0.05
242.672	0.04
243.132	0.06
243.591	0.07
244.05	0.04
244.509	0.04
244.968	0.04
245.427	0.06
245.886	0.05
246.345	0.07
246.804	0.06
247.263	0.06
247.722	0.04
248.181	0.05
248.639	0.05
249.098	0.05
249.557	0.06
250.015	0.07
250.474	0.07
250.932	0.07
251.391	0.08
251.849	0.04
252.308	0.05
252.766	0.05
253.224	0.07
253.682	0.06
254.14	0.05
254.599	0.07
255.057	0.03
255.515	0.01
255.973	0.05
256.431	0.05
256.888	0.05
257.346	0.06
257.804	0.06
258.262	0.05
258.719	0.05
259.177	0.04
259.635	0.05
260.092	0.05
260.55	0.05
261.007	0.08
261.465	0.06
261.922	0.08
262.379	0.06
262.836	0.07
263.294	0.05
263.751	0.05
264.208	0.03
264.665	0.06
265.122	0.08
265.579	0.04
266.036	0.04
266.493	0.05
266.95	0.06
267.406	0.06
267.863	0.05
268.32	0.05
268.777	0.04
269.233	0.06
269.69	0.07
270.146	0.06
270.603	0.06
271.059	0.04
271.515	0.04
271.972	0.02
272.428	0.07
272.884	0.07
273.34	0.05
273.796	0.05
274.253	0.04
274.709	0.06
275.165	0.04
275.62	0.08
276.076	0.05
276.532	0.06
276.988	0.05
277.444	0.07
277.899	0.06
278.355	0.05
278.811	0.04
279.266	0.09
279.722	0.05
280.177	0.05
280.633	0.05
281.088	0.05
281.543	0.06
281.998	0.04
282.454	0.04
282.909	0.07
283.364	0.07
283.819	0.06
284.274	0.06
284.729	0.05
285.184	0.07
285.639	0.07
286.094	0.07
286.548	0.06
287.003	0.05
287.458	0.05
287.913	0.04
288.367	0.07
288.822	0.07
289.276	0.04
289.731	0.05
290.185	0.03
290.639	0.07
291.094	0.05
291.548	0.08
292.002	0.05
292.456	0.07
292.91	0.03
293.365	0.05
293.819	0.05
294.273	0.05
294.726	0.03
295.18	0.08
295.634	0.04
296.088	0.04
296.542	0.08
296.995	0.06
297.449	0.05
297.903	0.07
298.356	0.06
298.81	0.07
299.263	0.06
299.716	0.07
300.17	0.09
300.623	0.06
301.076	0.05
301.53	0.05
301.983	0.05
302.436	0.06
302.889	0.04
303.342	0.07
303.795	0.05
304.248	0.04
304.701	0.07
305.153	0.06
305.606	0.05
306.059	0.08
306.512	0.07
306.964	0.06
307.417	0.07
307.869	0.07
308.322	0.07
308.774	0.06
309.227	0.07
309.679	0.06
310.131	0.07
310.584	0.08
311.036	0.07
311.488	0.04
311.94	0.08
312.392	0.08
312.844	0.07
313.296	0.07
313.748	0.05
314.2	0.06
314.652	0.07
315.103	0.07
315.555	0.07
316.007	0.09
316.458	0.08
316.91	0.07
317.361	0.08
317.813	0.07
318.264	0.07
318.716	0.07
319.167	0.09
319.618	0.08
320.07	0.07
320.521	0.07
320.972	0.09
321.423	0.09
321.874	0.08
322.325	0.08
322.776	0.09
323.227	0.08
323.678	0.1
324.128	0.1
324.579	0.1
325.03	0.09
325.48	0.1
325.931	0.11
326.382	0.11
326.832	0.11
327.283	0.11
327.733	0.12
328.183	0.11
328.634	0.11
329.084	0.12
329.534	0.12
329.984	0.12
330.434	0.13
330.884	0.12
331.334	0.13
331.784	0.13
332.234	0.14
332.684	0.14
333.134	0.14
333.584	0.15
334.034	0.15
334.483	0.16
334.933	0.16
335.382	0.16
335.832	0.16
336.281	0.17
336.731	0.16
337.18	0.17
337.63	0.17
338.079	0.17
338.528	0.18
338.977	0.18
339.426	0.19
339.876	0.19
340.325	0.19
340.774	0.19
341.223	0.2
341.671	0.2
342.12	0.21
342.569	0.21
343.018	0.21
343.467	0.22
343.915	0.22
344.364	0.22
344.812	0.22
345.261	0.23
345.709	0.23
346.158	0.24
346.606	0.24
347.054	0.24
347.503	0.25
347.951	0.25
348.399	0.25
348.847	0.26
349.295	0.26
349.743	0.26
350.191	0.26
350.639	0.27
351.087	0.27
351.535	0.27
351.983	0.28
352.43	0.28
352.878	0.29
353.326	0.29
353.773	0.29
354.221	0.3
354.668	0.3
355.116	0.31
355.563	0.31
356.01	0.31
356.458	0.32
356.905	0.33
357.352	0.33
357.799	0.33
358.246	0.34
358.693	0.35
359.14	0.35
359.587	0.35
360.034	0.36
360.481	0.36
360.928	0.36
361.375	0.37
361.821	0.38
362.268	0.38
362.714	0.38
363.161	0.39
363.608	0.4
364.054	0.4
364.5	0.41
364.947	0.4
365.393	0.41
365.839	0.42
366.285	0.42
366.732	0.42
367.178	0.42
367.624	0.43
368.07	0.42
368.516	0.43
368.962	0.43
369.408	0.43
369.853	0.43
370.299	0.43
370.745	0.43
371.19	0.42
371.636	0.43
372.082	0.42
372.527	0.42
372.973	0.41
373.418	0.41
373.863	0.41
374.309	0.4
374.754	0.4
375.199	0.39
375.644	0.39
376.09	0.38
376.535	0.37
376.98	0.36
377.425	0.36
377.87	0.36
378.314	0.35
378.759	0.34
379.204	0.34
379.649	0.33
380.093	0.32
380.538	0.31
380.983	0.31
381.427	0.3
381.872	0.29
382.316	0.29
382.76	0.29
383.205	0.28
383.649	0.27
384.093	0.27
384.537	0.27
384.982	0.27
385.426	0.26
385.87	0.25
386.314	0.25
386.758	0.25
387.201	0.25
387.645	0.24
388.089	0.24
388.533	0.23
388.976	0.23
389.42	0.22
389.864	0.22
390.307	0.21
390.751	0.21
391.194	0.21
391.638	0.21
392.081	0.2
392.524	0.2
392.967	0.2
393.411	0.2
393.854	0.2
394.297	0.2
394.74	0.2
395.183	0.2
395.626	0.2
396.069	0.2
396.512	0.21
396.954	0.21
397.397	0.21
397.84	0.22
398.282	0.22
398.725	0.22
399.168	0.22
399.61	0.22
400.052	0.21
400.495	0.22
400.937	0.22
401.38	0.21
401.822	0.2
402.264	0.2
402.706	0.2
403.148	0.18
403.59	0.18
404.032	0.17
404.474	0.16
404.916	0.16
405.358	0.14
405.8	0.14
406.241	0.14
406.683	0.13
407.125	0.12
407.566	0.12
408.008	0.11
408.449	0.1
408.891	0.1
409.332	0.09
409.774	0.09
410.215	0.09
410.656	0.08
411.097	0.08
411.539	0.07
411.98	0.07
412.421	0.07
412.862	0.06
413.303	0.06
413.744	0.07
414.184	0.06
414.625	0.05
415.066	0.06
415.507	0.05
415.947	0.05
416.388	0.06
416.828	0.05
417.269	0.04
417.709	0.05
418.15	0.05
418.59	0.04
419.03	0.05
419.471	0.04
419.911	0.04
420.351	0.04
420.791	0.05
421.231	0.04
421.671	0.04
422.111	0.04
422.551	0.04
422.991	0.04
423.431	0.04
423.87	0.05
424.31	0.04
424.75	0.04
425.189	0.03
425.629	0.03
426.068	0.05
426.508	0.04
426.947	0.03
427.386	0.03
427.826	0.04
428.265	0.04
428.704	0.03
429.143	0.04
429.582	0.03
430.021	0.03
430.46	0.05
430.899	0.03
431.338	0.04
431.777	0.03
432.216	0.04
432.655	0.04
433.093	0.04
433.532	0.03
433.971	0.04
434.409	0.05
434.848	0.03
435.286	0.04
435.724	0.04
436.163	0.03
436.601	0.03
437.039	0.04
437.477	0.03
437.916	0.03
438.354	0.04
438.792	0.04
439.23	0.04
439.668	0.03
440.105	0.03
440.543	0.04
440.981	0.04
441.419	0.04
441.856	0.04
442.294	0.03
442.732	0.03
443.169	0.05
443.607	0.05
444.044	0.04
444.481	0.03
444.919	0.04
445.356	0.04
445.793	0.04
446.23	0.04
446.668	0.04
447.105	0.04
447.542	0.04
447.979	0.05
448.416	0.05
448.852	0.04
449.289	0.04
449.726	0.04
450.163	0.03
450.599	0.05
451.036	0.04
451.473	0.04
451.909	0.04
452.346	0.04
452.782	0.05
453.218	0.04
453.655	0.05
454.091	0.04
454.527	0.05
454.963	0.05
455.399	0.03
455.835	0.06
456.271	0.05
456.707	0.05
457.143	0.06
457.579	0.05
458.015	0.05
458.451	0.06
458.886	0.05
459.322	0.05
459.758	0.04
460.193	0.04
460.629	0.06
461.064	0.05
461.5	0.06
461.935	0.06
462.37	0.05
462.805	0.06
463.241	0.06
463.676	0.05
464.111	0.07
464.546	0.05
464.981	0.06
465.416	0.05
465.851	0.06
466.286	0.06
466.72	0.07
467.155	0.07
467.59	0.06
468.024	0.06
468.459	0.06
468.893	0.07
469.328	0.07
469.762	0.07
470.197	0.07
470.631	0.08
471.065	0.07
471.5	0.07
471.934	0.07
472.368	0.07
472.802	0.08
473.236	0.08
473.67	0.08
474.104	0.08
474.538	0.08
474.972	0.08
475.405	0.08
475.839	0.08
476.273	0.08
476.706	0.08
477.14	0.08
477.573	0.09
478.007	0.09
478.44	0.08
478.874	0.09
479.307	0.1
479.74	0.09
480.173	0.09
480.606	0.1
481.04	0.1
481.473	0.1
481.906	0.09
482.339	0.1
482.771	0.1
483.204	0.11
483.637	0.1
484.07	0.1
484.502	0.1
484.935	0.1
485.368	0.1
485.8	0.11
486.233	0.1
486.665	0.11
487.098	0.11
487.53	0.11
487.962	0.11
488.394	0.11
488.827	0.11
489.259	0.11
489.691	0.11
490.123	0.11
490.555	0.11
490.987	0.11
491.418	0.11
491.85	0.12
492.282	0.12
492.714	0.12
493.145	0.12
493.577	0.13
494.009	0.12
494.44	0.12
494.872	0.13
495.303	0.13
495.734	0.12
496.166	0.13
496.597	0.13
497.028	0.13
497.459	0.13
497.89	0.13
498.321	0.13
498.752	0.13
499.183	0.13
499.614	0.14
500.045	0.13
500.476	0.13
500.906	0.14
501.337	0.14
501.768	0.14
502.198	0.14
502.629	0.14
503.059	0.14
503.49	0.14
503.92	0.14
504.35	0.14
504.781	0.15
505.211	0.15
505.641	0.15
506.071	0.15
506.501	0.15
506.931	0.15
507.361	0.15
507.791	0.15
508.221	0.15
508.651	0.16
509.081	0.15
509.51	0.16
509.94	0.15
510.37	0.16
510.799	0.16
511.229	0.16
511.658	0.16
512.087	0.16
512.517	0.16
512.946	0.17
513.375	0.16
513.804	0.16
514.234	0.16
514.663	0.17
515.092	0.17
515.521	0.17
515.95	0.17
516.378	0.17
516.807	0.17
517.236	0.17
517.665	0.17
518.093	0.17
518.522	0.17
518.951	0.17
519.379	0.17
519.807	0.18
520.236	0.18
520.664	0.17
521.093	0.18
521.521	0.18
521.949	0.18
522.377	0.18
522.805	0.18
523.233	0.18
523.661	0.18
524.089	0.18
524.517	0.18
524.945	0.18
525.373	0.18
525.8	0.18
526.228	0.18
526.656	0.18
527.083	0.18
527.511	0.19
527.938	0.19
528.366	0.19
528.793	0.19
529.22	0.19
529.648	0.19
530.075	0.19
530.502	0.19
530.929	0.19
531.356	0.19
531.783	0.19
532.21	0.19
532.637	0.19
533.064	0.19
533.49	0.19
533.917	0.19
534.344	0.19
534.771	0.19
535.197	0.19
535.624	0.19
536.05	0.19
536.477	0.19
536.903	0.19
537.329	0.19
537.755	0.19
538.182	0.19
538.608	0.19
539.034	0.19
539.46	0.19
539.886	0.19
540.312	0.19
540.738	0.19
541.164	0.19
541.589	0.19
542.015	0.19
542.441	0.19
542.867	0.19
543.292	0.2
543.718	0.19
544.143	0.19
544.569	0.2
544.994	0.19
545.419	0.19
545.845	0.19
546.27	0.19
546.695	0.19
547.12	0.19
547.545	0.19
547.97	0.19
548.395	0.19
548.82	0.19
549.245	0.19
549.67	0.19
550.094	0.19
550.519	0.19
550.944	0.19
551.368	0.19
551.793	0.19
552.217	0.19
552.642	0.19
553.066	0.19
553.49	0.19
553.915	0.19
554.339	0.19
554.763	0.19
555.187	0.19
555.611	0.19
556.035	0.19
556.459	0.19
556.883	0.19
557.307	0.19
557.731	0.19
558.154	0.19
558.578	0.19
559.002	0.19
559.425	0.19
559.849	0.19
560.272	0.19
560.696	0.18
561.119	0.18
561.543	0.18
561.966	0.18
562.389	0.18
562.812	0.18
563.235	0.18
563.658	0.18
564.081	0.18
564.504	0.18
564.927	0.18
565.35	0.18
565.773	0.18
566.196	0.18
566.618	0.18
567.041	0.18
567.463	0.18
567.886	0.18
568.309	0.18
568.731	0.18
569.153	0.18
569.576	0.18
569.998	0.17
570.42	0.18
570.842	0.18
571.264	0.17
571.686	0.17
572.108	0.18
572.53	0.17
572.952	0.17
573.374	0.17
573.796	0.17
574.218	0.17
574.639	0.17
575.061	0.17
575.483	0.17
575.904	0.17
576.326	0.17
576.747	0.17
577.168	0.17
577.59	0.17
578.011	0.17
578.432	0.17
578.853	0.17
579.274	0.17
579.695	0.17
580.116	0.17
580.537	0.17
580.958	0.17
581.379	0.16
581.8	0.16
582.221	0.16
582.641	0.16
583.062	0.16
583.482	0.16
583.903	0.16
584.323	0.16
584.744	0.16
585.164	0.16
585.584	0.16
586.005	0.16
586.425	0.16
586.845	0.16
587.265	0.16
587.685	0.16
588.105	0.16
588.525	0.16
588.945	0.16
589.365	0.16
589.785	0.16
590.204	0.15
590.624	0.16
591.044	0.16
591.463	0.16
591.883	0.16
592.302	0.16
592.721	0.15
593.141	0.15
593.56	0.15
593.979	0.15
594.399	0.15
594.818	0.15
595.237	0.15
595.656	0.15
596.075	0.15
596.494	0.15
596.913	0.15
597.331	0.15
597.75	0.15
598.169	0.15
598.587	0.15
599.006	0.15
599.425	0.15
599.843	0.15
600.262	0.15
600.68	0.15
601.098	0.15
601.517	0.15
601.935	0.15
602.353	0.14
602.771	0.15
603.189	0.15
603.607	0.14
604.025	0.15
604.443	0.14
604.861	0.14
605.279	0.14
605.696	0.14
606.114	0.14
606.532	0.14
606.949	0.14
607.367	0.14
607.784	0.14
608.202	0.14
608.619	0.14
609.036	0.14
609.454	0.14
609.871	0.14
610.288	0.14
610.705	0.13
611.122	0.13
611.539	0.13
611.956	0.13
612.373	0.13
612.79	0.13
613.207	0.13
613.623	0.13
614.04	0.13
614.457	0.13
614.873	0.13
615.29	0.13
615.706	0.13
616.122	0.13
616.539	0.13
616.955	0.13
617.371	0.13
617.788	0.12
618.204	0.12
618.62	0.12
619.036	0.12
619.452	0.12
619.868	0.12
620.284	0.12
620.699	0.12
621.115	0.12
621.531	0.12
621.946	0.12
622.362	0.12
622.778	0.12
623.193	0.12
623.608	0.12
624.024	0.12
624.439	0.12
624.854	0.12
625.27	0.12
625.685	0.12
626.1	0.11
626.515	0.11
626.93	0.11
627.345	0.11
627.76	0.11
628.175	0.11
628.589	0.11
629.004	0.11
629.419	0.11
629.833	0.11
630.248	0.11
630.663	0.1
631.077	0.1
631.491	0.1
631.906	0.1
632.32	0.1
632.734	0.1
633.148	0.1
633.563	0.1
633.977	0.1
634.391	0.1
634.805	0.1
635.219	0.1
635.632	0.1
636.046	0.09
636.46	0.1
636.874	0.09
637.287	0.09
637.701	0.09
638.115	0.09
638.528	0.09
638.941	0.09
639.355	0.09
639.768	0.09
640.181	0.09
640.595	0.09
641.008	0.09
641.421	0.09
641.834	0.09
642.247	0.09
642.66	0.08
643.073	0.08
643.486	0.09
643.898	0.09
644.311	0.08
644.724	0.08
645.136	0.08
645.549	0.08
645.961	0.08
646.374	0.08
646.786	0.08
647.199	0.08
647.611	0.08
648.023	0.08
648.435	0.08
648.847	0.08
649.26	0.08
649.672	0.08
650.084	0.08
650.495	0.08
650.907	0.08
651.319	0.08
651.731	0.07
652.143	0.08
652.554	0.07
652.966	0.07
653.377	0.07
653.789	0.07
654.2	0.08
654.612	0.08
655.023	0.05
655.434	0.04
655.845	0.07
656.256	0.08
656.668	0.07
657.079	0.07
657.49	0.07
657.901	0.07
658.311	0.07
658.722	0.07
659.133	0.07
659.544	0.07
659.954	0.07
660.365	0.07
660.775	0.07
661.186	0.07
661.596	0.06
662.007	0.06
662.417	0.06
662.827	0.07
663.238	0.06
663.648	0.06
664.058	0.06
664.468	0.06
664.878	0.06
665.288	0.06
665.698	0.06
666.108	0.06
666.517	0.06
666.927	0.06
667.337	0.06
667.746	0.06
668.156	0.06
668.565	0.06
668.975	0.06
669.384	0.06
669.794	0.06
670.203	0.06
670.612	0.06
671.021	0.05
671.43	0.05
671.84	0.05
672.249	0.05
672.658	0.05
673.066	0.05
673.475	0.05
673.884	0.05
674.293	0.05
674.702	0.05
675.11	0.05
675.519	0.06
675.927	0.05
676.336	0.05
676.744	0.05
677.152	0.05
677.561	0.05
677.969	0.05
678.377	0.05
678.785	0.05
679.193	0.05
679.601	0.05
680.009	0.05
680.417	0.04
680.825	0.05
681.233	0.05
681.641	0.04
682.048	0.04
682.456	0.04
682.864	0.04
683.271	0.04
683.679	0.04
684.086	0.04
684.493	0.04
684.901	0.04
685.308	0.03
685.715	0.04
686.122	0.04
686.529	0.04
686.936	0.04
687.343	0.04
687.75	0.04
688.157	0.04
688.564	0.04
688.971	0.03
689.378	0.04
689.784	0.03
690.191	0.03
690.597	0.04
691.004	0.03
691.41	0.03
691.817	0.03
692.223	0.03
692.629	0.03
693.035	0.03
693.442	0.03
693.848	0.03
694.254	0.03
694.66	0.03
695.066	0.03
695.471	0.03
695.877	0.03
696.283	0.03
696.689	0.03
697.094	0.03
697.5	0.03
697.906	0.03
698.311	0.03
698.716	0.03
699.122	0.03
699.527	0.03
699.932	0.03
700.338	0.03
700.743	0.03
701.148	0.03
701.553	0.03
701.958	0.03
702.363	0.03
702.768	0.03
703.173	0.03
703.577	0.02
703.982	0.03
704.387	0.03
704.791	0.03
705.196	0.02
705.6	0.03
706.005	0.03
706.409	0.03
706.814	0.03
707.218	0.03
707.622	0.03
708.026	0.03
708.43	0.03
708.834	0.03
709.238	0.03
709.642	0.02
710.046	0.03
710.45	0.03
710.854	0.02
711.257	0.03
711.661	0.02
712.065	0.02
712.468	0.03
712.872	0.02
713.275	0.02
713.679	0.03
714.082	0.03
714.485	0.02
714.888	0.03
715.291	0.02
715.695	0.02
716.098	0.02
716.501	0.02
716.904	0.02
717.306	0.02
717.709	0.02
718.112	0.02
718.515	0.02
718.917	0.03
719.32	0.02
719.723	0.03
720.125	0.02
720.527	0.03
720.93	0.02
721.332	0.02
721.734	0.02
722.137	0.02
722.539	0.02
722.941	0.02
723.343	0.03
723.745	0.02
724.147	0.02
724.549	0.02
724.95	0.03
725.352	0.02
725.754	0.03
726.156	0.03
726.557	0.02
726.959	0.02
727.36	0.02
727.762	0.02
728.163	0.02
728.564	0.02
728.966	0.02
729.367	0.02
729.768	0.03
730.169	0.03
730.57	0.02
730.971	0.02
731.372	0.02
731.773	0.02
732.174	0.02
732.574	0.02
732.975	0.02
733.376	0.02
733.776	0.02
734.177	0.02
734.577	0.02
734.978	0.02
735.378	0.02
735.778	0.02
736.179	0.02
736.579	0.02
736.979	0.02
737.379	0.02
737.779	0.02
738.179	0.02
738.579	0.02
738.979	0.02
739.379	0.02
739.778	0.02
740.178	0.02
740.578	0.02
740.977	0.02
741.377	0.02
741.776	0.02
742.176	0.02
742.575	0.02
742.974	0.02
743.374	0.02
743.773	0.02
744.172	0.02
744.571	0.02
744.97	0.02
745.369	0.02
745.768	0.02
746.167	0.02
746.565	0.02
746.964	0.02
747.363	0.02
747.761	0.02
748.16	0.02
748.559	0.02
748.957	0.02
749.355	0.02
749.754	0.02
750.152	0.02
750.55	0.02
750.948	0.02
751.347	0.02
751.745	0.02
752.143	0.02
752.541	0.02
752.938	0.02
753.336	0.02
753.734	0.02
754.132	0.02
754.529	0.02
754.927	0.02
755.325	0.02
755.722	0.02
756.119	0.02
756.517	0.02
756.914	0.02
757.311	0.01
757.709	0.02
758.106	0.02
758.503	0.02
758.9	0.02
759.297	0.01
759.694	0.02
760.091	0.01
760.488	0.02
760.884	0.02
761.281	0.02
761.678	0.02
762.074	0.01
762.471	0.02
762.867	0.02
763.264	0.02
763.66	0.02
764.056	0.01
764.453	0.01
764.849	0.02
765.245	0.02
765.641	0.02
766.037	0.02
766.433	0.02
766.829	0.01
767.225	0.02
767.621	0.02
768.016	0.02
768.412	0.02
768.808	0.02
769.203	0.02
769.599	0.02
769.994	0.01
770.389	0.02
770.785	0.02
771.18	0.02
771.575	0.02
771.971	0.01
772.366	0.01
772.761	0.02
773.156	0.02
773.551	0.01
773.945	0.02
774.34	0.02
774.735	0.02
775.13	0.02
775.524	0.02
775.919	0.02
776.314	0.02
776.708	0.02
777.103	0.02
777.497	0.02
777.891	0.02
778.285	0.02
778.68	0.02
779.074	0.02
779.468	0.02
779.862	0.02
780.256	0.02
780.65	0.02
781.044	0.02
781.438	0.02
781.831	0.02
782.225	0.02
782.619	0.02
783.012	0.02
783.406	0.02
783.799	0.01
784.193	0.02
784.586	0.02
784.979	0.02
785.372	0.02
785.766	0.02
786.159	0.02
786.552	0.02
786.945	0.02
787.338	0.02
787.731	0.02
788.123	0.02
788.516	0.02
788.909	0.02
789.302	0.02
789.694	0.02
790.087	0.02
790.479	0.02
790.872	0.02
791.264	0.02
791.656	0.02
792.049	0.02
792.441	0.02
792.833	0.02
793.225	0.02
793.617	0.02
794.009	0.02
794.401	0.02
794.793	0.02
795.185	0.02
795.576	0.02
795.968	0.02
796.36	0.02
796.751	0.02
797.143	0.02
797.534	0.02
797.926	0.02
798.317	0.02
798.708	0.02
799.1	0.02
799.491	0.02
799.882	0.02
800.273	0.02
800.664	0.02
801.055	0.02
801.446	0.02
801.837	0.02
802.227	0.02
802.618	0.02
803.009	0.02
803.399	0.02
803.79	0.02
804.18	0.02
804.571	0.02
804.961	0.02
805.351	0.02
805.742	0.02
806.132	0.02
806.522	0.02
806.912	0.02
807.302	0.02
807.692	0.02
808.082	0.02
808.472	0.02
808.862	0.02
809.251	0.03
809.641	0.02
810.031	0.02
810.42	0.03
810.81	0.03
811.199	0.03
811.589	0.02
811.978	0.02
812.367	0.02
812.756	0.03
813.146	0.02
813.535	0.02
813.924	0.02
814.313	0.02
814.702	0.02
815.091	0.02
815.479	0.02
815.868	0.02
816.257	0.02
816.645	0.02
817.034	0.02
817.423	0.02
817.811	0.02
818.199	0.02
818.588	0.02
818.976	0.02
819.364	0.02
819.753	0.02
820.141	0.03
820.529	0.03
820.917	0.03
821.305	0.03
821.693	0.03
822.08	0.03
822.468	0.03
822.856	0.03
823.244	0.03
823.631	0.03
824.019	0.03
824.406	0.03
824.794	0.03
825.181	0.03
825.568	0.03
825.956	0.03
826.343	0.03
826.73	0.03
827.117	0.03
827.504	0.03
827.891	0.03
828.278	0.03
828.665	0.03
829.052	0.03
829.438	0.03
829.825	0.03
830.212	0.03
830.598	0.03
830.985	0.03
831.371	0.03
831.757	0.03
832.144	0.03
832.53	0.03
832.916	0.03
833.302	0.03
833.688	0.03
834.075	0.03
834.461	0.03
834.846	0.03
835.232	0.03
835.618	0.03
836.004	0.03
836.39	0.03
836.775	0.03
837.161	0.03
837.546	0.03
837.932	0.03
838.317	0.03
838.702	0.03
839.088	0.03
839.473	0.03
839.858	0.03
840.243	0.03
840.628	0.03
841.013	0.03
841.398	0.03
841.783	0.03
842.168	0.03
842.553	0.03
842.937	0.03
843.322	0.04
843.707	0.04
844.091	0.03
844.476	0.03
844.86	0.03
845.244	0.03
845.629	0.03
846.013	0.03
846.397	0.03
846.781	0.04
847.165	0.04
847.549	0.03
847.933	0.04
848.317	0.03
848.701	0.04
849.085	0.04
849.468	0.03
849.852	0.03
850.236	0.03
850.619	0.03
851.003	0.04
851.386	0.04
851.769	0.04
852.153	0.04
852.536	0.04
852.919	0.04
853.302	0.03
853.685	0.04
854.068	0.04
854.451	0.03
854.834	0.03
855.217	0.04
855.6	0.04
855.982	0.04
856.365	0.03
856.748	0.03
857.13	0.04
857.513	0.04
857.895	0.03
858.277	0.03
858.66	0.04
859.042	0.04
859.424	0.04
859.806	0.04
860.188	0.04
860.57	0.04
860.952	0.04
861.334	0.04
861.716	0.04
862.098	0.04
862.48	0.04
862.861	0.04
863.243	0.04
863.624	0.04
864.006	0.04
864.387	0.04
864.769	0.04
865.15	0.04
865.531	0.04
865.912	0.04
866.294	0.04
866.675	0.04
867.056	0.04
867.437	0.04
867.818	0.04
868.198	0.04
868.579	0.04
868.96	0.04
869.341	0.04
869.721	0.04
870.102	0.04
870.482	0.04
870.863	0.04
871.243	0.04
871.623	0.04
872.003	0.04
872.384	0.04
872.764	0.04
873.144	0.04
873.524	0.04
873.904	0.04
874.284	0.04
874.664	0.05
875.043	0.04
875.423	0.04
875.803	0.04
876.182	0.04
876.562	0.04
876.941	0.04
877.321	0.04
877.7	0.04
878.079	0.04
878.459	0.05
878.838	0.05
879.217	0.04
879.596	0.05
879.975	0.04
880.354	0.04
880.733	0.05
881.112	0.05
881.491	0.05
881.869	0.05
882.248	0.05
882.627	0.05
883.005	0.05
883.384	0.05
883.762	0.04
884.14	0.05
884.519	0.05
884.897	0.04
885.275	0.05
885.653	0.05
886.031	0.05
886.409	0.05
886.787	0.05
887.165	0.05
887.543	0.05
887.921	0.05
888.298	0.05
888.676	0.05
889.054	0.05
889.431	0.05
889.809	0.05
890.186	0.05
890.563	0.05
890.941	0.05
891.318	0.05
891.695	0.05
892.072	0.05
892.449	0.05
892.826	0.05
893.203	0.05
893.58	0.05
893.957	0.05
894.334	0.05
894.71	0.05
895.087	0.05
895.464	0.05
895.84	0.05
896.217	0.05
896.593	0.05
896.969	0.05
897.346	0.05
897.722	0.05
898.098	0.05
898.474	0.05
898.85	0.05
899.226	0.05
899.602	0.05
899.978	0.05
900.354	0.05
900.73	0.05
901.105	0.05
901.481	0.05
901.857	0.05
902.232	0.05
902.608	0.05
902.983	0.05
903.358	0.05
903.734	0.05
904.109	0.05
904.484	0.05
904.859	0.05
905.234	0.05
905.609	0.05
905.984	0.05
906.359	0.05
906.734	0.05
907.108	0.06
907.483	0.05
907.858	0.05
908.232	0.05
908.607	0.05
908.981	0.05
909.356	0.05
909.73	0.05
910.104	0.05
910.478	0.05
910.853	0.05
911.227	0.05
911.601	0.05
911.975	0.05
912.349	0.05
912.722	0.05
913.096	0.05
913.47	0.05
913.844	0.05
914.217	0.05
914.591	0.05
914.964	0.05
915.338	0.06
915.711	0.06
916.084	0.05
916.458	0.05
916.831	0.05
917.204	0.05
917.577	0.05
917.95	0.05
918.323	0.06
918.696	0.05
919.069	0.05
919.441	0.05
919.814	0.05
920.187	0.05
920.559	0.05
920.932	0.05
921.304	0.05
921.677	0.05
922.049	0.05
922.421	0.05
922.794	0.05
923.166	0.05
923.538	0.05
923.91	0.05
924.282	0.05
924.654	0.05
925.026	0.06
925.398	0.05
925.769	0.05
926.141	0.05
926.513	0.05
926.884	0.06
927.256	0.06
927.627	0.05
927.999	0.06
928.37	0.05
928.741	0.05
929.113	0.05
929.484	0.05
929.855	0.05
930.226	0.05
930.597	0.05
930.968	0.05
931.339	0.05
931.709	0.06
932.08	0.06
932.451	0.05
932.821	0.06
933.192	0.05
933.562	0.05
933.933	0.05
934.303	0.05
934.673	0.05
935.044	0.06
935.414	0.06
935.784	0.05
936.154	0.05
936.524	0.06
936.894	0.06
937.264	0.05
937.634	0.05
938.004	0.05
938.373	0.05
938.743	0.05
939.113	0.05
939.482	0.05
939.852	0.05
940.221	0.05
940.59	0.05
940.96	0.05
941.329	0.05
941.698	0.05
942.067	0.05
942.436	0.05
942.805	0.05
943.174	0.05
943.543	0.06
943.912	0.05
944.28	0.06
944.649	0.06
945.018	0.05
945.386	0.05
945.755	0.05
946.123	0.06
946.492	0.06
946.86	0.05
947.228	0.05
947.596	0.05
947.965	0.05
948.333	0.05
948.701	0.05
949.069	0.05
949.437	0.05
949.804	0.05
950.172	0.05
950.54	0.05
950.908	0.05
951.275	0.05
951.643	0.05
952.01	0.05
952.378	0.05
952.745	0.05
953.112	0.05
953.479	0.05
953.847	0.05
954.214	0.05
954.581	0.05
954.948	0.05
955.315	0.05
955.682	0.05
956.048	0.05
956.415	0.05
956.782	0.05
957.148	0.05
957.515	0.05
957.881	0.05
958.248	0.05
958.614	0.05
958.981	0.05
959.347	0.05
959.713	0.05
960.079	0.05
960.445	0.05
960.811	0.05
961.177	0.05
961.543	0.05
961.909	0.05
962.275	0.05
962.641	0.05
963.006	0.06
963.372	0.06
963.737	0.06
964.103	0.06
964.468	0.05
964.834	0.05
965.199	0.05
965.564	0.05
965.929	0.05
966.294	0.05
966.659	0.05
967.024	0.05
967.389	0.05
967.754	0.05
968.119	0.05
968.484	0.05
968.848	0.05
969.213	0.05
969.578	0.05
969.942	0.05
970.307	0.05
970.671	0.05
971.035	0.05
971.399	0.05
971.764	0.05
972.128	0.05
972.492	0.05
972.856	0.05
973.22	0.05
973.584	0.05
973.948	0.04
974.311	0.05
974.675	0.04
975.039	0.05
975.402	0.05
975.766	0.05
976.129	0.05
976.493	0.05
976.856	0.05
977.219	0.04
977.582	0.04
977.946	0.04
978.309	0.04
978.672	0.04
979.035	0.05
979.398	0.05
979.761	0.05
980.123	0.05
980.486	0.05
980.849	0.05
981.211	0.05
981.574	0.05
981.936	0.05
982.299	0.05
982.661	0.05
983.023	0.05
983.386	0.05
983.748	0.05
984.11	0.05
984.472	0.04
984.834	0.05
985.196	0.05
985.558	0.05
985.92	0.05
986.281	0.05
986.643	0.05
987.005	0.05
987.366	0.05
987.728	0.05
988.089	0.05
988.451	0.04
988.812	0.04
989.173	0.04
989.534	0.05
989.895	0.04
990.257	0.04
990.618	0.04
990.979	0.04
991.339	0.04
991.7	0.04
992.061	0.04
992.422	0.05
992.782	0.04
993.143	0.04
993.503	0.05
993.864	0.04
994.224	0.04
994.585	0.04
994.945	0.04
995.305	0.05
995.665	0.05
996.025	0.04
996.385	0.04
996.745	0.04
997.105	0.04
997.465	0.05
997.825	0.05
998.185	0.05
998.544	0.05
998.904	0.05
999.263	0.04
999.623	0.04
999.982	0.04
1000.342	0.04
1000.701	0.04
1001.06	0.04
1001.419	0.04
1001.778	0.05
1002.138	0.04
1002.497	0.04
1002.855	0.05
1003.214	0.04
1003.573	0.04
1003.932	0.04
1004.29	0.05
1004.649	0.04
1005.008	0.04
1005.366	0.05
1005.725	0.05
1006.083	0.04
1006.441	0.04
1006.799	0.04
1007.158	0.04
1007.516	0.04
1007.874	0.04
1008.232	0.04
1008.59	0.05
1008.948	0.04
1009.305	0.04
1009.663	0.04
1010.021	0.04
1010.379	0.05
1010.736	0.04
1011.094	0.04
1011.451	0.04
1011.808	0.04
1012.166	0.04
1012.523	0.04
1012.88	0.04
1013.237	0.05
1013.594	0.04
1013.951	0.04
1014.308	0.05
1014.665	0.05
1015.022	0.04
1015.379	0.04
1015.735	0.05
1016.092	0.05
1016.449	0.05
1016.805	0.05
1017.162	0.04
1017.518	0.04
1017.874	0.04
1018.231	0.04
1018.587	0.04
1018.943	0.04
1019.299	0.04
1019.655	0.04
1020.011	0.04
1020.367	0.03
1020.723	0.04
1021.078	0.04
1021.434	0.04
1021.79	0.04
1022.145	0.05
1022.501	0.04
1022.856	0.04
1023.212	0.04
1023.567	0.04
1023.922	0.04
1024.278	0.04
1024.633	0.04
1024.988	0.04
1025.343	0.04
1025.698	0.04
1026.053	0.04
1026.408	0.04
1026.762	0.04
1027.117	0.04
1027.472	0.03
1027.826	0.04
1028.181	0.04
1028.535	0.04
1028.89	0.04
1029.244	0.04
1029.598	0.03
1029.952	0.03
1030.307	0.04
1030.661	0.04
1031.015	0.04
1031.369	0.03
1031.723	0.04
1032.076	0.03
