Data from Rubpy_EV_1800_EDTA_Absorbance_13-35-03-103.txt Node
Date: Mon Jun 29 13:35:03 BST 2026
User: fpm-admin
Spectrometer: OFX00224
Trigger mode: 0
Integration Time (sec): 7.000000E-2
Scans to average: 3
Nonlinearity correction enabled: false
Boxcar width: 0
Storing dark spectrum: false
XAxis mode: Wavelengths
Number of Pixels in Spectrum: 2136
>>>>>Begin Spectral Data<<<<<
154.91	0.33
155.289	-0.18
155.669	0.81
156.048	0.07
156.428	-0
156.807	-0.26
157.186	0.06
157.566	0.1
157.945	0.21
158.325	-0.18
158.704	-0
159.083	-1.78
159.462	-0
159.842	0.54
160.221	0.22
160.6	-0.85
160.979	-0.63
161.359	-0.48
161.738	0.15
162.117	0.35
162.496	-0
162.875	-0
163.254	-0.54
163.633	0.8
164.012	-0
164.391	0.02
164.77	-0.07
165.149	0.17
165.528	0.27
165.907	-0.03
166.286	-0
166.665	-0
167.044	-0.49
167.423	0.44
167.802	-0.85
168.181	0.29
168.559	0.76
168.938	-0.33
169.317	0.46
169.696	-0
170.074	0.66
170.453	-0
170.832	0.45
171.21	0.07
171.589	-0.21
171.968	0.37
172.346	-0.3
172.725	0.45
173.103	-1.26
173.482	-1.15
173.861	0.22
174.239	-0.57
174.617	-0
174.996	0.16
175.374	-0.04
175.753	-0.48
176.131	0.04
176.51	0.19
176.888	-0.49
177.266	0.24
177.645	-0.1
178.023	0.03
178.401	0.01
178.779	0.15
179.158	-0
179.536	-0.34
179.914	-0
180.292	0.3
180.67	0.86
181.048	-0
181.427	-0
181.805	-1.2
182.183	-0.39
182.561	-0.16
182.939	-0
183.317	-0.39
183.695	-0
184.073	0.05
184.451	-0.18
184.829	-0.35
185.206	-0.06
185.584	-0.05
185.962	-0
186.34	0.29
186.718	0.33
187.096	-0
187.473	-0
187.851	0.98
188.229	-0
188.607	0.09
188.984	-0.17
189.362	0.01
189.74	-0
190.117	0.04
190.495	-0.01
190.872	-0.05
191.25	-0.05
191.627	-0.07
192.005	-0.01
192.382	0.05
192.76	0.01
193.137	-0.08
193.515	0
193.892	-0.06
194.269	-0
194.647	-0.01
195.024	0.02
195.401	0.07
195.779	-0.03
196.156	0.1
196.533	-0.03
196.91	0.06
197.288	0.02
197.665	-0.03
198.042	-0.03
198.419	-0.02
198.796	-0.08
199.173	0.05
199.55	0.07
199.927	0.16
200.304	-0.07
200.681	-0.1
201.058	0.05
201.435	-0.06
201.812	0.04
202.189	0.03
202.566	0.1
202.943	-0.05
203.32	0
203.697	-0.05
204.073	-0.01
204.45	-0.04
204.827	0.02
205.204	-0.05
205.58	0.06
205.957	-0.04
206.334	0.07
206.71	0.01
207.087	0.03
207.464	0.12
207.84	-0.14
208.217	-0
208.593	0.04
208.97	0.01
209.346	-0.01
209.723	0.07
210.099	-0.02
210.476	0.05
210.852	0.02
211.228	0.07
211.605	-0.16
211.981	-0.08
212.357	0.01
212.733	0.02
213.11	0.05
213.486	0.02
213.862	-0.01
214.238	0.01
214.614	0.04
214.991	-0.03
215.367	-0.03
215.743	-0.03
216.119	0.03
216.495	0.02
216.871	0
217.247	-0.05
217.623	0.01
217.999	0.07
218.375	0.09
218.751	-0.06
219.127	0.05
219.502	0.04
219.878	-0.11
220.254	0.03
220.63	-0.07
221.006	-0.09
221.381	-0.12
221.757	-0.01
222.133	-0.03
222.508	0.04
222.884	-0.01
223.26	0
223.635	-0.04
224.011	0.04
224.386	0.11
224.762	-0.07
225.137	0.04
225.513	0.02
225.888	0.05
226.264	-0.01
226.639	-0.06
227.014	-0.02
227.39	0.06
227.765	0
228.14	0.02
228.516	0.02
228.891	0.03
229.266	0.06
229.641	0.02
230.017	-0.09
230.392	-0.03
230.767	-0.05
231.142	-0
231.517	0.06
231.892	0.02
232.267	0.01
232.642	0.06
233.017	0.13
233.392	-0.01
233.767	-0.01
234.142	-0.1
234.517	-0.08
234.892	-0.01
235.267	-0.05
235.641	-0.01
236.016	0.05
236.391	-0.04
236.766	-0.08
237.14	-0.04
237.515	0
237.89	-0.01
238.264	-0.06
238.639	-0.12
239.014	0.05
239.388	-0.01
239.763	-0.04
240.137	-0.02
240.512	-0.05
240.886	-0.02
241.261	0.01
241.635	0.01
242.009	-0.04
242.384	0.06
242.758	0.03
243.132	0.05
243.507	0.07
243.881	-0.01
244.255	0.05
244.629	0
245.004	0.14
245.378	-0.02
245.752	0.02
246.126	-0.03
246.5	0.02
246.874	0.05
247.248	0.11
247.622	-0.05
247.996	0.06
248.37	0.08
248.744	-0.01
249.118	-0.02
249.492	0.07
249.866	0.08
250.24	0.05
250.613	0.03
250.987	0.01
251.361	0.01
251.735	0.04
252.108	0.07
252.482	-0.02
252.856	0.05
253.229	0.01
253.603	0.06
253.977	0.1
254.35	-0.04
254.724	0.04
255.097	0.03
255.471	-0
255.844	0.1
256.218	0
256.591	-0.08
256.964	-0.02
257.338	-0.02
257.711	0.03
258.084	0.02
258.458	0.04
258.831	-0.01
259.204	-0.04
259.577	-0.01
259.95	0.03
260.323	-0.06
260.697	-0.03
261.07	-0.01
261.443	0.01
261.816	0.08
262.189	-0.02
262.562	-0.02
262.935	0.05
263.308	0.07
263.68	-0.06
264.053	0.05
264.426	0.03
264.799	0.08
265.172	-0.03
265.545	0.01
265.917	0.05
266.29	0.02
266.663	0.05
267.035	-0.03
267.408	-0.01
267.781	-0
268.153	-0
268.526	0.04
268.898	-0.02
269.271	0.02
269.643	0.01
270.016	0.03
270.388	0.07
270.76	0
271.133	0.01
271.505	0.09
271.877	0.09
272.25	-0.02
272.622	0.08
272.994	0.08
273.366	-0.03
273.739	0.02
274.111	-0.01
274.483	0
274.855	0.03
275.227	-0.01
275.599	0.07
275.971	0.04
276.343	0.01
276.715	0.04
277.087	0.02
277.459	-0.02
277.831	-0.05
278.203	0.02
278.574	-0.03
278.946	0.09
279.318	0.02
279.69	0.02
280.061	0.04
280.433	0.01
280.805	0.06
281.176	-0.01
281.548	0.02
281.92	0.01
282.291	-0.02
282.663	0.02
283.034	0.05
283.406	0.02
283.777	0.04
284.148	0.05
284.52	-0.06
284.891	-0.02
285.262	-0.04
285.634	0.02
286.005	-0.01
286.376	-0.03
286.747	-0
287.119	-0
287.49	0.06
287.861	-0.01
288.232	0.04
288.603	-0
288.974	0
289.345	-0.01
289.716	0.04
290.087	0.01
290.458	-0.03
290.829	0.02
291.2	-0.06
291.571	0.02
291.941	0.02
292.312	0.05
292.683	0.03
293.054	0.12
293.424	0.05
293.795	0.04
294.166	-0
294.536	0.04
294.907	-0.03
295.277	0.04
295.648	0.02
296.018	-0.01
296.389	0.04
296.759	0.06
297.13	0.01
297.5	0.06
297.871	-0.03
298.241	-0.02
298.611	0.02
298.981	0.04
299.352	0.09
299.722	-0.02
300.092	0.04
300.462	-0.02
300.832	0
301.202	-0.01
301.573	0.02
301.943	-0.02
302.313	0
302.683	0.02
303.053	0.02
303.422	-0.01
303.792	0.01
304.162	-0.01
304.532	0
304.902	0
305.272	-0
305.641	-0.01
306.011	-0
306.381	0
306.75	-0
307.12	-0
307.49	0
307.859	-0
308.229	-0
308.598	-0
308.968	-0
309.337	0.01
309.707	0.01
310.076	0.01
310.445	-0
310.815	0.01
311.184	0
311.553	0
311.923	0.01
312.292	-0
312.661	0
313.03	0
313.399	0
313.768	-0
314.137	0.01
314.506	0
314.875	0
315.244	0.01
315.613	-0
315.982	0
316.351	0
316.72	0.01
317.089	0.01
317.458	0.01
317.826	0
318.195	0
318.564	-0
318.933	-0
319.301	0
319.67	-0
320.038	0
320.407	-0
320.775	0
321.144	-0
321.512	-0
321.881	0
322.249	0
322.618	-0
322.986	0
323.354	0
323.723	0
324.091	-0
324.459	-0
324.827	-0
325.195	-0
325.564	-0
325.932	-0.01
326.3	-0
326.668	-0.01
327.036	-0
327.404	0
327.772	0
328.14	0
328.508	0.01
328.875	0
329.243	0.01
329.611	0
329.979	-0
330.346	0
330.714	-0
331.082	0
331.449	-0
331.817	0.01
332.185	0
332.552	0.01
332.92	0
333.287	0
333.655	0.01
334.022	0.01
334.389	0.01
334.757	0
335.124	0.01
335.491	-0
335.859	0
336.226	0.01
336.593	0.01
336.96	0.01
337.327	0
337.695	0
338.062	0
338.429	0.01
338.796	0.01
339.163	0
339.53	0.01
339.897	0
340.263	0
340.63	0
340.997	0.01
341.364	0
341.731	0
342.097	0
342.464	0
342.831	0
343.197	0.01
343.564	0.01
343.931	0
344.297	0.01
344.664	0.01
345.03	0.01
345.396	0.01
345.763	0.01
346.129	0.01
346.496	0.01
346.862	0.01
347.228	0.01
347.594	0.01
347.961	0.01
348.327	0.01
348.693	0.01
349.059	0.01
349.425	0.01
349.791	0.01
350.157	0.01
350.523	0.01
350.889	0
351.255	0.01
351.621	0.01
351.987	0
352.353	0.01
352.719	0
353.084	0.01
353.45	0
353.816	0
354.181	0.01
354.547	0.01
354.913	0.01
355.278	0.01
355.644	0.01
356.009	0
356.375	0.01
356.74	0.01
357.106	0.01
357.471	0.01
357.836	0.01
358.202	0.01
358.567	0.01
358.932	0.01
359.297	0.01
359.663	0.01
360.028	0.01
360.393	0.01
360.758	0.01
361.123	0.01
361.488	0.01
361.853	0.01
362.218	0.01
362.583	0.01
362.948	0
363.312	0
363.677	0.01
364.042	0.01
364.407	0.01
364.772	0.01
365.136	0.01
365.501	0.01
365.865	0.01
366.23	0.01
366.595	0.01
366.959	0.01
367.324	0.01
367.688	0.01
368.052	0
368.417	0.01
368.781	0.01
369.145	0
369.51	0.01
369.874	0.01
370.238	0.01
370.602	0.01
370.967	0.01
371.331	0.01
371.695	0.01
372.059	0.01
372.423	0.01
372.787	0.01
373.151	0.01
373.515	0.01
373.878	0.01
374.242	0.01
374.606	0.01
374.97	0.01
375.334	0
375.697	0.01
376.061	0
376.425	0.01
376.788	0.01
377.152	0
377.515	0.01
377.879	0.01
378.242	0.01
378.606	0.01
378.969	0.01
379.333	0.01
379.696	0.01
380.059	0.01
380.422	0.01
380.786	0.01
381.149	0.01
381.512	0.01
381.875	0.01
382.238	0.01
382.601	0.01
382.964	0.01
383.327	0.01
383.69	0.01
384.053	0.01
384.416	0.01
384.779	0.01
385.142	0.01
385.504	0.01
385.867	0.01
386.23	0.01
386.593	0.01
386.955	0.01
387.318	0.02
387.68	0.01
388.043	0.01
388.405	0.01
388.768	0.01
389.13	0.01
389.493	0.01
389.855	0.01
390.217	0.01
390.58	0.01
390.942	0.01
391.304	0.01
391.666	0.01
392.028	0.01
392.391	0.01
392.753	0.01
393.115	0.01
393.477	0.01
393.839	0.01
394.201	0.01
394.563	0.01
394.924	0.01
395.286	0.01
395.648	0.01
396.01	0.01
396.371	0.01
396.733	0.01
397.095	0.01
397.456	0.01
397.818	0.01
398.18	0.01
398.541	0.01
398.903	0.01
399.264	0.01
399.625	0.01
399.987	0.01
400.348	0.01
400.709	0.01
401.071	0.01
401.432	0.01
401.793	0.01
402.154	0.01
402.515	0.01
402.876	0.01
403.238	0.01
403.599	0.01
403.96	0.01
404.32	0.01
404.681	0.01
405.042	0.01
405.403	0.01
405.764	0.01
406.125	0.01
406.485	0.01
406.846	0.01
407.207	0.01
407.567	0.01
407.928	0.01
408.288	0.01
408.649	0.01
409.009	0
409.37	0.01
409.73	0.01
410.091	0.01
410.451	0.01
410.811	0.01
411.171	0.01
411.532	0.01
411.892	0
412.252	0.01
412.612	0.01
412.972	0.01
413.332	0.01
413.692	0.01
414.052	0.01
414.412	0.01
414.772	0.01
415.132	0.01
415.492	0.01
415.851	0.01
416.211	0.01
416.571	0.01
416.931	0.01
417.29	0
417.65	0.01
418.009	0.01
418.369	0.01
418.728	0
419.088	0.01
419.447	0.01
419.807	0.01
420.166	0.01
420.525	0.02
420.884	0.01
421.244	0.01
421.603	0.01
421.962	0.01
422.321	0.01
422.68	0.01
423.039	0.02
423.398	0
423.757	0.01
424.116	0.01
424.475	0.01
424.834	0.01
425.193	0.01
425.551	0.01
425.91	0.01
426.269	0.01
426.628	0
426.986	0.01
427.345	0.01
427.703	0.02
428.062	0.01
428.42	0.01
428.779	0.01
429.137	0.01
429.496	0.01
429.854	0.02
430.212	0.01
430.57	0.01
430.929	0.01
431.287	0.02
431.645	0.01
432.003	0.01
432.361	0.01
432.719	0.01
433.077	0.01
433.435	0.01
433.793	0.01
434.151	0.02
434.509	0.01
434.866	0.01
435.224	0.01
435.582	0
435.94	0
436.297	0.01
436.655	0.01
437.012	0.01
437.37	0
437.727	0.01
438.085	0.02
438.442	0.01
438.8	0.01
439.157	0.01
439.514	0.01
439.872	0
440.229	0.01
440.586	0
440.943	0
441.3	-0
441.657	-0
442.014	0.01
442.371	0.01
442.728	0
443.085	0
443.442	0
443.799	0.01
444.156	0.01
444.513	0
444.869	-0.01
445.226	-0
445.583	-0
445.939	0
446.296	-0
446.652	-0.01
447.009	-0.01
447.365	0
447.722	-0
448.078	-0.01
448.434	-0
448.791	-0.01
449.147	0
449.503	-0.01
449.859	-0.01
450.215	-0.01
450.571	-0.01
450.928	-0.01
451.284	-0.01
451.64	-0.02
451.995	-0.02
452.351	-0.01
452.707	-0.01
453.063	-0.02
453.419	-0.02
453.775	-0.02
454.13	-0.03
454.486	-0.02
454.842	-0.03
455.197	-0.03
455.553	-0.04
455.908	-0.04
456.264	-0.05
456.619	-0.05
456.975	-0.05
457.33	-0.05
457.685	-0.05
458.04	-0.05
458.396	-0.06
458.751	-0.06
459.106	-0.06
459.461	-0.07
459.816	-0.07
460.171	-0.07
460.526	-0.08
460.881	-0.08
461.236	-0.08
461.591	-0.08
461.946	-0.08
462.301	-0.09
462.655	-0.09
463.01	-0.1
463.365	-0.1
463.719	-0.11
464.074	-0.11
464.428	-0.12
464.783	-0.13
465.137	-0.14
465.492	-0.14
465.846	-0.13
466.201	-0.13
466.555	-0.13
466.909	-0.13
467.263	-0.12
467.618	-0.12
467.972	-0.13
468.326	-0.13
468.68	-0.14
469.034	-0.14
469.388	-0.14
469.742	-0.14
470.096	-0.14
470.45	-0.13
470.804	-0.14
471.157	-0.13
471.511	-0.14
471.865	-0.14
472.218	-0.13
472.572	-0.12
472.926	-0.13
473.279	-0.13
473.633	-0.13
473.986	-0.11
474.34	-0.11
474.693	-0.11
475.046	-0.1
475.4	-0.1
475.753	-0.09
476.106	-0.09
476.459	-0.09
476.812	-0.08
477.165	-0.07
477.519	-0.06
477.872	-0.07
478.224	-0.07
478.577	-0.06
478.93	-0.06
479.283	-0.06
479.636	-0.05
479.989	-0.05
480.341	-0.05
480.694	-0.04
481.047	-0.04
481.399	-0.04
481.752	-0.04
482.104	-0.04
482.457	-0.03
482.809	-0.03
483.162	-0.03
483.514	-0.02
483.866	-0.02
484.219	-0.03
484.571	-0.03
484.923	-0.02
485.275	-0.02
485.627	-0.02
485.979	-0.02
486.331	-0.02
486.683	-0.01
487.035	-0.01
487.387	-0.01
487.739	-0
488.091	-0.01
488.443	-0.01
488.794	-0.01
489.146	-0.01
489.498	-0.01
489.849	-0.01
490.201	-0.01
490.552	-0.01
490.904	-0
491.255	-0.01
491.607	-0
491.958	-0
492.309	-0.01
492.661	-0
493.012	-0
493.363	-0
493.714	-0
494.065	-0
494.416	-0
494.767	-0
495.118	0
495.469	-0
495.82	0
496.171	0
496.522	0
496.872	-0
497.223	-0
497.574	0
497.924	0.01
498.275	-0
498.626	0.01
498.976	0
499.327	0.01
499.677	0
500.027	0
500.378	0.01
500.728	0.01
501.078	0.01
501.428	0.01
501.779	0
502.129	0.01
502.479	0.01
502.829	0
503.179	0.01
503.529	0.01
503.879	0.01
504.229	0.01
504.578	0.01
504.928	0.01
505.278	0.01
505.628	0.01
505.977	0.01
506.327	0.01
506.676	0.01
507.026	0.02
507.375	0.01
507.725	0.01
508.074	0.01
508.424	0.01
508.773	0.01
509.122	0.01
509.471	0.01
509.82	0.01
510.17	0.02
510.519	0.01
510.868	0.01
511.217	0.01
511.566	0.02
511.915	0.01
512.263	0.01
512.612	0.02
512.961	0.01
513.31	0.01
513.659	0.01
514.007	0.01
514.356	0.01
514.704	0.02
515.053	0.01
515.401	0.02
515.75	0.01
516.098	0.02
516.447	0.02
516.795	0.01
517.143	0.01
517.491	0.02
517.839	0.02
518.188	0.01
518.536	0.02
518.884	0.01
519.232	0.01
519.58	0.01
519.928	0.01
520.275	0.01
520.623	0.02
520.971	0.01
521.319	0.02
521.666	0.01
522.014	0.02
522.362	0.02
522.709	0.02
523.057	0.02
523.404	0.01
523.752	0.02
524.099	0.01
524.446	0.02
524.794	0.02
525.141	0.02
525.488	0.02
525.835	0.02
526.182	0.02
526.529	0.02
526.876	0.01
527.223	0.02
527.57	0.02
527.917	0.02
528.264	0.02
528.611	0.01
528.958	0.02
529.304	0.01
529.651	0.02
529.998	0.01
530.344	0.02
530.691	0.01
531.037	0.01
531.384	0.02
531.73	0.01
532.076	0.01
532.423	0.02
532.769	0.02
533.115	0.02
533.461	0.02
533.807	0.02
534.154	0.02
534.5	0.02
534.846	0.02
535.192	0.02
535.537	0.02
535.883	0.02
536.229	0.02
536.575	0.01
536.921	0.02
537.266	0.02
537.612	0.02
537.957	0.02
538.303	0.02
538.649	0.02
538.994	0.02
539.339	0.02
539.685	0.02
540.03	0.02
540.375	0.02
540.721	0.02
541.066	0.02
541.411	0.02
541.756	0.02
542.101	0.02
542.446	0.01
542.791	0.02
543.136	0.02
543.481	0.02
543.825	0.02
544.17	0.02
544.515	0.02
544.86	0.02
545.204	0.02
545.549	0.02
545.893	0.02
546.238	0.02
546.582	0.02
546.927	0.02
547.271	0.02
547.615	0.02
547.96	0.02
548.304	0.02
548.648	0.02
548.992	0.02
549.336	0.02
549.68	0.02
550.024	0.02
550.368	0.02
550.712	0.02
551.056	0.02
551.4	0.02
551.743	0.02
552.087	0.02
552.431	0.02
552.774	0.02
553.118	0.02
553.462	0.02
553.805	0.02
554.148	0.02
554.492	0.02
554.835	0.02
555.178	0.02
555.522	0.02
555.865	0.02
556.208	0.02
556.551	0.02
556.894	0.02
557.237	0.02
557.58	0.02
557.923	0.02
558.266	0.02
558.609	0.02
558.952	0.02
559.294	0.02
559.637	0.02
559.98	0.02
560.322	0.02
560.665	0.02
561.007	0.02
561.35	0.02
561.692	0.02
562.034	0.02
562.377	0.02
562.719	0.02
563.061	0.02
563.403	0.02
563.745	0.02
564.088	0.02
564.43	0.01
564.772	0.02
565.113	0.02
565.455	0.02
565.797	0.02
566.139	0.02
566.481	0.02
566.822	0.02
567.164	0.02
567.506	0.02
567.847	0.02
568.189	0.02
568.53	0.02
568.872	0.02
569.213	0.02
569.554	0.02
569.895	0.02
570.237	0.02
570.578	0.02
570.919	0.02
571.26	0.02
571.601	0.02
571.942	0.02
572.283	0.02
572.624	0.02
572.965	0.01
573.306	0.02
573.646	0.02
573.987	0.02
574.328	0.02
574.668	0.02
575.009	0.02
575.349	0.02
575.69	0.02
576.03	0.01
576.37	0.01
576.711	0.02
577.051	0.01
577.391	0.01
577.731	0.01
578.072	0.01
578.412	0.01
578.752	0.01
579.092	0.01
579.431	0.01
579.771	0.02
580.111	0.01
580.451	0.01
580.791	0.01
581.13	0.01
581.47	0.01
581.81	0.01
582.149	0.01
582.489	0.02
582.828	0.02
583.167	0.02
583.507	0.01
583.846	0.01
584.185	0.01
584.525	0.01
584.864	0.01
585.203	0.01
585.542	0.01
585.881	0.02
586.22	0.02
586.559	0.02
586.898	0.02
587.236	0.01
587.575	0.01
587.914	0.01
588.252	0.01
588.591	0.01
588.93	0.02
589.268	0.01
589.607	0.01
589.945	0.01
590.283	0.01
590.622	0.02
590.96	0.01
591.298	0.01
591.636	0.02
591.974	0.02
592.313	0.02
592.651	0.01
592.989	0.01
593.326	0.01
593.664	0.01
594.002	0.01
594.34	0.02
594.678	0.02
595.015	0.02
595.353	0.01
595.691	0.01
596.028	0.01
596.366	0.02
596.703	0.01
597.04	0.01
597.378	0.02
597.715	0.02
598.052	0.02
598.389	0.01
598.726	0.02
599.064	0.02
599.401	0.02
599.738	0.02
600.074	0.02
600.411	0.02
600.748	0.02
601.085	0.02
601.422	0.01
601.758	0.01
602.095	0.01
602.432	0.01
602.768	0.01
603.105	0.01
603.441	0.01
603.777	0.01
604.114	0.01
604.45	0.01
604.786	0.01
605.122	0.02
605.459	0.02
605.795	0.01
606.131	0.02
606.467	0.01
606.803	0.01
607.139	0.01
607.474	0.02
607.81	0.02
608.146	0.01
608.482	0.01
608.817	0.02
609.153	0.01
609.488	0.02
609.824	0.01
610.159	0.01
610.495	0.01
610.83	0.02
611.165	0.02
611.5	0.02
611.836	0.01
612.171	0.02
612.506	0.02
612.841	0.01
613.176	0.02
613.511	0.01
613.845	0.02
614.18	0.02
614.515	0.02
614.85	0.02
615.184	0.02
615.519	0.02
615.854	0.02
616.188	0.02
616.523	0.02
616.857	0.02
617.191	0.02
617.526	0.01
617.86	0.01
618.194	0.02
618.528	0.02
618.862	0.02
619.196	0.02
619.53	0.02
619.864	0.01
620.198	0.02
620.532	0.02
620.866	0.02
621.2	0.02
621.533	0.02
621.867	0.02
622.201	0.02
622.534	0.02
622.868	0.02
623.201	0.02
623.534	0.02
623.868	0.02
624.201	0.02
624.534	0.02
624.868	0.02
625.201	0.02
625.534	0.02
625.867	0.02
626.2	0.02
626.533	0.02
626.865	0.02
627.198	0.02
627.531	0.02
627.864	0.01
628.196	0.02
628.529	0.01
628.862	0.02
629.194	0.01
629.527	0.01
629.859	0.02
630.191	0.02
630.524	0.01
630.856	0.02
631.188	0.02
631.52	0.02
631.852	0.02
632.184	0.02
632.516	0.02
632.848	0.02
633.18	0.01
633.512	0.02
633.844	0.01
634.175	0.01
634.507	0.02
634.839	0.02
635.17	0.02
635.502	0.02
635.833	0.02
636.165	0.02
636.496	0.02
636.827	0.02
637.159	0.02
637.49	0.02
637.821	0.02
638.152	0.02
638.483	0.02
638.814	0.02
639.145	0.02
639.476	0.02
639.807	0.02
640.137	0.02
640.468	0.02
640.799	0.02
641.129	0.02
641.46	0.02
641.791	0.02
642.121	0.02
642.451	0.02
642.782	0.02
643.112	0.02
643.442	0.02
643.773	0.02
644.103	0.02
644.433	0.02
644.763	0.02
645.093	0.02
645.423	0.02
645.753	0.01
646.082	0.01
646.412	0.02
646.742	0.01
647.072	0.02
647.401	0.02
647.731	0.02
648.06	0.02
648.39	0.02
648.719	0.02
649.048	0.02
649.378	0.02
649.707	0.02
650.036	0.02
650.365	0.02
650.694	0.02
651.023	0.02
651.352	0.02
651.681	0.02
652.01	0.02
652.339	0.02
652.668	0.02
652.996	0.02
653.325	0.02
653.654	0.02
653.982	0.02
654.311	0.02
654.639	0.02
654.967	0.02
655.296	0.02
655.624	0.02
655.952	0.02
656.28	0.02
656.609	0.02
656.937	0.02
657.265	0.02
657.593	0.02
657.92	0
658.248	-0
658.576	0
658.904	0
659.231	0.01
659.559	0.01
659.887	0.01
660.214	0.02
660.542	0.02
660.869	0.02
661.196	0.02
661.524	0.02
661.851	0.02
662.178	0.02
662.505	0.02
662.832	0.02
663.159	0.02
663.486	0.03
663.813	0.02
664.14	0.02
664.467	0.02
664.794	0.02
665.12	0.02
665.447	0.02
665.774	0.02
666.1	0.02
666.427	0.02
666.753	0.02
667.079	0.02
667.406	0.02
667.732	0.02
668.058	0.02
668.384	0.03
668.71	0.02
669.036	0.02
669.362	0.02
669.688	0.02
670.014	0.02
670.34	0.02
670.666	0.02
670.991	0.02
671.317	0.02
671.643	0.02
671.968	0.02
672.294	0.02
672.619	0.02
672.945	0.02
673.27	0.02
673.595	0.02
673.92	0.02
674.246	0.02
674.571	0.02
674.896	0.02
675.221	0.02
675.546	0.02
675.87	0.03
676.195	0.02
676.52	0.02
676.845	0.02
677.169	0.02
677.494	0.02
677.819	0.02
678.143	0.02
678.468	0.02
678.792	0.02
679.116	0.02
679.44	0.02
679.765	0.02
680.089	0.02
680.413	0.02
680.737	0.02
681.061	0.02
681.385	0.02
681.709	0.02
682.033	0.02
682.356	0.02
682.68	0.02
683.004	0.02
683.327	0.03
683.651	0.03
683.974	0.03
684.298	0.03
684.621	0.02
684.944	0.02
685.268	0.02
685.591	0.02
685.914	0.02
686.237	0.02
686.56	0.02
686.883	0.02
687.206	0.02
687.529	0.03
687.852	0.02
688.175	0.02
688.497	0.02
688.82	0.02
689.142	0.02
689.465	0.02
689.787	0.03
690.11	0.03
690.432	0.03
690.755	0.02
691.077	0.02
691.399	0.02
691.721	0.02
692.043	0.03
692.365	0.02
692.687	0.03
693.009	0.02
693.331	0.02
693.653	0.02
693.974	0.02
694.296	0.03
694.618	0.03
694.939	0.03
695.261	0.03
695.582	0.03
695.904	0.02
696.225	0.03
696.546	0.03
696.868	0.03
697.189	0.03
697.51	0.02
697.831	0.03
698.152	0.02
698.473	0.02
698.794	0.02
699.114	0.02
699.435	0.02
699.756	0.02
700.077	0.03
700.397	0.02
700.718	0.03
701.038	0.03
701.359	0.03
701.679	0.03
701.999	0.03
702.32	0.02
702.64	0.03
702.96	0.03
703.28	0.02
703.6	0.02
703.92	0.03
704.24	0.02
704.56	0.02
704.879	0.02
705.199	0.02
705.519	0.02
705.838	0.02
706.158	0.02
706.478	0.02
706.797	0.03
707.116	0.03
707.436	0.03
707.755	0.03
708.074	0.03
708.393	0.03
708.712	0.03
709.031	0.03
709.35	0.03
709.669	0.03
709.988	0.03
710.307	0.03
710.626	0.03
710.944	0.03
711.263	0.03
711.582	0.02
711.9	0.03
712.219	0.03
712.537	0.02
712.855	0.02
713.174	0.02
713.492	0.02
713.81	0.03
714.128	0.02
714.446	0.03
714.764	0.03
715.082	0.02
715.4	0.03
715.718	0.02
716.035	0.02
716.353	0.02
716.671	0.03
716.988	0.02
717.306	0.03
717.623	0.03
717.941	0.03
718.258	0.02
718.575	0.03
718.893	0.03
719.21	0.02
719.527	0.02
719.844	0.03
720.161	0.03
720.478	0.03
720.795	0.03
721.112	0.03
721.428	0.03
721.745	0.03
722.062	0.03
722.378	0.03
722.695	0.03
723.011	0.03
723.328	0.03
723.644	0.03
723.96	0.03
724.276	0.03
724.593	0.03
724.909	0.03
725.225	0.03
725.541	0.03
725.857	0.03
726.173	0.03
726.488	0.03
726.804	0.03
727.12	0.03
727.435	0.03
727.751	0.03
728.067	0.02
728.382	0.02
728.697	0.03
729.013	0.02
729.328	0.02
729.643	0.03
729.958	0.03
730.273	0.03
730.588	0.03
730.903	0.03
731.218	0.03
731.533	0.03
731.848	0.03
732.163	0.03
732.477	0.03
732.792	0.03
733.107	0.03
733.421	0.03
733.736	0.03
734.05	0.03
734.364	0.03
734.678	0.02
734.993	0.03
735.307	0.03
735.621	0.03
735.935	0.03
736.249	0.03
736.563	0.03
736.877	0.03
737.19	0.03
737.504	0.03
737.818	0.03
738.131	0.03
738.445	0.03
738.758	0.03
739.072	0.03
739.385	0.03
739.698	0.03
740.012	0.03
740.325	0.03
740.638	0.03
740.951	0.03
741.264	0.03
741.577	0.03
741.89	0.03
742.203	0.03
742.515	0.03
742.828	0.03
743.141	0.03
743.453	0.03
743.766	0.03
744.078	0.03
744.391	0.03
744.703	0.03
745.015	0.03
745.327	0.03
745.639	0.03
745.952	0.03
746.264	0.03
746.575	0.02
746.887	0.02
747.199	0.02
747.511	0.03
747.823	0.03
748.134	0.03
748.446	0.03
748.757	0.03
749.069	0.03
749.38	0.03
749.692	0.03
750.003	0.03
750.314	0.03
750.625	0.03
750.936	0.03
751.248	0.03
751.559	0.03
751.869	0.03
752.18	0.03
752.491	0.03
752.802	0.03
753.112	0.03
753.423	0.03
753.734	0.03
754.044	0.03
754.355	0.03
754.665	0.03
754.975	0.03
755.285	0.03
755.596	0.03
755.906	0.03
756.216	0.03
756.526	0.03
756.836	0.03
757.146	0.03
757.455	0.03
757.765	0.03
758.075	0.03
758.385	0.03
758.694	0.03
759.004	0.03
759.313	0.03
759.622	0.03
759.932	0.03
760.241	0.03
760.55	0.03
760.859	0.03
761.168	0.03
761.477	0.03
761.786	0.03
762.095	0.03
762.404	0.03
762.713	0.02
763.021	0.02
763.33	0.02
763.639	0.03
763.947	0.02
764.256	0.02
764.564	0.03
764.872	0.02
765.181	0.03
765.489	0.03
765.797	0.03
766.105	0.03
766.413	0.03
766.721	0.03
767.029	0.03
767.337	0.02
767.644	0.02
767.952	0.02
768.26	0.02
768.567	0.02
768.875	0.02
769.182	0.03
769.49	0.02
769.797	0.03
770.104	0.02
770.411	0.03
770.718	0.03
771.026	0.03
771.333	0.03
771.639	0.03
771.946	0.03
772.253	0.03
772.56	0.03
772.867	0.03
773.173	0.03
773.48	0.03
773.786	0.03
774.093	0.03
774.399	0.03
774.705	0.03
775.012	0.02
775.318	0.03
775.624	0.03
775.93	0.03
776.236	0.03
776.542	0.02
776.848	0.03
777.154	0.02
777.459	0.02
777.765	0.03
778.071	0.03
778.376	0.03
778.682	0.03
778.987	0.02
779.292	0.03
779.598	0.02
779.903	0.02
780.208	0.03
780.513	0.03
780.818	0.02
781.123	0.03
781.428	0.03
781.733	0.03
782.038	0.03
782.343	0.03
782.647	0.03
782.952	0.03
783.256	0.03
783.561	0.02
783.865	0.02
784.17	0.03
784.474	0.03
784.778	0.02
785.082	0.03
785.386	0.03
785.69	0.03
785.994	0.03
786.298	0.03
786.602	0.03
786.906	0.03
787.209	0.03
787.513	0.03
787.817	0.03
788.12	0.03
788.424	0.02
788.727	0.03
789.03	0.03
789.333	0.03
789.637	0.03
789.94	0.03
790.243	0.03
790.546	0.03
790.849	0.03
791.152	0.02
791.454	0.02
791.757	0.02
792.06	0.02
792.362	0.02
792.665	0.02
792.967	0.02
793.27	0.02
793.572	0.02
793.874	0.02
794.177	0.02
794.479	0.02
794.781	0.02
795.083	0.02
795.385	0.02
795.687	0.02
795.989	0.02
796.29	0.02
796.592	0.02
796.894	0.02
797.195	0.02
797.497	0.02
797.798	0.02
798.1	0.03
798.401	0.02
798.702	0.02
799.003	0.03
799.304	0.03
799.605	0.02
799.906	0.02
800.207	0.02
800.508	0.02
800.809	0.02
801.11	0.02
801.41	0.02
801.711	0.02
802.011	0.02
802.312	0.02
802.612	0.01
802.913	0.02
803.213	0.02
803.513	0.02
803.813	0.02
804.113	0.01
804.413	0.02
804.713	0.02
805.013	0.02
805.313	0.01
805.613	0.02
805.912	0.01
806.212	0.02
806.511	0.02
806.811	0.02
807.11	0.02
807.41	0.02
807.709	0.02
808.008	0.02
808.307	0.01
808.606	0.02
808.905	0.02
809.204	0.01
809.503	0.02
809.802	0.02
810.101	0.02
810.399	0.02
810.698	0.01
810.997	0.01
811.295	0.02
811.593	0.01
811.892	0.01
812.19	0.01
812.488	0.02
812.786	0.02
813.084	0.02
813.383	0.02
813.68	0.02
813.978	0.02
814.276	0.01
814.574	0.02
814.872	0.02
815.169	0.02
815.467	0.02
815.764	0.02
816.062	0.02
816.359	0.01
816.656	0.01
816.954	0.02
817.251	0.01
817.548	0.02
817.845	0.02
818.142	0.02
818.439	0.02
818.735	0.02
819.032	0.01
819.329	0.01
819.626	0.02
819.922	0.01
820.219	0.01
820.515	0.01
820.811	0.02
821.108	0.02
821.404	0.01
821.7	0.02
821.996	0.02
822.292	0.02
822.588	0.02
822.884	0.01
823.18	0.01
823.475	0.01
823.771	0.02
824.067	0.02
824.362	0.02
824.658	0.01
824.953	0.01
825.249	0.01
825.544	0.01
825.839	0.01
826.134	0.01
826.429	0.01
826.724	0.01
827.019	0.01
827.314	0.01
827.609	0.01
827.904	0.01
828.198	0.01
828.493	0.01
828.787	0.02
829.082	0.01
829.376	0.01
829.671	0.01
829.965	0
830.259	0
830.553	0.01
830.847	0.01
831.141	0.01
831.435	0.01
831.729	0.01
832.023	0.01
832.317	0.01
832.61	0
832.904	0.01
833.197	0.01
833.491	0.01
833.784	0.01
834.077	0.01
834.371	-0
834.664	0
834.957	0
835.25	0
835.543	0
835.836	0.01
836.129	0.01
836.421	0.01
836.714	0.01
837.007	-0
837.299	0.01
837.592	0
837.884	-0
838.177	0
838.469	0
838.761	0.01
839.053	0
839.345	-0
839.637	0
839.929	-0
840.221	0.02
840.513	0
840.805	0.01
841.096	-0.01
841.388	-0
841.68	-0
841.971	-0
842.262	-0
842.554	0
842.845	0.01
843.136	0.01
843.427	0.01
843.718	-0
844.009	0
844.3	0.01
844.591	-0
844.882	-0
845.173	-0
845.463	0
845.754	0.01
846.044	0
846.335	0.01
846.625	-0.01
846.915	-0.01
847.206	-0.01
847.496	-0
847.786	-0.01
848.076	-0
848.366	-0.01
848.656	-0
848.945	0
849.235	0.01
849.525	-0
849.814	-0.01
850.104	-0.01
850.393	-0.01
850.683	0
850.972	0.01
851.261	0
851.551	0
851.84	-0.01
852.129	-0.02
852.418	-0
852.707	-0.01
852.995	-0.02
853.284	-0
853.573	-0.01
853.862	-0
854.15	-0.01
854.439	0
854.727	-0.02
855.015	0.01
855.304	-0.01
855.592	-0
855.88	-0.01
856.168	-0
856.456	-0.01
856.744	-0
857.032	0.01
857.32	0.01
857.607	-0.01
857.895	-0
858.183	-0.02
858.47	0
858.757	-0.01
859.045	-0.03
859.332	-0
859.619	-0.01
859.907	-0.01
860.194	-0.01
860.481	-0.02
860.768	-0.01
861.054	-0.02
861.341	-0.01
861.628	-0.04
861.915	-0.05
862.201	-0.02
862.488	-0.02
862.774	-0.02
863.061	-0.02
863.347	-0.01
863.633	0.01
863.919	-0.01
864.205	-0.03
864.491	-0.04
864.777	-0.01
865.063	0.01
865.349	0.02
865.635	0.01
865.92	-0.07
866.206	-0.01
866.492	-0.01
866.777	-0
867.062	0.06
867.348	-0.04
867.633	-0.04
867.918	-0
868.203	0.02
868.488	0
868.773	-0.05
869.058	-0
869.343	-0.03
869.628	-0.02
869.912	-0.05
870.197	-0
870.482	-0
870.766	-0.02
871.05	0.02
871.335	-0.03
871.619	-0.05
871.903	-0.01
872.187	0.01
872.471	0
872.755	0.03
873.039	-0.02
873.323	-0.02
873.607	0
873.89	-0.02
874.174	-0.01
874.458	-0.08
874.741	-0.06
875.024	0.02
875.308	-0
875.591	0.1
875.874	0.03
876.157	0.04
876.44	-0.01
876.723	-0.02
877.006	-0.05
877.289	-0.07
877.572	0.05
877.854	0.04
878.137	0.04
878.42	0.03
878.702	-0.02
878.984	0.05
879.267	-0.05
879.549	-0.09
879.831	-0.23
880.113	-0.03
880.395	0.19
880.677	-0.07
880.959	0.04
