Data from Rubpy_BV_1200_EDTA_Buffered_Absorbance_13-39-03-038.txt Node
Date: Wed Jul 01 13:39:03 BST 2026
User: fpm-admin
Spectrometer: OFX00224
Trigger mode: 0
Integration Time (sec): 7.000000E-2
Scans to average: 3
Nonlinearity correction enabled: false
Boxcar width: 0
Storing dark spectrum: false
XAxis mode: Wavelengths
Number of Pixels in Spectrum: 2136
>>>>>Begin Spectral Data<<<<<
154.91	-0
155.289	-0.48
155.669	-0.56
156.048	-0.93
156.428	-0.49
156.807	0.37
157.186	-0.3
157.566	-0
157.945	0.19
158.325	0.03
158.704	-0.88
159.083	-0.12
159.462	-0.78
159.842	-0.18
160.221	-0
160.6	-0
160.979	-0
161.359	-0
161.738	0.36
162.117	-0
162.496	-0.2
162.875	-0
163.254	-0
163.633	-0.49
164.012	-0
164.391	-0
164.77	0.22
165.149	-0.26
165.528	-0
165.907	-0
166.286	0.22
166.665	0.06
167.044	-0.9
167.423	-0.12
167.802	-0.53
168.181	-0.54
168.559	-0
168.938	-0.15
169.317	0.21
169.696	-0
170.074	-0.43
170.453	-0
170.832	-0.3
171.21	-0.18
171.589	-0
171.968	-0
172.346	-0.07
172.725	-0
173.103	-0.59
173.482	-0.01
173.861	-0
174.239	-0.43
174.617	-0.05
174.996	-0.48
175.374	-0
175.753	-0.13
176.131	-1.28
176.51	0.96
176.888	-0
177.266	-0
177.645	0.04
178.023	0.32
178.401	-0.11
178.779	-0
179.158	-0
179.536	-0.22
179.914	-0
180.292	-0.34
180.67	-0.04
181.048	-0
181.427	-0.5
181.805	-0.34
182.183	0.3
182.561	-0
182.939	-0
183.317	-0.67
183.695	0.03
184.073	-0.2
184.451	-1.28
184.829	-0.16
185.206	-0.28
185.584	-0
185.962	-0
186.34	-0.85
186.718	-0
187.096	0.44
187.473	-0.65
187.851	-0.21
188.229	-0
188.607	0.03
188.984	0.07
189.362	0.13
189.74	-0.01
190.117	0.16
190.495	0.05
190.872	0.09
191.25	0.14
191.627	0.11
192.005	0.06
192.382	0.06
192.76	0.05
193.137	0.15
193.515	0.02
193.892	0.11
194.269	0.06
194.647	0.1
195.024	0.02
195.401	0.08
195.779	0.02
196.156	0.03
196.533	0.13
196.91	0.07
197.288	-0.05
197.665	0.04
198.042	0.12
198.419	0.08
198.796	-0.09
199.173	0.11
199.55	0.09
199.927	0.06
200.304	0.05
200.681	0.19
201.058	0.21
201.435	0.05
201.812	0.08
202.189	0.03
202.566	0.18
202.943	0.07
203.32	0.03
203.697	0.09
204.073	0.05
204.45	0.07
204.827	0.06
205.204	0.16
205.58	0.06
205.957	0.09
206.334	0.11
206.71	0.18
207.087	0.17
207.464	-0.01
207.84	0.06
208.217	0.08
208.593	0.17
208.97	0.03
209.346	0.17
209.723	0.15
210.099	0.06
210.476	0.05
210.852	0.06
211.228	0.07
211.605	0.07
211.981	0.13
212.357	-0.01
212.733	0.01
213.11	0.04
213.486	0.11
213.862	0.07
214.238	0.08
214.614	0.04
214.991	-0.04
215.367	0.07
215.743	0.12
216.119	0.12
216.495	0.05
216.871	0.18
217.247	0.11
217.623	0.11
217.999	0.16
218.375	0.09
218.751	0.03
219.127	0.04
219.502	0.06
219.878	0.17
220.254	0.12
220.63	0.13
221.006	0.13
221.381	0.06
221.757	0.05
222.133	0.1
222.508	0.12
222.884	0.1
223.26	0.12
223.635	0.05
224.011	0.07
224.386	0.13
224.762	0.1
225.137	0.05
225.513	0.05
225.888	0.11
226.264	0.15
226.639	0.01
227.014	0.08
227.39	0.09
227.765	0.15
228.14	0.14
228.516	0.05
228.891	0.15
229.266	0.14
229.641	0.15
230.017	0.1
230.392	0.14
230.767	0.12
231.142	0.02
231.517	0.08
231.892	0.06
232.267	0.15
232.642	0.13
233.017	0.11
233.392	0.09
233.767	0.12
234.142	0.13
234.517	0.13
234.892	0.03
235.267	0.11
235.641	0.17
236.016	0.15
236.391	0.07
236.766	0.09
237.14	0.1
237.515	0.07
237.89	0.1
238.264	0.18
238.639	0.02
239.014	0.04
239.388	0.07
239.763	0.11
240.137	0.09
240.512	0.05
240.886	0.04
241.261	0.11
241.635	0.08
242.009	0.11
242.384	0.13
242.758	0.18
243.132	0.1
243.507	0.13
243.881	0.15
244.255	0.18
244.629	0.07
245.004	0.13
245.378	0.07
245.752	0.11
246.126	0.02
246.5	0.13
246.874	0.11
247.248	0.09
247.622	0.09
247.996	0.04
248.37	0.13
248.744	0.08
249.118	0.16
249.492	0.07
249.866	0.11
250.24	0.07
250.613	0.03
250.987	0.16
251.361	0.07
251.735	0.03
252.108	0.14
252.482	0.1
252.856	-0
253.229	0.11
253.603	0.15
253.977	0.03
254.35	0.1
254.724	0.15
255.097	0.11
255.471	0.13
255.844	0.12
256.218	0.14
256.591	0.07
256.964	0.02
257.338	0.12
257.711	0.17
258.084	0.17
258.458	0.07
258.831	0.1
259.204	0.04
259.577	0.15
259.95	0.12
260.323	0.1
260.697	0.17
261.07	0.12
261.443	0.14
261.816	0.12
262.189	0.13
262.562	0.13
262.935	0.1
263.308	0.11
263.68	0.09
264.053	0.14
264.426	0.11
264.799	0.13
265.172	0.03
265.545	0.03
265.917	0.05
266.29	0.16
266.663	0.05
267.035	0.13
267.408	0.16
267.781	0.14
268.153	0.05
268.526	0.08
268.898	0.07
269.271	0.09
269.643	0.12
270.016	0.04
270.388	0.07
270.76	0.09
271.133	0.14
271.505	0.1
271.877	0.1
272.25	0.07
272.622	0.18
272.994	0.09
273.366	0.06
273.739	0.15
274.111	0.14
274.483	0.12
274.855	0.11
275.227	0.05
275.599	0.13
275.971	0.1
276.343	0.11
276.715	0.13
277.087	0.19
277.459	0.05
277.831	0.08
278.203	0.11
278.574	0.05
278.946	0.11
279.318	0.17
279.69	0.12
280.061	0.05
280.433	0.09
280.805	0.08
281.176	0.11
281.548	0.14
281.92	0.09
282.291	0.15
282.663	0.1
283.034	0.04
283.406	0.11
283.777	0.1
284.148	0.08
284.52	0.08
284.891	0.14
285.262	0.07
285.634	0.13
286.005	0.09
286.376	0.13
286.747	0.05
287.119	0.04
287.49	0.13
287.861	0.1
288.232	0.16
288.603	0.15
288.974	0.12
289.345	0.07
289.716	0.08
290.087	0.13
290.458	0.13
290.829	0.12
291.2	0.15
291.571	0.1
291.941	0.14
292.312	0.12
292.683	0.09
293.054	0.09
293.424	0.16
293.795	0.08
294.166	0.16
294.536	0.11
294.907	0.05
295.277	0.04
295.648	0.13
296.018	0.12
296.389	0.12
296.759	0.11
297.13	0.11
297.5	0.12
297.871	0.13
298.241	0.1
298.611	0.14
298.981	0.17
299.352	0.13
299.722	0.05
300.092	0.15
300.462	0.14
300.832	0.1
301.202	0.11
301.573	0.1
301.943	0.09
302.313	0.14
302.683	0.13
303.053	0.08
303.422	0.11
303.792	0.1
304.162	0.08
304.532	0.05
304.902	0.14
305.272	0.06
305.641	0.07
306.011	0.08
306.381	0.09
306.75	0.09
307.12	0.08
307.49	0.06
307.859	0.08
308.229	0.07
308.598	0.09
308.968	0.08
309.337	0.08
309.707	0.1
310.076	0.07
310.445	0.06
310.815	0.07
311.184	0.06
311.553	0.06
311.923	0.07
312.292	0.08
312.661	0.07
313.03	0.09
313.399	0.09
313.768	0.09
314.137	0.07
314.506	0.08
314.875	0.08
315.244	0.08
315.613	0.08
315.982	0.08
316.351	0.08
316.72	0.08
317.089	0.07
317.458	0.09
317.826	0.08
318.195	0.09
318.564	0.08
318.933	0.09
319.301	0.09
319.67	0.1
320.038	0.1
320.407	0.1
320.775	0.1
321.144	0.1
321.512	0.09
321.881	0.1
322.249	0.1
322.618	0.1
322.986	0.11
323.354	0.1
323.723	0.1
324.091	0.1
324.459	0.11
324.827	0.11
325.195	0.1
325.564	0.11
325.932	0.12
326.3	0.11
326.668	0.11
327.036	0.12
327.404	0.12
327.772	0.12
328.14	0.13
328.508	0.13
328.875	0.12
329.243	0.13
329.611	0.13
329.979	0.12
330.346	0.13
330.714	0.13
331.082	0.14
331.449	0.14
331.817	0.14
332.185	0.14
332.552	0.15
332.92	0.15
333.287	0.15
333.655	0.15
334.022	0.15
334.389	0.16
334.757	0.16
335.124	0.16
335.491	0.16
335.859	0.17
336.226	0.17
336.593	0.18
336.96	0.17
337.327	0.18
337.695	0.18
338.062	0.19
338.429	0.19
338.796	0.19
339.163	0.19
339.53	0.19
339.897	0.2
340.263	0.2
340.63	0.2
340.997	0.21
341.364	0.21
341.731	0.22
342.097	0.23
342.464	0.22
342.831	0.23
343.197	0.24
343.564	0.24
343.931	0.24
344.297	0.24
344.664	0.25
345.03	0.25
345.396	0.25
345.763	0.26
346.129	0.26
346.496	0.27
346.862	0.27
347.228	0.28
347.594	0.28
347.961	0.28
348.327	0.28
348.693	0.29
349.059	0.29
349.425	0.3
349.791	0.3
350.157	0.3
350.523	0.31
350.889	0.31
351.255	0.31
351.621	0.31
351.987	0.32
352.353	0.33
352.719	0.33
353.084	0.33
353.45	0.34
353.816	0.34
354.181	0.35
354.547	0.35
354.913	0.36
355.278	0.36
355.644	0.36
356.009	0.37
356.375	0.37
356.74	0.38
357.106	0.38
357.471	0.39
357.836	0.39
358.202	0.4
358.567	0.4
358.932	0.41
359.297	0.41
359.663	0.42
360.028	0.43
360.393	0.43
360.758	0.44
361.123	0.45
361.488	0.45
361.853	0.47
362.218	0.47
362.583	0.47
362.948	0.47
363.312	0.48
363.677	0.49
364.042	0.5
364.407	0.49
364.772	0.51
365.136	0.51
365.501	0.52
365.865	0.52
366.23	0.52
366.595	0.53
366.959	0.53
367.324	0.54
367.688	0.55
368.052	0.55
368.417	0.56
368.781	0.56
369.145	0.56
369.51	0.57
369.874	0.57
370.238	0.58
370.602	0.58
370.967	0.59
371.331	0.59
371.695	0.6
372.059	0.6
372.423	0.61
372.787	0.6
373.151	0.6
373.515	0.6
373.878	0.6
374.242	0.6
374.606	0.6
374.97	0.59
375.334	0.59
375.697	0.58
376.061	0.57
376.425	0.57
376.788	0.57
377.152	0.56
377.515	0.56
377.879	0.55
378.242	0.54
378.606	0.54
378.969	0.53
379.333	0.53
379.696	0.52
380.059	0.52
380.422	0.51
380.786	0.5
381.149	0.51
381.512	0.5
381.875	0.5
382.238	0.5
382.601	0.49
382.964	0.49
383.327	0.48
383.69	0.48
384.053	0.48
384.416	0.47
384.779	0.47
385.142	0.47
385.504	0.47
385.867	0.47
386.23	0.47
386.593	0.48
386.955	0.47
387.318	0.48
387.68	0.48
388.043	0.48
388.405	0.48
388.768	0.48
389.13	0.48
389.493	0.48
389.855	0.48
390.217	0.48
390.58	0.48
390.942	0.47
391.304	0.47
391.666	0.47
392.028	0.46
392.391	0.45
392.753	0.45
393.115	0.45
393.477	0.45
393.839	0.44
394.201	0.44
394.563	0.43
394.924	0.44
395.286	0.44
395.648	0.44
396.01	0.45
396.371	0.45
396.733	0.46
397.095	0.47
397.456	0.48
397.818	0.49
398.18	0.5
398.541	0.52
398.903	0.53
399.264	0.55
399.625	0.56
399.987	0.57
400.348	0.59
400.709	0.59
401.071	0.6
401.432	0.6
401.793	0.6
402.154	0.6
402.515	0.59
402.876	0.59
403.238	0.57
403.599	0.56
403.96	0.54
404.32	0.52
404.681	0.5
405.042	0.48
405.403	0.46
405.764	0.44
406.125	0.41
406.485	0.4
406.846	0.37
407.207	0.35
407.567	0.34
407.928	0.32
408.288	0.3
408.649	0.28
409.009	0.26
409.37	0.25
409.73	0.23
410.091	0.22
410.451	0.21
410.811	0.2
411.171	0.19
411.532	0.17
411.892	0.17
412.252	0.16
412.612	0.16
412.972	0.15
413.332	0.14
413.692	0.13
414.052	0.13
414.412	0.12
414.772	0.12
415.132	0.11
415.492	0.11
415.851	0.11
416.211	0.11
416.571	0.09
416.931	0.1
417.29	0.09
417.65	0.09
418.009	0.09
418.369	0.08
418.728	0.09
419.088	0.08
419.447	0.08
419.807	0.07
420.166	0.07
420.525	0.08
420.884	0.07
421.244	0.07
421.603	0.07
421.962	0.07
422.321	0.07
422.68	0.06
423.039	0.06
423.398	0.07
423.757	0.06
424.116	0.06
424.475	0.06
424.834	0.06
425.193	0.05
425.551	0.06
425.91	0.05
426.269	0.06
426.628	0.05
426.986	0.06
427.345	0.05
427.703	0.06
428.062	0.06
428.42	0.05
428.779	0.04
429.137	0.05
429.496	0.06
429.854	0.05
430.212	0.05
430.57	0.05
430.929	0.05
431.287	0.05
431.645	0.05
432.003	0.05
432.361	0.05
432.719	0.04
433.077	0.04
433.435	0.05
433.793	0.05
434.151	0.04
434.509	0.04
434.866	0.04
435.224	0.05
435.582	0.04
435.94	0.04
436.297	0.05
436.655	0.05
437.012	0.05
437.37	0.05
437.727	0.05
438.085	0.03
438.442	0.04
438.8	0.04
439.157	0.04
439.514	0.04
439.872	0.04
440.229	0.04
440.586	0.04
440.943	0.04
441.3	0.04
441.657	0.04
442.014	0.03
442.371	0.05
442.728	0.04
443.085	0.04
443.442	0.05
443.799	0.04
444.156	0.04
444.513	0.04
444.869	0.04
445.226	0.04
445.583	0.04
445.939	0.04
446.296	0.04
446.652	0.04
447.009	0.03
447.365	0.04
447.722	0.04
448.078	0.04
448.434	0.04
448.791	0.03
449.147	0.04
449.503	0.04
449.859	0.05
450.215	0.04
450.571	0.03
450.928	0.04
451.284	0.04
451.64	0.03
451.995	0.04
452.351	0.03
452.707	0.04
453.063	0.03
453.419	0.02
453.775	0.03
454.13	0.03
454.486	0.03
454.842	0.03
455.197	0.02
455.553	0.02
455.908	0.01
456.264	0.01
456.619	0.01
456.975	0.01
457.33	0.02
457.685	0.01
458.04	0.01
458.396	0.01
458.751	0.01
459.106	0.01
459.461	-0
459.816	-0
460.171	-0
460.526	0
460.881	-0
461.236	-0
461.591	-0
461.946	-0.01
462.301	-0.01
462.655	-0.01
463.01	-0.01
463.365	-0.01
463.719	-0.02
464.074	-0.03
464.428	-0.03
464.783	-0.03
465.137	-0.04
465.492	-0.03
465.846	-0.03
466.201	-0.04
466.555	-0.03
466.909	-0.03
467.263	-0.03
467.618	-0.03
467.972	-0.03
468.326	-0.03
468.68	-0.04
469.034	-0.04
469.388	-0.03
469.742	-0.04
470.096	-0.03
470.45	-0.03
470.804	-0.03
471.157	-0.04
471.511	-0.03
471.865	-0.04
472.218	-0.03
472.572	-0.03
472.926	-0.03
473.279	-0.02
473.633	-0.02
473.986	-0.01
474.34	-0.01
474.693	-0
475.046	0.01
475.4	0
475.753	0.01
476.106	0.02
476.459	0.02
476.812	0.02
477.165	0.03
477.519	0.04
477.872	0.03
478.224	0.03
478.577	0.04
478.93	0.04
479.283	0.05
479.636	0.05
479.989	0.05
480.341	0.05
480.694	0.06
481.047	0.06
481.399	0.06
481.752	0.07
482.104	0.07
482.457	0.07
482.809	0.07
483.162	0.07
483.514	0.08
483.866	0.08
484.219	0.08
484.571	0.09
484.923	0.08
485.275	0.09
485.627	0.09
485.979	0.09
486.331	0.09
486.683	0.09
487.035	0.09
487.387	0.1
487.739	0.1
488.091	0.1
488.443	0.11
488.794	0.11
489.146	0.11
489.498	0.11
489.849	0.11
490.201	0.11
490.552	0.11
490.904	0.11
491.255	0.11
491.607	0.11
491.958	0.11
492.309	0.11
492.661	0.12
493.012	0.12
493.363	0.12
493.714	0.12
494.065	0.12
494.416	0.12
494.767	0.12
495.118	0.13
495.469	0.13
495.82	0.13
496.171	0.13
496.522	0.13
496.872	0.14
497.223	0.14
497.574	0.14
497.924	0.13
498.275	0.14
498.626	0.14
498.976	0.15
499.327	0.14
499.677	0.14
500.027	0.15
500.378	0.15
500.728	0.15
501.078	0.15
501.428	0.16
501.779	0.15
502.129	0.16
502.479	0.16
502.829	0.16
503.179	0.16
503.529	0.16
503.879	0.16
504.229	0.16
504.578	0.16
504.928	0.16
505.278	0.17
505.628	0.17
505.977	0.17
506.327	0.17
506.676	0.18
507.026	0.17
507.375	0.17
507.725	0.17
508.074	0.17
508.424	0.18
508.773	0.17
509.122	0.18
509.471	0.18
509.82	0.18
510.17	0.18
510.519	0.19
510.868	0.19
511.217	0.19
511.566	0.19
511.915	0.18
512.263	0.19
512.612	0.19
512.961	0.19
513.31	0.19
513.659	0.19
514.007	0.19
514.356	0.2
514.704	0.2
515.053	0.2
515.401	0.2
515.75	0.2
516.098	0.2
516.447	0.2
516.795	0.21
517.143	0.21
517.491	0.21
517.839	0.2
518.188	0.21
518.536	0.21
518.884	0.21
519.232	0.21
519.58	0.21
519.928	0.21
520.275	0.21
520.623	0.21
520.971	0.22
521.319	0.22
521.666	0.22
522.014	0.22
522.362	0.22
522.709	0.22
523.057	0.22
523.404	0.22
523.752	0.22
524.099	0.22
524.446	0.23
524.794	0.22
525.141	0.22
525.488	0.23
525.835	0.22
526.182	0.23
526.529	0.23
526.876	0.23
527.223	0.23
527.57	0.23
527.917	0.23
528.264	0.23
528.611	0.23
528.958	0.23
529.304	0.23
529.651	0.24
529.998	0.23
530.344	0.23
530.691	0.24
531.037	0.24
531.384	0.24
531.73	0.24
532.076	0.24
532.423	0.24
532.769	0.24
533.115	0.24
533.461	0.24
533.807	0.24
534.154	0.24
534.5	0.25
534.846	0.24
535.192	0.25
535.537	0.25
535.883	0.25
536.229	0.25
536.575	0.25
536.921	0.25
537.266	0.25
537.612	0.25
537.957	0.25
538.303	0.25
538.649	0.25
538.994	0.26
539.339	0.25
539.685	0.26
540.03	0.25
540.375	0.26
540.721	0.26
541.066	0.26
541.411	0.26
541.756	0.26
542.101	0.26
542.446	0.26
542.791	0.26
543.136	0.26
543.481	0.26
543.825	0.26
544.17	0.26
544.515	0.26
544.86	0.26
545.204	0.27
545.549	0.26
545.893	0.27
546.238	0.27
546.582	0.26
546.927	0.27
547.271	0.27
547.615	0.27
547.96	0.26
548.304	0.27
548.648	0.27
548.992	0.27
549.336	0.27
549.68	0.27
550.024	0.27
550.368	0.27
550.712	0.27
551.056	0.27
551.4	0.27
551.743	0.27
552.087	0.27
552.431	0.27
552.774	0.27
553.118	0.27
553.462	0.27
553.805	0.27
554.148	0.27
554.492	0.27
554.835	0.28
555.178	0.27
555.522	0.27
555.865	0.27
556.208	0.27
556.551	0.28
556.894	0.27
557.237	0.27
557.58	0.27
557.923	0.27
558.266	0.27
558.609	0.27
558.952	0.27
559.294	0.27
559.637	0.27
559.98	0.27
560.322	0.27
560.665	0.27
561.007	0.27
561.35	0.27
561.692	0.27
562.034	0.28
562.377	0.27
562.719	0.27
563.061	0.27
563.403	0.27
563.745	0.27
564.088	0.27
564.43	0.27
564.772	0.27
565.113	0.27
565.455	0.28
565.797	0.27
566.139	0.27
566.481	0.27
566.822	0.27
567.164	0.27
567.506	0.27
567.847	0.27
568.189	0.27
568.53	0.27
568.872	0.27
569.213	0.27
569.554	0.27
569.895	0.27
570.237	0.27
570.578	0.27
570.919	0.27
571.26	0.26
571.601	0.27
571.942	0.26
572.283	0.26
572.624	0.26
572.965	0.26
573.306	0.26
573.646	0.26
573.987	0.26
574.328	0.26
574.668	0.26
575.009	0.26
575.349	0.26
575.69	0.26
576.03	0.26
576.37	0.25
576.711	0.25
577.051	0.25
577.391	0.25
577.731	0.26
578.072	0.26
578.412	0.25
578.752	0.25
579.092	0.25
579.431	0.24
579.771	0.22
580.111	0.21
580.451	0.22
580.791	0.24
581.13	0.25
581.47	0.25
581.81	0.24
582.149	0.25
582.489	0.25
582.828	0.24
583.167	0.21
583.507	0.17
583.846	0.16
584.185	0.19
584.525	0.21
584.864	0.24
585.203	0.25
585.542	0.25
585.881	0.25
586.22	0.25
586.559	0.24
586.898	0.23
587.236	0.22
587.575	0.22
587.914	0.23
588.252	0.24
588.591	0.25
588.93	0.25
589.268	0.24
589.607	0.24
589.945	0.24
590.283	0.24
590.622	0.24
590.96	0.25
591.298	0.25
591.636	0.25
591.974	0.25
592.313	0.25
592.651	0.25
592.989	0.26
593.326	0.25
593.664	0.26
594.002	0.26
594.34	0.25
594.678	0.25
595.015	0.24
595.353	0.23
595.691	0.24
596.028	0.25
596.366	0.25
596.703	0.25
597.04	0.26
597.378	0.26
597.715	0.26
598.052	0.26
598.389	0.26
598.726	0.26
599.064	0.25
599.401	0.25
599.738	0.25
600.074	0.25
600.411	0.25
600.748	0.25
601.085	0.25
601.422	0.24
601.758	0.24
602.095	0.25
602.432	0.24
602.768	0.25
603.105	0.25
603.441	0.25
603.777	0.25
604.114	0.25
604.45	0.26
604.786	0.25
605.122	0.25
605.459	0.25
605.795	0.25
606.131	0.25
606.467	0.25
606.803	0.25
607.139	0.25
607.474	0.25
607.81	0.25
608.146	0.25
608.482	0.25
608.817	0.25
609.153	0.25
609.488	0.24
609.824	0.24
610.159	0.24
610.495	0.24
610.83	0.25
611.165	0.25
611.5	0.25
611.836	0.24
612.171	0.24
612.506	0.24
612.841	0.25
613.176	0.25
613.511	0.25
613.845	0.24
614.18	0.24
614.515	0.24
614.85	0.24
615.184	0.24
615.519	0.24
615.854	0.24
616.188	0.23
616.523	0.23
616.857	0.23
617.191	0.23
617.526	0.23
617.86	0.23
618.194	0.23
618.528	0.23
618.862	0.23
619.196	0.23
619.53	0.23
619.864	0.23
620.198	0.23
620.532	0.23
620.866	0.23
621.2	0.23
621.533	0.23
621.867	0.23
622.201	0.22
622.534	0.23
622.868	0.23
623.201	0.22
623.534	0.22
623.868	0.22
624.201	0.22
624.534	0.22
624.868	0.21
625.201	0.21
625.534	0.21
625.867	0.21
626.2	0.21
626.533	0.21
626.865	0.21
627.198	0.21
627.531	0.21
627.864	0.21
628.196	0.21
628.529	0.21
628.862	0.21
629.194	0.2
629.527	0.2
629.859	0.2
630.191	0.2
630.524	0.2
630.856	0.2
631.188	0.2
631.52	0.2
631.852	0.2
632.184	0.19
632.516	0.19
632.848	0.19
633.18	0.19
633.512	0.19
633.844	0.19
634.175	0.19
634.507	0.18
634.839	0.19
635.17	0.18
635.502	0.18
635.833	0.18
636.165	0.18
636.496	0.18
636.827	0.18
637.159	0.17
637.49	0.17
637.821	0.17
638.152	0.17
638.483	0.17
638.814	0.17
639.145	0.17
639.476	0.17
639.807	0.17
640.137	0.16
640.468	0.16
640.799	0.16
641.129	0.16
641.46	0.16
641.791	0.15
642.121	0.16
642.451	0.16
642.782	0.15
643.112	0.16
643.442	0.15
643.773	0.15
644.103	0.15
644.433	0.15
644.763	0.15
645.093	0.15
645.423	0.15
645.753	0.15
646.082	0.15
646.412	0.15
646.742	0.15
647.072	0.15
647.401	0.15
647.731	0.14
648.06	0.14
648.39	0.14
648.719	0.14
649.048	0.13
649.378	0.14
649.707	0.13
650.036	0.13
650.365	0.13
650.694	0.13
651.023	0.13
651.352	0.13
651.681	0.13
652.01	0.13
652.339	0.13
652.668	0.13
652.996	0.13
653.325	0.13
653.654	0.14
653.982	0.14
654.311	0.14
654.639	0.13
654.967	0.13
655.296	0.13
655.624	0.13
655.952	0.13
656.28	0.13
656.609	0.13
656.937	0.13
657.265	0.13
657.593	0.03
657.92	0
658.248	-0
658.576	0
658.904	0.01
659.231	0.07
659.559	0.12
659.887	0.12
660.214	0.12
660.542	0.12
660.869	0.12
661.196	0.12
661.524	0.12
661.851	0.12
662.178	0.12
662.505	0.12
662.832	0.12
663.159	0.13
663.486	0.12
663.813	0.13
664.14	0.12
664.467	0.12
664.794	0.12
665.12	0.12
665.447	0.12
665.774	0.12
666.1	0.12
666.427	0.12
666.753	0.12
667.079	0.12
667.406	0.12
667.732	0.12
668.058	0.12
668.384	0.12
668.71	0.12
669.036	0.11
669.362	0.12
669.688	0.11
670.014	0.11
670.34	0.11
670.666	0.11
670.991	0.11
671.317	0.1
671.643	0.1
671.968	0.1
672.294	0.1
672.619	0.1
672.945	0.1
673.27	0.1
673.595	0.1
673.92	0.1
674.246	0.1
674.571	0.1
674.896	0.1
675.221	0.1
675.546	0.1
675.87	0.1
676.195	0.1
676.52	0.1
676.845	0.09
677.169	0.09
677.494	0.09
677.819	0.09
678.143	0.09
678.468	0.09
678.792	0.08
679.116	0.08
679.44	0.08
679.765	0.08
680.089	0.08
680.413	0.08
680.737	0.08
681.061	0.08
681.385	0.08
681.709	0.07
682.033	0.07
682.356	0.07
682.68	0.07
683.004	0.07
683.327	0.07
683.651	0.07
683.974	0.07
684.298	0.07
684.621	0.07
684.944	0.07
685.268	0.07
685.591	0.07
685.914	0.06
686.237	0.06
686.56	0.06
686.883	0.06
687.206	0.06
687.529	0.05
687.852	0.05
688.175	0.05
688.497	0.06
688.82	0.06
689.142	0.06
689.465	0.06
689.787	0.06
690.11	0.06
690.432	0.05
690.755	0.06
691.077	0.05
691.399	0.05
691.721	0.05
692.043	0.05
692.365	0.05
692.687	0.05
693.009	0.05
693.331	0.05
693.653	0.04
693.974	0.04
694.296	0.04
694.618	0.04
694.939	0.04
695.261	0.04
695.582	0.04
695.904	0.04
696.225	0.05
696.546	0.05
696.868	0.04
697.189	0.04
697.51	0.04
697.831	0.04
698.152	0.04
698.473	0.04
698.794	0.03
699.114	0.03
699.435	0.02
699.756	0.02
700.077	0.03
700.397	0.03
700.718	0.03
701.038	0.03
701.359	0.03
701.679	0.03
701.999	0.03
702.32	0.03
702.64	0.03
702.96	0.03
703.28	0.03
703.6	0.04
703.92	0.03
704.24	0.03
704.56	0.03
704.879	0.02
705.199	0.03
705.519	0.03
705.838	0.03
706.158	0.03
706.478	0.03
706.797	0.03
707.116	0.03
707.436	0.03
707.755	0.03
708.074	0.03
708.393	0.03
708.712	0.02
709.031	0.01
709.35	0.01
709.669	0.01
709.988	0.01
710.307	0.02
710.626	0.02
710.944	0.02
711.263	0.02
711.582	0.02
711.9	0.03
712.219	0.02
712.537	0.02
712.855	0.03
713.174	0.02
713.492	0.02
713.81	0.03
714.128	0.02
714.446	0.03
714.764	0.02
715.082	0.02
715.4	0.02
715.718	0.02
716.035	0.02
716.353	0.02
716.671	0.02
716.988	0.02
717.306	0.02
717.623	0.02
717.941	0.03
718.258	0.03
718.575	0.03
718.893	0.03
719.21	0.03
719.527	0.03
719.844	0.03
720.161	0.03
720.478	0.03
720.795	0.03
721.112	0.03
721.428	0.03
721.745	0.03
722.062	0.03
722.378	0.03
722.695	0.03
723.011	0.03
723.328	0.03
723.644	0.03
723.96	0.03
724.276	0.03
724.593	0.03
724.909	0.03
725.225	0.03
725.541	0.03
725.857	0.04
726.173	0.04
726.488	0.04
726.804	0.03
727.12	0.04
727.435	0.03
727.751	0.04
728.067	0.03
728.382	0.04
728.697	0.04
729.013	0.04
729.328	0.03
729.643	0.04
729.958	0.03
730.273	0.04
730.588	0.03
730.903	0.04
731.218	0.04
731.533	0.04
731.848	0.03
732.163	0.03
732.477	0.03
732.792	0.03
733.107	0.03
733.421	0.03
733.736	0.03
734.05	0.03
734.364	0.03
734.678	0.03
734.993	0.03
735.307	0.03
735.621	0.03
735.935	0.03
736.249	0.03
736.563	0.03
736.877	0.03
737.19	0.03
737.504	0.03
737.818	0.03
738.131	0.03
738.445	0.03
738.758	0.03
739.072	0.03
739.385	0.03
739.698	0.03
740.012	0.03
740.325	0.03
740.638	0.03
740.951	0.03
741.264	0.03
741.577	0.03
741.89	0.03
742.203	0.03
742.515	0.03
742.828	0.03
743.141	0.03
743.453	0.03
743.766	0.02
744.078	0.02
744.391	0.02
744.703	0.02
745.015	0.02
745.327	0.02
745.639	0.02
745.952	0.02
746.264	0.02
746.575	0.02
746.887	0.02
747.199	0.02
747.511	0.02
747.823	0.02
748.134	0.02
748.446	0.02
748.757	0.02
749.069	0.02
749.38	0.02
749.692	0.02
750.003	0.02
750.314	0.02
750.625	0.02
750.936	0.02
751.248	0.02
751.559	0.02
751.869	0.02
752.18	0.02
752.491	0.02
752.802	0.02
753.112	0.02
753.423	0.02
753.734	0.02
754.044	0.02
754.355	0.02
754.665	0.02
754.975	0.02
755.285	0.02
755.596	0.02
755.906	0.02
756.216	0.02
756.526	0.02
756.836	0.01
757.146	0.01
757.455	0.01
757.765	0.01
758.075	0.01
758.385	0.01
758.694	0.01
759.004	0.01
759.313	0.01
759.622	0.01
759.932	0.01
760.241	0.01
760.55	0.01
760.859	0.01
761.168	0.01
761.477	0.01
761.786	0
762.095	0
762.404	0
762.713	0.01
763.021	0.01
763.33	0.01
763.639	0.01
763.947	0.01
764.256	0.01
764.564	0.01
764.872	0.01
765.181	0.01
765.489	0.01
765.797	0.01
766.105	0.01
766.413	0.01
766.721	0.01
767.029	0.01
767.337	0.01
767.644	0.01
767.952	0.01
768.26	0.01
768.567	0.01
768.875	0.01
769.182	0.01
769.49	0.01
769.797	0.01
770.104	0.01
770.411	0.01
770.718	0.01
771.026	0
771.333	0
771.639	0.01
771.946	0.01
772.253	0.01
772.56	0.01
772.867	0.01
773.173	0.01
773.48	0.01
773.786	0.01
774.093	0.01
774.399	0.01
774.705	0.01
775.012	0.01
775.318	0.01
775.624	0.01
775.93	0.01
776.236	0.01
776.542	0.01
776.848	0.01
777.154	0.01
777.459	0.01
777.765	0.01
778.071	0.01
778.376	0.01
778.682	0.01
778.987	0.01
779.292	0.01
779.598	0.01
779.903	0.01
780.208	0.01
780.513	0.01
780.818	0.01
781.123	0.01
781.428	0.01
781.733	0.01
782.038	0.01
782.343	0.01
782.647	0.01
782.952	0.01
783.256	0.01
783.561	0.01
783.865	0.01
784.17	0.01
784.474	0.01
784.778	0.01
785.082	0.01
785.386	0.01
785.69	0.01
785.994	0.01
786.298	0.01
786.602	0.01
786.906	0.02
787.209	0.02
787.513	0.02
787.817	0.02
788.12	0.01
788.424	0.01
788.727	0.01
789.03	0.01
789.333	0.01
789.637	0.01
789.94	0.02
790.243	0.02
790.546	0.01
790.849	0.02
791.152	0.02
791.454	0.02
791.757	0.02
792.06	0.02
792.362	0.01
792.665	0.01
792.967	0.01
793.27	0.02
793.572	0.02
793.874	0.02
794.177	0.02
794.479	0.02
794.781	0.01
795.083	0.02
795.385	0.02
795.687	0.02
795.989	0.01
796.29	0.02
796.592	0.02
796.894	0.02
797.195	0.01
797.497	0.02
797.798	0.01
798.1	0.01
798.401	0.01
798.702	0.01
799.003	0.01
799.304	0.01
799.605	0
799.906	0.01
800.207	0
800.508	0
800.809	0
801.11	0
801.41	0
801.711	0
802.011	0
802.312	0.01
802.612	0.01
802.913	0.01
803.213	0.01
803.513	0.02
803.813	0.01
804.113	0.02
804.413	0.02
804.713	0.02
805.013	0.02
805.313	0.02
805.613	0.02
805.912	0.02
806.212	0.02
806.511	0.02
806.811	0.02
807.11	0.01
807.41	0.02
807.709	0.02
808.008	0.02
808.307	0.02
808.606	0.02
808.905	0.01
809.204	0.02
809.503	0.02
809.802	0.02
810.101	0.02
810.399	0.02
810.698	0.02
810.997	0.02
811.295	0.01
811.593	0.02
811.892	0.02
812.19	0.02
812.488	0.02
812.786	0.01
813.084	0.02
813.383	0.02
813.68	0.02
813.978	0.02
814.276	0.02
814.574	0.02
814.872	0.02
815.169	0.02
815.467	0.02
815.764	0.02
816.062	0.02
816.359	0.02
816.656	0.02
816.954	0.02
817.251	0.02
817.548	0.02
817.845	0.02
818.142	0.02
818.439	0.02
818.735	0.02
819.032	0.02
819.329	0.02
819.626	0.02
819.922	0.02
820.219	0.02
820.515	0.02
820.811	0.01
821.108	0.02
821.404	0.02
821.7	0.02
821.996	0.02
822.292	0.01
822.588	0.02
822.884	0.02
823.18	0.02
823.475	0.02
823.771	0.02
824.067	0.02
824.362	0.01
824.658	0.02
824.953	0.02
825.249	0.02
825.544	0.01
825.839	0.01
826.134	0.02
826.429	0.01
826.724	0.01
827.019	0.02
827.314	0.02
827.609	0.02
827.904	0.02
828.198	0.02
828.493	0.02
828.787	0.02
829.082	0.02
829.376	0.02
829.671	0.02
829.965	0.02
830.259	0.02
830.553	0.02
830.847	0.02
831.141	0.02
831.435	0.02
831.729	0.02
832.023	0.02
832.317	0.02
832.61	0.02
832.904	0.02
833.197	0.02
833.491	0.02
833.784	0.02
834.077	0.02
834.371	0.03
834.664	0.02
834.957	0.03
835.25	0.03
835.543	0.02
835.836	0.03
836.129	0.02
836.421	0.03
836.714	0.03
837.007	0.02
837.299	0.03
837.592	0.02
837.884	0.02
838.177	0.02
838.469	0.02
838.761	0.03
839.053	0.02
839.345	0.02
839.637	0.03
839.929	0.02
840.221	0.02
840.513	0.02
840.805	0.02
841.096	0.03
841.388	0.02
841.68	0.03
841.971	0.03
842.262	0.02
842.554	0.02
842.845	0.03
843.136	0.03
843.427	0.02
843.718	0.02
844.009	0.02
844.3	0.03
844.591	0.02
844.882	0.02
845.173	0.03
845.463	0.02
845.754	0.03
846.044	0.03
846.335	0.02
846.625	0.03
846.915	0.04
847.206	0.04
847.496	0.03
847.786	0.05
848.076	0.03
848.366	0.03
848.656	0.04
848.945	0.03
849.235	0.03
849.525	0.04
849.814	0.04
850.104	0.04
850.393	0.04
850.683	0.04
850.972	0.04
851.261	0.02
851.551	0.02
851.84	0.02
852.129	0.02
852.418	0.02
852.707	0.02
852.995	0.04
853.284	0.03
853.573	0.03
853.862	0.03
854.15	0.02
854.439	0.03
854.727	0.05
855.015	0.04
855.304	0.04
855.592	0.04
855.88	0.04
856.168	0.04
856.456	0.04
856.744	0.03
857.032	0.04
857.32	0.03
857.607	0.04
857.895	0.02
858.183	0.03
858.47	0.04
858.757	0.03
859.045	0.05
859.332	0.04
859.619	0.02
859.907	0.04
860.194	0.04
860.481	0.04
860.768	0.03
861.054	0.04
861.341	0.03
861.628	0.03
861.915	0.01
862.201	0.02
862.488	0.03
862.774	0.03
863.061	0.03
863.347	0.03
863.633	0.02
863.919	0.02
864.205	0.03
864.491	0.03
864.777	0.05
865.063	0.04
865.349	0.04
865.635	0.05
865.92	0.04
866.206	0.03
866.492	0.03
866.777	0.04
867.062	0.04
867.348	0.04
867.633	0.05
867.918	0.03
868.203	0.04
868.488	0.05
868.773	0.06
869.058	0.04
869.343	0.04
869.628	0.06
869.912	0.03
870.197	0.01
870.482	0.04
870.766	0.03
871.05	0.01
871.335	0.03
871.619	0.03
871.903	0.02
872.187	0.02
872.471	0.03
872.755	0.01
873.039	0.01
873.323	0
873.607	0.03
873.89	0.03
874.174	0.02
874.458	0.02
874.741	0.09
875.024	0.05
875.308	0.06
875.591	0.01
875.874	-0.03
876.157	-0.02
876.44	0.03
876.723	0.09
877.006	-0.01
877.289	0.01
877.572	-0.04
877.854	0.06
878.137	0.11
878.42	-0.03
878.702	0.01
878.984	0.05
879.267	-0.03
879.549	0.06
879.831	0.06
880.113	0.06
880.395	0.01
880.677	-0.06
880.959	0
