Data from Rubpy_BV_1200_EDTA_Buffered_Absorbance_13-44-42-247.txt Node
Date: Wed Jul 01 13:44:42 BST 2026
User: fpm-admin
Spectrometer: OFX00224
Trigger mode: 0
Integration Time (sec): 7.000000E-2
Scans to average: 3
Nonlinearity correction enabled: false
Boxcar width: 0
Storing dark spectrum: false
XAxis mode: Wavelengths
Number of Pixels in Spectrum: 2136
>>>>>Begin Spectral Data<<<<<
154.91	-0
155.289	-0.4
155.669	-0.62
156.048	-1.05
156.428	-0
156.807	-0.23
157.186	-0
157.566	0.6
157.945	-0.27
158.325	-0.05
158.704	-1.03
159.083	0.12
159.462	-0.18
159.842	-0.11
160.221	-0
160.6	-0
160.979	0.27
161.359	-0
161.738	0.36
162.117	0.56
162.496	0.15
162.875	0.38
163.254	-0
163.633	-0.55
164.012	-0
164.391	0.27
164.77	-0.09
165.149	-0.22
165.528	-0
165.907	0.23
166.286	0.21
166.665	0.15
167.044	-1.51
167.423	-0.04
167.802	0.1
168.181	-0
168.559	0.41
168.938	-0.2
169.317	-0.06
169.696	-0
170.074	0.18
170.453	-0
170.832	-0.27
171.21	-0.23
171.589	0.07
171.968	-0
172.346	-0
172.725	-0
173.103	-0.27
173.482	-0.19
173.861	-0
174.239	1.11
174.617	0.88
174.996	-0.3
175.374	-0
175.753	-0.14
176.131	-0.85
176.51	0.23
176.888	-0
177.266	-0
177.645	0.11
178.023	0.2
178.401	-0.15
178.779	0.82
179.158	-0.9
179.536	-0.15
179.914	-0
180.292	-0
180.67	0.56
181.048	-0
181.427	-0.6
181.805	-0
182.183	-0.25
182.561	-0
182.939	-0
183.317	-0.64
183.695	-0
184.073	-0.15
184.451	-0.9
184.829	0.15
185.206	-0.19
185.584	-0
185.962	-0
186.34	-0.99
186.718	-0
187.096	0.49
187.473	-0.51
187.851	0.32
188.229	-0
188.607	0.08
188.984	0.17
189.362	0.24
189.74	0.11
190.117	0.3
190.495	0.11
190.872	0.12
191.25	0.16
191.627	0.16
192.005	0.08
192.382	0.08
192.76	0.12
193.137	0.16
193.515	0.04
193.892	0.2
194.269	0.2
194.647	0.13
195.024	0.11
195.401	0.1
195.779	0.03
196.156	0.09
196.533	0.13
196.91	0.09
197.288	0.07
197.665	0.14
198.042	0.07
198.419	0.22
198.796	-0.01
199.173	0.12
199.55	0.14
199.927	0.25
200.304	0.13
200.681	0.13
201.058	0.18
201.435	0.05
201.812	0.12
202.189	0.09
202.566	0.16
202.943	0.11
203.32	0.16
203.697	0.11
204.073	0.12
204.45	0.12
204.827	0.16
205.204	0.19
205.58	0.18
205.957	0.12
206.334	0.14
206.71	0.14
207.087	0.19
207.464	0.11
207.84	0.16
208.217	0.13
208.593	0.09
208.97	-0.02
209.346	0.23
209.723	0.18
210.099	0.06
210.476	0.11
210.852	0.12
211.228	0.16
211.605	0.08
211.981	0.12
212.357	0.17
212.733	0.1
213.11	0.1
213.486	0.14
213.862	0.21
214.238	0.17
214.614	0.15
214.991	0.1
215.367	0.19
215.743	0.1
216.119	0.09
216.495	0.15
216.871	0.23
217.247	0.12
217.623	0.24
217.999	0.2
218.375	0.22
218.751	0.08
219.127	0.11
219.502	0.12
219.878	0.16
220.254	0.21
220.63	0.14
221.006	0.16
221.381	0.22
221.757	0.06
222.133	0.07
222.508	0.12
222.884	0.18
223.26	0.14
223.635	0.12
224.011	0.12
224.386	0.21
224.762	0.16
225.137	0.17
225.513	0.13
225.888	0.15
226.264	0.18
226.639	0.17
227.014	0.21
227.39	0.12
227.765	0.19
228.14	0.31
228.516	0.1
228.891	0.18
229.266	0.18
229.641	0.2
230.017	0.15
230.392	0.3
230.767	0.21
231.142	0.21
231.517	0.13
231.892	0.11
232.267	0.12
232.642	0.18
233.017	0.15
233.392	0.16
233.767	0.17
234.142	0.14
234.517	0.16
234.892	0.08
235.267	0.12
235.641	0.25
236.016	0.15
236.391	0.09
236.766	0.16
237.14	0.15
237.515	0.22
237.89	0.13
238.264	0.18
238.639	0.21
239.014	0.11
239.388	0.23
239.763	0.21
240.137	0.16
240.512	0.19
240.886	0.19
241.261	0.21
241.635	0.17
242.009	0.13
242.384	0.21
242.758	0.16
243.132	0.22
243.507	0.17
243.881	0.17
244.255	0.18
244.629	0.17
245.004	0.17
245.378	0.13
245.752	0.14
246.126	0.11
246.5	0.14
246.874	0.16
247.248	0.22
247.622	0.19
247.996	0.22
248.37	0.15
248.744	0.06
249.118	0.24
249.492	0.17
249.866	0.21
250.24	0.09
250.613	0.08
250.987	0.21
251.361	0.19
251.735	0.1
252.108	0.14
252.482	0.21
252.856	0.11
253.229	0.16
253.603	0.2
253.977	0.14
254.35	0.18
254.724	0.2
255.097	0.13
255.471	0.23
255.844	0.21
256.218	0.22
256.591	0.16
256.964	0.15
257.338	0.15
257.711	0.18
258.084	0.25
258.458	0.15
258.831	0.18
259.204	0.1
259.577	0.22
259.95	0.2
260.323	0.21
260.697	0.16
261.07	0.2
261.443	0.27
261.816	0.15
262.189	0.17
262.562	0.15
262.935	0.14
263.308	0.18
263.68	0.19
264.053	0.14
264.426	0.16
264.799	0.25
265.172	0.09
265.545	0.17
265.917	0.19
266.29	0.17
266.663	0.17
267.035	0.19
267.408	0.19
267.781	0.18
268.153	0.18
268.526	0.18
268.898	0.13
269.271	0.25
269.643	0.17
270.016	0.15
270.388	0.13
270.76	0.16
271.133	0.2
271.505	0.27
271.877	0.18
272.25	0.21
272.622	0.22
272.994	0.22
273.366	0.13
273.739	0.2
274.111	0.17
274.483	0.25
274.855	0.2
275.227	0.16
275.599	0.25
275.971	0.1
276.343	0.22
276.715	0.17
277.087	0.26
277.459	0.11
277.831	0.1
278.203	0.14
278.574	0.17
278.946	0.25
279.318	0.17
279.69	0.14
280.061	0.21
280.433	0.13
280.805	0.15
281.176	0.18
281.548	0.25
281.92	0.21
282.291	0.18
282.663	0.18
283.034	0.17
283.406	0.17
283.777	0.19
284.148	0.13
284.52	0.13
284.891	0.24
285.262	0.08
285.634	0.19
286.005	0.16
286.376	0.16
286.747	0.18
287.119	0.13
287.49	0.17
287.861	0.14
288.232	0.16
288.603	0.1
288.974	0.22
289.345	0.18
289.716	0.23
290.087	0.18
290.458	0.24
290.829	0.28
291.2	0.17
291.571	0.25
291.941	0.27
292.312	0.2
292.683	0.1
293.054	0.19
293.424	0.18
293.795	0.14
294.166	0.19
294.536	0.16
294.907	0.2
295.277	0.12
295.648	0.18
296.018	0.23
296.389	0.13
296.759	0.15
297.13	0.2
297.5	0.24
297.871	0.21
298.241	0.2
298.611	0.19
298.981	0.26
299.352	0.2
299.722	0.16
300.092	0.19
300.462	0.24
300.832	0.19
301.202	0.18
301.573	0.16
301.943	0.17
302.313	0.2
302.683	0.18
303.053	0.15
303.422	0.19
303.792	0.19
304.162	0.11
304.532	0.12
304.902	0.18
305.272	0.14
305.641	0.11
306.011	0.11
306.381	0.13
306.75	0.14
307.12	0.13
307.49	0.13
307.859	0.13
308.229	0.1
308.598	0.12
308.968	0.11
309.337	0.12
309.707	0.15
310.076	0.12
310.445	0.11
310.815	0.12
311.184	0.1
311.553	0.1
311.923	0.11
312.292	0.12
312.661	0.13
313.03	0.13
313.399	0.14
313.768	0.14
314.137	0.15
314.506	0.14
314.875	0.14
315.244	0.14
315.613	0.15
315.982	0.15
316.351	0.14
316.72	0.14
317.089	0.14
317.458	0.15
317.826	0.16
318.195	0.16
318.564	0.16
318.933	0.16
319.301	0.15
319.67	0.17
320.038	0.16
320.407	0.16
320.775	0.18
321.144	0.18
321.512	0.17
321.881	0.18
322.249	0.18
322.618	0.17
322.986	0.19
323.354	0.19
323.723	0.17
324.091	0.18
324.459	0.2
324.827	0.19
325.195	0.19
325.564	0.2
325.932	0.21
326.3	0.21
326.668	0.21
327.036	0.22
327.404	0.21
327.772	0.22
328.14	0.22
328.508	0.22
328.875	0.22
329.243	0.23
329.611	0.24
329.979	0.23
330.346	0.24
330.714	0.24
331.082	0.25
331.449	0.25
331.817	0.24
332.185	0.26
332.552	0.26
332.92	0.27
333.287	0.27
333.655	0.28
334.022	0.28
334.389	0.29
334.757	0.29
335.124	0.3
335.491	0.3
335.859	0.31
336.226	0.32
336.593	0.32
336.96	0.33
337.327	0.33
337.695	0.34
338.062	0.34
338.429	0.35
338.796	0.36
339.163	0.36
339.53	0.36
339.897	0.38
340.263	0.38
340.63	0.38
340.997	0.39
341.364	0.4
341.731	0.4
342.097	0.42
342.464	0.42
342.831	0.43
343.197	0.43
343.564	0.45
343.931	0.45
344.297	0.46
344.664	0.46
345.03	0.47
345.396	0.47
345.763	0.48
346.129	0.49
346.496	0.51
346.862	0.51
347.228	0.51
347.594	0.52
347.961	0.53
348.327	0.54
348.693	0.54
349.059	0.55
349.425	0.55
349.791	0.56
350.157	0.57
350.523	0.57
350.889	0.58
351.255	0.58
351.621	0.59
351.987	0.6
352.353	0.61
352.719	0.61
353.084	0.62
353.45	0.63
353.816	0.63
354.181	0.64
354.547	0.65
354.913	0.66
355.278	0.66
355.644	0.66
356.009	0.69
356.375	0.7
356.74	0.7
357.106	0.72
357.471	0.71
357.836	0.72
358.202	0.73
358.567	0.75
358.932	0.75
359.297	0.77
359.663	0.78
360.028	0.78
360.393	0.8
360.758	0.8
361.123	0.82
361.488	0.84
361.853	0.84
362.218	0.86
362.583	0.88
362.948	0.88
363.312	0.89
363.677	0.9
364.042	0.9
364.407	0.91
364.772	0.92
365.136	0.93
365.501	0.94
365.865	0.96
366.23	0.96
366.595	0.97
366.959	0.98
367.324	0.98
367.688	1
368.052	1.01
368.417	1.02
368.781	1.02
369.145	1.04
369.51	1.03
369.874	1.05
370.238	1.04
370.602	1.07
370.967	1.06
371.331	1.06
371.695	1.06
372.059	1.08
372.423	1.08
372.787	1.08
373.151	1.07
373.515	1.07
373.878	1.07
374.242	1.07
374.606	1.07
374.97	1.05
375.334	1.04
375.697	1.05
376.061	1.03
376.425	1.03
376.788	1.01
377.152	0.99
377.515	0.99
377.879	0.98
378.242	0.96
378.606	0.97
378.969	0.95
379.333	0.93
379.696	0.92
380.059	0.92
380.422	0.91
380.786	0.89
381.149	0.88
381.512	0.88
381.875	0.87
382.238	0.86
382.601	0.86
382.964	0.85
383.327	0.84
383.69	0.83
384.053	0.83
384.416	0.81
384.779	0.81
385.142	0.81
385.504	0.8
385.867	0.81
386.23	0.8
386.593	0.8
386.955	0.79
387.318	0.8
387.68	0.79
388.043	0.8
388.405	0.79
388.768	0.8
389.13	0.79
389.493	0.79
389.855	0.79
390.217	0.78
390.58	0.77
390.942	0.77
391.304	0.76
391.666	0.76
392.028	0.75
392.391	0.74
392.753	0.73
393.115	0.72
393.477	0.71
393.839	0.71
394.201	0.7
394.563	0.7
394.924	0.7
395.286	0.7
395.648	0.7
396.01	0.7
396.371	0.71
396.733	0.73
397.095	0.73
397.456	0.75
397.818	0.77
398.18	0.78
398.541	0.81
398.903	0.83
399.264	0.85
399.625	0.87
399.987	0.89
400.348	0.9
400.709	0.9
401.071	0.91
401.432	0.91
401.793	0.91
402.154	0.92
402.515	0.89
402.876	0.9
403.238	0.87
403.599	0.85
403.96	0.83
404.32	0.79
404.681	0.77
405.042	0.74
405.403	0.71
405.764	0.68
406.125	0.64
406.485	0.61
406.846	0.58
407.207	0.54
407.567	0.52
407.928	0.49
408.288	0.46
408.649	0.43
409.009	0.42
409.37	0.38
409.73	0.37
410.091	0.35
410.451	0.33
410.811	0.31
411.171	0.29
411.532	0.28
411.892	0.27
412.252	0.25
412.612	0.24
412.972	0.23
413.332	0.22
413.692	0.21
414.052	0.2
414.412	0.19
414.772	0.18
415.132	0.18
415.492	0.17
415.851	0.17
416.211	0.16
416.571	0.15
416.931	0.16
417.29	0.15
417.65	0.15
418.009	0.14
418.369	0.14
418.728	0.14
419.088	0.13
419.447	0.12
419.807	0.12
420.166	0.12
420.525	0.11
420.884	0.11
421.244	0.12
421.603	0.11
421.962	0.11
422.321	0.11
422.68	0.1
423.039	0.1
423.398	0.1
423.757	0.1
424.116	0.09
424.475	0.09
424.834	0.1
425.193	0.09
425.551	0.09
425.91	0.09
426.269	0.09
426.628	0.09
426.986	0.09
427.345	0.09
427.703	0.09
428.062	0.1
428.42	0.09
428.779	0.07
429.137	0.08
429.496	0.09
429.854	0.08
430.212	0.08
430.57	0.08
430.929	0.08
431.287	0.08
431.645	0.08
432.003	0.08
432.361	0.08
432.719	0.08
433.077	0.08
433.435	0.09
433.793	0.09
434.151	0.08
434.509	0.08
434.866	0.08
435.224	0.07
435.582	0.08
435.94	0.08
436.297	0.08
436.655	0.07
437.012	0.08
437.37	0.07
437.727	0.08
438.085	0.07
438.442	0.08
438.8	0.07
439.157	0.07
439.514	0.08
439.872	0.07
440.229	0.08
440.586	0.07
440.943	0.08
441.3	0.08
441.657	0.07
442.014	0.06
442.371	0.08
442.728	0.07
443.085	0.08
443.442	0.08
443.799	0.08
444.156	0.07
444.513	0.08
444.869	0.07
445.226	0.08
445.583	0.08
445.939	0.07
446.296	0.08
446.652	0.08
447.009	0.08
447.365	0.07
447.722	0.08
448.078	0.08
448.434	0.08
448.791	0.07
449.147	0.07
449.503	0.08
449.859	0.08
450.215	0.08
450.571	0.07
450.928	0.07
451.284	0.08
451.64	0.08
451.995	0.07
452.351	0.07
452.707	0.08
453.063	0.07
453.419	0.06
453.775	0.07
454.13	0.06
454.486	0.07
454.842	0.08
455.197	0.06
455.553	0.07
455.908	0.06
456.264	0.06
456.619	0.06
456.975	0.06
457.33	0.06
457.685	0.05
458.04	0.06
458.396	0.05
458.751	0.05
459.106	0.05
459.461	0.04
459.816	0.04
460.171	0.05
460.526	0.05
460.881	0.04
461.236	0.04
461.591	0.04
461.946	0.04
462.301	0.03
462.655	0.03
463.01	0.03
463.365	0.03
463.719	0.03
464.074	0.02
464.428	0.02
464.783	0.01
465.137	0.01
465.492	0.02
465.846	0.02
466.201	0.01
466.555	0.02
466.909	0.02
467.263	0.02
467.618	0.03
467.972	0.02
468.326	0.02
468.68	0.02
469.034	0.01
469.388	0.02
469.742	0.02
470.096	0.02
470.45	0.02
470.804	0.02
471.157	0.02
471.511	0.03
471.865	0.03
472.218	0.03
472.572	0.04
472.926	0.03
473.279	0.04
473.633	0.05
473.986	0.05
474.34	0.06
474.693	0.07
475.046	0.07
475.4	0.07
475.753	0.08
476.106	0.08
476.459	0.09
476.812	0.09
477.165	0.1
477.519	0.11
477.872	0.11
478.224	0.11
478.577	0.12
478.93	0.12
479.283	0.13
479.636	0.13
479.989	0.13
480.341	0.13
480.694	0.14
481.047	0.14
481.399	0.14
481.752	0.15
482.104	0.16
482.457	0.16
482.809	0.17
483.162	0.17
483.514	0.17
483.866	0.17
484.219	0.17
484.571	0.18
484.923	0.18
485.275	0.19
485.627	0.19
485.979	0.19
486.331	0.2
486.683	0.2
487.035	0.2
487.387	0.2
487.739	0.21
488.091	0.21
488.443	0.21
488.794	0.22
489.146	0.22
489.498	0.22
489.849	0.22
490.201	0.22
490.552	0.22
490.904	0.22
491.255	0.23
491.607	0.23
491.958	0.23
492.309	0.23
492.661	0.23
493.012	0.24
493.363	0.24
493.714	0.24
494.065	0.24
494.416	0.25
494.767	0.25
495.118	0.25
495.469	0.25
495.82	0.25
496.171	0.26
496.522	0.26
496.872	0.27
497.223	0.27
497.574	0.27
497.924	0.27
498.275	0.28
498.626	0.28
498.976	0.28
499.327	0.28
499.677	0.28
500.027	0.29
500.378	0.29
500.728	0.29
501.078	0.29
501.428	0.3
501.779	0.3
502.129	0.3
502.479	0.3
502.829	0.3
503.179	0.31
503.529	0.31
503.879	0.31
504.229	0.31
504.578	0.32
504.928	0.32
505.278	0.32
505.628	0.32
505.977	0.32
506.327	0.32
506.676	0.33
507.026	0.33
507.375	0.33
507.725	0.33
508.074	0.33
508.424	0.34
508.773	0.34
509.122	0.34
509.471	0.35
509.82	0.35
510.17	0.35
510.519	0.35
510.868	0.35
511.217	0.35
511.566	0.36
511.915	0.35
512.263	0.36
512.612	0.37
512.961	0.36
513.31	0.36
513.659	0.37
514.007	0.37
514.356	0.37
514.704	0.37
515.053	0.37
515.401	0.38
515.75	0.37
516.098	0.38
516.447	0.38
516.795	0.39
517.143	0.39
517.491	0.39
517.839	0.39
518.188	0.39
518.536	0.39
518.884	0.39
519.232	0.4
519.58	0.39
519.928	0.4
520.275	0.4
520.623	0.4
520.971	0.41
521.319	0.41
521.666	0.41
522.014	0.4
522.362	0.41
522.709	0.41
523.057	0.41
523.404	0.41
523.752	0.42
524.099	0.41
524.446	0.42
524.794	0.41
525.141	0.42
525.488	0.42
525.835	0.43
526.182	0.42
526.529	0.43
526.876	0.44
527.223	0.43
527.57	0.43
527.917	0.43
528.264	0.43
528.611	0.43
528.958	0.44
529.304	0.43
529.651	0.44
529.998	0.44
530.344	0.44
530.691	0.44
531.037	0.44
531.384	0.45
531.73	0.45
532.076	0.44
532.423	0.45
532.769	0.45
533.115	0.45
533.461	0.45
533.807	0.44
534.154	0.45
534.5	0.45
534.846	0.46
535.192	0.46
535.537	0.46
535.883	0.46
536.229	0.46
536.575	0.46
536.921	0.46
537.266	0.47
537.612	0.47
537.957	0.47
538.303	0.46
538.649	0.47
538.994	0.47
539.339	0.47
539.685	0.47
540.03	0.47
540.375	0.47
540.721	0.48
541.066	0.47
541.411	0.47
541.756	0.47
542.101	0.47
542.446	0.47
542.791	0.48
543.136	0.47
543.481	0.47
543.825	0.48
544.17	0.48
544.515	0.48
544.86	0.48
545.204	0.48
545.549	0.48
545.893	0.48
546.238	0.49
546.582	0.48
546.927	0.49
547.271	0.49
547.615	0.49
547.96	0.49
548.304	0.49
548.648	0.49
548.992	0.49
549.336	0.48
549.68	0.49
550.024	0.49
550.368	0.49
550.712	0.5
551.056	0.49
551.4	0.49
551.743	0.49
552.087	0.49
552.431	0.5
552.774	0.49
553.118	0.49
553.462	0.49
553.805	0.5
554.148	0.49
554.492	0.49
554.835	0.5
555.178	0.49
555.522	0.49
555.865	0.49
556.208	0.49
556.551	0.49
556.894	0.49
557.237	0.49
557.58	0.49
557.923	0.49
558.266	0.49
558.609	0.49
558.952	0.49
559.294	0.49
559.637	0.49
559.98	0.49
560.322	0.49
560.665	0.49
561.007	0.49
561.35	0.49
561.692	0.49
562.034	0.49
562.377	0.49
562.719	0.49
563.061	0.49
563.403	0.49
563.745	0.49
564.088	0.49
564.43	0.48
564.772	0.49
565.113	0.49
565.455	0.49
565.797	0.49
566.139	0.49
566.481	0.48
566.822	0.49
567.164	0.48
567.506	0.48
567.847	0.48
568.189	0.48
568.53	0.48
568.872	0.48
569.213	0.48
569.554	0.48
569.895	0.48
570.237	0.48
570.578	0.48
570.919	0.47
571.26	0.47
571.601	0.47
571.942	0.47
572.283	0.47
572.624	0.47
572.965	0.47
573.306	0.47
573.646	0.46
573.987	0.46
574.328	0.46
574.668	0.46
575.009	0.46
575.349	0.46
575.69	0.46
576.03	0.46
576.37	0.46
576.711	0.45
577.051	0.45
577.391	0.46
577.731	0.46
578.072	0.46
578.412	0.45
578.752	0.45
579.092	0.45
579.431	0.43
579.771	0.42
580.111	0.4
580.451	0.42
580.791	0.44
581.13	0.44
581.47	0.44
581.81	0.44
582.149	0.44
582.489	0.44
582.828	0.43
583.167	0.4
583.507	0.36
583.846	0.35
584.185	0.38
584.525	0.4
584.864	0.42
585.203	0.44
585.542	0.44
585.881	0.44
586.22	0.44
586.559	0.43
586.898	0.42
587.236	0.41
587.575	0.41
587.914	0.41
588.252	0.43
588.591	0.44
588.93	0.43
589.268	0.42
589.607	0.43
589.945	0.43
590.283	0.43
590.622	0.43
590.96	0.44
591.298	0.44
591.636	0.44
591.974	0.44
592.313	0.44
592.651	0.44
592.989	0.44
593.326	0.44
593.664	0.44
594.002	0.44
594.34	0.44
594.678	0.44
595.015	0.43
595.353	0.42
595.691	0.43
596.028	0.44
596.366	0.44
596.703	0.44
597.04	0.44
597.378	0.44
597.715	0.45
598.052	0.45
598.389	0.44
598.726	0.44
599.064	0.44
599.401	0.44
599.738	0.44
600.074	0.44
600.411	0.44
600.748	0.43
601.085	0.43
601.422	0.43
601.758	0.43
602.095	0.43
602.432	0.42
602.768	0.43
603.105	0.43
603.441	0.44
603.777	0.44
604.114	0.44
604.45	0.43
604.786	0.43
605.122	0.44
605.459	0.43
605.795	0.43
606.131	0.43
606.467	0.43
606.803	0.43
607.139	0.43
607.474	0.42
607.81	0.42
608.146	0.42
608.482	0.42
608.817	0.42
609.153	0.42
609.488	0.42
609.824	0.42
610.159	0.42
610.495	0.42
610.83	0.42
611.165	0.42
611.5	0.41
611.836	0.41
612.171	0.42
612.506	0.41
612.841	0.42
613.176	0.42
613.511	0.41
613.845	0.41
614.18	0.41
614.515	0.41
614.85	0.4
615.184	0.4
615.519	0.4
615.854	0.4
616.188	0.4
616.523	0.4
616.857	0.39
617.191	0.39
617.526	0.39
617.86	0.39
618.194	0.39
618.528	0.39
618.862	0.39
619.196	0.39
619.53	0.39
619.864	0.39
620.198	0.39
620.532	0.38
620.866	0.38
621.2	0.38
621.533	0.38
621.867	0.38
622.201	0.38
622.534	0.38
622.868	0.38
623.201	0.37
623.534	0.37
623.868	0.37
624.201	0.36
624.534	0.37
624.868	0.36
625.201	0.36
625.534	0.36
625.867	0.36
626.2	0.36
626.533	0.36
626.865	0.36
627.198	0.36
627.531	0.35
627.864	0.35
628.196	0.35
628.529	0.35
628.862	0.35
629.194	0.34
629.527	0.34
629.859	0.34
630.191	0.34
630.524	0.34
630.856	0.34
631.188	0.33
631.52	0.33
631.852	0.33
632.184	0.33
632.516	0.32
632.848	0.33
633.18	0.32
633.512	0.32
633.844	0.32
634.175	0.31
634.507	0.31
634.839	0.32
635.17	0.31
635.502	0.31
635.833	0.31
636.165	0.31
636.496	0.3
636.827	0.3
637.159	0.3
637.49	0.3
637.821	0.29
638.152	0.29
638.483	0.29
638.814	0.29
639.145	0.29
639.476	0.28
639.807	0.28
640.137	0.28
640.468	0.27
640.799	0.27
641.129	0.27
641.46	0.27
641.791	0.26
642.121	0.27
642.451	0.27
642.782	0.26
643.112	0.26
643.442	0.26
643.773	0.26
644.103	0.26
644.433	0.26
644.763	0.25
645.093	0.25
645.423	0.26
645.753	0.25
646.082	0.25
646.412	0.25
646.742	0.25
647.072	0.25
647.401	0.24
647.731	0.24
648.06	0.24
648.39	0.24
648.719	0.24
649.048	0.23
649.378	0.24
649.707	0.23
650.036	0.23
650.365	0.23
650.694	0.23
651.023	0.23
651.352	0.23
651.681	0.23
652.01	0.23
652.339	0.23
652.668	0.23
652.996	0.23
653.325	0.23
653.654	0.23
653.982	0.23
654.311	0.23
654.639	0.23
654.967	0.22
655.296	0.22
655.624	0.22
655.952	0.22
656.28	0.22
656.609	0.22
656.937	0.22
657.265	0.22
657.593	0.11
657.92	0.01
658.248	0
658.576	0.01
658.904	0.08
659.231	0.16
659.559	0.21
659.887	0.21
660.214	0.21
660.542	0.21
660.869	0.21
661.196	0.21
661.524	0.21
661.851	0.21
662.178	0.21
662.505	0.21
662.832	0.21
663.159	0.21
663.486	0.21
663.813	0.21
664.14	0.21
664.467	0.2
664.794	0.2
665.12	0.2
665.447	0.2
665.774	0.2
666.1	0.2
666.427	0.2
666.753	0.2
667.079	0.2
667.406	0.19
667.732	0.2
668.058	0.19
668.384	0.19
668.71	0.19
669.036	0.19
669.362	0.19
669.688	0.19
670.014	0.19
670.34	0.19
670.666	0.18
670.991	0.18
671.317	0.18
671.643	0.17
671.968	0.17
672.294	0.17
672.619	0.17
672.945	0.17
673.27	0.17
673.595	0.17
673.92	0.17
674.246	0.17
674.571	0.17
674.896	0.17
675.221	0.16
675.546	0.16
675.87	0.16
676.195	0.16
676.52	0.16
676.845	0.16
677.169	0.15
677.494	0.15
677.819	0.15
678.143	0.15
678.468	0.15
678.792	0.15
679.116	0.14
679.44	0.14
679.765	0.14
680.089	0.14
680.413	0.14
680.737	0.14
681.061	0.13
681.385	0.13
681.709	0.13
682.033	0.13
682.356	0.13
682.68	0.13
683.004	0.13
683.327	0.13
683.651	0.12
683.974	0.12
684.298	0.12
684.621	0.12
684.944	0.12
685.268	0.12
685.591	0.11
685.914	0.11
686.237	0.11
686.56	0.11
686.883	0.11
687.206	0.1
687.529	0.1
687.852	0.1
688.175	0.1
688.497	0.1
688.82	0.1
689.142	0.1
689.465	0.1
689.787	0.1
690.11	0.1
690.432	0.09
690.755	0.09
691.077	0.09
691.399	0.09
691.721	0.09
692.043	0.09
692.365	0.09
692.687	0.09
693.009	0.08
693.331	0.08
693.653	0.08
693.974	0.08
694.296	0.08
694.618	0.08
694.939	0.08
695.261	0.08
695.582	0.08
695.904	0.08
696.225	0.08
696.546	0.08
696.868	0.08
697.189	0.07
697.51	0.07
697.831	0.07
698.152	0.07
698.473	0.07
698.794	0.06
699.114	0.06
699.435	0.05
699.756	0.05
700.077	0.06
700.397	0.06
700.718	0.06
701.038	0.06
701.359	0.06
701.679	0.06
701.999	0.06
702.32	0.06
702.64	0.06
702.96	0.06
703.28	0.06
703.6	0.06
703.92	0.05
704.24	0.06
704.56	0.05
704.879	0.05
705.199	0.06
705.519	0.05
705.838	0.06
706.158	0.06
706.478	0.06
706.797	0.06
707.116	0.06
707.436	0.06
707.755	0.06
708.074	0.06
708.393	0.05
708.712	0.04
709.031	0.03
709.35	0.03
709.669	0.03
709.988	0.03
710.307	0.04
710.626	0.04
710.944	0.05
711.263	0.05
711.582	0.05
711.9	0.05
712.219	0.04
712.537	0.05
712.855	0.05
713.174	0.05
713.492	0.05
713.81	0.05
714.128	0.05
714.446	0.05
714.764	0.04
715.082	0.04
715.4	0.04
715.718	0.04
716.035	0.04
716.353	0.04
716.671	0.04
716.988	0.04
717.306	0.04
717.623	0.05
717.941	0.05
718.258	0.05
718.575	0.06
718.893	0.06
719.21	0.05
719.527	0.06
719.844	0.05
720.161	0.05
720.478	0.05
720.795	0.05
721.112	0.05
721.428	0.05
721.745	0.05
722.062	0.05
722.378	0.05
722.695	0.05
723.011	0.05
723.328	0.05
723.644	0.06
723.96	0.06
724.276	0.06
724.593	0.06
724.909	0.06
725.225	0.06
725.541	0.06
725.857	0.06
726.173	0.06
726.488	0.07
726.804	0.06
727.12	0.06
727.435	0.06
727.751	0.06
728.067	0.06
728.382	0.07
728.697	0.06
729.013	0.07
729.328	0.06
729.643	0.07
729.958	0.06
730.273	0.06
730.588	0.06
730.903	0.06
731.218	0.06
731.533	0.06
731.848	0.06
732.163	0.06
732.477	0.06
732.792	0.06
733.107	0.05
733.421	0.05
733.736	0.06
734.05	0.06
734.364	0.06
734.678	0.05
734.993	0.05
735.307	0.05
735.621	0.05
735.935	0.05
736.249	0.05
736.563	0.05
736.877	0.05
737.19	0.05
737.504	0.05
737.818	0.05
738.131	0.05
738.445	0.06
738.758	0.06
739.072	0.05
739.385	0.05
739.698	0.06
740.012	0.06
740.325	0.05
740.638	0.05
740.951	0.05
741.264	0.05
741.577	0.06
741.89	0.06
742.203	0.05
742.515	0.06
742.828	0.05
743.141	0.05
743.453	0.05
743.766	0.05
744.078	0.05
744.391	0.04
744.703	0.04
745.015	0.04
745.327	0.04
745.639	0.05
745.952	0.04
746.264	0.05
746.575	0.05
746.887	0.04
747.199	0.04
747.511	0.04
747.823	0.04
748.134	0.04
748.446	0.04
748.757	0.04
749.069	0.04
749.38	0.04
749.692	0.04
750.003	0.04
750.314	0.04
750.625	0.04
750.936	0.04
751.248	0.04
751.559	0.04
751.869	0.04
752.18	0.04
752.491	0.03
752.802	0.04
753.112	0.04
753.423	0.04
753.734	0.04
754.044	0.04
754.355	0.04
754.665	0.04
754.975	0.03
755.285	0.04
755.596	0.03
755.906	0.03
756.216	0.03
756.526	0.03
756.836	0.03
757.146	0.03
757.455	0.03
757.765	0.03
758.075	0.03
758.385	0.03
758.694	0.03
759.004	0.03
759.313	0.02
759.622	0.03
759.932	0.02
760.241	0.02
760.55	0.02
760.859	0.02
761.168	0.02
761.477	0.02
761.786	0.02
762.095	0.01
762.404	0.02
762.713	0.02
763.021	0.02
763.33	0.02
763.639	0.02
763.947	0.02
764.256	0.02
764.564	0.02
764.872	0.02
765.181	0.02
765.489	0.02
765.797	0.02
766.105	0.02
766.413	0.02
766.721	0.02
767.029	0.02
767.337	0.02
767.644	0.02
767.952	0.02
768.26	0.02
768.567	0.03
768.875	0.03
769.182	0.03
769.49	0.02
769.797	0.02
770.104	0.02
770.411	0.02
770.718	0.02
771.026	0.02
771.333	0.02
771.639	0.02
771.946	0.02
772.253	0.02
772.56	0.02
772.867	0.02
773.173	0.02
773.48	0.02
773.786	0.02
774.093	0.02
774.399	0.02
774.705	0.02
775.012	0.02
775.318	0.02
775.624	0.02
775.93	0.02
776.236	0.02
776.542	0.02
776.848	0.03
777.154	0.02
777.459	0.03
777.765	0.02
778.071	0.02
778.376	0.02
778.682	0.03
778.987	0.03
779.292	0.02
779.598	0.02
779.903	0.02
780.208	0.02
780.513	0.03
780.818	0.02
781.123	0.02
781.428	0.02
781.733	0.03
782.038	0.02
782.343	0.02
782.647	0.02
782.952	0.02
783.256	0.02
783.561	0.02
783.865	0.02
784.17	0.02
784.474	0.03
784.778	0.02
785.082	0.03
785.386	0.03
785.69	0.03
785.994	0.03
786.298	0.03
786.602	0.03
786.906	0.03
787.209	0.03
787.513	0.03
787.817	0.03
788.12	0.03
788.424	0.03
788.727	0.03
789.03	0.03
789.333	0.03
789.637	0.03
789.94	0.03
790.243	0.03
790.546	0.03
790.849	0.03
791.152	0.03
791.454	0.03
791.757	0.03
792.06	0.03
792.362	0.03
792.665	0.03
792.967	0.03
793.27	0.03
793.572	0.03
793.874	0.03
794.177	0.03
794.479	0.04
794.781	0.03
795.083	0.03
795.385	0.03
795.687	0.03
795.989	0.03
796.29	0.04
796.592	0.04
796.894	0.03
797.195	0.03
797.497	0.03
797.798	0.03
798.1	0.03
798.401	0.03
798.702	0.02
799.003	0.03
799.304	0.03
799.605	0.02
799.906	0.02
800.207	0.02
800.508	0.02
800.809	0.02
801.11	0.02
801.41	0.02
801.711	0.02
802.011	0.02
802.312	0.02
802.612	0.02
802.913	0.03
803.213	0.03
803.513	0.03
803.813	0.03
804.113	0.04
804.413	0.04
804.713	0.03
805.013	0.04
805.313	0.04
805.613	0.04
805.912	0.04
806.212	0.04
806.511	0.04
806.811	0.04
807.11	0.04
807.41	0.04
807.709	0.04
808.008	0.04
808.307	0.03
808.606	0.03
808.905	0.04
809.204	0.04
809.503	0.04
809.802	0.04
810.101	0.04
810.399	0.04
810.698	0.03
810.997	0.04
811.295	0.03
811.593	0.04
811.892	0.04
812.19	0.03
812.488	0.04
812.786	0.04
813.084	0.04
813.383	0.04
813.68	0.04
813.978	0.04
814.276	0.04
814.574	0.04
814.872	0.05
815.169	0.04
815.467	0.04
815.764	0.04
816.062	0.04
816.359	0.05
816.656	0.04
816.954	0.04
817.251	0.04
817.548	0.04
817.845	0.04
818.142	0.04
818.439	0.04
818.735	0.04
819.032	0.04
819.329	0.04
819.626	0.04
819.922	0.04
820.219	0.04
820.515	0.04
820.811	0.04
821.108	0.04
821.404	0.04
821.7	0.04
821.996	0.04
822.292	0.04
822.588	0.04
822.884	0.04
823.18	0.05
823.475	0.04
823.771	0.04
824.067	0.04
824.362	0.04
824.658	0.04
824.953	0.04
825.249	0.04
825.544	0.04
825.839	0.04
826.134	0.04
826.429	0.04
826.724	0.04
827.019	0.04
827.314	0.05
827.609	0.05
827.904	0.05
828.198	0.04
828.493	0.05
828.787	0.05
829.082	0.05
829.376	0.04
829.671	0.05
829.965	0.05
830.259	0.05
830.553	0.05
830.847	0.05
831.141	0.05
831.435	0.05
831.729	0.05
832.023	0.05
832.317	0.05
832.61	0.05
832.904	0.05
833.197	0.04
833.491	0.05
833.784	0.06
834.077	0.05
834.371	0.06
834.664	0.05
834.957	0.06
835.25	0.06
835.543	0.06
835.836	0.05
836.129	0.05
836.421	0.06
836.714	0.06
837.007	0.05
837.299	0.05
837.592	0.06
837.884	0.05
838.177	0.05
838.469	0.05
838.761	0.05
839.053	0.05
839.345	0.05
839.637	0.05
839.929	0.06
840.221	0.05
840.513	0.05
840.805	0.05
841.096	0.05
841.388	0.05
841.68	0.06
841.971	0.05
842.262	0.06
842.554	0.05
842.845	0.05
843.136	0.05
843.427	0.05
843.718	0.06
844.009	0.06
844.3	0.06
844.591	0.06
844.882	0.06
845.173	0.05
845.463	0.06
845.754	0.06
846.044	0.06
846.335	0.06
846.625	0.06
846.915	0.07
847.206	0.07
847.496	0.07
847.786	0.07
848.076	0.07
848.366	0.07
848.656	0.07
848.945	0.07
849.235	0.07
849.525	0.08
849.814	0.07
850.104	0.06
850.393	0.07
850.683	0.08
850.972	0.07
851.261	0.05
851.551	0.07
851.84	0.06
852.129	0.06
852.418	0.06
852.707	0.06
852.995	0.06
853.284	0.05
853.573	0.06
853.862	0.06
854.15	0.06
854.439	0.06
854.727	0.08
855.015	0.07
855.304	0.07
855.592	0.07
855.88	0.07
856.168	0.09
856.456	0.08
856.744	0.07
857.032	0.07
857.32	0.07
857.607	0.07
857.895	0.06
858.183	0.08
858.47	0.07
858.757	0.08
859.045	0.09
859.332	0.07
859.619	0.06
859.907	0.07
860.194	0.09
860.481	0.07
860.768	0.07
861.054	0.08
861.341	0.08
861.628	0.08
861.915	0.07
862.201	0.06
862.488	0.08
862.774	0.07
863.061	0.08
863.347	0.08
863.633	0.06
863.919	0.06
864.205	0.08
864.491	0.06
864.777	0.07
865.063	0.08
865.349	0.06
865.635	0.09
865.92	0.12
866.206	0.1
866.492	0.1
866.777	0.09
867.062	0.07
867.348	0.09
867.633	0.08
867.918	0.07
868.203	0.09
868.488	0.1
868.773	0.07
869.058	0.08
869.343	0.06
869.628	0.07
869.912	0.06
870.197	0.06
870.482	0.04
870.766	0.08
871.05	0.07
871.335	0.06
871.619	0.08
871.903	0.04
872.187	0.07
872.471	0.03
872.755	0.07
873.039	0.07
873.323	0.05
873.607	0.06
873.89	0.04
874.174	0.07
874.458	0.03
874.741	0.06
875.024	0.09
875.308	0.06
875.591	0.05
875.874	0.02
876.157	-0.02
876.44	0.06
876.723	0.1
877.006	0.08
877.289	0.06
877.572	0.08
877.854	0.08
878.137	0.1
878.42	0.05
878.702	0.08
878.984	0.12
879.267	0.12
879.549	-0
879.831	0.02
880.113	0.02
880.395	0.09
880.677	-0.06
880.959	0.01
