Data from Rubpy_BV_1200_EDTA_Buffered_Absorbance_13-40-00-115.txt Node
Date: Wed Jul 01 13:40:00 BST 2026
User: fpm-admin
Spectrometer: OFX00224
Trigger mode: 0
Integration Time (sec): 7.000000E-2
Scans to average: 3
Nonlinearity correction enabled: false
Boxcar width: 0
Storing dark spectrum: false
XAxis mode: Wavelengths
Number of Pixels in Spectrum: 2136
>>>>>Begin Spectral Data<<<<<
154.91	-0
155.289	-0
155.669	-0.43
156.048	-0.56
156.428	-0
156.807	-0.23
157.186	-0
157.566	-0.1
157.945	-0.04
158.325	0.01
158.704	-1
159.083	-0
159.462	0.6
159.842	-0.3
160.221	-0
160.6	0.4
160.979	-0
161.359	-0
161.738	0.6
162.117	-0
162.496	-0.11
162.875	-0.07
163.254	-0
163.633	-0
164.012	-0
164.391	-0.13
164.77	-0.14
165.149	0.23
165.528	-0
165.907	-0
166.286	0.18
166.665	0.25
167.044	-1.19
167.423	0.11
167.802	-0
168.181	-0
168.559	-0.18
168.938	-0.34
169.317	0.03
169.696	0.26
170.074	-0
170.453	-0
170.832	0.15
171.21	-0.11
171.589	-0
171.968	-0
172.346	0.5
172.725	-0
173.103	-0.24
173.482	-0.15
173.861	-0.1
174.239	0.07
174.617	0.36
174.996	-0
175.374	-0
175.753	0.58
176.131	-0.18
176.51	0.36
176.888	-0
177.266	-0
177.645	0.13
178.023	0.25
178.401	-0.17
178.779	0.49
179.158	-0
179.536	-0.3
179.914	-0
180.292	-0.1
180.67	-0
181.048	-0
181.427	-0.4
181.805	0.02
182.183	0.18
182.561	-0
182.939	-0.22
183.317	-0.48
183.695	-0
184.073	-0.09
184.451	-1.08
184.829	-0.3
185.206	-0.15
185.584	-0.2
185.962	-0
186.34	-0.56
186.718	-0
187.096	-0
187.473	-0.54
187.851	-0
188.229	0.24
188.607	0
188.984	0.11
189.362	0.12
189.74	0.05
190.117	0.13
190.495	0.07
190.872	0.02
191.25	0.17
191.627	0.15
192.005	0.07
192.382	0.01
192.76	0.07
193.137	0.06
193.515	-0
193.892	0.03
194.269	0.05
194.647	0.13
195.024	0.03
195.401	0
195.779	0.07
196.156	-0.02
196.533	0.06
196.91	0.07
197.288	0.06
197.665	-0.01
198.042	0.05
198.419	0.11
198.796	-0.04
199.173	0.04
199.55	0.05
199.927	0.02
200.304	0.1
200.681	0.13
201.058	0.11
201.435	0.07
201.812	0.17
202.189	0.08
202.566	0.11
202.943	0.19
203.32	0.1
203.697	0.05
204.073	0.1
204.45	0.08
204.827	0.13
205.204	0.11
205.58	0.07
205.957	0
206.334	0.14
206.71	0.13
207.087	0.11
207.464	0.08
207.84	0.14
208.217	0.11
208.593	0.2
208.97	0.03
209.346	0.15
209.723	0.09
210.099	0.05
210.476	0.08
210.852	0.11
211.228	0.06
211.605	0.13
211.981	0.15
212.357	0.16
212.733	0.01
213.11	0
213.486	0.12
213.862	0.09
214.238	0.11
214.614	0.11
214.991	0.04
215.367	0.08
215.743	0.03
216.119	0.14
216.495	0.12
216.871	0.21
217.247	0.12
217.623	0.22
217.999	0.15
218.375	0.24
218.751	-0.01
219.127	0.15
219.502	0.06
219.878	0.18
220.254	0.18
220.63	0.14
221.006	0.07
221.381	0.16
221.757	-0
222.133	0.1
222.508	0.1
222.884	0.12
223.26	0.03
223.635	0.07
224.011	0.1
224.386	0.09
224.762	0.1
225.137	0.07
225.513	0.09
225.888	0.19
226.264	0.17
226.639	0.12
227.014	0.08
227.39	0.12
227.765	0.2
228.14	0.15
228.516	0.15
228.891	0.09
229.266	0.11
229.641	0.2
230.017	0.16
230.392	0.23
230.767	0.1
231.142	0.1
231.517	0.22
231.892	0.16
232.267	0.1
232.642	0.19
233.017	0.09
233.392	0.07
233.767	0.13
234.142	0.15
234.517	0.05
234.892	0.03
235.267	0.13
235.641	0.12
236.016	0.16
236.391	0.07
236.766	0.13
237.14	0.12
237.515	0.15
237.89	0.09
238.264	0.08
238.639	0.1
239.014	0.07
239.388	0.14
239.763	0.15
240.137	0.11
240.512	0.07
240.886	0.16
241.261	0.11
241.635	0.14
242.009	0.11
242.384	0.19
242.758	0.11
243.132	0.13
243.507	0.09
243.881	0.14
244.255	0.13
244.629	0.12
245.004	0.12
245.378	0.08
245.752	0.02
246.126	0.11
246.5	0.24
246.874	0.07
247.248	0.07
247.622	0.02
247.996	0.1
248.37	0.15
248.744	0.13
249.118	0.39
249.492	0.11
249.866	0.09
250.24	0.13
250.613	0.08
250.987	0.12
251.361	0.09
251.735	0.07
252.108	0.08
252.482	0.05
252.856	0.06
253.229	0.08
253.603	0.16
253.977	0.01
254.35	0.09
254.724	0.12
255.097	0.05
255.471	0.07
255.844	0.1
256.218	0.13
256.591	0.02
256.964	0.01
257.338	0.15
257.711	0.1
258.084	0.12
258.458	0.07
258.831	0.13
259.204	0.04
259.577	0.14
259.95	0.12
260.323	0.09
260.697	0.12
261.07	0.13
261.443	0.18
261.816	0.14
262.189	0.1
262.562	0.15
262.935	0.07
263.308	0.11
263.68	0.11
264.053	0.12
264.426	0.08
264.799	0.12
265.172	0.07
265.545	0.12
265.917	0.11
266.29	0.17
266.663	0.1
267.035	0.16
267.408	0.14
267.781	0.16
268.153	0.12
268.526	0.12
268.898	0.15
269.271	0.12
269.643	0.07
270.016	0.13
270.388	0.12
270.76	0.1
271.133	0.15
271.505	0.14
271.877	0.17
272.25	0.11
272.622	0.15
272.994	0.17
273.366	0.09
273.739	0.11
274.111	0.02
274.483	0.14
274.855	0.17
275.227	0.17
275.599	0.1
275.971	0.11
276.343	0.13
276.715	0.11
277.087	0.19
277.459	0.11
277.831	0.11
278.203	0.19
278.574	0.12
278.946	0.18
279.318	0.2
279.69	0.16
280.061	0.09
280.433	0.16
280.805	0.1
281.176	0.12
281.548	0.18
281.92	0.12
282.291	0.1
282.663	0.15
283.034	0.13
283.406	0.1
283.777	0.14
284.148	0.01
284.52	0.09
284.891	0.18
285.262	0.09
285.634	0.14
286.005	0.19
286.376	0.15
286.747	0.12
287.119	0.08
287.49	0.11
287.861	0.15
288.232	0.1
288.603	0.14
288.974	0.13
289.345	0.07
289.716	0.1
290.087	0.12
290.458	0.12
290.829	0.11
291.2	0.13
291.571	0.16
291.941	0.15
292.312	0.11
292.683	0.04
293.054	0.08
293.424	0.22
293.795	0.1
294.166	0.15
294.536	0.16
294.907	0.11
295.277	0.11
295.648	0.11
296.018	0.13
296.389	0.11
296.759	0.03
297.13	0.13
297.5	0.13
297.871	0.2
298.241	0.15
298.611	0.17
298.981	0.16
299.352	0.11
299.722	0.1
300.092	0.1
300.462	0.32
300.832	0.14
301.202	0.16
301.573	0.12
301.943	0.1
302.313	0.07
302.683	0.15
303.053	0.11
303.422	0.13
303.792	0.14
304.162	0.04
304.532	0.1
304.902	0.11
305.272	0.1
305.641	0.08
306.011	0.06
306.381	0.07
306.75	0.11
307.12	0.13
307.49	0.09
307.859	0.11
308.229	0.08
308.598	0.09
308.968	0.09
309.337	0.08
309.707	0.1
310.076	0.09
310.445	0.07
310.815	0.1
311.184	0.06
311.553	0.06
311.923	0.08
312.292	0.09
312.661	0.08
313.03	0.09
313.399	0.09
313.768	0.09
314.137	0.09
314.506	0.11
314.875	0.09
315.244	0.1
315.613	0.1
315.982	0.1
316.351	0.1
316.72	0.1
317.089	0.09
317.458	0.1
317.826	0.1
318.195	0.1
318.564	0.1
318.933	0.09
319.301	0.1
319.67	0.1
320.038	0.11
320.407	0.11
320.775	0.11
321.144	0.11
321.512	0.11
321.881	0.12
322.249	0.12
322.618	0.13
322.986	0.12
323.354	0.12
323.723	0.11
324.091	0.12
324.459	0.13
324.827	0.12
325.195	0.12
325.564	0.13
325.932	0.13
326.3	0.14
326.668	0.13
327.036	0.13
327.404	0.14
327.772	0.14
328.14	0.14
328.508	0.14
328.875	0.15
329.243	0.15
329.611	0.15
329.979	0.14
330.346	0.15
330.714	0.16
331.082	0.16
331.449	0.16
331.817	0.15
332.185	0.16
332.552	0.17
332.92	0.17
333.287	0.17
333.655	0.18
334.022	0.18
334.389	0.18
334.757	0.19
335.124	0.19
335.491	0.2
335.859	0.2
336.226	0.2
336.593	0.21
336.96	0.2
337.327	0.21
337.695	0.21
338.062	0.22
338.429	0.22
338.796	0.23
339.163	0.23
339.53	0.23
339.897	0.23
340.263	0.25
340.63	0.24
340.997	0.25
341.364	0.25
341.731	0.26
342.097	0.27
342.464	0.27
342.831	0.27
343.197	0.28
343.564	0.28
343.931	0.29
344.297	0.28
344.664	0.29
345.03	0.3
345.396	0.3
345.763	0.31
346.129	0.31
346.496	0.32
346.862	0.32
347.228	0.33
347.594	0.33
347.961	0.33
348.327	0.34
348.693	0.34
349.059	0.34
349.425	0.35
349.791	0.35
350.157	0.36
350.523	0.36
350.889	0.37
351.255	0.37
351.621	0.37
351.987	0.38
352.353	0.39
352.719	0.39
353.084	0.39
353.45	0.4
353.816	0.4
354.181	0.41
354.547	0.41
354.913	0.42
355.278	0.43
355.644	0.43
356.009	0.44
356.375	0.44
356.74	0.44
357.106	0.45
357.471	0.46
357.836	0.47
358.202	0.47
358.567	0.48
358.932	0.48
359.297	0.49
359.663	0.49
360.028	0.51
360.393	0.51
360.758	0.52
361.123	0.53
361.488	0.54
361.853	0.54
362.218	0.55
362.583	0.56
362.948	0.56
363.312	0.57
363.677	0.58
364.042	0.58
364.407	0.59
364.772	0.6
365.136	0.6
365.501	0.61
365.865	0.61
366.23	0.62
366.595	0.62
366.959	0.63
367.324	0.64
367.688	0.63
368.052	0.65
368.417	0.65
368.781	0.66
369.145	0.67
369.51	0.67
369.874	0.68
370.238	0.68
370.602	0.69
370.967	0.7
371.331	0.69
371.695	0.71
372.059	0.71
372.423	0.71
372.787	0.7
373.151	0.71
373.515	0.7
373.878	0.7
374.242	0.7
374.606	0.7
374.97	0.69
375.334	0.69
375.697	0.68
376.061	0.67
376.425	0.67
376.788	0.66
377.152	0.65
377.515	0.65
377.879	0.65
378.242	0.64
378.606	0.63
378.969	0.62
379.333	0.62
379.696	0.61
380.059	0.61
380.422	0.6
380.786	0.59
381.149	0.59
381.512	0.58
381.875	0.58
382.238	0.57
382.601	0.57
382.964	0.57
383.327	0.56
383.69	0.55
384.053	0.55
384.416	0.54
384.779	0.55
385.142	0.55
385.504	0.54
385.867	0.54
386.23	0.55
386.593	0.55
386.955	0.55
387.318	0.55
387.68	0.55
388.043	0.55
388.405	0.55
388.768	0.55
389.13	0.55
389.493	0.55
389.855	0.55
390.217	0.55
390.58	0.54
390.942	0.54
391.304	0.53
391.666	0.54
392.028	0.53
392.391	0.52
392.753	0.52
393.115	0.51
393.477	0.5
393.839	0.5
394.201	0.5
394.563	0.49
394.924	0.5
395.286	0.5
395.648	0.5
396.01	0.51
396.371	0.51
396.733	0.52
397.095	0.53
397.456	0.54
397.818	0.55
398.18	0.57
398.541	0.58
398.903	0.59
399.264	0.61
399.625	0.63
399.987	0.65
400.348	0.65
400.709	0.67
401.071	0.68
401.432	0.68
401.793	0.67
402.154	0.68
402.515	0.67
402.876	0.66
403.238	0.64
403.599	0.63
403.96	0.61
404.32	0.59
404.681	0.57
405.042	0.54
405.403	0.52
405.764	0.49
406.125	0.47
406.485	0.44
406.846	0.42
407.207	0.39
407.567	0.38
407.928	0.35
408.288	0.33
408.649	0.31
409.009	0.3
409.37	0.27
409.73	0.26
410.091	0.25
410.451	0.23
410.811	0.22
411.171	0.21
411.532	0.19
411.892	0.19
412.252	0.18
412.612	0.17
412.972	0.17
413.332	0.16
413.692	0.15
414.052	0.15
414.412	0.13
414.772	0.13
415.132	0.12
415.492	0.12
415.851	0.12
416.211	0.12
416.571	0.1
416.931	0.11
417.29	0.1
417.65	0.1
418.009	0.1
418.369	0.1
418.728	0.09
419.088	0.09
419.447	0.09
419.807	0.09
420.166	0.09
420.525	0.09
420.884	0.08
421.244	0.08
421.603	0.08
421.962	0.07
422.321	0.08
422.68	0.07
423.039	0.07
423.398	0.08
423.757	0.06
424.116	0.07
424.475	0.07
424.834	0.07
425.193	0.06
425.551	0.06
425.91	0.06
426.269	0.07
426.628	0.06
426.986	0.06
427.345	0.06
427.703	0.07
428.062	0.07
428.42	0.06
428.779	0.06
429.137	0.06
429.496	0.06
429.854	0.06
430.212	0.05
430.57	0.06
430.929	0.05
431.287	0.06
431.645	0.06
432.003	0.05
432.361	0.05
432.719	0.05
433.077	0.05
433.435	0.06
433.793	0.06
434.151	0.05
434.509	0.05
434.866	0.05
435.224	0.05
435.582	0.05
435.94	0.05
436.297	0.05
436.655	0.05
437.012	0.05
437.37	0.06
437.727	0.05
438.085	0.05
438.442	0.05
438.8	0.05
439.157	0.05
439.514	0.05
439.872	0.04
440.229	0.05
440.586	0.05
440.943	0.05
441.3	0.05
441.657	0.04
442.014	0.04
442.371	0.04
442.728	0.05
443.085	0.05
443.442	0.05
443.799	0.05
444.156	0.05
444.513	0.05
444.869	0.05
445.226	0.05
445.583	0.05
445.939	0.04
446.296	0.05
446.652	0.05
447.009	0.04
447.365	0.05
447.722	0.06
448.078	0.04
448.434	0.05
448.791	0.04
449.147	0.04
449.503	0.05
449.859	0.06
450.215	0.05
450.571	0.04
450.928	0.04
451.284	0.04
451.64	0.03
451.995	0.04
452.351	0.03
452.707	0.04
453.063	0.03
453.419	0.04
453.775	0.04
454.13	0.03
454.486	0.03
454.842	0.05
455.197	0.03
455.553	0.03
455.908	0.02
456.264	0.02
456.619	0.02
456.975	0.02
457.33	0.03
457.685	0.02
458.04	0.02
458.396	0.01
458.751	0.02
459.106	0.02
459.461	0.01
459.816	0.01
460.171	0.01
460.526	0.01
460.881	0
461.236	0.01
461.591	0.01
461.946	-0
462.301	-0
462.655	-0
463.01	-0
463.365	-0.01
463.719	-0.01
464.074	-0.01
464.428	-0.02
464.783	-0.02
465.137	-0.02
465.492	-0.02
465.846	-0.02
466.201	-0.02
466.555	-0.01
466.909	-0.02
467.263	-0.01
467.618	-0.01
467.972	-0.02
468.326	-0.02
468.68	-0.02
469.034	-0.03
469.388	-0.03
469.742	-0.02
470.096	-0.02
470.45	-0.03
470.804	-0.02
471.157	-0.02
471.511	-0.02
471.865	-0.02
472.218	-0.01
472.572	-0.01
472.926	-0.01
473.279	-0.01
473.633	-0
473.986	0.01
474.34	0.01
474.693	0.01
475.046	0.02
475.4	0.02
475.753	0.03
476.106	0.03
476.459	0.04
476.812	0.03
477.165	0.05
477.519	0.05
477.872	0.05
478.224	0.05
478.577	0.06
478.93	0.06
479.283	0.06
479.636	0.07
479.989	0.07
480.341	0.07
480.694	0.07
481.047	0.08
481.399	0.08
481.752	0.09
482.104	0.09
482.457	0.09
482.809	0.09
483.162	0.09
483.514	0.09
483.866	0.1
484.219	0.1
484.571	0.1
484.923	0.1
485.275	0.11
485.627	0.11
485.979	0.11
486.331	0.12
486.683	0.12
487.035	0.12
487.387	0.12
487.739	0.12
488.091	0.13
488.443	0.13
488.794	0.13
489.146	0.13
489.498	0.13
489.849	0.13
490.201	0.13
490.552	0.13
490.904	0.13
491.255	0.14
491.607	0.14
491.958	0.14
492.309	0.14
492.661	0.14
493.012	0.15
493.363	0.15
493.714	0.14
494.065	0.15
494.416	0.15
494.767	0.15
495.118	0.15
495.469	0.15
495.82	0.15
496.171	0.16
496.522	0.16
496.872	0.17
497.223	0.17
497.574	0.17
497.924	0.17
498.275	0.17
498.626	0.17
498.976	0.17
499.327	0.17
499.677	0.17
500.027	0.17
500.378	0.18
500.728	0.18
501.078	0.18
501.428	0.18
501.779	0.18
502.129	0.19
502.479	0.19
502.829	0.19
503.179	0.19
503.529	0.19
503.879	0.19
504.229	0.19
504.578	0.19
504.928	0.19
505.278	0.2
505.628	0.2
505.977	0.2
506.327	0.2
506.676	0.21
507.026	0.21
507.375	0.2
507.725	0.21
508.074	0.21
508.424	0.21
508.773	0.21
509.122	0.21
509.471	0.22
509.82	0.22
510.17	0.22
510.519	0.22
510.868	0.22
511.217	0.22
511.566	0.22
511.915	0.22
512.263	0.23
512.612	0.23
512.961	0.23
513.31	0.23
513.659	0.23
514.007	0.23
514.356	0.23
514.704	0.24
515.053	0.24
515.401	0.24
515.75	0.24
516.098	0.24
516.447	0.24
516.795	0.25
517.143	0.24
517.491	0.24
517.839	0.25
518.188	0.25
518.536	0.25
518.884	0.25
519.232	0.25
519.58	0.25
519.928	0.25
520.275	0.25
520.623	0.25
520.971	0.26
521.319	0.26
521.666	0.26
522.014	0.26
522.362	0.26
522.709	0.26
523.057	0.26
523.404	0.26
523.752	0.26
524.099	0.26
524.446	0.26
524.794	0.27
525.141	0.26
525.488	0.27
525.835	0.27
526.182	0.27
526.529	0.27
526.876	0.28
527.223	0.28
527.57	0.27
527.917	0.28
528.264	0.28
528.611	0.28
528.958	0.28
529.304	0.28
529.651	0.28
529.998	0.28
530.344	0.28
530.691	0.28
531.037	0.28
531.384	0.28
531.73	0.28
532.076	0.28
532.423	0.28
532.769	0.28
533.115	0.29
533.461	0.28
533.807	0.28
534.154	0.29
534.5	0.29
534.846	0.29
535.192	0.29
535.537	0.29
535.883	0.29
536.229	0.3
536.575	0.29
536.921	0.29
537.266	0.3
537.612	0.3
537.957	0.3
538.303	0.29
538.649	0.3
538.994	0.3
539.339	0.3
539.685	0.3
540.03	0.3
540.375	0.3
540.721	0.3
541.066	0.3
541.411	0.31
541.756	0.3
542.101	0.31
542.446	0.31
542.791	0.3
543.136	0.3
543.481	0.31
543.825	0.31
544.17	0.31
544.515	0.31
544.86	0.31
545.204	0.31
545.549	0.31
545.893	0.31
546.238	0.31
546.582	0.31
546.927	0.31
547.271	0.32
547.615	0.32
547.96	0.31
548.304	0.32
548.648	0.32
548.992	0.31
549.336	0.32
549.68	0.32
550.024	0.32
550.368	0.31
550.712	0.33
551.056	0.32
551.4	0.32
551.743	0.32
552.087	0.32
552.431	0.32
552.774	0.32
553.118	0.32
553.462	0.32
553.805	0.32
554.148	0.32
554.492	0.32
554.835	0.32
555.178	0.32
555.522	0.32
555.865	0.32
556.208	0.32
556.551	0.32
556.894	0.32
557.237	0.32
557.58	0.32
557.923	0.32
558.266	0.32
558.609	0.32
558.952	0.32
559.294	0.32
559.637	0.32
559.98	0.32
560.322	0.32
560.665	0.32
561.007	0.32
561.35	0.32
561.692	0.32
562.034	0.32
562.377	0.32
562.719	0.32
563.061	0.32
563.403	0.32
563.745	0.32
564.088	0.32
564.43	0.32
564.772	0.32
565.113	0.32
565.455	0.32
565.797	0.32
566.139	0.32
566.481	0.32
566.822	0.32
567.164	0.32
567.506	0.32
567.847	0.31
568.189	0.32
568.53	0.32
568.872	0.31
569.213	0.31
569.554	0.31
569.895	0.32
570.237	0.32
570.578	0.32
570.919	0.31
571.26	0.31
571.601	0.31
571.942	0.31
572.283	0.31
572.624	0.31
572.965	0.31
573.306	0.3
573.646	0.3
573.987	0.3
574.328	0.3
574.668	0.31
575.009	0.3
575.349	0.3
575.69	0.3
576.03	0.3
576.37	0.3
576.711	0.29
577.051	0.3
577.391	0.3
577.731	0.3
578.072	0.3
578.412	0.3
578.752	0.3
579.092	0.29
579.431	0.28
579.771	0.26
580.111	0.25
580.451	0.26
580.791	0.28
581.13	0.29
581.47	0.29
581.81	0.29
582.149	0.29
582.489	0.29
582.828	0.28
583.167	0.25
583.507	0.21
583.846	0.2
584.185	0.23
584.525	0.25
584.864	0.28
585.203	0.29
585.542	0.29
585.881	0.29
586.22	0.29
586.559	0.28
586.898	0.27
587.236	0.26
587.575	0.26
587.914	0.27
588.252	0.28
588.591	0.29
588.93	0.29
589.268	0.28
589.607	0.28
589.945	0.28
590.283	0.28
590.622	0.29
590.96	0.29
591.298	0.29
591.636	0.29
591.974	0.29
592.313	0.3
592.651	0.29
592.989	0.3
593.326	0.3
593.664	0.3
594.002	0.29
594.34	0.29
594.678	0.29
595.015	0.28
595.353	0.27
595.691	0.28
596.028	0.29
596.366	0.29
596.703	0.29
597.04	0.3
597.378	0.29
597.715	0.3
598.052	0.3
598.389	0.3
598.726	0.3
599.064	0.3
599.401	0.3
599.738	0.29
600.074	0.29
600.411	0.29
600.748	0.29
601.085	0.29
601.422	0.28
601.758	0.28
602.095	0.28
602.432	0.28
602.768	0.29
603.105	0.29
603.441	0.29
603.777	0.29
604.114	0.29
604.45	0.3
604.786	0.29
605.122	0.29
605.459	0.29
605.795	0.29
606.131	0.29
606.467	0.29
606.803	0.29
607.139	0.29
607.474	0.29
607.81	0.28
608.146	0.29
608.482	0.29
608.817	0.28
609.153	0.28
609.488	0.28
609.824	0.28
610.159	0.29
610.495	0.28
610.83	0.28
611.165	0.28
611.5	0.28
611.836	0.28
612.171	0.28
612.506	0.28
612.841	0.28
613.176	0.28
613.511	0.28
613.845	0.28
614.18	0.28
614.515	0.28
614.85	0.27
615.184	0.27
615.519	0.27
615.854	0.27
616.188	0.27
616.523	0.27
616.857	0.27
617.191	0.27
617.526	0.26
617.86	0.26
618.194	0.26
618.528	0.26
618.862	0.26
619.196	0.27
619.53	0.27
619.864	0.26
620.198	0.26
620.532	0.26
620.866	0.26
621.2	0.26
621.533	0.26
621.867	0.26
622.201	0.26
622.534	0.26
622.868	0.26
623.201	0.26
623.534	0.25
623.868	0.25
624.201	0.25
624.534	0.25
624.868	0.25
625.201	0.25
625.534	0.25
625.867	0.24
626.2	0.25
626.533	0.25
626.865	0.24
627.198	0.24
627.531	0.24
627.864	0.24
628.196	0.24
628.529	0.24
628.862	0.24
629.194	0.23
629.527	0.23
629.859	0.23
630.191	0.23
630.524	0.23
630.856	0.23
631.188	0.23
631.52	0.23
631.852	0.23
632.184	0.22
632.516	0.22
632.848	0.22
633.18	0.22
633.512	0.22
633.844	0.21
634.175	0.21
634.507	0.21
634.839	0.21
635.17	0.21
635.502	0.21
635.833	0.21
636.165	0.21
636.496	0.2
636.827	0.21
637.159	0.2
637.49	0.2
637.821	0.2
638.152	0.19
638.483	0.19
638.814	0.2
639.145	0.2
639.476	0.19
639.807	0.19
640.137	0.19
640.468	0.19
640.799	0.19
641.129	0.18
641.46	0.18
641.791	0.18
642.121	0.18
642.451	0.18
642.782	0.18
643.112	0.18
643.442	0.18
643.773	0.17
644.103	0.18
644.433	0.18
644.763	0.17
645.093	0.17
645.423	0.17
645.753	0.17
646.082	0.17
646.412	0.17
646.742	0.17
647.072	0.17
647.401	0.17
647.731	0.17
648.06	0.16
648.39	0.16
648.719	0.16
649.048	0.16
649.378	0.16
649.707	0.15
650.036	0.15
650.365	0.15
650.694	0.15
651.023	0.15
651.352	0.15
651.681	0.15
652.01	0.15
652.339	0.16
652.668	0.16
652.996	0.16
653.325	0.16
653.654	0.15
653.982	0.16
654.311	0.16
654.639	0.15
654.967	0.15
655.296	0.15
655.624	0.15
655.952	0.15
656.28	0.15
656.609	0.15
656.937	0.15
657.265	0.15
657.593	0.05
657.92	0
658.248	-0
658.576	0
658.904	0.02
659.231	0.09
659.559	0.14
659.887	0.14
660.214	0.14
660.542	0.14
660.869	0.14
661.196	0.14
661.524	0.14
661.851	0.14
662.178	0.14
662.505	0.14
662.832	0.14
663.159	0.14
663.486	0.14
663.813	0.14
664.14	0.14
664.467	0.14
664.794	0.14
665.12	0.14
665.447	0.14
665.774	0.14
666.1	0.14
666.427	0.14
666.753	0.13
667.079	0.13
667.406	0.13
667.732	0.13
668.058	0.13
668.384	0.13
668.71	0.13
669.036	0.13
669.362	0.13
669.688	0.13
670.014	0.13
670.34	0.13
670.666	0.12
670.991	0.12
671.317	0.12
671.643	0.12
671.968	0.12
672.294	0.11
672.619	0.11
672.945	0.11
673.27	0.12
673.595	0.12
673.92	0.11
674.246	0.11
674.571	0.11
674.896	0.12
675.221	0.11
675.546	0.11
675.87	0.11
676.195	0.11
676.52	0.11
676.845	0.11
677.169	0.1
677.494	0.1
677.819	0.1
678.143	0.1
678.468	0.1
678.792	0.1
679.116	0.1
679.44	0.1
679.765	0.1
680.089	0.09
680.413	0.09
680.737	0.09
681.061	0.09
681.385	0.09
681.709	0.09
682.033	0.08
682.356	0.08
682.68	0.08
683.004	0.08
683.327	0.09
683.651	0.08
683.974	0.08
684.298	0.08
684.621	0.08
684.944	0.08
685.268	0.08
685.591	0.08
685.914	0.07
686.237	0.07
686.56	0.07
686.883	0.07
687.206	0.07
687.529	0.07
687.852	0.06
688.175	0.07
688.497	0.07
688.82	0.07
689.142	0.07
689.465	0.07
689.787	0.07
690.11	0.07
690.432	0.06
690.755	0.06
691.077	0.06
691.399	0.06
691.721	0.06
692.043	0.06
692.365	0.06
692.687	0.06
693.009	0.05
693.331	0.05
693.653	0.05
693.974	0.05
694.296	0.05
694.618	0.05
694.939	0.05
695.261	0.05
695.582	0.05
695.904	0.05
696.225	0.05
696.546	0.05
696.868	0.05
697.189	0.05
697.51	0.05
697.831	0.05
698.152	0.05
698.473	0.04
698.794	0.04
699.114	0.04
699.435	0.03
699.756	0.03
700.077	0.03
700.397	0.04
700.718	0.04
701.038	0.04
701.359	0.04
701.679	0.04
701.999	0.04
702.32	0.04
702.64	0.04
702.96	0.04
703.28	0.04
703.6	0.04
703.92	0.03
704.24	0.03
704.56	0.03
704.879	0.03
705.199	0.03
705.519	0.03
705.838	0.03
706.158	0.04
706.478	0.04
706.797	0.04
707.116	0.04
707.436	0.04
707.755	0.04
708.074	0.04
708.393	0.03
708.712	0.03
709.031	0.02
709.35	0.01
709.669	0.01
709.988	0.02
710.307	0.02
710.626	0.02
710.944	0.02
711.263	0.03
711.582	0.03
711.9	0.03
712.219	0.02
712.537	0.03
712.855	0.03
713.174	0.03
713.492	0.03
713.81	0.03
714.128	0.03
714.446	0.03
714.764	0.03
715.082	0.02
715.4	0.03
715.718	0.02
716.035	0.02
716.353	0.03
716.671	0.02
716.988	0.02
717.306	0.02
717.623	0.03
717.941	0.03
718.258	0.04
718.575	0.04
718.893	0.04
719.21	0.04
719.527	0.04
719.844	0.03
720.161	0.03
720.478	0.03
720.795	0.03
721.112	0.03
721.428	0.03
721.745	0.03
722.062	0.03
722.378	0.03
722.695	0.03
723.011	0.03
723.328	0.03
723.644	0.04
723.96	0.04
724.276	0.04
724.593	0.03
724.909	0.04
725.225	0.04
725.541	0.04
725.857	0.04
726.173	0.04
726.488	0.04
726.804	0.04
727.12	0.04
727.435	0.04
727.751	0.04
728.067	0.04
728.382	0.04
728.697	0.04
729.013	0.04
729.328	0.04
729.643	0.04
729.958	0.04
730.273	0.04
730.588	0.04
730.903	0.04
731.218	0.04
731.533	0.04
731.848	0.04
732.163	0.04
732.477	0.04
732.792	0.04
733.107	0.03
733.421	0.03
733.736	0.03
734.05	0.04
734.364	0.04
734.678	0.04
734.993	0.03
735.307	0.04
735.621	0.03
735.935	0.03
736.249	0.03
736.563	0.03
736.877	0.03
737.19	0.04
737.504	0.04
737.818	0.04
738.131	0.03
738.445	0.04
738.758	0.04
739.072	0.04
739.385	0.04
739.698	0.04
740.012	0.04
740.325	0.04
740.638	0.04
740.951	0.04
741.264	0.03
741.577	0.04
741.89	0.04
742.203	0.04
742.515	0.04
742.828	0.03
743.141	0.03
743.453	0.03
743.766	0.03
744.078	0.03
744.391	0.03
744.703	0.02
745.015	0.02
745.327	0.03
745.639	0.03
745.952	0.03
746.264	0.03
746.575	0.03
746.887	0.03
747.199	0.02
747.511	0.03
747.823	0.03
748.134	0.02
748.446	0.02
748.757	0.02
749.069	0.02
749.38	0.02
749.692	0.02
750.003	0.02
750.314	0.03
750.625	0.02
750.936	0.02
751.248	0.02
751.559	0.03
751.869	0.02
752.18	0.02
752.491	0.02
752.802	0.02
753.112	0.02
753.423	0.03
753.734	0.02
754.044	0.02
754.355	0.02
754.665	0.02
754.975	0.02
755.285	0.02
755.596	0.02
755.906	0.02
756.216	0.02
756.526	0.02
756.836	0.02
757.146	0.02
757.455	0.01
757.765	0.02
758.075	0.02
758.385	0.02
758.694	0.02
759.004	0.01
759.313	0.01
759.622	0.01
759.932	0.01
760.241	0.01
760.55	0.01
760.859	0.01
761.168	0.01
761.477	0.01
761.786	0.01
762.095	0
762.404	0.01
762.713	0.01
763.021	0.01
763.33	0.01
763.639	0.01
763.947	0.01
764.256	0.01
764.564	0.01
764.872	0.01
765.181	0.01
765.489	0.01
765.797	0.01
766.105	0.01
766.413	0.01
766.721	0.01
767.029	0.01
767.337	0.01
767.644	0.01
767.952	0.01
768.26	0.01
768.567	0.02
768.875	0.01
769.182	0.02
769.49	0.01
769.797	0.01
770.104	0.01
770.411	0.01
770.718	0.01
771.026	0.01
771.333	0.01
771.639	0.01
771.946	0.01
772.253	0.01
772.56	0.01
772.867	0.01
773.173	0.01
773.48	0.01
773.786	0.01
774.093	0.01
774.399	0.01
774.705	0.01
775.012	0.01
775.318	0.01
775.624	0.01
775.93	0.01
776.236	0.01
776.542	0.01
776.848	0.01
777.154	0.01
777.459	0.01
777.765	0.01
778.071	0.01
778.376	0.01
778.682	0.02
778.987	0.01
779.292	0.01
779.598	0.01
779.903	0.01
780.208	0.01
780.513	0.01
780.818	0.01
781.123	0.01
781.428	0.01
781.733	0.01
782.038	0.01
782.343	0.01
782.647	0.01
782.952	0.01
783.256	0.01
783.561	0.01
783.865	0.01
784.17	0.01
784.474	0.01
784.778	0.01
785.082	0.01
785.386	0.01
785.69	0.01
785.994	0.02
786.298	0.02
786.602	0.01
786.906	0.02
787.209	0.02
787.513	0.02
787.817	0.02
788.12	0.01
788.424	0.02
788.727	0.01
789.03	0.01
789.333	0.02
789.637	0.01
789.94	0.02
790.243	0.02
790.546	0.02
790.849	0.02
791.152	0.02
791.454	0.02
791.757	0.02
792.06	0.02
792.362	0.02
792.665	0.02
792.967	0.02
793.27	0.02
793.572	0.02
793.874	0.02
794.177	0.02
794.479	0.02
794.781	0.02
795.083	0.02
795.385	0.02
795.687	0.02
795.989	0.02
796.29	0.02
796.592	0.02
796.894	0.02
797.195	0.02
797.497	0.02
797.798	0.02
798.1	0.02
798.401	0.01
798.702	0.01
799.003	0.01
799.304	0.01
799.605	0.01
799.906	0.01
800.207	0.01
800.508	0.01
800.809	0.01
801.11	0.01
801.41	0.01
801.711	0.01
802.011	0
802.312	0.01
802.612	0.01
802.913	0.01
803.213	0.02
803.513	0.02
803.813	0.02
804.113	0.02
804.413	0.02
804.713	0.02
805.013	0.02
805.313	0.02
805.613	0.02
805.912	0.02
806.212	0.02
806.511	0.02
806.811	0.03
807.11	0.02
807.41	0.02
807.709	0.02
808.008	0.02
808.307	0.02
808.606	0.02
808.905	0.02
809.204	0.02
809.503	0.02
809.802	0.02
810.101	0.02
810.399	0.02
810.698	0.02
810.997	0.02
811.295	0.02
811.593	0.02
811.892	0.02
812.19	0.02
812.488	0.02
812.786	0.02
813.084	0.02
813.383	0.02
813.68	0.02
813.978	0.02
814.276	0.02
814.574	0.02
814.872	0.03
815.169	0.02
815.467	0.02
815.764	0.02
816.062	0.02
816.359	0.03
816.656	0.03
816.954	0.03
817.251	0.03
817.548	0.02
817.845	0.02
818.142	0.02
818.439	0.03
818.735	0.02
819.032	0.03
819.329	0.02
819.626	0.02
819.922	0.02
820.219	0.02
820.515	0.02
820.811	0.02
821.108	0.02
821.404	0.02
821.7	0.02
821.996	0.02
822.292	0.02
822.588	0.02
822.884	0.02
823.18	0.02
823.475	0.02
823.771	0.02
824.067	0.02
824.362	0.02
824.658	0.02
824.953	0.02
825.249	0.02
825.544	0.02
825.839	0.01
826.134	0.03
826.429	0.02
826.724	0.02
827.019	0.02
827.314	0.02
827.609	0.03
827.904	0.03
828.198	0.02
828.493	0.03
828.787	0.03
829.082	0.03
829.376	0.02
829.671	0.02
829.965	0.02
830.259	0.03
830.553	0.03
830.847	0.03
831.141	0.03
831.435	0.02
831.729	0.03
832.023	0.03
832.317	0.03
832.61	0.02
832.904	0.03
833.197	0.03
833.491	0.02
833.784	0.03
834.077	0.03
834.371	0.03
834.664	0.03
834.957	0.03
835.25	0.04
835.543	0.04
835.836	0.03
836.129	0.03
836.421	0.03
836.714	0.04
837.007	0.03
837.299	0.03
837.592	0.03
837.884	0.03
838.177	0.03
838.469	0.02
838.761	0.03
839.053	0.02
839.345	0.03
839.637	0.03
839.929	0.04
840.221	0.03
840.513	0.03
840.805	0.03
841.096	0.03
841.388	0.03
841.68	0.04
841.971	0.03
842.262	0.03
842.554	0.03
842.845	0.03
843.136	0.03
843.427	0.03
843.718	0.04
844.009	0.03
844.3	0.04
844.591	0.03
844.882	0.03
845.173	0.04
845.463	0.03
845.754	0.03
846.044	0.04
846.335	0.03
846.625	0.03
846.915	0.04
847.206	0.05
847.496	0.05
847.786	0.04
848.076	0.04
848.366	0.04
848.656	0.05
848.945	0.04
849.235	0.04
849.525	0.05
849.814	0.05
850.104	0.04
850.393	0.04
850.683	0.05
850.972	0.04
851.261	0.03
851.551	0.03
851.84	0.03
852.129	0.03
852.418	0.03
852.707	0.03
852.995	0.04
853.284	0.03
853.573	0.04
853.862	0.03
854.15	0.03
854.439	0.04
854.727	0.06
855.015	0.04
855.304	0.04
855.592	0.05
855.88	0.05
856.168	0.05
856.456	0.04
856.744	0.03
857.032	0.04
857.32	0.05
857.607	0.04
857.895	0.04
858.183	0.04
858.47	0.04
858.757	0.05
859.045	0.05
859.332	0.04
859.619	0.04
859.907	0.03
860.194	0.04
860.481	0.04
860.768	0.04
861.054	0.05
861.341	0.05
861.628	0.05
861.915	0.03
862.201	0.04
862.488	0.03
862.774	0.04
863.061	0.04
863.347	0.04
863.633	0.03
863.919	0.03
864.205	0.05
864.491	0.04
864.777	0.05
865.063	0.04
865.349	0.05
865.635	0.06
865.92	0.06
866.206	0.05
866.492	0.02
866.777	0.07
867.062	0.04
867.348	0.06
867.633	0.06
867.918	0.04
868.203	0.06
868.488	0.05
868.773	0.02
869.058	0.06
869.343	0.06
869.628	0.05
869.912	0.02
870.197	0.03
870.482	0.02
870.766	0.03
871.05	0.02
871.335	0.05
871.619	0.02
871.903	0.04
872.187	0.04
872.471	0.04
872.755	0.03
873.039	-0.01
873.323	0.02
873.607	0.02
873.89	0.06
874.174	0.02
874.458	0.02
874.741	0.08
875.024	0.06
875.308	0.02
875.591	0.03
875.874	-0.01
876.157	-0.06
876.44	0.05
876.723	0.09
877.006	0.02
877.289	0.05
877.572	0.02
877.854	0.04
878.137	0.08
878.42	-0.02
878.702	0.02
878.984	0.08
879.267	-0.01
879.549	0.03
879.831	0.02
880.113	-0.04
880.395	0.1
880.677	0.03
880.959	-0.02
