Data from Rubpy_BV_1200_EDTA_Buffered_Absorbance_13-51-04-151.txt Node
Date: Wed Jul 01 13:51:04 BST 2026
User: fpm-admin
Spectrometer: OFX00224
Trigger mode: 0
Integration Time (sec): 7.000000E-2
Scans to average: 3
Nonlinearity correction enabled: false
Boxcar width: 0
Storing dark spectrum: false
XAxis mode: Wavelengths
Number of Pixels in Spectrum: 2136
>>>>>Begin Spectral Data<<<<<
154.91	-0
155.289	0.43
155.669	-0.19
156.048	-1.11
156.428	-0
156.807	0.45
157.186	-0
157.566	-0.35
157.945	-0.02
158.325	0.03
158.704	-1.24
159.083	0.03
159.462	-0
159.842	-0.44
160.221	-0
160.6	-0
160.979	-0
161.359	-0
161.738	0.16
162.117	-0
162.496	-0
162.875	-0.35
163.254	-0
163.633	-0.51
164.012	-0.9
164.391	0.45
164.77	-0.18
165.149	0.01
165.528	-0
165.907	-0
166.286	0.38
166.665	-0.1
167.044	-1.06
167.423	-0.04
167.802	-0.65
168.181	-0
168.559	-0
168.938	-0.29
169.317	0.29
169.696	-0
170.074	-0.37
170.453	0.9
170.832	-0.2
171.21	-0.31
171.589	0.24
171.968	-0.2
172.346	-0.1
172.725	-0
173.103	-0.9
173.482	-0
173.861	0.06
174.239	-0.27
174.617	0.88
174.996	-0
175.374	-0
175.753	-0.14
176.131	-1.31
176.51	0.55
176.888	-0
177.266	-0
177.645	0.11
178.023	0.31
178.401	-0.15
178.779	1.12
179.158	-0.98
179.536	0.23
179.914	-0
180.292	-0.39
180.67	-0
181.048	-0
181.427	-0.8
181.805	0.06
182.183	-0
182.561	-0
182.939	0.41
183.317	-0
183.695	-0
184.073	-0.37
184.451	-1.02
184.829	-0.28
185.206	-0.3
185.584	-0.75
185.962	-0
186.34	-1.16
186.718	-0
187.096	0.36
187.473	-0.69
187.851	-0.27
188.229	-0
188.607	0.1
188.984	0.25
189.362	0.23
189.74	0.2
190.117	0.16
190.495	0.07
190.872	0.11
191.25	0.31
191.627	0.06
192.005	0.08
192.382	0.09
192.76	0.12
193.137	0.12
193.515	0.11
193.892	0.07
194.269	0.21
194.647	0.15
195.024	0.06
195.401	0.11
195.779	0.15
196.156	0.08
196.533	0.16
196.91	0.15
197.288	0.14
197.665	0.08
198.042	0.13
198.419	0.17
198.796	0.18
199.173	0.21
199.55	0.13
199.927	0.21
200.304	0.28
200.681	0.29
201.058	0.25
201.435	0.15
201.812	0.24
202.189	0.1
202.566	0.21
202.943	0.31
203.32	0.21
203.697	0.1
204.073	0.25
204.45	0.24
204.827	0.31
205.204	0.31
205.58	0.11
205.957	0.17
206.334	0.1
206.71	0.27
207.087	0.26
207.464	0.25
207.84	0.21
208.217	0.08
208.593	0.21
208.97	0.09
209.346	0.14
209.723	0.15
210.099	0.12
210.476	0.19
210.852	0.24
211.228	0.15
211.605	0.16
211.981	0.24
212.357	0.16
212.733	0.18
213.11	0.11
213.486	0.14
213.862	0.2
214.238	0.22
214.614	0.08
214.991	0.12
215.367	0.14
215.743	0.24
216.119	0.19
216.495	0.19
216.871	0.26
217.247	0.18
217.623	0.21
217.999	0.19
218.375	0.19
218.751	0.06
219.127	0.11
219.502	0.26
219.878	0.09
220.254	0.22
220.63	0.2
221.006	0.17
221.381	0.21
221.757	0.18
222.133	0.23
222.508	0.18
222.884	0.3
223.26	0.14
223.635	0.13
224.011	0.19
224.386	0.23
224.762	0.25
225.137	0.27
225.513	0.17
225.888	0.32
226.264	0.21
226.639	0.19
227.014	0.16
227.39	0.3
227.765	0.2
228.14	0.21
228.516	0.19
228.891	0.21
229.266	0.24
229.641	0.26
230.017	0.19
230.392	0.36
230.767	0.18
231.142	0.14
231.517	0.19
231.892	0.17
232.267	0.15
232.642	0.33
233.017	0.11
233.392	0.16
233.767	0.24
234.142	0.16
234.517	0.12
234.892	0.1
235.267	0.25
235.641	0.26
236.016	0.22
236.391	0.18
236.766	0.22
237.14	0.27
237.515	0.27
237.89	0.11
238.264	0.22
238.639	0.23
239.014	0.11
239.388	0.15
239.763	0.2
240.137	0.11
240.512	0.12
240.886	0.17
241.261	0.26
241.635	0.16
242.009	0.17
242.384	0.23
242.758	0.15
243.132	0.2
243.507	0.18
243.881	0.19
244.255	0.14
244.629	0.19
245.004	0.2
245.378	0.16
245.752	0.18
246.126	0.1
246.5	0.22
246.874	0.31
247.248	0.29
247.622	0.08
247.996	0.11
248.37	0.19
248.744	0.14
249.118	0.32
249.492	0.21
249.866	0.25
250.24	0.12
250.613	0.12
250.987	0.22
251.361	0.19
251.735	0.16
252.108	0.23
252.482	0.17
252.856	0.05
253.229	0.16
253.603	0.23
253.977	0.12
254.35	0.17
254.724	0.25
255.097	0.2
255.471	0.26
255.844	0.17
256.218	0.34
256.591	0.14
256.964	0.19
257.338	0.28
257.711	0.24
258.084	0.23
258.458	0.17
258.831	0.26
259.204	0.07
259.577	0.21
259.95	0.25
260.323	0.15
260.697	0.23
261.07	0.23
261.443	0.3
261.816	0.2
262.189	0.21
262.562	0.25
262.935	0.15
263.308	0.28
263.68	0.23
264.053	0.28
264.426	0.2
264.799	0.25
265.172	0.16
265.545	0.21
265.917	0.22
266.29	0.18
266.663	0.17
267.035	0.29
267.408	0.26
267.781	0.24
268.153	0.21
268.526	0.22
268.898	0.26
269.271	0.24
269.643	0.26
270.016	0.21
270.388	0.17
270.76	0.18
271.133	0.22
271.505	0.3
271.877	0.33
272.25	0.26
272.622	0.28
272.994	0.31
273.366	0.11
273.739	0.25
274.111	0.12
274.483	0.22
274.855	0.33
275.227	0.17
275.599	0.18
275.971	0.2
276.343	0.25
276.715	0.14
277.087	0.3
277.459	0.09
277.831	0.15
278.203	0.23
278.574	0.27
278.946	0.31
279.318	0.24
279.69	0.2
280.061	0.17
280.433	0.28
280.805	0.18
281.176	0.21
281.548	0.23
281.92	0.29
282.291	0.25
282.663	0.25
283.034	0.21
283.406	0.28
283.777	0.25
284.148	0.13
284.52	0.18
284.891	0.23
285.262	0.21
285.634	0.24
286.005	0.24
286.376	0.21
286.747	0.23
287.119	0.28
287.49	0.22
287.861	0.22
288.232	0.22
288.603	0.2
288.974	0.23
289.345	0.18
289.716	0.22
290.087	0.31
290.458	0.18
290.829	0.26
291.2	0.23
291.571	0.28
291.941	0.29
292.312	0.17
292.683	0.23
293.054	0.25
293.424	0.22
293.795	0.19
294.166	0.25
294.536	0.26
294.907	0.3
295.277	0.14
295.648	0.19
296.018	0.18
296.389	0.24
296.759	0.18
297.13	0.23
297.5	0.24
297.871	0.3
298.241	0.25
298.611	0.25
298.981	0.28
299.352	0.24
299.722	0.21
300.092	0.24
300.462	0.23
300.832	0.25
301.202	0.23
301.573	0.26
301.943	0.17
302.313	0.2
302.683	0.24
303.053	0.19
303.422	0.21
303.792	0.23
304.162	0.19
304.532	0.2
304.902	0.22
305.272	0.16
305.641	0.16
306.011	0.14
306.381	0.15
306.75	0.2
307.12	0.16
307.49	0.18
307.859	0.15
308.229	0.14
308.598	0.16
308.968	0.13
309.337	0.13
309.707	0.17
310.076	0.17
310.445	0.14
310.815	0.15
311.184	0.14
311.553	0.14
311.923	0.16
312.292	0.15
312.661	0.17
313.03	0.16
313.399	0.18
313.768	0.17
314.137	0.17
314.506	0.18
314.875	0.17
315.244	0.18
315.613	0.18
315.982	0.19
316.351	0.18
316.72	0.18
317.089	0.19
317.458	0.2
317.826	0.19
318.195	0.2
318.564	0.19
318.933	0.2
319.301	0.2
319.67	0.21
320.038	0.22
320.407	0.21
320.775	0.24
321.144	0.23
321.512	0.22
321.881	0.22
322.249	0.24
322.618	0.24
322.986	0.23
323.354	0.24
323.723	0.24
324.091	0.24
324.459	0.26
324.827	0.26
325.195	0.25
325.564	0.26
325.932	0.26
326.3	0.26
326.668	0.26
327.036	0.28
327.404	0.27
327.772	0.28
328.14	0.3
328.508	0.3
328.875	0.3
329.243	0.29
329.611	0.31
329.979	0.31
330.346	0.31
330.714	0.32
331.082	0.32
331.449	0.33
331.817	0.33
332.185	0.33
332.552	0.35
332.92	0.35
333.287	0.35
333.655	0.37
334.022	0.37
334.389	0.38
334.757	0.38
335.124	0.39
335.491	0.4
335.859	0.4
336.226	0.42
336.593	0.43
336.96	0.43
337.327	0.44
337.695	0.45
338.062	0.45
338.429	0.47
338.796	0.47
339.163	0.47
339.53	0.49
339.897	0.49
340.263	0.51
340.63	0.51
340.997	0.52
341.364	0.53
341.731	0.54
342.097	0.55
342.464	0.55
342.831	0.57
343.197	0.57
343.564	0.58
343.931	0.59
344.297	0.59
344.664	0.61
345.03	0.61
345.396	0.64
345.763	0.64
346.129	0.65
346.496	0.66
346.862	0.67
347.228	0.68
347.594	0.69
347.961	0.7
348.327	0.7
348.693	0.71
349.059	0.72
349.425	0.73
349.791	0.74
350.157	0.74
350.523	0.75
350.889	0.77
351.255	0.77
351.621	0.78
351.987	0.79
352.353	0.8
352.719	0.8
353.084	0.82
353.45	0.82
353.816	0.83
354.181	0.84
354.547	0.86
354.913	0.87
355.278	0.87
355.644	0.89
356.009	0.89
356.375	0.92
356.74	0.91
357.106	0.93
357.471	0.94
357.836	0.96
358.202	0.96
358.567	0.98
358.932	0.99
359.297	1.01
359.663	1.02
360.028	1.04
360.393	1.05
360.758	1.06
361.123	1.08
361.488	1.09
361.853	1.1
362.218	1.11
362.583	1.13
362.948	1.14
363.312	1.15
363.677	1.18
364.042	1.18
364.407	1.19
364.772	1.19
365.136	1.21
365.501	1.23
365.865	1.24
366.23	1.24
366.595	1.25
366.959	1.26
367.324	1.27
367.688	1.27
368.052	1.3
368.417	1.3
368.781	1.31
369.145	1.3
369.51	1.33
369.874	1.34
370.238	1.35
370.602	1.36
370.967	1.34
371.331	1.37
371.695	1.36
372.059	1.35
372.423	1.37
372.787	1.35
373.151	1.36
373.515	1.38
373.878	1.38
374.242	1.36
374.606	1.35
374.97	1.34
375.334	1.33
375.697	1.33
376.061	1.3
376.425	1.3
376.788	1.3
377.152	1.26
377.515	1.28
377.879	1.25
378.242	1.24
378.606	1.24
378.969	1.22
379.333	1.2
379.696	1.19
380.059	1.17
380.422	1.17
380.786	1.15
381.149	1.14
381.512	1.13
381.875	1.11
382.238	1.1
382.601	1.09
382.964	1.08
383.327	1.06
383.69	1.05
384.053	1.04
384.416	1.03
384.779	1.03
385.142	1.02
385.504	1.01
385.867	1.01
386.23	1
386.593	1
386.955	1
387.318	0.99
387.68	0.99
388.043	0.99
388.405	0.99
388.768	1
389.13	0.98
389.493	0.98
389.855	0.98
390.217	0.97
390.58	0.96
390.942	0.94
391.304	0.94
391.666	0.93
392.028	0.92
392.391	0.91
392.753	0.9
393.115	0.88
393.477	0.87
393.839	0.88
394.201	0.86
394.563	0.85
394.924	0.85
395.286	0.85
395.648	0.86
396.01	0.86
396.371	0.86
396.733	0.88
397.095	0.9
397.456	0.91
397.818	0.93
398.18	0.94
398.541	0.97
398.903	0.99
399.264	1.02
399.625	1.04
399.987	1.06
400.348	1.08
400.709	1.08
401.071	1.1
401.432	1.11
401.793	1.1
402.154	1.1
402.515	1.08
402.876	1.06
403.238	1.03
403.599	1.02
403.96	0.99
404.32	0.95
404.681	0.92
405.042	0.89
405.403	0.85
405.764	0.81
406.125	0.77
406.485	0.73
406.846	0.69
407.207	0.66
407.567	0.62
407.928	0.59
408.288	0.56
408.649	0.53
409.009	0.5
409.37	0.46
409.73	0.45
410.091	0.42
410.451	0.4
410.811	0.38
411.171	0.36
411.532	0.34
411.892	0.32
412.252	0.31
412.612	0.3
412.972	0.28
413.332	0.27
413.692	0.26
414.052	0.25
414.412	0.24
414.772	0.23
415.132	0.22
415.492	0.22
415.851	0.21
416.211	0.2
416.571	0.19
416.931	0.19
417.29	0.18
417.65	0.18
418.009	0.17
418.369	0.17
418.728	0.17
419.088	0.16
419.447	0.16
419.807	0.16
420.166	0.15
420.525	0.14
420.884	0.14
421.244	0.14
421.603	0.14
421.962	0.13
422.321	0.13
422.68	0.12
423.039	0.12
423.398	0.13
423.757	0.12
424.116	0.13
424.475	0.12
424.834	0.12
425.193	0.11
425.551	0.12
425.91	0.11
426.269	0.11
426.628	0.11
426.986	0.12
427.345	0.11
427.703	0.11
428.062	0.12
428.42	0.11
428.779	0.11
429.137	0.1
429.496	0.11
429.854	0.11
430.212	0.11
430.57	0.1
430.929	0.1
431.287	0.1
431.645	0.1
432.003	0.11
432.361	0.1
432.719	0.1
433.077	0.1
433.435	0.1
433.793	0.1
434.151	0.09
434.509	0.09
434.866	0.1
435.224	0.1
435.582	0.1
435.94	0.09
436.297	0.1
436.655	0.1
437.012	0.1
437.37	0.11
437.727	0.1
438.085	0.1
438.442	0.09
438.8	0.1
439.157	0.1
439.514	0.1
439.872	0.1
440.229	0.1
440.586	0.1
440.943	0.09
441.3	0.1
441.657	0.09
442.014	0.1
442.371	0.1
442.728	0.1
443.085	0.1
443.442	0.1
443.799	0.09
444.156	0.09
444.513	0.1
444.869	0.1
445.226	0.11
445.583	0.1
445.939	0.1
446.296	0.1
446.652	0.11
447.009	0.1
447.365	0.1
447.722	0.11
448.078	0.1
448.434	0.1
448.791	0.1
449.147	0.1
449.503	0.11
449.859	0.1
450.215	0.1
450.571	0.1
450.928	0.1
451.284	0.1
451.64	0.1
451.995	0.1
452.351	0.09
452.707	0.1
453.063	0.09
453.419	0.1
453.775	0.11
454.13	0.08
454.486	0.09
454.842	0.1
455.197	0.09
455.553	0.1
455.908	0.09
456.264	0.09
456.619	0.09
456.975	0.09
457.33	0.1
457.685	0.08
458.04	0.09
458.396	0.08
458.751	0.08
459.106	0.08
459.461	0.07
459.816	0.08
460.171	0.07
460.526	0.08
460.881	0.07
461.236	0.07
461.591	0.08
461.946	0.07
462.301	0.06
462.655	0.06
463.01	0.06
463.365	0.06
463.719	0.06
464.074	0.05
464.428	0.05
464.783	0.05
465.137	0.04
465.492	0.05
465.846	0.05
466.201	0.05
466.555	0.05
466.909	0.05
467.263	0.05
467.618	0.06
467.972	0.05
468.326	0.06
468.68	0.05
469.034	0.04
469.388	0.05
469.742	0.05
470.096	0.05
470.45	0.06
470.804	0.06
471.157	0.06
471.511	0.06
471.865	0.06
472.218	0.07
472.572	0.08
472.926	0.07
473.279	0.08
473.633	0.09
473.986	0.1
474.34	0.1
474.693	0.1
475.046	0.12
475.4	0.11
475.753	0.12
476.106	0.14
476.459	0.14
476.812	0.14
477.165	0.15
477.519	0.16
477.872	0.16
478.224	0.16
478.577	0.17
478.93	0.17
479.283	0.18
479.636	0.19
479.989	0.19
480.341	0.19
480.694	0.19
481.047	0.2
481.399	0.21
481.752	0.21
482.104	0.22
482.457	0.23
482.809	0.22
483.162	0.23
483.514	0.23
483.866	0.24
484.219	0.24
484.571	0.25
484.923	0.24
485.275	0.25
485.627	0.26
485.979	0.26
486.331	0.26
486.683	0.26
487.035	0.27
487.387	0.28
487.739	0.28
488.091	0.28
488.443	0.28
488.794	0.29
489.146	0.29
489.498	0.3
489.849	0.3
490.201	0.3
490.552	0.29
490.904	0.3
491.255	0.3
491.607	0.31
491.958	0.31
492.309	0.32
492.661	0.32
493.012	0.32
493.363	0.32
493.714	0.32
494.065	0.33
494.416	0.33
494.767	0.34
495.118	0.34
495.469	0.34
495.82	0.34
496.171	0.35
496.522	0.35
496.872	0.35
497.223	0.36
497.574	0.37
497.924	0.36
498.275	0.37
498.626	0.37
498.976	0.37
499.327	0.37
499.677	0.37
500.027	0.38
500.378	0.38
500.728	0.39
501.078	0.39
501.428	0.39
501.779	0.39
502.129	0.4
502.479	0.41
502.829	0.4
503.179	0.41
503.529	0.41
503.879	0.41
504.229	0.41
504.578	0.42
504.928	0.42
505.278	0.42
505.628	0.43
505.977	0.43
506.327	0.43
506.676	0.44
507.026	0.44
507.375	0.44
507.725	0.44
508.074	0.45
508.424	0.45
508.773	0.45
509.122	0.46
509.471	0.46
509.82	0.46
510.17	0.46
510.519	0.46
510.868	0.47
511.217	0.47
511.566	0.48
511.915	0.48
512.263	0.47
512.612	0.48
512.961	0.48
513.31	0.48
513.659	0.48
514.007	0.49
514.356	0.49
514.704	0.5
515.053	0.5
515.401	0.5
515.75	0.5
516.098	0.5
516.447	0.51
516.795	0.51
517.143	0.51
517.491	0.51
517.839	0.52
518.188	0.52
518.536	0.52
518.884	0.53
519.232	0.52
519.58	0.52
519.928	0.53
520.275	0.53
520.623	0.53
520.971	0.54
521.319	0.54
521.666	0.54
522.014	0.54
522.362	0.54
522.709	0.55
523.057	0.55
523.404	0.55
523.752	0.55
524.099	0.55
524.446	0.56
524.794	0.56
525.141	0.55
525.488	0.56
525.835	0.56
526.182	0.56
526.529	0.56
526.876	0.57
527.223	0.57
527.57	0.57
527.917	0.56
528.264	0.57
528.611	0.57
528.958	0.58
529.304	0.57
529.651	0.58
529.998	0.58
530.344	0.58
530.691	0.59
531.037	0.59
531.384	0.59
531.73	0.59
532.076	0.58
532.423	0.59
532.769	0.59
533.115	0.59
533.461	0.59
533.807	0.59
534.154	0.59
534.5	0.59
534.846	0.6
535.192	0.6
535.537	0.6
535.883	0.6
536.229	0.61
536.575	0.61
536.921	0.61
537.266	0.61
537.612	0.61
537.957	0.61
538.303	0.61
538.649	0.62
538.994	0.62
539.339	0.62
539.685	0.62
540.03	0.62
540.375	0.62
540.721	0.62
541.066	0.62
541.411	0.62
541.756	0.63
542.101	0.62
542.446	0.63
542.791	0.63
543.136	0.62
543.481	0.63
543.825	0.63
544.17	0.63
544.515	0.63
544.86	0.62
545.204	0.63
545.549	0.63
545.893	0.64
546.238	0.63
546.582	0.64
546.927	0.63
547.271	0.64
547.615	0.64
547.96	0.63
548.304	0.64
548.648	0.64
548.992	0.64
549.336	0.64
549.68	0.64
550.024	0.64
550.368	0.64
550.712	0.64
551.056	0.64
551.4	0.64
551.743	0.64
552.087	0.64
552.431	0.64
552.774	0.64
553.118	0.64
553.462	0.64
553.805	0.64
554.148	0.64
554.492	0.64
554.835	0.64
555.178	0.64
555.522	0.64
555.865	0.64
556.208	0.64
556.551	0.64
556.894	0.64
557.237	0.65
557.58	0.64
557.923	0.64
558.266	0.64
558.609	0.63
558.952	0.63
559.294	0.64
559.637	0.64
559.98	0.63
560.322	0.64
560.665	0.63
561.007	0.63
561.35	0.63
561.692	0.63
562.034	0.63
562.377	0.63
562.719	0.63
563.061	0.63
563.403	0.63
563.745	0.63
564.088	0.63
564.43	0.63
564.772	0.63
565.113	0.63
565.455	0.63
565.797	0.63
566.139	0.63
566.481	0.63
566.822	0.63
567.164	0.62
567.506	0.62
567.847	0.62
568.189	0.62
568.53	0.62
568.872	0.62
569.213	0.62
569.554	0.62
569.895	0.61
570.237	0.62
570.578	0.62
570.919	0.61
571.26	0.61
571.601	0.61
571.942	0.61
572.283	0.6
572.624	0.6
572.965	0.61
573.306	0.6
573.646	0.6
573.987	0.6
574.328	0.6
574.668	0.6
575.009	0.6
575.349	0.6
575.69	0.6
576.03	0.59
576.37	0.59
576.711	0.58
577.051	0.59
577.391	0.59
577.731	0.59
578.072	0.59
578.412	0.58
578.752	0.58
579.092	0.58
579.431	0.57
579.771	0.55
580.111	0.53
580.451	0.54
580.791	0.57
581.13	0.57
581.47	0.57
581.81	0.57
582.149	0.57
582.489	0.57
582.828	0.56
583.167	0.53
583.507	0.49
583.846	0.48
584.185	0.51
584.525	0.53
584.864	0.55
585.203	0.56
585.542	0.57
585.881	0.57
586.22	0.56
586.559	0.55
586.898	0.54
587.236	0.53
587.575	0.53
587.914	0.54
588.252	0.55
588.591	0.56
588.93	0.56
589.268	0.55
589.607	0.55
589.945	0.55
590.283	0.55
590.622	0.56
590.96	0.56
591.298	0.56
591.636	0.56
591.974	0.56
592.313	0.56
592.651	0.56
592.989	0.57
593.326	0.57
593.664	0.57
594.002	0.57
594.34	0.56
594.678	0.55
595.015	0.55
595.353	0.54
595.691	0.55
596.028	0.56
596.366	0.56
596.703	0.56
597.04	0.56
597.378	0.56
597.715	0.56
598.052	0.56
598.389	0.56
598.726	0.57
599.064	0.56
599.401	0.56
599.738	0.56
600.074	0.56
600.411	0.56
600.748	0.55
601.085	0.55
601.422	0.54
601.758	0.54
602.095	0.54
602.432	0.54
602.768	0.55
603.105	0.55
603.441	0.55
603.777	0.55
604.114	0.55
604.45	0.55
604.786	0.55
605.122	0.55
605.459	0.55
605.795	0.55
606.131	0.54
606.467	0.54
606.803	0.54
607.139	0.54
607.474	0.53
607.81	0.53
608.146	0.54
608.482	0.54
608.817	0.53
609.153	0.53
609.488	0.53
609.824	0.53
610.159	0.53
610.495	0.53
610.83	0.52
611.165	0.53
611.5	0.52
611.836	0.52
612.171	0.52
612.506	0.52
612.841	0.52
613.176	0.52
613.511	0.52
613.845	0.52
614.18	0.51
614.515	0.51
614.85	0.51
615.184	0.51
615.519	0.5
615.854	0.5
616.188	0.5
616.523	0.5
616.857	0.5
617.191	0.49
617.526	0.49
617.86	0.49
618.194	0.49
618.528	0.49
618.862	0.49
619.196	0.49
619.53	0.49
619.864	0.49
620.198	0.48
620.532	0.49
620.866	0.48
621.2	0.48
621.533	0.48
621.867	0.48
622.201	0.47
622.534	0.47
622.868	0.47
623.201	0.47
623.534	0.47
623.868	0.46
624.201	0.46
624.534	0.46
624.868	0.46
625.201	0.45
625.534	0.46
625.867	0.45
626.2	0.45
626.533	0.45
626.865	0.45
627.198	0.45
627.531	0.44
627.864	0.44
628.196	0.44
628.529	0.44
628.862	0.44
629.194	0.43
629.527	0.42
629.859	0.42
630.191	0.42
630.524	0.42
630.856	0.42
631.188	0.42
631.52	0.42
631.852	0.41
632.184	0.41
632.516	0.41
632.848	0.41
633.18	0.4
633.512	0.4
633.844	0.39
634.175	0.39
634.507	0.39
634.839	0.39
635.17	0.39
635.502	0.39
635.833	0.39
636.165	0.38
636.496	0.38
636.827	0.38
637.159	0.37
637.49	0.37
637.821	0.37
638.152	0.36
638.483	0.36
638.814	0.36
639.145	0.36
639.476	0.35
639.807	0.35
640.137	0.35
640.468	0.35
640.799	0.35
641.129	0.34
641.46	0.33
641.791	0.33
642.121	0.34
642.451	0.34
642.782	0.33
643.112	0.33
643.442	0.33
643.773	0.32
644.103	0.32
644.433	0.32
644.763	0.32
645.093	0.32
645.423	0.32
645.753	0.32
646.082	0.31
646.412	0.31
646.742	0.31
647.072	0.31
647.401	0.31
647.731	0.31
648.06	0.3
648.39	0.3
648.719	0.3
649.048	0.29
649.378	0.29
649.707	0.29
650.036	0.29
650.365	0.29
650.694	0.29
651.023	0.29
651.352	0.29
651.681	0.28
652.01	0.29
652.339	0.29
652.668	0.29
652.996	0.29
653.325	0.29
653.654	0.29
653.982	0.28
654.311	0.28
654.639	0.28
654.967	0.28
655.296	0.28
655.624	0.28
655.952	0.28
656.28	0.28
656.609	0.27
656.937	0.28
657.265	0.27
657.593	0.16
657.92	0.06
658.248	0.02
658.576	0.04
658.904	0.13
659.231	0.21
659.559	0.26
659.887	0.26
660.214	0.26
660.542	0.26
660.869	0.26
661.196	0.26
661.524	0.26
661.851	0.26
662.178	0.26
662.505	0.26
662.832	0.26
663.159	0.26
663.486	0.26
663.813	0.26
664.14	0.25
664.467	0.25
664.794	0.25
665.12	0.25
665.447	0.25
665.774	0.25
666.1	0.25
666.427	0.25
666.753	0.25
667.079	0.24
667.406	0.24
667.732	0.24
668.058	0.24
668.384	0.24
668.71	0.24
669.036	0.23
669.362	0.23
669.688	0.23
670.014	0.23
670.34	0.23
670.666	0.23
670.991	0.23
671.317	0.22
671.643	0.22
671.968	0.22
672.294	0.21
672.619	0.21
672.945	0.21
673.27	0.21
673.595	0.21
673.92	0.21
674.246	0.21
674.571	0.21
674.896	0.21
675.221	0.21
675.546	0.2
675.87	0.2
676.195	0.2
676.52	0.2
676.845	0.19
677.169	0.19
677.494	0.19
677.819	0.19
678.143	0.18
678.468	0.18
678.792	0.18
679.116	0.18
679.44	0.18
679.765	0.18
680.089	0.17
680.413	0.17
680.737	0.17
681.061	0.17
681.385	0.17
681.709	0.17
682.033	0.16
682.356	0.16
682.68	0.16
683.004	0.16
683.327	0.16
683.651	0.16
683.974	0.15
684.298	0.15
684.621	0.15
684.944	0.15
685.268	0.15
685.591	0.14
685.914	0.14
686.237	0.14
686.56	0.14
686.883	0.13
687.206	0.13
687.529	0.13
687.852	0.12
688.175	0.13
688.497	0.13
688.82	0.13
689.142	0.13
689.465	0.12
689.787	0.13
690.11	0.12
690.432	0.12
690.755	0.12
691.077	0.12
691.399	0.11
691.721	0.11
692.043	0.11
692.365	0.11
692.687	0.11
693.009	0.1
693.331	0.1
693.653	0.1
693.974	0.1
694.296	0.1
694.618	0.1
694.939	0.1
695.261	0.1
695.582	0.1
695.904	0.1
696.225	0.1
696.546	0.1
696.868	0.1
697.189	0.1
697.51	0.09
697.831	0.09
698.152	0.09
698.473	0.09
698.794	0.08
699.114	0.08
699.435	0.06
699.756	0.07
700.077	0.07
700.397	0.08
700.718	0.08
701.038	0.08
701.359	0.08
701.679	0.08
701.999	0.08
702.32	0.08
702.64	0.08
702.96	0.08
703.28	0.08
703.6	0.08
703.92	0.07
704.24	0.07
704.56	0.07
704.879	0.07
705.199	0.07
705.519	0.07
705.838	0.07
706.158	0.07
706.478	0.07
706.797	0.07
707.116	0.08
707.436	0.07
707.755	0.07
708.074	0.07
708.393	0.07
708.712	0.06
709.031	0.05
709.35	0.05
709.669	0.05
709.988	0.05
710.307	0.05
710.626	0.05
710.944	0.06
711.263	0.06
711.582	0.06
711.9	0.07
712.219	0.06
712.537	0.06
712.855	0.06
713.174	0.06
713.492	0.06
713.81	0.07
714.128	0.06
714.446	0.07
714.764	0.06
715.082	0.05
715.4	0.06
715.718	0.06
716.035	0.06
716.353	0.06
716.671	0.06
716.988	0.06
717.306	0.05
717.623	0.06
717.941	0.07
718.258	0.07
718.575	0.07
718.893	0.07
719.21	0.07
719.527	0.07
719.844	0.07
720.161	0.07
720.478	0.07
720.795	0.07
721.112	0.07
721.428	0.07
721.745	0.07
722.062	0.07
722.378	0.07
722.695	0.07
723.011	0.07
723.328	0.07
723.644	0.07
723.96	0.07
724.276	0.07
724.593	0.07
724.909	0.07
725.225	0.07
725.541	0.08
725.857	0.08
726.173	0.08
726.488	0.08
726.804	0.07
727.12	0.08
727.435	0.07
727.751	0.08
728.067	0.08
728.382	0.08
728.697	0.08
729.013	0.08
729.328	0.07
729.643	0.08
729.958	0.08
730.273	0.08
730.588	0.07
730.903	0.08
731.218	0.08
731.533	0.08
731.848	0.08
732.163	0.08
732.477	0.07
732.792	0.07
733.107	0.06
733.421	0.07
733.736	0.07
734.05	0.07
734.364	0.07
734.678	0.07
734.993	0.07
735.307	0.07
735.621	0.07
735.935	0.07
736.249	0.07
736.563	0.07
736.877	0.07
737.19	0.07
737.504	0.07
737.818	0.07
738.131	0.07
738.445	0.07
738.758	0.07
739.072	0.07
739.385	0.07
739.698	0.07
740.012	0.07
740.325	0.07
740.638	0.07
740.951	0.07
741.264	0.06
741.577	0.07
741.89	0.07
742.203	0.07
742.515	0.07
742.828	0.07
743.141	0.06
743.453	0.06
743.766	0.06
744.078	0.06
744.391	0.06
744.703	0.05
745.015	0.06
745.327	0.06
745.639	0.06
745.952	0.06
746.264	0.06
746.575	0.06
746.887	0.06
747.199	0.05
747.511	0.05
747.823	0.05
748.134	0.05
748.446	0.05
748.757	0.05
749.069	0.05
749.38	0.05
749.692	0.05
750.003	0.05
750.314	0.05
750.625	0.05
750.936	0.05
751.248	0.05
751.559	0.05
751.869	0.05
752.18	0.05
752.491	0.05
752.802	0.05
753.112	0.05
753.423	0.05
753.734	0.05
754.044	0.04
754.355	0.05
754.665	0.04
754.975	0.04
755.285	0.04
755.596	0.04
755.906	0.04
756.216	0.04
756.526	0.04
756.836	0.04
757.146	0.04
757.455	0.04
757.765	0.04
758.075	0.04
758.385	0.04
758.694	0.04
759.004	0.03
759.313	0.03
759.622	0.03
759.932	0.03
760.241	0.03
760.55	0.03
760.859	0.03
761.168	0.03
761.477	0.03
761.786	0.03
762.095	0.02
762.404	0.03
762.713	0.03
763.021	0.03
763.33	0.03
763.639	0.03
763.947	0.03
764.256	0.03
764.564	0.03
764.872	0.03
765.181	0.03
765.489	0.03
765.797	0.03
766.105	0.03
766.413	0.03
766.721	0.03
767.029	0.03
767.337	0.03
767.644	0.03
767.952	0.03
768.26	0.03
768.567	0.03
768.875	0.03
769.182	0.03
769.49	0.03
769.797	0.03
770.104	0.03
770.411	0.03
770.718	0.03
771.026	0.02
771.333	0.03
771.639	0.03
771.946	0.03
772.253	0.03
772.56	0.03
772.867	0.03
773.173	0.03
773.48	0.03
773.786	0.03
774.093	0.03
774.399	0.03
774.705	0.03
775.012	0.03
775.318	0.03
775.624	0.03
775.93	0.03
776.236	0.03
776.542	0.03
776.848	0.03
777.154	0.03
777.459	0.03
777.765	0.03
778.071	0.03
778.376	0.03
778.682	0.03
778.987	0.03
779.292	0.03
779.598	0.03
779.903	0.03
780.208	0.03
780.513	0.03
780.818	0.03
781.123	0.03
781.428	0.03
781.733	0.03
782.038	0.03
782.343	0.03
782.647	0.03
782.952	0.03
783.256	0.03
783.561	0.03
783.865	0.03
784.17	0.03
784.474	0.04
784.778	0.03
785.082	0.03
785.386	0.04
785.69	0.04
785.994	0.04
786.298	0.04
786.602	0.04
786.906	0.04
787.209	0.04
787.513	0.04
787.817	0.04
788.12	0.04
788.424	0.04
788.727	0.04
789.03	0.04
789.333	0.04
789.637	0.04
789.94	0.04
790.243	0.04
790.546	0.04
790.849	0.04
791.152	0.04
791.454	0.04
791.757	0.04
792.06	0.04
792.362	0.04
792.665	0.04
792.967	0.04
793.27	0.04
793.572	0.04
793.874	0.05
794.177	0.04
794.479	0.05
794.781	0.04
795.083	0.04
795.385	0.05
795.687	0.05
795.989	0.04
796.29	0.05
796.592	0.05
796.894	0.05
797.195	0.04
797.497	0.05
797.798	0.04
798.1	0.04
798.401	0.04
798.702	0.04
799.003	0.04
799.304	0.04
799.605	0.04
799.906	0.03
800.207	0.03
800.508	0.03
800.809	0.04
801.11	0.03
801.41	0.04
801.711	0.04
802.011	0.03
802.312	0.04
802.612	0.04
802.913	0.04
803.213	0.04
803.513	0.05
803.813	0.05
804.113	0.05
804.413	0.05
804.713	0.05
805.013	0.05
805.313	0.05
805.613	0.05
805.912	0.05
806.212	0.05
806.511	0.05
806.811	0.05
807.11	0.05
807.41	0.05
807.709	0.05
808.008	0.05
808.307	0.05
808.606	0.05
808.905	0.05
809.204	0.05
809.503	0.05
809.802	0.05
810.101	0.05
810.399	0.06
810.698	0.05
810.997	0.05
811.295	0.05
811.593	0.05
811.892	0.05
812.19	0.05
812.488	0.05
812.786	0.05
813.084	0.05
813.383	0.05
813.68	0.06
813.978	0.06
814.276	0.06
814.574	0.06
814.872	0.06
815.169	0.06
815.467	0.06
815.764	0.06
816.062	0.06
816.359	0.06
816.656	0.06
816.954	0.06
817.251	0.06
817.548	0.06
817.845	0.06
818.142	0.06
818.439	0.06
818.735	0.06
819.032	0.06
819.329	0.06
819.626	0.06
819.922	0.06
820.219	0.06
820.515	0.06
820.811	0.05
821.108	0.06
821.404	0.06
821.7	0.06
821.996	0.06
822.292	0.06
822.588	0.06
822.884	0.06
823.18	0.06
823.475	0.06
823.771	0.06
824.067	0.06
824.362	0.06
824.658	0.07
824.953	0.06
825.249	0.06
825.544	0.06
825.839	0.06
826.134	0.06
826.429	0.06
826.724	0.06
827.019	0.06
827.314	0.06
827.609	0.07
827.904	0.07
828.198	0.07
828.493	0.07
828.787	0.07
829.082	0.07
829.376	0.06
829.671	0.07
829.965	0.07
830.259	0.08
830.553	0.07
830.847	0.07
831.141	0.07
831.435	0.07
831.729	0.07
832.023	0.07
832.317	0.08
832.61	0.08
832.904	0.07
833.197	0.07
833.491	0.07
833.784	0.07
834.077	0.07
834.371	0.08
834.664	0.08
834.957	0.08
835.25	0.08
835.543	0.08
835.836	0.08
836.129	0.08
836.421	0.08
836.714	0.08
837.007	0.08
837.299	0.07
837.592	0.07
837.884	0.08
838.177	0.08
838.469	0.07
838.761	0.08
839.053	0.08
839.345	0.08
839.637	0.08
839.929	0.08
840.221	0.08
840.513	0.08
840.805	0.08
841.096	0.08
841.388	0.08
841.68	0.08
841.971	0.08
842.262	0.07
842.554	0.07
842.845	0.08
843.136	0.08
843.427	0.08
843.718	0.09
844.009	0.08
844.3	0.09
844.591	0.08
844.882	0.08
845.173	0.08
845.463	0.09
845.754	0.08
846.044	0.08
846.335	0.08
846.625	0.08
846.915	0.1
847.206	0.09
847.496	0.09
847.786	0.09
848.076	0.1
848.366	0.1
848.656	0.1
848.945	0.09
849.235	0.09
849.525	0.09
849.814	0.1
850.104	0.1
850.393	0.1
850.683	0.1
850.972	0.1
851.261	0.08
851.551	0.09
851.84	0.09
852.129	0.09
852.418	0.09
852.707	0.09
852.995	0.1
853.284	0.1
853.573	0.1
853.862	0.1
854.15	0.09
854.439	0.09
854.727	0.1
855.015	0.09
855.304	0.1
855.592	0.11
855.88	0.1
856.168	0.11
856.456	0.1
856.744	0.09
857.032	0.1
857.32	0.11
857.607	0.1
857.895	0.11
858.183	0.1
858.47	0.1
858.757	0.1
859.045	0.1
859.332	0.1
859.619	0.09
859.907	0.1
860.194	0.09
860.481	0.11
860.768	0.09
861.054	0.11
861.341	0.1
861.628	0.09
861.915	0.09
862.201	0.09
862.488	0.11
862.774	0.1
863.061	0.11
863.347	0.1
863.633	0.1
863.919	0.09
864.205	0.11
864.491	0.11
864.777	0.11
865.063	0.12
865.349	0.09
865.635	0.11
865.92	0.12
866.206	0.09
866.492	0.1
866.777	0.13
867.062	0.1
867.348	0.09
867.633	0.12
867.918	0.1
868.203	0.14
868.488	0.12
868.773	0.1
869.058	0.11
869.343	0.1
869.628	0.1
869.912	0.09
870.197	0.12
870.482	0.08
870.766	0.08
871.05	0.09
871.335	0.14
871.619	0.08
871.903	0.12
872.187	0.07
872.471	0.08
872.755	0.1
873.039	0.06
873.323	0.07
873.607	0.08
873.89	0.1
874.174	0.13
874.458	0.08
874.741	0.14
875.024	0.12
875.308	0.09
875.591	0.07
875.874	0.08
876.157	0.01
876.44	0.06
876.723	0.13
877.006	0.1
877.289	0.15
877.572	0.06
877.854	0.11
878.137	0.13
878.42	0.02
878.702	0.04
878.984	0.13
879.267	0.04
879.549	0.08
879.831	-0.02
880.113	0.07
880.395	0.08
880.677	-0.03
880.959	0.03
