Data from Rubpy_BV_1200_EDTA_Buffered_Absorbance_13-37-02-248.txt Node
Date: Wed Jul 01 13:37:02 BST 2026
User: fpm-admin
Spectrometer: OFX00224
Trigger mode: 0
Integration Time (sec): 7.000000E-2
Scans to average: 3
Nonlinearity correction enabled: false
Boxcar width: 0
Storing dark spectrum: false
XAxis mode: Wavelengths
Number of Pixels in Spectrum: 2136
>>>>>Begin Spectral Data<<<<<
154.91	-0
155.289	-0
155.669	-0.16
156.048	-1.03
156.428	-0.35
156.807	-0
157.186	-0
157.566	-0.68
157.945	-0.29
158.325	-0.02
158.704	-1.29
159.083	-0
159.462	-0
159.842	-0
160.221	-0
160.6	0.6
160.979	-0
161.359	-0
161.738	-0.27
162.117	-0
162.496	-0
162.875	-0.24
163.254	-0
163.633	-0.5
164.012	-0
164.391	0.54
164.77	-0.15
165.149	-0.16
165.528	-0
165.907	-0
166.286	-0.03
166.665	-0.14
167.044	-1.19
167.423	-0.04
167.802	-0
168.181	-0
168.559	-0
168.938	-0.19
169.317	0.35
169.696	-0
170.074	-0
170.453	-0
170.832	-0.23
171.21	-0.31
171.589	-0
171.968	-0
172.346	0.17
172.725	-0
173.103	-0.21
173.482	-0.24
173.861	0.2
174.239	-0.6
174.617	0.52
174.996	-0
175.374	-0
175.753	-0.13
176.131	-1.34
176.51	-0
176.888	-0
177.266	1.29
177.645	0.16
178.023	-0.09
178.401	0
178.779	-0
179.158	-0.98
179.536	-0
179.914	-0
180.292	-0.07
180.67	-0.36
181.048	-0
181.427	-1.03
181.805	-0.24
182.183	-0
182.561	-0
182.939	0.58
183.317	-0
183.695	-0
184.073	0.23
184.451	-0.4
184.829	-0.18
185.206	-0.29
185.584	-0
185.962	-0
186.34	-1.14
186.718	-0
187.096	0.38
187.473	-0.6
187.851	-0.15
188.229	-0.06
188.607	-0.03
188.984	0.09
189.362	0.04
189.74	0.01
190.117	0.08
190.495	-0.04
190.872	0.01
191.25	0.08
191.627	-0.08
192.005	0.03
192.382	0.02
192.76	-0.04
193.137	-0.01
193.515	-0.06
193.892	-0.03
194.269	0.03
194.647	-0.06
195.024	-0.05
195.401	-0.04
195.779	-0.08
196.156	-0.09
196.533	-0.06
196.91	-0.04
197.288	-0.05
197.665	-0.01
198.042	-0.07
198.419	-0.03
198.796	-0.09
199.173	0.08
199.55	-0.03
199.927	-0.08
200.304	-0.01
200.681	0.08
201.058	0.02
201.435	-0.11
201.812	-0.02
202.189	-0.06
202.566	0.06
202.943	-0.05
203.32	-0.05
203.697	-0.03
204.073	0.03
204.45	0.03
204.827	-0.01
205.204	-0.01
205.58	-0.04
205.957	-0.01
206.334	-0.01
206.71	-0.03
207.087	0.07
207.464	-0.02
207.84	-0
208.217	-0.01
208.593	-0.03
208.97	-0.07
209.346	0.04
209.723	-0
210.099	-0.04
210.476	-0.1
210.852	-0.05
211.228	-0.04
211.605	-0.01
211.981	0.01
212.357	-0.09
212.733	-0.05
213.11	0.03
213.486	0.02
213.862	-0.04
214.238	-0
214.614	0.01
214.991	-0.04
215.367	-0
215.743	-0.06
216.119	-0
216.495	-0.01
216.871	0.1
217.247	0.11
217.623	0
217.999	0.01
218.375	-0.02
218.751	-0.02
219.127	0.06
219.502	-0.04
219.878	-0.02
220.254	0.04
220.63	0.02
221.006	-0.04
221.381	-0
221.757	-0.02
222.133	-0.06
222.508	-0.01
222.884	0.03
223.26	-0.03
223.635	-0
224.011	-0.02
224.386	-0.02
224.762	-0.04
225.137	0.02
225.513	0.01
225.888	-0.06
226.264	0.01
226.639	-0.02
227.014	-0.03
227.39	-0
227.765	0.11
228.14	0.01
228.516	0.04
228.891	0.04
229.266	-0.01
229.641	0.04
230.017	-0
230.392	0.08
230.767	0.03
231.142	-0.05
231.517	0.05
231.892	-0.06
232.267	-0.02
232.642	0.06
233.017	-0.04
233.392	0
233.767	0.06
234.142	0.03
234.517	-0.03
234.892	-0.01
235.267	0.01
235.641	0.11
236.016	0.04
236.391	0.03
236.766	-0.11
237.14	0.03
237.515	0.16
237.89	-0.06
238.264	0.06
238.639	0.03
239.014	-0.03
239.388	-0.03
239.763	0.01
240.137	-0.02
240.512	0.06
240.886	0
241.261	0.03
241.635	0.01
242.009	-0.04
242.384	0.07
242.758	0.01
243.132	-0.02
243.507	0.03
243.881	-0.01
244.255	0.05
244.629	0.07
245.004	0.05
245.378	-0.07
245.752	-0.04
246.126	-0
246.5	0.04
246.874	0.03
247.248	0.03
247.622	0.01
247.996	-0.03
248.37	0.01
248.744	-0.06
249.118	0.03
249.492	-0.08
249.866	0.02
250.24	0.01
250.613	-0.06
250.987	0.1
251.361	0.03
251.735	0.02
252.108	-0.02
252.482	0.01
252.856	-0.04
253.229	-0
253.603	0.04
253.977	0.01
254.35	0.05
254.724	0.1
255.097	0.01
255.471	0.06
255.844	0.03
256.218	0.02
256.591	0
256.964	-0
257.338	0.03
257.711	0.07
258.084	0.05
258.458	0.04
258.831	0.02
259.204	-0.04
259.577	0.03
259.95	0.05
260.323	0.01
260.697	0.09
261.07	0.04
261.443	0.09
261.816	-0.02
262.189	0.06
262.562	0.05
262.935	0.06
263.308	0.07
263.68	0.02
264.053	0.01
264.426	0.03
264.799	0.05
265.172	-0.02
265.545	-0.04
265.917	-0.05
266.29	0.02
266.663	-0.07
267.035	0.09
267.408	0.06
267.781	0.05
268.153	-0.01
268.526	-0.04
268.898	0.02
269.271	-0.02
269.643	0.01
270.016	0.06
270.388	-0.01
270.76	-0.05
271.133	0.07
271.505	0.02
271.877	0.06
272.25	-0.01
272.622	0.05
272.994	-0
273.366	0
273.739	0.05
274.111	-0.02
274.483	0.09
274.855	0.07
275.227	-0.02
275.599	0
275.971	0.01
276.343	0.05
276.715	0.06
277.087	0.1
277.459	-0.05
277.831	-0.06
278.203	0.02
278.574	0.04
278.946	0.05
279.318	0.03
279.69	0.04
280.061	0.03
280.433	0.04
280.805	0.01
281.176	0.03
281.548	0.06
281.92	0.02
282.291	0.01
282.663	0.04
283.034	0.03
283.406	0.05
283.777	0.07
284.148	-0.03
284.52	0.02
284.891	0.11
285.262	0.01
285.634	0.04
286.005	0.04
286.376	0.03
286.747	0.01
287.119	0.01
287.49	0.04
287.861	0.05
288.232	0.04
288.603	0.05
288.974	0.05
289.345	0
289.716	0.01
290.087	0
290.458	0.02
290.829	0
291.2	0.02
291.571	0.05
291.941	0.04
292.312	0.05
292.683	0.01
293.054	-0.02
293.424	0.07
293.795	0.03
294.166	0.07
294.536	0.04
294.907	0.03
295.277	0.03
295.648	0.03
296.018	0.07
296.389	0.01
296.759	0.02
297.13	0.05
297.5	0.01
297.871	0.11
298.241	0.06
298.611	0.03
298.981	0.06
299.352	0.05
299.722	0.01
300.092	0.02
300.462	0.11
300.832	0.08
301.202	0.04
301.573	-0.01
301.943	0.05
302.313	0.01
302.683	-0.02
303.053	0.01
303.422	0.04
303.792	0.04
304.162	0.01
304.532	0.02
304.902	0.04
305.272	0.03
305.641	0.02
306.011	0
306.381	0.01
306.75	0.02
307.12	0.04
307.49	0.02
307.859	0.06
308.229	0.01
308.598	0.03
308.968	0.01
309.337	0.02
309.707	0.04
310.076	0.02
310.445	0.01
310.815	0.02
311.184	0
311.553	0.03
311.923	0.02
312.292	0.02
312.661	0.02
313.03	0.01
313.399	0.04
313.768	0.03
314.137	0.03
314.506	0.04
314.875	0.01
315.244	0.04
315.613	0.03
315.982	0.04
316.351	0.02
316.72	0.02
317.089	0.03
317.458	0.03
317.826	0.02
318.195	0.03
318.564	0.02
318.933	0.02
319.301	0.02
319.67	0.02
320.038	0.04
320.407	0.02
320.775	0.04
321.144	0.03
321.512	0.03
321.881	0.04
322.249	0.03
322.618	0.03
322.986	0.03
323.354	0.04
323.723	0.03
324.091	0.03
324.459	0.03
324.827	0.04
325.195	0.03
325.564	0.03
325.932	0.04
326.3	0.04
326.668	0.03
327.036	0.04
327.404	0.04
327.772	0.03
328.14	0.04
328.508	0.04
328.875	0.04
329.243	0.04
329.611	0.04
329.979	0.03
330.346	0.04
330.714	0.04
331.082	0.05
331.449	0.04
331.817	0.04
332.185	0.04
332.552	0.04
332.92	0.05
333.287	0.04
333.655	0.05
334.022	0.05
334.389	0.05
334.757	0.05
335.124	0.05
335.491	0.05
335.859	0.06
336.226	0.06
336.593	0.06
336.96	0.05
337.327	0.06
337.695	0.06
338.062	0.06
338.429	0.06
338.796	0.07
339.163	0.05
339.53	0.06
339.897	0.07
340.263	0.07
340.63	0.06
340.997	0.07
341.364	0.07
341.731	0.07
342.097	0.07
342.464	0.07
342.831	0.08
343.197	0.07
343.564	0.08
343.931	0.08
344.297	0.08
344.664	0.08
345.03	0.08
345.396	0.08
345.763	0.08
346.129	0.08
346.496	0.09
346.862	0.08
347.228	0.09
347.594	0.09
347.961	0.09
348.327	0.09
348.693	0.09
349.059	0.09
349.425	0.1
349.791	0.1
350.157	0.1
350.523	0.1
350.889	0.1
351.255	0.1
351.621	0.1
351.987	0.1
352.353	0.11
352.719	0.11
353.084	0.1
353.45	0.11
353.816	0.11
354.181	0.11
354.547	0.11
354.913	0.12
355.278	0.12
355.644	0.12
356.009	0.12
356.375	0.12
356.74	0.12
357.106	0.12
357.471	0.13
357.836	0.12
358.202	0.13
358.567	0.13
358.932	0.13
359.297	0.14
359.663	0.14
360.028	0.14
360.393	0.14
360.758	0.15
361.123	0.15
361.488	0.15
361.853	0.15
362.218	0.16
362.583	0.15
362.948	0.16
363.312	0.16
363.677	0.16
364.042	0.17
364.407	0.16
364.772	0.17
365.136	0.17
365.501	0.17
365.865	0.17
366.23	0.17
366.595	0.18
366.959	0.18
367.324	0.18
367.688	0.18
368.052	0.18
368.417	0.18
368.781	0.19
369.145	0.19
369.51	0.19
369.874	0.19
370.238	0.2
370.602	0.2
370.967	0.2
371.331	0.2
371.695	0.2
372.059	0.21
372.423	0.21
372.787	0.21
373.151	0.21
373.515	0.21
373.878	0.21
374.242	0.21
374.606	0.21
374.97	0.2
375.334	0.2
375.697	0.2
376.061	0.2
376.425	0.2
376.788	0.19
377.152	0.2
377.515	0.19
377.879	0.2
378.242	0.19
378.606	0.19
378.969	0.19
379.333	0.19
379.696	0.18
380.059	0.19
380.422	0.19
380.786	0.18
381.149	0.18
381.512	0.18
381.875	0.18
382.238	0.18
382.601	0.18
382.964	0.18
383.327	0.18
383.69	0.18
384.053	0.18
384.416	0.18
384.779	0.18
385.142	0.18
385.504	0.18
385.867	0.19
386.23	0.18
386.593	0.19
386.955	0.19
387.318	0.19
387.68	0.19
388.043	0.19
388.405	0.2
388.768	0.2
389.13	0.2
389.493	0.2
389.855	0.2
390.217	0.2
390.58	0.2
390.942	0.2
391.304	0.2
391.666	0.2
392.028	0.2
392.391	0.2
392.753	0.19
393.115	0.19
393.477	0.19
393.839	0.19
394.201	0.19
394.563	0.19
394.924	0.19
395.286	0.19
395.648	0.2
396.01	0.2
396.371	0.2
396.733	0.2
397.095	0.21
397.456	0.21
397.818	0.22
398.18	0.22
398.541	0.24
398.903	0.24
399.264	0.25
399.625	0.26
399.987	0.26
400.348	0.27
400.709	0.27
401.071	0.28
401.432	0.28
401.793	0.27
402.154	0.28
402.515	0.27
402.876	0.27
403.238	0.26
403.599	0.26
403.96	0.25
404.32	0.24
404.681	0.23
405.042	0.22
405.403	0.21
405.764	0.2
406.125	0.19
406.485	0.18
406.846	0.17
407.207	0.16
407.567	0.15
407.928	0.15
408.288	0.13
408.649	0.13
409.009	0.12
409.37	0.11
409.73	0.1
410.091	0.1
410.451	0.09
410.811	0.09
411.171	0.08
411.532	0.08
411.892	0.08
412.252	0.07
412.612	0.07
412.972	0.07
413.332	0.06
413.692	0.06
414.052	0.06
414.412	0.05
414.772	0.05
415.132	0.05
415.492	0.05
415.851	0.05
416.211	0.04
416.571	0.04
416.931	0.04
417.29	0.04
417.65	0.04
418.009	0.03
418.369	0.04
418.728	0.04
419.088	0.03
419.447	0.03
419.807	0.03
420.166	0.03
420.525	0.03
420.884	0.03
421.244	0.03
421.603	0.03
421.962	0.02
422.321	0.03
422.68	0.03
423.039	0.02
423.398	0.03
423.757	0.02
424.116	0.02
424.475	0.02
424.834	0.03
425.193	0.02
425.551	0.02
425.91	0.02
426.269	0.02
426.628	0.02
426.986	0.02
427.345	0.02
427.703	0.02
428.062	0.03
428.42	0.02
428.779	0.01
429.137	0.02
429.496	0.03
429.854	0.02
430.212	0.01
430.57	0.02
430.929	0.02
431.287	0.01
431.645	0.02
432.003	0.01
432.361	0.02
432.719	0.02
433.077	0.02
433.435	0.02
433.793	0.02
434.151	0
434.509	0.01
434.866	0.02
435.224	0.02
435.582	0.02
435.94	0.01
436.297	0.02
436.655	0.02
437.012	0.02
437.37	0.02
437.727	0.02
438.085	0.01
438.442	0.01
438.8	0.01
439.157	0.01
439.514	0.01
439.872	0.01
440.229	0.02
440.586	0.02
440.943	0.01
441.3	0.01
441.657	0.01
442.014	0.01
442.371	0.01
442.728	0.01
443.085	0.01
443.442	0.02
443.799	0.01
444.156	0.01
444.513	0.01
444.869	0.01
445.226	0.01
445.583	0.01
445.939	0.01
446.296	0.01
446.652	0.01
447.009	0
447.365	0.01
447.722	0.01
448.078	0.01
448.434	0
448.791	0.01
449.147	0.01
449.503	0.01
449.859	0.01
450.215	0
450.571	-0
450.928	0.01
451.284	-0
451.64	-0
451.995	-0
452.351	-0
452.707	0.01
453.063	-0
453.419	-0.01
453.775	-0
454.13	-0.01
454.486	-0
454.842	0
455.197	-0.01
455.553	-0.01
455.908	-0.02
456.264	-0.02
456.619	-0.02
456.975	-0.02
457.33	-0.01
457.685	-0.03
458.04	-0.02
458.396	-0.03
458.751	-0.03
459.106	-0.02
459.461	-0.03
459.816	-0.03
460.171	-0.04
460.526	-0.03
460.881	-0.04
461.236	-0.04
461.591	-0.04
461.946	-0.04
462.301	-0.05
462.655	-0.05
463.01	-0.05
463.365	-0.05
463.719	-0.05
464.074	-0.06
464.428	-0.06
464.783	-0.07
465.137	-0.08
465.492	-0.06
465.846	-0.07
466.201	-0.07
466.555	-0.06
466.909	-0.07
467.263	-0.07
467.618	-0.07
467.972	-0.06
468.326	-0.07
468.68	-0.07
469.034	-0.08
469.388	-0.07
469.742	-0.07
470.096	-0.07
470.45	-0.08
470.804	-0.07
471.157	-0.08
471.511	-0.07
471.865	-0.08
472.218	-0.07
472.572	-0.06
472.926	-0.07
473.279	-0.07
473.633	-0.06
473.986	-0.06
474.34	-0.05
474.693	-0.05
475.046	-0.04
475.4	-0.04
475.753	-0.04
476.106	-0.03
476.459	-0.03
476.812	-0.03
477.165	-0.03
477.519	-0.02
477.872	-0.02
478.224	-0.02
478.577	-0.02
478.93	-0.02
479.283	-0.01
479.636	-0.01
479.989	-0.01
480.341	-0.01
480.694	-0
481.047	-0.01
481.399	-0.01
481.752	0
482.104	0
482.457	0
482.809	0
483.162	0
483.514	0.01
483.866	0.01
484.219	0
484.571	0.02
484.923	0.01
485.275	0.01
485.627	0.01
485.979	0.01
486.331	0.02
486.683	0.01
487.035	0.02
487.387	0.02
487.739	0.02
488.091	0.02
488.443	0.02
488.794	0.03
489.146	0.02
489.498	0.02
489.849	0.03
490.201	0.02
490.552	0.02
490.904	0.02
491.255	0.02
491.607	0.02
491.958	0.02
492.309	0.02
492.661	0.03
493.012	0.03
493.363	0.03
493.714	0.03
494.065	0.03
494.416	0.03
494.767	0.03
495.118	0.03
495.469	0.03
495.82	0.03
496.171	0.03
496.522	0.04
496.872	0.03
497.223	0.04
497.574	0.04
497.924	0.03
498.275	0.04
498.626	0.04
498.976	0.04
499.327	0.04
499.677	0.04
500.027	0.04
500.378	0.04
500.728	0.04
501.078	0.04
501.428	0.04
501.779	0.04
502.129	0.04
502.479	0.05
502.829	0.04
503.179	0.05
503.529	0.04
503.879	0.05
504.229	0.04
504.578	0.05
504.928	0.04
505.278	0.05
505.628	0.05
505.977	0.05
506.327	0.05
506.676	0.05
507.026	0.05
507.375	0.05
507.725	0.05
508.074	0.05
508.424	0.05
508.773	0.05
509.122	0.06
509.471	0.05
509.82	0.06
510.17	0.06
510.519	0.05
510.868	0.06
511.217	0.05
511.566	0.05
511.915	0.05
512.263	0.05
512.612	0.06
512.961	0.06
513.31	0.06
513.659	0.06
514.007	0.06
514.356	0.06
514.704	0.06
515.053	0.06
515.401	0.06
515.75	0.06
516.098	0.06
516.447	0.06
516.795	0.07
517.143	0.06
517.491	0.06
517.839	0.06
518.188	0.06
518.536	0.06
518.884	0.06
519.232	0.06
519.58	0.06
519.928	0.07
520.275	0.06
520.623	0.07
520.971	0.07
521.319	0.07
521.666	0.07
522.014	0.07
522.362	0.07
522.709	0.07
523.057	0.07
523.404	0.07
523.752	0.07
524.099	0.07
524.446	0.07
524.794	0.07
525.141	0.07
525.488	0.07
525.835	0.07
526.182	0.07
526.529	0.07
526.876	0.07
527.223	0.07
527.57	0.07
527.917	0.07
528.264	0.07
528.611	0.07
528.958	0.08
529.304	0.07
529.651	0.08
529.998	0.07
530.344	0.08
530.691	0.07
531.037	0.07
531.384	0.08
531.73	0.07
532.076	0.07
532.423	0.07
532.769	0.08
533.115	0.08
533.461	0.08
533.807	0.08
534.154	0.08
534.5	0.08
534.846	0.08
535.192	0.08
535.537	0.08
535.883	0.08
536.229	0.08
536.575	0.08
536.921	0.08
537.266	0.09
537.612	0.08
537.957	0.08
538.303	0.08
538.649	0.08
538.994	0.08
539.339	0.08
539.685	0.08
540.03	0.08
540.375	0.08
540.721	0.09
541.066	0.08
541.411	0.08
541.756	0.08
542.101	0.09
542.446	0.09
542.791	0.08
543.136	0.08
543.481	0.08
543.825	0.09
544.17	0.09
544.515	0.09
544.86	0.09
545.204	0.09
545.549	0.09
545.893	0.09
546.238	0.09
546.582	0.09
546.927	0.09
547.271	0.09
547.615	0.09
547.96	0.09
548.304	0.09
548.648	0.09
548.992	0.09
549.336	0.09
549.68	0.09
550.024	0.09
550.368	0.09
550.712	0.1
551.056	0.09
551.4	0.09
551.743	0.09
552.087	0.09
552.431	0.09
552.774	0.09
553.118	0.09
553.462	0.09
553.805	0.09
554.148	0.09
554.492	0.09
554.835	0.09
555.178	0.09
555.522	0.09
555.865	0.09
556.208	0.09
556.551	0.09
556.894	0.1
557.237	0.09
557.58	0.09
557.923	0.1
558.266	0.1
558.609	0.09
558.952	0.09
559.294	0.09
559.637	0.09
559.98	0.09
560.322	0.09
560.665	0.09
561.007	0.09
561.35	0.1
561.692	0.09
562.034	0.09
562.377	0.09
562.719	0.09
563.061	0.09
563.403	0.09
563.745	0.09
564.088	0.1
564.43	0.1
564.772	0.1
565.113	0.1
565.455	0.1
565.797	0.09
566.139	0.09
566.481	0.1
566.822	0.1
567.164	0.09
567.506	0.09
567.847	0.09
568.189	0.09
568.53	0.09
568.872	0.09
569.213	0.09
569.554	0.09
569.895	0.09
570.237	0.09
570.578	0.09
570.919	0.09
571.26	0.09
571.601	0.09
571.942	0.09
572.283	0.09
572.624	0.09
572.965	0.09
573.306	0.09
573.646	0.09
573.987	0.09
574.328	0.09
574.668	0.09
575.009	0.09
575.349	0.09
575.69	0.09
576.03	0.09
576.37	0.09
576.711	0.09
577.051	0.09
577.391	0.09
577.731	0.09
578.072	0.09
578.412	0.09
578.752	0.09
579.092	0.09
579.431	0.08
579.771	0.06
580.111	0.05
580.451	0.06
580.791	0.08
581.13	0.09
581.47	0.09
581.81	0.08
582.149	0.09
582.489	0.09
582.828	0.08
583.167	0.06
583.507	0.03
583.846	0.02
584.185	0.04
584.525	0.06
584.864	0.08
585.203	0.09
585.542	0.09
585.881	0.09
586.22	0.09
586.559	0.09
586.898	0.08
587.236	0.07
587.575	0.07
587.914	0.07
588.252	0.08
588.591	0.09
588.93	0.09
589.268	0.08
589.607	0.08
589.945	0.08
590.283	0.09
590.622	0.09
590.96	0.09
591.298	0.09
591.636	0.09
591.974	0.09
592.313	0.09
592.651	0.09
592.989	0.1
593.326	0.1
593.664	0.1
594.002	0.09
594.34	0.09
594.678	0.09
595.015	0.09
595.353	0.08
595.691	0.08
596.028	0.09
596.366	0.09
596.703	0.09
597.04	0.09
597.378	0.09
597.715	0.09
598.052	0.1
598.389	0.1
598.726	0.1
599.064	0.1
599.401	0.09
599.738	0.09
600.074	0.09
600.411	0.09
600.748	0.09
601.085	0.09
601.422	0.09
601.758	0.09
602.095	0.09
602.432	0.09
602.768	0.09
603.105	0.09
603.441	0.09
603.777	0.1
604.114	0.1
604.45	0.09
604.786	0.1
605.122	0.1
605.459	0.09
605.795	0.09
606.131	0.09
606.467	0.09
606.803	0.09
607.139	0.09
607.474	0.09
607.81	0.09
608.146	0.09
608.482	0.09
608.817	0.09
609.153	0.1
609.488	0.09
609.824	0.09
610.159	0.09
610.495	0.09
610.83	0.09
611.165	0.09
611.5	0.09
611.836	0.09
612.171	0.09
612.506	0.09
612.841	0.09
613.176	0.09
613.511	0.09
613.845	0.09
614.18	0.09
614.515	0.09
614.85	0.09
615.184	0.09
615.519	0.09
615.854	0.09
616.188	0.09
616.523	0.09
616.857	0.09
617.191	0.09
617.526	0.09
617.86	0.09
618.194	0.09
618.528	0.09
618.862	0.09
619.196	0.09
619.53	0.09
619.864	0.09
620.198	0.09
620.532	0.09
620.866	0.09
621.2	0.09
621.533	0.09
621.867	0.09
622.201	0.09
622.534	0.09
622.868	0.09
623.201	0.09
623.534	0.09
623.868	0.08
624.201	0.08
624.534	0.08
624.868	0.08
625.201	0.08
625.534	0.08
625.867	0.08
626.2	0.08
626.533	0.08
626.865	0.08
627.198	0.08
627.531	0.08
627.864	0.08
628.196	0.08
628.529	0.08
628.862	0.08
629.194	0.08
629.527	0.08
629.859	0.08
630.191	0.08
630.524	0.08
630.856	0.08
631.188	0.08
631.52	0.07
631.852	0.07
632.184	0.08
632.516	0.08
632.848	0.07
633.18	0.07
633.512	0.07
633.844	0.07
634.175	0.07
634.507	0.07
634.839	0.07
635.17	0.07
635.502	0.07
635.833	0.07
636.165	0.07
636.496	0.07
636.827	0.07
637.159	0.06
637.49	0.07
637.821	0.07
638.152	0.07
638.483	0.07
638.814	0.07
639.145	0.07
639.476	0.07
639.807	0.06
640.137	0.06
640.468	0.06
640.799	0.06
641.129	0.06
641.46	0.06
641.791	0.06
642.121	0.06
642.451	0.06
642.782	0.06
643.112	0.06
643.442	0.06
643.773	0.06
644.103	0.06
644.433	0.06
644.763	0.06
645.093	0.05
645.423	0.05
645.753	0.06
646.082	0.05
646.412	0.06
646.742	0.05
647.072	0.06
647.401	0.05
647.731	0.05
648.06	0.05
648.39	0.05
648.719	0.05
649.048	0.05
649.378	0.05
649.707	0.05
650.036	0.05
650.365	0.05
650.694	0.05
651.023	0.05
651.352	0.05
651.681	0.05
652.01	0.05
652.339	0.05
652.668	0.05
652.996	0.05
653.325	0.05
653.654	0.05
653.982	0.05
654.311	0.05
654.639	0.05
654.967	0.05
655.296	0.05
655.624	0.05
655.952	0.05
656.28	0.05
656.609	0.05
656.937	0.05
657.265	0.05
657.593	0
657.92	-0
658.248	-0
658.576	0
658.904	-0
659.231	0.01
659.559	0.05
659.887	0.05
660.214	0.05
660.542	0.05
660.869	0.05
661.196	0.05
661.524	0.05
661.851	0.05
662.178	0.05
662.505	0.05
662.832	0.05
663.159	0.05
663.486	0.05
663.813	0.05
664.14	0.05
664.467	0.05
664.794	0.05
665.12	0.05
665.447	0.05
665.774	0.05
666.1	0.04
666.427	0.04
666.753	0.04
667.079	0.04
667.406	0.05
667.732	0.05
668.058	0.04
668.384	0.05
668.71	0.05
669.036	0.04
669.362	0.05
669.688	0.04
670.014	0.05
670.34	0.05
670.666	0.04
670.991	0.04
671.317	0.04
671.643	0.04
671.968	0.04
672.294	0.04
672.619	0.04
672.945	0.04
673.27	0.04
673.595	0.04
673.92	0.04
674.246	0.04
674.571	0.04
674.896	0.04
675.221	0.04
675.546	0.04
675.87	0.04
676.195	0.04
676.52	0.04
676.845	0.04
677.169	0.03
677.494	0.03
677.819	0.03
678.143	0.03
678.468	0.03
678.792	0.03
679.116	0.03
679.44	0.03
679.765	0.03
680.089	0.03
680.413	0.03
680.737	0.03
681.061	0.03
681.385	0.03
681.709	0.02
682.033	0.03
682.356	0.02
682.68	0.03
683.004	0.03
683.327	0.03
683.651	0.03
683.974	0.03
684.298	0.03
684.621	0.03
684.944	0.02
685.268	0.03
685.591	0.02
685.914	0.02
686.237	0.02
686.56	0.02
686.883	0.02
687.206	0.02
687.529	0.02
687.852	0.02
688.175	0.02
688.497	0.02
688.82	0.02
689.142	0.02
689.465	0.02
689.787	0.02
690.11	0.02
690.432	0.02
690.755	0.02
691.077	0.02
691.399	0.02
691.721	0.02
692.043	0.02
692.365	0.02
692.687	0.02
693.009	0.02
693.331	0.01
693.653	0.01
693.974	0.01
694.296	0.01
694.618	0.01
694.939	0.01
695.261	0.01
695.582	0.01
695.904	0.01
696.225	0.01
696.546	0.02
696.868	0.02
697.189	0.01
697.51	0.01
697.831	0.01
698.152	0.01
698.473	0.01
698.794	0.01
699.114	0.01
699.435	0
699.756	0.01
700.077	0.01
700.397	0.01
700.718	0.01
701.038	0.01
701.359	0.01
701.679	0.01
701.999	0.01
702.32	0.01
702.64	0.01
702.96	0.01
703.28	0.01
703.6	0.01
703.92	0.01
704.24	0.01
704.56	0.01
704.879	0.01
705.199	0.01
705.519	0.01
705.838	0.01
706.158	0.01
706.478	0.01
706.797	0.01
707.116	0.01
707.436	0.01
707.755	0.01
708.074	0.01
708.393	0.01
708.712	0
709.031	0
709.35	0
709.669	0
709.988	0
710.307	0
710.626	0
710.944	0
711.263	0
711.582	0
711.9	0.01
712.219	0
712.537	0
712.855	0.01
713.174	0
713.492	0.01
713.81	0.01
714.128	0.01
714.446	0.01
714.764	0.01
715.082	0
715.4	0
715.718	0
716.035	0
716.353	0
716.671	0
716.988	0
717.306	0
717.623	0.01
717.941	0.01
718.258	0.01
718.575	0.01
718.893	0.01
719.21	0.01
719.527	0.01
719.844	0.01
720.161	0.01
720.478	0.01
720.795	0.01
721.112	0.01
721.428	0.01
721.745	0.01
722.062	0.01
722.378	0.01
722.695	0.01
723.011	0
723.328	0.01
723.644	0.01
723.96	0.01
724.276	0.01
724.593	0.01
724.909	0.01
725.225	0.01
725.541	0.01
725.857	0.01
726.173	0.01
726.488	0.01
726.804	0.01
727.12	0.01
727.435	0.01
727.751	0.01
728.067	0.01
728.382	0.01
728.697	0.01
729.013	0.01
729.328	0.01
729.643	0.02
729.958	0.01
730.273	0.02
730.588	0.01
730.903	0.01
731.218	0.01
731.533	0.01
731.848	0.01
732.163	0.01
732.477	0.01
732.792	0.01
733.107	0.01
733.421	0.01
733.736	0.01
734.05	0.01
734.364	0.01
734.678	0.01
734.993	0.01
735.307	0.01
735.621	0.01
735.935	0.01
736.249	0.01
736.563	0.01
736.877	0.01
737.19	0.01
737.504	0.01
737.818	0.01
738.131	0.01
738.445	0.01
738.758	0.01
739.072	0.01
739.385	0.01
739.698	0.01
740.012	0.01
740.325	0.01
740.638	0.01
740.951	0.01
741.264	0.01
741.577	0.01
741.89	0.01
742.203	0.01
742.515	0.01
742.828	0.01
743.141	0.01
743.453	0.01
743.766	0.01
744.078	0.01
744.391	0
744.703	0
745.015	0
745.327	0
745.639	0
745.952	0.01
746.264	0
746.575	0
746.887	0
747.199	0
747.511	0.01
747.823	0
748.134	0
748.446	0
748.757	0
749.069	0
749.38	0
749.692	0
750.003	0.01
750.314	0.01
750.625	0
750.936	0.01
751.248	0.01
751.559	0
751.869	0.01
752.18	0.01
752.491	0
752.802	0.01
753.112	0.01
753.423	0.01
753.734	0.01
754.044	0
754.355	0.01
754.665	0
754.975	0.01
755.285	0.01
755.596	0.01
755.906	0.01
756.216	0
756.526	0
756.836	0
757.146	0
757.455	-0
757.765	0
758.075	0
758.385	0
758.694	0
759.004	0
759.313	0
759.622	0
759.932	-0
760.241	0
760.55	-0
760.859	-0
761.168	-0
761.477	-0
761.786	-0
762.095	-0.01
762.404	-0
762.713	-0
763.021	-0
763.33	-0
763.639	-0
763.947	-0
764.256	-0
764.564	-0
764.872	-0
765.181	-0
765.489	-0
765.797	-0
766.105	-0
766.413	-0
766.721	-0
767.029	-0
767.337	0
767.644	-0
767.952	-0
768.26	0
768.567	0
768.875	0
769.182	0
769.49	-0
769.797	-0
770.104	-0
770.411	-0
770.718	-0
771.026	-0
771.333	-0
771.639	-0.01
771.946	-0
772.253	-0
772.56	-0.01
772.867	-0.01
773.173	-0.01
773.48	-0.01
773.786	-0
774.093	-0.01
774.399	-0
774.705	-0
775.012	-0
775.318	-0
775.624	-0
775.93	-0
776.236	-0
776.542	-0
776.848	-0
777.154	-0
777.459	0
777.765	0
778.071	0
778.376	0
778.682	-0
778.987	-0
779.292	-0
779.598	-0
779.903	-0
780.208	-0
780.513	-0
780.818	-0
781.123	-0
781.428	-0
781.733	-0
782.038	-0
782.343	-0
782.647	-0
782.952	-0
783.256	-0
783.561	-0.01
783.865	-0
784.17	-0
784.474	-0
784.778	-0
785.082	-0
785.386	0
785.69	0
785.994	0
786.298	0
786.602	0
786.906	0
787.209	0.01
787.513	0
787.817	0
788.12	-0
788.424	0
788.727	-0
789.03	-0
789.333	0
789.637	0
789.94	0
790.243	0
790.546	0.01
790.849	0.01
791.152	0.01
791.454	0
791.757	0.01
792.06	0
792.362	0
792.665	0
792.967	0
793.27	0.01
793.572	0
793.874	0.01
794.177	0
794.479	0.01
794.781	0.01
795.083	0
795.385	0
795.687	0.01
795.989	0
796.29	0
796.592	0
796.894	0
797.195	-0
797.497	0
797.798	-0
798.1	-0
798.401	-0
798.702	-0
799.003	-0
799.304	-0
799.605	-0.01
799.906	-0.01
800.207	-0.01
800.508	-0.01
800.809	-0.01
801.11	-0.01
801.41	-0.01
801.711	-0
802.011	-0.01
802.312	-0
802.612	-0
802.913	0
803.213	0
803.513	0
803.813	0
804.113	0
804.413	0
804.713	0
805.013	0
805.313	0
805.613	0
805.912	0
806.212	0
806.511	0
806.811	0.01
807.11	0
807.41	0.01
807.709	-0
808.008	0
808.307	0
808.606	0
808.905	0
809.204	0
809.503	0
809.802	0
810.101	0
810.399	0
810.698	-0
810.997	-0
811.295	-0
811.593	-0
811.892	-0
812.19	0
812.488	0
812.786	-0
813.084	0
813.383	0
813.68	0
813.978	0
814.276	0
814.574	0
814.872	0.01
815.169	0
815.467	0
815.764	-0
816.062	0
816.359	0
816.656	0
816.954	0
817.251	0
817.548	0
817.845	0.01
818.142	0
818.439	0.01
818.735	0
819.032	0.01
819.329	-0
819.626	-0
819.922	-0
820.219	-0
820.515	-0
820.811	-0.01
821.108	-0
821.404	-0
821.7	0
821.996	-0
822.292	-0.01
822.588	-0
822.884	-0
823.18	-0
823.475	-0
823.771	-0
824.067	-0.01
824.362	-0
824.658	-0
824.953	-0
825.249	-0
825.544	-0.01
825.839	-0.01
826.134	-0
826.429	-0
826.724	-0
827.019	-0.01
827.314	0
827.609	0
827.904	-0
828.198	0
828.493	0
828.787	0
829.082	0.01
829.376	-0
829.671	0.01
829.965	0
830.259	-0
830.553	0
830.847	-0
831.141	0
831.435	-0
831.729	0.01
832.023	0
832.317	0
832.61	-0
832.904	-0
833.197	0
833.491	-0
833.784	0
834.077	0
834.371	0
834.664	-0
834.957	0
835.25	0.01
835.543	0.01
835.836	0
836.129	0
836.421	-0
836.714	0.01
837.007	0
837.299	0
837.592	-0
837.884	-0.01
838.177	0
838.469	-0.01
838.761	0
839.053	-0.01
839.345	-0
839.637	0
839.929	0
840.221	-0
840.513	0
840.805	-0
841.096	0
841.388	-0
841.68	0
841.971	-0
842.262	0
842.554	0.01
842.845	-0
843.136	-0
843.427	0
843.718	0
844.009	0
844.3	0.01
844.591	0
844.882	-0
845.173	0.01
845.463	0.01
845.754	0
846.044	0.01
846.335	-0
846.625	0
846.915	0.01
847.206	0.02
847.496	0.01
847.786	0.01
848.076	0.01
848.366	0.01
848.656	0.01
848.945	0.01
849.235	0.01
849.525	0.01
849.814	0.01
850.104	0.01
850.393	0.01
850.683	0.01
850.972	0.01
851.261	-0.01
851.551	0
851.84	-0
852.129	-0.01
852.418	-0
852.707	0
852.995	0.01
853.284	0
853.573	0
853.862	-0.01
854.15	0.01
854.439	-0
854.727	0.01
855.015	-0
855.304	0.01
855.592	0.01
855.88	0.01
856.168	0.01
856.456	0
856.744	-0
857.032	0
857.32	0.01
857.607	0.01
857.895	0
858.183	-0
858.47	0.01
858.757	0
859.045	0.02
859.332	0.01
859.619	0.01
859.907	0
860.194	0.02
860.481	-0
860.768	0
861.054	0.01
861.341	-0
861.628	0
861.915	-0
862.201	0
862.488	-0.01
862.774	-0
863.061	0
863.347	0.01
863.633	-0
863.919	-0.01
864.205	0.01
864.491	-0.01
864.777	0
865.063	0.01
865.349	-0
865.635	0.03
865.92	0.01
866.206	-0
866.492	-0.01
866.777	0
867.062	-0.01
867.348	0.02
867.633	0
867.918	-0.01
868.203	0.01
868.488	0.03
868.773	0
869.058	0.03
869.343	-0.02
869.628	0.01
869.912	0.01
870.197	-0.01
870.482	-0.01
870.766	-0.01
871.05	-0.01
871.335	-0
871.619	0
871.903	-0.01
872.187	-0.01
872.471	-0.01
872.755	-0.01
873.039	-0.01
873.323	-0.02
873.607	0.03
873.89	0.01
874.174	0
874.458	-0.04
874.741	0.01
875.024	0.05
875.308	0.02
875.591	0
875.874	-0.06
876.157	-0.05
876.44	0
876.723	0.05
877.006	-0
877.289	0.01
877.572	-0.07
877.854	-0.02
878.137	0.05
878.42	-0.07
878.702	-0.01
878.984	0.04
879.267	-0.06
879.549	-0.03
879.831	-0.07
880.113	-0.02
880.395	0.06
880.677	-0.09
880.959	-0.11
