Data from Rubpy_BV_1200_EDTA_Buffered_Absorbance_13-37-38-079.txt Node
Date: Wed Jul 01 13:37:38 BST 2026
User: fpm-admin
Spectrometer: OFX00224
Trigger mode: 0
Integration Time (sec): 7.000000E-2
Scans to average: 3
Nonlinearity correction enabled: false
Boxcar width: 0
Storing dark spectrum: false
XAxis mode: Wavelengths
Number of Pixels in Spectrum: 2136
>>>>>Begin Spectral Data<<<<<
154.91	0.26
155.289	-0
155.669	-0.45
156.048	-0.88
156.428	-0.1
156.807	-0
157.186	-0
157.566	-0
157.945	-0.04
158.325	0.13
158.704	-1.12
159.083	-0.36
159.462	-0.72
159.842	-0.36
160.221	-0
160.6	0.65
160.979	-0
161.359	-0
161.738	0.43
162.117	1.22
162.496	-0
162.875	-0
163.254	-0
163.633	-0.03
164.012	-0
164.391	0.07
164.77	-0.25
165.149	-0
165.528	-0
165.907	0.18
166.286	0.08
166.665	0.47
167.044	-1.11
167.423	0.14
167.802	-0
168.181	-0
168.559	0.78
168.938	0.57
169.317	-0.05
169.696	-0.46
170.074	0.48
170.453	-0
170.832	-0.48
171.21	-0.06
171.589	-0
171.968	-0
172.346	-0.01
172.725	-0
173.103	0.06
173.482	-0.07
173.861	-0.6
174.239	0.64
174.617	0.02
174.996	-0.1
175.374	-0
175.753	-0.02
176.131	-0.4
176.51	0.3
176.888	0.21
177.266	1.03
177.645	0.08
178.023	0.09
178.401	-0.04
178.779	0.46
179.158	-0
179.536	0.78
179.914	-0
180.292	-0.26
180.67	-0.54
181.048	-0
181.427	-0.74
181.805	0.78
182.183	-0.36
182.561	-0
182.939	-0
183.317	-0.48
183.695	0.3
184.073	0.39
184.451	-0.85
184.829	0.17
185.206	-0.4
185.584	0.1
185.962	-0
186.34	-0.78
186.718	-0
187.096	0.31
187.473	-0.48
187.851	-0.1
188.229	0.54
188.607	0.01
188.984	0.04
189.362	0.08
189.74	-0.09
190.117	0.03
190.495	0.06
190.872	0.02
191.25	0.15
191.627	-0.03
192.005	0.02
192.382	0.02
192.76	0.04
193.137	0.04
193.515	-0.07
193.892	0.02
194.269	0.04
194.647	0.02
195.024	-0.02
195.401	0.04
195.779	-0.08
196.156	-0.06
196.533	0.01
196.91	-0.01
197.288	0
197.665	-0.04
198.042	-0.02
198.419	0.04
198.796	-0.01
199.173	0.06
199.55	0.06
199.927	0.02
200.304	0.13
200.681	0.11
201.058	0.02
201.435	-0.08
201.812	-0
202.189	-0.06
202.566	0.07
202.943	0.05
203.32	0.04
203.697	0.01
204.073	0.06
204.45	0.09
204.827	0.07
205.204	0.16
205.58	0.01
205.957	-0.12
206.334	-0.01
206.71	0.06
207.087	0.01
207.464	0.02
207.84	0.1
208.217	-0.01
208.593	0.06
208.97	-0.06
209.346	0.07
209.723	0.05
210.099	-0.08
210.476	0.07
210.852	0.09
211.228	-0.05
211.605	0.04
211.981	0.07
212.357	-0.05
212.733	-0.1
213.11	0.01
213.486	0.07
213.862	0.02
214.238	0.02
214.614	0.04
214.991	-0
215.367	0.06
215.743	0.01
216.119	-0.01
216.495	-0.02
216.871	0.05
217.247	-0.04
217.623	0.03
217.999	0.1
218.375	0.03
218.751	0
219.127	0.03
219.502	-0
219.878	-0.05
220.254	0.11
220.63	0.07
221.006	0.03
221.381	0.04
221.757	-0.05
222.133	0.01
222.508	0.02
222.884	0.09
223.26	0.04
223.635	0
224.011	0.05
224.386	0.06
224.762	0.02
225.137	0.05
225.513	0.01
225.888	0.05
226.264	0.09
226.639	0.13
227.014	0.04
227.39	0.12
227.765	0.1
228.14	0.12
228.516	0.06
228.891	0.05
229.266	0.03
229.641	0.07
230.017	0.05
230.392	0.14
230.767	0.08
231.142	-0.01
231.517	0.05
231.892	0.03
232.267	0
232.642	0.09
233.017	0.02
233.392	-0.02
233.767	0.1
234.142	0.03
234.517	0.06
234.892	-0.02
235.267	0.02
235.641	0.11
236.016	0.01
236.391	0.03
236.766	0.01
237.14	0.09
237.515	0.07
237.89	0.09
238.264	0.07
238.639	-0.02
239.014	0.01
239.388	0.03
239.763	0.06
240.137	0.08
240.512	0.02
240.886	0.06
241.261	0.04
241.635	0.06
242.009	0.05
242.384	0.07
242.758	0.06
243.132	0.03
243.507	0.03
243.881	0.11
244.255	0.07
244.629	0.03
245.004	0.11
245.378	-0.02
245.752	-0.03
246.126	0.03
246.5	0.02
246.874	0.09
247.248	0.05
247.622	-0
247.996	-0.02
248.37	0.09
248.744	0.01
249.118	0.21
249.492	-0.01
249.866	0.14
250.24	-0.01
250.613	0.01
250.987	0.11
251.361	0.1
251.735	-0
252.108	0.01
252.482	0.02
252.856	-0.01
253.229	0.07
253.603	0.01
253.977	0.02
254.35	0.1
254.724	0.09
255.097	0.09
255.471	0.07
255.844	0.09
256.218	0.07
256.591	-0.01
256.964	0.04
257.338	0.06
257.711	0.08
258.084	0.07
258.458	0.04
258.831	0.09
259.204	0.03
259.577	0.09
259.95	0.11
260.323	0.05
260.697	0.11
261.07	0.08
261.443	0.11
261.816	-0.02
262.189	0.06
262.562	0.13
262.935	0.1
263.308	0.08
263.68	0.11
264.053	0.09
264.426	0.08
264.799	0.09
265.172	0
265.545	0.02
265.917	0.01
266.29	0.15
266.663	0.05
267.035	0.06
267.408	0.09
267.781	0.01
268.153	-0.01
268.526	0.04
268.898	0.1
269.271	0.07
269.643	0.04
270.016	0.04
270.388	0.06
270.76	0.02
271.133	0.07
271.505	0.05
271.877	0.09
272.25	0.09
272.622	0.1
272.994	0.05
273.366	-0.01
273.739	0.07
274.111	0.03
274.483	0.15
274.855	0.03
275.227	0.11
275.599	0.1
275.971	0.03
276.343	0.06
276.715	0.04
277.087	0.13
277.459	0.06
277.831	0.1
278.203	0.08
278.574	0.03
278.946	0.07
279.318	0.08
279.69	0.08
280.061	0.03
280.433	0.01
280.805	0.07
281.176	-0.02
281.548	0.11
281.92	0.07
282.291	0.07
282.663	0.12
283.034	0.05
283.406	0.07
283.777	0.07
284.148	-0.03
284.52	0.07
284.891	0.11
285.262	0.03
285.634	0.08
286.005	0.05
286.376	0.05
286.747	0
287.119	0.04
287.49	0.1
287.861	0.07
288.232	0.11
288.603	0.06
288.974	0.08
289.345	0.05
289.716	0.04
290.087	0.04
290.458	0.05
290.829	0.11
291.2	0.1
291.571	0.11
291.941	0.1
292.312	0.06
292.683	0.03
293.054	0.03
293.424	0.14
293.795	0.1
294.166	0.15
294.536	0.01
294.907	0.08
295.277	0.04
295.648	0.08
296.018	0.06
296.389	0.04
296.759	0.01
297.13	0.07
297.5	0.11
297.871	0.09
298.241	0.07
298.611	0.07
298.981	0.07
299.352	0.09
299.722	0.02
300.092	0.08
300.462	0.06
300.832	0.04
301.202	0.08
301.573	0.09
301.943	0.03
302.313	0.01
302.683	0.04
303.053	0.02
303.422	0.09
303.792	0.06
304.162	0.05
304.532	0.03
304.902	0.07
305.272	0.07
305.641	0.02
306.011	0.05
306.381	0.08
306.75	0.06
307.12	0.05
307.49	0.05
307.859	0.06
308.229	0.03
308.598	0.03
308.968	0.03
309.337	0.04
309.707	0.07
310.076	0.05
310.445	0.03
310.815	0.02
311.184	0.04
311.553	0.04
311.923	0.03
312.292	0.05
312.661	0.04
313.03	0.03
313.399	0.05
313.768	0.05
314.137	0.05
314.506	0.06
314.875	0.04
315.244	0.05
315.613	0.06
315.982	0.06
316.351	0.05
316.72	0.05
317.089	0.04
317.458	0.06
317.826	0.04
318.195	0.05
318.564	0.04
318.933	0.05
319.301	0.04
319.67	0.06
320.038	0.06
320.407	0.05
320.775	0.07
321.144	0.05
321.512	0.05
321.881	0.06
322.249	0.06
322.618	0.06
322.986	0.06
323.354	0.06
323.723	0.05
324.091	0.05
324.459	0.06
324.827	0.06
325.195	0.06
325.564	0.06
325.932	0.06
326.3	0.06
326.668	0.06
327.036	0.07
327.404	0.07
327.772	0.06
328.14	0.07
328.508	0.07
328.875	0.06
329.243	0.07
329.611	0.07
329.979	0.06
330.346	0.08
330.714	0.07
331.082	0.07
331.449	0.07
331.817	0.08
332.185	0.07
332.552	0.08
332.92	0.08
333.287	0.08
333.655	0.08
334.022	0.09
334.389	0.09
334.757	0.09
335.124	0.09
335.491	0.09
335.859	0.09
336.226	0.09
336.593	0.1
336.96	0.09
337.327	0.1
337.695	0.1
338.062	0.1
338.429	0.1
338.796	0.11
339.163	0.1
339.53	0.11
339.897	0.11
340.263	0.11
340.63	0.11
340.997	0.11
341.364	0.12
341.731	0.12
342.097	0.12
342.464	0.12
342.831	0.12
343.197	0.12
343.564	0.13
343.931	0.13
344.297	0.13
344.664	0.13
345.03	0.14
345.396	0.14
345.763	0.14
346.129	0.15
346.496	0.15
346.862	0.14
347.228	0.15
347.594	0.15
347.961	0.15
348.327	0.15
348.693	0.15
349.059	0.16
349.425	0.16
349.791	0.16
350.157	0.17
350.523	0.16
350.889	0.18
351.255	0.17
351.621	0.18
351.987	0.18
352.353	0.18
352.719	0.18
353.084	0.18
353.45	0.19
353.816	0.19
354.181	0.19
354.547	0.19
354.913	0.2
355.278	0.2
355.644	0.2
356.009	0.2
356.375	0.21
356.74	0.21
357.106	0.21
357.471	0.21
357.836	0.21
358.202	0.22
358.567	0.23
358.932	0.23
359.297	0.23
359.663	0.23
360.028	0.24
360.393	0.24
360.758	0.24
361.123	0.25
361.488	0.25
361.853	0.26
362.218	0.26
362.583	0.26
362.948	0.27
363.312	0.27
363.677	0.27
364.042	0.28
364.407	0.28
364.772	0.28
365.136	0.28
365.501	0.29
365.865	0.29
366.23	0.29
366.595	0.3
366.959	0.31
367.324	0.3
367.688	0.31
368.052	0.31
368.417	0.31
368.781	0.31
369.145	0.32
369.51	0.33
369.874	0.33
370.238	0.33
370.602	0.33
370.967	0.34
371.331	0.34
371.695	0.34
372.059	0.34
372.423	0.34
372.787	0.34
373.151	0.34
373.515	0.34
373.878	0.34
374.242	0.34
374.606	0.34
374.97	0.34
375.334	0.34
375.697	0.33
376.061	0.33
376.425	0.33
376.788	0.32
377.152	0.32
377.515	0.32
377.879	0.31
378.242	0.31
378.606	0.31
378.969	0.3
379.333	0.3
379.696	0.3
380.059	0.3
380.422	0.3
380.786	0.3
381.149	0.29
381.512	0.29
381.875	0.29
382.238	0.29
382.601	0.29
382.964	0.29
383.327	0.29
383.69	0.29
384.053	0.29
384.416	0.28
384.779	0.28
385.142	0.29
385.504	0.29
385.867	0.28
386.23	0.29
386.593	0.29
386.955	0.29
387.318	0.3
387.68	0.3
388.043	0.3
388.405	0.31
388.768	0.3
389.13	0.3
389.493	0.3
389.855	0.31
390.217	0.3
390.58	0.3
390.942	0.31
391.304	0.3
391.666	0.3
392.028	0.29
392.391	0.29
392.753	0.29
393.115	0.28
393.477	0.29
393.839	0.28
394.201	0.28
394.563	0.28
394.924	0.28
395.286	0.29
395.648	0.29
396.01	0.29
396.371	0.29
396.733	0.3
397.095	0.31
397.456	0.31
397.818	0.33
398.18	0.33
398.541	0.34
398.903	0.35
399.264	0.36
399.625	0.37
399.987	0.38
400.348	0.39
400.709	0.4
401.071	0.4
401.432	0.4
401.793	0.4
402.154	0.4
402.515	0.39
402.876	0.39
403.238	0.38
403.599	0.37
403.96	0.36
404.32	0.35
404.681	0.34
405.042	0.32
405.403	0.3
405.764	0.29
406.125	0.28
406.485	0.26
406.846	0.25
407.207	0.23
407.567	0.22
407.928	0.21
408.288	0.19
408.649	0.19
409.009	0.17
409.37	0.16
409.73	0.15
410.091	0.15
410.451	0.14
410.811	0.13
411.171	0.12
411.532	0.11
411.892	0.11
412.252	0.1
412.612	0.1
412.972	0.09
413.332	0.09
413.692	0.09
414.052	0.08
414.412	0.07
414.772	0.07
415.132	0.07
415.492	0.07
415.851	0.06
416.211	0.07
416.571	0.06
416.931	0.06
417.29	0.06
417.65	0.06
418.009	0.05
418.369	0.05
418.728	0.05
419.088	0.05
419.447	0.05
419.807	0.05
420.166	0.05
420.525	0.05
420.884	0.04
421.244	0.04
421.603	0.04
421.962	0.03
422.321	0.04
422.68	0.04
423.039	0.04
423.398	0.05
423.757	0.03
424.116	0.03
424.475	0.03
424.834	0.04
425.193	0.03
425.551	0.03
425.91	0.03
426.269	0.03
426.628	0.03
426.986	0.03
427.345	0.03
427.703	0.03
428.062	0.04
428.42	0.03
428.779	0.02
429.137	0.03
429.496	0.04
429.854	0.03
430.212	0.03
430.57	0.03
430.929	0.03
431.287	0.02
431.645	0.03
432.003	0.03
432.361	0.03
432.719	0.03
433.077	0.03
433.435	0.03
433.793	0.04
434.151	0.02
434.509	0.02
434.866	0.03
435.224	0.02
435.582	0.02
435.94	0.03
436.297	0.03
436.655	0.03
437.012	0.03
437.37	0.03
437.727	0.02
438.085	0.02
438.442	0.02
438.8	0.02
439.157	0.02
439.514	0.02
439.872	0.02
440.229	0.03
440.586	0.02
440.943	0.02
441.3	0.02
441.657	0.02
442.014	0.02
442.371	0.02
442.728	0.02
443.085	0.02
443.442	0.02
443.799	0.02
444.156	0.02
444.513	0.02
444.869	0.02
445.226	0.03
445.583	0.03
445.939	0.02
446.296	0.02
446.652	0.02
447.009	0.02
447.365	0.02
447.722	0.02
448.078	0.02
448.434	0.01
448.791	0.01
449.147	0.02
449.503	0.02
449.859	0.02
450.215	0.02
450.571	0.01
450.928	0.02
451.284	0.01
451.64	0.01
451.995	0.01
452.351	0
452.707	0.02
453.063	0
453.419	0.01
453.775	0.01
454.13	0
454.486	0.01
454.842	0.01
455.197	0
455.553	-0
455.908	-0
456.264	-0.02
456.619	-0.01
456.975	-0
457.33	-0.01
457.685	-0.01
458.04	-0.01
458.396	-0.02
458.751	-0.02
459.106	-0.02
459.461	-0.02
459.816	-0.03
460.171	-0.03
460.526	-0.02
460.881	-0.03
461.236	-0.03
461.591	-0.03
461.946	-0.03
462.301	-0.04
462.655	-0.04
463.01	-0.04
463.365	-0.04
463.719	-0.04
464.074	-0.05
464.428	-0.05
464.783	-0.06
465.137	-0.07
465.492	-0.06
465.846	-0.06
466.201	-0.06
466.555	-0.06
466.909	-0.06
467.263	-0.06
467.618	-0.06
467.972	-0.05
468.326	-0.05
468.68	-0.07
469.034	-0.07
469.388	-0.07
469.742	-0.06
470.096	-0.06
470.45	-0.06
470.804	-0.06
471.157	-0.06
471.511	-0.06
471.865	-0.06
472.218	-0.06
472.572	-0.05
472.926	-0.06
473.279	-0.05
473.633	-0.05
473.986	-0.05
474.34	-0.04
474.693	-0.03
475.046	-0.03
475.4	-0.03
475.753	-0.02
476.106	-0.02
476.459	-0.02
476.812	-0.02
477.165	-0.01
477.519	-0
477.872	-0.01
478.224	-0
478.577	0
478.93	-0
479.283	0
479.636	0.01
479.989	0.01
480.341	0.01
480.694	0.01
481.047	0.01
481.399	0.02
481.752	0.02
482.104	0.02
482.457	0.02
482.809	0.02
483.162	0.03
483.514	0.03
483.866	0.03
484.219	0.03
484.571	0.03
484.923	0.03
485.275	0.04
485.627	0.04
485.979	0.04
486.331	0.04
486.683	0.04
487.035	0.04
487.387	0.04
487.739	0.05
488.091	0.05
488.443	0.05
488.794	0.05
489.146	0.05
489.498	0.05
489.849	0.05
490.201	0.05
490.552	0.05
490.904	0.05
491.255	0.05
491.607	0.05
491.958	0.05
492.309	0.06
492.661	0.05
493.012	0.06
493.363	0.06
493.714	0.06
494.065	0.06
494.416	0.06
494.767	0.06
495.118	0.06
495.469	0.06
495.82	0.06
496.171	0.07
496.522	0.07
496.872	0.07
497.223	0.07
497.574	0.07
497.924	0.07
498.275	0.07
498.626	0.07
498.976	0.08
499.327	0.07
499.677	0.07
500.027	0.08
500.378	0.07
500.728	0.08
501.078	0.08
501.428	0.08
501.779	0.08
502.129	0.08
502.479	0.08
502.829	0.08
503.179	0.08
503.529	0.08
503.879	0.08
504.229	0.08
504.578	0.08
504.928	0.09
505.278	0.09
505.628	0.09
505.977	0.09
506.327	0.09
506.676	0.09
507.026	0.09
507.375	0.09
507.725	0.09
508.074	0.1
508.424	0.09
508.773	0.09
509.122	0.09
509.471	0.1
509.82	0.09
510.17	0.1
510.519	0.1
510.868	0.1
511.217	0.1
511.566	0.1
511.915	0.1
512.263	0.1
512.612	0.11
512.961	0.1
513.31	0.1
513.659	0.1
514.007	0.11
514.356	0.11
514.704	0.11
515.053	0.11
515.401	0.11
515.75	0.11
516.098	0.11
516.447	0.11
516.795	0.11
517.143	0.11
517.491	0.11
517.839	0.11
518.188	0.11
518.536	0.11
518.884	0.11
519.232	0.11
519.58	0.12
519.928	0.12
520.275	0.11
520.623	0.12
520.971	0.12
521.319	0.12
521.666	0.12
522.014	0.12
522.362	0.12
522.709	0.12
523.057	0.12
523.404	0.12
523.752	0.12
524.099	0.12
524.446	0.12
524.794	0.12
525.141	0.12
525.488	0.13
525.835	0.12
526.182	0.12
526.529	0.13
526.876	0.13
527.223	0.13
527.57	0.12
527.917	0.12
528.264	0.13
528.611	0.13
528.958	0.13
529.304	0.13
529.651	0.13
529.998	0.13
530.344	0.13
530.691	0.13
531.037	0.13
531.384	0.13
531.73	0.13
532.076	0.12
532.423	0.13
532.769	0.13
533.115	0.13
533.461	0.13
533.807	0.13
534.154	0.13
534.5	0.13
534.846	0.13
535.192	0.14
535.537	0.14
535.883	0.13
536.229	0.14
536.575	0.13
536.921	0.14
537.266	0.14
537.612	0.14
537.957	0.14
538.303	0.14
538.649	0.14
538.994	0.14
539.339	0.14
539.685	0.14
540.03	0.14
540.375	0.14
540.721	0.14
541.066	0.14
541.411	0.15
541.756	0.14
542.101	0.14
542.446	0.15
542.791	0.14
543.136	0.14
543.481	0.14
543.825	0.14
544.17	0.15
544.515	0.15
544.86	0.15
545.204	0.15
545.549	0.15
545.893	0.15
546.238	0.15
546.582	0.15
546.927	0.15
547.271	0.15
547.615	0.15
547.96	0.15
548.304	0.15
548.648	0.15
548.992	0.15
549.336	0.15
549.68	0.15
550.024	0.16
550.368	0.15
550.712	0.16
551.056	0.16
551.4	0.15
551.743	0.16
552.087	0.15
552.431	0.16
552.774	0.16
553.118	0.15
553.462	0.15
553.805	0.15
554.148	0.15
554.492	0.15
554.835	0.16
555.178	0.16
555.522	0.15
555.865	0.15
556.208	0.16
556.551	0.16
556.894	0.16
557.237	0.16
557.58	0.15
557.923	0.16
558.266	0.16
558.609	0.15
558.952	0.15
559.294	0.15
559.637	0.15
559.98	0.15
560.322	0.16
560.665	0.16
561.007	0.16
561.35	0.16
561.692	0.16
562.034	0.16
562.377	0.16
562.719	0.16
563.061	0.15
563.403	0.16
563.745	0.15
564.088	0.16
564.43	0.16
564.772	0.16
565.113	0.16
565.455	0.16
565.797	0.16
566.139	0.16
566.481	0.16
566.822	0.16
567.164	0.15
567.506	0.15
567.847	0.15
568.189	0.15
568.53	0.16
568.872	0.15
569.213	0.15
569.554	0.15
569.895	0.15
570.237	0.15
570.578	0.16
570.919	0.15
571.26	0.15
571.601	0.15
571.942	0.15
572.283	0.15
572.624	0.15
572.965	0.15
573.306	0.15
573.646	0.15
573.987	0.15
574.328	0.15
574.668	0.15
575.009	0.15
575.349	0.15
575.69	0.15
576.03	0.15
576.37	0.15
576.711	0.14
577.051	0.14
577.391	0.14
577.731	0.15
578.072	0.15
578.412	0.15
578.752	0.14
579.092	0.14
579.431	0.13
579.771	0.12
580.111	0.1
580.451	0.12
580.791	0.14
581.13	0.14
581.47	0.14
581.81	0.14
582.149	0.14
582.489	0.14
582.828	0.13
583.167	0.11
583.507	0.07
583.846	0.06
584.185	0.09
584.525	0.11
584.864	0.13
585.203	0.14
585.542	0.14
585.881	0.14
586.22	0.14
586.559	0.14
586.898	0.13
587.236	0.12
587.575	0.12
587.914	0.13
588.252	0.14
588.591	0.14
588.93	0.14
589.268	0.14
589.607	0.14
589.945	0.14
590.283	0.14
590.622	0.14
590.96	0.15
591.298	0.15
591.636	0.15
591.974	0.15
592.313	0.15
592.651	0.15
592.989	0.15
593.326	0.15
593.664	0.15
594.002	0.15
594.34	0.15
594.678	0.14
595.015	0.14
595.353	0.13
595.691	0.14
596.028	0.15
596.366	0.15
596.703	0.15
597.04	0.15
597.378	0.15
597.715	0.15
598.052	0.15
598.389	0.15
598.726	0.15
599.064	0.15
599.401	0.15
599.738	0.15
600.074	0.15
600.411	0.15
600.748	0.15
601.085	0.14
601.422	0.14
601.758	0.14
602.095	0.14
602.432	0.14
602.768	0.15
603.105	0.15
603.441	0.15
603.777	0.15
604.114	0.15
604.45	0.15
604.786	0.15
605.122	0.15
605.459	0.15
605.795	0.15
606.131	0.15
606.467	0.15
606.803	0.15
607.139	0.15
607.474	0.15
607.81	0.15
608.146	0.15
608.482	0.15
608.817	0.15
609.153	0.15
609.488	0.15
609.824	0.15
610.159	0.15
610.495	0.15
610.83	0.15
611.165	0.15
611.5	0.15
611.836	0.14
612.171	0.15
612.506	0.15
612.841	0.15
613.176	0.15
613.511	0.15
613.845	0.15
614.18	0.15
614.515	0.15
614.85	0.14
615.184	0.14
615.519	0.14
615.854	0.14
616.188	0.14
616.523	0.14
616.857	0.14
617.191	0.14
617.526	0.14
617.86	0.14
618.194	0.13
618.528	0.14
618.862	0.14
619.196	0.14
619.53	0.14
619.864	0.14
620.198	0.14
620.532	0.14
620.866	0.14
621.2	0.14
621.533	0.14
621.867	0.14
622.201	0.14
622.534	0.14
622.868	0.14
623.201	0.14
623.534	0.13
623.868	0.13
624.201	0.13
624.534	0.13
624.868	0.13
625.201	0.13
625.534	0.13
625.867	0.13
626.2	0.13
626.533	0.13
626.865	0.13
627.198	0.13
627.531	0.13
627.864	0.13
628.196	0.13
628.529	0.13
628.862	0.13
629.194	0.13
629.527	0.12
629.859	0.12
630.191	0.12
630.524	0.12
630.856	0.12
631.188	0.12
631.52	0.12
631.852	0.12
632.184	0.12
632.516	0.12
632.848	0.12
633.18	0.12
633.512	0.12
633.844	0.11
634.175	0.11
634.507	0.11
634.839	0.11
635.17	0.11
635.502	0.11
635.833	0.11
636.165	0.11
636.496	0.11
636.827	0.11
637.159	0.1
637.49	0.11
637.821	0.1
638.152	0.1
638.483	0.1
638.814	0.1
639.145	0.1
639.476	0.1
639.807	0.1
640.137	0.1
640.468	0.1
640.799	0.1
641.129	0.09
641.46	0.09
641.791	0.09
642.121	0.09
642.451	0.1
642.782	0.09
643.112	0.09
643.442	0.09
643.773	0.09
644.103	0.09
644.433	0.09
644.763	0.09
645.093	0.09
645.423	0.09
645.753	0.09
646.082	0.09
646.412	0.09
646.742	0.09
647.072	0.09
647.401	0.09
647.731	0.09
648.06	0.08
648.39	0.08
648.719	0.08
649.048	0.08
649.378	0.08
649.707	0.08
650.036	0.08
650.365	0.08
650.694	0.08
651.023	0.08
651.352	0.08
651.681	0.08
652.01	0.08
652.339	0.08
652.668	0.08
652.996	0.08
653.325	0.08
653.654	0.08
653.982	0.08
654.311	0.08
654.639	0.08
654.967	0.08
655.296	0.08
655.624	0.08
655.952	0.08
656.28	0.08
656.609	0.08
656.937	0.08
657.265	0.08
657.593	0
657.92	0
658.248	-0
658.576	-0
658.904	-0
659.231	0.03
659.559	0.07
659.887	0.08
660.214	0.07
660.542	0.07
660.869	0.07
661.196	0.07
661.524	0.08
661.851	0.08
662.178	0.07
662.505	0.08
662.832	0.08
663.159	0.08
663.486	0.08
663.813	0.08
664.14	0.07
664.467	0.07
664.794	0.07
665.12	0.07
665.447	0.07
665.774	0.07
666.1	0.07
666.427	0.07
666.753	0.07
667.079	0.07
667.406	0.07
667.732	0.07
668.058	0.07
668.384	0.07
668.71	0.07
669.036	0.07
669.362	0.07
669.688	0.07
670.014	0.07
670.34	0.07
670.666	0.07
670.991	0.07
671.317	0.06
671.643	0.06
671.968	0.06
672.294	0.06
672.619	0.06
672.945	0.06
673.27	0.06
673.595	0.06
673.92	0.06
674.246	0.06
674.571	0.06
674.896	0.06
675.221	0.06
675.546	0.06
675.87	0.06
676.195	0.06
676.52	0.06
676.845	0.06
677.169	0.05
677.494	0.05
677.819	0.06
678.143	0.05
678.468	0.05
678.792	0.05
679.116	0.05
679.44	0.05
679.765	0.05
680.089	0.05
680.413	0.05
680.737	0.05
681.061	0.05
681.385	0.04
681.709	0.04
682.033	0.04
682.356	0.04
682.68	0.04
683.004	0.04
683.327	0.04
683.651	0.04
683.974	0.04
684.298	0.04
684.621	0.04
684.944	0.04
685.268	0.04
685.591	0.04
685.914	0.04
686.237	0.04
686.56	0.04
686.883	0.04
687.206	0.03
687.529	0.03
687.852	0.03
688.175	0.03
688.497	0.04
688.82	0.03
689.142	0.03
689.465	0.03
689.787	0.03
690.11	0.03
690.432	0.03
690.755	0.03
691.077	0.03
691.399	0.03
691.721	0.03
692.043	0.03
692.365	0.03
692.687	0.03
693.009	0.03
693.331	0.02
693.653	0.02
693.974	0.02
694.296	0.02
694.618	0.02
694.939	0.02
695.261	0.02
695.582	0.03
695.904	0.02
696.225	0.03
696.546	0.03
696.868	0.03
697.189	0.02
697.51	0.02
697.831	0.02
698.152	0.02
698.473	0.02
698.794	0.02
699.114	0.02
699.435	0.01
699.756	0.01
700.077	0.01
700.397	0.02
700.718	0.02
701.038	0.02
701.359	0.02
701.679	0.02
701.999	0.02
702.32	0.02
702.64	0.02
702.96	0.02
703.28	0.02
703.6	0.02
703.92	0.01
704.24	0.01
704.56	0.01
704.879	0.01
705.199	0.02
705.519	0.01
705.838	0.02
706.158	0.02
706.478	0.01
706.797	0.02
707.116	0.02
707.436	0.01
707.755	0.02
708.074	0.02
708.393	0.01
708.712	0.01
709.031	0
709.35	0
709.669	0
709.988	0
710.307	0.01
710.626	0.01
710.944	0.01
711.263	0.01
711.582	0.01
711.9	0.01
712.219	0.01
712.537	0.01
712.855	0.01
713.174	0.01
713.492	0.01
713.81	0.01
714.128	0.01
714.446	0.01
714.764	0.01
715.082	0.01
715.4	0.01
715.718	0.01
716.035	0.01
716.353	0.01
716.671	0.01
716.988	0.01
717.306	0.01
717.623	0.01
717.941	0.01
718.258	0.02
718.575	0.02
718.893	0.02
719.21	0.02
719.527	0.02
719.844	0.01
720.161	0.01
720.478	0.01
720.795	0.01
721.112	0.01
721.428	0.01
721.745	0.01
722.062	0.01
722.378	0.01
722.695	0.01
723.011	0.01
723.328	0.01
723.644	0.02
723.96	0.02
724.276	0.02
724.593	0.01
724.909	0.02
725.225	0.02
725.541	0.02
725.857	0.02
726.173	0.02
726.488	0.02
726.804	0.02
727.12	0.02
727.435	0.02
727.751	0.02
728.067	0.02
728.382	0.02
728.697	0.02
729.013	0.02
729.328	0.02
729.643	0.02
729.958	0.02
730.273	0.02
730.588	0.02
730.903	0.02
731.218	0.02
731.533	0.02
731.848	0.02
732.163	0.02
732.477	0.02
732.792	0.02
733.107	0.01
733.421	0.01
733.736	0.02
734.05	0.02
734.364	0.02
734.678	0.02
734.993	0.02
735.307	0.02
735.621	0.01
735.935	0.02
736.249	0.02
736.563	0.02
736.877	0.02
737.19	0.02
737.504	0.02
737.818	0.02
738.131	0.02
738.445	0.02
738.758	0.02
739.072	0.02
739.385	0.02
739.698	0.02
740.012	0.02
740.325	0.02
740.638	0.02
740.951	0.02
741.264	0.02
741.577	0.02
741.89	0.02
742.203	0.02
742.515	0.02
742.828	0.02
743.141	0.01
743.453	0.01
743.766	0.01
744.078	0.01
744.391	0.01
744.703	0.01
745.015	0.01
745.327	0.01
745.639	0.01
745.952	0.01
746.264	0.01
746.575	0.01
746.887	0.01
747.199	0.01
747.511	0.01
747.823	0.01
748.134	0.01
748.446	0.01
748.757	0.01
749.069	0.01
749.38	0.01
749.692	0.01
750.003	0.01
750.314	0.01
750.625	0.01
750.936	0.01
751.248	0.01
751.559	0.01
751.869	0.01
752.18	0.01
752.491	0.01
752.802	0.01
753.112	0.01
753.423	0.01
753.734	0.01
754.044	0.01
754.355	0.01
754.665	0.01
754.975	0.01
755.285	0.01
755.596	0.01
755.906	0.01
756.216	0.01
756.526	0.01
756.836	0.01
757.146	0
757.455	0
757.765	0
758.075	0.01
758.385	0.01
758.694	0.01
759.004	0.01
759.313	0
759.622	0
759.932	0
760.241	0
760.55	0
760.859	0
761.168	0
761.477	0
761.786	0
762.095	-0
762.404	0
762.713	0
763.021	0
763.33	0
763.639	0
763.947	0
764.256	0
764.564	0
764.872	0
765.181	-0
765.489	-0
765.797	0
766.105	0
766.413	0
766.721	0
767.029	0
767.337	0
767.644	0
767.952	0
768.26	0
768.567	0
768.875	0
769.182	0
769.49	0
769.797	0
770.104	0
770.411	-0
770.718	-0
771.026	-0
771.333	-0
771.639	-0
771.946	-0
772.253	-0
772.56	-0
772.867	-0
773.173	-0
773.48	0
773.786	0
774.093	0
774.399	0
774.705	-0
775.012	0
775.318	0
775.624	0
775.93	0
776.236	0
776.542	0
776.848	0
777.154	0.01
777.459	0.01
777.765	0
778.071	0.01
778.376	0
778.682	0
778.987	0
779.292	0
779.598	0
779.903	0
780.208	0
780.513	0.01
780.818	0
781.123	0
781.428	0
781.733	0
782.038	0
782.343	0
782.647	0
782.952	0
783.256	0
783.561	-0
783.865	-0
784.17	0
784.474	0
784.778	0
785.082	0
785.386	0.01
785.69	0
785.994	0.01
786.298	0.01
786.602	0.01
786.906	0
787.209	0.01
787.513	0.01
787.817	0.01
788.12	0
788.424	0
788.727	0
789.03	0
789.333	0
789.637	0
789.94	0.01
790.243	0.01
790.546	0.01
790.849	0.01
791.152	0.01
791.454	0.01
791.757	0.01
792.06	0.01
792.362	0.01
792.665	0.01
792.967	0.01
793.27	0.01
793.572	0.01
793.874	0.01
794.177	0.01
794.479	0.01
794.781	0.01
795.083	0.01
795.385	0.01
795.687	0.01
795.989	0
796.29	0.01
796.592	0.01
796.894	0
797.195	0.01
797.497	0.01
797.798	0
798.1	0
798.401	0
798.702	0
799.003	0
799.304	0
799.605	-0
799.906	-0
800.207	-0
800.508	-0
800.809	-0.01
801.11	-0
801.41	-0
801.711	-0
802.011	-0
802.312	0
802.612	0
802.913	0
803.213	0
803.513	0.01
803.813	0.01
804.113	0.01
804.413	0.01
804.713	0.01
805.013	0.01
805.313	0.01
805.613	0.01
805.912	0.01
806.212	0.01
806.511	0.01
806.811	0.01
807.11	0.01
807.41	0.01
807.709	0
808.008	0.01
808.307	0.01
808.606	0.01
808.905	0
809.204	0
809.503	0.01
809.802	0.01
810.101	0.01
810.399	0
810.698	0.01
810.997	0
811.295	0
811.593	0
811.892	0
812.19	0.01
812.488	0.01
812.786	0
813.084	0
813.383	0
813.68	0.01
813.978	0.01
814.276	0
814.574	0.01
814.872	0.01
815.169	0.01
815.467	0.01
815.764	0.01
816.062	0.01
816.359	0.01
816.656	0.01
816.954	0.01
817.251	0.01
817.548	0.01
817.845	0.01
818.142	0.01
818.439	0.01
818.735	0.01
819.032	0.01
819.329	0
819.626	0.01
819.922	0.01
820.219	0.01
820.515	0.01
820.811	-0
821.108	0
821.404	0
821.7	0
821.996	0.01
822.292	0.01
822.588	0.01
822.884	0
823.18	0.01
823.475	0
823.771	0
824.067	0
824.362	-0
824.658	0.01
824.953	0.01
825.249	0.01
825.544	0
825.839	0
826.134	0.01
826.429	0
826.724	0
827.019	-0
827.314	0.01
827.609	0.01
827.904	0.01
828.198	0.01
828.493	0.01
828.787	0
829.082	0.01
829.376	0.01
829.671	0.01
829.965	0.01
830.259	0.01
830.553	0.01
830.847	0.01
831.141	0.01
831.435	0.01
831.729	0.01
832.023	0.01
832.317	0.01
832.61	0.01
832.904	0
833.197	0.01
833.491	0
833.784	0.01
834.077	0.01
834.371	0.01
834.664	0.01
834.957	0.01
835.25	0.01
835.543	0.01
835.836	0.01
836.129	0.01
836.421	0.01
836.714	0.01
837.007	0.01
837.299	0
837.592	-0
837.884	0
838.177	0.01
838.469	0
838.761	0
839.053	0
839.345	0.01
839.637	0.01
839.929	0.02
840.221	0
840.513	0.01
840.805	0.01
841.096	0.01
841.388	0.01
841.68	0.01
841.971	0.01
842.262	0.01
842.554	0.01
842.845	0.01
843.136	0
843.427	0.01
843.718	0.01
844.009	0
844.3	0.01
844.591	0.01
844.882	0.01
845.173	0.01
845.463	0.01
845.754	0.01
846.044	0.01
846.335	0.01
846.625	0.01
846.915	0.02
847.206	0.02
847.496	0.02
847.786	0.01
848.076	0.02
848.366	0.03
848.656	0.02
848.945	0.01
849.235	0.02
849.525	0.02
849.814	0.02
850.104	0.01
850.393	0.02
850.683	0.02
850.972	0.02
851.261	0
851.551	0.01
851.84	0
852.129	0.01
852.418	0.01
852.707	0
852.995	0.01
853.284	0.01
853.573	0.02
853.862	0.01
854.15	0.02
854.439	0.01
854.727	0.02
855.015	0.01
855.304	0.02
855.592	0.02
855.88	0.01
856.168	0.03
856.456	0.02
856.744	0
857.032	0.01
857.32	0.02
857.607	0.02
857.895	0.01
858.183	0.01
858.47	0.02
858.757	0.01
859.045	0.02
859.332	0.02
859.619	0.02
859.907	0.01
860.194	0.02
860.481	0.03
860.768	0.01
861.054	0.02
861.341	0.01
861.628	0.01
861.915	0.02
862.201	-0.01
862.488	0.01
862.774	0.01
863.061	0.01
863.347	0.01
863.633	0
863.919	-0.02
864.205	0.02
864.491	-0
864.777	0.02
865.063	0.03
865.349	0.01
865.635	0.04
865.92	0.01
866.206	0.03
866.492	0.02
866.777	0.03
867.062	0.01
867.348	0.03
867.633	0.03
867.918	-0.01
868.203	0.04
868.488	0.03
868.773	0.01
869.058	0.01
869.343	0
869.628	0.02
869.912	0
870.197	-0.01
870.482	-0
870.766	0
871.05	0
871.335	0.01
871.619	-0
871.903	0
872.187	-0.01
872.471	-0.02
872.755	0.03
873.039	-0.01
873.323	-0.04
873.607	0.02
873.89	0.03
874.174	0
874.458	-0.03
874.741	0.04
875.024	0.04
875.308	0.02
875.591	-0
875.874	-0.02
876.157	-0.04
876.44	0.01
876.723	0.05
877.006	0.01
877.289	0
877.572	-0.07
877.854	-0.03
878.137	0.04
878.42	-0.06
878.702	0.02
878.984	0.03
879.267	-0.06
879.549	0.01
879.831	-0.08
880.113	-0.03
880.395	-0
880.677	-0.08
880.959	-0
