Data from Rubpy_BV_1200_EDTA_Buffered_Absorbance_13-42-36-110.txt Node
Date: Wed Jul 01 13:42:36 BST 2026
User: fpm-admin
Spectrometer: OFX00224
Trigger mode: 0
Integration Time (sec): 7.000000E-2
Scans to average: 3
Nonlinearity correction enabled: false
Boxcar width: 0
Storing dark spectrum: false
XAxis mode: Wavelengths
Number of Pixels in Spectrum: 2136
>>>>>Begin Spectral Data<<<<<
154.91	-0
155.289	0.06
155.669	-0
156.048	-0.92
156.428	-0.1
156.807	0.15
157.186	-0
157.566	-0
157.945	0.15
158.325	0.15
158.704	-1.26
159.083	0.3
159.462	-0.44
159.842	-0.08
160.221	-0
160.6	0.69
160.979	-0
161.359	-0
161.738	-0.07
162.117	0.56
162.496	-0
162.875	-0
163.254	-0
163.633	-0.57
164.012	-0
164.391	0.02
164.77	0.2
165.149	-0.23
165.528	-0
165.907	-0
166.286	-0.01
166.665	-0.09
167.044	-1.3
167.423	0.09
167.802	-0
168.181	-0
168.559	-0
168.938	-0.37
169.317	-0
169.696	-0
170.074	-0
170.453	-0.24
170.832	0.08
171.21	-0.41
171.589	-0
171.968	-0
172.346	0.36
172.725	-0.11
173.103	-0.62
173.482	-0.16
173.861	-0.46
174.239	-0.58
174.617	0.46
174.996	-0
175.374	-0.78
175.753	-0.21
176.131	-1.3
176.51	0.03
176.888	-0
177.266	-0
177.645	0.04
178.023	0.39
178.401	-0.12
178.779	0.46
179.158	-1.2
179.536	-0.45
179.914	-0
180.292	-0.61
180.67	-0.04
181.048	-0
181.427	-0.43
181.805	-0.1
182.183	-0
182.561	-0
182.939	0.28
183.317	0.48
183.695	-0
184.073	-0.23
184.451	-1.18
184.829	-0.06
185.206	-0.41
185.584	-0
185.962	-0
186.34	-1.09
186.718	-0
187.096	0.2
187.473	-0.74
187.851	-0.16
188.229	0.37
188.607	0.13
188.984	0.2
189.362	0.1
189.74	0.13
190.117	0.07
190.495	0.09
190.872	-0.02
191.25	0.24
191.627	0.09
192.005	0.05
192.382	0.08
192.76	0.01
193.137	0.09
193.515	-0.03
193.892	0.14
194.269	0.17
194.647	0.1
195.024	-0.03
195.401	0.08
195.779	0.01
196.156	0.04
196.533	0.06
196.91	0.06
197.288	0.01
197.665	-0.01
198.042	0.06
198.419	0.1
198.796	-0.01
199.173	0.05
199.55	0.12
199.927	0.08
200.304	0.13
200.681	0.18
201.058	0.16
201.435	0.09
201.812	0.15
202.189	0.1
202.566	0.08
202.943	0.19
203.32	0.11
203.697	0.05
204.073	0.17
204.45	0.17
204.827	0.17
205.204	0.21
205.58	0.07
205.957	0.06
206.334	0.12
206.71	0.06
207.087	0.26
207.464	0.12
207.84	0.13
208.217	0.22
208.593	0.16
208.97	0.05
209.346	0.12
209.723	0.17
210.099	0.08
210.476	-0.02
210.852	0.14
211.228	0.08
211.605	0.25
211.981	0.2
212.357	0
212.733	0.21
213.11	0.13
213.486	0.18
213.862	0.21
214.238	0.17
214.614	0.16
214.991	0.04
215.367	0.11
215.743	0.16
216.119	0.11
216.495	0.12
216.871	0.24
217.247	0.12
217.623	0.25
217.999	0.19
218.375	0.11
218.751	0.09
219.127	0.13
219.502	0.13
219.878	0.22
220.254	0.23
220.63	0.09
221.006	0.17
221.381	0.09
221.757	0.1
222.133	0.2
222.508	0.16
222.884	0.25
223.26	0.07
223.635	0.16
224.011	0.1
224.386	0.17
224.762	0.08
225.137	0.14
225.513	0.1
225.888	0.11
226.264	0.17
226.639	0.13
227.014	0.2
227.39	0.18
227.765	0.27
228.14	0.21
228.516	0.13
228.891	0.14
229.266	0.12
229.641	0.34
230.017	0.11
230.392	0.23
230.767	0.14
231.142	0.15
231.517	0.16
231.892	0.09
232.267	0.1
232.642	0.3
233.017	0.05
233.392	0.05
233.767	0.15
234.142	0.09
234.517	0.14
234.892	0.02
235.267	0.16
235.641	0.18
236.016	0.14
236.391	0.11
236.766	0.05
237.14	0.19
237.515	0.25
237.89	0.21
238.264	0.14
238.639	0.07
239.014	0.08
239.388	0.09
239.763	0.18
240.137	0.1
240.512	0.07
240.886	0.08
241.261	0.15
241.635	0.08
242.009	0.08
242.384	0.25
242.758	0.22
243.132	0.05
243.507	0.24
243.881	0.13
244.255	0.17
244.629	0.11
245.004	0.16
245.378	0.13
245.752	0.14
246.126	0.2
246.5	0.2
246.874	0.14
247.248	0.16
247.622	0.11
247.996	0.13
248.37	0.14
248.744	0.13
249.118	0.1
249.492	0.2
249.866	0.15
250.24	0.09
250.613	0.06
250.987	0.17
251.361	0.2
251.735	0.12
252.108	0.13
252.482	0.11
252.856	0.09
253.229	0.15
253.603	0.14
253.977	0.04
254.35	0.14
254.724	0.17
255.097	0.11
255.471	0.13
255.844	0.16
256.218	0.21
256.591	0.06
256.964	0.04
257.338	0.14
257.711	0.13
258.084	0.14
258.458	0.12
258.831	0.15
259.204	0.09
259.577	0.16
259.95	0.2
260.323	0.16
260.697	0.16
261.07	0.15
261.443	0.17
261.816	0.11
262.189	0.15
262.562	0.2
262.935	0.05
263.308	0.19
263.68	0.14
264.053	0.17
264.426	0.17
264.799	0.18
265.172	0.08
265.545	0.07
265.917	0.14
266.29	0.15
266.663	0.08
267.035	0.17
267.408	0.12
267.781	0.16
268.153	0.16
268.526	0.1
268.898	0.14
269.271	0.14
269.643	0.19
270.016	0.18
270.388	0.11
270.76	0.12
271.133	0.13
271.505	0.14
271.877	0.15
272.25	0.2
272.622	0.22
272.994	0.11
273.366	0.12
273.739	0.15
274.111	0.07
274.483	0.22
274.855	0.17
275.227	0.15
275.599	0.15
275.971	0.12
276.343	0.18
276.715	0.17
277.087	0.26
277.459	0.13
277.831	0.15
278.203	0.19
278.574	0.14
278.946	0.21
279.318	0.15
279.69	0.2
280.061	0.21
280.433	0.18
280.805	0.25
281.176	0.12
281.548	0.25
281.92	0.16
282.291	0.14
282.663	0.2
283.034	0.14
283.406	0.16
283.777	0.22
284.148	0.1
284.52	0.12
284.891	0.18
285.262	0.16
285.634	0.16
286.005	0.22
286.376	0.2
286.747	0.18
287.119	0.16
287.49	0.17
287.861	0.14
288.232	0.13
288.603	0.11
288.974	0.14
289.345	0.12
289.716	0.24
290.087	0.26
290.458	0.18
290.829	0.21
291.2	0.13
291.571	0.2
291.941	0.19
292.312	0.18
292.683	0.11
293.054	0.1
293.424	0.2
293.795	0.16
294.166	0.25
294.536	0.13
294.907	0.13
295.277	0.17
295.648	0.19
296.018	0.18
296.389	0.16
296.759	0.15
297.13	0.15
297.5	0.22
297.871	0.18
298.241	0.23
298.611	0.22
298.981	0.19
299.352	0.16
299.722	0.16
300.092	0.16
300.462	0.2
300.832	0.16
301.202	0.2
301.573	0.12
301.943	0.17
302.313	0.1
302.683	0.13
303.053	0.18
303.422	0.13
303.792	0.15
304.162	0.12
304.532	0.1
304.902	0.15
305.272	0.13
305.641	0.1
306.011	0.12
306.381	0.1
306.75	0.13
307.12	0.12
307.49	0.12
307.859	0.11
308.229	0.1
308.598	0.1
308.968	0.1
309.337	0.11
309.707	0.11
310.076	0.1
310.445	0.1
310.815	0.12
311.184	0.09
311.553	0.12
311.923	0.09
312.292	0.11
312.661	0.12
313.03	0.12
313.399	0.11
313.768	0.12
314.137	0.11
314.506	0.14
314.875	0.12
315.244	0.13
315.613	0.14
315.982	0.12
316.351	0.12
316.72	0.12
317.089	0.13
317.458	0.13
317.826	0.13
318.195	0.13
318.564	0.14
318.933	0.13
319.301	0.14
319.67	0.14
320.038	0.15
320.407	0.14
320.775	0.16
321.144	0.15
321.512	0.14
321.881	0.16
322.249	0.16
322.618	0.16
322.986	0.16
323.354	0.16
323.723	0.15
324.091	0.16
324.459	0.17
324.827	0.17
325.195	0.17
325.564	0.17
325.932	0.18
326.3	0.18
326.668	0.17
327.036	0.19
327.404	0.18
327.772	0.19
328.14	0.2
328.508	0.19
328.875	0.2
329.243	0.2
329.611	0.21
329.979	0.2
330.346	0.21
330.714	0.21
331.082	0.22
331.449	0.22
331.817	0.22
332.185	0.22
332.552	0.22
332.92	0.23
333.287	0.23
333.655	0.24
334.022	0.24
334.389	0.25
334.757	0.25
335.124	0.25
335.491	0.26
335.859	0.27
336.226	0.27
336.593	0.28
336.96	0.28
337.327	0.29
337.695	0.3
338.062	0.3
338.429	0.3
338.796	0.31
339.163	0.31
339.53	0.31
339.897	0.32
340.263	0.33
340.63	0.33
340.997	0.34
341.364	0.35
341.731	0.35
342.097	0.36
342.464	0.36
342.831	0.37
343.197	0.37
343.564	0.38
343.931	0.38
344.297	0.39
344.664	0.4
345.03	0.4
345.396	0.41
345.763	0.41
346.129	0.42
346.496	0.43
346.862	0.43
347.228	0.45
347.594	0.45
347.961	0.45
348.327	0.45
348.693	0.46
349.059	0.46
349.425	0.48
349.791	0.48
350.157	0.48
350.523	0.49
350.889	0.5
351.255	0.5
351.621	0.51
351.987	0.52
352.353	0.52
352.719	0.52
353.084	0.53
353.45	0.54
353.816	0.54
354.181	0.55
354.547	0.56
354.913	0.56
355.278	0.58
355.644	0.58
356.009	0.59
356.375	0.6
356.74	0.6
357.106	0.61
357.471	0.61
357.836	0.62
358.202	0.64
358.567	0.64
358.932	0.65
359.297	0.67
359.663	0.67
360.028	0.68
360.393	0.69
360.758	0.7
361.123	0.71
361.488	0.72
361.853	0.73
362.218	0.74
362.583	0.74
362.948	0.77
363.312	0.76
363.677	0.78
364.042	0.79
364.407	0.79
364.772	0.8
365.136	0.81
365.501	0.81
365.865	0.83
366.23	0.83
366.595	0.84
366.959	0.85
367.324	0.85
367.688	0.86
368.052	0.87
368.417	0.87
368.781	0.88
369.145	0.89
369.51	0.9
369.874	0.91
370.238	0.9
370.602	0.92
370.967	0.92
371.331	0.93
371.695	0.93
372.059	0.93
372.423	0.94
372.787	0.93
373.151	0.94
373.515	0.94
373.878	0.93
374.242	0.93
374.606	0.93
374.97	0.92
375.334	0.91
375.697	0.91
376.061	0.89
376.425	0.89
376.788	0.88
377.152	0.86
377.515	0.86
377.879	0.85
378.242	0.84
378.606	0.84
378.969	0.82
379.333	0.82
379.696	0.81
380.059	0.81
380.422	0.79
380.786	0.78
381.149	0.78
381.512	0.77
381.875	0.76
382.238	0.76
382.601	0.75
382.964	0.74
383.327	0.73
383.69	0.73
384.053	0.72
384.416	0.71
384.779	0.71
385.142	0.71
385.504	0.71
385.867	0.7
386.23	0.7
386.593	0.7
386.955	0.7
387.318	0.71
387.68	0.71
388.043	0.7
388.405	0.7
388.768	0.71
389.13	0.7
389.493	0.7
389.855	0.7
390.217	0.7
390.58	0.69
390.942	0.68
391.304	0.68
391.666	0.68
392.028	0.66
392.391	0.65
392.753	0.65
393.115	0.64
393.477	0.64
393.839	0.64
394.201	0.63
394.563	0.62
394.924	0.62
395.286	0.63
395.648	0.62
396.01	0.63
396.371	0.64
396.733	0.65
397.095	0.66
397.456	0.67
397.818	0.69
398.18	0.71
398.541	0.72
398.903	0.74
399.264	0.76
399.625	0.78
399.987	0.8
400.348	0.81
400.709	0.82
401.071	0.83
401.432	0.83
401.793	0.83
402.154	0.83
402.515	0.82
402.876	0.81
403.238	0.8
403.599	0.78
403.96	0.75
404.32	0.72
404.681	0.7
405.042	0.67
405.403	0.64
405.764	0.62
406.125	0.58
406.485	0.55
406.846	0.52
407.207	0.49
407.567	0.47
407.928	0.44
408.288	0.42
408.649	0.4
409.009	0.38
409.37	0.34
409.73	0.33
410.091	0.32
410.451	0.3
410.811	0.28
411.171	0.26
411.532	0.25
411.892	0.24
412.252	0.22
412.612	0.21
412.972	0.2
413.332	0.2
413.692	0.18
414.052	0.18
414.412	0.17
414.772	0.16
415.132	0.16
415.492	0.16
415.851	0.15
416.211	0.15
416.571	0.13
416.931	0.14
417.29	0.13
417.65	0.13
418.009	0.12
418.369	0.12
418.728	0.12
419.088	0.11
419.447	0.1
419.807	0.11
420.166	0.1
420.525	0.1
420.884	0.1
421.244	0.1
421.603	0.1
421.962	0.09
422.321	0.09
422.68	0.09
423.039	0.09
423.398	0.1
423.757	0.09
424.116	0.08
424.475	0.09
424.834	0.09
425.193	0.09
425.551	0.09
425.91	0.08
426.269	0.08
426.628	0.08
426.986	0.08
427.345	0.08
427.703	0.08
428.062	0.08
428.42	0.08
428.779	0.07
429.137	0.07
429.496	0.09
429.854	0.07
430.212	0.07
430.57	0.08
430.929	0.07
431.287	0.07
431.645	0.07
432.003	0.07
432.361	0.07
432.719	0.07
433.077	0.07
433.435	0.07
433.793	0.07
434.151	0.06
434.509	0.06
434.866	0.07
435.224	0.06
435.582	0.07
435.94	0.07
436.297	0.06
436.655	0.07
437.012	0.06
437.37	0.07
437.727	0.07
438.085	0.06
438.442	0.06
438.8	0.07
439.157	0.07
439.514	0.06
439.872	0.06
440.229	0.07
440.586	0.07
440.943	0.07
441.3	0.07
441.657	0.06
442.014	0.05
442.371	0.07
442.728	0.06
443.085	0.07
443.442	0.06
443.799	0.06
444.156	0.06
444.513	0.06
444.869	0.07
445.226	0.07
445.583	0.07
445.939	0.06
446.296	0.07
446.652	0.06
447.009	0.06
447.365	0.07
447.722	0.06
448.078	0.06
448.434	0.06
448.791	0.06
449.147	0.07
449.503	0.06
449.859	0.07
450.215	0.07
450.571	0.06
450.928	0.06
451.284	0.07
451.64	0.06
451.995	0.06
452.351	0.06
452.707	0.07
453.063	0.05
453.419	0.05
453.775	0.06
454.13	0.06
454.486	0.05
454.842	0.06
455.197	0.05
455.553	0.06
455.908	0.04
456.264	0.05
456.619	0.04
456.975	0.04
457.33	0.05
457.685	0.04
458.04	0.04
458.396	0.04
458.751	0.04
459.106	0.04
459.461	0.03
459.816	0.02
460.171	0.02
460.526	0.03
460.881	0.03
461.236	0.02
461.591	0.03
461.946	0.02
462.301	0.01
462.655	0.02
463.01	0.01
463.365	0.01
463.719	0.01
464.074	0
464.428	-0
464.783	-0
465.137	-0.01
465.492	-0
465.846	0
466.201	0
466.555	0
466.909	-0
467.263	0
467.618	0
467.972	0
468.326	0.01
468.68	-0
469.034	-0
469.388	-0.01
469.742	0
470.096	0
470.45	0
470.804	-0
471.157	0
471.511	0.01
471.865	0
472.218	0.01
472.572	0.02
472.926	0.01
473.279	0.02
473.633	0.03
473.986	0.03
474.34	0.04
474.693	0.04
475.046	0.05
475.4	0.05
475.753	0.06
476.106	0.07
476.459	0.07
476.812	0.07
477.165	0.08
477.519	0.08
477.872	0.08
478.224	0.09
478.577	0.1
478.93	0.09
479.283	0.1
479.636	0.1
479.989	0.11
480.341	0.11
480.694	0.11
481.047	0.12
481.399	0.12
481.752	0.13
482.104	0.13
482.457	0.13
482.809	0.13
483.162	0.14
483.514	0.14
483.866	0.14
484.219	0.14
484.571	0.15
484.923	0.15
485.275	0.16
485.627	0.16
485.979	0.16
486.331	0.16
486.683	0.16
487.035	0.17
487.387	0.17
487.739	0.17
488.091	0.18
488.443	0.18
488.794	0.18
489.146	0.18
489.498	0.19
489.849	0.18
490.201	0.19
490.552	0.19
490.904	0.19
491.255	0.19
491.607	0.19
491.958	0.19
492.309	0.2
492.661	0.2
493.012	0.2
493.363	0.2
493.714	0.2
494.065	0.21
494.416	0.21
494.767	0.21
495.118	0.21
495.469	0.21
495.82	0.21
496.171	0.22
496.522	0.23
496.872	0.23
497.223	0.23
497.574	0.23
497.924	0.23
498.275	0.23
498.626	0.23
498.976	0.24
499.327	0.24
499.677	0.24
500.027	0.24
500.378	0.24
500.728	0.25
501.078	0.25
501.428	0.25
501.779	0.26
502.129	0.25
502.479	0.26
502.829	0.26
503.179	0.26
503.529	0.26
503.879	0.27
504.229	0.27
504.578	0.27
504.928	0.27
505.278	0.27
505.628	0.27
505.977	0.27
506.327	0.27
506.676	0.28
507.026	0.28
507.375	0.28
507.725	0.29
508.074	0.29
508.424	0.29
508.773	0.29
509.122	0.29
509.471	0.29
509.82	0.29
510.17	0.3
510.519	0.3
510.868	0.3
511.217	0.3
511.566	0.3
511.915	0.31
512.263	0.31
512.612	0.31
512.961	0.31
513.31	0.31
513.659	0.32
514.007	0.32
514.356	0.32
514.704	0.32
515.053	0.32
515.401	0.33
515.75	0.33
516.098	0.33
516.447	0.33
516.795	0.33
517.143	0.33
517.491	0.33
517.839	0.33
518.188	0.33
518.536	0.34
518.884	0.34
519.232	0.34
519.58	0.34
519.928	0.34
520.275	0.34
520.623	0.35
520.971	0.35
521.319	0.35
521.666	0.35
522.014	0.35
522.362	0.35
522.709	0.35
523.057	0.35
523.404	0.36
523.752	0.36
524.099	0.36
524.446	0.36
524.794	0.36
525.141	0.36
525.488	0.36
525.835	0.37
526.182	0.36
526.529	0.37
526.876	0.37
527.223	0.37
527.57	0.37
527.917	0.37
528.264	0.37
528.611	0.38
528.958	0.38
529.304	0.38
529.651	0.38
529.998	0.38
530.344	0.38
530.691	0.38
531.037	0.38
531.384	0.38
531.73	0.38
532.076	0.38
532.423	0.38
532.769	0.38
533.115	0.39
533.461	0.39
533.807	0.38
534.154	0.39
534.5	0.39
534.846	0.39
535.192	0.39
535.537	0.4
535.883	0.39
536.229	0.4
536.575	0.4
536.921	0.4
537.266	0.4
537.612	0.41
537.957	0.4
538.303	0.4
538.649	0.4
538.994	0.4
539.339	0.4
539.685	0.41
540.03	0.4
540.375	0.41
540.721	0.41
541.066	0.41
541.411	0.41
541.756	0.41
542.101	0.41
542.446	0.41
542.791	0.41
543.136	0.41
543.481	0.41
543.825	0.41
544.17	0.42
544.515	0.41
544.86	0.42
545.204	0.42
545.549	0.42
545.893	0.42
546.238	0.42
546.582	0.42
546.927	0.42
547.271	0.42
547.615	0.43
547.96	0.42
548.304	0.42
548.648	0.43
548.992	0.42
549.336	0.42
549.68	0.42
550.024	0.43
550.368	0.42
550.712	0.43
551.056	0.43
551.4	0.43
551.743	0.43
552.087	0.43
552.431	0.43
552.774	0.43
553.118	0.43
553.462	0.43
553.805	0.42
554.148	0.43
554.492	0.43
554.835	0.43
555.178	0.43
555.522	0.42
555.865	0.43
556.208	0.43
556.551	0.43
556.894	0.43
557.237	0.42
557.58	0.43
557.923	0.43
558.266	0.43
558.609	0.42
558.952	0.42
559.294	0.42
559.637	0.42
559.98	0.43
560.322	0.43
560.665	0.42
561.007	0.43
561.35	0.43
561.692	0.43
562.034	0.42
562.377	0.42
562.719	0.43
563.061	0.42
563.403	0.42
563.745	0.43
564.088	0.42
564.43	0.43
564.772	0.43
565.113	0.42
565.455	0.42
565.797	0.42
566.139	0.42
566.481	0.42
566.822	0.42
567.164	0.42
567.506	0.42
567.847	0.42
568.189	0.42
568.53	0.42
568.872	0.41
569.213	0.42
569.554	0.42
569.895	0.42
570.237	0.42
570.578	0.41
570.919	0.41
571.26	0.41
571.601	0.41
571.942	0.41
572.283	0.41
572.624	0.41
572.965	0.41
573.306	0.4
573.646	0.4
573.987	0.4
574.328	0.4
574.668	0.4
575.009	0.4
575.349	0.4
575.69	0.4
576.03	0.4
576.37	0.39
576.711	0.39
577.051	0.4
577.391	0.39
577.731	0.4
578.072	0.4
578.412	0.39
578.752	0.39
579.092	0.39
579.431	0.38
579.771	0.36
580.111	0.35
580.451	0.36
580.791	0.38
581.13	0.38
581.47	0.39
581.81	0.38
582.149	0.38
582.489	0.38
582.828	0.37
583.167	0.35
583.507	0.31
583.846	0.29
584.185	0.32
584.525	0.35
584.864	0.37
585.203	0.38
585.542	0.38
585.881	0.39
586.22	0.38
586.559	0.37
586.898	0.36
587.236	0.35
587.575	0.35
587.914	0.36
588.252	0.37
588.591	0.38
588.93	0.38
589.268	0.37
589.607	0.37
589.945	0.37
590.283	0.37
590.622	0.38
590.96	0.38
591.298	0.38
591.636	0.39
591.974	0.38
592.313	0.38
592.651	0.39
592.989	0.39
593.326	0.39
593.664	0.39
594.002	0.39
594.34	0.38
594.678	0.38
595.015	0.37
595.353	0.36
595.691	0.37
596.028	0.38
596.366	0.38
596.703	0.38
597.04	0.39
597.378	0.39
597.715	0.39
598.052	0.39
598.389	0.39
598.726	0.39
599.064	0.39
599.401	0.39
599.738	0.39
600.074	0.38
600.411	0.38
600.748	0.38
601.085	0.38
601.422	0.37
601.758	0.37
602.095	0.38
602.432	0.38
602.768	0.37
603.105	0.38
603.441	0.38
603.777	0.39
604.114	0.38
604.45	0.38
604.786	0.38
605.122	0.38
605.459	0.38
605.795	0.38
606.131	0.38
606.467	0.38
606.803	0.38
607.139	0.38
607.474	0.37
607.81	0.37
608.146	0.38
608.482	0.37
608.817	0.37
609.153	0.37
609.488	0.37
609.824	0.37
610.159	0.37
610.495	0.37
610.83	0.37
611.165	0.37
611.5	0.36
611.836	0.36
612.171	0.37
612.506	0.37
612.841	0.37
613.176	0.37
613.511	0.36
613.845	0.36
614.18	0.36
614.515	0.36
614.85	0.35
615.184	0.35
615.519	0.35
615.854	0.35
616.188	0.35
616.523	0.35
616.857	0.35
617.191	0.35
617.526	0.34
617.86	0.34
618.194	0.34
618.528	0.34
618.862	0.34
619.196	0.34
619.53	0.34
619.864	0.34
620.198	0.34
620.532	0.34
620.866	0.34
621.2	0.34
621.533	0.34
621.867	0.34
622.201	0.33
622.534	0.33
622.868	0.33
623.201	0.33
623.534	0.33
623.868	0.33
624.201	0.32
624.534	0.32
624.868	0.32
625.201	0.32
625.534	0.32
625.867	0.32
626.2	0.32
626.533	0.32
626.865	0.32
627.198	0.31
627.531	0.31
627.864	0.31
628.196	0.31
628.529	0.31
628.862	0.31
629.194	0.3
629.527	0.3
629.859	0.3
630.191	0.3
630.524	0.3
630.856	0.3
631.188	0.29
631.52	0.29
631.852	0.29
632.184	0.29
632.516	0.29
632.848	0.29
633.18	0.28
633.512	0.28
633.844	0.28
634.175	0.27
634.507	0.28
634.839	0.27
635.17	0.27
635.502	0.27
635.833	0.27
636.165	0.27
636.496	0.27
636.827	0.26
637.159	0.26
637.49	0.26
637.821	0.26
638.152	0.25
638.483	0.25
638.814	0.25
639.145	0.25
639.476	0.25
639.807	0.25
640.137	0.25
640.468	0.24
640.799	0.24
641.129	0.24
641.46	0.24
641.791	0.23
642.121	0.24
642.451	0.23
642.782	0.23
643.112	0.23
643.442	0.23
643.773	0.23
644.103	0.23
644.433	0.22
644.763	0.23
645.093	0.23
645.423	0.22
645.753	0.22
646.082	0.22
646.412	0.22
646.742	0.22
647.072	0.22
647.401	0.22
647.731	0.21
648.06	0.21
648.39	0.21
648.719	0.21
649.048	0.2
649.378	0.21
649.707	0.2
650.036	0.2
650.365	0.2
650.694	0.2
651.023	0.2
651.352	0.2
651.681	0.2
652.01	0.2
652.339	0.2
652.668	0.2
652.996	0.2
653.325	0.2
653.654	0.2
653.982	0.2
654.311	0.2
654.639	0.2
654.967	0.2
655.296	0.2
655.624	0.19
655.952	0.2
656.28	0.2
656.609	0.19
656.937	0.2
657.265	0.19
657.593	0.08
657.92	0
658.248	-0
658.576	0
658.904	0.05
659.231	0.13
659.559	0.18
659.887	0.19
660.214	0.19
660.542	0.18
660.869	0.18
661.196	0.18
661.524	0.18
661.851	0.18
662.178	0.18
662.505	0.19
662.832	0.18
663.159	0.19
663.486	0.18
663.813	0.19
664.14	0.18
664.467	0.18
664.794	0.18
665.12	0.18
665.447	0.18
665.774	0.18
666.1	0.17
666.427	0.17
666.753	0.17
667.079	0.17
667.406	0.17
667.732	0.17
668.058	0.17
668.384	0.17
668.71	0.17
669.036	0.17
669.362	0.17
669.688	0.17
670.014	0.17
670.34	0.17
670.666	0.16
670.991	0.16
671.317	0.16
671.643	0.15
671.968	0.15
672.294	0.15
672.619	0.15
672.945	0.15
673.27	0.15
673.595	0.15
673.92	0.15
674.246	0.15
674.571	0.15
674.896	0.15
675.221	0.15
675.546	0.15
675.87	0.15
676.195	0.14
676.52	0.14
676.845	0.14
677.169	0.14
677.494	0.13
677.819	0.14
678.143	0.13
678.468	0.13
678.792	0.13
679.116	0.13
679.44	0.13
679.765	0.13
680.089	0.12
680.413	0.12
680.737	0.12
681.061	0.12
681.385	0.12
681.709	0.11
682.033	0.11
682.356	0.11
682.68	0.11
683.004	0.11
683.327	0.11
683.651	0.11
683.974	0.11
684.298	0.11
684.621	0.11
684.944	0.1
685.268	0.1
685.591	0.1
685.914	0.1
686.237	0.1
686.56	0.1
686.883	0.09
687.206	0.09
687.529	0.09
687.852	0.08
688.175	0.09
688.497	0.09
688.82	0.09
689.142	0.09
689.465	0.08
689.787	0.09
690.11	0.08
690.432	0.08
690.755	0.08
691.077	0.08
691.399	0.08
691.721	0.08
692.043	0.08
692.365	0.08
692.687	0.08
693.009	0.07
693.331	0.07
693.653	0.07
693.974	0.07
694.296	0.07
694.618	0.07
694.939	0.07
695.261	0.07
695.582	0.07
695.904	0.07
696.225	0.07
696.546	0.07
696.868	0.07
697.189	0.06
697.51	0.06
697.831	0.06
698.152	0.06
698.473	0.06
698.794	0.05
699.114	0.05
699.435	0.04
699.756	0.04
700.077	0.05
700.397	0.05
700.718	0.05
701.038	0.05
701.359	0.05
701.679	0.05
701.999	0.05
702.32	0.05
702.64	0.05
702.96	0.05
703.28	0.05
703.6	0.05
703.92	0.05
704.24	0.05
704.56	0.04
704.879	0.04
705.199	0.05
705.519	0.05
705.838	0.05
706.158	0.05
706.478	0.05
706.797	0.05
707.116	0.05
707.436	0.05
707.755	0.05
708.074	0.05
708.393	0.04
708.712	0.04
709.031	0.03
709.35	0.03
709.669	0.02
709.988	0.03
710.307	0.03
710.626	0.03
710.944	0.04
711.263	0.04
711.582	0.04
711.9	0.04
712.219	0.04
712.537	0.04
712.855	0.04
713.174	0.04
713.492	0.04
713.81	0.04
714.128	0.04
714.446	0.04
714.764	0.04
715.082	0.03
715.4	0.04
715.718	0.03
716.035	0.03
716.353	0.04
716.671	0.04
716.988	0.04
717.306	0.03
717.623	0.04
717.941	0.05
718.258	0.05
718.575	0.05
718.893	0.05
719.21	0.05
719.527	0.05
719.844	0.04
720.161	0.05
720.478	0.04
720.795	0.04
721.112	0.05
721.428	0.04
721.745	0.05
722.062	0.05
722.378	0.05
722.695	0.05
723.011	0.04
723.328	0.05
723.644	0.05
723.96	0.05
724.276	0.05
724.593	0.05
724.909	0.05
725.225	0.05
725.541	0.05
725.857	0.05
726.173	0.05
726.488	0.06
726.804	0.05
727.12	0.05
727.435	0.05
727.751	0.05
728.067	0.05
728.382	0.06
728.697	0.05
729.013	0.06
729.328	0.05
729.643	0.06
729.958	0.05
730.273	0.06
730.588	0.05
730.903	0.05
731.218	0.05
731.533	0.05
731.848	0.05
732.163	0.05
732.477	0.05
732.792	0.05
733.107	0.04
733.421	0.05
733.736	0.05
734.05	0.05
734.364	0.05
734.678	0.05
734.993	0.05
735.307	0.05
735.621	0.05
735.935	0.05
736.249	0.04
736.563	0.05
736.877	0.05
737.19	0.05
737.504	0.05
737.818	0.05
738.131	0.05
738.445	0.05
738.758	0.05
739.072	0.05
739.385	0.05
739.698	0.05
740.012	0.05
740.325	0.05
740.638	0.05
740.951	0.05
741.264	0.05
741.577	0.05
741.89	0.05
742.203	0.05
742.515	0.05
742.828	0.05
743.141	0.04
743.453	0.04
743.766	0.04
744.078	0.04
744.391	0.04
744.703	0.04
745.015	0.04
745.327	0.04
745.639	0.04
745.952	0.04
746.264	0.04
746.575	0.04
746.887	0.03
747.199	0.03
747.511	0.04
747.823	0.04
748.134	0.03
748.446	0.03
748.757	0.03
749.069	0.03
749.38	0.03
749.692	0.03
750.003	0.03
750.314	0.03
750.625	0.03
750.936	0.03
751.248	0.03
751.559	0.03
751.869	0.03
752.18	0.03
752.491	0.03
752.802	0.03
753.112	0.03
753.423	0.03
753.734	0.03
754.044	0.03
754.355	0.03
754.665	0.03
754.975	0.03
755.285	0.03
755.596	0.03
755.906	0.03
756.216	0.03
756.526	0.03
756.836	0.02
757.146	0.02
757.455	0.02
757.765	0.02
758.075	0.02
758.385	0.02
758.694	0.02
759.004	0.02
759.313	0.02
759.622	0.02
759.932	0.02
760.241	0.02
760.55	0.02
760.859	0.02
761.168	0.02
761.477	0.02
761.786	0.01
762.095	0.01
762.404	0.01
762.713	0.01
763.021	0.02
763.33	0.02
763.639	0.02
763.947	0.02
764.256	0.02
764.564	0.02
764.872	0.02
765.181	0.01
765.489	0.02
765.797	0.02
766.105	0.01
766.413	0.02
766.721	0.02
767.029	0.02
767.337	0.02
767.644	0.02
767.952	0.02
768.26	0.02
768.567	0.02
768.875	0.02
769.182	0.02
769.49	0.02
769.797	0.02
770.104	0.02
770.411	0.02
770.718	0.02
771.026	0.01
771.333	0.01
771.639	0.01
771.946	0.01
772.253	0.01
772.56	0.01
772.867	0.02
773.173	0.01
773.48	0.02
773.786	0.02
774.093	0.02
774.399	0.02
774.705	0.02
775.012	0.02
775.318	0.02
775.624	0.02
775.93	0.02
776.236	0.02
776.542	0.02
776.848	0.02
777.154	0.02
777.459	0.02
777.765	0.02
778.071	0.02
778.376	0.02
778.682	0.02
778.987	0.02
779.292	0.02
779.598	0.02
779.903	0.02
780.208	0.02
780.513	0.02
780.818	0.02
781.123	0.02
781.428	0.02
781.733	0.02
782.038	0.02
782.343	0.02
782.647	0.02
782.952	0.02
783.256	0.02
783.561	0.02
783.865	0.01
784.17	0.02
784.474	0.02
784.778	0.02
785.082	0.02
785.386	0.02
785.69	0.02
785.994	0.02
786.298	0.02
786.602	0.02
786.906	0.02
787.209	0.02
787.513	0.03
787.817	0.02
788.12	0.02
788.424	0.02
788.727	0.02
789.03	0.02
789.333	0.02
789.637	0.03
789.94	0.03
790.243	0.03
790.546	0.03
790.849	0.03
791.152	0.03
791.454	0.03
791.757	0.03
792.06	0.02
792.362	0.03
792.665	0.02
792.967	0.02
793.27	0.03
793.572	0.02
793.874	0.03
794.177	0.03
794.479	0.03
794.781	0.03
795.083	0.03
795.385	0.03
795.687	0.03
795.989	0.03
796.29	0.03
796.592	0.03
796.894	0.03
797.195	0.03
797.497	0.03
797.798	0.03
798.1	0.02
798.401	0.02
798.702	0.02
799.003	0.02
799.304	0.02
799.605	0.02
799.906	0.02
800.207	0.02
800.508	0.02
800.809	0.02
801.11	0.01
801.41	0.01
801.711	0.02
802.011	0.01
802.312	0.02
802.612	0.02
802.913	0.02
803.213	0.03
803.513	0.03
803.813	0.03
804.113	0.03
804.413	0.03
804.713	0.03
805.013	0.03
805.313	0.03
805.613	0.03
805.912	0.03
806.212	0.03
806.511	0.03
806.811	0.03
807.11	0.03
807.41	0.03
807.709	0.03
808.008	0.03
808.307	0.03
808.606	0.03
808.905	0.03
809.204	0.03
809.503	0.03
809.802	0.03
810.101	0.03
810.399	0.03
810.698	0.03
810.997	0.03
811.295	0.03
811.593	0.03
811.892	0.03
812.19	0.03
812.488	0.03
812.786	0.03
813.084	0.03
813.383	0.03
813.68	0.03
813.978	0.03
814.276	0.04
814.574	0.04
814.872	0.04
815.169	0.04
815.467	0.04
815.764	0.04
816.062	0.03
816.359	0.04
816.656	0.04
816.954	0.04
817.251	0.03
817.548	0.04
817.845	0.03
818.142	0.03
818.439	0.04
818.735	0.04
819.032	0.04
819.329	0.03
819.626	0.04
819.922	0.03
820.219	0.03
820.515	0.03
820.811	0.03
821.108	0.03
821.404	0.03
821.7	0.04
821.996	0.03
822.292	0.03
822.588	0.04
822.884	0.04
823.18	0.04
823.475	0.03
823.771	0.04
824.067	0.03
824.362	0.03
824.658	0.04
824.953	0.04
825.249	0.04
825.544	0.03
825.839	0.03
826.134	0.04
826.429	0.03
826.724	0.03
827.019	0.03
827.314	0.04
827.609	0.04
827.904	0.04
828.198	0.04
828.493	0.04
828.787	0.04
829.082	0.04
829.376	0.04
829.671	0.04
829.965	0.04
830.259	0.04
830.553	0.04
830.847	0.04
831.141	0.04
831.435	0.04
831.729	0.04
832.023	0.04
832.317	0.05
832.61	0.04
832.904	0.04
833.197	0.04
833.491	0.04
833.784	0.04
834.077	0.04
834.371	0.04
834.664	0.04
834.957	0.05
835.25	0.04
835.543	0.05
835.836	0.05
836.129	0.04
836.421	0.05
836.714	0.06
837.007	0.05
837.299	0.05
837.592	0.04
837.884	0.04
838.177	0.04
838.469	0.04
838.761	0.05
839.053	0.04
839.345	0.04
839.637	0.05
839.929	0.05
840.221	0.05
840.513	0.04
840.805	0.04
841.096	0.05
841.388	0.05
841.68	0.05
841.971	0.04
842.262	0.05
842.554	0.04
842.845	0.04
843.136	0.05
843.427	0.04
843.718	0.05
844.009	0.05
844.3	0.05
844.591	0.05
844.882	0.05
845.173	0.05
845.463	0.05
845.754	0.05
846.044	0.05
846.335	0.04
846.625	0.05
846.915	0.06
847.206	0.07
847.496	0.06
847.786	0.06
848.076	0.06
848.366	0.06
848.656	0.06
848.945	0.06
849.235	0.05
849.525	0.06
849.814	0.06
850.104	0.06
850.393	0.06
850.683	0.06
850.972	0.06
851.261	0.04
851.551	0.06
851.84	0.05
852.129	0.04
852.418	0.05
852.707	0.05
852.995	0.05
853.284	0.05
853.573	0.05
853.862	0.06
854.15	0.06
854.439	0.05
854.727	0.06
855.015	0.06
855.304	0.07
855.592	0.07
855.88	0.07
856.168	0.08
856.456	0.07
856.744	0.05
857.032	0.06
857.32	0.07
857.607	0.06
857.895	0.06
858.183	0.06
858.47	0.06
858.757	0.05
859.045	0.08
859.332	0.05
859.619	0.06
859.907	0.07
860.194	0.07
860.481	0.07
860.768	0.05
861.054	0.07
861.341	0.06
861.628	0.06
861.915	0.06
862.201	0.04
862.488	0.07
862.774	0.07
863.061	0.06
863.347	0.06
863.633	0.06
863.919	0.05
864.205	0.07
864.491	0.05
864.777	0.05
865.063	0.06
865.349	0.05
865.635	0.08
865.92	0.09
866.206	0.07
866.492	0.05
866.777	0.07
867.062	0.07
867.348	0.08
867.633	0.07
867.918	0.06
868.203	0.08
868.488	0.08
868.773	0.06
869.058	0.06
869.343	0.05
869.628	0.08
869.912	0.06
870.197	0.05
870.482	0.05
870.766	0.06
871.05	0.05
871.335	0.03
871.619	0.05
871.903	0.08
872.187	0.07
872.471	0.02
872.755	0.06
873.039	0.03
873.323	0.06
873.607	0.04
873.89	0.06
874.174	0.1
874.458	0.01
874.741	0.06
875.024	0.1
875.308	0.06
875.591	0
875.874	0.02
876.157	0.05
876.44	0.04
876.723	0.13
877.006	0.05
877.289	0.05
877.572	-0.03
877.854	0.05
878.137	0.08
878.42	-0.03
878.702	0.04
878.984	0.15
879.267	-0.02
879.549	0.05
879.831	0.01
880.113	-0.02
880.395	0.07
880.677	-0.03
880.959	0.08
