Data from Rubpy_BV_1200_EDTA_Buffered_Absorbance_13-40-57-114.txt Node
Date: Wed Jul 01 13:40:57 BST 2026
User: fpm-admin
Spectrometer: OFX00224
Trigger mode: 0
Integration Time (sec): 7.000000E-2
Scans to average: 3
Nonlinearity correction enabled: false
Boxcar width: 0
Storing dark spectrum: false
XAxis mode: Wavelengths
Number of Pixels in Spectrum: 2136
>>>>>Begin Spectral Data<<<<<
154.91	-0
155.289	-0
155.669	0.13
156.048	-1.05
156.428	-0.56
156.807	-0
157.186	-0
157.566	-0.24
157.945	0.07
158.325	0.14
158.704	-1.09
159.083	-0
159.462	-0
159.842	-0.13
160.221	-0
160.6	-0
160.979	-0
161.359	-0
161.738	-0
162.117	-0
162.496	-0.23
162.875	-0
163.254	-0
163.633	-0.42
164.012	-1.08
164.391	0.22
164.77	-0.24
165.149	0.08
165.528	-0
165.907	0.04
166.286	0.3
166.665	0.57
167.044	-1.4
167.423	-0.12
167.802	-0
168.181	-0
168.559	0.35
168.938	-0.05
169.317	0.04
169.696	-0
170.074	-0
170.453	-0
170.832	-0.33
171.21	-0.19
171.589	-0
171.968	-0
172.346	-0.14
172.725	-0
173.103	-0.18
173.482	-0.19
173.861	-0.4
174.239	-0.16
174.617	0.06
174.996	-0.04
175.374	-0
175.753	-0.13
176.131	-1.35
176.51	0.3
176.888	-0
177.266	-0
177.645	0.02
178.023	0.32
178.401	-0.14
178.779	-0
179.158	-1.28
179.536	-0.38
179.914	0.81
180.292	-0.21
180.67	-0.19
181.048	0.37
181.427	-0.86
181.805	-0.08
182.183	-0.19
182.561	-0
182.939	-0
183.317	0.18
183.695	-0
184.073	0.33
184.451	-0.4
184.829	-0.06
185.206	-0.38
185.584	-0
185.962	-0
186.34	-1.16
186.718	-0
187.096	0.33
187.473	-0.54
187.851	-0.19
188.229	-0.48
188.607	0
188.984	0.14
189.362	0.09
189.74	0.04
190.117	0.13
190.495	0.07
190.872	0.07
191.25	0.21
191.627	0.03
192.005	0.05
192.382	0.1
192.76	0.02
193.137	0.09
193.515	0.02
193.892	0.02
194.269	0.1
194.647	0.15
195.024	0.03
195.401	-0.01
195.779	0.03
196.156	0.06
196.533	0.14
196.91	-0
197.288	0.08
197.665	-0.02
198.042	0.15
198.419	0.13
198.796	-0.08
199.173	0.11
199.55	0.12
199.927	0
200.304	0.1
200.681	0.24
201.058	0.17
201.435	0.08
201.812	0.06
202.189	0.04
202.566	0.15
202.943	0.18
203.32	0.05
203.697	0.03
204.073	0.09
204.45	0.16
204.827	0.15
205.204	0.09
205.58	0.07
205.957	0.06
206.334	-0
206.71	0.14
207.087	0.21
207.464	0.08
207.84	0.08
208.217	0.08
208.593	0.15
208.97	0.05
209.346	0.15
209.723	0.13
210.099	0.01
210.476	0.11
210.852	0.14
211.228	0.05
211.605	0.08
211.981	-0
212.357	-0
212.733	0.06
213.11	0.1
213.486	0.13
213.862	0.13
214.238	0.1
214.614	0.1
214.991	0.02
215.367	0.09
215.743	0.03
216.119	0.11
216.495	0.04
216.871	0.29
217.247	0.06
217.623	0.08
217.999	0.16
218.375	0.08
218.751	0.05
219.127	0.1
219.502	0.2
219.878	0.06
220.254	0.19
220.63	0.13
221.006	0.14
221.381	0.12
221.757	0.07
222.133	0.08
222.508	0.09
222.884	0.11
223.26	0.16
223.635	0.08
224.011	0.09
224.386	0.18
224.762	0.11
225.137	0.1
225.513	0.13
225.888	0.1
226.264	0.11
226.639	0.14
227.014	0.07
227.39	0.14
227.765	0.15
228.14	0.14
228.516	0.1
228.891	0.16
229.266	0.14
229.641	0.12
230.017	0.12
230.392	0.18
230.767	0.09
231.142	0.03
231.517	0.13
231.892	0.08
232.267	0.05
232.642	0.2
233.017	0.13
233.392	0.06
233.767	0.11
234.142	0.15
234.517	0.07
234.892	0.08
235.267	0.14
235.641	0.23
236.016	0.07
236.391	0.13
236.766	-0
237.14	0.11
237.515	0.11
237.89	0.06
238.264	0.13
238.639	0.08
239.014	0.01
239.388	0.15
239.763	0.12
240.137	0.11
240.512	0.2
240.886	0.09
241.261	0.13
241.635	0.1
242.009	0.08
242.384	0.16
242.758	0.14
243.132	0.07
243.507	0.12
243.881	0.1
244.255	0.11
244.629	0.11
245.004	0.17
245.378	0.07
245.752	0.11
246.126	0.08
246.5	0.19
246.874	0.1
247.248	0.2
247.622	0.12
247.996	0.1
248.37	0.13
248.744	0.11
249.118	0.29
249.492	0.01
249.866	0.18
250.24	0.08
250.613	0.06
250.987	0.19
251.361	0.17
251.735	0.1
252.108	0.08
252.482	0.09
252.856	0.08
253.229	0.11
253.603	0.12
253.977	0.09
254.35	0.11
254.724	0.05
255.097	0.13
255.471	0.11
255.844	0.1
256.218	0.21
256.591	0.08
256.964	0.07
257.338	0.12
257.711	0.11
258.084	0.13
258.458	0.11
258.831	0.14
259.204	0.08
259.577	0.14
259.95	0.18
260.323	0.06
260.697	0.14
261.07	0.19
261.443	0.19
261.816	0.14
262.189	0.17
262.562	0.16
262.935	0.08
263.308	0.14
263.68	0.08
264.053	0.17
264.426	0.13
264.799	0.12
265.172	0.13
265.545	0.04
265.917	0.09
266.29	0.13
266.663	0.06
267.035	0.12
267.408	0.13
267.781	0.16
268.153	0.12
268.526	0.13
268.898	0.14
269.271	0.17
269.643	0.17
270.016	0.06
270.388	0.08
270.76	0.06
271.133	0.16
271.505	0.14
271.877	0.14
272.25	0.13
272.622	0.17
272.994	0.1
273.366	0.11
273.739	0.09
274.111	0.06
274.483	0.15
274.855	0.18
275.227	0.12
275.599	0.12
275.971	0.06
276.343	0.13
276.715	0.14
277.087	0.29
277.459	0.07
277.831	0.14
278.203	0.09
278.574	0.15
278.946	0.19
279.318	0.22
279.69	0.18
280.061	0.18
280.433	0.14
280.805	0.08
281.176	0.07
281.548	0.09
281.92	0.08
282.291	0.1
282.663	0.17
283.034	0.11
283.406	0.14
283.777	0.14
284.148	0.09
284.52	0.15
284.891	0.2
285.262	0.1
285.634	0.2
286.005	0.09
286.376	0.1
286.747	0.13
287.119	0.1
287.49	0.12
287.861	0.16
288.232	0.17
288.603	0.13
288.974	0.17
289.345	0.06
289.716	0.16
290.087	0.1
290.458	0.08
290.829	0.22
291.2	0.1
291.571	0.13
291.941	0.23
292.312	0.15
292.683	0.09
293.054	0.11
293.424	0.17
293.795	0.09
294.166	0.19
294.536	0.11
294.907	0.11
295.277	0.06
295.648	0.14
296.018	0.1
296.389	0.11
296.759	0.09
297.13	0.13
297.5	0.15
297.871	0.2
298.241	0.14
298.611	0.17
298.981	0.17
299.352	0.11
299.722	0.13
300.092	0.11
300.462	0.15
300.832	0.12
301.202	0.18
301.573	0.14
301.943	0.14
302.313	0.15
302.683	0.13
303.053	0.13
303.422	0.12
303.792	0.07
304.162	0.07
304.532	0.09
304.902	0.13
305.272	0.12
305.641	0.08
306.011	0.09
306.381	0.08
306.75	0.1
307.12	0.11
307.49	0.1
307.859	0.11
308.229	0.07
308.598	0.09
308.968	0.08
309.337	0.1
309.707	0.12
310.076	0.08
310.445	0.08
310.815	0.09
311.184	0.07
311.553	0.09
311.923	0.08
312.292	0.08
312.661	0.1
313.03	0.1
313.399	0.11
313.768	0.1
314.137	0.1
314.506	0.11
314.875	0.11
315.244	0.11
315.613	0.11
315.982	0.11
316.351	0.11
316.72	0.1
317.089	0.11
317.458	0.12
317.826	0.11
318.195	0.11
318.564	0.11
318.933	0.12
319.301	0.11
319.67	0.12
320.038	0.12
320.407	0.12
320.775	0.13
321.144	0.13
321.512	0.13
321.881	0.13
322.249	0.14
322.618	0.14
322.986	0.13
323.354	0.14
323.723	0.14
324.091	0.13
324.459	0.15
324.827	0.14
325.195	0.15
325.564	0.15
325.932	0.15
326.3	0.15
326.668	0.15
327.036	0.16
327.404	0.15
327.772	0.15
328.14	0.16
328.508	0.16
328.875	0.16
329.243	0.17
329.611	0.17
329.979	0.17
330.346	0.18
330.714	0.18
331.082	0.18
331.449	0.18
331.817	0.18
332.185	0.19
332.552	0.2
332.92	0.2
333.287	0.19
333.655	0.19
334.022	0.2
334.389	0.21
334.757	0.21
335.124	0.21
335.491	0.22
335.859	0.22
336.226	0.23
336.593	0.23
336.96	0.24
337.327	0.24
337.695	0.25
338.062	0.25
338.429	0.25
338.796	0.27
339.163	0.26
339.53	0.27
339.897	0.27
340.263	0.28
340.63	0.28
340.997	0.28
341.364	0.29
341.731	0.29
342.097	0.3
342.464	0.31
342.831	0.31
343.197	0.31
343.564	0.32
343.931	0.33
344.297	0.33
344.664	0.34
345.03	0.34
345.396	0.35
345.763	0.35
346.129	0.36
346.496	0.36
346.862	0.37
347.228	0.37
347.594	0.38
347.961	0.38
348.327	0.39
348.693	0.39
349.059	0.39
349.425	0.4
349.791	0.41
350.157	0.41
350.523	0.41
350.889	0.42
351.255	0.43
351.621	0.43
351.987	0.44
352.353	0.44
352.719	0.44
353.084	0.45
353.45	0.45
353.816	0.45
354.181	0.47
354.547	0.47
354.913	0.48
355.278	0.49
355.644	0.49
356.009	0.5
356.375	0.51
356.74	0.51
357.106	0.52
357.471	0.52
357.836	0.53
358.202	0.54
358.567	0.55
358.932	0.55
359.297	0.57
359.663	0.57
360.028	0.58
360.393	0.59
360.758	0.59
361.123	0.6
361.488	0.61
361.853	0.62
362.218	0.63
362.583	0.64
362.948	0.64
363.312	0.65
363.677	0.66
364.042	0.66
364.407	0.67
364.772	0.69
365.136	0.68
365.501	0.7
365.865	0.71
366.23	0.7
366.595	0.72
366.959	0.72
367.324	0.72
367.688	0.74
368.052	0.74
368.417	0.74
368.781	0.75
369.145	0.75
369.51	0.77
369.874	0.77
370.238	0.77
370.602	0.78
370.967	0.79
371.331	0.79
371.695	0.8
372.059	0.79
372.423	0.8
372.787	0.8
373.151	0.79
373.515	0.79
373.878	0.8
374.242	0.79
374.606	0.79
374.97	0.78
375.334	0.78
375.697	0.77
376.061	0.76
376.425	0.76
376.788	0.75
377.152	0.74
377.515	0.74
377.879	0.73
378.242	0.72
378.606	0.72
378.969	0.7
379.333	0.69
379.696	0.69
380.059	0.69
380.422	0.68
380.786	0.67
381.149	0.66
381.512	0.66
381.875	0.65
382.238	0.65
382.601	0.64
382.964	0.64
383.327	0.63
383.69	0.62
384.053	0.62
384.416	0.62
384.779	0.62
385.142	0.61
385.504	0.61
385.867	0.61
386.23	0.61
386.593	0.62
386.955	0.61
387.318	0.62
387.68	0.62
388.043	0.62
388.405	0.62
388.768	0.62
389.13	0.61
389.493	0.62
389.855	0.61
390.217	0.61
390.58	0.61
390.942	0.59
391.304	0.6
391.666	0.59
392.028	0.59
392.391	0.58
392.753	0.57
393.115	0.57
393.477	0.56
393.839	0.55
394.201	0.56
394.563	0.55
394.924	0.55
395.286	0.55
395.648	0.56
396.01	0.56
396.371	0.56
396.733	0.58
397.095	0.59
397.456	0.6
397.818	0.61
398.18	0.63
398.541	0.64
398.903	0.66
399.264	0.68
399.625	0.69
399.987	0.71
400.348	0.72
400.709	0.73
401.071	0.74
401.432	0.74
401.793	0.74
402.154	0.74
402.515	0.73
402.876	0.73
403.238	0.71
403.599	0.69
403.96	0.67
404.32	0.64
404.681	0.63
405.042	0.59
405.403	0.58
405.764	0.54
406.125	0.52
406.485	0.49
406.846	0.47
407.207	0.44
407.567	0.42
407.928	0.39
408.288	0.37
408.649	0.35
409.009	0.33
409.37	0.31
409.73	0.29
410.091	0.27
410.451	0.26
410.811	0.25
411.171	0.23
411.532	0.22
411.892	0.21
412.252	0.2
412.612	0.19
412.972	0.18
413.332	0.17
413.692	0.16
414.052	0.16
414.412	0.15
414.772	0.15
415.132	0.14
415.492	0.14
415.851	0.13
416.211	0.13
416.571	0.12
416.931	0.12
417.29	0.12
417.65	0.11
418.009	0.11
418.369	0.11
418.728	0.11
419.088	0.1
419.447	0.1
419.807	0.1
420.166	0.1
420.525	0.09
420.884	0.09
421.244	0.08
421.603	0.09
421.962	0.08
422.321	0.09
422.68	0.07
423.039	0.08
423.398	0.09
423.757	0.07
424.116	0.07
424.475	0.08
424.834	0.08
425.193	0.07
425.551	0.07
425.91	0.07
426.269	0.07
426.628	0.07
426.986	0.07
427.345	0.06
427.703	0.07
428.062	0.07
428.42	0.07
428.779	0.06
429.137	0.06
429.496	0.06
429.854	0.06
430.212	0.06
430.57	0.07
430.929	0.06
431.287	0.06
431.645	0.06
432.003	0.06
432.361	0.06
432.719	0.06
433.077	0.06
433.435	0.07
433.793	0.07
434.151	0.05
434.509	0.06
434.866	0.06
435.224	0.06
435.582	0.06
435.94	0.05
436.297	0.05
436.655	0.06
437.012	0.06
437.37	0.06
437.727	0.06
438.085	0.05
438.442	0.06
438.8	0.05
439.157	0.06
439.514	0.05
439.872	0.05
440.229	0.06
440.586	0.06
440.943	0.06
441.3	0.06
441.657	0.05
442.014	0.05
442.371	0.06
442.728	0.05
443.085	0.05
443.442	0.05
443.799	0.06
444.156	0.05
444.513	0.06
444.869	0.05
445.226	0.06
445.583	0.06
445.939	0.05
446.296	0.06
446.652	0.06
447.009	0.06
447.365	0.06
447.722	0.05
448.078	0.05
448.434	0.05
448.791	0.05
449.147	0.05
449.503	0.05
449.859	0.06
450.215	0.05
450.571	0.05
450.928	0.05
451.284	0.05
451.64	0.05
451.995	0.05
452.351	0.04
452.707	0.05
453.063	0.04
453.419	0.04
453.775	0.05
454.13	0.04
454.486	0.04
454.842	0.04
455.197	0.04
455.553	0.03
455.908	0.03
456.264	0.04
456.619	0.03
456.975	0.03
457.33	0.03
457.685	0.03
458.04	0.03
458.396	0.02
458.751	0.02
459.106	0.02
459.461	0.01
459.816	0.02
460.171	0.01
460.526	0.02
460.881	0.02
461.236	0.01
461.591	0.01
461.946	0.01
462.301	-0
462.655	0
463.01	0.01
463.365	-0
463.719	-0
464.074	-0.02
464.428	-0.02
464.783	-0.02
465.137	-0.02
465.492	-0.01
465.846	-0.01
466.201	-0.02
466.555	-0.01
466.909	-0.01
467.263	-0.01
467.618	-0.01
467.972	-0.01
468.326	-0.01
468.68	-0.02
469.034	-0.02
469.388	-0.02
469.742	-0.01
470.096	-0.01
470.45	-0.02
470.804	-0.01
471.157	-0.01
471.511	-0.01
471.865	-0.01
472.218	-0.01
472.572	-0
472.926	-0
473.279	0
473.633	0
473.986	0.01
474.34	0.02
474.693	0.03
475.046	0.03
475.4	0.03
475.753	0.04
476.106	0.05
476.459	0.05
476.812	0.05
477.165	0.06
477.519	0.06
477.872	0.06
478.224	0.07
478.577	0.07
478.93	0.07
479.283	0.08
479.636	0.08
479.989	0.08
480.341	0.09
480.694	0.09
481.047	0.09
481.399	0.09
481.752	0.11
482.104	0.1
482.457	0.1
482.809	0.11
483.162	0.11
483.514	0.11
483.866	0.12
484.219	0.11
484.571	0.12
484.923	0.12
485.275	0.13
485.627	0.13
485.979	0.13
486.331	0.13
486.683	0.13
487.035	0.13
487.387	0.14
487.739	0.14
488.091	0.15
488.443	0.15
488.794	0.15
489.146	0.15
489.498	0.15
489.849	0.15
490.201	0.15
490.552	0.15
490.904	0.16
491.255	0.16
491.607	0.16
491.958	0.16
492.309	0.16
492.661	0.17
493.012	0.17
493.363	0.17
493.714	0.17
494.065	0.17
494.416	0.17
494.767	0.18
495.118	0.18
495.469	0.18
495.82	0.18
496.171	0.19
496.522	0.19
496.872	0.18
497.223	0.19
497.574	0.19
497.924	0.19
498.275	0.19
498.626	0.2
498.976	0.2
499.327	0.2
499.677	0.2
500.027	0.2
500.378	0.2
500.728	0.21
501.078	0.21
501.428	0.21
501.779	0.21
502.129	0.21
502.479	0.21
502.829	0.22
503.179	0.22
503.529	0.22
503.879	0.22
504.229	0.22
504.578	0.22
504.928	0.23
505.278	0.23
505.628	0.23
505.977	0.23
506.327	0.23
506.676	0.24
507.026	0.24
507.375	0.23
507.725	0.24
508.074	0.24
508.424	0.24
508.773	0.25
509.122	0.25
509.471	0.25
509.82	0.25
510.17	0.25
510.519	0.25
510.868	0.26
511.217	0.25
511.566	0.25
511.915	0.26
512.263	0.26
512.612	0.26
512.961	0.26
513.31	0.26
513.659	0.27
514.007	0.27
514.356	0.27
514.704	0.27
515.053	0.27
515.401	0.27
515.75	0.27
516.098	0.28
516.447	0.27
516.795	0.28
517.143	0.28
517.491	0.28
517.839	0.28
518.188	0.28
518.536	0.28
518.884	0.29
519.232	0.28
519.58	0.28
519.928	0.29
520.275	0.29
520.623	0.29
520.971	0.29
521.319	0.3
521.666	0.3
522.014	0.3
522.362	0.3
522.709	0.3
523.057	0.3
523.404	0.3
523.752	0.3
524.099	0.3
524.446	0.3
524.794	0.3
525.141	0.31
525.488	0.31
525.835	0.31
526.182	0.3
526.529	0.31
526.876	0.31
527.223	0.31
527.57	0.31
527.917	0.31
528.264	0.32
528.611	0.31
528.958	0.32
529.304	0.31
529.651	0.32
529.998	0.32
530.344	0.32
530.691	0.32
531.037	0.33
531.384	0.32
531.73	0.32
532.076	0.32
532.423	0.32
532.769	0.32
533.115	0.32
533.461	0.33
533.807	0.33
534.154	0.33
534.5	0.33
534.846	0.34
535.192	0.33
535.537	0.34
535.883	0.33
536.229	0.34
536.575	0.34
536.921	0.34
537.266	0.34
537.612	0.34
537.957	0.34
538.303	0.34
538.649	0.34
538.994	0.34
539.339	0.34
539.685	0.34
540.03	0.34
540.375	0.35
540.721	0.35
541.066	0.35
541.411	0.35
541.756	0.35
542.101	0.35
542.446	0.35
542.791	0.35
543.136	0.35
543.481	0.35
543.825	0.35
544.17	0.35
544.515	0.35
544.86	0.35
545.204	0.36
545.549	0.36
545.893	0.36
546.238	0.36
546.582	0.36
546.927	0.36
547.271	0.36
547.615	0.36
547.96	0.36
548.304	0.36
548.648	0.36
548.992	0.36
549.336	0.36
549.68	0.36
550.024	0.36
550.368	0.36
550.712	0.37
551.056	0.37
551.4	0.36
551.743	0.36
552.087	0.37
552.431	0.37
552.774	0.37
553.118	0.37
553.462	0.36
553.805	0.36
554.148	0.36
554.492	0.36
554.835	0.37
555.178	0.36
555.522	0.36
555.865	0.36
556.208	0.36
556.551	0.37
556.894	0.36
557.237	0.36
557.58	0.36
557.923	0.37
558.266	0.36
558.609	0.36
558.952	0.36
559.294	0.36
559.637	0.36
559.98	0.36
560.322	0.37
560.665	0.36
561.007	0.36
561.35	0.36
561.692	0.36
562.034	0.37
562.377	0.36
562.719	0.36
563.061	0.36
563.403	0.37
563.745	0.36
564.088	0.36
564.43	0.36
564.772	0.36
565.113	0.36
565.455	0.36
565.797	0.36
566.139	0.36
566.481	0.36
566.822	0.36
567.164	0.36
567.506	0.36
567.847	0.36
568.189	0.36
568.53	0.36
568.872	0.36
569.213	0.36
569.554	0.35
569.895	0.36
570.237	0.36
570.578	0.36
570.919	0.36
571.26	0.35
571.601	0.35
571.942	0.35
572.283	0.35
572.624	0.35
572.965	0.35
573.306	0.35
573.646	0.34
573.987	0.34
574.328	0.35
574.668	0.34
575.009	0.34
575.349	0.35
575.69	0.34
576.03	0.34
576.37	0.34
576.711	0.34
577.051	0.34
577.391	0.34
577.731	0.34
578.072	0.34
578.412	0.34
578.752	0.34
579.092	0.33
579.431	0.32
579.771	0.3
580.111	0.29
580.451	0.3
580.791	0.32
581.13	0.33
581.47	0.33
581.81	0.33
582.149	0.33
582.489	0.33
582.828	0.32
583.167	0.29
583.507	0.25
583.846	0.24
584.185	0.27
584.525	0.29
584.864	0.31
585.203	0.33
585.542	0.33
585.881	0.33
586.22	0.33
586.559	0.32
586.898	0.31
587.236	0.3
587.575	0.3
587.914	0.31
588.252	0.32
588.591	0.33
588.93	0.32
589.268	0.32
589.607	0.32
589.945	0.32
590.283	0.32
590.622	0.32
590.96	0.33
591.298	0.33
591.636	0.33
591.974	0.33
592.313	0.33
592.651	0.33
592.989	0.33
593.326	0.33
593.664	0.34
594.002	0.34
594.34	0.33
594.678	0.33
595.015	0.32
595.353	0.31
595.691	0.32
596.028	0.33
596.366	0.33
596.703	0.33
597.04	0.33
597.378	0.33
597.715	0.34
598.052	0.34
598.389	0.34
598.726	0.34
599.064	0.33
599.401	0.33
599.738	0.34
600.074	0.33
600.411	0.33
600.748	0.32
601.085	0.32
601.422	0.32
601.758	0.32
602.095	0.32
602.432	0.32
602.768	0.32
603.105	0.33
603.441	0.33
603.777	0.33
604.114	0.33
604.45	0.33
604.786	0.33
605.122	0.33
605.459	0.33
605.795	0.33
606.131	0.33
606.467	0.33
606.803	0.33
607.139	0.33
607.474	0.32
607.81	0.32
608.146	0.32
608.482	0.32
608.817	0.32
609.153	0.32
609.488	0.32
609.824	0.32
610.159	0.32
610.495	0.32
610.83	0.32
611.165	0.32
611.5	0.32
611.836	0.31
612.171	0.32
612.506	0.32
612.841	0.32
613.176	0.32
613.511	0.32
613.845	0.31
614.18	0.31
614.515	0.31
614.85	0.31
615.184	0.31
615.519	0.31
615.854	0.31
616.188	0.31
616.523	0.3
616.857	0.3
617.191	0.3
617.526	0.3
617.86	0.3
618.194	0.3
618.528	0.3
618.862	0.3
619.196	0.3
619.53	0.3
619.864	0.3
620.198	0.3
620.532	0.29
620.866	0.3
621.2	0.29
621.533	0.3
621.867	0.29
622.201	0.29
622.534	0.29
622.868	0.29
623.201	0.29
623.534	0.28
623.868	0.28
624.201	0.28
624.534	0.28
624.868	0.28
625.201	0.28
625.534	0.28
625.867	0.28
626.2	0.27
626.533	0.28
626.865	0.28
627.198	0.27
627.531	0.28
627.864	0.27
628.196	0.27
628.529	0.27
628.862	0.27
629.194	0.26
629.527	0.26
629.859	0.26
630.191	0.26
630.524	0.26
630.856	0.26
631.188	0.25
631.52	0.25
631.852	0.25
632.184	0.25
632.516	0.25
632.848	0.25
633.18	0.25
633.512	0.25
633.844	0.24
634.175	0.24
634.507	0.24
634.839	0.24
635.17	0.24
635.502	0.24
635.833	0.24
636.165	0.23
636.496	0.23
636.827	0.23
637.159	0.23
637.49	0.23
637.821	0.22
638.152	0.22
638.483	0.22
638.814	0.22
639.145	0.22
639.476	0.22
639.807	0.22
640.137	0.21
640.468	0.21
640.799	0.21
641.129	0.21
641.46	0.2
641.791	0.2
642.121	0.2
642.451	0.2
642.782	0.2
643.112	0.2
643.442	0.2
643.773	0.2
644.103	0.2
644.433	0.19
644.763	0.19
645.093	0.19
645.423	0.19
645.753	0.19
646.082	0.19
646.412	0.19
646.742	0.19
647.072	0.19
647.401	0.19
647.731	0.19
648.06	0.18
648.39	0.18
648.719	0.18
649.048	0.18
649.378	0.18
649.707	0.17
650.036	0.17
650.365	0.17
650.694	0.17
651.023	0.17
651.352	0.17
651.681	0.17
652.01	0.17
652.339	0.17
652.668	0.17
652.996	0.17
653.325	0.17
653.654	0.17
653.982	0.17
654.311	0.17
654.639	0.17
654.967	0.17
655.296	0.17
655.624	0.17
655.952	0.17
656.28	0.17
656.609	0.17
656.937	0.17
657.265	0.17
657.593	0.06
657.92	0
658.248	-0
658.576	-0
658.904	0.03
659.231	0.11
659.559	0.16
659.887	0.16
660.214	0.16
660.542	0.16
660.869	0.16
661.196	0.16
661.524	0.16
661.851	0.16
662.178	0.16
662.505	0.16
662.832	0.16
663.159	0.16
663.486	0.16
663.813	0.16
664.14	0.16
664.467	0.16
664.794	0.16
665.12	0.16
665.447	0.16
665.774	0.15
666.1	0.15
666.427	0.15
666.753	0.15
667.079	0.15
667.406	0.15
667.732	0.15
668.058	0.15
668.384	0.15
668.71	0.15
669.036	0.14
669.362	0.15
669.688	0.15
670.014	0.15
670.34	0.14
670.666	0.14
670.991	0.14
671.317	0.14
671.643	0.13
671.968	0.13
672.294	0.13
672.619	0.13
672.945	0.13
673.27	0.13
673.595	0.13
673.92	0.13
674.246	0.13
674.571	0.13
674.896	0.13
675.221	0.13
675.546	0.13
675.87	0.13
676.195	0.12
676.52	0.13
676.845	0.12
677.169	0.12
677.494	0.12
677.819	0.12
678.143	0.11
678.468	0.11
678.792	0.11
679.116	0.11
679.44	0.11
679.765	0.11
680.089	0.11
680.413	0.1
680.737	0.1
681.061	0.1
681.385	0.1
681.709	0.1
682.033	0.1
682.356	0.1
682.68	0.1
683.004	0.1
683.327	0.1
683.651	0.09
683.974	0.09
684.298	0.09
684.621	0.09
684.944	0.09
685.268	0.09
685.591	0.09
685.914	0.08
686.237	0.08
686.56	0.08
686.883	0.08
687.206	0.08
687.529	0.07
687.852	0.07
688.175	0.08
688.497	0.08
688.82	0.07
689.142	0.08
689.465	0.08
689.787	0.08
690.11	0.08
690.432	0.07
690.755	0.07
691.077	0.07
691.399	0.07
691.721	0.07
692.043	0.07
692.365	0.06
692.687	0.06
693.009	0.06
693.331	0.06
693.653	0.06
693.974	0.06
694.296	0.06
694.618	0.06
694.939	0.06
695.261	0.06
695.582	0.06
695.904	0.06
696.225	0.06
696.546	0.06
696.868	0.06
697.189	0.06
697.51	0.05
697.831	0.05
698.152	0.06
698.473	0.05
698.794	0.04
699.114	0.04
699.435	0.03
699.756	0.04
700.077	0.04
700.397	0.04
700.718	0.04
701.038	0.05
701.359	0.05
701.679	0.04
701.999	0.05
702.32	0.05
702.64	0.04
702.96	0.04
703.28	0.05
703.6	0.05
703.92	0.04
704.24	0.04
704.56	0.04
704.879	0.03
705.199	0.04
705.519	0.04
705.838	0.04
706.158	0.04
706.478	0.04
706.797	0.04
707.116	0.04
707.436	0.04
707.755	0.04
708.074	0.04
708.393	0.04
708.712	0.03
709.031	0.02
709.35	0.02
709.669	0.02
709.988	0.02
710.307	0.02
710.626	0.02
710.944	0.03
711.263	0.03
711.582	0.04
711.9	0.04
712.219	0.03
712.537	0.03
712.855	0.03
713.174	0.03
713.492	0.04
713.81	0.04
714.128	0.04
714.446	0.04
714.764	0.03
715.082	0.03
715.4	0.03
715.718	0.03
716.035	0.03
716.353	0.03
716.671	0.03
716.988	0.03
717.306	0.03
717.623	0.03
717.941	0.04
718.258	0.04
718.575	0.04
718.893	0.04
719.21	0.04
719.527	0.04
719.844	0.04
720.161	0.04
720.478	0.04
720.795	0.04
721.112	0.04
721.428	0.04
721.745	0.04
722.062	0.04
722.378	0.04
722.695	0.04
723.011	0.04
723.328	0.04
723.644	0.04
723.96	0.04
724.276	0.04
724.593	0.04
724.909	0.04
725.225	0.04
725.541	0.05
725.857	0.05
726.173	0.05
726.488	0.05
726.804	0.05
727.12	0.05
727.435	0.05
727.751	0.05
728.067	0.05
728.382	0.05
728.697	0.05
729.013	0.05
729.328	0.05
729.643	0.05
729.958	0.05
730.273	0.05
730.588	0.04
730.903	0.05
731.218	0.05
731.533	0.05
731.848	0.05
732.163	0.04
732.477	0.04
732.792	0.04
733.107	0.04
733.421	0.04
733.736	0.04
734.05	0.04
734.364	0.04
734.678	0.04
734.993	0.04
735.307	0.04
735.621	0.04
735.935	0.04
736.249	0.04
736.563	0.04
736.877	0.04
737.19	0.04
737.504	0.04
737.818	0.04
738.131	0.04
738.445	0.04
738.758	0.04
739.072	0.04
739.385	0.04
739.698	0.04
740.012	0.04
740.325	0.04
740.638	0.04
740.951	0.04
741.264	0.04
741.577	0.04
741.89	0.04
742.203	0.04
742.515	0.04
742.828	0.04
743.141	0.04
743.453	0.04
743.766	0.03
744.078	0.03
744.391	0.03
744.703	0.03
745.015	0.03
745.327	0.03
745.639	0.03
745.952	0.03
746.264	0.03
746.575	0.03
746.887	0.03
747.199	0.03
747.511	0.03
747.823	0.03
748.134	0.03
748.446	0.03
748.757	0.03
749.069	0.03
749.38	0.03
749.692	0.03
750.003	0.03
750.314	0.03
750.625	0.03
750.936	0.03
751.248	0.03
751.559	0.03
751.869	0.03
752.18	0.03
752.491	0.03
752.802	0.03
753.112	0.03
753.423	0.03
753.734	0.03
754.044	0.02
754.355	0.03
754.665	0.02
754.975	0.02
755.285	0.02
755.596	0.02
755.906	0.03
756.216	0.02
756.526	0.02
756.836	0.02
757.146	0.02
757.455	0.02
757.765	0.02
758.075	0.02
758.385	0.02
758.694	0.02
759.004	0.02
759.313	0.01
759.622	0.02
759.932	0.02
760.241	0.02
760.55	0.01
760.859	0.01
761.168	0.01
761.477	0.01
761.786	0.01
762.095	0.01
762.404	0.01
762.713	0.01
763.021	0.01
763.33	0.01
763.639	0.01
763.947	0.01
764.256	0.01
764.564	0.01
764.872	0.01
765.181	0.01
765.489	0.01
765.797	0.01
766.105	0.01
766.413	0.01
766.721	0.01
767.029	0.01
767.337	0.01
767.644	0.01
767.952	0.02
768.26	0.01
768.567	0.02
768.875	0.02
769.182	0.02
769.49	0.01
769.797	0.01
770.104	0.01
770.411	0.01
770.718	0.01
771.026	0.01
771.333	0.01
771.639	0.01
771.946	0.01
772.253	0.01
772.56	0.01
772.867	0.01
773.173	0.01
773.48	0.01
773.786	0.01
774.093	0.01
774.399	0.02
774.705	0.02
775.012	0.01
775.318	0.01
775.624	0.01
775.93	0.01
776.236	0.01
776.542	0.01
776.848	0.02
777.154	0.02
777.459	0.02
777.765	0.02
778.071	0.02
778.376	0.01
778.682	0.02
778.987	0.02
779.292	0.01
779.598	0.01
779.903	0.01
780.208	0.02
780.513	0.01
780.818	0.01
781.123	0.01
781.428	0.02
781.733	0.01
782.038	0.01
782.343	0.02
782.647	0.01
782.952	0.01
783.256	0.01
783.561	0.01
783.865	0.01
784.17	0.01
784.474	0.01
784.778	0.01
785.082	0.02
785.386	0.02
785.69	0.02
785.994	0.02
786.298	0.02
786.602	0.02
786.906	0.02
787.209	0.02
787.513	0.02
787.817	0.02
788.12	0.02
788.424	0.02
788.727	0.02
789.03	0.02
789.333	0.02
789.637	0.02
789.94	0.02
790.243	0.02
790.546	0.02
790.849	0.02
791.152	0.02
791.454	0.02
791.757	0.03
792.06	0.02
792.362	0.02
792.665	0.02
792.967	0.02
793.27	0.02
793.572	0.02
793.874	0.03
794.177	0.03
794.479	0.03
794.781	0.02
795.083	0.02
795.385	0.02
795.687	0.02
795.989	0.02
796.29	0.02
796.592	0.02
796.894	0.02
797.195	0.02
797.497	0.02
797.798	0.02
798.1	0.02
798.401	0.02
798.702	0.02
799.003	0.02
799.304	0.02
799.605	0.01
799.906	0.01
800.207	0.01
800.508	0.01
800.809	0.01
801.11	0.01
801.41	0.01
801.711	0.02
802.011	0.01
802.312	0.01
802.612	0.02
802.913	0.02
803.213	0.02
803.513	0.03
803.813	0.02
804.113	0.03
804.413	0.03
804.713	0.02
805.013	0.02
805.313	0.03
805.613	0.03
805.912	0.03
806.212	0.03
806.511	0.03
806.811	0.03
807.11	0.02
807.41	0.03
807.709	0.02
808.008	0.03
808.307	0.02
808.606	0.02
808.905	0.02
809.204	0.03
809.503	0.02
809.802	0.03
810.101	0.03
810.399	0.02
810.698	0.03
810.997	0.02
811.295	0.02
811.593	0.02
811.892	0.03
812.19	0.03
812.488	0.02
812.786	0.02
813.084	0.02
813.383	0.02
813.68	0.03
813.978	0.03
814.276	0.03
814.574	0.03
814.872	0.03
815.169	0.03
815.467	0.03
815.764	0.03
816.062	0.03
816.359	0.03
816.656	0.03
816.954	0.03
817.251	0.03
817.548	0.03
817.845	0.03
818.142	0.03
818.439	0.03
818.735	0.03
819.032	0.03
819.329	0.03
819.626	0.03
819.922	0.02
820.219	0.02
820.515	0.03
820.811	0.02
821.108	0.03
821.404	0.03
821.7	0.03
821.996	0.02
822.292	0.03
822.588	0.03
822.884	0.03
823.18	0.03
823.475	0.03
823.771	0.03
824.067	0.03
824.362	0.02
824.658	0.03
824.953	0.03
825.249	0.03
825.544	0.02
825.839	0.02
826.134	0.03
826.429	0.03
826.724	0.02
827.019	0.03
827.314	0.03
827.609	0.03
827.904	0.03
828.198	0.03
828.493	0.03
828.787	0.03
829.082	0.03
829.376	0.03
829.671	0.04
829.965	0.03
830.259	0.03
830.553	0.04
830.847	0.03
831.141	0.03
831.435	0.03
831.729	0.04
832.023	0.04
832.317	0.04
832.61	0.03
832.904	0.03
833.197	0.04
833.491	0.03
833.784	0.04
834.077	0.04
834.371	0.04
834.664	0.03
834.957	0.04
835.25	0.04
835.543	0.04
835.836	0.03
836.129	0.03
836.421	0.04
836.714	0.04
837.007	0.04
837.299	0.04
837.592	0.03
837.884	0.03
838.177	0.03
838.469	0.03
838.761	0.03
839.053	0.03
839.345	0.03
839.637	0.04
839.929	0.05
840.221	0.03
840.513	0.04
840.805	0.04
841.096	0.03
841.388	0.04
841.68	0.03
841.971	0.04
842.262	0.04
842.554	0.03
842.845	0.04
843.136	0.04
843.427	0.03
843.718	0.04
844.009	0.04
844.3	0.04
844.591	0.03
844.882	0.03
845.173	0.04
845.463	0.04
845.754	0.04
846.044	0.04
846.335	0.04
846.625	0.04
846.915	0.05
847.206	0.05
847.496	0.05
847.786	0.05
848.076	0.04
848.366	0.05
848.656	0.05
848.945	0.05
849.235	0.04
849.525	0.05
849.814	0.05
850.104	0.04
850.393	0.05
850.683	0.05
850.972	0.06
851.261	0.04
851.551	0.04
851.84	0.03
852.129	0.04
852.418	0.03
852.707	0.04
852.995	0.04
853.284	0.04
853.573	0.04
853.862	0.04
854.15	0.05
854.439	0.04
854.727	0.05
855.015	0.05
855.304	0.04
855.592	0.05
855.88	0.06
856.168	0.05
856.456	0.06
856.744	0.04
857.032	0.05
857.32	0.05
857.607	0.05
857.895	0.05
858.183	0.04
858.47	0.04
858.757	0.04
859.045	0.06
859.332	0.06
859.619	0.04
859.907	0.05
860.194	0.06
860.481	0.04
860.768	0.03
861.054	0.05
861.341	0.04
861.628	0.04
861.915	0.05
862.201	0.04
862.488	0.04
862.774	0.05
863.061	0.05
863.347	0.04
863.633	0.04
863.919	0.03
864.205	0.07
864.491	0.04
864.777	0.05
865.063	0.05
865.349	0.05
865.635	0.05
865.92	0.05
866.206	0.06
866.492	0.04
866.777	0.06
867.062	0.05
867.348	0.05
867.633	0.08
867.918	0.04
868.203	0.05
868.488	0.06
868.773	0.04
869.058	0.04
869.343	0.02
869.628	0.04
869.912	0.04
870.197	0.05
870.482	0.02
870.766	0.05
871.05	0.03
871.335	0.06
871.619	0.05
871.903	0.03
872.187	0.03
872.471	0.04
872.755	0.04
873.039	0.01
873.323	0.06
873.607	0.04
873.89	0.06
874.174	0
874.458	-0.01
874.741	0.09
875.024	0.07
875.308	-0.01
875.591	0.02
875.874	-0.01
876.157	-0.02
876.44	0.03
876.723	0.11
877.006	-0.02
877.289	0.04
877.572	0.01
877.854	0.08
878.137	0.06
878.42	0
878.702	0.05
878.984	0.06
879.267	0.01
879.549	0.02
879.831	-0.02
880.113	-0.03
880.395	0.01
880.677	-0.03
880.959	-0.04
