Data from Rubpy_BV_1200_EDTA_Buffered_Absorbance_13-40-39-129.txt Node
Date: Wed Jul 01 13:40:39 BST 2026
User: fpm-admin
Spectrometer: OFX00224
Trigger mode: 0
Integration Time (sec): 7.000000E-2
Scans to average: 3
Nonlinearity correction enabled: false
Boxcar width: 0
Storing dark spectrum: false
XAxis mode: Wavelengths
Number of Pixels in Spectrum: 2136
>>>>>Begin Spectral Data<<<<<
154.91	-0
155.289	-0
155.669	-0.29
156.048	-0.88
156.428	-0
156.807	0.03
157.186	-0
157.566	-0.4
157.945	0.02
158.325	0.14
158.704	-1.09
159.083	-0
159.462	0.3
159.842	0.08
160.221	-0
160.6	0.46
160.979	-0
161.359	-0
161.738	-0
162.117	0.14
162.496	-0.3
162.875	-0
163.254	-0
163.633	-0.44
164.012	-0
164.391	0.12
164.77	-0.01
165.149	-0.18
165.528	-0.25
165.907	-0
166.286	0.41
166.665	-0
167.044	-1.22
167.423	0.04
167.802	-0
168.181	0.3
168.559	-0
168.938	0.57
169.317	-0
169.696	0.44
170.074	-0
170.453	-0
170.832	-0.29
171.21	-0.08
171.589	0.03
171.968	-0
172.346	0.21
172.725	-0
173.103	-0.76
173.482	-0.26
173.861	-0.4
174.239	-0.06
174.617	-0.02
174.996	-0.13
175.374	-0
175.753	-0.08
176.131	-1.24
176.51	1.66
176.888	-0
177.266	-0
177.645	0.03
178.023	0.18
178.401	-0.11
178.779	0.2
179.158	-1.38
179.536	-0.65
179.914	-0
180.292	-0.34
180.67	-0
181.048	-0
181.427	0.18
181.805	0.02
182.183	0.35
182.561	-0
182.939	0.13
183.317	-0.6
183.695	0.94
184.073	-0.17
184.451	-1.06
184.829	-0.32
185.206	0.1
185.584	-0.08
185.962	-0
186.34	-0.43
186.718	-0
187.096	0.59
187.473	-0.41
187.851	-0.06
188.229	-0
188.607	0.01
188.984	0.18
189.362	0.14
189.74	0.05
190.117	0.12
190.495	0.09
190.872	0.12
191.25	0.11
191.627	0.06
192.005	0.12
192.382	0.06
192.76	0.03
193.137	0.18
193.515	-0.06
193.892	0.12
194.269	0.09
194.647	0.17
195.024	0.01
195.401	0.03
195.779	-0.01
196.156	0.03
196.533	0.07
196.91	0.04
197.288	-0
197.665	0.02
198.042	0.07
198.419	0.05
198.796	0.01
199.173	0.05
199.55	0.09
199.927	0.05
200.304	0.07
200.681	0.14
201.058	0.09
201.435	0.09
201.812	0.11
202.189	0.1
202.566	0.08
202.943	0.11
203.32	0.12
203.697	0.09
204.073	0.13
204.45	0.07
204.827	0.18
205.204	0.08
205.58	0.05
205.957	0.06
206.334	0.1
206.71	0.19
207.087	0.12
207.464	0.07
207.84	0.06
208.217	0.05
208.593	0.06
208.97	0.01
209.346	0.06
209.723	0.11
210.099	0.03
210.476	0.11
210.852	0.1
211.228	0.07
211.605	0.08
211.981	0.06
212.357	0.1
212.733	-0.02
213.11	0.01
213.486	0.09
213.862	0.1
214.238	0.1
214.614	0.06
214.991	0.03
215.367	0.16
215.743	0.03
216.119	0.07
216.495	0.11
216.871	0.15
217.247	0.16
217.623	0.21
217.999	0.13
218.375	0.14
218.751	0.04
219.127	0.02
219.502	0.07
219.878	0.02
220.254	0.17
220.63	0.08
221.006	0.12
221.381	0.09
221.757	0.09
222.133	0.07
222.508	0.1
222.884	0.09
223.26	0.09
223.635	0.05
224.011	0.1
224.386	0.07
224.762	0.13
225.137	0.06
225.513	0.04
225.888	0.14
226.264	0.12
226.639	0.08
227.014	0.06
227.39	0.15
227.765	0.17
228.14	0.22
228.516	0.14
228.891	0.08
229.266	0.17
229.641	0.07
230.017	0.16
230.392	0.16
230.767	0.08
231.142	0.06
231.517	0.08
231.892	0.09
232.267	0.07
232.642	0.28
233.017	0
233.392	0.02
233.767	0.17
234.142	0.15
234.517	0.04
234.892	0.09
235.267	0.1
235.641	0.16
236.016	0.13
236.391	0.06
236.766	-0.01
237.14	0.08
237.515	0.14
237.89	0.05
238.264	0.21
238.639	0.16
239.014	0.11
239.388	0.09
239.763	0.09
240.137	0.06
240.512	0.09
240.886	0.06
241.261	0.12
241.635	0.14
242.009	0.12
242.384	0.18
242.758	0.17
243.132	0.1
243.507	0.14
243.881	0.09
244.255	0.09
244.629	0.1
245.004	0.1
245.378	0.06
245.752	0.01
246.126	0.01
246.5	0.08
246.874	0.15
247.248	0.19
247.622	0.14
247.996	0.12
248.37	0.21
248.744	0.05
249.118	0.22
249.492	0.05
249.866	0.13
250.24	0.09
250.613	0.03
250.987	0.18
251.361	0.15
251.735	0.05
252.108	0.06
252.482	0.15
252.856	0.01
253.229	0.07
253.603	0.15
253.977	0.02
254.35	0.08
254.724	0.18
255.097	0.09
255.471	0.14
255.844	0.11
256.218	0.17
256.591	0.04
256.964	0.06
257.338	0.14
257.711	0.14
258.084	0.17
258.458	0.14
258.831	0.15
259.204	0.11
259.577	0.15
259.95	0.21
260.323	0.13
260.697	0.07
261.07	0.21
261.443	0.18
261.816	0.07
262.189	0.22
262.562	0.18
262.935	0.08
263.308	0.13
263.68	0.11
264.053	0.09
264.426	0.09
264.799	0.06
265.172	0.01
265.545	0.11
265.917	0.06
266.29	0.14
266.663	0.06
267.035	0.1
267.408	0.12
267.781	0.16
268.153	0.09
268.526	0.04
268.898	0.21
269.271	0.12
269.643	0.17
270.016	0.08
270.388	0.07
270.76	0.18
271.133	0.17
271.505	0.18
271.877	0.08
272.25	0.15
272.622	0.16
272.994	0.19
273.366	0.12
273.739	0.14
274.111	0.14
274.483	0.13
274.855	0.18
275.227	0.13
275.599	0.15
275.971	0.1
276.343	0.11
276.715	0.17
277.087	0.18
277.459	0.14
277.831	0.18
278.203	0.15
278.574	0.15
278.946	0.19
279.318	0.16
279.69	0.12
280.061	0.13
280.433	0.1
280.805	0.11
281.176	0.12
281.548	0.17
281.92	0.15
282.291	0.1
282.663	0.15
283.034	0.17
283.406	0.16
283.777	0.09
284.148	0.07
284.52	0.09
284.891	0.22
285.262	0.15
285.634	0.14
286.005	0.14
286.376	0.15
286.747	0.11
287.119	0.13
287.49	0.1
287.861	0.1
288.232	0.14
288.603	0.17
288.974	0.08
289.345	0.13
289.716	0.1
290.087	0.11
290.458	0.11
290.829	0.2
291.2	0.18
291.571	0.2
291.941	0.16
292.312	0.1
292.683	0.11
293.054	0.13
293.424	0.18
293.795	0.15
294.166	0.16
294.536	0.09
294.907	0.13
295.277	0.07
295.648	0.14
296.018	0.12
296.389	0.13
296.759	0.14
297.13	0.1
297.5	0.17
297.871	0.18
298.241	0.17
298.611	0.17
298.981	0.18
299.352	0.12
299.722	0.13
300.092	0.18
300.462	0.18
300.832	0.12
301.202	0.18
301.573	0.15
301.943	0.09
302.313	0.05
302.683	0.09
303.053	0.09
303.422	0.13
303.792	0.1
304.162	0.09
304.532	0.09
304.902	0.12
305.272	0.09
305.641	0.11
306.011	0.09
306.381	0.08
306.75	0.11
307.12	0.08
307.49	0.09
307.859	0.11
308.229	0.1
308.598	0.09
308.968	0.07
309.337	0.1
309.707	0.1
310.076	0.1
310.445	0.08
310.815	0.09
311.184	0.09
311.553	0.09
311.923	0.08
312.292	0.08
312.661	0.09
313.03	0.09
313.399	0.1
313.768	0.09
314.137	0.1
314.506	0.11
314.875	0.1
315.244	0.11
315.613	0.1
315.982	0.11
316.351	0.1
316.72	0.1
317.089	0.09
317.458	0.1
317.826	0.11
318.195	0.11
318.564	0.11
318.933	0.11
319.301	0.11
319.67	0.12
320.038	0.11
320.407	0.12
320.775	0.12
321.144	0.13
321.512	0.12
321.881	0.13
322.249	0.13
322.618	0.13
322.986	0.13
323.354	0.12
323.723	0.13
324.091	0.13
324.459	0.13
324.827	0.14
325.195	0.13
325.564	0.14
325.932	0.14
326.3	0.14
326.668	0.14
327.036	0.15
327.404	0.15
327.772	0.15
328.14	0.15
328.508	0.16
328.875	0.15
329.243	0.16
329.611	0.17
329.979	0.17
330.346	0.17
330.714	0.17
331.082	0.17
331.449	0.18
331.817	0.17
332.185	0.17
332.552	0.18
332.92	0.19
333.287	0.18
333.655	0.19
334.022	0.2
334.389	0.2
334.757	0.2
335.124	0.2
335.491	0.21
335.859	0.21
336.226	0.21
336.593	0.23
336.96	0.23
337.327	0.23
337.695	0.23
338.062	0.24
338.429	0.24
338.796	0.25
339.163	0.25
339.53	0.26
339.897	0.26
340.263	0.27
340.63	0.27
340.997	0.27
341.364	0.28
341.731	0.29
342.097	0.29
342.464	0.29
342.831	0.29
343.197	0.3
343.564	0.3
343.931	0.31
344.297	0.32
344.664	0.32
345.03	0.32
345.396	0.33
345.763	0.33
346.129	0.34
346.496	0.35
346.862	0.35
347.228	0.36
347.594	0.36
347.961	0.37
348.327	0.37
348.693	0.38
349.059	0.38
349.425	0.38
349.791	0.39
350.157	0.39
350.523	0.4
350.889	0.4
351.255	0.41
351.621	0.41
351.987	0.42
352.353	0.43
352.719	0.42
353.084	0.43
353.45	0.44
353.816	0.45
354.181	0.45
354.547	0.45
354.913	0.46
355.278	0.47
355.644	0.47
356.009	0.48
356.375	0.49
356.74	0.49
357.106	0.5
357.471	0.51
357.836	0.51
358.202	0.51
358.567	0.53
358.932	0.53
359.297	0.54
359.663	0.55
360.028	0.55
360.393	0.56
360.758	0.57
361.123	0.58
361.488	0.59
361.853	0.6
362.218	0.6
362.583	0.61
362.948	0.62
363.312	0.62
363.677	0.64
364.042	0.64
364.407	0.65
364.772	0.66
365.136	0.66
365.501	0.66
365.865	0.68
366.23	0.67
366.595	0.69
366.959	0.7
367.324	0.69
367.688	0.7
368.052	0.71
368.417	0.71
368.781	0.72
369.145	0.72
369.51	0.74
369.874	0.74
370.238	0.75
370.602	0.75
370.967	0.76
371.331	0.76
371.695	0.77
372.059	0.77
372.423	0.77
372.787	0.76
373.151	0.77
373.515	0.76
373.878	0.77
374.242	0.76
374.606	0.75
374.97	0.75
375.334	0.74
375.697	0.75
376.061	0.73
376.425	0.73
376.788	0.72
377.152	0.71
377.515	0.71
377.879	0.7
378.242	0.69
378.606	0.69
378.969	0.68
379.333	0.68
379.696	0.67
380.059	0.66
380.422	0.65
380.786	0.64
381.149	0.64
381.512	0.63
381.875	0.63
382.238	0.62
382.601	0.62
382.964	0.62
383.327	0.61
383.69	0.6
384.053	0.6
384.416	0.59
384.779	0.59
385.142	0.59
385.504	0.59
385.867	0.59
386.23	0.59
386.593	0.59
386.955	0.59
387.318	0.6
387.68	0.59
388.043	0.6
388.405	0.59
388.768	0.6
389.13	0.59
389.493	0.59
389.855	0.59
390.217	0.59
390.58	0.59
390.942	0.58
391.304	0.58
391.666	0.57
392.028	0.56
392.391	0.56
392.753	0.56
393.115	0.54
393.477	0.55
393.839	0.54
394.201	0.54
394.563	0.53
394.924	0.54
395.286	0.53
395.648	0.54
396.01	0.54
396.371	0.55
396.733	0.56
397.095	0.56
397.456	0.58
397.818	0.6
398.18	0.6
398.541	0.63
398.903	0.64
399.264	0.66
399.625	0.67
399.987	0.69
400.348	0.7
400.709	0.72
401.071	0.72
401.432	0.73
401.793	0.72
402.154	0.72
402.515	0.71
402.876	0.7
403.238	0.69
403.599	0.67
403.96	0.65
404.32	0.63
404.681	0.6
405.042	0.58
405.403	0.55
405.764	0.52
406.125	0.5
406.485	0.48
406.846	0.45
407.207	0.42
407.567	0.4
407.928	0.38
408.288	0.36
408.649	0.34
409.009	0.31
409.37	0.29
409.73	0.28
410.091	0.27
410.451	0.25
410.811	0.24
411.171	0.22
411.532	0.21
411.892	0.21
412.252	0.19
412.612	0.19
412.972	0.18
413.332	0.17
413.692	0.16
414.052	0.16
414.412	0.14
414.772	0.14
415.132	0.13
415.492	0.13
415.851	0.13
416.211	0.12
416.571	0.11
416.931	0.12
417.29	0.11
417.65	0.11
418.009	0.1
418.369	0.1
418.728	0.1
419.088	0.1
419.447	0.09
419.807	0.09
420.166	0.09
420.525	0.09
420.884	0.08
421.244	0.08
421.603	0.09
421.962	0.08
422.321	0.08
422.68	0.07
423.039	0.07
423.398	0.08
423.757	0.07
424.116	0.07
424.475	0.07
424.834	0.07
425.193	0.07
425.551	0.06
425.91	0.07
426.269	0.07
426.628	0.07
426.986	0.07
427.345	0.06
427.703	0.06
428.062	0.07
428.42	0.07
428.779	0.06
429.137	0.06
429.496	0.07
429.854	0.06
430.212	0.06
430.57	0.06
430.929	0.06
431.287	0.06
431.645	0.06
432.003	0.06
432.361	0.06
432.719	0.06
433.077	0.06
433.435	0.06
433.793	0.06
434.151	0.05
434.509	0.05
434.866	0.06
435.224	0.06
435.582	0.05
435.94	0.05
436.297	0.05
436.655	0.05
437.012	0.06
437.37	0.06
437.727	0.06
438.085	0.05
438.442	0.05
438.8	0.05
439.157	0.05
439.514	0.05
439.872	0.04
440.229	0.05
440.586	0.06
440.943	0.05
441.3	0.05
441.657	0.05
442.014	0.05
442.371	0.05
442.728	0.05
443.085	0.05
443.442	0.06
443.799	0.05
444.156	0.05
444.513	0.05
444.869	0.05
445.226	0.05
445.583	0.06
445.939	0.05
446.296	0.05
446.652	0.06
447.009	0.05
447.365	0.05
447.722	0.06
448.078	0.05
448.434	0.05
448.791	0.05
449.147	0.04
449.503	0.05
449.859	0.05
450.215	0.05
450.571	0.04
450.928	0.05
451.284	0.05
451.64	0.04
451.995	0.05
452.351	0.05
452.707	0.05
453.063	0.04
453.419	0.04
453.775	0.05
454.13	0.04
454.486	0.04
454.842	0.04
455.197	0.03
455.553	0.04
455.908	0.03
456.264	0.04
456.619	0.03
456.975	0.03
457.33	0.04
457.685	0.03
458.04	0.03
458.396	0.02
458.751	0.03
459.106	0.03
459.461	0.02
459.816	0.02
460.171	0.01
460.526	0.02
460.881	0.01
461.236	0.01
461.591	0.02
461.946	0.01
462.301	0
462.655	0.01
463.01	0
463.365	0
463.719	-0.01
464.074	-0.01
464.428	-0.01
464.783	-0.02
465.137	-0.02
465.492	-0.02
465.846	-0.02
466.201	-0.02
466.555	-0.01
466.909	-0.01
467.263	-0.01
467.618	-0.01
467.972	-0.01
468.326	-0.01
468.68	-0.01
469.034	-0.02
469.388	-0.02
469.742	-0.01
470.096	-0.01
470.45	-0.01
470.804	-0.01
471.157	-0.01
471.511	-0.01
471.865	-0.01
472.218	-0
472.572	0
472.926	-0
473.279	0
473.633	0.01
473.986	0.01
474.34	0.02
474.693	0.02
475.046	0.03
475.4	0.03
475.753	0.04
476.106	0.04
476.459	0.05
476.812	0.05
477.165	0.05
477.519	0.06
477.872	0.06
478.224	0.06
478.577	0.07
478.93	0.07
479.283	0.07
479.636	0.08
479.989	0.08
480.341	0.08
480.694	0.09
481.047	0.09
481.399	0.09
481.752	0.1
482.104	0.1
482.457	0.1
482.809	0.1
483.162	0.11
483.514	0.11
483.866	0.11
484.219	0.11
484.571	0.12
484.923	0.12
485.275	0.12
485.627	0.12
485.979	0.13
486.331	0.13
486.683	0.13
487.035	0.13
487.387	0.13
487.739	0.14
488.091	0.14
488.443	0.14
488.794	0.14
489.146	0.14
489.498	0.14
489.849	0.14
490.201	0.15
490.552	0.14
490.904	0.15
491.255	0.15
491.607	0.15
491.958	0.15
492.309	0.16
492.661	0.16
493.012	0.16
493.363	0.16
493.714	0.16
494.065	0.16
494.416	0.17
494.767	0.17
495.118	0.17
495.469	0.17
495.82	0.17
496.171	0.18
496.522	0.18
496.872	0.18
497.223	0.18
497.574	0.18
497.924	0.18
498.275	0.19
498.626	0.19
498.976	0.19
499.327	0.19
499.677	0.19
500.027	0.2
500.378	0.19
500.728	0.2
501.078	0.2
501.428	0.2
501.779	0.2
502.129	0.21
502.479	0.21
502.829	0.2
503.179	0.21
503.529	0.21
503.879	0.21
504.229	0.21
504.578	0.22
504.928	0.21
505.278	0.22
505.628	0.23
505.977	0.22
506.327	0.22
506.676	0.23
507.026	0.23
507.375	0.23
507.725	0.23
508.074	0.23
508.424	0.23
508.773	0.23
509.122	0.24
509.471	0.24
509.82	0.24
510.17	0.24
510.519	0.24
510.868	0.25
511.217	0.24
511.566	0.25
511.915	0.24
512.263	0.25
512.612	0.25
512.961	0.25
513.31	0.25
513.659	0.25
514.007	0.25
514.356	0.26
514.704	0.26
515.053	0.26
515.401	0.26
515.75	0.26
516.098	0.26
516.447	0.26
516.795	0.27
517.143	0.27
517.491	0.27
517.839	0.27
518.188	0.27
518.536	0.27
518.884	0.28
519.232	0.27
519.58	0.27
519.928	0.28
520.275	0.28
520.623	0.28
520.971	0.28
521.319	0.28
521.666	0.29
522.014	0.29
522.362	0.29
522.709	0.29
523.057	0.29
523.404	0.29
523.752	0.28
524.099	0.29
524.446	0.29
524.794	0.29
525.141	0.29
525.488	0.3
525.835	0.3
526.182	0.3
526.529	0.3
526.876	0.3
527.223	0.3
527.57	0.3
527.917	0.3
528.264	0.3
528.611	0.3
528.958	0.3
529.304	0.3
529.651	0.3
529.998	0.3
530.344	0.3
530.691	0.31
531.037	0.31
531.384	0.31
531.73	0.31
532.076	0.31
532.423	0.31
532.769	0.31
533.115	0.31
533.461	0.32
533.807	0.31
534.154	0.32
534.5	0.31
534.846	0.32
535.192	0.32
535.537	0.32
535.883	0.32
536.229	0.32
536.575	0.33
536.921	0.32
537.266	0.33
537.612	0.33
537.957	0.33
538.303	0.32
538.649	0.32
538.994	0.33
539.339	0.33
539.685	0.33
540.03	0.33
540.375	0.33
540.721	0.33
541.066	0.33
541.411	0.33
541.756	0.33
542.101	0.33
542.446	0.33
542.791	0.34
543.136	0.33
543.481	0.33
543.825	0.34
544.17	0.34
544.515	0.34
544.86	0.33
545.204	0.34
545.549	0.34
545.893	0.34
546.238	0.34
546.582	0.34
546.927	0.35
547.271	0.34
547.615	0.35
547.96	0.35
548.304	0.35
548.648	0.35
548.992	0.34
549.336	0.35
549.68	0.35
550.024	0.35
550.368	0.35
550.712	0.35
551.056	0.35
551.4	0.35
551.743	0.35
552.087	0.35
552.431	0.35
552.774	0.35
553.118	0.35
553.462	0.35
553.805	0.35
554.148	0.35
554.492	0.35
554.835	0.35
555.178	0.35
555.522	0.35
555.865	0.35
556.208	0.35
556.551	0.35
556.894	0.35
557.237	0.35
557.58	0.35
557.923	0.35
558.266	0.35
558.609	0.35
558.952	0.35
559.294	0.35
559.637	0.35
559.98	0.34
560.322	0.35
560.665	0.35
561.007	0.35
561.35	0.35
561.692	0.35
562.034	0.35
562.377	0.35
562.719	0.35
563.061	0.35
563.403	0.35
563.745	0.35
564.088	0.35
564.43	0.35
564.772	0.35
565.113	0.35
565.455	0.35
565.797	0.35
566.139	0.35
566.481	0.35
566.822	0.35
567.164	0.35
567.506	0.34
567.847	0.34
568.189	0.34
568.53	0.35
568.872	0.34
569.213	0.35
569.554	0.34
569.895	0.34
570.237	0.34
570.578	0.34
570.919	0.34
571.26	0.34
571.601	0.34
571.942	0.34
572.283	0.34
572.624	0.33
572.965	0.33
573.306	0.33
573.646	0.33
573.987	0.33
574.328	0.33
574.668	0.33
575.009	0.33
575.349	0.33
575.69	0.33
576.03	0.33
576.37	0.33
576.711	0.32
577.051	0.32
577.391	0.32
577.731	0.33
578.072	0.32
578.412	0.32
578.752	0.32
579.092	0.32
579.431	0.31
579.771	0.29
580.111	0.28
580.451	0.29
580.791	0.31
581.13	0.32
581.47	0.32
581.81	0.32
582.149	0.32
582.489	0.32
582.828	0.31
583.167	0.28
583.507	0.24
583.846	0.23
584.185	0.25
584.525	0.28
584.864	0.3
585.203	0.32
585.542	0.31
585.881	0.32
586.22	0.32
586.559	0.31
586.898	0.3
587.236	0.29
587.575	0.29
587.914	0.29
588.252	0.31
588.591	0.31
588.93	0.31
589.268	0.31
589.607	0.31
589.945	0.31
590.283	0.31
590.622	0.31
590.96	0.32
591.298	0.32
591.636	0.32
591.974	0.32
592.313	0.32
592.651	0.32
592.989	0.32
593.326	0.32
593.664	0.32
594.002	0.32
594.34	0.32
594.678	0.31
595.015	0.31
595.353	0.3
595.691	0.31
596.028	0.32
596.366	0.32
596.703	0.32
597.04	0.32
597.378	0.32
597.715	0.32
598.052	0.33
598.389	0.33
598.726	0.32
599.064	0.32
599.401	0.32
599.738	0.32
600.074	0.32
600.411	0.32
600.748	0.32
601.085	0.31
601.422	0.31
601.758	0.31
602.095	0.31
602.432	0.31
602.768	0.31
603.105	0.32
603.441	0.32
603.777	0.32
604.114	0.32
604.45	0.32
604.786	0.32
605.122	0.32
605.459	0.32
605.795	0.32
606.131	0.31
606.467	0.32
606.803	0.32
607.139	0.31
607.474	0.31
607.81	0.31
608.146	0.31
608.482	0.31
608.817	0.31
609.153	0.31
609.488	0.31
609.824	0.31
610.159	0.31
610.495	0.31
610.83	0.31
611.165	0.31
611.5	0.31
611.836	0.3
612.171	0.3
612.506	0.31
612.841	0.31
613.176	0.31
613.511	0.3
613.845	0.3
614.18	0.3
614.515	0.3
614.85	0.3
615.184	0.3
615.519	0.3
615.854	0.3
616.188	0.29
616.523	0.29
616.857	0.29
617.191	0.29
617.526	0.29
617.86	0.29
618.194	0.28
618.528	0.29
618.862	0.29
619.196	0.29
619.53	0.29
619.864	0.29
620.198	0.28
620.532	0.28
620.866	0.29
621.2	0.28
621.533	0.29
621.867	0.29
622.201	0.28
622.534	0.28
622.868	0.28
623.201	0.27
623.534	0.27
623.868	0.27
624.201	0.27
624.534	0.27
624.868	0.27
625.201	0.27
625.534	0.27
625.867	0.27
626.2	0.27
626.533	0.27
626.865	0.27
627.198	0.26
627.531	0.26
627.864	0.26
628.196	0.26
628.529	0.26
628.862	0.26
629.194	0.25
629.527	0.25
629.859	0.25
630.191	0.25
630.524	0.25
630.856	0.25
631.188	0.25
631.52	0.25
631.852	0.24
632.184	0.24
632.516	0.24
632.848	0.24
633.18	0.24
633.512	0.24
633.844	0.23
634.175	0.23
634.507	0.23
634.839	0.23
635.17	0.23
635.502	0.23
635.833	0.23
636.165	0.22
636.496	0.22
636.827	0.22
637.159	0.22
637.49	0.22
637.821	0.21
638.152	0.21
638.483	0.21
638.814	0.21
639.145	0.21
639.476	0.21
639.807	0.21
640.137	0.21
640.468	0.2
640.799	0.2
641.129	0.2
641.46	0.2
641.791	0.2
642.121	0.2
642.451	0.19
642.782	0.19
643.112	0.2
643.442	0.19
643.773	0.19
644.103	0.19
644.433	0.19
644.763	0.19
645.093	0.19
645.423	0.19
645.753	0.19
646.082	0.18
646.412	0.18
646.742	0.18
647.072	0.18
647.401	0.18
647.731	0.18
648.06	0.18
648.39	0.18
648.719	0.18
649.048	0.17
649.378	0.17
649.707	0.17
650.036	0.17
650.365	0.17
650.694	0.17
651.023	0.17
651.352	0.16
651.681	0.16
652.01	0.17
652.339	0.17
652.668	0.17
652.996	0.17
653.325	0.17
653.654	0.17
653.982	0.17
654.311	0.17
654.639	0.17
654.967	0.17
655.296	0.16
655.624	0.16
655.952	0.17
656.28	0.16
656.609	0.16
656.937	0.16
657.265	0.16
657.593	0.06
657.92	0
658.248	-0
658.576	-0
658.904	0.03
659.231	0.1
659.559	0.15
659.887	0.16
660.214	0.15
660.542	0.15
660.869	0.15
661.196	0.15
661.524	0.16
661.851	0.15
662.178	0.15
662.505	0.16
662.832	0.15
663.159	0.16
663.486	0.15
663.813	0.16
664.14	0.15
664.467	0.15
664.794	0.15
665.12	0.15
665.447	0.15
665.774	0.15
666.1	0.15
666.427	0.14
666.753	0.14
667.079	0.15
667.406	0.15
667.732	0.14
668.058	0.15
668.384	0.14
668.71	0.14
669.036	0.14
669.362	0.14
669.688	0.14
670.014	0.14
670.34	0.14
670.666	0.14
670.991	0.13
671.317	0.13
671.643	0.13
671.968	0.13
672.294	0.13
672.619	0.12
672.945	0.12
673.27	0.12
673.595	0.12
673.92	0.13
674.246	0.12
674.571	0.13
674.896	0.13
675.221	0.12
675.546	0.12
675.87	0.12
676.195	0.12
676.52	0.12
676.845	0.12
677.169	0.11
677.494	0.11
677.819	0.11
678.143	0.11
678.468	0.11
678.792	0.11
679.116	0.11
679.44	0.1
679.765	0.11
680.089	0.1
680.413	0.1
680.737	0.1
681.061	0.1
681.385	0.1
681.709	0.09
682.033	0.09
682.356	0.09
682.68	0.09
683.004	0.09
683.327	0.09
683.651	0.09
683.974	0.09
684.298	0.09
684.621	0.09
684.944	0.09
685.268	0.09
685.591	0.08
685.914	0.08
686.237	0.08
686.56	0.08
686.883	0.08
687.206	0.08
687.529	0.07
687.852	0.07
688.175	0.07
688.497	0.07
688.82	0.07
689.142	0.07
689.465	0.07
689.787	0.07
690.11	0.07
690.432	0.07
690.755	0.07
691.077	0.07
691.399	0.06
691.721	0.07
692.043	0.07
692.365	0.06
692.687	0.06
693.009	0.06
693.331	0.06
693.653	0.06
693.974	0.06
694.296	0.06
694.618	0.05
694.939	0.05
695.261	0.06
695.582	0.05
695.904	0.05
696.225	0.05
696.546	0.06
696.868	0.05
697.189	0.05
697.51	0.05
697.831	0.05
698.152	0.05
698.473	0.05
698.794	0.04
699.114	0.04
699.435	0.03
699.756	0.03
700.077	0.04
700.397	0.04
700.718	0.04
701.038	0.04
701.359	0.04
701.679	0.04
701.999	0.05
702.32	0.04
702.64	0.04
702.96	0.04
703.28	0.04
703.6	0.04
703.92	0.04
704.24	0.04
704.56	0.03
704.879	0.03
705.199	0.04
705.519	0.04
705.838	0.04
706.158	0.04
706.478	0.04
706.797	0.04
707.116	0.04
707.436	0.04
707.755	0.04
708.074	0.04
708.393	0.04
708.712	0.03
709.031	0.02
709.35	0.02
709.669	0.02
709.988	0.02
710.307	0.02
710.626	0.02
710.944	0.03
711.263	0.03
711.582	0.03
711.9	0.03
712.219	0.03
712.537	0.03
712.855	0.03
713.174	0.03
713.492	0.03
713.81	0.04
714.128	0.03
714.446	0.04
714.764	0.03
715.082	0.02
715.4	0.03
715.718	0.03
716.035	0.03
716.353	0.03
716.671	0.03
716.988	0.03
717.306	0.03
717.623	0.03
717.941	0.04
718.258	0.04
718.575	0.04
718.893	0.04
719.21	0.04
719.527	0.04
719.844	0.04
720.161	0.04
720.478	0.04
720.795	0.03
721.112	0.04
721.428	0.04
721.745	0.04
722.062	0.04
722.378	0.04
722.695	0.04
723.011	0.04
723.328	0.04
723.644	0.04
723.96	0.04
724.276	0.04
724.593	0.04
724.909	0.04
725.225	0.04
725.541	0.04
725.857	0.04
726.173	0.04
726.488	0.05
726.804	0.04
727.12	0.04
727.435	0.04
727.751	0.05
728.067	0.04
728.382	0.05
728.697	0.05
729.013	0.05
729.328	0.04
729.643	0.05
729.958	0.04
730.273	0.05
730.588	0.04
730.903	0.04
731.218	0.04
731.533	0.05
731.848	0.04
732.163	0.04
732.477	0.04
732.792	0.04
733.107	0.03
733.421	0.04
733.736	0.04
734.05	0.04
734.364	0.04
734.678	0.04
734.993	0.04
735.307	0.04
735.621	0.04
735.935	0.04
736.249	0.04
736.563	0.04
736.877	0.04
737.19	0.04
737.504	0.04
737.818	0.04
738.131	0.04
738.445	0.04
738.758	0.04
739.072	0.04
739.385	0.04
739.698	0.04
740.012	0.04
740.325	0.04
740.638	0.04
740.951	0.04
741.264	0.04
741.577	0.04
741.89	0.04
742.203	0.04
742.515	0.04
742.828	0.04
743.141	0.04
743.453	0.04
743.766	0.03
744.078	0.03
744.391	0.03
744.703	0.03
745.015	0.03
745.327	0.03
745.639	0.03
745.952	0.03
746.264	0.03
746.575	0.03
746.887	0.03
747.199	0.03
747.511	0.03
747.823	0.03
748.134	0.03
748.446	0.03
748.757	0.03
749.069	0.03
749.38	0.03
749.692	0.03
750.003	0.03
750.314	0.03
750.625	0.03
750.936	0.03
751.248	0.03
751.559	0.03
751.869	0.03
752.18	0.03
752.491	0.02
752.802	0.03
753.112	0.03
753.423	0.03
753.734	0.02
754.044	0.02
754.355	0.03
754.665	0.02
754.975	0.02
755.285	0.03
755.596	0.02
755.906	0.02
756.216	0.02
756.526	0.02
756.836	0.02
757.146	0.02
757.455	0.02
757.765	0.02
758.075	0.02
758.385	0.02
758.694	0.02
759.004	0.02
759.313	0.01
759.622	0.02
759.932	0.02
760.241	0.01
760.55	0.01
760.859	0.01
761.168	0.01
761.477	0.01
761.786	0.01
762.095	0.01
762.404	0.01
762.713	0.01
763.021	0.01
763.33	0.01
763.639	0.01
763.947	0.01
764.256	0.01
764.564	0.01
764.872	0.01
765.181	0.01
765.489	0.01
765.797	0.01
766.105	0.01
766.413	0.01
766.721	0.01
767.029	0.01
767.337	0.01
767.644	0.01
767.952	0.01
768.26	0.01
768.567	0.02
768.875	0.02
769.182	0.02
769.49	0.01
769.797	0.01
770.104	0.01
770.411	0.01
770.718	0.01
771.026	0.01
771.333	0.01
771.639	0.01
771.946	0.01
772.253	0.01
772.56	0.01
772.867	0.01
773.173	0.01
773.48	0.01
773.786	0.01
774.093	0.01
774.399	0.01
774.705	0.01
775.012	0.01
775.318	0.01
775.624	0.01
775.93	0.01
776.236	0.01
776.542	0.01
776.848	0.02
777.154	0.02
777.459	0.01
777.765	0.02
778.071	0.02
778.376	0.01
778.682	0.02
778.987	0.01
779.292	0.01
779.598	0.01
779.903	0.01
780.208	0.01
780.513	0.01
780.818	0.01
781.123	0.01
781.428	0.01
781.733	0.01
782.038	0.01
782.343	0.01
782.647	0.02
782.952	0.01
783.256	0.01
783.561	0.01
783.865	0.01
784.17	0.01
784.474	0.01
784.778	0.01
785.082	0.01
785.386	0.02
785.69	0.02
785.994	0.02
786.298	0.02
786.602	0.02
786.906	0.02
787.209	0.02
787.513	0.02
787.817	0.02
788.12	0.02
788.424	0.02
788.727	0.02
789.03	0.01
789.333	0.02
789.637	0.02
789.94	0.02
790.243	0.02
790.546	0.02
790.849	0.02
791.152	0.02
791.454	0.02
791.757	0.02
792.06	0.02
792.362	0.02
792.665	0.02
792.967	0.02
793.27	0.02
793.572	0.02
793.874	0.02
794.177	0.02
794.479	0.02
794.781	0.02
795.083	0.02
795.385	0.02
795.687	0.02
795.989	0.02
796.29	0.02
796.592	0.02
796.894	0.02
797.195	0.02
797.497	0.02
797.798	0.02
798.1	0.02
798.401	0.01
798.702	0.02
799.003	0.01
799.304	0.02
799.605	0.01
799.906	0.01
800.207	0.01
800.508	0.01
800.809	0.01
801.11	0.01
801.41	0.01
801.711	0.01
802.011	0
802.312	0.01
802.612	0.01
802.913	0.02
803.213	0.02
803.513	0.02
803.813	0.02
804.113	0.03
804.413	0.03
804.713	0.02
805.013	0.02
805.313	0.03
805.613	0.03
805.912	0.02
806.212	0.03
806.511	0.02
806.811	0.03
807.11	0.02
807.41	0.03
807.709	0.03
808.008	0.02
808.307	0.02
808.606	0.02
808.905	0.02
809.204	0.03
809.503	0.02
809.802	0.02
810.101	0.02
810.399	0.03
810.698	0.03
810.997	0.02
811.295	0.02
811.593	0.02
811.892	0.02
812.19	0.02
812.488	0.03
812.786	0.03
813.084	0.02
813.383	0.02
813.68	0.03
813.978	0.03
814.276	0.03
814.574	0.03
814.872	0.03
815.169	0.03
815.467	0.03
815.764	0.03
816.062	0.03
816.359	0.03
816.656	0.03
816.954	0.03
817.251	0.03
817.548	0.02
817.845	0.03
818.142	0.03
818.439	0.03
818.735	0.03
819.032	0.03
819.329	0.02
819.626	0.03
819.922	0.02
820.219	0.03
820.515	0.02
820.811	0.02
821.108	0.02
821.404	0.02
821.7	0.03
821.996	0.02
822.292	0.02
822.588	0.03
822.884	0.03
823.18	0.03
823.475	0.03
823.771	0.02
824.067	0.03
824.362	0.02
824.658	0.03
824.953	0.03
825.249	0.02
825.544	0.02
825.839	0.02
826.134	0.03
826.429	0.02
826.724	0.02
827.019	0.02
827.314	0.03
827.609	0.03
827.904	0.03
828.198	0.03
828.493	0.03
828.787	0.03
829.082	0.03
829.376	0.03
829.671	0.03
829.965	0.03
830.259	0.03
830.553	0.03
830.847	0.03
831.141	0.03
831.435	0.03
831.729	0.03
832.023	0.04
832.317	0.03
832.61	0.03
832.904	0.03
833.197	0.04
833.491	0.03
833.784	0.03
834.077	0.04
834.371	0.04
834.664	0.04
834.957	0.03
835.25	0.04
835.543	0.04
835.836	0.04
836.129	0.03
836.421	0.03
836.714	0.03
837.007	0.03
837.299	0.03
837.592	0.03
837.884	0.03
838.177	0.04
838.469	0.03
838.761	0.03
839.053	0.03
839.345	0.04
839.637	0.03
839.929	0.04
840.221	0.03
840.513	0.03
840.805	0.03
841.096	0.04
841.388	0.03
841.68	0.04
841.971	0.04
842.262	0.04
842.554	0.03
842.845	0.03
843.136	0.04
843.427	0.03
843.718	0.03
844.009	0.03
844.3	0.04
844.591	0.03
844.882	0.04
845.173	0.04
845.463	0.04
845.754	0.04
846.044	0.04
846.335	0.04
846.625	0.03
846.915	0.05
847.206	0.05
847.496	0.05
847.786	0.05
848.076	0.04
848.366	0.05
848.656	0.05
848.945	0.04
849.235	0.05
849.525	0.05
849.814	0.05
850.104	0.05
850.393	0.04
850.683	0.04
850.972	0.05
851.261	0.04
851.551	0.04
851.84	0.04
852.129	0.04
852.418	0.03
852.707	0.03
852.995	0.04
853.284	0.04
853.573	0.05
853.862	0.04
854.15	0.05
854.439	0.04
854.727	0.05
855.015	0.05
855.304	0.05
855.592	0.05
855.88	0.05
856.168	0.06
856.456	0.06
856.744	0.03
857.032	0.05
857.32	0.05
857.607	0.05
857.895	0.03
858.183	0.05
858.47	0.05
858.757	0.05
859.045	0.06
859.332	0.04
859.619	0.04
859.907	0.04
860.194	0.06
860.481	0.04
860.768	0.04
861.054	0.05
861.341	0.04
861.628	0.05
861.915	0.03
862.201	0.04
862.488	0.03
862.774	0.05
863.061	0.03
863.347	0.05
863.633	0.04
863.919	0.03
864.205	0.04
864.491	0.04
864.777	0.05
865.063	0.06
865.349	0.05
865.635	0.05
865.92	0.07
866.206	0.05
866.492	0.05
866.777	0.05
867.062	0.03
867.348	0.05
867.633	0.05
867.918	0.04
868.203	0.07
868.488	0.06
868.773	0.06
869.058	0.03
869.343	0.05
869.628	0.04
869.912	0.05
870.197	0.01
870.482	0
870.766	0.04
871.05	0.03
871.335	0.03
871.619	0.03
871.903	0.06
872.187	0.03
872.471	0.03
872.755	0.02
873.039	0
873.323	0.03
873.607	0.06
873.89	0.01
874.174	0.04
874.458	0.04
874.741	0.04
875.024	0.04
875.308	0.04
875.591	0.01
875.874	-0
876.157	-0.01
876.44	0.07
876.723	0.05
877.006	0.06
877.289	0.04
877.572	0.01
877.854	0.09
878.137	0.05
878.42	-0.01
878.702	0.02
878.984	0.07
879.267	-0.02
879.549	0.08
879.831	0.02
880.113	0
880.395	0.01
880.677	-0.07
880.959	-0.01
