Data from Rubpy_BV_1200_EDTA_Buffered_Absorbance_13-59-12-077.txt Node
Date: Wed Jul 01 13:59:12 BST 2026
User: fpm-admin
Spectrometer: OFX00224
Trigger mode: 0
Integration Time (sec): 7.000000E-2
Scans to average: 3
Nonlinearity correction enabled: false
Boxcar width: 0
Storing dark spectrum: false
XAxis mode: Wavelengths
Number of Pixels in Spectrum: 2136
>>>>>Begin Spectral Data<<<<<
154.91	-0
155.289	-0
155.669	0.13
156.048	-0.88
156.428	-0
156.807	-0.03
157.186	-0
157.566	-0.35
157.945	0.1
158.325	0.04
158.704	-1.12
159.083	-0
159.462	-0
159.842	-0.32
160.221	-0
160.6	0.38
160.979	-0
161.359	-0
161.738	-0.39
162.117	-0
162.496	-0
162.875	-0
163.254	0.2
163.633	-0.03
164.012	-0
164.391	0.12
164.77	-0.11
165.149	0.36
165.528	-0
165.907	-0
166.286	-0.06
166.665	-0.12
167.044	-1.13
167.423	-0.02
167.802	-0.61
168.181	-0.18
168.559	-0.02
168.938	-0.05
169.317	0.09
169.696	-0
170.074	-0.56
170.453	-0
170.832	-0.23
171.21	-0.27
171.589	-0
171.968	-0
172.346	-0
172.725	-0
173.103	0.6
173.482	0.01
173.861	-0.46
174.239	-0.47
174.617	-0
174.996	0.09
175.374	-0
175.753	-0.18
176.131	-0.95
176.51	1.06
176.888	-0
177.266	-0
177.645	0.11
178.023	0.37
178.401	-0.17
178.779	-0
179.158	-0.88
179.536	-0
179.914	-0
180.292	-0.45
180.67	-0.13
181.048	-0
181.427	-0
181.805	0.23
182.183	-0
182.561	-0
182.939	0.46
183.317	-0.6
183.695	0.18
184.073	-0
184.451	0.3
184.829	0.22
185.206	-0.39
185.584	-0
185.962	-0
186.34	-0.52
186.718	-0
187.096	0.9
187.473	-0.61
187.851	-0.02
188.229	-0
188.607	0.12
188.984	0.28
189.362	0.25
189.74	0.3
190.117	0.23
190.495	0.2
190.872	0.24
191.25	0.23
191.627	0.11
192.005	0.2
192.382	0.27
192.76	0.37
193.137	0.32
193.515	0.14
193.892	0.09
194.269	0.24
194.647	0.28
195.024	0.16
195.401	0.13
195.779	0.24
196.156	0.3
196.533	0.29
196.91	0.13
197.288	0.15
197.665	0.17
198.042	0.2
198.419	0.3
198.796	0.11
199.173	0.18
199.55	0.29
199.927	0.19
200.304	0.14
200.681	0.28
201.058	0.18
201.435	0.09
201.812	0.23
202.189	0.17
202.566	0.31
202.943	0.29
203.32	0.23
203.697	0.26
204.073	0.2
204.45	0.2
204.827	0.23
205.204	0.3
205.58	0.21
205.957	0.23
206.334	0.27
206.71	0.32
207.087	0.23
207.464	0.25
207.84	0.27
208.217	0.19
208.593	0.2
208.97	0.22
209.346	0.27
209.723	0.35
210.099	0.12
210.476	0.2
210.852	0.34
211.228	0.15
211.605	0.21
211.981	0.31
212.357	0.12
212.733	0.2
213.11	0.26
213.486	0.16
213.862	0.25
214.238	0.24
214.614	0.38
214.991	0.25
215.367	0.29
215.743	0.22
216.119	0.25
216.495	0.25
216.871	0.43
217.247	0.34
217.623	0.38
217.999	0.32
218.375	0.2
218.751	0.11
219.127	0.24
219.502	0.28
219.878	0.2
220.254	0.36
220.63	0.28
221.006	0.23
221.381	0.25
221.757	0.28
222.133	0.25
222.508	0.25
222.884	0.33
223.26	0.27
223.635	0.23
224.011	0.27
224.386	0.28
224.762	0.28
225.137	0.34
225.513	0.2
225.888	0.29
226.264	0.27
226.639	0.27
227.014	0.25
227.39	0.24
227.765	0.38
228.14	0.34
228.516	0.36
228.891	0.23
229.266	0.32
229.641	0.28
230.017	0.31
230.392	0.26
230.767	0.3
231.142	0.21
231.517	0.32
231.892	0.2
232.267	0.22
232.642	0.41
233.017	0.2
233.392	0.26
233.767	0.27
234.142	0.28
234.517	0.21
234.892	0.22
235.267	0.27
235.641	0.3
236.016	0.3
236.391	0.24
236.766	0.23
237.14	0.25
237.515	0.26
237.89	0.18
238.264	0.28
238.639	0.27
239.014	0.23
239.388	0.28
239.763	0.3
240.137	0.25
240.512	0.24
240.886	0.25
241.261	0.23
241.635	0.23
242.009	0.23
242.384	0.27
242.758	0.32
243.132	0.28
243.507	0.29
243.881	0.28
244.255	0.2
244.629	0.24
245.004	0.2
245.378	0.25
245.752	0.19
246.126	0.24
246.5	0.27
246.874	0.31
247.248	0.23
247.622	0.19
247.996	0.16
248.37	0.21
248.744	0.21
249.118	0.4
249.492	0.23
249.866	0.27
250.24	0.19
250.613	0.19
250.987	0.27
251.361	0.27
251.735	0.26
252.108	0.2
252.482	0.2
252.856	0.16
253.229	0.19
253.603	0.26
253.977	0.18
254.35	0.28
254.724	0.29
255.097	0.26
255.471	0.37
255.844	0.25
256.218	0.29
256.591	0.17
256.964	0.21
257.338	0.36
257.711	0.4
258.084	0.31
258.458	0.21
258.831	0.25
259.204	0.23
259.577	0.27
259.95	0.29
260.323	0.27
260.697	0.21
261.07	0.32
261.443	0.34
261.816	0.23
262.189	0.28
262.562	0.25
262.935	0.25
263.308	0.26
263.68	0.3
264.053	0.24
264.426	0.34
264.799	0.29
265.172	0.23
265.545	0.28
265.917	0.19
266.29	0.32
266.663	0.28
267.035	0.33
267.408	0.38
267.781	0.3
268.153	0.32
268.526	0.3
268.898	0.22
269.271	0.29
269.643	0.25
270.016	0.28
270.388	0.22
270.76	0.16
271.133	0.34
271.505	0.27
271.877	0.34
272.25	0.28
272.622	0.22
272.994	0.36
273.366	0.18
273.739	0.32
274.111	0.21
274.483	0.39
274.855	0.35
275.227	0.29
275.599	0.23
275.971	0.22
276.343	0.3
276.715	0.22
277.087	0.39
277.459	0.18
277.831	0.29
278.203	0.3
278.574	0.21
278.946	0.27
279.318	0.28
279.69	0.33
280.061	0.3
280.433	0.32
280.805	0.23
281.176	0.21
281.548	0.25
281.92	0.2
282.291	0.37
282.663	0.24
283.034	0.23
283.406	0.28
283.777	0.3
284.148	0.24
284.52	0.2
284.891	0.24
285.262	0.26
285.634	0.32
286.005	0.25
286.376	0.3
286.747	0.26
287.119	0.3
287.49	0.25
287.861	0.25
288.232	0.27
288.603	0.18
288.974	0.34
289.345	0.26
289.716	0.23
290.087	0.31
290.458	0.28
290.829	0.33
291.2	0.26
291.571	0.29
291.941	0.29
292.312	0.25
292.683	0.22
293.054	0.29
293.424	0.34
293.795	0.25
294.166	0.27
294.536	0.2
294.907	0.23
295.277	0.3
295.648	0.22
296.018	0.27
296.389	0.3
296.759	0.22
297.13	0.24
297.5	0.33
297.871	0.32
298.241	0.25
298.611	0.28
298.981	0.29
299.352	0.3
299.722	0.28
300.092	0.27
300.462	0.37
300.832	0.3
301.202	0.25
301.573	0.28
301.943	0.3
302.313	0.25
302.683	0.27
303.053	0.25
303.422	0.26
303.792	0.22
304.162	0.21
304.532	0.2
304.902	0.27
305.272	0.2
305.641	0.16
306.011	0.23
306.381	0.19
306.75	0.2
307.12	0.21
307.49	0.18
307.859	0.18
308.229	0.2
308.598	0.2
308.968	0.19
309.337	0.18
309.707	0.21
310.076	0.19
310.445	0.17
310.815	0.18
311.184	0.17
311.553	0.19
311.923	0.2
312.292	0.2
312.661	0.19
313.03	0.21
313.399	0.22
313.768	0.21
314.137	0.21
314.506	0.22
314.875	0.22
315.244	0.23
315.613	0.22
315.982	0.24
316.351	0.24
316.72	0.23
317.089	0.24
317.458	0.24
317.826	0.25
318.195	0.25
318.564	0.26
318.933	0.26
319.301	0.26
319.67	0.27
320.038	0.27
320.407	0.27
320.775	0.29
321.144	0.28
321.512	0.29
321.881	0.29
322.249	0.3
322.618	0.31
322.986	0.31
323.354	0.3
323.723	0.31
324.091	0.31
324.459	0.33
324.827	0.32
325.195	0.32
325.564	0.34
325.932	0.35
326.3	0.35
326.668	0.35
327.036	0.36
327.404	0.36
327.772	0.37
328.14	0.37
328.508	0.39
328.875	0.38
329.243	0.39
329.611	0.39
329.979	0.39
330.346	0.4
330.714	0.42
331.082	0.42
331.449	0.42
331.817	0.42
332.185	0.44
332.552	0.45
332.92	0.46
333.287	0.46
333.655	0.48
334.022	0.48
334.389	0.49
334.757	0.5
335.124	0.5
335.491	0.52
335.859	0.52
336.226	0.54
336.593	0.55
336.96	0.56
337.327	0.57
337.695	0.58
338.062	0.59
338.429	0.59
338.796	0.61
339.163	0.62
339.53	0.63
339.897	0.64
340.263	0.66
340.63	0.66
340.997	0.67
341.364	0.68
341.731	0.71
342.097	0.71
342.464	0.72
342.831	0.74
343.197	0.74
343.564	0.76
343.931	0.77
344.297	0.78
344.664	0.8
345.03	0.8
345.396	0.81
345.763	0.83
346.129	0.84
346.496	0.86
346.862	0.86
347.228	0.88
347.594	0.89
347.961	0.9
348.327	0.9
348.693	0.91
349.059	0.94
349.425	0.94
349.791	0.96
350.157	0.96
350.523	0.98
350.889	1
351.255	1
351.621	1.01
351.987	1.02
352.353	1.03
352.719	1.04
353.084	1.05
353.45	1.06
353.816	1.07
354.181	1.09
354.547	1.1
354.913	1.11
355.278	1.12
355.644	1.14
356.009	1.15
356.375	1.16
356.74	1.17
357.106	1.2
357.471	1.21
357.836	1.22
358.202	1.24
358.567	1.26
358.932	1.25
359.297	1.28
359.663	1.3
360.028	1.31
360.393	1.33
360.758	1.35
361.123	1.37
361.488	1.4
361.853	1.4
362.218	1.42
362.583	1.45
362.948	1.47
363.312	1.46
363.677	1.48
364.042	1.49
364.407	1.49
364.772	1.5
365.136	1.52
365.501	1.54
365.865	1.53
366.23	1.58
366.595	1.56
366.959	1.58
367.324	1.59
367.688	1.59
368.052	1.63
368.417	1.61
368.781	1.62
369.145	1.63
369.51	1.64
369.874	1.65
370.238	1.63
370.602	1.66
370.967	1.66
371.331	1.68
371.695	1.67
372.059	1.67
372.423	1.68
372.787	1.66
373.151	1.68
373.515	1.69
373.878	1.7
374.242	1.69
374.606	1.66
374.97	1.67
375.334	1.66
375.697	1.63
376.061	1.59
376.425	1.63
376.788	1.61
377.152	1.59
377.515	1.58
377.879	1.57
378.242	1.55
378.606	1.52
378.969	1.53
379.333	1.48
379.696	1.48
380.059	1.45
380.422	1.48
380.786	1.44
381.149	1.43
381.512	1.4
381.875	1.4
382.238	1.39
382.601	1.36
382.964	1.35
383.327	1.33
383.69	1.33
384.053	1.32
384.416	1.29
384.779	1.28
385.142	1.27
385.504	1.26
385.867	1.27
386.23	1.25
386.593	1.24
386.955	1.24
387.318	1.24
387.68	1.21
388.043	1.22
388.405	1.23
388.768	1.22
389.13	1.2
389.493	1.2
389.855	1.2
390.217	1.18
390.58	1.18
390.942	1.16
391.304	1.16
391.666	1.14
392.028	1.11
392.391	1.11
392.753	1.09
393.115	1.07
393.477	1.06
393.839	1.07
394.201	1.06
394.563	1.04
394.924	1.03
395.286	1.04
395.648	1.04
396.01	1.03
396.371	1.06
396.733	1.06
397.095	1.08
397.456	1.09
397.818	1.11
398.18	1.13
398.541	1.15
398.903	1.19
399.264	1.22
399.625	1.23
399.987	1.25
400.348	1.27
400.709	1.3
401.071	1.3
401.432	1.3
401.793	1.3
402.154	1.29
402.515	1.26
402.876	1.26
403.238	1.24
403.599	1.21
403.96	1.16
404.32	1.14
404.681	1.1
405.042	1.05
405.403	1
405.764	0.97
406.125	0.92
406.485	0.88
406.846	0.83
407.207	0.79
407.567	0.75
407.928	0.72
408.288	0.67
408.649	0.63
409.009	0.6
409.37	0.57
409.73	0.53
410.091	0.51
410.451	0.48
410.811	0.46
411.171	0.44
411.532	0.42
411.892	0.39
412.252	0.38
412.612	0.36
412.972	0.35
413.332	0.33
413.692	0.32
414.052	0.31
414.412	0.29
414.772	0.28
415.132	0.27
415.492	0.26
415.851	0.26
416.211	0.25
416.571	0.23
416.931	0.23
417.29	0.22
417.65	0.22
418.009	0.21
418.369	0.21
418.728	0.21
419.088	0.19
419.447	0.2
419.807	0.19
420.166	0.18
420.525	0.18
420.884	0.17
421.244	0.17
421.603	0.17
421.962	0.17
422.321	0.16
422.68	0.16
423.039	0.16
423.398	0.16
423.757	0.15
424.116	0.15
424.475	0.15
424.834	0.15
425.193	0.15
425.551	0.15
425.91	0.14
426.269	0.14
426.628	0.14
426.986	0.14
427.345	0.14
427.703	0.14
428.062	0.14
428.42	0.14
428.779	0.13
429.137	0.13
429.496	0.14
429.854	0.13
430.212	0.13
430.57	0.13
430.929	0.13
431.287	0.13
431.645	0.12
432.003	0.13
432.361	0.13
432.719	0.13
433.077	0.13
433.435	0.13
433.793	0.13
434.151	0.12
434.509	0.12
434.866	0.13
435.224	0.12
435.582	0.12
435.94	0.12
436.297	0.12
436.655	0.12
437.012	0.13
437.37	0.13
437.727	0.13
438.085	0.12
438.442	0.12
438.8	0.11
439.157	0.12
439.514	0.12
439.872	0.12
440.229	0.12
440.586	0.13
440.943	0.13
441.3	0.12
441.657	0.12
442.014	0.12
442.371	0.13
442.728	0.12
443.085	0.12
443.442	0.13
443.799	0.13
444.156	0.13
444.513	0.13
444.869	0.12
445.226	0.13
445.583	0.12
445.939	0.13
446.296	0.13
446.652	0.13
447.009	0.12
447.365	0.13
447.722	0.13
448.078	0.12
448.434	0.13
448.791	0.13
449.147	0.13
449.503	0.14
449.859	0.14
450.215	0.13
450.571	0.12
450.928	0.13
451.284	0.14
451.64	0.13
451.995	0.14
452.351	0.12
452.707	0.14
453.063	0.13
453.419	0.13
453.775	0.13
454.13	0.12
454.486	0.13
454.842	0.14
455.197	0.13
455.553	0.13
455.908	0.12
456.264	0.12
456.619	0.11
456.975	0.12
457.33	0.12
457.685	0.12
458.04	0.12
458.396	0.11
458.751	0.13
459.106	0.12
459.461	0.11
459.816	0.11
460.171	0.11
460.526	0.12
460.881	0.1
461.236	0.1
461.591	0.1
461.946	0.1
462.301	0.1
462.655	0.09
463.01	0.1
463.365	0.09
463.719	0.08
464.074	0.08
464.428	0.08
464.783	0.08
465.137	0.07
465.492	0.08
465.846	0.09
466.201	0.08
466.555	0.08
466.909	0.09
467.263	0.09
467.618	0.09
467.972	0.09
468.326	0.1
468.68	0.09
469.034	0.09
469.388	0.08
469.742	0.09
470.096	0.09
470.45	0.09
470.804	0.09
471.157	0.09
471.511	0.1
471.865	0.09
472.218	0.11
472.572	0.11
472.926	0.11
473.279	0.12
473.633	0.13
473.986	0.13
474.34	0.14
474.693	0.15
475.046	0.17
475.4	0.16
475.753	0.17
476.106	0.18
476.459	0.19
476.812	0.19
477.165	0.2
477.519	0.21
477.872	0.21
478.224	0.22
478.577	0.23
478.93	0.23
479.283	0.24
479.636	0.24
479.989	0.25
480.341	0.25
480.694	0.26
481.047	0.26
481.399	0.27
481.752	0.28
482.104	0.29
482.457	0.3
482.809	0.3
483.162	0.3
483.514	0.31
483.866	0.31
484.219	0.31
484.571	0.32
484.923	0.32
485.275	0.32
485.627	0.33
485.979	0.34
486.331	0.34
486.683	0.35
487.035	0.35
487.387	0.36
487.739	0.36
488.091	0.37
488.443	0.37
488.794	0.38
489.146	0.38
489.498	0.38
489.849	0.38
490.201	0.38
490.552	0.38
490.904	0.39
491.255	0.4
491.607	0.4
491.958	0.4
492.309	0.41
492.661	0.41
493.012	0.42
493.363	0.42
493.714	0.42
494.065	0.43
494.416	0.43
494.767	0.43
495.118	0.43
495.469	0.44
495.82	0.45
496.171	0.45
496.522	0.45
496.872	0.46
497.223	0.46
497.574	0.47
497.924	0.47
498.275	0.47
498.626	0.48
498.976	0.48
499.327	0.49
499.677	0.49
500.027	0.49
500.378	0.5
500.728	0.5
501.078	0.51
501.428	0.51
501.779	0.51
502.129	0.51
502.479	0.52
502.829	0.52
503.179	0.53
503.529	0.53
503.879	0.54
504.229	0.53
504.578	0.54
504.928	0.55
505.278	0.55
505.628	0.55
505.977	0.56
506.327	0.55
506.676	0.57
507.026	0.56
507.375	0.57
507.725	0.57
508.074	0.58
508.424	0.57
508.773	0.58
509.122	0.59
509.471	0.59
509.82	0.59
510.17	0.6
510.519	0.59
510.868	0.6
511.217	0.61
511.566	0.6
511.915	0.61
512.263	0.61
512.612	0.62
512.961	0.62
513.31	0.62
513.659	0.63
514.007	0.63
514.356	0.64
514.704	0.64
515.053	0.64
515.401	0.65
515.75	0.65
516.098	0.65
516.447	0.66
516.795	0.66
517.143	0.66
517.491	0.66
517.839	0.66
518.188	0.66
518.536	0.67
518.884	0.67
519.232	0.67
519.58	0.67
519.928	0.68
520.275	0.68
520.623	0.68
520.971	0.68
521.319	0.69
521.666	0.69
522.014	0.69
522.362	0.7
522.709	0.7
523.057	0.7
523.404	0.71
523.752	0.7
524.099	0.7
524.446	0.71
524.794	0.71
525.141	0.71
525.488	0.72
525.835	0.72
526.182	0.72
526.529	0.72
526.876	0.73
527.223	0.73
527.57	0.73
527.917	0.72
528.264	0.73
528.611	0.73
528.958	0.74
529.304	0.73
529.651	0.74
529.998	0.74
530.344	0.74
530.691	0.74
531.037	0.75
531.384	0.75
531.73	0.75
532.076	0.75
532.423	0.75
532.769	0.75
533.115	0.76
533.461	0.76
533.807	0.76
534.154	0.76
534.5	0.76
534.846	0.76
535.192	0.77
535.537	0.78
535.883	0.77
536.229	0.77
536.575	0.78
536.921	0.78
537.266	0.78
537.612	0.79
537.957	0.78
538.303	0.78
538.649	0.78
538.994	0.78
539.339	0.79
539.685	0.78
540.03	0.79
540.375	0.79
540.721	0.79
541.066	0.79
541.411	0.79
541.756	0.79
542.101	0.8
542.446	0.8
542.791	0.8
543.136	0.79
543.481	0.8
543.825	0.8
544.17	0.8
544.515	0.8
544.86	0.8
545.204	0.81
545.549	0.81
545.893	0.81
546.238	0.8
546.582	0.81
546.927	0.81
547.271	0.81
547.615	0.81
547.96	0.8
548.304	0.81
548.648	0.81
548.992	0.81
549.336	0.81
549.68	0.81
550.024	0.82
550.368	0.81
550.712	0.82
551.056	0.82
551.4	0.82
551.743	0.81
552.087	0.82
552.431	0.82
552.774	0.81
553.118	0.81
553.462	0.81
553.805	0.82
554.148	0.81
554.492	0.81
554.835	0.81
555.178	0.81
555.522	0.81
555.865	0.81
556.208	0.81
556.551	0.81
556.894	0.81
557.237	0.81
557.58	0.81
557.923	0.81
558.266	0.81
558.609	0.8
558.952	0.8
559.294	0.8
559.637	0.81
559.98	0.8
560.322	0.8
560.665	0.8
561.007	0.8
561.35	0.8
561.692	0.8
562.034	0.8
562.377	0.8
562.719	0.8
563.061	0.79
563.403	0.8
563.745	0.79
564.088	0.8
564.43	0.79
564.772	0.8
565.113	0.79
565.455	0.79
565.797	0.79
566.139	0.78
566.481	0.79
566.822	0.79
567.164	0.79
567.506	0.78
567.847	0.78
568.189	0.78
568.53	0.78
568.872	0.78
569.213	0.78
569.554	0.78
569.895	0.78
570.237	0.78
570.578	0.78
570.919	0.77
571.26	0.77
571.601	0.77
571.942	0.77
572.283	0.77
572.624	0.77
572.965	0.76
573.306	0.76
573.646	0.75
573.987	0.76
574.328	0.75
574.668	0.76
575.009	0.75
575.349	0.75
575.69	0.75
576.03	0.75
576.37	0.74
576.711	0.74
577.051	0.74
577.391	0.74
577.731	0.74
578.072	0.74
578.412	0.73
578.752	0.73
579.092	0.73
579.431	0.71
579.771	0.7
580.111	0.68
580.451	0.69
580.791	0.71
581.13	0.72
581.47	0.72
581.81	0.72
582.149	0.71
582.489	0.72
582.828	0.71
583.167	0.68
583.507	0.64
583.846	0.63
584.185	0.65
584.525	0.67
584.864	0.7
585.203	0.71
585.542	0.71
585.881	0.71
586.22	0.71
586.559	0.7
586.898	0.69
587.236	0.68
587.575	0.67
587.914	0.68
588.252	0.69
588.591	0.7
588.93	0.7
589.268	0.69
589.607	0.7
589.945	0.7
590.283	0.69
590.622	0.7
590.96	0.7
591.298	0.7
591.636	0.71
591.974	0.7
592.313	0.7
592.651	0.7
592.989	0.7
593.326	0.7
593.664	0.7
594.002	0.7
594.34	0.7
594.678	0.69
595.015	0.69
595.353	0.68
595.691	0.69
596.028	0.69
596.366	0.7
596.703	0.69
597.04	0.7
597.378	0.7
597.715	0.7
598.052	0.7
598.389	0.7
598.726	0.7
599.064	0.69
599.401	0.69
599.738	0.7
600.074	0.69
600.411	0.69
600.748	0.69
601.085	0.68
601.422	0.68
601.758	0.68
602.095	0.68
602.432	0.68
602.768	0.68
603.105	0.68
603.441	0.69
603.777	0.68
604.114	0.68
604.45	0.68
604.786	0.68
605.122	0.68
605.459	0.67
605.795	0.67
606.131	0.67
606.467	0.67
606.803	0.67
607.139	0.67
607.474	0.66
607.81	0.66
608.146	0.66
608.482	0.66
608.817	0.66
609.153	0.66
609.488	0.65
609.824	0.65
610.159	0.65
610.495	0.65
610.83	0.65
611.165	0.65
611.5	0.64
611.836	0.64
612.171	0.65
612.506	0.64
612.841	0.64
613.176	0.64
613.511	0.64
613.845	0.64
614.18	0.64
614.515	0.64
614.85	0.63
615.184	0.63
615.519	0.62
615.854	0.62
616.188	0.62
616.523	0.62
616.857	0.61
617.191	0.61
617.526	0.61
617.86	0.61
618.194	0.61
618.528	0.61
618.862	0.6
619.196	0.6
619.53	0.6
619.864	0.6
620.198	0.6
620.532	0.6
620.866	0.6
621.2	0.59
621.533	0.59
621.867	0.59
622.201	0.58
622.534	0.58
622.868	0.58
623.201	0.57
623.534	0.57
623.868	0.57
624.201	0.57
624.534	0.57
624.868	0.56
625.201	0.56
625.534	0.56
625.867	0.55
626.2	0.55
626.533	0.55
626.865	0.55
627.198	0.55
627.531	0.55
627.864	0.54
628.196	0.54
628.529	0.54
628.862	0.54
629.194	0.53
629.527	0.52
629.859	0.52
630.191	0.52
630.524	0.52
630.856	0.52
631.188	0.51
631.52	0.51
631.852	0.51
632.184	0.51
632.516	0.5
632.848	0.5
633.18	0.5
633.512	0.49
633.844	0.49
634.175	0.49
634.507	0.48
634.839	0.48
635.17	0.48
635.502	0.48
635.833	0.47
636.165	0.47
636.496	0.47
636.827	0.46
637.159	0.46
637.49	0.45
637.821	0.45
638.152	0.44
638.483	0.44
638.814	0.44
639.145	0.44
639.476	0.44
639.807	0.43
640.137	0.43
640.468	0.43
640.799	0.43
641.129	0.42
641.46	0.42
641.791	0.41
642.121	0.41
642.451	0.41
642.782	0.41
643.112	0.41
643.442	0.4
643.773	0.4
644.103	0.4
644.433	0.4
644.763	0.39
645.093	0.39
645.423	0.39
645.753	0.39
646.082	0.39
646.412	0.38
646.742	0.38
647.072	0.39
647.401	0.38
647.731	0.38
648.06	0.38
648.39	0.37
648.719	0.37
649.048	0.37
649.378	0.37
649.707	0.36
650.036	0.36
650.365	0.36
650.694	0.36
651.023	0.36
651.352	0.35
651.681	0.35
652.01	0.35
652.339	0.35
652.668	0.36
652.996	0.36
653.325	0.35
653.654	0.35
653.982	0.35
654.311	0.35
654.639	0.35
654.967	0.35
655.296	0.34
655.624	0.34
655.952	0.34
656.28	0.34
656.609	0.34
656.937	0.34
657.265	0.34
657.593	0.22
657.92	0.12
658.248	0.07
658.576	0.09
658.904	0.18
659.231	0.27
659.559	0.32
659.887	0.32
660.214	0.32
660.542	0.32
660.869	0.32
661.196	0.32
661.524	0.32
661.851	0.32
662.178	0.32
662.505	0.32
662.832	0.32
663.159	0.32
663.486	0.32
663.813	0.32
664.14	0.31
664.467	0.31
664.794	0.31
665.12	0.31
665.447	0.31
665.774	0.3
666.1	0.3
666.427	0.3
666.753	0.3
667.079	0.3
667.406	0.3
667.732	0.29
668.058	0.29
668.384	0.29
668.71	0.29
669.036	0.28
669.362	0.29
669.688	0.28
670.014	0.28
670.34	0.28
670.666	0.28
670.991	0.28
671.317	0.27
671.643	0.27
671.968	0.26
672.294	0.26
672.619	0.26
672.945	0.26
673.27	0.26
673.595	0.26
673.92	0.26
674.246	0.25
674.571	0.26
674.896	0.25
675.221	0.25
675.546	0.25
675.87	0.25
676.195	0.24
676.52	0.25
676.845	0.24
677.169	0.23
677.494	0.23
677.819	0.23
678.143	0.23
678.468	0.23
678.792	0.23
679.116	0.22
679.44	0.22
679.765	0.22
680.089	0.22
680.413	0.21
680.737	0.21
681.061	0.21
681.385	0.21
681.709	0.2
682.033	0.2
682.356	0.2
682.68	0.2
683.004	0.2
683.327	0.2
683.651	0.19
683.974	0.19
684.298	0.19
684.621	0.19
684.944	0.18
685.268	0.18
685.591	0.18
685.914	0.17
686.237	0.17
686.56	0.17
686.883	0.17
687.206	0.16
687.529	0.16
687.852	0.16
688.175	0.16
688.497	0.16
688.82	0.16
689.142	0.15
689.465	0.15
689.787	0.15
690.11	0.15
690.432	0.15
690.755	0.15
691.077	0.14
691.399	0.14
691.721	0.14
692.043	0.14
692.365	0.14
692.687	0.14
693.009	0.13
693.331	0.13
693.653	0.13
693.974	0.13
694.296	0.13
694.618	0.12
694.939	0.12
695.261	0.12
695.582	0.12
695.904	0.12
696.225	0.12
696.546	0.12
696.868	0.12
697.189	0.12
697.51	0.11
697.831	0.11
698.152	0.11
698.473	0.11
698.794	0.1
699.114	0.1
699.435	0.09
699.756	0.09
700.077	0.1
700.397	0.1
700.718	0.1
701.038	0.1
701.359	0.1
701.679	0.1
701.999	0.1
702.32	0.1
702.64	0.1
702.96	0.1
703.28	0.1
703.6	0.1
703.92	0.09
704.24	0.09
704.56	0.09
704.879	0.08
705.199	0.09
705.519	0.09
705.838	0.09
706.158	0.09
706.478	0.09
706.797	0.09
707.116	0.09
707.436	0.09
707.755	0.09
708.074	0.09
708.393	0.08
708.712	0.08
709.031	0.07
709.35	0.06
709.669	0.06
709.988	0.06
710.307	0.07
710.626	0.07
710.944	0.08
711.263	0.08
711.582	0.08
711.9	0.08
712.219	0.08
712.537	0.08
712.855	0.08
713.174	0.08
713.492	0.08
713.81	0.08
714.128	0.08
714.446	0.08
714.764	0.08
715.082	0.07
715.4	0.08
715.718	0.07
716.035	0.07
716.353	0.08
716.671	0.08
716.988	0.08
717.306	0.07
717.623	0.08
717.941	0.09
718.258	0.09
718.575	0.09
718.893	0.09
719.21	0.09
719.527	0.09
719.844	0.08
720.161	0.09
720.478	0.08
720.795	0.08
721.112	0.09
721.428	0.09
721.745	0.09
722.062	0.09
722.378	0.09
722.695	0.09
723.011	0.09
723.328	0.09
723.644	0.09
723.96	0.09
724.276	0.09
724.593	0.09
724.909	0.09
725.225	0.09
725.541	0.09
725.857	0.1
726.173	0.1
726.488	0.1
726.804	0.09
727.12	0.1
727.435	0.09
727.751	0.1
728.067	0.09
728.382	0.1
728.697	0.09
729.013	0.1
729.328	0.09
729.643	0.1
729.958	0.1
730.273	0.1
730.588	0.09
730.903	0.1
731.218	0.09
731.533	0.09
731.848	0.09
732.163	0.09
732.477	0.09
732.792	0.09
733.107	0.08
733.421	0.09
733.736	0.09
734.05	0.09
734.364	0.09
734.678	0.09
734.993	0.08
735.307	0.08
735.621	0.08
735.935	0.09
736.249	0.08
736.563	0.09
736.877	0.09
737.19	0.09
737.504	0.09
737.818	0.09
738.131	0.09
738.445	0.09
738.758	0.09
739.072	0.08
739.385	0.08
739.698	0.09
740.012	0.09
740.325	0.08
740.638	0.09
740.951	0.08
741.264	0.08
741.577	0.09
741.89	0.09
742.203	0.09
742.515	0.08
742.828	0.08
743.141	0.08
743.453	0.08
743.766	0.07
744.078	0.07
744.391	0.07
744.703	0.07
745.015	0.07
745.327	0.07
745.639	0.07
745.952	0.07
746.264	0.07
746.575	0.07
746.887	0.07
747.199	0.07
747.511	0.07
747.823	0.06
748.134	0.06
748.446	0.06
748.757	0.06
749.069	0.06
749.38	0.06
749.692	0.06
750.003	0.06
750.314	0.06
750.625	0.06
750.936	0.06
751.248	0.06
751.559	0.06
751.869	0.06
752.18	0.06
752.491	0.06
752.802	0.06
753.112	0.06
753.423	0.06
753.734	0.06
754.044	0.06
754.355	0.06
754.665	0.05
754.975	0.05
755.285	0.05
755.596	0.06
755.906	0.05
756.216	0.05
756.526	0.05
756.836	0.05
757.146	0.05
757.455	0.05
757.765	0.05
758.075	0.05
758.385	0.05
758.694	0.05
759.004	0.04
759.313	0.04
759.622	0.04
759.932	0.04
760.241	0.04
760.55	0.04
760.859	0.04
761.168	0.04
761.477	0.04
761.786	0.04
762.095	0.04
762.404	0.04
762.713	0.04
763.021	0.04
763.33	0.04
763.639	0.04
763.947	0.04
764.256	0.04
764.564	0.04
764.872	0.04
765.181	0.04
765.489	0.04
765.797	0.04
766.105	0.04
766.413	0.03
766.721	0.04
767.029	0.04
767.337	0.04
767.644	0.04
767.952	0.04
768.26	0.04
768.567	0.04
768.875	0.04
769.182	0.04
769.49	0.04
769.797	0.04
770.104	0.04
770.411	0.04
770.718	0.03
771.026	0.04
771.333	0.04
771.639	0.04
771.946	0.04
772.253	0.04
772.56	0.04
772.867	0.04
773.173	0.04
773.48	0.04
773.786	0.04
774.093	0.04
774.399	0.04
774.705	0.04
775.012	0.04
775.318	0.04
775.624	0.04
775.93	0.04
776.236	0.04
776.542	0.04
776.848	0.05
777.154	0.05
777.459	0.04
777.765	0.05
778.071	0.05
778.376	0.04
778.682	0.05
778.987	0.04
779.292	0.05
779.598	0.04
779.903	0.04
780.208	0.04
780.513	0.04
780.818	0.04
781.123	0.04
781.428	0.04
781.733	0.05
782.038	0.04
782.343	0.05
782.647	0.05
782.952	0.05
783.256	0.04
783.561	0.04
783.865	0.04
784.17	0.04
784.474	0.05
784.778	0.05
785.082	0.05
785.386	0.05
785.69	0.05
785.994	0.05
786.298	0.05
786.602	0.05
786.906	0.05
787.209	0.05
787.513	0.05
787.817	0.05
788.12	0.05
788.424	0.05
788.727	0.05
789.03	0.05
789.333	0.05
789.637	0.05
789.94	0.05
790.243	0.05
790.546	0.05
790.849	0.05
791.152	0.05
791.454	0.05
791.757	0.05
792.06	0.05
792.362	0.06
792.665	0.05
792.967	0.05
793.27	0.05
793.572	0.06
793.874	0.06
794.177	0.05
794.479	0.06
794.781	0.06
795.083	0.06
795.385	0.06
795.687	0.06
795.989	0.06
796.29	0.06
796.592	0.06
796.894	0.06
797.195	0.06
797.497	0.06
797.798	0.05
798.1	0.05
798.401	0.05
798.702	0.05
799.003	0.05
799.304	0.05
799.605	0.05
799.906	0.05
800.207	0.05
800.508	0.05
800.809	0.05
801.11	0.05
801.41	0.05
801.711	0.05
802.011	0.04
802.312	0.05
802.612	0.05
802.913	0.06
803.213	0.06
803.513	0.06
803.813	0.06
804.113	0.07
804.413	0.07
804.713	0.06
805.013	0.07
805.313	0.07
805.613	0.07
805.912	0.07
806.212	0.07
806.511	0.07
806.811	0.07
807.11	0.06
807.41	0.07
807.709	0.06
808.008	0.07
808.307	0.06
808.606	0.06
808.905	0.06
809.204	0.07
809.503	0.07
809.802	0.07
810.101	0.07
810.399	0.07
810.698	0.07
810.997	0.07
811.295	0.07
811.593	0.07
811.892	0.07
812.19	0.07
812.488	0.07
812.786	0.07
813.084	0.07
813.383	0.07
813.68	0.07
813.978	0.07
814.276	0.08
814.574	0.08
814.872	0.08
815.169	0.08
815.467	0.08
815.764	0.08
816.062	0.08
816.359	0.08
816.656	0.08
816.954	0.08
817.251	0.08
817.548	0.08
817.845	0.08
818.142	0.08
818.439	0.08
818.735	0.08
819.032	0.08
819.329	0.08
819.626	0.07
819.922	0.08
820.219	0.07
820.515	0.08
820.811	0.07
821.108	0.08
821.404	0.08
821.7	0.08
821.996	0.08
822.292	0.08
822.588	0.08
822.884	0.08
823.18	0.08
823.475	0.08
823.771	0.08
824.067	0.08
824.362	0.08
824.658	0.09
824.953	0.08
825.249	0.08
825.544	0.08
825.839	0.07
826.134	0.08
826.429	0.08
826.724	0.08
827.019	0.08
827.314	0.09
827.609	0.09
827.904	0.09
828.198	0.09
828.493	0.09
828.787	0.09
829.082	0.09
829.376	0.09
829.671	0.09
829.965	0.09
830.259	0.09
830.553	0.09
830.847	0.09
831.141	0.09
831.435	0.09
831.729	0.1
832.023	0.1
832.317	0.1
832.61	0.1
832.904	0.09
833.197	0.09
833.491	0.09
833.784	0.09
834.077	0.1
834.371	0.1
834.664	0.1
834.957	0.1
835.25	0.1
835.543	0.1
835.836	0.1
836.129	0.1
836.421	0.1
836.714	0.1
837.007	0.11
837.299	0.1
837.592	0.1
837.884	0.1
838.177	0.1
838.469	0.11
838.761	0.1
839.053	0.1
839.345	0.1
839.637	0.11
839.929	0.1
840.221	0.11
840.513	0.1
840.805	0.1
841.096	0.11
841.388	0.1
841.68	0.11
841.971	0.1
842.262	0.1
842.554	0.1
842.845	0.1
843.136	0.1
843.427	0.09
843.718	0.11
844.009	0.1
844.3	0.11
844.591	0.1
844.882	0.11
845.173	0.11
845.463	0.11
845.754	0.11
846.044	0.12
846.335	0.11
846.625	0.11
846.915	0.13
847.206	0.12
847.496	0.13
847.786	0.13
848.076	0.12
848.366	0.13
848.656	0.12
848.945	0.13
849.235	0.13
849.525	0.13
849.814	0.13
850.104	0.12
850.393	0.12
850.683	0.12
850.972	0.13
851.261	0.11
851.551	0.12
851.84	0.12
852.129	0.11
852.418	0.11
852.707	0.12
852.995	0.12
853.284	0.12
853.573	0.12
853.862	0.12
854.15	0.12
854.439	0.12
854.727	0.12
855.015	0.13
855.304	0.13
855.592	0.13
855.88	0.13
856.168	0.13
856.456	0.14
856.744	0.12
857.032	0.12
857.32	0.14
857.607	0.14
857.895	0.12
858.183	0.12
858.47	0.13
858.757	0.13
859.045	0.15
859.332	0.13
859.619	0.11
859.907	0.12
860.194	0.13
860.481	0.14
860.768	0.12
861.054	0.13
861.341	0.12
861.628	0.13
861.915	0.13
862.201	0.12
862.488	0.14
862.774	0.12
863.061	0.14
863.347	0.13
863.633	0.13
863.919	0.11
864.205	0.13
864.491	0.13
864.777	0.14
865.063	0.14
865.349	0.13
865.635	0.14
865.92	0.16
866.206	0.14
866.492	0.11
866.777	0.15
867.062	0.13
867.348	0.14
867.633	0.14
867.918	0.14
868.203	0.14
868.488	0.16
868.773	0.12
869.058	0.12
869.343	0.14
869.628	0.16
869.912	0.14
870.197	0.11
870.482	0.11
870.766	0.14
871.05	0.11
871.335	0.11
871.619	0.12
871.903	0.13
872.187	0.11
872.471	0.11
872.755	0.12
873.039	0.14
873.323	0.09
873.607	0.13
873.89	0.11
874.174	0.16
874.458	0.13
874.741	0.22
875.024	0.12
875.308	0.1
875.591	0.08
875.874	0.08
876.157	0.05
876.44	0.12
876.723	0.17
877.006	0.11
877.289	0.14
877.572	0.13
877.854	0.12
878.137	0.17
878.42	0.03
878.702	0.12
878.984	0.17
879.267	0.08
879.549	0.08
879.831	0.1
880.113	0.08
880.395	0.11
880.677	0.01
880.959	0.04
