Data from Rubpy_BV_1200_EDTA_Buffered_Absorbance_13-47-38-042.txt Node
Date: Wed Jul 01 13:47:38 BST 2026
User: fpm-admin
Spectrometer: OFX00224
Trigger mode: 0
Integration Time (sec): 7.000000E-2
Scans to average: 3
Nonlinearity correction enabled: false
Boxcar width: 0
Storing dark spectrum: false
XAxis mode: Wavelengths
Number of Pixels in Spectrum: 2136
>>>>>Begin Spectral Data<<<<<
154.91	-0.28
155.289	-0
155.669	-0.21
156.048	-0.58
156.428	0.12
156.807	-0.3
157.186	-0
157.566	-0.44
157.945	0.46
158.325	-0.16
158.704	-1.07
159.083	-0
159.462	-0.48
159.842	-0.06
160.221	-0
160.6	0.08
160.979	0.94
161.359	-0
161.738	0.16
162.117	0.56
162.496	0.19
162.875	1.08
163.254	0.43
163.633	-0.12
164.012	-1.2
164.391	0.41
164.77	0.27
165.149	-0
165.528	-0
165.907	-0.18
166.286	0.27
166.665	0.09
167.044	-1.41
167.423	-0.08
167.802	-0.4
168.181	-0.81
168.559	-0.11
168.938	0.88
169.317	0.35
169.696	-0
170.074	-0.6
170.453	-0.33
170.832	-0.05
171.21	-0.48
171.589	-0
171.968	-0
172.346	0.07
172.725	-0
173.103	-0.46
173.482	-0.03
173.861	-0
174.239	-0
174.617	-0
174.996	-0.37
175.374	-0
175.753	0.13
176.131	-1
176.51	0.12
176.888	-0
177.266	-0
177.645	0.02
178.023	0.46
178.401	-0.09
178.779	-0
179.158	-0
179.536	-0
179.914	-0
180.292	-0
180.67	-0.54
181.048	0.18
181.427	-0
181.805	-0
182.183	-0
182.561	-0
182.939	0.52
183.317	-0
183.695	0.51
184.073	-0
184.451	-0.9
184.829	0.46
185.206	0.46
185.584	0.1
185.962	-0
186.34	-0
186.718	-0
187.096	0.84
187.473	-0.05
187.851	1.43
188.229	-0.06
188.607	0.14
188.984	0.2
189.362	0.25
189.74	0.1
190.117	0.26
190.495	0.11
190.872	0.13
191.25	0.22
191.627	0.11
192.005	0.12
192.382	0.06
192.76	0.15
193.137	0.13
193.515	0.16
193.892	0.09
194.269	0.27
194.647	0.32
195.024	0.14
195.401	0.16
195.779	0.17
196.156	0.14
196.533	0.26
196.91	0.13
197.288	0.14
197.665	0.16
198.042	0.16
198.419	0.23
198.796	0.2
199.173	0.27
199.55	0.16
199.927	0.11
200.304	0.22
200.681	0.31
201.058	0.15
201.435	0.11
201.812	0.18
202.189	0.12
202.566	0.15
202.943	0.26
203.32	0.1
203.697	0.25
204.073	0.19
204.45	0.21
204.827	0.21
205.204	0.18
205.58	0.19
205.957	0.15
206.334	0.16
206.71	0.24
207.087	0.21
207.464	0.1
207.84	0.17
208.217	0.29
208.593	0.17
208.97	0.14
209.346	0.25
209.723	0.18
210.099	0.1
210.476	0.09
210.852	0.17
211.228	0.14
211.605	0.19
211.981	0.46
212.357	0.22
212.733	0.07
213.11	0.13
213.486	0.27
213.862	0.08
214.238	0.14
214.614	0.17
214.991	0.12
215.367	0.2
215.743	0.27
216.119	0.17
216.495	0.18
216.871	0.18
217.247	0.18
217.623	0.32
217.999	0.2
218.375	0.23
218.751	0.1
219.127	0.25
219.502	0.15
219.878	0.22
220.254	0.24
220.63	0.18
221.006	0.14
221.381	0.16
221.757	0.1
222.133	0.21
222.508	0.17
222.884	0.25
223.26	0.16
223.635	0.11
224.011	0.17
224.386	0.26
224.762	0.18
225.137	0.16
225.513	0.16
225.888	0.24
226.264	0.21
226.639	0.11
227.014	0.2
227.39	0.2
227.765	0.26
228.14	0.23
228.516	0.15
228.891	0.3
229.266	0.18
229.641	0.19
230.017	0.17
230.392	0.21
230.767	0.17
231.142	0.15
231.517	0.24
231.892	0.13
232.267	0.15
232.642	0.33
233.017	0.13
233.392	0.1
233.767	0.27
234.142	0.23
234.517	0.11
234.892	0.15
235.267	0.16
235.641	0.25
236.016	0.16
236.391	0.25
236.766	0.22
237.14	0.15
237.515	0.18
237.89	0.12
238.264	0.23
238.639	0.11
239.014	0.13
239.388	0.17
239.763	0.18
240.137	0.13
240.512	0.24
240.886	0.16
241.261	0.2
241.635	0.13
242.009	0.19
242.384	0.27
242.758	0.23
243.132	0.15
243.507	0.18
243.881	0.15
244.255	0.21
244.629	0.21
245.004	0.14
245.378	0.13
245.752	0.13
246.126	0.09
246.5	0.2
246.874	0.16
247.248	0.18
247.622	0.22
247.996	0.2
248.37	0.2
248.744	0.16
249.118	0.29
249.492	0.18
249.866	0.24
250.24	0.18
250.613	0.14
250.987	0.22
251.361	0.23
251.735	0.07
252.108	0.19
252.482	0.2
252.856	0.11
253.229	0.12
253.603	0.25
253.977	0.11
254.35	0.19
254.724	0.27
255.097	0.17
255.471	0.21
255.844	0.15
256.218	0.2
256.591	0.13
256.964	0.06
257.338	0.19
257.711	0.21
258.084	0.25
258.458	0.18
258.831	0.22
259.204	0.15
259.577	0.18
259.95	0.27
260.323	0.24
260.697	0.19
261.07	0.26
261.443	0.24
261.816	0.21
262.189	0.18
262.562	0.19
262.935	0.19
263.308	0.17
263.68	0.19
264.053	0.11
264.426	0.2
264.799	0.22
265.172	0.13
265.545	0.2
265.917	0.19
266.29	0.22
266.663	0.21
267.035	0.15
267.408	0.22
267.781	0.26
268.153	0.17
268.526	0.18
268.898	0.14
269.271	0.18
269.643	0.24
270.016	0.26
270.388	0.17
270.76	0.16
271.133	0.21
271.505	0.3
271.877	0.25
272.25	0.32
272.622	0.27
272.994	0.25
273.366	0.16
273.739	0.2
274.111	0.14
274.483	0.19
274.855	0.19
275.227	0.13
275.599	0.18
275.971	0.11
276.343	0.23
276.715	0.19
277.087	0.38
277.459	0.22
277.831	0.18
278.203	0.21
278.574	0.12
278.946	0.26
279.318	0.25
279.69	0.33
280.061	0.16
280.433	0.28
280.805	0.22
281.176	0.13
281.548	0.18
281.92	0.2
282.291	0.26
282.663	0.18
283.034	0.19
283.406	0.21
283.777	0.22
284.148	0.2
284.52	0.18
284.891	0.22
285.262	0.17
285.634	0.28
286.005	0.18
286.376	0.32
286.747	0.21
287.119	0.19
287.49	0.17
287.861	0.21
288.232	0.28
288.603	0.27
288.974	0.23
289.345	0.31
289.716	0.18
290.087	0.23
290.458	0.15
290.829	0.25
291.2	0.21
291.571	0.27
291.941	0.25
292.312	0.2
292.683	0.2
293.054	0.2
293.424	0.28
293.795	0.21
294.166	0.28
294.536	0.23
294.907	0.3
295.277	0.21
295.648	0.19
296.018	0.2
296.389	0.17
296.759	0.18
297.13	0.25
297.5	0.21
297.871	0.25
298.241	0.25
298.611	0.21
298.981	0.16
299.352	0.23
299.722	0.2
300.092	0.16
300.462	0.34
300.832	0.16
301.202	0.2
301.573	0.18
301.943	0.2
302.313	0.19
302.683	0.18
303.053	0.2
303.422	0.15
303.792	0.18
304.162	0.17
304.532	0.2
304.902	0.19
305.272	0.16
305.641	0.15
306.011	0.12
306.381	0.11
306.75	0.15
307.12	0.13
307.49	0.16
307.859	0.14
308.229	0.14
308.598	0.13
308.968	0.14
309.337	0.14
309.707	0.16
310.076	0.12
310.445	0.13
310.815	0.12
311.184	0.13
311.553	0.15
311.923	0.13
312.292	0.13
312.661	0.14
313.03	0.13
313.399	0.16
313.768	0.16
314.137	0.15
314.506	0.16
314.875	0.15
315.244	0.17
315.613	0.18
315.982	0.17
316.351	0.16
316.72	0.16
317.089	0.16
317.458	0.17
317.826	0.17
318.195	0.18
318.564	0.18
318.933	0.18
319.301	0.18
319.67	0.19
320.038	0.19
320.407	0.18
320.775	0.21
321.144	0.19
321.512	0.19
321.881	0.21
322.249	0.2
322.618	0.21
322.986	0.21
323.354	0.21
323.723	0.22
324.091	0.21
324.459	0.22
324.827	0.23
325.195	0.23
325.564	0.23
325.932	0.24
326.3	0.23
326.668	0.23
327.036	0.25
327.404	0.25
327.772	0.25
328.14	0.26
328.508	0.26
328.875	0.25
329.243	0.27
329.611	0.27
329.979	0.27
330.346	0.28
330.714	0.28
331.082	0.28
331.449	0.29
331.817	0.29
332.185	0.3
332.552	0.3
332.92	0.32
333.287	0.31
333.655	0.32
334.022	0.33
334.389	0.34
334.757	0.34
335.124	0.34
335.491	0.35
335.859	0.36
336.226	0.36
336.593	0.37
336.96	0.38
337.327	0.39
337.695	0.39
338.062	0.4
338.429	0.41
338.796	0.42
339.163	0.42
339.53	0.43
339.897	0.44
340.263	0.45
340.63	0.45
340.997	0.45
341.364	0.46
341.731	0.47
342.097	0.48
342.464	0.48
342.831	0.5
343.197	0.51
343.564	0.51
343.931	0.52
344.297	0.52
344.664	0.53
345.03	0.55
345.396	0.55
345.763	0.56
346.129	0.58
346.496	0.58
346.862	0.58
347.228	0.59
347.594	0.6
347.961	0.61
348.327	0.62
348.693	0.62
349.059	0.63
349.425	0.64
349.791	0.65
350.157	0.65
350.523	0.66
350.889	0.67
351.255	0.68
351.621	0.69
351.987	0.7
352.353	0.71
352.719	0.71
353.084	0.71
353.45	0.72
353.816	0.73
354.181	0.75
354.547	0.75
354.913	0.77
355.278	0.77
355.644	0.78
356.009	0.79
356.375	0.8
356.74	0.8
357.106	0.82
357.471	0.83
357.836	0.83
358.202	0.85
358.567	0.86
358.932	0.86
359.297	0.89
359.663	0.91
360.028	0.9
360.393	0.94
360.758	0.94
361.123	0.95
361.488	0.96
361.853	0.97
362.218	0.99
362.583	1
362.948	1.01
363.312	1.02
363.677	1.03
364.042	1.04
364.407	1.05
364.772	1.07
365.136	1.07
365.501	1.08
365.865	1.12
366.23	1.1
366.595	1.11
366.959	1.13
367.324	1.14
367.688	1.14
368.052	1.16
368.417	1.15
368.781	1.17
369.145	1.17
369.51	1.18
369.874	1.2
370.238	1.2
370.602	1.22
370.967	1.19
371.331	1.21
371.695	1.23
372.059	1.22
372.423	1.23
372.787	1.22
373.151	1.22
373.515	1.24
373.878	1.23
374.242	1.22
374.606	1.21
374.97	1.2
375.334	1.2
375.697	1.18
376.061	1.17
376.425	1.16
376.788	1.15
377.152	1.14
377.515	1.13
377.879	1.12
378.242	1.1
378.606	1.09
378.969	1.09
379.333	1.07
379.696	1.05
380.059	1.04
380.422	1.04
380.786	1.02
381.149	1.01
381.512	1
381.875	0.98
382.238	0.99
382.601	0.97
382.964	0.97
383.327	0.95
383.69	0.95
384.053	0.94
384.416	0.93
384.779	0.92
385.142	0.92
385.504	0.91
385.867	0.9
386.23	0.9
386.593	0.9
386.955	0.89
387.318	0.89
387.68	0.89
388.043	0.9
388.405	0.9
388.768	0.88
389.13	0.89
389.493	0.88
389.855	0.88
390.217	0.88
390.58	0.87
390.942	0.86
391.304	0.85
391.666	0.84
392.028	0.82
392.391	0.82
392.753	0.81
393.115	0.8
393.477	0.79
393.839	0.79
394.201	0.77
394.563	0.78
394.924	0.78
395.286	0.78
395.648	0.78
396.01	0.78
396.371	0.8
396.733	0.8
397.095	0.81
397.456	0.83
397.818	0.85
398.18	0.86
398.541	0.89
398.903	0.91
399.264	0.93
399.625	0.94
399.987	0.97
400.348	0.99
400.709	1.01
401.071	1.01
401.432	1.01
401.793	1.01
402.154	1.01
402.515	1
402.876	0.98
403.238	0.96
403.599	0.94
403.96	0.91
404.32	0.88
404.681	0.85
405.042	0.81
405.403	0.79
405.764	0.75
406.125	0.71
406.485	0.67
406.846	0.64
407.207	0.6
407.567	0.57
407.928	0.54
408.288	0.51
408.649	0.48
409.009	0.46
409.37	0.43
409.73	0.41
410.091	0.38
410.451	0.36
410.811	0.34
411.171	0.33
411.532	0.31
411.892	0.3
412.252	0.28
412.612	0.27
412.972	0.25
413.332	0.25
413.692	0.23
414.052	0.23
414.412	0.22
414.772	0.2
415.132	0.2
415.492	0.19
415.851	0.19
416.211	0.18
416.571	0.17
416.931	0.17
417.29	0.16
417.65	0.16
418.009	0.16
418.369	0.16
418.728	0.15
419.088	0.14
419.447	0.14
419.807	0.14
420.166	0.13
420.525	0.13
420.884	0.13
421.244	0.12
421.603	0.12
421.962	0.12
422.321	0.13
422.68	0.11
423.039	0.12
423.398	0.12
423.757	0.1
424.116	0.11
424.475	0.11
424.834	0.11
425.193	0.1
425.551	0.11
425.91	0.1
426.269	0.1
426.628	0.1
426.986	0.1
427.345	0.1
427.703	0.1
428.062	0.11
428.42	0.1
428.779	0.09
429.137	0.09
429.496	0.1
429.854	0.09
430.212	0.09
430.57	0.1
430.929	0.09
431.287	0.09
431.645	0.09
432.003	0.09
432.361	0.09
432.719	0.09
433.077	0.1
433.435	0.09
433.793	0.09
434.151	0.08
434.509	0.08
434.866	0.09
435.224	0.09
435.582	0.08
435.94	0.09
436.297	0.08
436.655	0.08
437.012	0.09
437.37	0.09
437.727	0.09
438.085	0.08
438.442	0.09
438.8	0.09
439.157	0.08
439.514	0.09
439.872	0.08
440.229	0.08
440.586	0.09
440.943	0.08
441.3	0.09
441.657	0.08
442.014	0.08
442.371	0.09
442.728	0.09
443.085	0.09
443.442	0.08
443.799	0.09
444.156	0.08
444.513	0.09
444.869	0.08
445.226	0.09
445.583	0.09
445.939	0.09
446.296	0.09
446.652	0.08
447.009	0.09
447.365	0.09
447.722	0.09
448.078	0.08
448.434	0.09
448.791	0.09
449.147	0.08
449.503	0.08
449.859	0.09
450.215	0.09
450.571	0.08
450.928	0.09
451.284	0.09
451.64	0.08
451.995	0.09
452.351	0.08
452.707	0.09
453.063	0.08
453.419	0.08
453.775	0.09
454.13	0.08
454.486	0.08
454.842	0.09
455.197	0.08
455.553	0.08
455.908	0.08
456.264	0.08
456.619	0.06
456.975	0.08
457.33	0.07
457.685	0.07
458.04	0.07
458.396	0.06
458.751	0.07
459.106	0.07
459.461	0.06
459.816	0.06
460.171	0.06
460.526	0.06
460.881	0.05
461.236	0.05
461.591	0.05
461.946	0.05
462.301	0.04
462.655	0.04
463.01	0.05
463.365	0.04
463.719	0.03
464.074	0.03
464.428	0.02
464.783	0.02
465.137	0.02
465.492	0.03
465.846	0.03
466.201	0.03
466.555	0.03
466.909	0.03
467.263	0.03
467.618	0.03
467.972	0.04
468.326	0.04
468.68	0.03
469.034	0.03
469.388	0.03
469.742	0.03
470.096	0.04
470.45	0.03
470.804	0.04
471.157	0.04
471.511	0.05
471.865	0.04
472.218	0.05
472.572	0.05
472.926	0.05
473.279	0.06
473.633	0.06
473.986	0.07
474.34	0.08
474.693	0.08
475.046	0.09
475.4	0.09
475.753	0.1
476.106	0.11
476.459	0.11
476.812	0.11
477.165	0.12
477.519	0.14
477.872	0.13
478.224	0.14
478.577	0.14
478.93	0.14
479.283	0.15
479.636	0.16
479.989	0.16
480.341	0.16
480.694	0.17
481.047	0.17
481.399	0.18
481.752	0.19
482.104	0.19
482.457	0.19
482.809	0.19
483.162	0.19
483.514	0.2
483.866	0.21
484.219	0.21
484.571	0.21
484.923	0.22
485.275	0.22
485.627	0.22
485.979	0.22
486.331	0.23
486.683	0.23
487.035	0.23
487.387	0.24
487.739	0.24
488.091	0.25
488.443	0.25
488.794	0.25
489.146	0.25
489.498	0.25
489.849	0.25
490.201	0.26
490.552	0.26
490.904	0.26
491.255	0.27
491.607	0.27
491.958	0.27
492.309	0.27
492.661	0.28
493.012	0.28
493.363	0.28
493.714	0.28
494.065	0.29
494.416	0.28
494.767	0.29
495.118	0.29
495.469	0.3
495.82	0.3
496.171	0.31
496.522	0.3
496.872	0.31
497.223	0.31
497.574	0.32
497.924	0.31
498.275	0.32
498.626	0.32
498.976	0.33
499.327	0.33
499.677	0.33
500.027	0.34
500.378	0.34
500.728	0.34
501.078	0.35
501.428	0.34
501.779	0.35
502.129	0.35
502.479	0.35
502.829	0.35
503.179	0.36
503.529	0.35
503.879	0.36
504.229	0.36
504.578	0.36
504.928	0.37
505.278	0.37
505.628	0.37
505.977	0.38
506.327	0.37
506.676	0.38
507.026	0.38
507.375	0.39
507.725	0.39
508.074	0.39
508.424	0.39
508.773	0.39
509.122	0.39
509.471	0.4
509.82	0.4
510.17	0.41
510.519	0.4
510.868	0.41
511.217	0.41
511.566	0.41
511.915	0.41
512.263	0.42
512.612	0.42
512.961	0.42
513.31	0.42
513.659	0.43
514.007	0.43
514.356	0.43
514.704	0.43
515.053	0.43
515.401	0.44
515.75	0.44
516.098	0.44
516.447	0.44
516.795	0.45
517.143	0.44
517.491	0.45
517.839	0.45
518.188	0.46
518.536	0.46
518.884	0.46
519.232	0.46
519.58	0.46
519.928	0.46
520.275	0.46
520.623	0.46
520.971	0.47
521.319	0.47
521.666	0.47
522.014	0.47
522.362	0.48
522.709	0.48
523.057	0.48
523.404	0.48
523.752	0.48
524.099	0.48
524.446	0.48
524.794	0.48
525.141	0.48
525.488	0.49
525.835	0.5
526.182	0.49
526.529	0.5
526.876	0.5
527.223	0.5
527.57	0.5
527.917	0.5
528.264	0.5
528.611	0.5
528.958	0.51
529.304	0.5
529.651	0.51
529.998	0.51
530.344	0.51
530.691	0.51
531.037	0.52
531.384	0.52
531.73	0.51
532.076	0.51
532.423	0.52
532.769	0.52
533.115	0.52
533.461	0.52
533.807	0.52
534.154	0.52
534.5	0.52
534.846	0.53
535.192	0.53
535.537	0.53
535.883	0.53
536.229	0.53
536.575	0.54
536.921	0.53
537.266	0.54
537.612	0.54
537.957	0.54
538.303	0.54
538.649	0.54
538.994	0.54
539.339	0.54
539.685	0.55
540.03	0.54
540.375	0.55
540.721	0.55
541.066	0.55
541.411	0.54
541.756	0.54
542.101	0.55
542.446	0.55
542.791	0.55
543.136	0.54
543.481	0.55
543.825	0.55
544.17	0.55
544.515	0.55
544.86	0.55
545.204	0.56
545.549	0.55
545.893	0.56
546.238	0.55
546.582	0.56
546.927	0.56
547.271	0.56
547.615	0.56
547.96	0.56
548.304	0.57
548.648	0.56
548.992	0.56
549.336	0.56
549.68	0.56
550.024	0.57
550.368	0.56
550.712	0.57
551.056	0.56
551.4	0.56
551.743	0.57
552.087	0.57
552.431	0.57
552.774	0.57
553.118	0.56
553.462	0.57
553.805	0.57
554.148	0.56
554.492	0.56
554.835	0.57
555.178	0.56
555.522	0.56
555.865	0.56
556.208	0.57
556.551	0.56
556.894	0.57
557.237	0.57
557.58	0.56
557.923	0.56
558.266	0.56
558.609	0.56
558.952	0.56
559.294	0.56
559.637	0.56
559.98	0.56
560.322	0.56
560.665	0.56
561.007	0.56
561.35	0.56
561.692	0.56
562.034	0.56
562.377	0.56
562.719	0.56
563.061	0.56
563.403	0.56
563.745	0.56
564.088	0.56
564.43	0.56
564.772	0.56
565.113	0.56
565.455	0.55
565.797	0.56
566.139	0.55
566.481	0.55
566.822	0.56
567.164	0.55
567.506	0.55
567.847	0.55
568.189	0.55
568.53	0.56
568.872	0.55
569.213	0.55
569.554	0.55
569.895	0.55
570.237	0.55
570.578	0.55
570.919	0.54
571.26	0.54
571.601	0.54
571.942	0.54
572.283	0.54
572.624	0.54
572.965	0.53
573.306	0.53
573.646	0.53
573.987	0.53
574.328	0.53
574.668	0.53
575.009	0.53
575.349	0.53
575.69	0.53
576.03	0.53
576.37	0.52
576.711	0.51
577.051	0.52
577.391	0.52
577.731	0.52
578.072	0.52
578.412	0.52
578.752	0.51
579.092	0.51
579.431	0.5
579.771	0.48
580.111	0.47
580.451	0.48
580.791	0.5
581.13	0.51
581.47	0.51
581.81	0.5
582.149	0.5
582.489	0.5
582.828	0.49
583.167	0.47
583.507	0.43
583.846	0.41
584.185	0.44
584.525	0.47
584.864	0.48
585.203	0.5
585.542	0.5
585.881	0.51
586.22	0.5
586.559	0.49
586.898	0.48
587.236	0.47
587.575	0.47
587.914	0.48
588.252	0.49
588.591	0.49
588.93	0.49
589.268	0.49
589.607	0.49
589.945	0.49
590.283	0.49
590.622	0.49
590.96	0.5
591.298	0.5
591.636	0.5
591.974	0.5
592.313	0.5
592.651	0.5
592.989	0.5
593.326	0.5
593.664	0.5
594.002	0.5
594.34	0.5
594.678	0.49
595.015	0.49
595.353	0.48
595.691	0.49
596.028	0.5
596.366	0.49
596.703	0.5
597.04	0.5
597.378	0.5
597.715	0.5
598.052	0.5
598.389	0.5
598.726	0.5
599.064	0.5
599.401	0.5
599.738	0.5
600.074	0.5
600.411	0.5
600.748	0.49
601.085	0.49
601.422	0.48
601.758	0.48
602.095	0.48
602.432	0.48
602.768	0.49
603.105	0.49
603.441	0.49
603.777	0.49
604.114	0.49
604.45	0.49
604.786	0.49
605.122	0.49
605.459	0.49
605.795	0.49
606.131	0.49
606.467	0.49
606.803	0.48
607.139	0.48
607.474	0.48
607.81	0.48
608.146	0.48
608.482	0.48
608.817	0.48
609.153	0.48
609.488	0.47
609.824	0.47
610.159	0.47
610.495	0.47
610.83	0.47
611.165	0.47
611.5	0.47
611.836	0.47
612.171	0.46
612.506	0.47
612.841	0.47
613.176	0.46
613.511	0.46
613.845	0.46
614.18	0.46
614.515	0.46
614.85	0.46
615.184	0.46
615.519	0.45
615.854	0.45
616.188	0.45
616.523	0.45
616.857	0.44
617.191	0.44
617.526	0.44
617.86	0.44
618.194	0.44
618.528	0.44
618.862	0.44
619.196	0.44
619.53	0.44
619.864	0.44
620.198	0.44
620.532	0.44
620.866	0.43
621.2	0.43
621.533	0.43
621.867	0.43
622.201	0.42
622.534	0.42
622.868	0.42
623.201	0.42
623.534	0.42
623.868	0.41
624.201	0.41
624.534	0.41
624.868	0.41
625.201	0.41
625.534	0.41
625.867	0.41
626.2	0.4
626.533	0.41
626.865	0.4
627.198	0.4
627.531	0.4
627.864	0.39
628.196	0.39
628.529	0.39
628.862	0.39
629.194	0.39
629.527	0.38
629.859	0.38
630.191	0.38
630.524	0.38
630.856	0.38
631.188	0.38
631.52	0.37
631.852	0.37
632.184	0.37
632.516	0.37
632.848	0.36
633.18	0.36
633.512	0.36
633.844	0.35
634.175	0.35
634.507	0.35
634.839	0.35
635.17	0.35
635.502	0.35
635.833	0.35
636.165	0.34
636.496	0.34
636.827	0.34
637.159	0.33
637.49	0.33
637.821	0.33
638.152	0.32
638.483	0.32
638.814	0.32
639.145	0.32
639.476	0.32
639.807	0.32
640.137	0.31
640.468	0.31
640.799	0.31
641.129	0.3
641.46	0.3
641.791	0.3
642.121	0.3
642.451	0.3
642.782	0.3
643.112	0.3
643.442	0.29
643.773	0.29
644.103	0.29
644.433	0.29
644.763	0.29
645.093	0.29
645.423	0.28
645.753	0.29
646.082	0.28
646.412	0.28
646.742	0.28
647.072	0.28
647.401	0.27
647.731	0.27
648.06	0.27
648.39	0.27
648.719	0.27
649.048	0.27
649.378	0.26
649.707	0.26
650.036	0.26
650.365	0.26
650.694	0.26
651.023	0.26
651.352	0.26
651.681	0.26
652.01	0.26
652.339	0.25
652.668	0.26
652.996	0.26
653.325	0.26
653.654	0.26
653.982	0.26
654.311	0.25
654.639	0.25
654.967	0.25
655.296	0.25
655.624	0.25
655.952	0.25
656.28	0.25
656.609	0.24
656.937	0.25
657.265	0.25
657.593	0.13
657.92	0.03
658.248	0
658.576	0.02
658.904	0.1
659.231	0.18
659.559	0.23
659.887	0.24
660.214	0.23
660.542	0.24
660.869	0.23
661.196	0.23
661.524	0.23
661.851	0.23
662.178	0.23
662.505	0.24
662.832	0.23
663.159	0.23
663.486	0.23
663.813	0.23
664.14	0.23
664.467	0.23
664.794	0.23
665.12	0.23
665.447	0.22
665.774	0.22
666.1	0.22
666.427	0.22
666.753	0.22
667.079	0.22
667.406	0.22
667.732	0.22
668.058	0.22
668.384	0.21
668.71	0.22
669.036	0.21
669.362	0.21
669.688	0.21
670.014	0.21
670.34	0.21
670.666	0.21
670.991	0.2
671.317	0.2
671.643	0.2
671.968	0.2
672.294	0.19
672.619	0.19
672.945	0.19
673.27	0.19
673.595	0.19
673.92	0.19
674.246	0.18
674.571	0.19
674.896	0.19
675.221	0.18
675.546	0.18
675.87	0.18
676.195	0.18
676.52	0.18
676.845	0.18
677.169	0.17
677.494	0.17
677.819	0.17
678.143	0.17
678.468	0.17
678.792	0.16
679.116	0.16
679.44	0.16
679.765	0.16
680.089	0.16
680.413	0.15
680.737	0.15
681.061	0.15
681.385	0.15
681.709	0.15
682.033	0.14
682.356	0.14
682.68	0.14
683.004	0.14
683.327	0.14
683.651	0.14
683.974	0.14
684.298	0.14
684.621	0.14
684.944	0.13
685.268	0.13
685.591	0.13
685.914	0.13
686.237	0.12
686.56	0.12
686.883	0.12
687.206	0.12
687.529	0.11
687.852	0.11
688.175	0.11
688.497	0.12
688.82	0.11
689.142	0.11
689.465	0.11
689.787	0.11
690.11	0.11
690.432	0.11
690.755	0.11
691.077	0.1
691.399	0.1
691.721	0.1
692.043	0.1
692.365	0.1
692.687	0.1
693.009	0.09
693.331	0.09
693.653	0.09
693.974	0.09
694.296	0.09
694.618	0.09
694.939	0.09
695.261	0.09
695.582	0.09
695.904	0.09
696.225	0.09
696.546	0.09
696.868	0.09
697.189	0.08
697.51	0.08
697.831	0.08
698.152	0.08
698.473	0.08
698.794	0.07
699.114	0.07
699.435	0.06
699.756	0.06
700.077	0.07
700.397	0.07
700.718	0.07
701.038	0.07
701.359	0.07
701.679	0.07
701.999	0.07
702.32	0.07
702.64	0.07
702.96	0.07
703.28	0.07
703.6	0.07
703.92	0.06
704.24	0.06
704.56	0.06
704.879	0.06
705.199	0.06
705.519	0.06
705.838	0.06
706.158	0.07
706.478	0.06
706.797	0.06
707.116	0.06
707.436	0.06
707.755	0.07
708.074	0.07
708.393	0.06
708.712	0.05
709.031	0.04
709.35	0.04
709.669	0.04
709.988	0.04
710.307	0.04
710.626	0.05
710.944	0.05
711.263	0.05
711.582	0.06
711.9	0.06
712.219	0.05
712.537	0.05
712.855	0.06
713.174	0.05
713.492	0.06
713.81	0.06
714.128	0.06
714.446	0.06
714.764	0.05
715.082	0.05
715.4	0.05
715.718	0.05
716.035	0.05
716.353	0.05
716.671	0.05
716.988	0.05
717.306	0.05
717.623	0.06
717.941	0.06
718.258	0.06
718.575	0.07
718.893	0.06
719.21	0.06
719.527	0.06
719.844	0.06
720.161	0.06
720.478	0.06
720.795	0.06
721.112	0.06
721.428	0.06
721.745	0.06
722.062	0.06
722.378	0.06
722.695	0.06
723.011	0.06
723.328	0.06
723.644	0.07
723.96	0.07
724.276	0.07
724.593	0.06
724.909	0.06
725.225	0.07
725.541	0.07
725.857	0.07
726.173	0.07
726.488	0.07
726.804	0.07
727.12	0.07
727.435	0.07
727.751	0.07
728.067	0.07
728.382	0.07
728.697	0.07
729.013	0.07
729.328	0.07
729.643	0.07
729.958	0.07
730.273	0.07
730.588	0.07
730.903	0.07
731.218	0.07
731.533	0.07
731.848	0.07
732.163	0.07
732.477	0.06
732.792	0.07
733.107	0.06
733.421	0.06
733.736	0.06
734.05	0.06
734.364	0.06
734.678	0.06
734.993	0.06
735.307	0.06
735.621	0.06
735.935	0.06
736.249	0.06
736.563	0.06
736.877	0.06
737.19	0.06
737.504	0.06
737.818	0.06
738.131	0.06
738.445	0.07
738.758	0.06
739.072	0.06
739.385	0.06
739.698	0.06
740.012	0.06
740.325	0.06
740.638	0.06
740.951	0.06
741.264	0.06
741.577	0.06
741.89	0.06
742.203	0.06
742.515	0.06
742.828	0.06
743.141	0.06
743.453	0.05
743.766	0.05
744.078	0.05
744.391	0.05
744.703	0.05
745.015	0.05
745.327	0.05
745.639	0.05
745.952	0.05
746.264	0.05
746.575	0.05
746.887	0.05
747.199	0.04
747.511	0.05
747.823	0.05
748.134	0.04
748.446	0.05
748.757	0.04
749.069	0.04
749.38	0.04
749.692	0.04
750.003	0.04
750.314	0.04
750.625	0.04
750.936	0.04
751.248	0.04
751.559	0.04
751.869	0.04
752.18	0.04
752.491	0.04
752.802	0.04
753.112	0.04
753.423	0.04
753.734	0.04
754.044	0.04
754.355	0.04
754.665	0.04
754.975	0.04
755.285	0.04
755.596	0.04
755.906	0.04
756.216	0.04
756.526	0.04
756.836	0.03
757.146	0.03
757.455	0.03
757.765	0.03
758.075	0.03
758.385	0.03
758.694	0.03
759.004	0.03
759.313	0.03
759.622	0.03
759.932	0.03
760.241	0.03
760.55	0.03
760.859	0.03
761.168	0.03
761.477	0.02
761.786	0.02
762.095	0.02
762.404	0.02
762.713	0.02
763.021	0.02
763.33	0.03
763.639	0.03
763.947	0.02
764.256	0.03
764.564	0.03
764.872	0.02
765.181	0.02
765.489	0.02
765.797	0.02
766.105	0.02
766.413	0.02
766.721	0.02
767.029	0.02
767.337	0.02
767.644	0.02
767.952	0.03
768.26	0.03
768.567	0.03
768.875	0.03
769.182	0.03
769.49	0.03
769.797	0.02
770.104	0.02
770.411	0.02
770.718	0.02
771.026	0.02
771.333	0.02
771.639	0.02
771.946	0.02
772.253	0.02
772.56	0.02
772.867	0.02
773.173	0.02
773.48	0.02
773.786	0.03
774.093	0.03
774.399	0.03
774.705	0.03
775.012	0.03
775.318	0.03
775.624	0.03
775.93	0.03
776.236	0.03
776.542	0.03
776.848	0.03
777.154	0.03
777.459	0.03
777.765	0.03
778.071	0.03
778.376	0.03
778.682	0.03
778.987	0.03
779.292	0.03
779.598	0.03
779.903	0.03
780.208	0.03
780.513	0.03
780.818	0.03
781.123	0.03
781.428	0.03
781.733	0.03
782.038	0.03
782.343	0.03
782.647	0.03
782.952	0.03
783.256	0.03
783.561	0.02
783.865	0.03
784.17	0.03
784.474	0.03
784.778	0.03
785.082	0.03
785.386	0.03
785.69	0.03
785.994	0.03
786.298	0.03
786.602	0.03
786.906	0.03
787.209	0.03
787.513	0.03
787.817	0.03
788.12	0.03
788.424	0.03
788.727	0.03
789.03	0.03
789.333	0.03
789.637	0.03
789.94	0.04
790.243	0.03
790.546	0.04
790.849	0.04
791.152	0.04
791.454	0.04
791.757	0.04
792.06	0.04
792.362	0.04
792.665	0.03
792.967	0.04
793.27	0.04
793.572	0.04
793.874	0.04
794.177	0.04
794.479	0.05
794.781	0.04
795.083	0.04
795.385	0.04
795.687	0.04
795.989	0.04
796.29	0.04
796.592	0.04
796.894	0.04
797.195	0.04
797.497	0.04
797.798	0.03
798.1	0.04
798.401	0.03
798.702	0.03
799.003	0.03
799.304	0.03
799.605	0.03
799.906	0.03
800.207	0.03
800.508	0.03
800.809	0.02
801.11	0.03
801.41	0.03
801.711	0.03
802.011	0.02
802.312	0.03
802.612	0.03
802.913	0.03
803.213	0.04
803.513	0.04
803.813	0.04
804.113	0.04
804.413	0.04
804.713	0.04
805.013	0.04
805.313	0.04
805.613	0.05
805.912	0.04
806.212	0.05
806.511	0.05
806.811	0.05
807.11	0.04
807.41	0.04
807.709	0.04
808.008	0.04
808.307	0.04
808.606	0.04
808.905	0.04
809.204	0.04
809.503	0.04
809.802	0.05
810.101	0.05
810.399	0.05
810.698	0.05
810.997	0.05
811.295	0.04
811.593	0.05
811.892	0.05
812.19	0.05
812.488	0.04
812.786	0.05
813.084	0.05
813.383	0.04
813.68	0.05
813.978	0.05
814.276	0.05
814.574	0.05
814.872	0.05
815.169	0.05
815.467	0.05
815.764	0.05
816.062	0.05
816.359	0.06
816.656	0.05
816.954	0.05
817.251	0.06
817.548	0.05
817.845	0.05
818.142	0.05
818.439	0.05
818.735	0.05
819.032	0.05
819.329	0.05
819.626	0.05
819.922	0.05
820.219	0.05
820.515	0.04
820.811	0.04
821.108	0.05
821.404	0.05
821.7	0.05
821.996	0.05
822.292	0.05
822.588	0.06
822.884	0.05
823.18	0.06
823.475	0.05
823.771	0.05
824.067	0.05
824.362	0.05
824.658	0.06
824.953	0.06
825.249	0.06
825.544	0.05
825.839	0.05
826.134	0.05
826.429	0.05
826.724	0.05
827.019	0.05
827.314	0.05
827.609	0.06
827.904	0.06
828.198	0.06
828.493	0.06
828.787	0.06
829.082	0.06
829.376	0.06
829.671	0.06
829.965	0.06
830.259	0.06
830.553	0.06
830.847	0.06
831.141	0.06
831.435	0.06
831.729	0.06
832.023	0.06
832.317	0.06
832.61	0.06
832.904	0.06
833.197	0.06
833.491	0.06
833.784	0.06
834.077	0.07
834.371	0.07
834.664	0.06
834.957	0.07
835.25	0.07
835.543	0.07
835.836	0.06
836.129	0.07
836.421	0.07
836.714	0.07
837.007	0.07
837.299	0.06
837.592	0.06
837.884	0.06
838.177	0.07
838.469	0.07
838.761	0.07
839.053	0.06
839.345	0.06
839.637	0.07
839.929	0.07
840.221	0.06
840.513	0.07
840.805	0.06
841.096	0.07
841.388	0.07
841.68	0.08
841.971	0.07
842.262	0.06
842.554	0.06
842.845	0.07
843.136	0.06
843.427	0.06
843.718	0.07
844.009	0.07
844.3	0.07
844.591	0.06
844.882	0.07
845.173	0.06
845.463	0.07
845.754	0.07
846.044	0.08
846.335	0.07
846.625	0.08
846.915	0.08
847.206	0.08
847.496	0.08
847.786	0.08
848.076	0.09
848.366	0.09
848.656	0.09
848.945	0.08
849.235	0.08
849.525	0.08
849.814	0.09
850.104	0.09
850.393	0.09
850.683	0.08
850.972	0.09
851.261	0.07
851.551	0.08
851.84	0.08
852.129	0.08
852.418	0.08
852.707	0.08
852.995	0.09
853.284	0.08
853.573	0.07
853.862	0.07
854.15	0.08
854.439	0.07
854.727	0.09
855.015	0.08
855.304	0.09
855.592	0.09
855.88	0.08
856.168	0.09
856.456	0.09
856.744	0.09
857.032	0.08
857.32	0.1
857.607	0.09
857.895	0.08
858.183	0.08
858.47	0.08
858.757	0.08
859.045	0.09
859.332	0.09
859.619	0.09
859.907	0.09
860.194	0.09
860.481	0.09
860.768	0.08
861.054	0.08
861.341	0.09
861.628	0.08
861.915	0.08
862.201	0.08
862.488	0.09
862.774	0.09
863.061	0.1
863.347	0.09
863.633	0.07
863.919	0.07
864.205	0.1
864.491	0.08
864.777	0.08
865.063	0.11
865.349	0.1
865.635	0.09
865.92	0.12
866.206	0.08
866.492	0.1
866.777	0.07
867.062	0.08
867.348	0.09
867.633	0.11
867.918	0.08
868.203	0.1
868.488	0.11
868.773	0.1
869.058	0.1
869.343	0.08
869.628	0.1
869.912	0.1
870.197	0.09
870.482	0.07
870.766	0.07
871.05	0.07
871.335	0.09
871.619	0.08
871.903	0.06
872.187	0.09
872.471	0.07
872.755	0.06
873.039	0.08
873.323	0.07
873.607	0.08
873.89	0.11
874.174	0.07
874.458	0.07
874.741	0.14
875.024	0.15
875.308	0.12
875.591	0.04
875.874	0.03
876.157	0.02
876.44	0.08
876.723	0.12
877.006	0.07
877.289	0.09
877.572	-0.02
877.854	0.11
878.137	0.17
878.42	0.05
878.702	0.09
878.984	0.05
879.267	-0.01
879.549	0.09
879.831	0.01
880.113	0.05
880.395	0.1
880.677	-0.01
880.959	0.01
