Data from Rubpy_BV_1200_EDTA_Buffered_Absorbance_13-56-51-182.txt Node
Date: Wed Jul 01 13:56:51 BST 2026
User: fpm-admin
Spectrometer: OFX00224
Trigger mode: 0
Integration Time (sec): 7.000000E-2
Scans to average: 3
Nonlinearity correction enabled: false
Boxcar width: 0
Storing dark spectrum: false
XAxis mode: Wavelengths
Number of Pixels in Spectrum: 2136
>>>>>Begin Spectral Data<<<<<
154.91	-0
155.289	-0
155.669	-0.15
156.048	-1.05
156.428	0.06
156.807	-0
157.186	-0
157.566	-0
157.945	-0.55
158.325	-0.1
158.704	-1.28
159.083	0.25
159.462	-0
159.842	-0.44
160.221	-0
160.6	0.37
160.979	-0
161.359	-0
161.738	-0.14
162.117	-0
162.496	-0
162.875	-0
163.254	-0
163.633	-0.14
164.012	-0
164.391	-0.23
164.77	0.22
165.149	-0.2
165.528	-0
165.907	-0
166.286	0.33
166.665	-0.27
167.044	-1.37
167.423	-0.05
167.802	-0.46
168.181	-0
168.559	0.18
168.938	-0.29
169.317	-0.23
169.696	-0
170.074	-0
170.453	-0
170.832	-0.37
171.21	-0.28
171.589	-0
171.968	-0
172.346	0.15
172.725	-0
173.103	-0.9
173.482	-0.15
173.861	-0.71
174.239	-0.3
174.617	0.41
174.996	-0
175.374	-0
175.753	0.05
176.131	-1.5
176.51	0.52
176.888	-0
177.266	-0
177.645	0.15
178.023	0.54
178.401	-0.19
178.779	-0
179.158	-1.23
179.536	0.12
179.914	-0
180.292	-0.45
180.67	0.09
181.048	-0
181.427	-0.89
181.805	-0.05
182.183	0.3
182.561	-0
182.939	0.02
183.317	-0
183.695	0.21
184.073	0.12
184.451	-0.93
184.829	-0.14
185.206	-0
185.584	-0
185.962	-0
186.34	-0.52
186.718	-0
187.096	0.34
187.473	-0.41
187.851	-0.23
188.229	-0.46
188.607	0.21
188.984	0.24
189.362	0.21
189.74	0.1
190.117	0.27
190.495	0.14
190.872	0.12
191.25	0.32
191.627	0.09
192.005	0.06
192.382	0.17
192.76	0.09
193.137	0.14
193.515	0.13
193.892	0.18
194.269	0.23
194.647	0.21
195.024	0.14
195.401	0.12
195.779	0.21
196.156	0.15
196.533	0.19
196.91	0.12
197.288	0.14
197.665	0.03
198.042	0.17
198.419	0.27
198.796	0.11
199.173	0.12
199.55	0.16
199.927	0.19
200.304	0.24
200.681	0.21
201.058	0.2
201.435	0.14
201.812	0.29
202.189	0.23
202.566	0.22
202.943	0.31
203.32	0.18
203.697	0.23
204.073	0.26
204.45	0.21
204.827	0.18
205.204	0.21
205.58	0.09
205.957	0.17
206.334	0.33
206.71	0.28
207.087	0.3
207.464	0.25
207.84	0.25
208.217	0.21
208.593	0.13
208.97	0.17
209.346	0.26
209.723	0.21
210.099	0.16
210.476	0.18
210.852	0.11
211.228	0.12
211.605	0.06
211.981	0.14
212.357	0.13
212.733	0.25
213.11	0.12
213.486	0.19
213.862	0.18
214.238	0.2
214.614	0.21
214.991	0.18
215.367	0.28
215.743	0.31
216.119	0.25
216.495	0.18
216.871	0.29
217.247	0.19
217.623	0.26
217.999	0.28
218.375	0.32
218.751	0.08
219.127	0.19
219.502	0.18
219.878	0.23
220.254	0.31
220.63	0.22
221.006	0.17
221.381	0.28
221.757	0.19
222.133	0.17
222.508	0.23
222.884	0.21
223.26	0.17
223.635	0.17
224.011	0.15
224.386	0.17
224.762	0.2
225.137	0.3
225.513	0.18
225.888	0.36
226.264	0.28
226.639	0.18
227.014	0.17
227.39	0.14
227.765	0.27
228.14	0.26
228.516	0.16
228.891	0.26
229.266	0.2
229.641	0.14
230.017	0.31
230.392	0.41
230.767	0.18
231.142	0.23
231.517	0.19
231.892	0.25
232.267	0.21
232.642	0.31
233.017	0.16
233.392	0.29
233.767	0.16
234.142	0.23
234.517	0.13
234.892	0.1
235.267	0.19
235.641	0.22
236.016	0.14
236.391	0.15
236.766	0.21
237.14	0.21
237.515	0.18
237.89	0.21
238.264	0.18
238.639	0.1
239.014	0.19
239.388	0.18
239.763	0.27
240.137	0.17
240.512	0.14
240.886	0.25
241.261	0.18
241.635	0.2
242.009	0.28
242.384	0.23
242.758	0.22
243.132	0.16
243.507	0.25
243.881	0.19
244.255	0.24
244.629	0.19
245.004	0.19
245.378	0.15
245.752	0.19
246.126	0.21
246.5	0.2
246.874	0.21
247.248	0.16
247.622	0.14
247.996	0.27
248.37	0.26
248.744	0.19
249.118	0.29
249.492	0.2
249.866	0.29
250.24	0.19
250.613	0.16
250.987	0.27
251.361	0.26
251.735	0.21
252.108	0.19
252.482	0.25
252.856	0.11
253.229	0.24
253.603	0.23
253.977	0.12
254.35	0.27
254.724	0.24
255.097	0.21
255.471	0.29
255.844	0.24
256.218	0.29
256.591	0.22
256.964	0.17
257.338	0.26
257.711	0.2
258.084	0.29
258.458	0.2
258.831	0.18
259.204	0.17
259.577	0.25
259.95	0.28
260.323	0.3
260.697	0.28
261.07	0.3
261.443	0.26
261.816	0.22
262.189	0.26
262.562	0.22
262.935	0.2
263.308	0.29
263.68	0.36
264.053	0.19
264.426	0.22
264.799	0.24
265.172	0.24
265.545	0.25
265.917	0.35
266.29	0.28
266.663	0.17
267.035	0.27
267.408	0.27
267.781	0.25
268.153	0.2
268.526	0.22
268.898	0.26
269.271	0.2
269.643	0.24
270.016	0.22
270.388	0.15
270.76	0.27
271.133	0.29
271.505	0.21
271.877	0.24
272.25	0.3
272.622	0.26
272.994	0.24
273.366	0.21
273.739	0.19
274.111	0.2
274.483	0.33
274.855	0.3
275.227	0.27
275.599	0.23
275.971	0.26
276.343	0.26
276.715	0.23
277.087	0.41
277.459	0.22
277.831	0.17
278.203	0.27
278.574	0.27
278.946	0.29
279.318	0.3
279.69	0.24
280.061	0.2
280.433	0.24
280.805	0.24
281.176	0.24
281.548	0.21
281.92	0.26
282.291	0.26
282.663	0.24
283.034	0.3
283.406	0.22
283.777	0.25
284.148	0.17
284.52	0.21
284.891	0.22
285.262	0.19
285.634	0.21
286.005	0.26
286.376	0.26
286.747	0.21
287.119	0.23
287.49	0.22
287.861	0.27
288.232	0.31
288.603	0.2
288.974	0.24
289.345	0.18
289.716	0.27
290.087	0.28
290.458	0.24
290.829	0.3
291.2	0.24
291.571	0.25
291.941	0.31
292.312	0.22
292.683	0.23
293.054	0.22
293.424	0.21
293.795	0.22
294.166	0.34
294.536	0.2
294.907	0.3
295.277	0.2
295.648	0.16
296.018	0.27
296.389	0.18
296.759	0.23
297.13	0.23
297.5	0.27
297.871	0.32
298.241	0.28
298.611	0.29
298.981	0.27
299.352	0.22
299.722	0.26
300.092	0.23
300.462	0.23
300.832	0.21
301.202	0.21
301.573	0.23
301.943	0.22
302.313	0.22
302.683	0.22
303.053	0.21
303.422	0.2
303.792	0.2
304.162	0.17
304.532	0.17
304.902	0.22
305.272	0.18
305.641	0.19
306.011	0.18
306.381	0.16
306.75	0.18
307.12	0.19
307.49	0.15
307.859	0.15
308.229	0.15
308.598	0.17
308.968	0.16
309.337	0.18
309.707	0.18
310.076	0.18
310.445	0.16
310.815	0.18
311.184	0.17
311.553	0.19
311.923	0.17
312.292	0.18
312.661	0.18
313.03	0.19
313.399	0.2
313.768	0.19
314.137	0.19
314.506	0.21
314.875	0.2
315.244	0.21
315.613	0.21
315.982	0.22
316.351	0.21
316.72	0.21
317.089	0.22
317.458	0.23
317.826	0.22
318.195	0.23
318.564	0.23
318.933	0.23
319.301	0.23
319.67	0.24
320.038	0.25
320.407	0.25
320.775	0.26
321.144	0.25
321.512	0.27
321.881	0.27
322.249	0.27
322.618	0.28
322.986	0.29
323.354	0.28
323.723	0.28
324.091	0.29
324.459	0.29
324.827	0.29
325.195	0.3
325.564	0.31
325.932	0.31
326.3	0.32
326.668	0.31
327.036	0.33
327.404	0.33
327.772	0.33
328.14	0.34
328.508	0.34
328.875	0.35
329.243	0.35
329.611	0.36
329.979	0.36
330.346	0.37
330.714	0.38
331.082	0.39
331.449	0.39
331.817	0.39
332.185	0.4
332.552	0.4
332.92	0.42
333.287	0.42
333.655	0.42
334.022	0.43
334.389	0.45
334.757	0.45
335.124	0.46
335.491	0.47
335.859	0.47
336.226	0.48
336.593	0.5
336.96	0.51
337.327	0.52
337.695	0.53
338.062	0.54
338.429	0.54
338.796	0.55
339.163	0.56
339.53	0.58
339.897	0.58
340.263	0.59
340.63	0.6
340.997	0.61
341.364	0.62
341.731	0.64
342.097	0.65
342.464	0.65
342.831	0.66
343.197	0.68
343.564	0.69
343.931	0.7
344.297	0.71
344.664	0.72
345.03	0.73
345.396	0.73
345.763	0.75
346.129	0.77
346.496	0.78
346.862	0.78
347.228	0.79
347.594	0.8
347.961	0.82
348.327	0.82
348.693	0.83
349.059	0.84
349.425	0.86
349.791	0.87
350.157	0.87
350.523	0.89
350.889	0.91
351.255	0.91
351.621	0.91
351.987	0.93
352.353	0.93
352.719	0.95
353.084	0.96
353.45	0.97
353.816	0.97
354.181	0.99
354.547	1
354.913	1.02
355.278	1.01
355.644	1.04
356.009	1.05
356.375	1.06
356.74	1.07
357.106	1.09
357.471	1.1
357.836	1.11
358.202	1.12
358.567	1.12
358.932	1.14
359.297	1.16
359.663	1.19
360.028	1.21
360.393	1.23
360.758	1.24
361.123	1.25
361.488	1.28
361.853	1.28
362.218	1.29
362.583	1.31
362.948	1.32
363.312	1.34
363.677	1.35
364.042	1.37
364.407	1.38
364.772	1.39
365.136	1.39
365.501	1.41
365.865	1.43
366.23	1.42
366.595	1.45
366.959	1.47
367.324	1.47
367.688	1.48
368.052	1.49
368.417	1.48
368.781	1.5
369.145	1.51
369.51	1.53
369.874	1.53
370.238	1.52
370.602	1.55
370.967	1.56
371.331	1.54
371.695	1.57
372.059	1.57
372.423	1.57
372.787	1.55
373.151	1.57
373.515	1.56
373.878	1.57
374.242	1.56
374.606	1.55
374.97	1.53
375.334	1.53
375.697	1.52
376.061	1.48
376.425	1.49
376.788	1.47
377.152	1.47
377.515	1.45
377.879	1.43
378.242	1.44
378.606	1.41
378.969	1.4
379.333	1.38
379.696	1.37
380.059	1.35
380.422	1.34
380.786	1.32
381.149	1.31
381.512	1.3
381.875	1.28
382.238	1.27
382.601	1.25
382.964	1.25
383.327	1.23
383.69	1.21
384.053	1.21
384.416	1.18
384.779	1.19
385.142	1.17
385.504	1.16
385.867	1.16
386.23	1.15
386.593	1.15
386.955	1.15
387.318	1.15
387.68	1.14
388.043	1.13
388.405	1.13
388.768	1.12
389.13	1.11
389.493	1.11
389.855	1.11
390.217	1.1
390.58	1.09
390.942	1.08
391.304	1.07
391.666	1.06
392.028	1.03
392.391	1.02
392.753	1.02
393.115	1.01
393.477	0.99
393.839	0.99
394.201	0.97
394.563	0.97
394.924	0.97
395.286	0.97
395.648	0.97
396.01	0.97
396.371	0.99
396.733	0.99
397.095	1
397.456	1.03
397.818	1.04
398.18	1.05
398.541	1.08
398.903	1.11
399.264	1.14
399.625	1.16
399.987	1.19
400.348	1.2
400.709	1.21
401.071	1.23
401.432	1.23
401.793	1.22
402.154	1.21
402.515	1.19
402.876	1.18
403.238	1.16
403.599	1.13
403.96	1.1
404.32	1.07
404.681	1.02
405.042	0.99
405.403	0.96
405.764	0.91
406.125	0.86
406.485	0.83
406.846	0.78
407.207	0.74
407.567	0.71
407.928	0.67
408.288	0.63
408.649	0.6
409.009	0.56
409.37	0.53
409.73	0.5
410.091	0.48
410.451	0.45
410.811	0.43
411.171	0.4
411.532	0.39
411.892	0.37
412.252	0.35
412.612	0.33
412.972	0.32
413.332	0.31
413.692	0.29
414.052	0.29
414.412	0.27
414.772	0.26
415.132	0.25
415.492	0.24
415.851	0.24
416.211	0.23
416.571	0.22
416.931	0.21
417.29	0.2
417.65	0.2
418.009	0.2
418.369	0.19
418.728	0.19
419.088	0.18
419.447	0.18
419.807	0.17
420.166	0.17
420.525	0.17
420.884	0.16
421.244	0.16
421.603	0.16
421.962	0.16
422.321	0.15
422.68	0.14
423.039	0.15
423.398	0.15
423.757	0.13
424.116	0.14
424.475	0.13
424.834	0.14
425.193	0.13
425.551	0.14
425.91	0.12
426.269	0.13
426.628	0.13
426.986	0.13
427.345	0.13
427.703	0.13
428.062	0.13
428.42	0.13
428.779	0.11
429.137	0.12
429.496	0.13
429.854	0.12
430.212	0.12
430.57	0.12
430.929	0.13
431.287	0.12
431.645	0.12
432.003	0.12
432.361	0.12
432.719	0.11
433.077	0.12
433.435	0.12
433.793	0.12
434.151	0.1
434.509	0.11
434.866	0.12
435.224	0.12
435.582	0.11
435.94	0.11
436.297	0.11
436.655	0.11
437.012	0.11
437.37	0.12
437.727	0.12
438.085	0.1
438.442	0.12
438.8	0.11
439.157	0.11
439.514	0.1
439.872	0.11
440.229	0.11
440.586	0.11
440.943	0.11
441.3	0.12
441.657	0.12
442.014	0.1
442.371	0.11
442.728	0.11
443.085	0.11
443.442	0.12
443.799	0.11
444.156	0.11
444.513	0.11
444.869	0.11
445.226	0.12
445.583	0.12
445.939	0.11
446.296	0.12
446.652	0.11
447.009	0.12
447.365	0.11
447.722	0.12
448.078	0.11
448.434	0.12
448.791	0.12
449.147	0.12
449.503	0.12
449.859	0.12
450.215	0.12
450.571	0.11
450.928	0.12
451.284	0.11
451.64	0.11
451.995	0.12
452.351	0.11
452.707	0.13
453.063	0.11
453.419	0.1
453.775	0.11
454.13	0.11
454.486	0.12
454.842	0.12
455.197	0.11
455.553	0.12
455.908	0.1
456.264	0.11
456.619	0.1
456.975	0.11
457.33	0.11
457.685	0.1
458.04	0.1
458.396	0.1
458.751	0.1
459.106	0.1
459.461	0.09
459.816	0.1
460.171	0.09
460.526	0.1
460.881	0.1
461.236	0.09
461.591	0.09
461.946	0.09
462.301	0.08
462.655	0.08
463.01	0.09
463.365	0.08
463.719	0.08
464.074	0.07
464.428	0.07
464.783	0.06
465.137	0.06
465.492	0.07
465.846	0.07
466.201	0.06
466.555	0.07
466.909	0.07
467.263	0.07
467.618	0.08
467.972	0.07
468.326	0.08
468.68	0.07
469.034	0.07
469.388	0.08
469.742	0.08
470.096	0.08
470.45	0.08
470.804	0.08
471.157	0.08
471.511	0.09
471.865	0.08
472.218	0.09
472.572	0.09
472.926	0.1
473.279	0.1
473.633	0.11
473.986	0.12
474.34	0.12
474.693	0.14
475.046	0.14
475.4	0.15
475.753	0.15
476.106	0.16
476.459	0.17
476.812	0.17
477.165	0.18
477.519	0.19
477.872	0.19
478.224	0.2
478.577	0.2
478.93	0.21
479.283	0.22
479.636	0.22
479.989	0.23
480.341	0.23
480.694	0.24
481.047	0.24
481.399	0.24
481.752	0.25
482.104	0.26
482.457	0.26
482.809	0.26
483.162	0.27
483.514	0.28
483.866	0.28
484.219	0.28
484.571	0.29
484.923	0.29
485.275	0.29
485.627	0.3
485.979	0.31
486.331	0.3
486.683	0.32
487.035	0.32
487.387	0.33
487.739	0.33
488.091	0.33
488.443	0.33
488.794	0.34
489.146	0.34
489.498	0.34
489.849	0.34
490.201	0.35
490.552	0.35
490.904	0.36
491.255	0.36
491.607	0.36
491.958	0.37
492.309	0.37
492.661	0.37
493.012	0.38
493.363	0.37
493.714	0.39
494.065	0.38
494.416	0.39
494.767	0.39
495.118	0.4
495.469	0.4
495.82	0.4
496.171	0.41
496.522	0.41
496.872	0.41
497.223	0.42
497.574	0.43
497.924	0.42
498.275	0.43
498.626	0.43
498.976	0.44
499.327	0.44
499.677	0.44
500.027	0.45
500.378	0.45
500.728	0.45
501.078	0.46
501.428	0.47
501.779	0.47
502.129	0.47
502.479	0.47
502.829	0.47
503.179	0.48
503.529	0.48
503.879	0.49
504.229	0.48
504.578	0.49
504.928	0.49
505.278	0.5
505.628	0.5
505.977	0.51
506.327	0.51
506.676	0.51
507.026	0.51
507.375	0.52
507.725	0.52
508.074	0.52
508.424	0.52
508.773	0.53
509.122	0.53
509.471	0.54
509.82	0.53
510.17	0.54
510.519	0.54
510.868	0.55
511.217	0.55
511.566	0.55
511.915	0.55
512.263	0.56
512.612	0.56
512.961	0.57
513.31	0.57
513.659	0.57
514.007	0.57
514.356	0.57
514.704	0.58
515.053	0.59
515.401	0.58
515.75	0.59
516.098	0.59
516.447	0.59
516.795	0.6
517.143	0.6
517.491	0.6
517.839	0.6
518.188	0.61
518.536	0.61
518.884	0.61
519.232	0.61
519.58	0.61
519.928	0.62
520.275	0.62
520.623	0.62
520.971	0.63
521.319	0.62
521.666	0.63
522.014	0.63
522.362	0.63
522.709	0.64
523.057	0.64
523.404	0.64
523.752	0.64
524.099	0.64
524.446	0.64
524.794	0.64
525.141	0.65
525.488	0.65
525.835	0.65
526.182	0.66
526.529	0.66
526.876	0.66
527.223	0.67
527.57	0.66
527.917	0.66
528.264	0.66
528.611	0.67
528.958	0.67
529.304	0.67
529.651	0.68
529.998	0.67
530.344	0.68
530.691	0.69
531.037	0.68
531.384	0.68
531.73	0.68
532.076	0.68
532.423	0.69
532.769	0.69
533.115	0.69
533.461	0.69
533.807	0.69
534.154	0.69
534.5	0.7
534.846	0.7
535.192	0.7
535.537	0.7
535.883	0.7
536.229	0.71
536.575	0.7
536.921	0.71
537.266	0.71
537.612	0.71
537.957	0.71
538.303	0.71
538.649	0.72
538.994	0.71
539.339	0.72
539.685	0.71
540.03	0.72
540.375	0.72
540.721	0.73
541.066	0.72
541.411	0.73
541.756	0.72
542.101	0.72
542.446	0.73
542.791	0.72
543.136	0.73
543.481	0.73
543.825	0.73
544.17	0.73
544.515	0.74
544.86	0.72
545.204	0.74
545.549	0.73
545.893	0.74
546.238	0.73
546.582	0.73
546.927	0.73
547.271	0.74
547.615	0.74
547.96	0.74
548.304	0.74
548.648	0.74
548.992	0.74
549.336	0.74
549.68	0.74
550.024	0.75
550.368	0.74
550.712	0.74
551.056	0.74
551.4	0.74
551.743	0.74
552.087	0.74
552.431	0.74
552.774	0.74
553.118	0.74
553.462	0.74
553.805	0.74
554.148	0.74
554.492	0.74
554.835	0.74
555.178	0.74
555.522	0.74
555.865	0.74
556.208	0.73
556.551	0.74
556.894	0.74
557.237	0.74
557.58	0.74
557.923	0.74
558.266	0.74
558.609	0.73
558.952	0.73
559.294	0.73
559.637	0.73
559.98	0.73
560.322	0.74
560.665	0.74
561.007	0.73
561.35	0.73
561.692	0.73
562.034	0.73
562.377	0.73
562.719	0.73
563.061	0.73
563.403	0.73
563.745	0.73
564.088	0.73
564.43	0.72
564.772	0.73
565.113	0.73
565.455	0.73
565.797	0.73
566.139	0.72
566.481	0.72
566.822	0.73
567.164	0.72
567.506	0.72
567.847	0.72
568.189	0.72
568.53	0.72
568.872	0.72
569.213	0.72
569.554	0.71
569.895	0.71
570.237	0.71
570.578	0.71
570.919	0.71
571.26	0.7
571.601	0.71
571.942	0.7
572.283	0.7
572.624	0.7
572.965	0.7
573.306	0.69
573.646	0.69
573.987	0.69
574.328	0.69
574.668	0.69
575.009	0.69
575.349	0.69
575.69	0.69
576.03	0.68
576.37	0.68
576.711	0.67
577.051	0.68
577.391	0.67
577.731	0.68
578.072	0.68
578.412	0.67
578.752	0.67
579.092	0.67
579.431	0.66
579.771	0.63
580.111	0.62
580.451	0.63
580.791	0.65
581.13	0.66
581.47	0.66
581.81	0.66
582.149	0.65
582.489	0.66
582.828	0.65
583.167	0.62
583.507	0.58
583.846	0.56
584.185	0.59
584.525	0.62
584.864	0.63
585.203	0.65
585.542	0.65
585.881	0.66
586.22	0.65
586.559	0.65
586.898	0.63
587.236	0.62
587.575	0.62
587.914	0.62
588.252	0.64
588.591	0.64
588.93	0.64
589.268	0.64
589.607	0.63
589.945	0.64
590.283	0.64
590.622	0.64
590.96	0.64
591.298	0.64
591.636	0.64
591.974	0.65
592.313	0.65
592.651	0.65
592.989	0.65
593.326	0.65
593.664	0.65
594.002	0.65
594.34	0.64
594.678	0.64
595.015	0.63
595.353	0.62
595.691	0.63
596.028	0.64
596.366	0.64
596.703	0.64
597.04	0.64
597.378	0.64
597.715	0.64
598.052	0.64
598.389	0.64
598.726	0.64
599.064	0.64
599.401	0.64
599.738	0.64
600.074	0.64
600.411	0.64
600.748	0.63
601.085	0.63
601.422	0.62
601.758	0.62
602.095	0.62
602.432	0.62
602.768	0.62
603.105	0.63
603.441	0.63
603.777	0.63
604.114	0.63
604.45	0.63
604.786	0.63
605.122	0.63
605.459	0.62
605.795	0.62
606.131	0.62
606.467	0.62
606.803	0.62
607.139	0.62
607.474	0.61
607.81	0.61
608.146	0.61
608.482	0.61
608.817	0.61
609.153	0.61
609.488	0.6
609.824	0.6
610.159	0.6
610.495	0.6
610.83	0.6
611.165	0.6
611.5	0.6
611.836	0.6
612.171	0.6
612.506	0.59
612.841	0.59
613.176	0.59
613.511	0.59
613.845	0.59
614.18	0.58
614.515	0.58
614.85	0.58
615.184	0.58
615.519	0.58
615.854	0.57
616.188	0.57
616.523	0.57
616.857	0.56
617.191	0.57
617.526	0.56
617.86	0.56
618.194	0.56
618.528	0.56
618.862	0.56
619.196	0.56
619.53	0.55
619.864	0.55
620.198	0.55
620.532	0.55
620.866	0.55
621.2	0.54
621.533	0.55
621.867	0.55
622.201	0.54
622.534	0.54
622.868	0.54
623.201	0.53
623.534	0.53
623.868	0.53
624.201	0.52
624.534	0.52
624.868	0.52
625.201	0.52
625.534	0.52
625.867	0.51
626.2	0.51
626.533	0.51
626.865	0.51
627.198	0.5
627.531	0.5
627.864	0.5
628.196	0.5
628.529	0.5
628.862	0.49
629.194	0.49
629.527	0.49
629.859	0.48
630.191	0.48
630.524	0.48
630.856	0.48
631.188	0.48
631.52	0.47
631.852	0.47
632.184	0.47
632.516	0.46
632.848	0.46
633.18	0.46
633.512	0.46
633.844	0.45
634.175	0.45
634.507	0.45
634.839	0.45
635.17	0.44
635.502	0.44
635.833	0.44
636.165	0.43
636.496	0.43
636.827	0.42
637.159	0.42
637.49	0.42
637.821	0.42
638.152	0.41
638.483	0.41
638.814	0.41
639.145	0.41
639.476	0.41
639.807	0.4
640.137	0.4
640.468	0.39
640.799	0.39
641.129	0.39
641.46	0.39
641.791	0.38
642.121	0.38
642.451	0.38
642.782	0.38
643.112	0.38
643.442	0.37
643.773	0.37
644.103	0.37
644.433	0.37
644.763	0.37
645.093	0.36
645.423	0.36
645.753	0.36
646.082	0.36
646.412	0.36
646.742	0.36
647.072	0.35
647.401	0.35
647.731	0.35
648.06	0.35
648.39	0.34
648.719	0.34
649.048	0.34
649.378	0.34
649.707	0.33
650.036	0.33
650.365	0.33
650.694	0.33
651.023	0.33
651.352	0.32
651.681	0.33
652.01	0.33
652.339	0.33
652.668	0.33
652.996	0.33
653.325	0.33
653.654	0.33
653.982	0.32
654.311	0.32
654.639	0.32
654.967	0.32
655.296	0.32
655.624	0.32
655.952	0.32
656.28	0.31
656.609	0.31
656.937	0.32
657.265	0.31
657.593	0.2
657.92	0.09
658.248	0.05
658.576	0.07
658.904	0.16
659.231	0.24
659.559	0.3
659.887	0.3
660.214	0.3
660.542	0.3
660.869	0.29
661.196	0.3
661.524	0.29
661.851	0.3
662.178	0.3
662.505	0.3
662.832	0.29
663.159	0.3
663.486	0.29
663.813	0.29
664.14	0.29
664.467	0.29
664.794	0.29
665.12	0.29
665.447	0.28
665.774	0.28
666.1	0.28
666.427	0.28
666.753	0.28
667.079	0.28
667.406	0.27
667.732	0.27
668.058	0.27
668.384	0.27
668.71	0.27
669.036	0.27
669.362	0.27
669.688	0.27
670.014	0.26
670.34	0.26
670.666	0.26
670.991	0.25
671.317	0.25
671.643	0.25
671.968	0.25
672.294	0.24
672.619	0.24
672.945	0.24
673.27	0.24
673.595	0.24
673.92	0.24
674.246	0.23
674.571	0.23
674.896	0.23
675.221	0.23
675.546	0.23
675.87	0.23
676.195	0.23
676.52	0.23
676.845	0.22
677.169	0.22
677.494	0.22
677.819	0.22
678.143	0.21
678.468	0.21
678.792	0.21
679.116	0.21
679.44	0.21
679.765	0.2
680.089	0.2
680.413	0.2
680.737	0.2
681.061	0.19
681.385	0.2
681.709	0.19
682.033	0.18
682.356	0.18
682.68	0.18
683.004	0.18
683.327	0.18
683.651	0.18
683.974	0.18
684.298	0.17
684.621	0.18
684.944	0.17
685.268	0.17
685.591	0.16
685.914	0.16
686.237	0.16
686.56	0.16
686.883	0.15
687.206	0.15
687.529	0.15
687.852	0.14
688.175	0.14
688.497	0.15
688.82	0.14
689.142	0.14
689.465	0.14
689.787	0.14
690.11	0.14
690.432	0.14
690.755	0.14
691.077	0.13
691.399	0.13
691.721	0.13
692.043	0.13
692.365	0.12
692.687	0.13
693.009	0.12
693.331	0.12
693.653	0.12
693.974	0.12
694.296	0.12
694.618	0.11
694.939	0.11
695.261	0.11
695.582	0.11
695.904	0.11
696.225	0.11
696.546	0.11
696.868	0.11
697.189	0.11
697.51	0.11
697.831	0.1
698.152	0.1
698.473	0.1
698.794	0.09
699.114	0.09
699.435	0.08
699.756	0.09
700.077	0.09
700.397	0.09
700.718	0.09
701.038	0.09
701.359	0.09
701.679	0.09
701.999	0.09
702.32	0.09
702.64	0.09
702.96	0.09
703.28	0.09
703.6	0.09
703.92	0.08
704.24	0.08
704.56	0.08
704.879	0.08
705.199	0.08
705.519	0.08
705.838	0.08
706.158	0.09
706.478	0.08
706.797	0.09
707.116	0.09
707.436	0.09
707.755	0.08
708.074	0.09
708.393	0.08
708.712	0.07
709.031	0.06
709.35	0.06
709.669	0.06
709.988	0.06
710.307	0.06
710.626	0.06
710.944	0.07
711.263	0.07
711.582	0.07
711.9	0.08
712.219	0.07
712.537	0.07
712.855	0.07
713.174	0.07
713.492	0.07
713.81	0.08
714.128	0.08
714.446	0.08
714.764	0.07
715.082	0.06
715.4	0.07
715.718	0.07
716.035	0.07
716.353	0.07
716.671	0.07
716.988	0.07
717.306	0.06
717.623	0.08
717.941	0.08
718.258	0.08
718.575	0.08
718.893	0.08
719.21	0.08
719.527	0.08
719.844	0.08
720.161	0.08
720.478	0.08
720.795	0.08
721.112	0.08
721.428	0.08
721.745	0.08
722.062	0.08
722.378	0.08
722.695	0.08
723.011	0.08
723.328	0.08
723.644	0.08
723.96	0.08
724.276	0.09
724.593	0.08
724.909	0.08
725.225	0.09
725.541	0.09
725.857	0.09
726.173	0.09
726.488	0.09
726.804	0.09
727.12	0.09
727.435	0.09
727.751	0.09
728.067	0.09
728.382	0.09
728.697	0.09
729.013	0.09
729.328	0.09
729.643	0.09
729.958	0.09
730.273	0.09
730.588	0.08
730.903	0.09
731.218	0.09
731.533	0.09
731.848	0.09
732.163	0.09
732.477	0.08
732.792	0.08
733.107	0.08
733.421	0.08
733.736	0.08
734.05	0.08
734.364	0.08
734.678	0.08
734.993	0.08
735.307	0.08
735.621	0.08
735.935	0.08
736.249	0.08
736.563	0.08
736.877	0.08
737.19	0.08
737.504	0.08
737.818	0.08
738.131	0.08
738.445	0.08
738.758	0.08
739.072	0.08
739.385	0.08
739.698	0.08
740.012	0.08
740.325	0.08
740.638	0.08
740.951	0.08
741.264	0.08
741.577	0.08
741.89	0.08
742.203	0.08
742.515	0.08
742.828	0.08
743.141	0.07
743.453	0.07
743.766	0.07
744.078	0.07
744.391	0.06
744.703	0.06
745.015	0.06
745.327	0.06
745.639	0.07
745.952	0.07
746.264	0.07
746.575	0.07
746.887	0.06
747.199	0.06
747.511	0.06
747.823	0.06
748.134	0.06
748.446	0.06
748.757	0.06
749.069	0.06
749.38	0.06
749.692	0.06
750.003	0.06
750.314	0.06
750.625	0.06
750.936	0.06
751.248	0.05
751.559	0.06
751.869	0.06
752.18	0.05
752.491	0.05
752.802	0.05
753.112	0.06
753.423	0.06
753.734	0.06
754.044	0.05
754.355	0.05
754.665	0.05
754.975	0.05
755.285	0.05
755.596	0.05
755.906	0.05
756.216	0.05
756.526	0.05
756.836	0.04
757.146	0.04
757.455	0.04
757.765	0.04
758.075	0.05
758.385	0.04
758.694	0.04
759.004	0.04
759.313	0.04
759.622	0.04
759.932	0.04
760.241	0.04
760.55	0.04
760.859	0.04
761.168	0.04
761.477	0.04
761.786	0.03
762.095	0.03
762.404	0.03
762.713	0.03
763.021	0.03
763.33	0.03
763.639	0.04
763.947	0.03
764.256	0.04
764.564	0.04
764.872	0.03
765.181	0.03
765.489	0.03
765.797	0.03
766.105	0.03
766.413	0.03
766.721	0.03
767.029	0.03
767.337	0.03
767.644	0.03
767.952	0.04
768.26	0.04
768.567	0.04
768.875	0.04
769.182	0.04
769.49	0.04
769.797	0.03
770.104	0.03
770.411	0.03
770.718	0.03
771.026	0.03
771.333	0.03
771.639	0.03
771.946	0.03
772.253	0.03
772.56	0.03
772.867	0.03
773.173	0.03
773.48	0.03
773.786	0.04
774.093	0.04
774.399	0.04
774.705	0.04
775.012	0.04
775.318	0.04
775.624	0.04
775.93	0.04
776.236	0.04
776.542	0.04
776.848	0.04
777.154	0.04
777.459	0.04
777.765	0.04
778.071	0.04
778.376	0.04
778.682	0.04
778.987	0.04
779.292	0.04
779.598	0.04
779.903	0.04
780.208	0.04
780.513	0.04
780.818	0.04
781.123	0.04
781.428	0.04
781.733	0.04
782.038	0.04
782.343	0.04
782.647	0.04
782.952	0.04
783.256	0.04
783.561	0.04
783.865	0.04
784.17	0.04
784.474	0.04
784.778	0.04
785.082	0.04
785.386	0.05
785.69	0.04
785.994	0.05
786.298	0.04
786.602	0.05
786.906	0.04
787.209	0.05
787.513	0.05
787.817	0.05
788.12	0.04
788.424	0.04
788.727	0.04
789.03	0.04
789.333	0.04
789.637	0.05
789.94	0.05
790.243	0.05
790.546	0.05
790.849	0.05
791.152	0.05
791.454	0.05
791.757	0.05
792.06	0.05
792.362	0.05
792.665	0.05
792.967	0.05
793.27	0.05
793.572	0.05
793.874	0.05
794.177	0.05
794.479	0.06
794.781	0.05
795.083	0.05
795.385	0.05
795.687	0.05
795.989	0.05
796.29	0.06
796.592	0.06
796.894	0.05
797.195	0.05
797.497	0.05
797.798	0.05
798.1	0.05
798.401	0.04
798.702	0.05
799.003	0.04
799.304	0.05
799.605	0.04
799.906	0.04
800.207	0.04
800.508	0.04
800.809	0.05
801.11	0.04
801.41	0.04
801.711	0.04
802.011	0.04
802.312	0.04
802.612	0.05
802.913	0.05
803.213	0.05
803.513	0.06
803.813	0.05
804.113	0.06
804.413	0.06
804.713	0.06
805.013	0.06
805.313	0.06
805.613	0.06
805.912	0.06
806.212	0.06
806.511	0.06
806.811	0.06
807.11	0.06
807.41	0.06
807.709	0.06
808.008	0.06
808.307	0.06
808.606	0.06
808.905	0.06
809.204	0.06
809.503	0.06
809.802	0.06
810.101	0.06
810.399	0.06
810.698	0.06
810.997	0.07
811.295	0.06
811.593	0.06
811.892	0.06
812.19	0.07
812.488	0.06
812.786	0.06
813.084	0.06
813.383	0.06
813.68	0.06
813.978	0.07
814.276	0.07
814.574	0.07
814.872	0.07
815.169	0.07
815.467	0.07
815.764	0.07
816.062	0.07
816.359	0.07
816.656	0.07
816.954	0.07
817.251	0.07
817.548	0.07
817.845	0.07
818.142	0.07
818.439	0.07
818.735	0.07
819.032	0.07
819.329	0.07
819.626	0.07
819.922	0.06
820.219	0.07
820.515	0.07
820.811	0.06
821.108	0.07
821.404	0.07
821.7	0.07
821.996	0.07
822.292	0.07
822.588	0.07
822.884	0.07
823.18	0.07
823.475	0.08
823.771	0.07
824.067	0.08
824.362	0.07
824.658	0.08
824.953	0.08
825.249	0.07
825.544	0.07
825.839	0.07
826.134	0.07
826.429	0.07
826.724	0.07
827.019	0.07
827.314	0.08
827.609	0.08
827.904	0.08
828.198	0.08
828.493	0.08
828.787	0.08
829.082	0.08
829.376	0.08
829.671	0.08
829.965	0.08
830.259	0.08
830.553	0.09
830.847	0.08
831.141	0.08
831.435	0.08
831.729	0.09
832.023	0.09
832.317	0.09
832.61	0.09
832.904	0.08
833.197	0.08
833.491	0.09
833.784	0.09
834.077	0.09
834.371	0.09
834.664	0.09
834.957	0.09
835.25	0.09
835.543	0.09
835.836	0.09
836.129	0.09
836.421	0.09
836.714	0.1
837.007	0.1
837.299	0.09
837.592	0.08
837.884	0.09
838.177	0.09
838.469	0.09
838.761	0.09
839.053	0.08
839.345	0.09
839.637	0.09
839.929	0.1
840.221	0.08
840.513	0.09
840.805	0.1
841.096	0.1
841.388	0.09
841.68	0.1
841.971	0.09
842.262	0.09
842.554	0.09
842.845	0.09
843.136	0.09
843.427	0.09
843.718	0.1
844.009	0.1
844.3	0.1
844.591	0.09
844.882	0.09
845.173	0.09
845.463	0.1
845.754	0.1
846.044	0.09
846.335	0.1
846.625	0.1
846.915	0.11
847.206	0.11
847.496	0.11
847.786	0.11
848.076	0.1
848.366	0.12
848.656	0.11
848.945	0.11
849.235	0.12
849.525	0.12
849.814	0.11
850.104	0.12
850.393	0.11
850.683	0.11
850.972	0.12
851.261	0.1
851.551	0.11
851.84	0.1
852.129	0.11
852.418	0.1
852.707	0.1
852.995	0.1
853.284	0.11
853.573	0.1
853.862	0.11
854.15	0.11
854.439	0.12
854.727	0.12
855.015	0.11
855.304	0.12
855.592	0.13
855.88	0.12
856.168	0.13
856.456	0.12
856.744	0.11
857.032	0.12
857.32	0.12
857.607	0.11
857.895	0.11
858.183	0.12
858.47	0.11
858.757	0.11
859.045	0.13
859.332	0.12
859.619	0.11
859.907	0.12
860.194	0.13
860.481	0.13
860.768	0.1
861.054	0.12
861.341	0.11
861.628	0.12
861.915	0.11
862.201	0.1
862.488	0.11
862.774	0.11
863.061	0.12
863.347	0.12
863.633	0.12
863.919	0.1
864.205	0.12
864.491	0.12
864.777	0.11
865.063	0.14
865.349	0.1
865.635	0.13
865.92	0.15
866.206	0.13
866.492	0.13
866.777	0.11
867.062	0.12
867.348	0.12
867.633	0.12
867.918	0.11
868.203	0.13
868.488	0.12
868.773	0.12
869.058	0.1
869.343	0.11
869.628	0.11
869.912	0.11
870.197	0.1
870.482	0.1
870.766	0.1
871.05	0.12
871.335	0.1
871.619	0.1
871.903	0.1
872.187	0.11
872.471	0.1
872.755	0.09
873.039	0.1
873.323	0.09
873.607	0.08
873.89	0.1
874.174	0.13
874.458	0.09
874.741	0.15
875.024	0.2
875.308	0.06
875.591	0.07
875.874	0.03
876.157	0.09
876.44	0.13
876.723	0.16
877.006	0.07
877.289	0.08
877.572	0.07
877.854	0.09
878.137	0.1
878.42	-0
878.702	0.1
878.984	0.12
879.267	0.05
879.549	0.07
879.831	0.04
880.113	0.11
880.395	0.09
880.677	-0.02
880.959	0.09
