Data from Rubpy_BV_1200_EDTA_Buffered_Absorbance_14-00-00-086.txt Node
Date: Wed Jul 01 14:00:00 BST 2026
User: fpm-admin
Spectrometer: OFX00224
Trigger mode: 0
Integration Time (sec): 7.000000E-2
Scans to average: 3
Nonlinearity correction enabled: false
Boxcar width: 0
Storing dark spectrum: false
XAxis mode: Wavelengths
Number of Pixels in Spectrum: 2136
>>>>>Begin Spectral Data<<<<<
154.91	-0.28
155.289	-0
155.669	-0.23
156.048	-0.71
156.428	-0.4
156.807	0.15
157.186	-0.54
157.566	-0
157.945	0.15
158.325	0.19
158.704	-0.9
159.083	-0
159.462	-0
159.842	-0.16
160.221	-0
160.6	0.65
160.979	-0
161.359	-0
161.738	-0
162.117	0.44
162.496	-0
162.875	-0.15
163.254	-0
163.633	-0
164.012	-0.85
164.391	1.15
164.77	-0
165.149	1.27
165.528	-0.09
165.907	-0
166.286	0.11
166.665	0.2
167.044	-1.04
167.423	0.06
167.802	-0.2
168.181	-0
168.559	0.78
168.938	0.13
169.317	-0.01
169.696	0.56
170.074	-0
170.453	-0.1
170.832	-0.17
171.21	-0.45
171.589	-0
171.968	0.52
172.346	0.31
172.725	-0
173.103	-0.57
173.482	0.03
173.861	-0.3
174.239	1.11
174.617	-0
174.996	-0
175.374	-0
175.753	0.47
176.131	-0.88
176.51	0.32
176.888	-0
177.266	-0
177.645	0.04
178.023	0.55
178.401	-0.17
178.779	-0
179.158	-0
179.536	-0.18
179.914	-0
180.292	-0
180.67	0.34
181.048	0.46
181.427	-0.37
181.805	-0.11
182.183	-0.09
182.561	-0.7
182.939	-0
183.317	-0.95
183.695	1.41
184.073	-0.33
184.451	-0
184.829	0.37
185.206	-0.13
185.584	-0.38
185.962	-0
186.34	-1.01
186.718	-0
187.096	-0
187.473	0.65
187.851	-0.16
188.229	-0.54
188.607	0.23
188.984	0.32
189.362	0.21
189.74	0.21
190.117	0.3
190.495	0.2
190.872	0.19
191.25	0.34
191.627	0.16
192.005	0.13
192.382	0.18
192.76	0.24
193.137	0.21
193.515	0.13
193.892	0.11
194.269	0.2
194.647	0.31
195.024	0.12
195.401	0.15
195.779	0.15
196.156	0.18
196.533	0.22
196.91	0.24
197.288	0.2
197.665	0.29
198.042	0.28
198.419	0.38
198.796	0.12
199.173	0.18
199.55	0.29
199.927	0.11
200.304	0.27
200.681	0.26
201.058	0.26
201.435	0.15
201.812	0.36
202.189	0.2
202.566	0.14
202.943	0.3
203.32	0.26
203.697	0.27
204.073	0.36
204.45	0.22
204.827	0.18
205.204	0.27
205.58	0.37
205.957	0.11
206.334	0.23
206.71	0.35
207.087	0.18
207.464	0.33
207.84	0.34
208.217	0.35
208.593	0.28
208.97	0.18
209.346	0.26
209.723	0.3
210.099	0.18
210.476	0.2
210.852	0.19
211.228	0.23
211.605	0.22
211.981	0.31
212.357	0.15
212.733	0.17
213.11	0.18
213.486	0.17
213.862	0.21
214.238	0.17
214.614	0.23
214.991	0.21
215.367	0.33
215.743	0.22
216.119	0.25
216.495	0.21
216.871	0.31
217.247	0.27
217.623	0.28
217.999	0.26
218.375	0.2
218.751	0.26
219.127	0.19
219.502	0.24
219.878	0.21
220.254	0.29
220.63	0.3
221.006	0.22
221.381	0.25
221.757	0.15
222.133	0.22
222.508	0.27
222.884	0.27
223.26	0.24
223.635	0.19
224.011	0.3
224.386	0.29
224.762	0.26
225.137	0.35
225.513	0.14
225.888	0.27
226.264	0.31
226.639	0.27
227.014	0.33
227.39	0.32
227.765	0.46
228.14	0.31
228.516	0.28
228.891	0.21
229.266	0.34
229.641	0.27
230.017	0.42
230.392	0.29
230.767	0.21
231.142	0.22
231.517	0.27
231.892	0.32
232.267	0.24
232.642	0.37
233.017	0.21
233.392	0.28
233.767	0.35
234.142	0.38
234.517	0.18
234.892	0.21
235.267	0.36
235.641	0.29
236.016	0.24
236.391	0.21
236.766	0.23
237.14	0.28
237.515	0.33
237.89	0.25
238.264	0.24
238.639	0.19
239.014	0.2
239.388	0.2
239.763	0.25
240.137	0.15
240.512	0.25
240.886	0.27
241.261	0.31
241.635	0.28
242.009	0.37
242.384	0.3
242.758	0.29
243.132	0.25
243.507	0.3
243.881	0.29
244.255	0.29
244.629	0.3
245.004	0.28
245.378	0.21
245.752	0.12
246.126	0.23
246.5	0.41
246.874	0.43
247.248	0.31
247.622	0.21
247.996	0.21
248.37	0.26
248.744	0.25
249.118	0.28
249.492	0.19
249.866	0.28
250.24	0.17
250.613	0.11
250.987	0.35
251.361	0.32
251.735	0.2
252.108	0.2
252.482	0.24
252.856	0.2
253.229	0.28
253.603	0.27
253.977	0.17
254.35	0.31
254.724	0.3
255.097	0.31
255.471	0.33
255.844	0.29
256.218	0.35
256.591	0.27
256.964	0.16
257.338	0.24
257.711	0.26
258.084	0.35
258.458	0.25
258.831	0.32
259.204	0.22
259.577	0.35
259.95	0.33
260.323	0.27
260.697	0.26
261.07	0.41
261.443	0.45
261.816	0.27
262.189	0.33
262.562	0.34
262.935	0.21
263.308	0.27
263.68	0.42
264.053	0.31
264.426	0.26
264.799	0.24
265.172	0.25
265.545	0.32
265.917	0.32
266.29	0.31
266.663	0.24
267.035	0.28
267.408	0.35
267.781	0.3
268.153	0.28
268.526	0.24
268.898	0.28
269.271	0.22
269.643	0.29
270.016	0.22
270.388	0.26
270.76	0.24
271.133	0.25
271.505	0.23
271.877	0.28
272.25	0.35
272.622	0.3
272.994	0.29
273.366	0.2
273.739	0.38
274.111	0.21
274.483	0.28
274.855	0.35
275.227	0.25
275.599	0.23
275.971	0.27
276.343	0.24
276.715	0.23
277.087	0.33
277.459	0.28
277.831	0.22
278.203	0.28
278.574	0.24
278.946	0.32
279.318	0.29
279.69	0.29
280.061	0.27
280.433	0.29
280.805	0.35
281.176	0.24
281.548	0.39
281.92	0.22
282.291	0.27
282.663	0.28
283.034	0.27
283.406	0.31
283.777	0.26
284.148	0.29
284.52	0.28
284.891	0.27
285.262	0.26
285.634	0.36
286.005	0.24
286.376	0.27
286.747	0.21
287.119	0.29
287.49	0.27
287.861	0.29
288.232	0.26
288.603	0.22
288.974	0.32
289.345	0.2
289.716	0.21
290.087	0.28
290.458	0.29
290.829	0.33
291.2	0.22
291.571	0.31
291.941	0.34
292.312	0.27
292.683	0.19
293.054	0.26
293.424	0.29
293.795	0.27
294.166	0.3
294.536	0.31
294.907	0.31
295.277	0.21
295.648	0.28
296.018	0.31
296.389	0.25
296.759	0.28
297.13	0.27
297.5	0.31
297.871	0.44
298.241	0.29
298.611	0.31
298.981	0.31
299.352	0.24
299.722	0.26
300.092	0.22
300.462	0.5
300.832	0.3
301.202	0.28
301.573	0.23
301.943	0.23
302.313	0.24
302.683	0.22
303.053	0.26
303.422	0.28
303.792	0.31
304.162	0.25
304.532	0.21
304.902	0.24
305.272	0.23
305.641	0.21
306.011	0.18
306.381	0.2
306.75	0.2
307.12	0.22
307.49	0.2
307.859	0.21
308.229	0.23
308.598	0.18
308.968	0.16
309.337	0.19
309.707	0.2
310.076	0.18
310.445	0.17
310.815	0.19
311.184	0.18
311.553	0.2
311.923	0.2
312.292	0.2
312.661	0.21
313.03	0.21
313.399	0.23
313.768	0.23
314.137	0.22
314.506	0.23
314.875	0.24
315.244	0.24
315.613	0.24
315.982	0.25
316.351	0.24
316.72	0.24
317.089	0.25
317.458	0.25
317.826	0.26
318.195	0.26
318.564	0.25
318.933	0.26
319.301	0.26
319.67	0.28
320.038	0.28
320.407	0.27
320.775	0.29
321.144	0.28
321.512	0.3
321.881	0.31
322.249	0.3
322.618	0.31
322.986	0.32
323.354	0.32
323.723	0.32
324.091	0.32
324.459	0.34
324.827	0.34
325.195	0.33
325.564	0.35
325.932	0.35
326.3	0.35
326.668	0.35
327.036	0.36
327.404	0.38
327.772	0.38
328.14	0.38
328.508	0.38
328.875	0.4
329.243	0.39
329.611	0.41
329.979	0.41
330.346	0.42
330.714	0.43
331.082	0.44
331.449	0.43
331.817	0.44
332.185	0.45
332.552	0.45
332.92	0.47
333.287	0.47
333.655	0.47
334.022	0.5
334.389	0.5
334.757	0.52
335.124	0.52
335.491	0.54
335.859	0.54
336.226	0.55
336.593	0.57
336.96	0.57
337.327	0.58
337.695	0.59
338.062	0.61
338.429	0.62
338.796	0.62
339.163	0.64
339.53	0.65
339.897	0.66
340.263	0.68
340.63	0.68
340.997	0.69
341.364	0.7
341.731	0.72
342.097	0.73
342.464	0.74
342.831	0.75
343.197	0.76
343.564	0.78
343.931	0.78
344.297	0.79
344.664	0.81
345.03	0.81
345.396	0.84
345.763	0.85
346.129	0.86
346.496	0.88
346.862	0.88
347.228	0.91
347.594	0.91
347.961	0.91
348.327	0.93
348.693	0.94
349.059	0.96
349.425	0.97
349.791	0.98
350.157	0.99
350.523	1.01
350.889	1.01
351.255	1.02
351.621	1.03
351.987	1.04
352.353	1.06
352.719	1.08
353.084	1.08
353.45	1.09
353.816	1.1
354.181	1.11
354.547	1.14
354.913	1.14
355.278	1.16
355.644	1.18
356.009	1.18
356.375	1.19
356.74	1.2
357.106	1.22
357.471	1.25
357.836	1.23
358.202	1.26
358.567	1.29
358.932	1.29
359.297	1.32
359.663	1.36
360.028	1.35
360.393	1.36
360.758	1.38
361.123	1.4
361.488	1.42
361.853	1.44
362.218	1.46
362.583	1.48
362.948	1.48
363.312	1.5
363.677	1.51
364.042	1.55
364.407	1.52
364.772	1.55
365.136	1.58
365.501	1.57
365.865	1.57
366.23	1.61
366.595	1.57
366.959	1.62
367.324	1.59
367.688	1.63
368.052	1.64
368.417	1.65
368.781	1.64
369.145	1.68
369.51	1.67
369.874	1.66
370.238	1.7
370.602	1.69
370.967	1.71
371.331	1.71
371.695	1.71
372.059	1.72
372.423	1.75
372.787	1.73
373.151	1.7
373.515	1.73
373.878	1.75
374.242	1.72
374.606	1.7
374.97	1.67
375.334	1.68
375.697	1.66
376.061	1.65
376.425	1.64
376.788	1.64
377.152	1.6
377.515	1.6
377.879	1.6
378.242	1.61
378.606	1.57
378.969	1.54
379.333	1.55
379.696	1.53
380.059	1.5
380.422	1.49
380.786	1.45
381.149	1.46
381.512	1.44
381.875	1.42
382.238	1.42
382.601	1.39
382.964	1.37
383.327	1.36
383.69	1.35
384.053	1.33
384.416	1.33
384.779	1.3
385.142	1.3
385.504	1.29
385.867	1.27
386.23	1.27
386.593	1.28
386.955	1.26
387.318	1.27
387.68	1.24
388.043	1.25
388.405	1.25
388.768	1.23
389.13	1.24
389.493	1.23
389.855	1.23
390.217	1.22
390.58	1.19
390.942	1.18
391.304	1.16
391.666	1.16
392.028	1.14
392.391	1.12
392.753	1.11
393.115	1.1
393.477	1.08
393.839	1.07
394.201	1.06
394.563	1.06
394.924	1.05
395.286	1.05
395.648	1.06
396.01	1.06
396.371	1.07
396.733	1.09
397.095	1.09
397.456	1.11
397.818	1.13
398.18	1.15
398.541	1.17
398.903	1.19
399.264	1.24
399.625	1.25
399.987	1.29
400.348	1.29
400.709	1.31
401.071	1.31
401.432	1.33
401.793	1.32
402.154	1.31
402.515	1.29
402.876	1.28
403.238	1.26
403.599	1.23
403.96	1.19
404.32	1.15
404.681	1.12
405.042	1.08
405.403	1.03
405.764	0.99
406.125	0.95
406.485	0.91
406.846	0.86
407.207	0.8
407.567	0.76
407.928	0.72
408.288	0.68
408.649	0.65
409.009	0.62
409.37	0.57
409.73	0.55
410.091	0.52
410.451	0.49
410.811	0.47
411.171	0.44
411.532	0.42
411.892	0.4
412.252	0.38
412.612	0.37
412.972	0.35
413.332	0.34
413.692	0.32
414.052	0.31
414.412	0.3
414.772	0.29
415.132	0.27
415.492	0.27
415.851	0.26
416.211	0.25
416.571	0.24
416.931	0.24
417.29	0.22
417.65	0.22
418.009	0.22
418.369	0.21
418.728	0.21
419.088	0.2
419.447	0.2
419.807	0.19
420.166	0.18
420.525	0.19
420.884	0.18
421.244	0.18
421.603	0.17
421.962	0.17
422.321	0.17
422.68	0.16
423.039	0.16
423.398	0.17
423.757	0.15
424.116	0.16
424.475	0.15
424.834	0.15
425.193	0.15
425.551	0.14
425.91	0.15
426.269	0.14
426.628	0.15
426.986	0.14
427.345	0.14
427.703	0.15
428.062	0.14
428.42	0.14
428.779	0.13
429.137	0.14
429.496	0.14
429.854	0.13
430.212	0.13
430.57	0.14
430.929	0.13
431.287	0.13
431.645	0.13
432.003	0.13
432.361	0.13
432.719	0.13
433.077	0.13
433.435	0.13
433.793	0.13
434.151	0.12
434.509	0.12
434.866	0.13
435.224	0.13
435.582	0.12
435.94	0.13
436.297	0.13
436.655	0.13
437.012	0.13
437.37	0.13
437.727	0.13
438.085	0.12
438.442	0.13
438.8	0.12
439.157	0.13
439.514	0.12
439.872	0.12
440.229	0.13
440.586	0.12
440.943	0.13
441.3	0.13
441.657	0.13
442.014	0.13
442.371	0.13
442.728	0.13
443.085	0.13
443.442	0.13
443.799	0.13
444.156	0.13
444.513	0.13
444.869	0.13
445.226	0.13
445.583	0.13
445.939	0.13
446.296	0.14
446.652	0.13
447.009	0.13
447.365	0.14
447.722	0.13
448.078	0.13
448.434	0.14
448.791	0.13
449.147	0.13
449.503	0.14
449.859	0.14
450.215	0.14
450.571	0.13
450.928	0.13
451.284	0.14
451.64	0.13
451.995	0.13
452.351	0.13
452.707	0.15
453.063	0.13
453.419	0.13
453.775	0.13
454.13	0.13
454.486	0.12
454.842	0.14
455.197	0.13
455.553	0.13
455.908	0.13
456.264	0.12
456.619	0.13
456.975	0.13
457.33	0.14
457.685	0.12
458.04	0.12
458.396	0.12
458.751	0.11
459.106	0.12
459.461	0.11
459.816	0.11
460.171	0.11
460.526	0.12
460.881	0.1
461.236	0.11
461.591	0.11
461.946	0.11
462.301	0.11
462.655	0.1
463.01	0.1
463.365	0.1
463.719	0.09
464.074	0.09
464.428	0.09
464.783	0.08
465.137	0.08
465.492	0.09
465.846	0.09
466.201	0.09
466.555	0.09
466.909	0.09
467.263	0.1
467.618	0.1
467.972	0.1
468.326	0.1
468.68	0.09
469.034	0.09
469.388	0.09
469.742	0.1
470.096	0.1
470.45	0.1
470.804	0.1
471.157	0.1
471.511	0.11
471.865	0.1
472.218	0.12
472.572	0.12
472.926	0.12
473.279	0.13
473.633	0.13
473.986	0.14
474.34	0.15
474.693	0.16
475.046	0.17
475.4	0.17
475.753	0.18
476.106	0.19
476.459	0.2
476.812	0.2
477.165	0.21
477.519	0.22
477.872	0.23
478.224	0.23
478.577	0.24
478.93	0.24
479.283	0.24
479.636	0.25
479.989	0.26
480.341	0.26
480.694	0.27
481.047	0.28
481.399	0.28
481.752	0.29
482.104	0.3
482.457	0.3
482.809	0.31
483.162	0.31
483.514	0.31
483.866	0.32
484.219	0.32
484.571	0.33
484.923	0.33
485.275	0.33
485.627	0.34
485.979	0.35
486.331	0.35
486.683	0.36
487.035	0.36
487.387	0.37
487.739	0.37
488.091	0.37
488.443	0.38
488.794	0.39
489.146	0.39
489.498	0.39
489.849	0.4
490.201	0.39
490.552	0.4
490.904	0.4
491.255	0.41
491.607	0.41
491.958	0.41
492.309	0.42
492.661	0.42
493.012	0.43
493.363	0.42
493.714	0.43
494.065	0.44
494.416	0.44
494.767	0.45
495.118	0.45
495.469	0.45
495.82	0.46
496.171	0.46
496.522	0.46
496.872	0.48
497.223	0.48
497.574	0.48
497.924	0.48
498.275	0.48
498.626	0.49
498.976	0.49
499.327	0.5
499.677	0.5
500.027	0.5
500.378	0.51
500.728	0.52
501.078	0.51
501.428	0.52
501.779	0.53
502.129	0.53
502.479	0.54
502.829	0.53
503.179	0.54
503.529	0.54
503.879	0.54
504.229	0.55
504.578	0.55
504.928	0.56
505.278	0.56
505.628	0.57
505.977	0.58
506.327	0.57
506.676	0.58
507.026	0.58
507.375	0.58
507.725	0.59
508.074	0.59
508.424	0.59
508.773	0.6
509.122	0.6
509.471	0.6
509.82	0.6
510.17	0.61
510.519	0.61
510.868	0.62
511.217	0.63
511.566	0.62
511.915	0.63
512.263	0.63
512.612	0.64
512.961	0.64
513.31	0.64
513.659	0.65
514.007	0.64
514.356	0.65
514.704	0.65
515.053	0.66
515.401	0.66
515.75	0.66
516.098	0.67
516.447	0.67
516.795	0.67
517.143	0.68
517.491	0.67
517.839	0.68
518.188	0.68
518.536	0.69
518.884	0.69
519.232	0.68
519.58	0.69
519.928	0.69
520.275	0.69
520.623	0.7
520.971	0.7
521.319	0.71
521.666	0.71
522.014	0.71
522.362	0.71
522.709	0.72
523.057	0.72
523.404	0.72
523.752	0.72
524.099	0.72
524.446	0.73
524.794	0.73
525.141	0.73
525.488	0.73
525.835	0.74
526.182	0.74
526.529	0.73
526.876	0.75
527.223	0.75
527.57	0.75
527.917	0.74
528.264	0.75
528.611	0.75
528.958	0.76
529.304	0.75
529.651	0.76
529.998	0.76
530.344	0.77
530.691	0.76
531.037	0.77
531.384	0.77
531.73	0.78
532.076	0.77
532.423	0.77
532.769	0.77
533.115	0.77
533.461	0.78
533.807	0.77
534.154	0.77
534.5	0.79
534.846	0.78
535.192	0.79
535.537	0.79
535.883	0.79
536.229	0.8
536.575	0.8
536.921	0.8
537.266	0.8
537.612	0.8
537.957	0.8
538.303	0.8
538.649	0.81
538.994	0.8
539.339	0.8
539.685	0.81
540.03	0.81
540.375	0.81
540.721	0.81
541.066	0.81
541.411	0.81
541.756	0.81
542.101	0.82
542.446	0.82
542.791	0.82
543.136	0.81
543.481	0.82
543.825	0.82
544.17	0.82
544.515	0.81
544.86	0.82
545.204	0.83
545.549	0.82
545.893	0.83
546.238	0.82
546.582	0.83
546.927	0.83
547.271	0.83
547.615	0.82
547.96	0.83
548.304	0.83
548.648	0.83
548.992	0.83
549.336	0.83
549.68	0.83
550.024	0.83
550.368	0.83
550.712	0.83
551.056	0.84
551.4	0.83
551.743	0.83
552.087	0.83
552.431	0.83
552.774	0.83
553.118	0.83
553.462	0.83
553.805	0.83
554.148	0.83
554.492	0.83
554.835	0.83
555.178	0.82
555.522	0.83
555.865	0.83
556.208	0.82
556.551	0.83
556.894	0.83
557.237	0.83
557.58	0.83
557.923	0.82
558.266	0.82
558.609	0.82
558.952	0.82
559.294	0.82
559.637	0.82
559.98	0.82
560.322	0.82
560.665	0.81
561.007	0.82
561.35	0.82
561.692	0.82
562.034	0.82
562.377	0.82
562.719	0.82
563.061	0.81
563.403	0.81
563.745	0.81
564.088	0.81
564.43	0.81
564.772	0.81
565.113	0.81
565.455	0.81
565.797	0.81
566.139	0.81
566.481	0.8
566.822	0.81
567.164	0.8
567.506	0.8
567.847	0.8
568.189	0.8
568.53	0.8
568.872	0.8
569.213	0.8
569.554	0.79
569.895	0.8
570.237	0.8
570.578	0.8
570.919	0.79
571.26	0.79
571.601	0.79
571.942	0.79
572.283	0.78
572.624	0.78
572.965	0.78
573.306	0.78
573.646	0.77
573.987	0.77
574.328	0.77
574.668	0.77
575.009	0.77
575.349	0.77
575.69	0.76
576.03	0.76
576.37	0.76
576.711	0.75
577.051	0.76
577.391	0.76
577.731	0.75
578.072	0.75
578.412	0.75
578.752	0.75
579.092	0.75
579.431	0.73
579.771	0.71
580.111	0.7
580.451	0.71
580.791	0.73
581.13	0.74
581.47	0.73
581.81	0.73
582.149	0.73
582.489	0.73
582.828	0.72
583.167	0.69
583.507	0.65
583.846	0.64
584.185	0.67
584.525	0.69
584.864	0.71
585.203	0.72
585.542	0.72
585.881	0.72
586.22	0.72
586.559	0.71
586.898	0.7
587.236	0.69
587.575	0.69
587.914	0.69
588.252	0.71
588.591	0.72
588.93	0.71
589.268	0.7
589.607	0.71
589.945	0.71
590.283	0.71
590.622	0.71
590.96	0.72
591.298	0.72
591.636	0.71
591.974	0.71
592.313	0.72
592.651	0.72
592.989	0.72
593.326	0.72
593.664	0.72
594.002	0.72
594.34	0.71
594.678	0.7
595.015	0.7
595.353	0.69
595.691	0.7
596.028	0.71
596.366	0.71
596.703	0.71
597.04	0.71
597.378	0.71
597.715	0.71
598.052	0.71
598.389	0.71
598.726	0.71
599.064	0.71
599.401	0.71
599.738	0.71
600.074	0.71
600.411	0.7
600.748	0.7
601.085	0.7
601.422	0.69
601.758	0.69
602.095	0.69
602.432	0.69
602.768	0.69
603.105	0.7
603.441	0.7
603.777	0.7
604.114	0.69
604.45	0.69
604.786	0.69
605.122	0.69
605.459	0.69
605.795	0.69
606.131	0.69
606.467	0.68
606.803	0.68
607.139	0.68
607.474	0.68
607.81	0.68
608.146	0.67
608.482	0.68
608.817	0.67
609.153	0.67
609.488	0.66
609.824	0.67
610.159	0.67
610.495	0.66
610.83	0.66
611.165	0.66
611.5	0.66
611.836	0.65
612.171	0.66
612.506	0.66
612.841	0.66
613.176	0.65
613.511	0.65
613.845	0.65
614.18	0.65
614.515	0.64
614.85	0.64
615.184	0.64
615.519	0.64
615.854	0.63
616.188	0.63
616.523	0.63
616.857	0.62
617.191	0.62
617.526	0.62
617.86	0.62
618.194	0.61
618.528	0.61
618.862	0.61
619.196	0.61
619.53	0.61
619.864	0.61
620.198	0.61
620.532	0.6
620.866	0.61
621.2	0.6
621.533	0.6
621.867	0.6
622.201	0.59
622.534	0.59
622.868	0.59
623.201	0.59
623.534	0.58
623.868	0.58
624.201	0.58
624.534	0.58
624.868	0.57
625.201	0.57
625.534	0.57
625.867	0.57
626.2	0.57
626.533	0.57
626.865	0.56
627.198	0.56
627.531	0.55
627.864	0.55
628.196	0.55
628.529	0.55
628.862	0.54
629.194	0.54
629.527	0.54
629.859	0.53
630.191	0.53
630.524	0.53
630.856	0.53
631.188	0.52
631.52	0.52
631.852	0.52
632.184	0.52
632.516	0.51
632.848	0.51
633.18	0.51
633.512	0.5
633.844	0.5
634.175	0.49
634.507	0.49
634.839	0.49
635.17	0.49
635.502	0.48
635.833	0.48
636.165	0.48
636.496	0.47
636.827	0.47
637.159	0.47
637.49	0.46
637.821	0.46
638.152	0.45
638.483	0.45
638.814	0.45
639.145	0.45
639.476	0.44
639.807	0.44
640.137	0.44
640.468	0.44
640.799	0.43
641.129	0.43
641.46	0.43
641.791	0.42
642.121	0.42
642.451	0.42
642.782	0.42
643.112	0.42
643.442	0.41
643.773	0.41
644.103	0.4
644.433	0.4
644.763	0.4
645.093	0.4
645.423	0.4
645.753	0.4
646.082	0.39
646.412	0.39
646.742	0.39
647.072	0.39
647.401	0.39
647.731	0.38
648.06	0.38
648.39	0.38
648.719	0.38
649.048	0.38
649.378	0.37
649.707	0.37
650.036	0.37
650.365	0.37
650.694	0.36
651.023	0.36
651.352	0.36
651.681	0.36
652.01	0.36
652.339	0.36
652.668	0.36
652.996	0.36
653.325	0.36
653.654	0.36
653.982	0.36
654.311	0.36
654.639	0.35
654.967	0.35
655.296	0.35
655.624	0.35
655.952	0.35
656.28	0.35
656.609	0.34
656.937	0.35
657.265	0.35
657.593	0.23
657.92	0.12
658.248	0.08
658.576	0.09
658.904	0.19
659.231	0.27
659.559	0.32
659.887	0.33
660.214	0.33
660.542	0.33
660.869	0.33
661.196	0.33
661.524	0.32
661.851	0.33
662.178	0.33
662.505	0.33
662.832	0.32
663.159	0.32
663.486	0.32
663.813	0.32
664.14	0.32
664.467	0.31
664.794	0.31
665.12	0.31
665.447	0.31
665.774	0.31
666.1	0.31
666.427	0.31
666.753	0.3
667.079	0.3
667.406	0.3
667.732	0.3
668.058	0.3
668.384	0.3
668.71	0.3
669.036	0.29
669.362	0.29
669.688	0.29
670.014	0.29
670.34	0.29
670.666	0.28
670.991	0.28
671.317	0.28
671.643	0.27
671.968	0.27
672.294	0.27
672.619	0.27
672.945	0.26
673.27	0.26
673.595	0.27
673.92	0.26
674.246	0.26
674.571	0.26
674.896	0.26
675.221	0.25
675.546	0.25
675.87	0.25
676.195	0.25
676.52	0.25
676.845	0.24
677.169	0.24
677.494	0.24
677.819	0.24
678.143	0.24
678.468	0.23
678.792	0.23
679.116	0.23
679.44	0.23
679.765	0.23
680.089	0.22
680.413	0.22
680.737	0.21
681.061	0.21
681.385	0.21
681.709	0.21
682.033	0.2
682.356	0.2
682.68	0.2
683.004	0.2
683.327	0.2
683.651	0.19
683.974	0.19
684.298	0.19
684.621	0.19
684.944	0.19
685.268	0.18
685.591	0.18
685.914	0.18
686.237	0.17
686.56	0.17
686.883	0.17
687.206	0.17
687.529	0.16
687.852	0.16
688.175	0.16
688.497	0.16
688.82	0.16
689.142	0.16
689.465	0.16
689.787	0.16
690.11	0.16
690.432	0.15
690.755	0.15
691.077	0.15
691.399	0.14
691.721	0.14
692.043	0.14
692.365	0.14
692.687	0.14
693.009	0.13
693.331	0.13
693.653	0.13
693.974	0.13
694.296	0.13
694.618	0.13
694.939	0.13
695.261	0.12
695.582	0.12
695.904	0.12
696.225	0.12
696.546	0.12
696.868	0.12
697.189	0.12
697.51	0.12
697.831	0.11
698.152	0.11
698.473	0.11
698.794	0.1
699.114	0.1
699.435	0.09
699.756	0.09
700.077	0.1
700.397	0.1
700.718	0.1
701.038	0.1
701.359	0.1
701.679	0.1
701.999	0.1
702.32	0.1
702.64	0.1
702.96	0.1
703.28	0.1
703.6	0.1
703.92	0.09
704.24	0.09
704.56	0.09
704.879	0.09
705.199	0.09
705.519	0.09
705.838	0.09
706.158	0.1
706.478	0.09
706.797	0.09
707.116	0.09
707.436	0.09
707.755	0.09
708.074	0.09
708.393	0.08
708.712	0.08
709.031	0.07
709.35	0.07
709.669	0.07
709.988	0.07
710.307	0.07
710.626	0.07
710.944	0.08
711.263	0.08
711.582	0.08
711.9	0.08
712.219	0.08
712.537	0.08
712.855	0.08
713.174	0.08
713.492	0.08
713.81	0.08
714.128	0.08
714.446	0.09
714.764	0.08
715.082	0.07
715.4	0.08
715.718	0.08
716.035	0.07
716.353	0.08
716.671	0.08
716.988	0.07
717.306	0.07
717.623	0.08
717.941	0.09
718.258	0.09
718.575	0.09
718.893	0.09
719.21	0.09
719.527	0.09
719.844	0.08
720.161	0.09
720.478	0.09
720.795	0.09
721.112	0.09
721.428	0.09
721.745	0.09
722.062	0.09
722.378	0.09
722.695	0.09
723.011	0.09
723.328	0.09
723.644	0.09
723.96	0.09
724.276	0.09
724.593	0.09
724.909	0.09
725.225	0.09
725.541	0.1
725.857	0.1
726.173	0.1
726.488	0.1
726.804	0.1
727.12	0.1
727.435	0.1
727.751	0.1
728.067	0.09
728.382	0.1
728.697	0.1
729.013	0.1
729.328	0.1
729.643	0.1
729.958	0.1
730.273	0.1
730.588	0.09
730.903	0.1
731.218	0.09
731.533	0.1
731.848	0.09
732.163	0.09
732.477	0.09
732.792	0.09
733.107	0.08
733.421	0.09
733.736	0.09
734.05	0.09
734.364	0.09
734.678	0.09
734.993	0.09
735.307	0.09
735.621	0.08
735.935	0.08
736.249	0.08
736.563	0.09
736.877	0.09
737.19	0.09
737.504	0.09
737.818	0.09
738.131	0.09
738.445	0.09
738.758	0.09
739.072	0.09
739.385	0.09
739.698	0.09
740.012	0.09
740.325	0.09
740.638	0.09
740.951	0.08
741.264	0.08
741.577	0.09
741.89	0.09
742.203	0.09
742.515	0.09
742.828	0.08
743.141	0.08
743.453	0.08
743.766	0.08
744.078	0.08
744.391	0.07
744.703	0.07
745.015	0.07
745.327	0.07
745.639	0.07
745.952	0.07
746.264	0.07
746.575	0.07
746.887	0.07
747.199	0.07
747.511	0.07
747.823	0.07
748.134	0.06
748.446	0.06
748.757	0.06
749.069	0.06
749.38	0.06
749.692	0.06
750.003	0.06
750.314	0.06
750.625	0.06
750.936	0.06
751.248	0.06
751.559	0.06
751.869	0.06
752.18	0.06
752.491	0.06
752.802	0.06
753.112	0.06
753.423	0.06
753.734	0.06
754.044	0.06
754.355	0.06
754.665	0.06
754.975	0.06
755.285	0.06
755.596	0.05
755.906	0.06
756.216	0.05
756.526	0.05
756.836	0.05
757.146	0.05
757.455	0.05
757.765	0.05
758.075	0.05
758.385	0.05
758.694	0.05
759.004	0.05
759.313	0.04
759.622	0.04
759.932	0.04
760.241	0.04
760.55	0.04
760.859	0.04
761.168	0.04
761.477	0.04
761.786	0.04
762.095	0.04
762.404	0.04
762.713	0.04
763.021	0.04
763.33	0.04
763.639	0.04
763.947	0.04
764.256	0.04
764.564	0.04
764.872	0.04
765.181	0.04
765.489	0.04
765.797	0.04
766.105	0.04
766.413	0.04
766.721	0.04
767.029	0.04
767.337	0.04
767.644	0.04
767.952	0.04
768.26	0.04
768.567	0.04
768.875	0.04
769.182	0.04
769.49	0.04
769.797	0.04
770.104	0.04
770.411	0.04
770.718	0.04
771.026	0.04
771.333	0.04
771.639	0.04
771.946	0.04
772.253	0.04
772.56	0.04
772.867	0.04
773.173	0.04
773.48	0.04
773.786	0.04
774.093	0.04
774.399	0.05
774.705	0.05
775.012	0.04
775.318	0.04
775.624	0.05
775.93	0.04
776.236	0.04
776.542	0.04
776.848	0.05
777.154	0.05
777.459	0.04
777.765	0.04
778.071	0.04
778.376	0.04
778.682	0.05
778.987	0.05
779.292	0.04
779.598	0.04
779.903	0.04
780.208	0.04
780.513	0.04
780.818	0.04
781.123	0.04
781.428	0.04
781.733	0.05
782.038	0.05
782.343	0.05
782.647	0.05
782.952	0.05
783.256	0.04
783.561	0.04
783.865	0.04
784.17	0.05
784.474	0.05
784.778	0.05
785.082	0.05
785.386	0.05
785.69	0.05
785.994	0.05
786.298	0.05
786.602	0.05
786.906	0.05
787.209	0.05
787.513	0.05
787.817	0.05
788.12	0.05
788.424	0.05
788.727	0.05
789.03	0.05
789.333	0.05
789.637	0.05
789.94	0.06
790.243	0.05
790.546	0.05
790.849	0.06
791.152	0.05
791.454	0.06
791.757	0.06
792.06	0.05
792.362	0.05
792.665	0.05
792.967	0.06
793.27	0.06
793.572	0.06
793.874	0.06
794.177	0.06
794.479	0.06
794.781	0.06
795.083	0.06
795.385	0.06
795.687	0.06
795.989	0.06
796.29	0.06
796.592	0.06
796.894	0.06
797.195	0.06
797.497	0.06
797.798	0.05
798.1	0.05
798.401	0.05
798.702	0.05
799.003	0.05
799.304	0.05
799.605	0.05
799.906	0.05
800.207	0.05
800.508	0.05
800.809	0.05
801.11	0.05
801.41	0.05
801.711	0.05
802.011	0.05
802.312	0.05
802.612	0.05
802.913	0.06
803.213	0.06
803.513	0.06
803.813	0.06
804.113	0.07
804.413	0.07
804.713	0.06
805.013	0.07
805.313	0.07
805.613	0.07
805.912	0.07
806.212	0.07
806.511	0.07
806.811	0.07
807.11	0.07
807.41	0.07
807.709	0.07
808.008	0.07
808.307	0.07
808.606	0.07
808.905	0.07
809.204	0.07
809.503	0.07
809.802	0.07
810.101	0.07
810.399	0.07
810.698	0.07
810.997	0.07
811.295	0.07
811.593	0.07
811.892	0.07
812.19	0.07
812.488	0.07
812.786	0.07
813.084	0.07
813.383	0.07
813.68	0.07
813.978	0.07
814.276	0.08
814.574	0.08
814.872	0.08
815.169	0.08
815.467	0.08
815.764	0.08
816.062	0.08
816.359	0.08
816.656	0.08
816.954	0.08
817.251	0.08
817.548	0.08
817.845	0.08
818.142	0.08
818.439	0.08
818.735	0.08
819.032	0.08
819.329	0.08
819.626	0.08
819.922	0.08
820.219	0.08
820.515	0.08
820.811	0.07
821.108	0.08
821.404	0.08
821.7	0.08
821.996	0.08
822.292	0.08
822.588	0.08
822.884	0.08
823.18	0.08
823.475	0.09
823.771	0.08
824.067	0.08
824.362	0.08
824.658	0.08
824.953	0.08
825.249	0.08
825.544	0.08
825.839	0.08
826.134	0.09
826.429	0.09
826.724	0.08
827.019	0.08
827.314	0.09
827.609	0.09
827.904	0.09
828.198	0.09
828.493	0.09
828.787	0.09
829.082	0.1
829.376	0.09
829.671	0.09
829.965	0.09
830.259	0.09
830.553	0.1
830.847	0.1
831.141	0.09
831.435	0.09
831.729	0.1
832.023	0.1
832.317	0.1
832.61	0.1
832.904	0.1
833.197	0.09
833.491	0.09
833.784	0.1
834.077	0.1
834.371	0.1
834.664	0.1
834.957	0.11
835.25	0.11
835.543	0.1
835.836	0.1
836.129	0.11
836.421	0.1
836.714	0.11
837.007	0.1
837.299	0.11
837.592	0.1
837.884	0.1
838.177	0.1
838.469	0.1
838.761	0.11
839.053	0.1
839.345	0.1
839.637	0.11
839.929	0.11
840.221	0.11
840.513	0.11
840.805	0.11
841.096	0.11
841.388	0.11
841.68	0.11
841.971	0.11
842.262	0.11
842.554	0.1
842.845	0.11
843.136	0.11
843.427	0.1
843.718	0.11
844.009	0.11
844.3	0.12
844.591	0.11
844.882	0.11
845.173	0.11
845.463	0.11
845.754	0.12
846.044	0.11
846.335	0.11
846.625	0.12
846.915	0.12
847.206	0.13
847.496	0.12
847.786	0.13
848.076	0.12
848.366	0.12
848.656	0.13
848.945	0.12
849.235	0.13
849.525	0.13
849.814	0.14
850.104	0.13
850.393	0.12
850.683	0.12
850.972	0.13
851.261	0.11
851.551	0.12
851.84	0.11
852.129	0.12
852.418	0.12
852.707	0.11
852.995	0.13
853.284	0.13
853.573	0.12
853.862	0.12
854.15	0.13
854.439	0.12
854.727	0.13
855.015	0.12
855.304	0.13
855.592	0.14
855.88	0.14
856.168	0.14
856.456	0.13
856.744	0.12
857.032	0.14
857.32	0.13
857.607	0.13
857.895	0.13
858.183	0.13
858.47	0.13
858.757	0.13
859.045	0.14
859.332	0.14
859.619	0.12
859.907	0.12
860.194	0.15
860.481	0.13
860.768	0.14
861.054	0.14
861.341	0.13
861.628	0.14
861.915	0.14
862.201	0.13
862.488	0.12
862.774	0.13
863.061	0.15
863.347	0.13
863.633	0.13
863.919	0.12
864.205	0.14
864.491	0.14
864.777	0.14
865.063	0.14
865.349	0.14
865.635	0.15
865.92	0.17
866.206	0.15
866.492	0.13
866.777	0.13
867.062	0.14
867.348	0.15
867.633	0.15
867.918	0.12
868.203	0.17
868.488	0.16
868.773	0.13
869.058	0.14
869.343	0.15
869.628	0.17
869.912	0.14
870.197	0.12
870.482	0.12
870.766	0.15
871.05	0.17
871.335	0.12
871.619	0.11
871.903	0.15
872.187	0.13
872.471	0.08
872.755	0.17
873.039	0.13
873.323	0.12
873.607	0.16
873.89	0.11
874.174	0.13
874.458	0.08
874.741	0.15
875.024	0.15
875.308	0.08
875.591	0.13
875.874	0.08
876.157	0.1
876.44	0.14
876.723	0.15
877.006	0.13
877.289	0.15
877.572	0.05
877.854	0.18
878.137	0.16
878.42	0.08
878.702	0.12
878.984	0.11
879.267	0.16
879.549	0.12
879.831	0.2
880.113	0.05
880.395	0.07
880.677	0.03
880.959	0.21
