Data from Rubpy_BV_1200_EDTA_Buffered_Absorbance_13-45-44-047.txt Node
Date: Wed Jul 01 13:45:44 BST 2026
User: fpm-admin
Spectrometer: OFX00224
Trigger mode: 0
Integration Time (sec): 7.000000E-2
Scans to average: 3
Nonlinearity correction enabled: false
Boxcar width: 0
Storing dark spectrum: false
XAxis mode: Wavelengths
Number of Pixels in Spectrum: 2136
>>>>>Begin Spectral Data<<<<<
154.91	-0
155.289	-0
155.669	-0.49
156.048	-0.88
156.428	-0.6
156.807	-0.18
157.186	-0
157.566	-0.92
157.945	-0.51
158.325	0.06
158.704	-0.94
159.083	-0.18
159.462	-0.3
159.842	-0.24
160.221	-0
160.6	0.4
160.979	-0
161.359	-0
161.738	-0.05
162.117	-0
162.496	-0
162.875	-0
163.254	0.73
163.633	-0.23
164.012	-0.3
164.391	-0.12
164.77	-0.19
165.149	-0.08
165.528	-0
165.907	-0
166.286	0.49
166.665	-0.14
167.044	-1.1
167.423	-0.14
167.802	-0.58
168.181	-0
168.559	-0
168.938	-0.15
169.317	0.17
169.696	-0
170.074	-0
170.453	-0
170.832	-0.18
171.21	-0.44
171.589	-0
171.968	0.52
172.346	-0.03
172.725	-0
173.103	-0.38
173.482	-0
173.861	-0
174.239	-0.14
174.617	-0.22
174.996	0.44
175.374	-1.28
175.753	0.02
176.131	-1.06
176.51	-0
176.888	-0
177.266	-0
177.645	0.06
178.023	0.39
178.401	-0.16
178.779	-0
179.158	-1.32
179.536	0.6
179.914	-0
180.292	-0.39
180.67	-0
181.048	-0
181.427	-0.8
181.805	0.06
182.183	-0
182.561	-0
182.939	0.19
183.317	0.18
183.695	-0
184.073	-0.11
184.451	-1.34
184.829	-0.2
185.206	-0.13
185.584	-0
185.962	-0
186.34	-1.14
186.718	-0
187.096	0.26
187.473	-0.79
187.851	-0.12
188.229	-0
188.607	0.11
188.984	0.19
189.362	0.25
189.74	0.08
190.117	0.19
190.495	0.04
190.872	0.16
191.25	0.28
191.627	0.08
192.005	0.11
192.382	0.14
192.76	0.11
193.137	0.15
193.515	0.05
193.892	0.24
194.269	0.17
194.647	0.11
195.024	0.09
195.401	0.15
195.779	0.11
196.156	0.09
196.533	0.04
196.91	0.09
197.288	0.09
197.665	0.07
198.042	0.13
198.419	0.17
198.796	0.02
199.173	0.14
199.55	0.05
199.927	0.05
200.304	0.1
200.681	0.22
201.058	0.12
201.435	0.1
201.812	0.17
202.189	0.03
202.566	0.17
202.943	0.2
203.32	0.14
203.697	0.17
204.073	0.11
204.45	0.13
204.827	0.11
205.204	0.21
205.58	0.09
205.957	0.11
206.334	0.13
206.71	0.07
207.087	0.07
207.464	0.15
207.84	0.17
208.217	0.18
208.593	0.18
208.97	0.02
209.346	0.22
209.723	0.21
210.099	0.14
210.476	0.12
210.852	0.09
211.228	0.09
211.605	0.2
211.981	0.05
212.357	0.09
212.733	0.04
213.11	0.16
213.486	0.13
213.862	0.08
214.238	0.19
214.614	0.13
214.991	0.03
215.367	0.12
215.743	0.06
216.119	0.05
216.495	0.08
216.871	0.27
217.247	0.02
217.623	0.17
217.999	0.18
218.375	0.19
218.751	0.04
219.127	0.17
219.502	0.12
219.878	0.13
220.254	0.15
220.63	0.2
221.006	0.21
221.381	0.15
221.757	0.11
222.133	0.17
222.508	0.13
222.884	0.14
223.26	0.06
223.635	0.11
224.011	0.18
224.386	0.1
224.762	0.11
225.137	0.16
225.513	0.1
225.888	0.24
226.264	0.29
226.639	0.16
227.014	0.16
227.39	0.23
227.765	0.14
228.14	0.15
228.516	0.16
228.891	0.17
229.266	0.15
229.641	0.2
230.017	0.08
230.392	0.29
230.767	0.11
231.142	0.09
231.517	0.16
231.892	0.15
232.267	0.09
232.642	0.33
233.017	0.13
233.392	0.14
233.767	0.19
234.142	0.17
234.517	0.18
234.892	0.15
235.267	0.14
235.641	0.17
236.016	0.18
236.391	0.16
236.766	0.15
237.14	0.17
237.515	0.22
237.89	0.13
238.264	0.13
238.639	0.05
239.014	0.05
239.388	0.13
239.763	0.13
240.137	0.13
240.512	0.17
240.886	0.14
241.261	0.15
241.635	0.1
242.009	0.1
242.384	0.19
242.758	0.15
243.132	0.15
243.507	0.19
243.881	0.17
244.255	0.18
244.629	0.14
245.004	0.12
245.378	0.11
245.752	0.2
246.126	0.16
246.5	0.17
246.874	0.22
247.248	0.19
247.622	0.12
247.996	0.12
248.37	0.15
248.744	0.16
249.118	0.22
249.492	0.07
249.866	0.19
250.24	0.09
250.613	0.06
250.987	0.2
251.361	0.12
251.735	0.13
252.108	0.14
252.482	0.14
252.856	0.11
253.229	0.15
253.603	0.21
253.977	0.09
254.35	0.12
254.724	0.21
255.097	0.13
255.471	0.18
255.844	0.1
256.218	0.19
256.591	0.06
256.964	0.18
257.338	0.15
257.711	0.15
258.084	0.24
258.458	0.13
258.831	0.12
259.204	0.09
259.577	0.17
259.95	0.21
260.323	0.18
260.697	0.2
261.07	0.22
261.443	0.24
261.816	0.21
262.189	0.21
262.562	0.2
262.935	0.08
263.308	0.2
263.68	0.12
264.053	0.18
264.426	0.22
264.799	0.21
265.172	0.18
265.545	0.12
265.917	0.09
266.29	0.26
266.663	0.12
267.035	0.14
267.408	0.21
267.781	0.16
268.153	0.19
268.526	0.13
268.898	0.17
269.271	0.17
269.643	0.16
270.016	0.18
270.388	0.15
270.76	0.12
271.133	0.18
271.505	0.19
271.877	0.19
272.25	0.15
272.622	0.22
272.994	0.14
273.366	0.19
273.739	0.15
274.111	0.18
274.483	0.13
274.855	0.19
275.227	0.16
275.599	0.21
275.971	0.18
276.343	0.17
276.715	0.18
277.087	0.25
277.459	0.11
277.831	0.17
278.203	0.18
278.574	0.12
278.946	0.19
279.318	0.15
279.69	0.2
280.061	0.17
280.433	0.2
280.805	0.16
281.176	0.15
281.548	0.18
281.92	0.15
282.291	0.12
282.663	0.24
283.034	0.19
283.406	0.24
283.777	0.22
284.148	0.14
284.52	0.14
284.891	0.25
285.262	0.14
285.634	0.23
286.005	0.21
286.376	0.19
286.747	0.17
287.119	0.15
287.49	0.15
287.861	0.19
288.232	0.17
288.603	0.17
288.974	0.13
289.345	0.11
289.716	0.15
290.087	0.19
290.458	0.19
290.829	0.23
291.2	0.17
291.571	0.2
291.941	0.25
292.312	0.19
292.683	0.18
293.054	0.18
293.424	0.24
293.795	0.17
294.166	0.25
294.536	0.16
294.907	0.2
295.277	0.14
295.648	0.17
296.018	0.15
296.389	0.16
296.759	0.21
297.13	0.2
297.5	0.2
297.871	0.25
298.241	0.17
298.611	0.2
298.981	0.22
299.352	0.21
299.722	0.15
300.092	0.22
300.462	0.2
300.832	0.18
301.202	0.18
301.573	0.2
301.943	0.19
302.313	0.11
302.683	0.14
303.053	0.2
303.422	0.15
303.792	0.2
304.162	0.17
304.532	0.19
304.902	0.22
305.272	0.12
305.641	0.12
306.011	0.15
306.381	0.13
306.75	0.14
307.12	0.15
307.49	0.15
307.859	0.13
308.229	0.11
308.598	0.12
308.968	0.12
309.337	0.13
309.707	0.12
310.076	0.12
310.445	0.11
310.815	0.13
311.184	0.12
311.553	0.12
311.923	0.13
312.292	0.14
312.661	0.14
313.03	0.14
313.399	0.15
313.768	0.15
314.137	0.14
314.506	0.15
314.875	0.15
315.244	0.15
315.613	0.16
315.982	0.16
316.351	0.14
316.72	0.15
317.089	0.16
317.458	0.16
317.826	0.17
318.195	0.17
318.564	0.17
318.933	0.16
319.301	0.17
319.67	0.17
320.038	0.18
320.407	0.17
320.775	0.19
321.144	0.17
321.512	0.18
321.881	0.18
322.249	0.2
322.618	0.2
322.986	0.2
323.354	0.19
323.723	0.2
324.091	0.19
324.459	0.21
324.827	0.21
325.195	0.21
325.564	0.21
325.932	0.23
326.3	0.22
326.668	0.22
327.036	0.23
327.404	0.22
327.772	0.23
328.14	0.23
328.508	0.24
328.875	0.24
329.243	0.24
329.611	0.25
329.979	0.24
330.346	0.25
330.714	0.26
331.082	0.26
331.449	0.27
331.817	0.27
332.185	0.28
332.552	0.28
332.92	0.29
333.287	0.28
333.655	0.29
334.022	0.31
334.389	0.31
334.757	0.31
335.124	0.32
335.491	0.32
335.859	0.33
336.226	0.34
336.593	0.35
336.96	0.35
337.327	0.36
337.695	0.36
338.062	0.36
338.429	0.37
338.796	0.38
339.163	0.39
339.53	0.39
339.897	0.4
340.263	0.41
340.63	0.41
340.997	0.41
341.364	0.43
341.731	0.44
342.097	0.44
342.464	0.44
342.831	0.46
343.197	0.46
343.564	0.47
343.931	0.47
344.297	0.48
344.664	0.49
345.03	0.5
345.396	0.51
345.763	0.51
346.129	0.52
346.496	0.53
346.862	0.54
347.228	0.55
347.594	0.54
347.961	0.56
348.327	0.57
348.693	0.57
349.059	0.58
349.425	0.59
349.791	0.6
350.157	0.6
350.523	0.61
350.889	0.62
351.255	0.62
351.621	0.63
351.987	0.64
352.353	0.65
352.719	0.65
353.084	0.67
353.45	0.67
353.816	0.68
354.181	0.68
354.547	0.7
354.913	0.7
355.278	0.71
355.644	0.72
356.009	0.73
356.375	0.73
356.74	0.73
357.106	0.75
357.471	0.77
357.836	0.77
358.202	0.78
358.567	0.79
358.932	0.8
359.297	0.82
359.663	0.83
360.028	0.84
360.393	0.85
360.758	0.86
361.123	0.87
361.488	0.89
361.853	0.89
362.218	0.92
362.583	0.91
362.948	0.94
363.312	0.94
363.677	0.95
364.042	0.96
364.407	0.96
364.772	0.99
365.136	1
365.501	1
365.865	1
366.23	1.02
366.595	1.02
366.959	1.03
367.324	1.04
367.688	1.05
368.052	1.06
368.417	1.08
368.781	1.08
369.145	1.08
369.51	1.09
369.874	1.09
370.238	1.1
370.602	1.11
370.967	1.1
371.331	1.13
371.695	1.14
372.059	1.14
372.423	1.14
372.787	1.13
373.151	1.15
373.515	1.13
373.878	1.13
374.242	1.11
374.606	1.13
374.97	1.1
375.334	1.09
375.697	1.09
376.061	1.07
376.425	1.09
376.788	1.06
377.152	1.05
377.515	1.05
377.879	1.04
378.242	1.02
378.606	1.01
378.969	1
379.333	0.99
379.696	0.99
380.059	0.97
380.422	0.97
380.786	0.95
381.149	0.93
381.512	0.92
381.875	0.92
382.238	0.91
382.601	0.9
382.964	0.89
383.327	0.89
383.69	0.87
384.053	0.87
384.416	0.86
384.779	0.86
385.142	0.85
385.504	0.85
385.867	0.84
386.23	0.84
386.593	0.84
386.955	0.84
387.318	0.84
387.68	0.84
388.043	0.84
388.405	0.84
388.768	0.84
389.13	0.82
389.493	0.83
389.855	0.84
390.217	0.83
390.58	0.82
390.942	0.81
391.304	0.8
391.666	0.8
392.028	0.78
392.391	0.77
392.753	0.76
393.115	0.75
393.477	0.75
393.839	0.74
394.201	0.73
394.563	0.73
394.924	0.73
395.286	0.73
395.648	0.73
396.01	0.74
396.371	0.74
396.733	0.76
397.095	0.77
397.456	0.78
397.818	0.8
398.18	0.82
398.541	0.84
398.903	0.87
399.264	0.88
399.625	0.9
399.987	0.92
400.348	0.93
400.709	0.94
401.071	0.95
401.432	0.96
401.793	0.96
402.154	0.95
402.515	0.94
402.876	0.93
403.238	0.91
403.599	0.89
403.96	0.87
404.32	0.84
404.681	0.8
405.042	0.77
405.403	0.74
405.764	0.7
406.125	0.67
406.485	0.64
406.846	0.6
407.207	0.57
407.567	0.54
407.928	0.51
408.288	0.48
408.649	0.45
409.009	0.43
409.37	0.4
409.73	0.38
410.091	0.37
410.451	0.34
410.811	0.32
411.171	0.31
411.532	0.29
411.892	0.28
412.252	0.26
412.612	0.25
412.972	0.24
413.332	0.23
413.692	0.22
414.052	0.22
414.412	0.2
414.772	0.19
415.132	0.19
415.492	0.18
415.851	0.18
416.211	0.17
416.571	0.15
416.931	0.16
417.29	0.15
417.65	0.16
418.009	0.15
418.369	0.15
418.728	0.14
419.088	0.14
419.447	0.13
419.807	0.13
420.166	0.13
420.525	0.12
420.884	0.12
421.244	0.12
421.603	0.12
421.962	0.12
422.321	0.11
422.68	0.11
423.039	0.11
423.398	0.12
423.757	0.1
424.116	0.1
424.475	0.1
424.834	0.1
425.193	0.09
425.551	0.1
425.91	0.09
426.269	0.1
426.628	0.1
426.986	0.09
427.345	0.08
427.703	0.1
428.062	0.1
428.42	0.09
428.779	0.08
429.137	0.09
429.496	0.11
429.854	0.09
430.212	0.09
430.57	0.09
430.929	0.09
431.287	0.09
431.645	0.09
432.003	0.09
432.361	0.09
432.719	0.09
433.077	0.09
433.435	0.09
433.793	0.09
434.151	0.07
434.509	0.08
434.866	0.08
435.224	0.08
435.582	0.08
435.94	0.07
436.297	0.08
436.655	0.08
437.012	0.08
437.37	0.09
437.727	0.09
438.085	0.08
438.442	0.08
438.8	0.07
439.157	0.08
439.514	0.08
439.872	0.07
440.229	0.08
440.586	0.09
440.943	0.08
441.3	0.08
441.657	0.08
442.014	0.08
442.371	0.08
442.728	0.08
443.085	0.08
443.442	0.08
443.799	0.07
444.156	0.08
444.513	0.08
444.869	0.08
445.226	0.09
445.583	0.08
445.939	0.08
446.296	0.08
446.652	0.08
447.009	0.08
447.365	0.08
447.722	0.08
448.078	0.08
448.434	0.09
448.791	0.08
449.147	0.08
449.503	0.08
449.859	0.09
450.215	0.08
450.571	0.08
450.928	0.08
451.284	0.08
451.64	0.08
451.995	0.07
452.351	0.07
452.707	0.09
453.063	0.07
453.419	0.07
453.775	0.08
454.13	0.07
454.486	0.08
454.842	0.08
455.197	0.07
455.553	0.07
455.908	0.06
456.264	0.06
456.619	0.06
456.975	0.06
457.33	0.07
457.685	0.07
458.04	0.06
458.396	0.05
458.751	0.06
459.106	0.06
459.461	0.06
459.816	0.05
460.171	0.05
460.526	0.06
460.881	0.04
461.236	0.05
461.591	0.05
461.946	0.04
462.301	0.05
462.655	0.03
463.01	0.05
463.365	0.04
463.719	0.03
464.074	0.03
464.428	0.03
464.783	0.02
465.137	0.02
465.492	0.03
465.846	0.03
466.201	0.03
466.555	0.03
466.909	0.02
467.263	0.03
467.618	0.03
467.972	0.03
468.326	0.03
468.68	0.02
469.034	0.03
469.388	0.02
469.742	0.03
470.096	0.03
470.45	0.03
470.804	0.04
471.157	0.03
471.511	0.04
471.865	0.03
472.218	0.04
472.572	0.04
472.926	0.05
473.279	0.05
473.633	0.05
473.986	0.06
474.34	0.07
474.693	0.08
475.046	0.08
475.4	0.09
475.753	0.09
476.106	0.1
476.459	0.1
476.812	0.1
477.165	0.11
477.519	0.12
477.872	0.12
478.224	0.12
478.577	0.13
478.93	0.13
479.283	0.13
479.636	0.14
479.989	0.14
480.341	0.15
480.694	0.15
481.047	0.15
481.399	0.16
481.752	0.17
482.104	0.17
482.457	0.17
482.809	0.18
483.162	0.18
483.514	0.19
483.866	0.19
484.219	0.19
484.571	0.2
484.923	0.2
485.275	0.2
485.627	0.2
485.979	0.2
486.331	0.21
486.683	0.21
487.035	0.21
487.387	0.22
487.739	0.22
488.091	0.22
488.443	0.23
488.794	0.23
489.146	0.23
489.498	0.23
489.849	0.24
490.201	0.24
490.552	0.23
490.904	0.24
491.255	0.24
491.607	0.24
491.958	0.25
492.309	0.25
492.661	0.25
493.012	0.25
493.363	0.26
493.714	0.26
494.065	0.26
494.416	0.26
494.767	0.27
495.118	0.27
495.469	0.27
495.82	0.27
496.171	0.28
496.522	0.28
496.872	0.28
497.223	0.29
497.574	0.28
497.924	0.29
498.275	0.29
498.626	0.3
498.976	0.3
499.327	0.3
499.677	0.3
500.027	0.3
500.378	0.3
500.728	0.31
501.078	0.31
501.428	0.32
501.779	0.32
502.129	0.32
502.479	0.32
502.829	0.32
503.179	0.33
503.529	0.33
503.879	0.33
504.229	0.33
504.578	0.34
504.928	0.34
505.278	0.34
505.628	0.34
505.977	0.35
506.327	0.35
506.676	0.35
507.026	0.35
507.375	0.36
507.725	0.36
508.074	0.36
508.424	0.36
508.773	0.36
509.122	0.37
509.471	0.37
509.82	0.37
510.17	0.37
510.519	0.37
510.868	0.37
511.217	0.38
511.566	0.38
511.915	0.38
512.263	0.38
512.612	0.38
512.961	0.39
513.31	0.39
513.659	0.39
514.007	0.39
514.356	0.4
514.704	0.4
515.053	0.4
515.401	0.4
515.75	0.4
516.098	0.4
516.447	0.41
516.795	0.42
517.143	0.41
517.491	0.41
517.839	0.41
518.188	0.42
518.536	0.41
518.884	0.42
519.232	0.42
519.58	0.42
519.928	0.43
520.275	0.43
520.623	0.43
520.971	0.43
521.319	0.43
521.666	0.44
522.014	0.44
522.362	0.43
522.709	0.44
523.057	0.44
523.404	0.44
523.752	0.44
524.099	0.45
524.446	0.45
524.794	0.44
525.141	0.45
525.488	0.45
525.835	0.45
526.182	0.45
526.529	0.45
526.876	0.46
527.223	0.46
527.57	0.46
527.917	0.46
528.264	0.46
528.611	0.46
528.958	0.46
529.304	0.46
529.651	0.47
529.998	0.47
530.344	0.47
530.691	0.47
531.037	0.47
531.384	0.48
531.73	0.47
532.076	0.47
532.423	0.47
532.769	0.48
533.115	0.48
533.461	0.48
533.807	0.48
534.154	0.48
534.5	0.48
534.846	0.49
535.192	0.49
535.537	0.49
535.883	0.48
536.229	0.49
536.575	0.49
536.921	0.49
537.266	0.5
537.612	0.5
537.957	0.49
538.303	0.49
538.649	0.5
538.994	0.5
539.339	0.5
539.685	0.5
540.03	0.5
540.375	0.5
540.721	0.5
541.066	0.5
541.411	0.5
541.756	0.5
542.101	0.51
542.446	0.51
542.791	0.51
543.136	0.5
543.481	0.51
543.825	0.51
544.17	0.51
544.515	0.51
544.86	0.51
545.204	0.51
545.549	0.51
545.893	0.51
546.238	0.52
546.582	0.51
546.927	0.52
547.271	0.52
547.615	0.52
547.96	0.52
548.304	0.52
548.648	0.52
548.992	0.52
549.336	0.52
549.68	0.52
550.024	0.53
550.368	0.52
550.712	0.52
551.056	0.52
551.4	0.53
551.743	0.53
552.087	0.52
552.431	0.52
552.774	0.52
553.118	0.52
553.462	0.52
553.805	0.52
554.148	0.52
554.492	0.52
554.835	0.52
555.178	0.52
555.522	0.52
555.865	0.53
556.208	0.52
556.551	0.52
556.894	0.53
557.237	0.52
557.58	0.52
557.923	0.52
558.266	0.52
558.609	0.52
558.952	0.52
559.294	0.52
559.637	0.52
559.98	0.52
560.322	0.52
560.665	0.52
561.007	0.52
561.35	0.52
561.692	0.52
562.034	0.52
562.377	0.52
562.719	0.52
563.061	0.52
563.403	0.52
563.745	0.52
564.088	0.52
564.43	0.51
564.772	0.52
565.113	0.52
565.455	0.51
565.797	0.51
566.139	0.51
566.481	0.51
566.822	0.51
567.164	0.51
567.506	0.51
567.847	0.51
568.189	0.51
568.53	0.51
568.872	0.51
569.213	0.51
569.554	0.5
569.895	0.51
570.237	0.51
570.578	0.51
570.919	0.5
571.26	0.5
571.601	0.5
571.942	0.5
572.283	0.5
572.624	0.5
572.965	0.5
573.306	0.49
573.646	0.49
573.987	0.49
574.328	0.49
574.668	0.49
575.009	0.49
575.349	0.49
575.69	0.49
576.03	0.49
576.37	0.48
576.711	0.48
577.051	0.48
577.391	0.48
577.731	0.48
578.072	0.48
578.412	0.48
578.752	0.48
579.092	0.47
579.431	0.46
579.771	0.44
580.111	0.43
580.451	0.44
580.791	0.46
581.13	0.47
581.47	0.47
581.81	0.47
582.149	0.47
582.489	0.47
582.828	0.46
583.167	0.43
583.507	0.39
583.846	0.38
584.185	0.4
584.525	0.43
584.864	0.45
585.203	0.46
585.542	0.46
585.881	0.47
586.22	0.46
586.559	0.46
586.898	0.44
587.236	0.44
587.575	0.43
587.914	0.44
588.252	0.45
588.591	0.46
588.93	0.46
589.268	0.45
589.607	0.45
589.945	0.46
590.283	0.46
590.622	0.46
590.96	0.46
591.298	0.47
591.636	0.47
591.974	0.46
592.313	0.47
592.651	0.47
592.989	0.47
593.326	0.47
593.664	0.47
594.002	0.47
594.34	0.46
594.678	0.46
595.015	0.45
595.353	0.44
595.691	0.45
596.028	0.46
596.366	0.46
596.703	0.47
597.04	0.47
597.378	0.47
597.715	0.47
598.052	0.47
598.389	0.47
598.726	0.47
599.064	0.47
599.401	0.46
599.738	0.46
600.074	0.46
600.411	0.46
600.748	0.46
601.085	0.46
601.422	0.45
601.758	0.45
602.095	0.45
602.432	0.45
602.768	0.45
603.105	0.46
603.441	0.46
603.777	0.46
604.114	0.46
604.45	0.46
604.786	0.46
605.122	0.46
605.459	0.45
605.795	0.45
606.131	0.45
606.467	0.45
606.803	0.45
607.139	0.45
607.474	0.45
607.81	0.44
608.146	0.45
608.482	0.45
608.817	0.45
609.153	0.44
609.488	0.44
609.824	0.44
610.159	0.44
610.495	0.44
610.83	0.44
611.165	0.44
611.5	0.44
611.836	0.44
612.171	0.44
612.506	0.44
612.841	0.44
613.176	0.43
613.511	0.43
613.845	0.43
614.18	0.43
614.515	0.43
614.85	0.43
615.184	0.43
615.519	0.42
615.854	0.42
616.188	0.42
616.523	0.42
616.857	0.42
617.191	0.41
617.526	0.41
617.86	0.41
618.194	0.41
618.528	0.41
618.862	0.41
619.196	0.41
619.53	0.41
619.864	0.41
620.198	0.41
620.532	0.4
620.866	0.41
621.2	0.4
621.533	0.4
621.867	0.41
622.201	0.4
622.534	0.4
622.868	0.4
623.201	0.39
623.534	0.39
623.868	0.39
624.201	0.39
624.534	0.39
624.868	0.38
625.201	0.38
625.534	0.38
625.867	0.38
626.2	0.38
626.533	0.38
626.865	0.38
627.198	0.37
627.531	0.37
627.864	0.37
628.196	0.37
628.529	0.37
628.862	0.36
629.194	0.36
629.527	0.36
629.859	0.35
630.191	0.35
630.524	0.35
630.856	0.35
631.188	0.35
631.52	0.35
631.852	0.35
632.184	0.35
632.516	0.34
632.848	0.34
633.18	0.34
633.512	0.34
633.844	0.33
634.175	0.33
634.507	0.33
634.839	0.33
635.17	0.32
635.502	0.33
635.833	0.32
636.165	0.32
636.496	0.32
636.827	0.31
637.159	0.31
637.49	0.31
637.821	0.31
638.152	0.3
638.483	0.3
638.814	0.3
639.145	0.3
639.476	0.3
639.807	0.29
640.137	0.29
640.468	0.29
640.799	0.29
641.129	0.29
641.46	0.28
641.791	0.28
642.121	0.28
642.451	0.28
642.782	0.28
643.112	0.28
643.442	0.27
643.773	0.27
644.103	0.27
644.433	0.27
644.763	0.27
645.093	0.27
645.423	0.26
645.753	0.27
646.082	0.26
646.412	0.26
646.742	0.26
647.072	0.26
647.401	0.26
647.731	0.25
648.06	0.26
648.39	0.25
648.719	0.25
649.048	0.25
649.378	0.25
649.707	0.24
650.036	0.24
650.365	0.24
650.694	0.24
651.023	0.24
651.352	0.24
651.681	0.24
652.01	0.24
652.339	0.24
652.668	0.24
652.996	0.24
653.325	0.24
653.654	0.24
653.982	0.24
654.311	0.24
654.639	0.24
654.967	0.24
655.296	0.23
655.624	0.23
655.952	0.23
656.28	0.23
656.609	0.23
656.937	0.23
657.265	0.23
657.593	0.12
657.92	0.02
658.248	0
658.576	0.01
658.904	0.09
659.231	0.17
659.559	0.22
659.887	0.22
660.214	0.22
660.542	0.22
660.869	0.22
661.196	0.22
661.524	0.22
661.851	0.22
662.178	0.22
662.505	0.22
662.832	0.22
663.159	0.22
663.486	0.22
663.813	0.22
664.14	0.21
664.467	0.21
664.794	0.21
665.12	0.21
665.447	0.21
665.774	0.21
666.1	0.21
666.427	0.21
666.753	0.21
667.079	0.21
667.406	0.2
667.732	0.2
668.058	0.2
668.384	0.2
668.71	0.2
669.036	0.2
669.362	0.2
669.688	0.2
670.014	0.2
670.34	0.2
670.666	0.19
670.991	0.19
671.317	0.19
671.643	0.18
671.968	0.18
672.294	0.18
672.619	0.18
672.945	0.17
673.27	0.18
673.595	0.18
673.92	0.18
674.246	0.17
674.571	0.18
674.896	0.18
675.221	0.17
675.546	0.17
675.87	0.17
676.195	0.17
676.52	0.17
676.845	0.16
677.169	0.16
677.494	0.16
677.819	0.16
678.143	0.16
678.468	0.15
678.792	0.15
679.116	0.15
679.44	0.15
679.765	0.15
680.089	0.15
680.413	0.14
680.737	0.15
681.061	0.14
681.385	0.14
681.709	0.14
682.033	0.13
682.356	0.13
682.68	0.14
683.004	0.13
683.327	0.14
683.651	0.13
683.974	0.13
684.298	0.13
684.621	0.13
684.944	0.12
685.268	0.12
685.591	0.12
685.914	0.12
686.237	0.12
686.56	0.12
686.883	0.11
687.206	0.11
687.529	0.1
687.852	0.1
688.175	0.1
688.497	0.11
688.82	0.11
689.142	0.11
689.465	0.1
689.787	0.11
690.11	0.1
690.432	0.1
690.755	0.1
691.077	0.1
691.399	0.09
691.721	0.1
692.043	0.09
692.365	0.09
692.687	0.09
693.009	0.09
693.331	0.08
693.653	0.08
693.974	0.08
694.296	0.08
694.618	0.08
694.939	0.08
695.261	0.08
695.582	0.08
695.904	0.08
696.225	0.08
696.546	0.08
696.868	0.08
697.189	0.08
697.51	0.08
697.831	0.08
698.152	0.08
698.473	0.07
698.794	0.07
699.114	0.07
699.435	0.05
699.756	0.06
700.077	0.06
700.397	0.06
700.718	0.06
701.038	0.07
701.359	0.07
701.679	0.06
701.999	0.07
702.32	0.07
702.64	0.06
702.96	0.06
703.28	0.07
703.6	0.06
703.92	0.06
704.24	0.06
704.56	0.05
704.879	0.05
705.199	0.06
705.519	0.06
705.838	0.06
706.158	0.06
706.478	0.06
706.797	0.06
707.116	0.06
707.436	0.06
707.755	0.06
708.074	0.06
708.393	0.05
708.712	0.05
709.031	0.04
709.35	0.03
709.669	0.04
709.988	0.04
710.307	0.04
710.626	0.04
710.944	0.05
711.263	0.05
711.582	0.05
711.9	0.05
712.219	0.05
712.537	0.05
712.855	0.05
713.174	0.05
713.492	0.05
713.81	0.05
714.128	0.05
714.446	0.05
714.764	0.05
715.082	0.04
715.4	0.05
715.718	0.05
716.035	0.04
716.353	0.05
716.671	0.05
716.988	0.05
717.306	0.04
717.623	0.05
717.941	0.06
718.258	0.06
718.575	0.06
718.893	0.06
719.21	0.06
719.527	0.06
719.844	0.05
720.161	0.06
720.478	0.05
720.795	0.05
721.112	0.06
721.428	0.06
721.745	0.06
722.062	0.06
722.378	0.06
722.695	0.06
723.011	0.06
723.328	0.06
723.644	0.06
723.96	0.06
724.276	0.06
724.593	0.06
724.909	0.06
725.225	0.06
725.541	0.06
725.857	0.07
726.173	0.07
726.488	0.07
726.804	0.06
727.12	0.06
727.435	0.06
727.751	0.07
728.067	0.06
728.382	0.07
728.697	0.07
729.013	0.07
729.328	0.07
729.643	0.07
729.958	0.07
730.273	0.07
730.588	0.06
730.903	0.07
731.218	0.06
731.533	0.06
731.848	0.06
732.163	0.06
732.477	0.06
732.792	0.06
733.107	0.05
733.421	0.06
733.736	0.06
734.05	0.06
734.364	0.06
734.678	0.06
734.993	0.05
735.307	0.06
735.621	0.05
735.935	0.06
736.249	0.06
736.563	0.06
736.877	0.06
737.19	0.06
737.504	0.06
737.818	0.06
738.131	0.06
738.445	0.06
738.758	0.06
739.072	0.06
739.385	0.06
739.698	0.06
740.012	0.06
740.325	0.06
740.638	0.06
740.951	0.06
741.264	0.06
741.577	0.06
741.89	0.06
742.203	0.06
742.515	0.06
742.828	0.05
743.141	0.05
743.453	0.05
743.766	0.05
744.078	0.05
744.391	0.05
744.703	0.04
745.015	0.04
745.327	0.05
745.639	0.05
745.952	0.05
746.264	0.05
746.575	0.05
746.887	0.04
747.199	0.04
747.511	0.04
747.823	0.04
748.134	0.04
748.446	0.04
748.757	0.04
749.069	0.04
749.38	0.04
749.692	0.04
750.003	0.04
750.314	0.04
750.625	0.04
750.936	0.04
751.248	0.04
751.559	0.04
751.869	0.04
752.18	0.04
752.491	0.04
752.802	0.04
753.112	0.04
753.423	0.04
753.734	0.04
754.044	0.04
754.355	0.04
754.665	0.04
754.975	0.04
755.285	0.04
755.596	0.04
755.906	0.04
756.216	0.03
756.526	0.03
756.836	0.03
757.146	0.03
757.455	0.03
757.765	0.03
758.075	0.03
758.385	0.03
758.694	0.03
759.004	0.03
759.313	0.02
759.622	0.03
759.932	0.03
760.241	0.03
760.55	0.02
760.859	0.02
761.168	0.02
761.477	0.02
761.786	0.02
762.095	0.02
762.404	0.02
762.713	0.02
763.021	0.02
763.33	0.02
763.639	0.02
763.947	0.02
764.256	0.02
764.564	0.02
764.872	0.02
765.181	0.02
765.489	0.02
765.797	0.02
766.105	0.02
766.413	0.02
766.721	0.02
767.029	0.02
767.337	0.02
767.644	0.02
767.952	0.02
768.26	0.03
768.567	0.03
768.875	0.03
769.182	0.03
769.49	0.02
769.797	0.02
770.104	0.02
770.411	0.02
770.718	0.02
771.026	0.02
771.333	0.02
771.639	0.02
771.946	0.02
772.253	0.02
772.56	0.02
772.867	0.02
773.173	0.02
773.48	0.02
773.786	0.03
774.093	0.02
774.399	0.03
774.705	0.03
775.012	0.03
775.318	0.02
775.624	0.03
775.93	0.03
776.236	0.03
776.542	0.02
776.848	0.03
777.154	0.03
777.459	0.03
777.765	0.03
778.071	0.03
778.376	0.03
778.682	0.03
778.987	0.03
779.292	0.03
779.598	0.03
779.903	0.03
780.208	0.03
780.513	0.03
780.818	0.03
781.123	0.03
781.428	0.03
781.733	0.03
782.038	0.03
782.343	0.03
782.647	0.03
782.952	0.03
783.256	0.02
783.561	0.02
783.865	0.02
784.17	0.02
784.474	0.03
784.778	0.02
785.082	0.03
785.386	0.03
785.69	0.03
785.994	0.03
786.298	0.03
786.602	0.03
786.906	0.03
787.209	0.03
787.513	0.03
787.817	0.03
788.12	0.03
788.424	0.03
788.727	0.03
789.03	0.03
789.333	0.03
789.637	0.03
789.94	0.03
790.243	0.03
790.546	0.03
790.849	0.03
791.152	0.03
791.454	0.03
791.757	0.04
792.06	0.03
792.362	0.03
792.665	0.03
792.967	0.03
793.27	0.03
793.572	0.03
793.874	0.04
794.177	0.04
794.479	0.04
794.781	0.04
795.083	0.04
795.385	0.04
795.687	0.04
795.989	0.03
796.29	0.04
796.592	0.04
796.894	0.04
797.195	0.03
797.497	0.04
797.798	0.03
798.1	0.03
798.401	0.03
798.702	0.03
799.003	0.03
799.304	0.03
799.605	0.02
799.906	0.02
800.207	0.02
800.508	0.02
800.809	0.02
801.11	0.03
801.41	0.02
801.711	0.02
802.011	0.02
802.312	0.03
802.612	0.03
802.913	0.03
803.213	0.04
803.513	0.04
803.813	0.04
804.113	0.04
804.413	0.04
804.713	0.04
805.013	0.04
805.313	0.04
805.613	0.04
805.912	0.04
806.212	0.05
806.511	0.04
806.811	0.04
807.11	0.04
807.41	0.04
807.709	0.04
808.008	0.04
808.307	0.04
808.606	0.04
808.905	0.04
809.204	0.04
809.503	0.04
809.802	0.04
810.101	0.05
810.399	0.04
810.698	0.04
810.997	0.04
811.295	0.04
811.593	0.04
811.892	0.04
812.19	0.04
812.488	0.04
812.786	0.04
813.084	0.04
813.383	0.04
813.68	0.04
813.978	0.04
814.276	0.05
814.574	0.04
814.872	0.05
815.169	0.04
815.467	0.05
815.764	0.05
816.062	0.04
816.359	0.05
816.656	0.05
816.954	0.05
817.251	0.05
817.548	0.05
817.845	0.05
818.142	0.05
818.439	0.05
818.735	0.05
819.032	0.05
819.329	0.05
819.626	0.05
819.922	0.04
820.219	0.05
820.515	0.04
820.811	0.04
821.108	0.05
821.404	0.05
821.7	0.05
821.996	0.05
822.292	0.05
822.588	0.05
822.884	0.05
823.18	0.05
823.475	0.05
823.771	0.05
824.067	0.05
824.362	0.04
824.658	0.05
824.953	0.05
825.249	0.05
825.544	0.04
825.839	0.05
826.134	0.05
826.429	0.05
826.724	0.04
827.019	0.04
827.314	0.05
827.609	0.05
827.904	0.05
828.198	0.05
828.493	0.05
828.787	0.05
829.082	0.05
829.376	0.05
829.671	0.05
829.965	0.05
830.259	0.05
830.553	0.06
830.847	0.06
831.141	0.06
831.435	0.06
831.729	0.05
832.023	0.05
832.317	0.06
832.61	0.06
832.904	0.05
833.197	0.06
833.491	0.05
833.784	0.06
834.077	0.06
834.371	0.06
834.664	0.06
834.957	0.06
835.25	0.06
835.543	0.06
835.836	0.06
836.129	0.06
836.421	0.06
836.714	0.06
837.007	0.06
837.299	0.06
837.592	0.05
837.884	0.06
838.177	0.06
838.469	0.06
838.761	0.06
839.053	0.05
839.345	0.05
839.637	0.06
839.929	0.06
840.221	0.06
840.513	0.05
840.805	0.06
841.096	0.06
841.388	0.06
841.68	0.07
841.971	0.06
842.262	0.06
842.554	0.06
842.845	0.06
843.136	0.06
843.427	0.06
843.718	0.06
844.009	0.06
844.3	0.07
844.591	0.06
844.882	0.06
845.173	0.06
845.463	0.06
845.754	0.06
846.044	0.06
846.335	0.06
846.625	0.06
846.915	0.08
847.206	0.07
847.496	0.07
847.786	0.08
848.076	0.08
848.366	0.08
848.656	0.08
848.945	0.08
849.235	0.08
849.525	0.07
849.814	0.08
850.104	0.08
850.393	0.08
850.683	0.08
850.972	0.07
851.261	0.07
851.551	0.08
851.84	0.06
852.129	0.07
852.418	0.06
852.707	0.07
852.995	0.07
853.284	0.06
853.573	0.07
853.862	0.07
854.15	0.07
854.439	0.07
854.727	0.08
855.015	0.07
855.304	0.08
855.592	0.09
855.88	0.08
856.168	0.08
856.456	0.09
856.744	0.07
857.032	0.09
857.32	0.08
857.607	0.08
857.895	0.07
858.183	0.07
858.47	0.07
858.757	0.07
859.045	0.09
859.332	0.08
859.619	0.07
859.907	0.08
860.194	0.08
860.481	0.08
860.768	0.07
861.054	0.08
861.341	0.08
861.628	0.08
861.915	0.07
862.201	0.06
862.488	0.08
862.774	0.07
863.061	0.11
863.347	0.07
863.633	0.05
863.919	0.07
864.205	0.08
864.491	0.06
864.777	0.07
865.063	0.08
865.349	0.07
865.635	0.09
865.92	0.1
866.206	0.07
866.492	0.08
866.777	0.08
867.062	0.07
867.348	0.07
867.633	0.09
867.918	0.09
868.203	0.08
868.488	0.08
868.773	0.06
869.058	0.08
869.343	0.08
869.628	0.07
869.912	0.08
870.197	0.07
870.482	0.06
870.766	0.06
871.05	0.06
871.335	0.06
871.619	0.06
871.903	0.05
872.187	0.05
872.471	0.05
872.755	0.07
873.039	0.07
873.323	0.05
873.607	0.05
873.89	0.07
874.174	0.06
874.458	0.05
874.741	0.12
875.024	0.11
875.308	0.05
875.591	0.05
875.874	0.04
876.157	0.04
876.44	0.09
876.723	0.08
877.006	0.04
877.289	0.06
877.572	0.03
877.854	0.04
878.137	0.12
878.42	-0.06
878.702	0.08
878.984	0.11
879.267	0.01
879.549	0.01
879.831	0.05
880.113	0.03
880.395	0.05
880.677	0.01
880.959	0.02
