Data from Rubpy_BV_1200_EDTA_Buffered_Absorbance_13-58-21-223.txt Node
Date: Wed Jul 01 13:58:21 BST 2026
User: fpm-admin
Spectrometer: OFX00224
Trigger mode: 0
Integration Time (sec): 7.000000E-2
Scans to average: 3
Nonlinearity correction enabled: false
Boxcar width: 0
Storing dark spectrum: false
XAxis mode: Wavelengths
Number of Pixels in Spectrum: 2136
>>>>>Begin Spectral Data<<<<<
154.91	-0
155.289	-0
155.669	-0
156.048	-0.82
156.428	-0
156.807	-0
157.186	-0
157.566	-0.3
157.945	0.15
158.325	0.07
158.704	-1.08
159.083	-0
159.462	-0.6
159.842	-0.34
160.221	-0
160.6	0.8
160.979	-0
161.359	0.04
161.738	-0.29
162.117	-0
162.496	-0.27
162.875	-0
163.254	-0
163.633	-0.07
164.012	-1.26
164.391	-0.06
164.77	-0.12
165.149	0.36
165.528	-0
165.907	-0
166.286	0.54
166.665	0.15
167.044	-1.27
167.423	0.03
167.802	-0.38
168.181	-0
168.559	-0
168.938	-0.32
169.317	0.24
169.696	-0
170.074	-0.22
170.453	-0.48
170.832	-0
171.21	-0.43
171.589	0.1
171.968	-0.08
172.346	0.02
172.725	-0
173.103	-0.73
173.482	-0.26
173.861	-0.68
174.239	0.64
174.617	-0.18
174.996	-0.1
175.374	-0
175.753	0.02
176.131	-1.31
176.51	0.28
176.888	-0
177.266	-0
177.645	0.11
178.023	0.31
178.401	-0.2
178.779	-0
179.158	-0
179.536	-0.44
179.914	-0
180.292	-0.39
180.67	-0.13
181.048	0.41
181.427	-0.88
181.805	-0.03
182.183	0.14
182.561	-0
182.939	0.46
183.317	-0.34
183.695	-0
184.073	-0
184.451	-0.54
184.829	0.05
185.206	-0.06
185.584	-0
185.962	-0
186.34	-1.12
186.718	-0
187.096	0.24
187.473	-0.25
187.851	0.73
188.229	-0
188.607	0.15
188.984	0.23
189.362	0.28
189.74	0.2
190.117	0.39
190.495	0.15
190.872	0.21
191.25	0.34
191.627	0.16
192.005	0.35
192.382	0.1
192.76	0.12
193.137	0.25
193.515	0.14
193.892	0.17
194.269	0.35
194.647	0.29
195.024	0.12
195.401	0.11
195.779	0.15
196.156	0.21
196.533	0.19
196.91	0.14
197.288	0.26
197.665	0.06
198.042	0.16
198.419	0.29
198.796	0.14
199.173	0.24
199.55	0.3
199.927	0.15
200.304	0.21
200.681	0.23
201.058	0.37
201.435	0.1
201.812	0.26
202.189	0.19
202.566	0.29
202.943	0.44
203.32	0.18
203.697	0.1
204.073	0.16
204.45	0.26
204.827	0.38
205.204	0.31
205.58	0.22
205.957	0.07
206.334	0.24
206.71	0.25
207.087	0.28
207.464	0.35
207.84	0.23
208.217	0.21
208.593	0.26
208.97	0.08
209.346	0.3
209.723	0.23
210.099	0.16
210.476	0.19
210.852	0.15
211.228	0.22
211.605	0.32
211.981	0.27
212.357	0.16
212.733	0.17
213.11	0.21
213.486	0.23
213.862	0.18
214.238	0.26
214.614	0.16
214.991	0.16
215.367	0.34
215.743	0.2
216.119	0.24
216.495	0.28
216.871	0.31
217.247	0.2
217.623	0.31
217.999	0.23
218.375	0.28
218.751	0.1
219.127	0.24
219.502	0.32
219.878	0.39
220.254	0.29
220.63	0.17
221.006	0.14
221.381	0.3
221.757	0.16
222.133	0.24
222.508	0.18
222.884	0.31
223.26	0.35
223.635	0.27
224.011	0.24
224.386	0.29
224.762	0.23
225.137	0.28
225.513	0.25
225.888	0.21
226.264	0.38
226.639	0.22
227.014	0.34
227.39	0.39
227.765	0.28
228.14	0.23
228.516	0.38
228.891	0.31
229.266	0.24
229.641	0.39
230.017	0.43
230.392	0.34
230.767	0.21
231.142	0.23
231.517	0.34
231.892	0.18
232.267	0.23
232.642	0.37
233.017	0.21
233.392	0.26
233.767	0.27
234.142	0.28
234.517	0.24
234.892	0.22
235.267	0.21
235.641	0.27
236.016	0.18
236.391	0.29
236.766	0.23
237.14	0.2
237.515	0.25
237.89	0.25
238.264	0.37
238.639	0.18
239.014	0.14
239.388	0.14
239.763	0.22
240.137	0.23
240.512	0.25
240.886	0.2
241.261	0.3
241.635	0.25
242.009	0.26
242.384	0.15
242.758	0.35
243.132	0.17
243.507	0.24
243.881	0.27
244.255	0.24
244.629	0.16
245.004	0.24
245.378	0.25
245.752	0.16
246.126	0.28
246.5	0.28
246.874	0.2
247.248	0.24
247.622	0.19
247.996	0.29
248.37	0.29
248.744	0.2
249.118	0.36
249.492	0.13
249.866	0.26
250.24	0.2
250.613	0.17
250.987	0.31
251.361	0.21
251.735	0.18
252.108	0.23
252.482	0.26
252.856	0.21
253.229	0.3
253.603	0.22
253.977	0.2
254.35	0.23
254.724	0.22
255.097	0.24
255.471	0.33
255.844	0.26
256.218	0.28
256.591	0.23
256.964	0.23
257.338	0.28
257.711	0.27
258.084	0.31
258.458	0.22
258.831	0.28
259.204	0.19
259.577	0.37
259.95	0.31
260.323	0.18
260.697	0.31
261.07	0.22
261.443	0.3
261.816	0.25
262.189	0.19
262.562	0.29
262.935	0.26
263.308	0.27
263.68	0.23
264.053	0.32
264.426	0.26
264.799	0.28
265.172	0.22
265.545	0.39
265.917	0.25
266.29	0.34
266.663	0.19
267.035	0.32
267.408	0.22
267.781	0.27
268.153	0.28
268.526	0.26
268.898	0.26
269.271	0.28
269.643	0.26
270.016	0.33
270.388	0.22
270.76	0.22
271.133	0.33
271.505	0.32
271.877	0.26
272.25	0.3
272.622	0.22
272.994	0.34
273.366	0.24
273.739	0.22
274.111	0.23
274.483	0.32
274.855	0.33
275.227	0.23
275.599	0.27
275.971	0.19
276.343	0.33
276.715	0.24
277.087	0.42
277.459	0.2
277.831	0.24
278.203	0.25
278.574	0.28
278.946	0.26
279.318	0.24
279.69	0.4
280.061	0.28
280.433	0.28
280.805	0.22
281.176	0.26
281.548	0.34
281.92	0.26
282.291	0.29
282.663	0.28
283.034	0.24
283.406	0.27
283.777	0.28
284.148	0.24
284.52	0.34
284.891	0.24
285.262	0.28
285.634	0.33
286.005	0.24
286.376	0.24
286.747	0.26
287.119	0.24
287.49	0.34
287.861	0.26
288.232	0.22
288.603	0.28
288.974	0.26
289.345	0.27
289.716	0.29
290.087	0.29
290.458	0.26
290.829	0.25
291.2	0.27
291.571	0.36
291.941	0.34
292.312	0.26
292.683	0.26
293.054	0.25
293.424	0.3
293.795	0.27
294.166	0.4
294.536	0.29
294.907	0.34
295.277	0.28
295.648	0.29
296.018	0.31
296.389	0.29
296.759	0.35
297.13	0.25
297.5	0.28
297.871	0.34
298.241	0.26
298.611	0.33
298.981	0.26
299.352	0.23
299.722	0.24
300.092	0.24
300.462	0.35
300.832	0.27
301.202	0.28
301.573	0.22
301.943	0.33
302.313	0.19
302.683	0.25
303.053	0.24
303.422	0.24
303.792	0.22
304.162	0.24
304.532	0.23
304.902	0.24
305.272	0.19
305.641	0.18
306.011	0.17
306.381	0.15
306.75	0.2
307.12	0.19
307.49	0.18
307.859	0.18
308.229	0.17
308.598	0.16
308.968	0.19
309.337	0.21
309.707	0.21
310.076	0.18
310.445	0.17
310.815	0.19
311.184	0.17
311.553	0.18
311.923	0.19
312.292	0.19
312.661	0.2
313.03	0.21
313.399	0.21
313.768	0.21
314.137	0.21
314.506	0.22
314.875	0.21
315.244	0.21
315.613	0.23
315.982	0.23
316.351	0.23
316.72	0.23
317.089	0.23
317.458	0.25
317.826	0.24
318.195	0.24
318.564	0.25
318.933	0.25
319.301	0.25
319.67	0.27
320.038	0.26
320.407	0.26
320.775	0.28
321.144	0.27
321.512	0.28
321.881	0.29
322.249	0.29
322.618	0.29
322.986	0.3
323.354	0.3
323.723	0.29
324.091	0.3
324.459	0.31
324.827	0.32
325.195	0.32
325.564	0.33
325.932	0.33
326.3	0.34
326.668	0.34
327.036	0.35
327.404	0.34
327.772	0.35
328.14	0.36
328.508	0.37
328.875	0.36
329.243	0.37
329.611	0.38
329.979	0.39
330.346	0.39
330.714	0.4
331.082	0.4
331.449	0.41
331.817	0.41
332.185	0.43
332.552	0.43
332.92	0.45
333.287	0.45
333.655	0.45
334.022	0.47
334.389	0.48
334.757	0.49
335.124	0.49
335.491	0.5
335.859	0.51
336.226	0.52
336.593	0.53
336.96	0.54
337.327	0.56
337.695	0.55
338.062	0.57
338.429	0.58
338.796	0.59
339.163	0.59
339.53	0.61
339.897	0.61
340.263	0.64
340.63	0.64
340.997	0.65
341.364	0.67
341.731	0.68
342.097	0.68
342.464	0.7
342.831	0.71
343.197	0.72
343.564	0.73
343.931	0.74
344.297	0.75
344.664	0.76
345.03	0.78
345.396	0.79
345.763	0.8
346.129	0.81
346.496	0.82
346.862	0.84
347.228	0.85
347.594	0.85
347.961	0.88
348.327	0.88
348.693	0.9
349.059	0.9
349.425	0.91
349.791	0.92
350.157	0.93
350.523	0.94
350.889	0.96
351.255	0.97
351.621	0.98
351.987	0.99
352.353	1.01
352.719	1.02
353.084	1.02
353.45	1.04
353.816	1.04
354.181	1.06
354.547	1.07
354.913	1.08
355.278	1.09
355.644	1.11
356.009	1.12
356.375	1.14
356.74	1.14
357.106	1.16
357.471	1.18
357.836	1.19
358.202	1.2
358.567	1.21
358.932	1.22
359.297	1.24
359.663	1.27
360.028	1.29
360.393	1.3
360.758	1.3
361.123	1.33
361.488	1.36
361.853	1.38
362.218	1.4
362.583	1.4
362.948	1.4
363.312	1.42
363.677	1.43
364.042	1.48
364.407	1.46
364.772	1.48
365.136	1.48
365.501	1.48
365.865	1.48
366.23	1.51
366.595	1.53
366.959	1.55
367.324	1.56
367.688	1.55
368.052	1.57
368.417	1.57
368.781	1.59
369.145	1.58
369.51	1.6
369.874	1.63
370.238	1.62
370.602	1.64
370.967	1.63
371.331	1.62
371.695	1.63
372.059	1.62
372.423	1.66
372.787	1.65
373.151	1.62
373.515	1.63
373.878	1.67
374.242	1.64
374.606	1.61
374.97	1.6
375.334	1.62
375.697	1.59
376.061	1.56
376.425	1.61
376.788	1.55
377.152	1.54
377.515	1.53
377.879	1.54
378.242	1.52
378.606	1.5
378.969	1.49
379.333	1.46
379.696	1.45
380.059	1.44
380.422	1.42
380.786	1.4
381.149	1.38
381.512	1.37
381.875	1.35
382.238	1.35
382.601	1.33
382.964	1.31
383.327	1.3
383.69	1.28
384.053	1.26
384.416	1.25
384.779	1.26
385.142	1.23
385.504	1.22
385.867	1.24
386.23	1.21
386.593	1.2
386.955	1.2
387.318	1.21
387.68	1.19
388.043	1.2
388.405	1.19
388.768	1.19
389.13	1.17
389.493	1.16
389.855	1.17
390.217	1.16
390.58	1.14
390.942	1.14
391.304	1.12
391.666	1.11
392.028	1.1
392.391	1.08
392.753	1.07
393.115	1.05
393.477	1.04
393.839	1.03
394.201	1.02
394.563	1
394.924	1.02
395.286	1.02
395.648	1
396.01	1.01
396.371	1.03
396.733	1.04
397.095	1.05
397.456	1.06
397.818	1.1
398.18	1.12
398.541	1.13
398.903	1.15
399.264	1.19
399.625	1.21
399.987	1.24
400.348	1.24
400.709	1.27
401.071	1.28
401.432	1.29
401.793	1.29
402.154	1.26
402.515	1.26
402.876	1.25
403.238	1.22
403.599	1.19
403.96	1.15
404.32	1.13
404.681	1.08
405.042	1.04
405.403	0.99
405.764	0.94
406.125	0.9
406.485	0.85
406.846	0.82
407.207	0.78
407.567	0.74
407.928	0.69
408.288	0.66
408.649	0.62
409.009	0.58
409.37	0.55
409.73	0.52
410.091	0.5
410.451	0.47
410.811	0.45
411.171	0.43
411.532	0.4
411.892	0.39
412.252	0.37
412.612	0.35
412.972	0.34
413.332	0.33
413.692	0.31
414.052	0.3
414.412	0.29
414.772	0.27
415.132	0.27
415.492	0.26
415.851	0.25
416.211	0.24
416.571	0.23
416.931	0.23
417.29	0.21
417.65	0.21
418.009	0.21
418.369	0.2
418.728	0.19
419.088	0.19
419.447	0.18
419.807	0.18
420.166	0.18
420.525	0.17
420.884	0.17
421.244	0.17
421.603	0.17
421.962	0.16
422.321	0.16
422.68	0.15
423.039	0.15
423.398	0.16
423.757	0.15
424.116	0.15
424.475	0.15
424.834	0.15
425.193	0.14
425.551	0.14
425.91	0.13
426.269	0.14
426.628	0.14
426.986	0.13
427.345	0.13
427.703	0.14
428.062	0.14
428.42	0.13
428.779	0.12
429.137	0.13
429.496	0.13
429.854	0.13
430.212	0.13
430.57	0.13
430.929	0.13
431.287	0.12
431.645	0.12
432.003	0.13
432.361	0.12
432.719	0.12
433.077	0.13
433.435	0.13
433.793	0.13
434.151	0.12
434.509	0.12
434.866	0.11
435.224	0.11
435.582	0.11
435.94	0.12
436.297	0.12
436.655	0.12
437.012	0.12
437.37	0.13
437.727	0.13
438.085	0.11
438.442	0.12
438.8	0.12
439.157	0.12
439.514	0.12
439.872	0.11
440.229	0.12
440.586	0.13
440.943	0.12
441.3	0.12
441.657	0.12
442.014	0.12
442.371	0.12
442.728	0.12
443.085	0.12
443.442	0.12
443.799	0.11
444.156	0.12
444.513	0.12
444.869	0.12
445.226	0.13
445.583	0.13
445.939	0.12
446.296	0.13
446.652	0.13
447.009	0.12
447.365	0.13
447.722	0.13
448.078	0.12
448.434	0.12
448.791	0.13
449.147	0.12
449.503	0.13
449.859	0.13
450.215	0.13
450.571	0.12
450.928	0.13
451.284	0.12
451.64	0.12
451.995	0.13
452.351	0.12
452.707	0.13
453.063	0.12
453.419	0.12
453.775	0.13
454.13	0.12
454.486	0.12
454.842	0.13
455.197	0.12
455.553	0.12
455.908	0.11
456.264	0.11
456.619	0.11
456.975	0.12
457.33	0.12
457.685	0.12
458.04	0.12
458.396	0.11
458.751	0.11
459.106	0.12
459.461	0.1
459.816	0.1
460.171	0.1
460.526	0.11
460.881	0.1
461.236	0.11
461.591	0.11
461.946	0.1
462.301	0.1
462.655	0.1
463.01	0.1
463.365	0.09
463.719	0.08
464.074	0.09
464.428	0.07
464.783	0.08
465.137	0.07
465.492	0.08
465.846	0.08
466.201	0.08
466.555	0.09
466.909	0.08
467.263	0.09
467.618	0.09
467.972	0.09
468.326	0.09
468.68	0.08
469.034	0.08
469.388	0.08
469.742	0.09
470.096	0.09
470.45	0.09
470.804	0.1
471.157	0.09
471.511	0.1
471.865	0.1
472.218	0.1
472.572	0.11
472.926	0.11
473.279	0.12
473.633	0.13
473.986	0.14
474.34	0.14
474.693	0.15
475.046	0.16
475.4	0.16
475.753	0.17
476.106	0.18
476.459	0.18
476.812	0.19
477.165	0.2
477.519	0.21
477.872	0.21
478.224	0.21
478.577	0.22
478.93	0.22
479.283	0.23
479.636	0.24
479.989	0.24
480.341	0.25
480.694	0.25
481.047	0.26
481.399	0.27
481.752	0.27
482.104	0.28
482.457	0.28
482.809	0.29
483.162	0.29
483.514	0.3
483.866	0.3
484.219	0.3
484.571	0.31
484.923	0.31
485.275	0.32
485.627	0.32
485.979	0.33
486.331	0.33
486.683	0.33
487.035	0.33
487.387	0.35
487.739	0.35
488.091	0.35
488.443	0.36
488.794	0.36
489.146	0.36
489.498	0.37
489.849	0.37
490.201	0.37
490.552	0.37
490.904	0.38
491.255	0.39
491.607	0.39
491.958	0.39
492.309	0.4
492.661	0.4
493.012	0.41
493.363	0.4
493.714	0.4
494.065	0.41
494.416	0.42
494.767	0.42
495.118	0.42
495.469	0.43
495.82	0.43
496.171	0.44
496.522	0.44
496.872	0.44
497.223	0.45
497.574	0.45
497.924	0.45
498.275	0.46
498.626	0.46
498.976	0.47
499.327	0.47
499.677	0.47
500.027	0.47
500.378	0.48
500.728	0.48
501.078	0.48
501.428	0.49
501.779	0.49
502.129	0.5
502.479	0.51
502.829	0.5
503.179	0.51
503.529	0.51
503.879	0.51
504.229	0.51
504.578	0.52
504.928	0.53
505.278	0.53
505.628	0.53
505.977	0.53
506.327	0.53
506.676	0.55
507.026	0.54
507.375	0.55
507.725	0.56
508.074	0.56
508.424	0.56
508.773	0.56
509.122	0.57
509.471	0.57
509.82	0.57
510.17	0.57
510.519	0.58
510.868	0.58
511.217	0.59
511.566	0.58
511.915	0.59
512.263	0.58
512.612	0.6
512.961	0.6
513.31	0.6
513.659	0.61
514.007	0.6
514.356	0.61
514.704	0.62
515.053	0.62
515.401	0.62
515.75	0.62
516.098	0.63
516.447	0.63
516.795	0.64
517.143	0.64
517.491	0.64
517.839	0.64
518.188	0.65
518.536	0.64
518.884	0.65
519.232	0.65
519.58	0.65
519.928	0.66
520.275	0.66
520.623	0.66
520.971	0.66
521.319	0.67
521.666	0.67
522.014	0.67
522.362	0.68
522.709	0.67
523.057	0.68
523.404	0.68
523.752	0.68
524.099	0.68
524.446	0.69
524.794	0.69
525.141	0.69
525.488	0.69
525.835	0.7
526.182	0.69
526.529	0.7
526.876	0.7
527.223	0.71
527.57	0.7
527.917	0.71
528.264	0.7
528.611	0.7
528.958	0.71
529.304	0.71
529.651	0.72
529.998	0.72
530.344	0.72
530.691	0.72
531.037	0.72
531.384	0.73
531.73	0.72
532.076	0.73
532.423	0.73
532.769	0.72
533.115	0.73
533.461	0.74
533.807	0.73
534.154	0.73
534.5	0.73
534.846	0.74
535.192	0.74
535.537	0.74
535.883	0.75
536.229	0.75
536.575	0.75
536.921	0.75
537.266	0.76
537.612	0.76
537.957	0.75
538.303	0.76
538.649	0.76
538.994	0.76
539.339	0.76
539.685	0.76
540.03	0.76
540.375	0.77
540.721	0.77
541.066	0.77
541.411	0.77
541.756	0.77
542.101	0.77
542.446	0.77
542.791	0.77
543.136	0.77
543.481	0.78
543.825	0.77
544.17	0.77
544.515	0.77
544.86	0.77
545.204	0.78
545.549	0.78
545.893	0.77
546.238	0.78
546.582	0.79
546.927	0.78
547.271	0.78
547.615	0.79
547.96	0.78
548.304	0.78
548.648	0.79
548.992	0.78
549.336	0.78
549.68	0.78
550.024	0.79
550.368	0.79
550.712	0.79
551.056	0.78
551.4	0.79
551.743	0.79
552.087	0.79
552.431	0.79
552.774	0.79
553.118	0.78
553.462	0.78
553.805	0.79
554.148	0.78
554.492	0.78
554.835	0.79
555.178	0.78
555.522	0.78
555.865	0.79
556.208	0.78
556.551	0.78
556.894	0.78
557.237	0.78
557.58	0.78
557.923	0.78
558.266	0.78
558.609	0.78
558.952	0.78
559.294	0.78
559.637	0.78
559.98	0.78
560.322	0.77
560.665	0.78
561.007	0.77
561.35	0.77
561.692	0.78
562.034	0.78
562.377	0.77
562.719	0.77
563.061	0.77
563.403	0.78
563.745	0.77
564.088	0.77
564.43	0.77
564.772	0.77
565.113	0.77
565.455	0.77
565.797	0.77
566.139	0.77
566.481	0.76
566.822	0.77
567.164	0.76
567.506	0.76
567.847	0.76
568.189	0.76
568.53	0.76
568.872	0.75
569.213	0.75
569.554	0.75
569.895	0.75
570.237	0.76
570.578	0.75
570.919	0.75
571.26	0.74
571.601	0.75
571.942	0.75
572.283	0.74
572.624	0.74
572.965	0.74
573.306	0.74
573.646	0.73
573.987	0.73
574.328	0.73
574.668	0.73
575.009	0.73
575.349	0.73
575.69	0.73
576.03	0.72
576.37	0.72
576.711	0.71
577.051	0.72
577.391	0.72
577.731	0.72
578.072	0.72
578.412	0.71
578.752	0.71
579.092	0.71
579.431	0.69
579.771	0.67
580.111	0.66
580.451	0.67
580.791	0.69
581.13	0.7
581.47	0.7
581.81	0.69
582.149	0.69
582.489	0.69
582.828	0.69
583.167	0.66
583.507	0.61
583.846	0.6
584.185	0.63
584.525	0.65
584.864	0.67
585.203	0.69
585.542	0.69
585.881	0.69
586.22	0.68
586.559	0.68
586.898	0.67
587.236	0.66
587.575	0.65
587.914	0.66
588.252	0.67
588.591	0.68
588.93	0.68
589.268	0.67
589.607	0.67
589.945	0.67
590.283	0.67
590.622	0.68
590.96	0.68
591.298	0.68
591.636	0.68
591.974	0.68
592.313	0.68
592.651	0.68
592.989	0.68
593.326	0.69
593.664	0.68
594.002	0.69
594.34	0.68
594.678	0.67
595.015	0.67
595.353	0.66
595.691	0.67
596.028	0.68
596.366	0.67
596.703	0.67
597.04	0.68
597.378	0.68
597.715	0.68
598.052	0.68
598.389	0.68
598.726	0.68
599.064	0.67
599.401	0.67
599.738	0.68
600.074	0.67
600.411	0.67
600.748	0.67
601.085	0.66
601.422	0.66
601.758	0.66
602.095	0.66
602.432	0.66
602.768	0.66
603.105	0.66
603.441	0.66
603.777	0.66
604.114	0.66
604.45	0.66
604.786	0.66
605.122	0.66
605.459	0.66
605.795	0.65
606.131	0.65
606.467	0.65
606.803	0.65
607.139	0.65
607.474	0.65
607.81	0.64
608.146	0.64
608.482	0.64
608.817	0.64
609.153	0.64
609.488	0.63
609.824	0.63
610.159	0.64
610.495	0.63
610.83	0.63
611.165	0.63
611.5	0.63
611.836	0.62
612.171	0.62
612.506	0.62
612.841	0.63
613.176	0.62
613.511	0.62
613.845	0.62
614.18	0.62
614.515	0.61
614.85	0.61
615.184	0.61
615.519	0.61
615.854	0.61
616.188	0.6
616.523	0.6
616.857	0.6
617.191	0.6
617.526	0.59
617.86	0.59
618.194	0.59
618.528	0.58
618.862	0.58
619.196	0.59
619.53	0.58
619.864	0.58
620.198	0.58
620.532	0.58
620.866	0.58
621.2	0.57
621.533	0.58
621.867	0.57
622.201	0.56
622.534	0.57
622.868	0.56
623.201	0.56
623.534	0.56
623.868	0.56
624.201	0.55
624.534	0.55
624.868	0.54
625.201	0.55
625.534	0.54
625.867	0.54
626.2	0.54
626.533	0.54
626.865	0.54
627.198	0.53
627.531	0.53
627.864	0.53
628.196	0.52
628.529	0.52
628.862	0.52
629.194	0.51
629.527	0.51
629.859	0.51
630.191	0.5
630.524	0.5
630.856	0.5
631.188	0.5
631.52	0.5
631.852	0.5
632.184	0.49
632.516	0.49
632.848	0.48
633.18	0.48
633.512	0.48
633.844	0.47
634.175	0.47
634.507	0.47
634.839	0.47
635.17	0.46
635.502	0.46
635.833	0.46
636.165	0.46
636.496	0.45
636.827	0.45
637.159	0.45
637.49	0.44
637.821	0.44
638.152	0.43
638.483	0.43
638.814	0.43
639.145	0.43
639.476	0.42
639.807	0.42
640.137	0.42
640.468	0.42
640.799	0.41
641.129	0.41
641.46	0.4
641.791	0.4
642.121	0.4
642.451	0.4
642.782	0.4
643.112	0.4
643.442	0.4
643.773	0.39
644.103	0.39
644.433	0.39
644.763	0.38
645.093	0.38
645.423	0.38
645.753	0.38
646.082	0.38
646.412	0.37
646.742	0.37
647.072	0.37
647.401	0.37
647.731	0.37
648.06	0.36
648.39	0.36
648.719	0.36
649.048	0.36
649.378	0.35
649.707	0.35
650.036	0.35
650.365	0.35
650.694	0.34
651.023	0.35
651.352	0.34
651.681	0.34
652.01	0.35
652.339	0.34
652.668	0.34
652.996	0.34
653.325	0.34
653.654	0.34
653.982	0.34
654.311	0.34
654.639	0.34
654.967	0.34
655.296	0.33
655.624	0.33
655.952	0.33
656.28	0.33
656.609	0.33
656.937	0.33
657.265	0.33
657.593	0.21
657.92	0.11
658.248	0.06
658.576	0.08
658.904	0.17
659.231	0.26
659.559	0.31
659.887	0.31
660.214	0.31
660.542	0.31
660.869	0.31
661.196	0.31
661.524	0.31
661.851	0.31
662.178	0.31
662.505	0.31
662.832	0.31
663.159	0.31
663.486	0.31
663.813	0.31
664.14	0.3
664.467	0.3
664.794	0.3
665.12	0.3
665.447	0.3
665.774	0.29
666.1	0.29
666.427	0.29
666.753	0.29
667.079	0.29
667.406	0.29
667.732	0.29
668.058	0.29
668.384	0.28
668.71	0.28
669.036	0.28
669.362	0.28
669.688	0.28
670.014	0.28
670.34	0.28
670.666	0.27
670.991	0.27
671.317	0.27
671.643	0.26
671.968	0.26
672.294	0.26
672.619	0.25
672.945	0.25
673.27	0.25
673.595	0.25
673.92	0.25
674.246	0.25
674.571	0.25
674.896	0.25
675.221	0.24
675.546	0.24
675.87	0.24
676.195	0.24
676.52	0.24
676.845	0.23
677.169	0.23
677.494	0.23
677.819	0.23
678.143	0.22
678.468	0.22
678.792	0.22
679.116	0.22
679.44	0.22
679.765	0.22
680.089	0.21
680.413	0.21
680.737	0.2
681.061	0.2
681.385	0.2
681.709	0.2
682.033	0.19
682.356	0.19
682.68	0.19
683.004	0.19
683.327	0.19
683.651	0.18
683.974	0.19
684.298	0.18
684.621	0.18
684.944	0.18
685.268	0.18
685.591	0.17
685.914	0.17
686.237	0.17
686.56	0.17
686.883	0.16
687.206	0.16
687.529	0.15
687.852	0.15
688.175	0.15
688.497	0.16
688.82	0.15
689.142	0.15
689.465	0.15
689.787	0.15
690.11	0.15
690.432	0.14
690.755	0.14
691.077	0.14
691.399	0.14
691.721	0.14
692.043	0.14
692.365	0.13
692.687	0.13
693.009	0.13
693.331	0.12
693.653	0.12
693.974	0.12
694.296	0.12
694.618	0.12
694.939	0.12
695.261	0.12
695.582	0.12
695.904	0.12
696.225	0.12
696.546	0.12
696.868	0.12
697.189	0.11
697.51	0.11
697.831	0.11
698.152	0.11
698.473	0.11
698.794	0.1
699.114	0.1
699.435	0.08
699.756	0.09
700.077	0.09
700.397	0.09
700.718	0.1
701.038	0.1
701.359	0.1
701.679	0.1
701.999	0.1
702.32	0.1
702.64	0.1
702.96	0.09
703.28	0.09
703.6	0.1
703.92	0.09
704.24	0.09
704.56	0.08
704.879	0.08
705.199	0.09
705.519	0.09
705.838	0.09
706.158	0.09
706.478	0.09
706.797	0.09
707.116	0.09
707.436	0.09
707.755	0.09
708.074	0.09
708.393	0.08
708.712	0.08
709.031	0.06
709.35	0.06
709.669	0.06
709.988	0.06
710.307	0.07
710.626	0.07
710.944	0.08
711.263	0.08
711.582	0.08
711.9	0.08
712.219	0.07
712.537	0.08
712.855	0.08
713.174	0.08
713.492	0.08
713.81	0.08
714.128	0.08
714.446	0.08
714.764	0.08
715.082	0.07
715.4	0.08
715.718	0.07
716.035	0.07
716.353	0.07
716.671	0.07
716.988	0.07
717.306	0.07
717.623	0.08
717.941	0.08
718.258	0.08
718.575	0.09
718.893	0.09
719.21	0.08
719.527	0.09
719.844	0.08
720.161	0.08
720.478	0.08
720.795	0.08
721.112	0.08
721.428	0.09
721.745	0.09
722.062	0.08
722.378	0.09
722.695	0.09
723.011	0.08
723.328	0.08
723.644	0.09
723.96	0.09
724.276	0.09
724.593	0.09
724.909	0.09
725.225	0.09
725.541	0.09
725.857	0.09
726.173	0.09
726.488	0.1
726.804	0.09
727.12	0.09
727.435	0.09
727.751	0.09
728.067	0.09
728.382	0.1
728.697	0.09
729.013	0.1
729.328	0.09
729.643	0.1
729.958	0.1
730.273	0.09
730.588	0.09
730.903	0.09
731.218	0.09
731.533	0.09
731.848	0.09
732.163	0.09
732.477	0.09
732.792	0.09
733.107	0.08
733.421	0.08
733.736	0.08
734.05	0.08
734.364	0.08
734.678	0.08
734.993	0.08
735.307	0.08
735.621	0.08
735.935	0.08
736.249	0.08
736.563	0.08
736.877	0.08
737.19	0.08
737.504	0.08
737.818	0.08
738.131	0.08
738.445	0.09
738.758	0.08
739.072	0.08
739.385	0.08
739.698	0.08
740.012	0.08
740.325	0.08
740.638	0.08
740.951	0.08
741.264	0.08
741.577	0.08
741.89	0.08
742.203	0.08
742.515	0.08
742.828	0.08
743.141	0.08
743.453	0.08
743.766	0.07
744.078	0.07
744.391	0.07
744.703	0.07
745.015	0.07
745.327	0.07
745.639	0.07
745.952	0.07
746.264	0.07
746.575	0.07
746.887	0.06
747.199	0.06
747.511	0.06
747.823	0.06
748.134	0.06
748.446	0.06
748.757	0.06
749.069	0.06
749.38	0.06
749.692	0.06
750.003	0.06
750.314	0.06
750.625	0.06
750.936	0.06
751.248	0.06
751.559	0.06
751.869	0.06
752.18	0.06
752.491	0.06
752.802	0.06
753.112	0.06
753.423	0.06
753.734	0.06
754.044	0.05
754.355	0.06
754.665	0.05
754.975	0.05
755.285	0.05
755.596	0.05
755.906	0.05
756.216	0.05
756.526	0.05
756.836	0.05
757.146	0.04
757.455	0.05
757.765	0.05
758.075	0.05
758.385	0.05
758.694	0.04
759.004	0.04
759.313	0.04
759.622	0.04
759.932	0.04
760.241	0.04
760.55	0.04
760.859	0.04
761.168	0.04
761.477	0.04
761.786	0.04
762.095	0.03
762.404	0.03
762.713	0.03
763.021	0.04
763.33	0.04
763.639	0.04
763.947	0.04
764.256	0.04
764.564	0.04
764.872	0.04
765.181	0.03
765.489	0.03
765.797	0.04
766.105	0.03
766.413	0.03
766.721	0.04
767.029	0.03
767.337	0.03
767.644	0.04
767.952	0.04
768.26	0.04
768.567	0.04
768.875	0.04
769.182	0.04
769.49	0.04
769.797	0.04
770.104	0.04
770.411	0.04
770.718	0.03
771.026	0.03
771.333	0.03
771.639	0.04
771.946	0.04
772.253	0.04
772.56	0.03
772.867	0.04
773.173	0.04
773.48	0.04
773.786	0.04
774.093	0.04
774.399	0.04
774.705	0.04
775.012	0.04
775.318	0.04
775.624	0.04
775.93	0.04
776.236	0.04
776.542	0.04
776.848	0.05
777.154	0.04
777.459	0.04
777.765	0.04
778.071	0.05
778.376	0.04
778.682	0.05
778.987	0.04
779.292	0.04
779.598	0.04
779.903	0.04
780.208	0.04
780.513	0.04
780.818	0.04
781.123	0.04
781.428	0.04
781.733	0.04
782.038	0.04
782.343	0.04
782.647	0.04
782.952	0.04
783.256	0.04
783.561	0.04
783.865	0.04
784.17	0.04
784.474	0.04
784.778	0.04
785.082	0.04
785.386	0.05
785.69	0.05
785.994	0.05
786.298	0.05
786.602	0.05
786.906	0.05
787.209	0.05
787.513	0.05
787.817	0.05
788.12	0.04
788.424	0.04
788.727	0.05
789.03	0.05
789.333	0.05
789.637	0.05
789.94	0.05
790.243	0.05
790.546	0.05
790.849	0.05
791.152	0.05
791.454	0.05
791.757	0.05
792.06	0.05
792.362	0.05
792.665	0.05
792.967	0.05
793.27	0.05
793.572	0.05
793.874	0.06
794.177	0.05
794.479	0.06
794.781	0.05
795.083	0.06
795.385	0.05
795.687	0.06
795.989	0.05
796.29	0.06
796.592	0.06
796.894	0.06
797.195	0.05
797.497	0.05
797.798	0.05
798.1	0.05
798.401	0.05
798.702	0.05
799.003	0.05
799.304	0.05
799.605	0.04
799.906	0.05
800.207	0.04
800.508	0.04
800.809	0.05
801.11	0.04
801.41	0.04
801.711	0.05
802.011	0.04
802.312	0.05
802.612	0.05
802.913	0.05
803.213	0.06
803.513	0.06
803.813	0.06
804.113	0.06
804.413	0.07
804.713	0.06
805.013	0.06
805.313	0.07
805.613	0.06
805.912	0.06
806.212	0.07
806.511	0.06
806.811	0.07
807.11	0.06
807.41	0.06
807.709	0.06
808.008	0.06
808.307	0.06
808.606	0.06
808.905	0.06
809.204	0.07
809.503	0.06
809.802	0.07
810.101	0.07
810.399	0.07
810.698	0.07
810.997	0.07
811.295	0.06
811.593	0.07
811.892	0.07
812.19	0.07
812.488	0.07
812.786	0.07
813.084	0.07
813.383	0.07
813.68	0.07
813.978	0.07
814.276	0.07
814.574	0.07
814.872	0.08
815.169	0.07
815.467	0.07
815.764	0.07
816.062	0.07
816.359	0.07
816.656	0.08
816.954	0.08
817.251	0.08
817.548	0.07
817.845	0.07
818.142	0.07
818.439	0.08
818.735	0.08
819.032	0.08
819.329	0.07
819.626	0.07
819.922	0.07
820.219	0.08
820.515	0.07
820.811	0.07
821.108	0.08
821.404	0.07
821.7	0.08
821.996	0.08
822.292	0.08
822.588	0.08
822.884	0.08
823.18	0.08
823.475	0.08
823.771	0.08
824.067	0.08
824.362	0.08
824.658	0.08
824.953	0.08
825.249	0.08
825.544	0.07
825.839	0.07
826.134	0.08
826.429	0.08
826.724	0.08
827.019	0.07
827.314	0.08
827.609	0.09
827.904	0.09
828.198	0.09
828.493	0.09
828.787	0.08
829.082	0.09
829.376	0.09
829.671	0.09
829.965	0.09
830.259	0.09
830.553	0.09
830.847	0.09
831.141	0.09
831.435	0.09
831.729	0.09
832.023	0.1
832.317	0.1
832.61	0.09
832.904	0.09
833.197	0.09
833.491	0.09
833.784	0.09
834.077	0.1
834.371	0.09
834.664	0.1
834.957	0.1
835.25	0.1
835.543	0.1
835.836	0.09
836.129	0.09
836.421	0.1
836.714	0.1
837.007	0.1
837.299	0.1
837.592	0.09
837.884	0.09
838.177	0.09
838.469	0.09
838.761	0.09
839.053	0.08
839.345	0.1
839.637	0.1
839.929	0.1
840.221	0.1
840.513	0.1
840.805	0.1
841.096	0.11
841.388	0.09
841.68	0.1
841.971	0.1
842.262	0.1
842.554	0.09
842.845	0.1
843.136	0.1
843.427	0.1
843.718	0.1
844.009	0.1
844.3	0.11
844.591	0.1
844.882	0.1
845.173	0.1
845.463	0.11
845.754	0.11
846.044	0.11
846.335	0.1
846.625	0.1
846.915	0.11
847.206	0.11
847.496	0.12
847.786	0.12
848.076	0.12
848.366	0.12
848.656	0.12
848.945	0.12
849.235	0.12
849.525	0.13
849.814	0.12
850.104	0.11
850.393	0.12
850.683	0.12
850.972	0.13
851.261	0.11
851.551	0.11
851.84	0.11
852.129	0.11
852.418	0.11
852.707	0.11
852.995	0.12
853.284	0.13
853.573	0.11
853.862	0.12
854.15	0.12
854.439	0.11
854.727	0.12
855.015	0.11
855.304	0.13
855.592	0.13
855.88	0.13
856.168	0.14
856.456	0.13
856.744	0.12
857.032	0.13
857.32	0.12
857.607	0.12
857.895	0.12
858.183	0.13
858.47	0.13
858.757	0.12
859.045	0.13
859.332	0.13
859.619	0.12
859.907	0.13
860.194	0.13
860.481	0.14
860.768	0.12
861.054	0.13
861.341	0.12
861.628	0.13
861.915	0.13
862.201	0.13
862.488	0.13
862.774	0.14
863.061	0.15
863.347	0.12
863.633	0.13
863.919	0.13
864.205	0.14
864.491	0.13
864.777	0.14
865.063	0.15
865.349	0.12
865.635	0.15
865.92	0.16
866.206	0.14
866.492	0.13
866.777	0.14
867.062	0.12
867.348	0.15
867.633	0.15
867.918	0.12
868.203	0.14
868.488	0.13
868.773	0.13
869.058	0.14
869.343	0.17
869.628	0.15
869.912	0.12
870.197	0.1
870.482	0.09
870.766	0.1
871.05	0.14
871.335	0.15
871.619	0.13
871.903	0.13
872.187	0.11
872.471	0.15
872.755	0.11
873.039	0.08
873.323	0.12
873.607	0.11
873.89	0.13
874.174	0.1
874.458	0.09
874.741	0.16
875.024	0.15
875.308	0.1
875.591	0.07
875.874	0.08
876.157	0.1
876.44	0.15
876.723	0.15
877.006	0.13
877.289	0.14
877.572	0.07
877.854	0.11
878.137	0.21
878.42	0.02
878.702	0.14
878.984	0.12
879.267	0.03
879.549	0.11
879.831	0.13
880.113	0.12
880.395	0.07
880.677	-0
880.959	0.06
