Data from Rubpy_BV_1200_EDTA_Buffered_Absorbance_13-42-01-089.txt Node
Date: Wed Jul 01 13:42:01 BST 2026
User: fpm-admin
Spectrometer: OFX00224
Trigger mode: 0
Integration Time (sec): 7.000000E-2
Scans to average: 3
Nonlinearity correction enabled: false
Boxcar width: 0
Storing dark spectrum: false
XAxis mode: Wavelengths
Number of Pixels in Spectrum: 2136
>>>>>Begin Spectral Data<<<<<
154.91	-0
155.289	-0.64
155.669	-0.59
156.048	-1.01
156.428	0.6
156.807	-0.23
157.186	-0
157.566	-0
157.945	-0.1
158.325	-0.02
158.704	-0
159.083	0.51
159.462	-0
159.842	-0.27
160.221	-0
160.6	0.54
160.979	-0
161.359	-0
161.738	-0.12
162.117	-0
162.496	-0
162.875	-0.35
163.254	-0
163.633	-0.5
164.012	-0
164.391	0.02
164.77	-0.2
165.149	0.08
165.528	-0
165.907	-0
166.286	0.13
166.665	0.47
167.044	-1
167.423	-0.12
167.802	-0.34
168.181	-0
168.559	-0
168.938	-0.44
169.317	-0.26
169.696	-0
170.074	-0.92
170.453	-0
170.832	-0.51
171.21	-0.38
171.589	-0
171.968	-0
172.346	0.02
172.725	-0
173.103	-0.68
173.482	-0.28
173.861	-0.65
174.239	-0.16
174.617	-0.1
174.996	0.09
175.374	-1.08
175.753	0.15
176.131	-1.27
176.51	0.96
176.888	-0
177.266	-0
177.645	0.14
178.023	0.5
178.401	-0.1
178.779	-0
179.158	-0
179.536	0.78
179.914	-0
180.292	-0
180.67	-0.32
181.048	0.3
181.427	-0.79
181.805	-0.3
182.183	-0
182.561	-0
182.939	-0
183.317	0.78
183.695	0.27
184.073	-0.49
184.451	-0.3
184.829	0.19
185.206	-0.28
185.584	-0
185.962	-0
186.34	-0.6
186.718	-0
187.096	0.84
187.473	-0.16
187.851	0.09
188.229	-0.59
188.607	0.01
188.984	0.17
189.362	0.17
189.74	0.02
190.117	0.24
190.495	0.05
190.872	0.11
191.25	0.14
191.627	0.09
192.005	0.1
192.382	0.11
192.76	0.02
193.137	0.07
193.515	0.04
193.892	0.08
194.269	0.17
194.647	0.17
195.024	0.06
195.401	0.05
195.779	0.06
196.156	0.05
196.533	0.07
196.91	0.1
197.288	0.09
197.665	0.12
198.042	0.05
198.419	0.16
198.796	-0.05
199.173	0.11
199.55	0.19
199.927	0.13
200.304	0.12
200.681	0.17
201.058	0.16
201.435	-0.04
201.812	0.23
202.189	0.04
202.566	0.14
202.943	0.26
203.32	0.12
203.697	0.12
204.073	0.03
204.45	0.06
204.827	0.08
205.204	0.08
205.58	0.13
205.957	0.14
206.334	0.1
206.71	0.2
207.087	0.15
207.464	0.13
207.84	0.06
208.217	0.1
208.593	0.15
208.97	0.03
209.346	0.09
209.723	0.12
210.099	0.05
210.476	0.06
210.852	0.14
211.228	0.02
211.605	0.02
211.981	0.08
212.357	0.06
212.733	0.04
213.11	0.05
213.486	0.12
213.862	0.14
214.238	0.15
214.614	0.07
214.991	0.04
215.367	0.18
215.743	0.05
216.119	0.07
216.495	0.08
216.871	0.17
217.247	0.11
217.623	0.22
217.999	0.18
218.375	0.15
218.751	0.04
219.127	0.11
219.502	0.05
219.878	0.19
220.254	0.15
220.63	0.06
221.006	0.07
221.381	0.15
221.757	0.03
222.133	0.09
222.508	0.21
222.884	0.2
223.26	0.06
223.635	0.12
224.011	0.06
224.386	0.17
224.762	0.13
225.137	0.15
225.513	0.1
225.888	0.16
226.264	0.18
226.639	0.08
227.014	0.08
227.39	0.11
227.765	0.17
228.14	0.16
228.516	0.13
228.891	0.16
229.266	0.14
229.641	0.11
230.017	0.12
230.392	0.19
230.767	0.14
231.142	0.16
231.517	0.15
231.892	0.11
232.267	0.04
232.642	0.22
233.017	0.07
233.392	0.08
233.767	0.14
234.142	0.16
234.517	0.08
234.892	0.08
235.267	0.16
235.641	0.12
236.016	0.17
236.391	0.13
236.766	0.2
237.14	0.21
237.515	0.15
237.89	0.14
238.264	0.15
238.639	0.12
239.014	0.09
239.388	0.11
239.763	0.12
240.137	0.1
240.512	0.18
240.886	0.04
241.261	0.13
241.635	0.13
242.009	0.1
242.384	0.12
242.758	0.1
243.132	0.04
243.507	0.19
243.881	0.1
244.255	0.18
244.629	0.13
245.004	0.15
245.378	0.02
245.752	0.07
246.126	0.06
246.5	0.17
246.874	0.11
247.248	0.14
247.622	0.09
247.996	0.16
248.37	0.15
248.744	0.1
249.118	0.13
249.492	0.09
249.866	0.12
250.24	0.1
250.613	0.06
250.987	0.17
251.361	0.15
251.735	0.13
252.108	0.12
252.482	0.13
252.856	0.04
253.229	0.17
253.603	0.19
253.977	0.06
254.35	0.17
254.724	0.14
255.097	0.17
255.471	0.18
255.844	0.18
256.218	0.18
256.591	0.12
256.964	0.1
257.338	0.12
257.711	0.15
258.084	0.15
258.458	0.15
258.831	0.13
259.204	0.07
259.577	0.14
259.95	0.13
260.323	0.15
260.697	0.12
261.07	0.15
261.443	0.25
261.816	0.15
262.189	0.1
262.562	0.15
262.935	0.13
263.308	0.16
263.68	0.16
264.053	0.13
264.426	0.14
264.799	0.18
265.172	0.13
265.545	0.24
265.917	0.12
266.29	0.15
266.663	0.1
267.035	0.12
267.408	0.19
267.781	0.12
268.153	0.1
268.526	0.07
268.898	0.13
269.271	0.1
269.643	0.14
270.016	0.06
270.388	0.11
270.76	0.08
271.133	0.17
271.505	0.13
271.877	0.17
272.25	0.18
272.622	0.18
272.994	0.17
273.366	0.06
273.739	0.14
274.111	0.06
274.483	0.16
274.855	0.21
275.227	0.16
275.599	0.1
275.971	0.11
276.343	0.14
276.715	0.11
277.087	0.24
277.459	0.08
277.831	0.08
278.203	0.17
278.574	0.12
278.946	0.17
279.318	0.24
279.69	0.15
280.061	0.14
280.433	0.18
280.805	0.16
281.176	0.13
281.548	0.13
281.92	0.11
282.291	0.15
282.663	0.15
283.034	0.1
283.406	0.16
283.777	0.15
284.148	0.07
284.52	0.08
284.891	0.15
285.262	0.12
285.634	0.12
286.005	0.14
286.376	0.15
286.747	0.12
287.119	0.15
287.49	0.16
287.861	0.15
288.232	0.12
288.603	0.12
288.974	0.18
289.345	0.12
289.716	0.14
290.087	0.17
290.458	0.17
290.829	0.27
291.2	0.1
291.571	0.21
291.941	0.18
292.312	0.14
292.683	0.12
293.054	0.12
293.424	0.12
293.795	0.14
294.166	0.17
294.536	0.14
294.907	0.15
295.277	0.11
295.648	0.1
296.018	0.15
296.389	0.13
296.759	0.09
297.13	0.14
297.5	0.18
297.871	0.21
298.241	0.19
298.611	0.1
298.981	0.23
299.352	0.12
299.722	0.07
300.092	0.15
300.462	0.21
300.832	0.18
301.202	0.18
301.573	0.14
301.943	0.19
302.313	0.14
302.683	0.1
303.053	0.13
303.422	0.17
303.792	0.12
304.162	0.08
304.532	0.12
304.902	0.16
305.272	0.12
305.641	0.09
306.011	0.08
306.381	0.1
306.75	0.11
307.12	0.14
307.49	0.09
307.859	0.12
308.229	0.11
308.598	0.1
308.968	0.08
309.337	0.09
309.707	0.12
310.076	0.11
310.445	0.09
310.815	0.09
311.184	0.09
311.553	0.09
311.923	0.11
312.292	0.11
312.661	0.11
313.03	0.09
313.399	0.12
313.768	0.12
314.137	0.13
314.506	0.11
314.875	0.11
315.244	0.13
315.613	0.12
315.982	0.13
316.351	0.13
316.72	0.12
317.089	0.12
317.458	0.14
317.826	0.13
318.195	0.13
318.564	0.13
318.933	0.13
319.301	0.12
319.67	0.14
320.038	0.14
320.407	0.13
320.775	0.15
321.144	0.14
321.512	0.15
321.881	0.15
322.249	0.15
322.618	0.16
322.986	0.16
323.354	0.16
323.723	0.15
324.091	0.16
324.459	0.16
324.827	0.17
325.195	0.15
325.564	0.16
325.932	0.17
326.3	0.17
326.668	0.16
327.036	0.18
327.404	0.17
327.772	0.18
328.14	0.18
328.508	0.19
328.875	0.19
329.243	0.19
329.611	0.2
329.979	0.19
330.346	0.2
330.714	0.2
331.082	0.2
331.449	0.2
331.817	0.2
332.185	0.21
332.552	0.22
332.92	0.22
333.287	0.22
333.655	0.22
334.022	0.23
334.389	0.23
334.757	0.24
335.124	0.24
335.491	0.24
335.859	0.25
336.226	0.26
336.593	0.26
336.96	0.26
337.327	0.27
337.695	0.28
338.062	0.28
338.429	0.28
338.796	0.29
339.163	0.3
339.53	0.29
339.897	0.3
340.263	0.31
340.63	0.31
340.997	0.32
341.364	0.32
341.731	0.33
342.097	0.34
342.464	0.34
342.831	0.35
343.197	0.35
343.564	0.36
343.931	0.36
344.297	0.37
344.664	0.38
345.03	0.38
345.396	0.38
345.763	0.39
346.129	0.4
346.496	0.41
346.862	0.41
347.228	0.42
347.594	0.42
347.961	0.42
348.327	0.44
348.693	0.44
349.059	0.44
349.425	0.45
349.791	0.45
350.157	0.46
350.523	0.46
350.889	0.47
351.255	0.48
351.621	0.48
351.987	0.49
352.353	0.5
352.719	0.5
353.084	0.51
353.45	0.51
353.816	0.52
354.181	0.52
354.547	0.53
354.913	0.54
355.278	0.54
355.644	0.55
356.009	0.56
356.375	0.56
356.74	0.57
357.106	0.58
357.471	0.58
357.836	0.59
358.202	0.6
358.567	0.61
358.932	0.61
359.297	0.62
359.663	0.64
360.028	0.65
360.393	0.65
360.758	0.66
361.123	0.67
361.488	0.69
361.853	0.69
362.218	0.7
362.583	0.71
362.948	0.72
363.312	0.72
363.677	0.74
364.042	0.75
364.407	0.75
364.772	0.76
365.136	0.76
365.501	0.77
365.865	0.77
366.23	0.78
366.595	0.79
366.959	0.8
367.324	0.81
367.688	0.82
368.052	0.82
368.417	0.82
368.781	0.84
369.145	0.84
369.51	0.85
369.874	0.86
370.238	0.87
370.602	0.87
370.967	0.88
371.331	0.87
371.695	0.88
372.059	0.88
372.423	0.88
372.787	0.89
373.151	0.88
373.515	0.89
373.878	0.88
374.242	0.88
374.606	0.87
374.97	0.86
375.334	0.86
375.697	0.86
376.061	0.84
376.425	0.84
376.788	0.84
377.152	0.83
377.515	0.82
377.879	0.81
378.242	0.81
378.606	0.79
378.969	0.78
379.333	0.77
379.696	0.76
380.059	0.76
380.422	0.75
380.786	0.74
381.149	0.73
381.512	0.73
381.875	0.72
382.238	0.72
382.601	0.7
382.964	0.71
383.327	0.7
383.69	0.69
384.053	0.69
384.416	0.68
384.779	0.68
385.142	0.67
385.504	0.67
385.867	0.67
386.23	0.67
386.593	0.67
386.955	0.67
387.318	0.67
387.68	0.67
388.043	0.67
388.405	0.68
388.768	0.67
389.13	0.68
389.493	0.67
389.855	0.67
390.217	0.67
390.58	0.66
390.942	0.66
391.304	0.65
391.666	0.65
392.028	0.64
392.391	0.63
392.753	0.63
393.115	0.61
393.477	0.61
393.839	0.61
394.201	0.6
394.563	0.6
394.924	0.6
395.286	0.6
395.648	0.61
396.01	0.61
396.371	0.61
396.733	0.63
397.095	0.63
397.456	0.65
397.818	0.67
398.18	0.68
398.541	0.7
398.903	0.72
399.264	0.73
399.625	0.75
399.987	0.76
400.348	0.78
400.709	0.79
401.071	0.8
401.432	0.8
401.793	0.8
402.154	0.81
402.515	0.79
402.876	0.79
403.238	0.76
403.599	0.74
403.96	0.72
404.32	0.7
404.681	0.68
405.042	0.65
405.403	0.61
405.764	0.58
406.125	0.55
406.485	0.53
406.846	0.51
407.207	0.47
407.567	0.45
407.928	0.42
408.288	0.4
408.649	0.38
409.009	0.36
409.37	0.33
409.73	0.32
410.091	0.3
410.451	0.28
410.811	0.27
411.171	0.26
411.532	0.24
411.892	0.23
412.252	0.22
412.612	0.21
412.972	0.2
413.332	0.19
413.692	0.18
414.052	0.18
414.412	0.16
414.772	0.16
415.132	0.15
415.492	0.15
415.851	0.15
416.211	0.14
416.571	0.12
416.931	0.13
417.29	0.12
417.65	0.12
418.009	0.12
418.369	0.11
418.728	0.12
419.088	0.11
419.447	0.11
419.807	0.1
420.166	0.1
420.525	0.1
420.884	0.1
421.244	0.1
421.603	0.1
421.962	0.09
422.321	0.09
422.68	0.09
423.039	0.08
423.398	0.1
423.757	0.08
424.116	0.08
424.475	0.08
424.834	0.08
425.193	0.08
425.551	0.08
425.91	0.08
426.269	0.08
426.628	0.08
426.986	0.08
427.345	0.07
427.703	0.07
428.062	0.07
428.42	0.07
428.779	0.07
429.137	0.07
429.496	0.08
429.854	0.07
430.212	0.06
430.57	0.07
430.929	0.07
431.287	0.06
431.645	0.07
432.003	0.06
432.361	0.06
432.719	0.07
433.077	0.06
433.435	0.07
433.793	0.07
434.151	0.06
434.509	0.06
434.866	0.07
435.224	0.07
435.582	0.06
435.94	0.06
436.297	0.06
436.655	0.06
437.012	0.07
437.37	0.07
437.727	0.07
438.085	0.06
438.442	0.06
438.8	0.06
439.157	0.06
439.514	0.05
439.872	0.06
440.229	0.06
440.586	0.06
440.943	0.06
441.3	0.06
441.657	0.06
442.014	0.05
442.371	0.06
442.728	0.06
443.085	0.06
443.442	0.06
443.799	0.06
444.156	0.06
444.513	0.07
444.869	0.06
445.226	0.06
445.583	0.06
445.939	0.06
446.296	0.07
446.652	0.06
447.009	0.06
447.365	0.06
447.722	0.06
448.078	0.06
448.434	0.05
448.791	0.06
449.147	0.06
449.503	0.06
449.859	0.06
450.215	0.06
450.571	0.05
450.928	0.06
451.284	0.06
451.64	0.05
451.995	0.05
452.351	0.05
452.707	0.06
453.063	0.05
453.419	0.05
453.775	0.05
454.13	0.05
454.486	0.05
454.842	0.06
455.197	0.05
455.553	0.05
455.908	0.04
456.264	0.04
456.619	0.03
456.975	0.04
457.33	0.04
457.685	0.04
458.04	0.04
458.396	0.03
458.751	0.04
459.106	0.03
459.461	0.02
459.816	0.03
460.171	0.03
460.526	0.03
460.881	0.02
461.236	0.02
461.591	0.02
461.946	0.01
462.301	0.01
462.655	0.01
463.01	0.02
463.365	0
463.719	0
464.074	-0
464.428	-0.01
464.783	-0.01
465.137	-0.01
465.492	-0
465.846	-0
466.201	-0.01
466.555	-0
466.909	-0.01
467.263	-0.01
467.618	-0
467.972	-0
468.326	-0.01
468.68	-0.01
469.034	-0.01
469.388	-0.01
469.742	-0.01
470.096	-0
470.45	-0
470.804	0
471.157	-0
471.511	-0
471.865	-0
472.218	0.01
472.572	0.01
472.926	0.01
473.279	0.02
473.633	0.02
473.986	0.02
474.34	0.03
474.693	0.04
475.046	0.04
475.4	0.04
475.753	0.05
476.106	0.06
476.459	0.06
476.812	0.06
477.165	0.07
477.519	0.08
477.872	0.07
478.224	0.08
478.577	0.09
478.93	0.09
479.283	0.09
479.636	0.1
479.989	0.1
480.341	0.1
480.694	0.11
481.047	0.1
481.399	0.11
481.752	0.12
482.104	0.12
482.457	0.12
482.809	0.12
483.162	0.13
483.514	0.13
483.866	0.13
484.219	0.13
484.571	0.14
484.923	0.14
485.275	0.14
485.627	0.14
485.979	0.15
486.331	0.16
486.683	0.16
487.035	0.15
487.387	0.16
487.739	0.16
488.091	0.16
488.443	0.17
488.794	0.17
489.146	0.17
489.498	0.17
489.849	0.17
490.201	0.17
490.552	0.17
490.904	0.17
491.255	0.18
491.607	0.18
491.958	0.18
492.309	0.18
492.661	0.19
493.012	0.19
493.363	0.19
493.714	0.19
494.065	0.2
494.416	0.19
494.767	0.2
495.118	0.2
495.469	0.2
495.82	0.2
496.171	0.21
496.522	0.21
496.872	0.21
497.223	0.22
497.574	0.22
497.924	0.21
498.275	0.22
498.626	0.22
498.976	0.23
499.327	0.22
499.677	0.22
500.027	0.23
500.378	0.23
500.728	0.23
501.078	0.23
501.428	0.24
501.779	0.24
502.129	0.24
502.479	0.25
502.829	0.24
503.179	0.25
503.529	0.25
503.879	0.25
504.229	0.25
504.578	0.25
504.928	0.26
505.278	0.26
505.628	0.26
505.977	0.26
506.327	0.26
506.676	0.26
507.026	0.26
507.375	0.27
507.725	0.27
508.074	0.27
508.424	0.27
508.773	0.27
509.122	0.28
509.471	0.28
509.82	0.28
510.17	0.28
510.519	0.28
510.868	0.29
511.217	0.28
511.566	0.29
511.915	0.29
512.263	0.29
512.612	0.29
512.961	0.29
513.31	0.3
513.659	0.3
514.007	0.3
514.356	0.3
514.704	0.31
515.053	0.31
515.401	0.31
515.75	0.31
516.098	0.31
516.447	0.31
516.795	0.31
517.143	0.31
517.491	0.32
517.839	0.31
518.188	0.32
518.536	0.32
518.884	0.32
519.232	0.32
519.58	0.32
519.928	0.33
520.275	0.32
520.623	0.33
520.971	0.33
521.319	0.33
521.666	0.34
522.014	0.33
522.362	0.33
522.709	0.34
523.057	0.33
523.404	0.34
523.752	0.33
524.099	0.34
524.446	0.33
524.794	0.34
525.141	0.34
525.488	0.34
525.835	0.35
526.182	0.35
526.529	0.35
526.876	0.35
527.223	0.35
527.57	0.35
527.917	0.35
528.264	0.35
528.611	0.35
528.958	0.35
529.304	0.35
529.651	0.35
529.998	0.36
530.344	0.36
530.691	0.36
531.037	0.36
531.384	0.37
531.73	0.36
532.076	0.36
532.423	0.37
532.769	0.36
533.115	0.37
533.461	0.37
533.807	0.36
534.154	0.36
534.5	0.37
534.846	0.37
535.192	0.37
535.537	0.37
535.883	0.37
536.229	0.38
536.575	0.38
536.921	0.38
537.266	0.38
537.612	0.38
537.957	0.38
538.303	0.38
538.649	0.38
538.994	0.38
539.339	0.38
539.685	0.39
540.03	0.38
540.375	0.38
540.721	0.39
541.066	0.38
541.411	0.39
541.756	0.38
542.101	0.39
542.446	0.39
542.791	0.39
543.136	0.39
543.481	0.39
543.825	0.39
544.17	0.39
544.515	0.39
544.86	0.39
545.204	0.39
545.549	0.4
545.893	0.4
546.238	0.4
546.582	0.4
546.927	0.4
547.271	0.4
547.615	0.4
547.96	0.4
548.304	0.4
548.648	0.4
548.992	0.4
549.336	0.4
549.68	0.4
550.024	0.41
550.368	0.4
550.712	0.41
551.056	0.4
551.4	0.4
551.743	0.41
552.087	0.4
552.431	0.41
552.774	0.4
553.118	0.41
553.462	0.4
553.805	0.41
554.148	0.4
554.492	0.4
554.835	0.41
555.178	0.41
555.522	0.4
555.865	0.4
556.208	0.41
556.551	0.41
556.894	0.4
557.237	0.4
557.58	0.4
557.923	0.41
558.266	0.4
558.609	0.4
558.952	0.4
559.294	0.4
559.637	0.4
559.98	0.4
560.322	0.4
560.665	0.4
561.007	0.41
561.35	0.4
561.692	0.4
562.034	0.41
562.377	0.41
562.719	0.4
563.061	0.4
563.403	0.4
563.745	0.4
564.088	0.4
564.43	0.4
564.772	0.41
565.113	0.41
565.455	0.4
565.797	0.4
566.139	0.4
566.481	0.4
566.822	0.4
567.164	0.4
567.506	0.4
567.847	0.4
568.189	0.4
568.53	0.4
568.872	0.4
569.213	0.4
569.554	0.39
569.895	0.4
570.237	0.4
570.578	0.4
570.919	0.39
571.26	0.39
571.601	0.39
571.942	0.39
572.283	0.39
572.624	0.38
572.965	0.39
573.306	0.39
573.646	0.38
573.987	0.38
574.328	0.38
574.668	0.38
575.009	0.38
575.349	0.38
575.69	0.38
576.03	0.38
576.37	0.37
576.711	0.37
577.051	0.37
577.391	0.37
577.731	0.38
578.072	0.38
578.412	0.37
578.752	0.37
579.092	0.37
579.431	0.36
579.771	0.34
580.111	0.33
580.451	0.34
580.791	0.36
581.13	0.37
581.47	0.37
581.81	0.36
582.149	0.36
582.489	0.36
582.828	0.35
583.167	0.33
583.507	0.29
583.846	0.27
584.185	0.31
584.525	0.33
584.864	0.35
585.203	0.36
585.542	0.36
585.881	0.37
586.22	0.36
586.559	0.36
586.898	0.34
587.236	0.34
587.575	0.33
587.914	0.34
588.252	0.35
588.591	0.36
588.93	0.36
589.268	0.35
589.607	0.35
589.945	0.36
590.283	0.36
590.622	0.36
590.96	0.36
591.298	0.37
591.636	0.36
591.974	0.36
592.313	0.37
592.651	0.37
592.989	0.37
593.326	0.37
593.664	0.37
594.002	0.37
594.34	0.37
594.678	0.36
595.015	0.35
595.353	0.34
595.691	0.35
596.028	0.36
596.366	0.36
596.703	0.37
597.04	0.37
597.378	0.37
597.715	0.37
598.052	0.37
598.389	0.37
598.726	0.37
599.064	0.37
599.401	0.37
599.738	0.37
600.074	0.37
600.411	0.37
600.748	0.36
601.085	0.36
601.422	0.35
601.758	0.36
602.095	0.36
602.432	0.36
602.768	0.36
603.105	0.36
603.441	0.37
603.777	0.37
604.114	0.36
604.45	0.36
604.786	0.37
605.122	0.36
605.459	0.36
605.795	0.36
606.131	0.36
606.467	0.36
606.803	0.36
607.139	0.36
607.474	0.35
607.81	0.35
608.146	0.36
608.482	0.36
608.817	0.35
609.153	0.35
609.488	0.35
609.824	0.35
610.159	0.35
610.495	0.35
610.83	0.35
611.165	0.35
611.5	0.35
611.836	0.35
612.171	0.35
612.506	0.35
612.841	0.35
613.176	0.35
613.511	0.35
613.845	0.35
614.18	0.34
614.515	0.34
614.85	0.34
615.184	0.34
615.519	0.34
615.854	0.34
616.188	0.33
616.523	0.33
616.857	0.33
617.191	0.33
617.526	0.33
617.86	0.33
618.194	0.33
618.528	0.33
618.862	0.33
619.196	0.32
619.53	0.33
619.864	0.32
620.198	0.32
620.532	0.33
620.866	0.33
621.2	0.32
621.533	0.32
621.867	0.32
622.201	0.32
622.534	0.32
622.868	0.32
623.201	0.32
623.534	0.31
623.868	0.31
624.201	0.31
624.534	0.31
624.868	0.31
625.201	0.3
625.534	0.31
625.867	0.3
626.2	0.3
626.533	0.3
626.865	0.3
627.198	0.3
627.531	0.3
627.864	0.3
628.196	0.3
628.529	0.29
628.862	0.29
629.194	0.29
629.527	0.29
629.859	0.28
630.191	0.28
630.524	0.28
630.856	0.28
631.188	0.28
631.52	0.28
631.852	0.28
632.184	0.28
632.516	0.27
632.848	0.27
633.18	0.27
633.512	0.27
633.844	0.26
634.175	0.26
634.507	0.26
634.839	0.26
635.17	0.26
635.502	0.26
635.833	0.26
636.165	0.25
636.496	0.26
636.827	0.25
637.159	0.25
637.49	0.25
637.821	0.25
638.152	0.24
638.483	0.24
638.814	0.24
639.145	0.24
639.476	0.24
639.807	0.24
640.137	0.24
640.468	0.23
640.799	0.23
641.129	0.23
641.46	0.23
641.791	0.22
642.121	0.22
642.451	0.22
642.782	0.22
643.112	0.22
643.442	0.22
643.773	0.22
644.103	0.22
644.433	0.21
644.763	0.21
645.093	0.21
645.423	0.21
645.753	0.21
646.082	0.21
646.412	0.21
646.742	0.21
647.072	0.21
647.401	0.21
647.731	0.21
648.06	0.2
648.39	0.2
648.719	0.2
649.048	0.2
649.378	0.2
649.707	0.19
650.036	0.19
650.365	0.19
650.694	0.19
651.023	0.19
651.352	0.19
651.681	0.19
652.01	0.19
652.339	0.19
652.668	0.19
652.996	0.19
653.325	0.2
653.654	0.19
653.982	0.19
654.311	0.19
654.639	0.19
654.967	0.19
655.296	0.19
655.624	0.19
655.952	0.19
656.28	0.19
656.609	0.18
656.937	0.19
657.265	0.18
657.593	0.08
657.92	0
658.248	-0
658.576	0
658.904	0.05
659.231	0.13
659.559	0.17
659.887	0.18
660.214	0.18
660.542	0.18
660.869	0.18
661.196	0.17
661.524	0.17
661.851	0.18
662.178	0.18
662.505	0.18
662.832	0.18
663.159	0.18
663.486	0.18
663.813	0.18
664.14	0.17
664.467	0.17
664.794	0.17
665.12	0.17
665.447	0.17
665.774	0.17
666.1	0.17
666.427	0.17
666.753	0.16
667.079	0.17
667.406	0.16
667.732	0.16
668.058	0.16
668.384	0.16
668.71	0.16
669.036	0.16
669.362	0.16
669.688	0.16
670.014	0.16
670.34	0.16
670.666	0.15
670.991	0.15
671.317	0.15
671.643	0.15
671.968	0.15
672.294	0.14
672.619	0.14
672.945	0.14
673.27	0.14
673.595	0.14
673.92	0.14
674.246	0.14
674.571	0.14
674.896	0.14
675.221	0.14
675.546	0.14
675.87	0.14
676.195	0.14
676.52	0.14
676.845	0.13
677.169	0.13
677.494	0.13
677.819	0.13
678.143	0.13
678.468	0.12
678.792	0.12
679.116	0.12
679.44	0.12
679.765	0.12
680.089	0.12
680.413	0.11
680.737	0.11
681.061	0.11
681.385	0.11
681.709	0.11
682.033	0.11
682.356	0.11
682.68	0.11
683.004	0.11
683.327	0.11
683.651	0.1
683.974	0.1
684.298	0.1
684.621	0.1
684.944	0.1
685.268	0.1
685.591	0.1
685.914	0.09
686.237	0.09
686.56	0.09
686.883	0.09
687.206	0.09
687.529	0.08
687.852	0.08
688.175	0.08
688.497	0.08
688.82	0.08
689.142	0.08
689.465	0.08
689.787	0.08
690.11	0.08
690.432	0.08
690.755	0.08
691.077	0.08
691.399	0.07
691.721	0.08
692.043	0.07
692.365	0.07
692.687	0.07
693.009	0.07
693.331	0.07
693.653	0.06
693.974	0.06
694.296	0.06
694.618	0.07
694.939	0.06
695.261	0.06
695.582	0.07
695.904	0.06
696.225	0.06
696.546	0.07
696.868	0.06
697.189	0.06
697.51	0.06
697.831	0.06
698.152	0.06
698.473	0.06
698.794	0.05
699.114	0.05
699.435	0.04
699.756	0.04
700.077	0.04
700.397	0.05
700.718	0.05
701.038	0.05
701.359	0.05
701.679	0.05
701.999	0.05
702.32	0.05
702.64	0.05
702.96	0.05
703.28	0.05
703.6	0.05
703.92	0.04
704.24	0.04
704.56	0.04
704.879	0.04
705.199	0.05
705.519	0.04
705.838	0.05
706.158	0.05
706.478	0.04
706.797	0.05
707.116	0.05
707.436	0.05
707.755	0.05
708.074	0.05
708.393	0.04
708.712	0.04
709.031	0.03
709.35	0.02
709.669	0.02
709.988	0.02
710.307	0.03
710.626	0.03
710.944	0.04
711.263	0.03
711.582	0.04
711.9	0.04
712.219	0.03
712.537	0.04
712.855	0.04
713.174	0.04
713.492	0.04
713.81	0.04
714.128	0.04
714.446	0.04
714.764	0.04
715.082	0.03
715.4	0.04
715.718	0.03
716.035	0.03
716.353	0.03
716.671	0.03
716.988	0.03
717.306	0.03
717.623	0.04
717.941	0.04
718.258	0.05
718.575	0.05
718.893	0.05
719.21	0.04
719.527	0.05
719.844	0.04
720.161	0.04
720.478	0.04
720.795	0.04
721.112	0.04
721.428	0.04
721.745	0.04
722.062	0.04
722.378	0.04
722.695	0.04
723.011	0.04
723.328	0.04
723.644	0.05
723.96	0.05
724.276	0.05
724.593	0.05
724.909	0.05
725.225	0.05
725.541	0.05
725.857	0.05
726.173	0.05
726.488	0.06
726.804	0.05
727.12	0.05
727.435	0.05
727.751	0.05
728.067	0.05
728.382	0.05
728.697	0.05
729.013	0.05
729.328	0.05
729.643	0.05
729.958	0.05
730.273	0.05
730.588	0.05
730.903	0.05
731.218	0.05
731.533	0.05
731.848	0.05
732.163	0.05
732.477	0.05
732.792	0.05
733.107	0.04
733.421	0.04
733.736	0.04
734.05	0.05
734.364	0.04
734.678	0.05
734.993	0.04
735.307	0.04
735.621	0.04
735.935	0.04
736.249	0.04
736.563	0.04
736.877	0.04
737.19	0.05
737.504	0.04
737.818	0.04
738.131	0.04
738.445	0.05
738.758	0.05
739.072	0.05
739.385	0.04
739.698	0.05
740.012	0.05
740.325	0.05
740.638	0.05
740.951	0.05
741.264	0.04
741.577	0.05
741.89	0.05
742.203	0.05
742.515	0.05
742.828	0.04
743.141	0.04
743.453	0.04
743.766	0.04
744.078	0.04
744.391	0.03
744.703	0.03
745.015	0.03
745.327	0.04
745.639	0.04
745.952	0.04
746.264	0.03
746.575	0.04
746.887	0.04
747.199	0.03
747.511	0.03
747.823	0.03
748.134	0.03
748.446	0.03
748.757	0.03
749.069	0.03
749.38	0.03
749.692	0.03
750.003	0.03
750.314	0.03
750.625	0.03
750.936	0.03
751.248	0.03
751.559	0.03
751.869	0.03
752.18	0.03
752.491	0.03
752.802	0.03
753.112	0.03
753.423	0.03
753.734	0.03
754.044	0.03
754.355	0.03
754.665	0.03
754.975	0.03
755.285	0.03
755.596	0.03
755.906	0.03
756.216	0.02
756.526	0.02
756.836	0.02
757.146	0.02
757.455	0.02
757.765	0.02
758.075	0.02
758.385	0.02
758.694	0.02
759.004	0.02
759.313	0.02
759.622	0.02
759.932	0.02
760.241	0.02
760.55	0.02
760.859	0.02
761.168	0.02
761.477	0.01
761.786	0.01
762.095	0.01
762.404	0.01
762.713	0.02
763.021	0.02
763.33	0.02
763.639	0.02
763.947	0.01
764.256	0.02
764.564	0.02
764.872	0.02
765.181	0.01
765.489	0.01
765.797	0.01
766.105	0.01
766.413	0.01
766.721	0.01
767.029	0.01
767.337	0.02
767.644	0.02
767.952	0.02
768.26	0.02
768.567	0.02
768.875	0.02
769.182	0.02
769.49	0.01
769.797	0.01
770.104	0.02
770.411	0.02
770.718	0.01
771.026	0.01
771.333	0.01
771.639	0.01
771.946	0.02
772.253	0.02
772.56	0.01
772.867	0.01
773.173	0.01
773.48	0.01
773.786	0.02
774.093	0.02
774.399	0.02
774.705	0.02
775.012	0.01
775.318	0.01
775.624	0.02
775.93	0.01
776.236	0.02
776.542	0.02
776.848	0.02
777.154	0.02
777.459	0.02
777.765	0.02
778.071	0.02
778.376	0.02
778.682	0.02
778.987	0.02
779.292	0.02
779.598	0.02
779.903	0.01
780.208	0.02
780.513	0.02
780.818	0.02
781.123	0.02
781.428	0.02
781.733	0.02
782.038	0.02
782.343	0.02
782.647	0.02
782.952	0.02
783.256	0.01
783.561	0.02
783.865	0.01
784.17	0.02
784.474	0.02
784.778	0.02
785.082	0.02
785.386	0.02
785.69	0.02
785.994	0.02
786.298	0.02
786.602	0.02
786.906	0.02
787.209	0.02
787.513	0.02
787.817	0.02
788.12	0.02
788.424	0.02
788.727	0.02
789.03	0.02
789.333	0.02
789.637	0.02
789.94	0.03
790.243	0.02
790.546	0.02
790.849	0.03
791.152	0.03
791.454	0.03
791.757	0.03
792.06	0.02
792.362	0.02
792.665	0.02
792.967	0.02
793.27	0.03
793.572	0.02
793.874	0.03
794.177	0.03
794.479	0.03
794.781	0.03
795.083	0.02
795.385	0.02
795.687	0.03
795.989	0.02
796.29	0.03
796.592	0.03
796.894	0.03
797.195	0.03
797.497	0.03
797.798	0.02
798.1	0.02
798.401	0.02
798.702	0.02
799.003	0.02
799.304	0.02
799.605	0.01
799.906	0.02
800.207	0.02
800.508	0.02
800.809	0.02
801.11	0.02
801.41	0.01
801.711	0.02
802.011	0.01
802.312	0.02
802.612	0.02
802.913	0.02
803.213	0.03
803.513	0.03
803.813	0.03
804.113	0.03
804.413	0.03
804.713	0.03
805.013	0.03
805.313	0.03
805.613	0.03
805.912	0.03
806.212	0.03
806.511	0.03
806.811	0.03
807.11	0.03
807.41	0.03
807.709	0.03
808.008	0.03
808.307	0.03
808.606	0.02
808.905	0.03
809.204	0.03
809.503	0.03
809.802	0.03
810.101	0.03
810.399	0.03
810.698	0.03
810.997	0.03
811.295	0.03
811.593	0.03
811.892	0.03
812.19	0.03
812.488	0.03
812.786	0.03
813.084	0.03
813.383	0.03
813.68	0.03
813.978	0.03
814.276	0.03
814.574	0.03
814.872	0.04
815.169	0.03
815.467	0.03
815.764	0.03
816.062	0.03
816.359	0.03
816.656	0.04
816.954	0.03
817.251	0.03
817.548	0.03
817.845	0.03
818.142	0.04
818.439	0.03
818.735	0.04
819.032	0.04
819.329	0.03
819.626	0.04
819.922	0.03
820.219	0.03
820.515	0.03
820.811	0.03
821.108	0.03
821.404	0.03
821.7	0.03
821.996	0.03
822.292	0.03
822.588	0.03
822.884	0.03
823.18	0.03
823.475	0.03
823.771	0.03
824.067	0.03
824.362	0.03
824.658	0.03
824.953	0.03
825.249	0.04
825.544	0.03
825.839	0.03
826.134	0.03
826.429	0.03
826.724	0.03
827.019	0.03
827.314	0.03
827.609	0.04
827.904	0.04
828.198	0.03
828.493	0.04
828.787	0.04
829.082	0.04
829.376	0.04
829.671	0.04
829.965	0.03
830.259	0.04
830.553	0.04
830.847	0.04
831.141	0.04
831.435	0.03
831.729	0.04
832.023	0.04
832.317	0.04
832.61	0.04
832.904	0.04
833.197	0.04
833.491	0.03
833.784	0.04
834.077	0.04
834.371	0.04
834.664	0.04
834.957	0.05
835.25	0.05
835.543	0.04
835.836	0.04
836.129	0.04
836.421	0.04
836.714	0.05
837.007	0.04
837.299	0.04
837.592	0.04
837.884	0.04
838.177	0.04
838.469	0.04
838.761	0.04
839.053	0.03
839.345	0.04
839.637	0.04
839.929	0.04
840.221	0.04
840.513	0.04
840.805	0.04
841.096	0.04
841.388	0.04
841.68	0.05
841.971	0.04
842.262	0.04
842.554	0.04
842.845	0.04
843.136	0.05
843.427	0.04
843.718	0.04
844.009	0.04
844.3	0.05
844.591	0.04
844.882	0.04
845.173	0.04
845.463	0.04
845.754	0.05
846.044	0.05
846.335	0.04
846.625	0.04
846.915	0.06
847.206	0.05
847.496	0.06
847.786	0.06
848.076	0.05
848.366	0.06
848.656	0.06
848.945	0.05
849.235	0.06
849.525	0.06
849.814	0.05
850.104	0.06
850.393	0.05
850.683	0.06
850.972	0.06
851.261	0.04
851.551	0.06
851.84	0.05
852.129	0.05
852.418	0.04
852.707	0.05
852.995	0.05
853.284	0.05
853.573	0.05
853.862	0.05
854.15	0.05
854.439	0.05
854.727	0.05
855.015	0.05
855.304	0.06
855.592	0.05
855.88	0.06
856.168	0.06
856.456	0.06
856.744	0.05
857.032	0.05
857.32	0.06
857.607	0.05
857.895	0.05
858.183	0.06
858.47	0.05
858.757	0.06
859.045	0.06
859.332	0.06
859.619	0.05
859.907	0.05
860.194	0.06
860.481	0.06
860.768	0.05
861.054	0.05
861.341	0.04
861.628	0.06
861.915	0.05
862.201	0.04
862.488	0.06
862.774	0.05
863.061	0.06
863.347	0.05
863.633	0.05
863.919	0.03
864.205	0.06
864.491	0.04
864.777	0.07
865.063	0.05
865.349	0.05
865.635	0.07
865.92	0.06
866.206	0.07
866.492	0.06
866.777	0.06
867.062	0.07
867.348	0.06
867.633	0.08
867.918	0.05
868.203	0.04
868.488	0.07
868.773	0.03
869.058	0.06
869.343	0.05
869.628	0.07
869.912	0.07
870.197	0.03
870.482	0.01
870.766	0.05
871.05	0.03
871.335	0.05
871.619	0.05
871.903	0.02
872.187	0.05
872.471	0.05
872.755	0.05
873.039	0.03
873.323	0.03
873.607	0.03
873.89	0.06
874.174	0.08
874.458	0.05
874.741	0.04
875.024	0.08
875.308	0.04
875.591	0.03
875.874	-0
876.157	-0
876.44	0.04
876.723	0.07
877.006	0.02
877.289	0.02
877.572	-0.02
877.854	0.06
878.137	0.07
878.42	0
878.702	0.1
878.984	0.08
879.267	0.01
879.549	0.06
879.831	0.03
880.113	0.02
880.395	0.01
880.677	-0.06
880.959	0.01
