Data from Rubpy_BV_1200_EDTA_Buffered_Absorbance_13-38-21-217.txt Node
Date: Wed Jul 01 13:38:21 BST 2026
User: fpm-admin
Spectrometer: OFX00224
Trigger mode: 0
Integration Time (sec): 7.000000E-2
Scans to average: 3
Nonlinearity correction enabled: false
Boxcar width: 0
Storing dark spectrum: false
XAxis mode: Wavelengths
Number of Pixels in Spectrum: 2136
>>>>>Begin Spectral Data<<<<<
154.91	-0
155.289	-0.1
155.669	0.03
156.048	-0.4
156.428	-0
156.807	-0.18
157.186	-0
157.566	-0.4
157.945	-0.33
158.325	0.1
158.704	-0.8
159.083	1.2
159.462	-0.35
159.842	-0.08
160.221	-0
160.6	0.69
160.979	-0
161.359	0.74
161.738	-0
162.117	0.44
162.496	-0.06
162.875	-0.2
163.254	-0
163.633	-0.3
164.012	-0
164.391	-0.07
164.77	-0.25
165.149	0.14
165.528	-0
165.907	-0
166.286	0.17
166.665	0.11
167.044	-1.06
167.423	0.16
167.802	-0.43
168.181	-0
168.559	-0
168.938	-0.1
169.317	0.32
169.696	0.56
170.074	-0.37
170.453	-0
170.832	-0.26
171.21	-0.29
171.589	-0
171.968	-0.11
172.346	0.09
172.725	1
173.103	-0.56
173.482	-0
173.861	-0.53
174.239	-0.27
174.617	-0.21
174.996	0.09
175.374	-0
175.753	0.18
176.131	-1.3
176.51	0.28
176.888	-0
177.266	-0
177.645	0.1
178.023	0.21
178.401	-0.1
178.779	0.35
179.158	-0.74
179.536	-0
179.914	-0
180.292	-0.54
180.67	-0.48
181.048	-0
181.427	-0.65
181.805	-0.19
182.183	-0
182.561	-0
182.939	0.11
183.317	-0.82
183.695	0.03
184.073	0.45
184.451	-0
184.829	0.46
185.206	-0.06
185.584	-0
185.962	-0
186.34	-0.78
186.718	-0
187.096	-0
187.473	-0.79
187.851	0.48
188.229	-0
188.607	-0.03
188.984	0.14
189.362	0.1
189.74	0.16
190.117	0.13
190.495	0.02
190.872	0.11
191.25	0.17
191.627	0.12
192.005	0
192.382	0.07
192.76	0.04
193.137	0.1
193.515	-0.04
193.892	0.03
194.269	0.15
194.647	0.12
195.024	0.01
195.401	0.01
195.779	0.11
196.156	0.07
196.533	0.07
196.91	0.09
197.288	0.08
197.665	0.02
198.042	0.13
198.419	0.08
198.796	-0.02
199.173	0.11
199.55	0.08
199.927	0.04
200.304	0.19
200.681	0.13
201.058	0.03
201.435	0.05
201.812	-0
202.189	-0
202.566	0.01
202.943	0.06
203.32	0.06
203.697	0.02
204.073	0.13
204.45	0.11
204.827	0.1
205.204	0.12
205.58	0.03
205.957	0.13
206.334	0.18
206.71	0.05
207.087	0.24
207.464	0.29
207.84	0.14
208.217	0.27
208.593	0.09
208.97	0.03
209.346	0.14
209.723	0.1
210.099	0.08
210.476	0.08
210.852	0.09
211.228	0.08
211.605	0.06
211.981	0.19
212.357	0.17
212.733	0.04
213.11	0.07
213.486	0.07
213.862	0.03
214.238	0.09
214.614	0.13
214.991	0.08
215.367	0.14
215.743	0.1
216.119	0.04
216.495	0.13
216.871	0.14
217.247	0.07
217.623	0.14
217.999	0.17
218.375	0.07
218.751	0.05
219.127	0.1
219.502	0.11
219.878	0.15
220.254	0.17
220.63	0.11
221.006	0.06
221.381	0.13
221.757	0.01
222.133	0.05
222.508	0.08
222.884	0.13
223.26	0.08
223.635	0.04
224.011	0.02
224.386	0.08
224.762	0.11
225.137	0.15
225.513	0.14
225.888	0.02
226.264	0.1
226.639	0.08
227.014	0.09
227.39	0.19
227.765	0.12
228.14	0.14
228.516	0.09
228.891	0.1
229.266	0.09
229.641	0.01
230.017	0.21
230.392	0.13
230.767	0.07
231.142	0.03
231.517	0.13
231.892	0.03
232.267	0.1
232.642	0.25
233.017	0.06
233.392	0.04
233.767	0.2
234.142	0.1
234.517	0.12
234.892	0.03
235.267	0.09
235.641	0.12
236.016	0.06
236.391	0.11
236.766	0.07
237.14	0.11
237.515	0.17
237.89	0.07
238.264	0.08
238.639	0.03
239.014	0.03
239.388	0.11
239.763	0.12
240.137	0.17
240.512	0.1
240.886	0.07
241.261	0.12
241.635	0.05
242.009	0.12
242.384	0.15
242.758	0.12
243.132	0.05
243.507	0.1
243.881	0.1
244.255	0.18
244.629	0.06
245.004	0.12
245.378	0.04
245.752	0.08
246.126	0.06
246.5	0.13
246.874	0.1
247.248	0.13
247.622	0.07
247.996	0.05
248.37	0.11
248.744	0.05
249.118	0.24
249.492	0.07
249.866	0.12
250.24	0.08
250.613	0.02
250.987	0.1
251.361	0.07
251.735	0.01
252.108	0.1
252.482	0.1
252.856	0.02
253.229	0.09
253.603	0.1
253.977	0.05
254.35	0.11
254.724	0.14
255.097	0.09
255.471	0.12
255.844	0.09
256.218	0.2
256.591	0
256.964	0.07
257.338	0.08
257.711	0.11
258.084	0.11
258.458	0.11
258.831	0.1
259.204	0.09
259.577	0.09
259.95	0.18
260.323	0.16
260.697	0.11
261.07	0.04
261.443	0.15
261.816	0.08
262.189	0.11
262.562	0.08
262.935	0.11
263.308	0.1
263.68	0.07
264.053	0.07
264.426	0.11
264.799	0.14
265.172	0.12
265.545	0.12
265.917	0.09
266.29	0.14
266.663	0.06
267.035	0.09
267.408	0.1
267.781	0.1
268.153	0.09
268.526	0.12
268.898	0.09
269.271	0.05
269.643	0.08
270.016	0.08
270.388	0.11
270.76	0.08
271.133	0.16
271.505	0.13
271.877	0.09
272.25	0.06
272.622	0.15
272.994	0.15
273.366	0.02
273.739	0.13
274.111	0.1
274.483	0.18
274.855	0.12
275.227	0.12
275.599	0.11
275.971	0.08
276.343	0.06
276.715	0.13
277.087	0.16
277.459	0.07
277.831	0.09
278.203	0.1
278.574	0.13
278.946	0.15
279.318	0.11
279.69	0.15
280.061	0.11
280.433	0.12
280.805	0.09
281.176	0.05
281.548	0.11
281.92	0.13
282.291	0.07
282.663	0.11
283.034	0.13
283.406	0.09
283.777	0.09
284.148	0.05
284.52	0.14
284.891	0.16
285.262	0.06
285.634	0.12
286.005	0.11
286.376	0.1
286.747	0.08
287.119	0.06
287.49	0.14
287.861	0.11
288.232	0.08
288.603	0.07
288.974	0.11
289.345	0.05
289.716	0.15
290.087	0.13
290.458	0.05
290.829	0.05
291.2	0.13
291.571	0.14
291.941	0.13
292.312	0.09
292.683	0.05
293.054	0.09
293.424	0.11
293.795	0.1
294.166	0.12
294.536	0.07
294.907	0.09
295.277	0.04
295.648	0.13
296.018	0.05
296.389	0.05
296.759	-0.02
297.13	0.05
297.5	0.14
297.871	0.16
298.241	0.14
298.611	0.13
298.981	0.14
299.352	0.08
299.722	0.04
300.092	0.08
300.462	0.11
300.832	0.11
301.202	0.11
301.573	0.05
301.943	0.1
302.313	0.07
302.683	0.07
303.053	0.05
303.422	0.12
303.792	0.09
304.162	0.07
304.532	0.04
304.902	0.12
305.272	0.08
305.641	0.09
306.011	0.05
306.381	0.06
306.75	0.06
307.12	0.08
307.49	0.07
307.859	0.08
308.229	0.06
308.598	0.07
308.968	0.05
309.337	0.06
309.707	0.08
310.076	0.08
310.445	0.05
310.815	0.07
311.184	0.04
311.553	0.06
311.923	0.05
312.292	0.08
312.661	0.06
313.03	0.05
313.399	0.06
313.768	0.07
314.137	0.07
314.506	0.07
314.875	0.06
315.244	0.06
315.613	0.09
315.982	0.07
316.351	0.06
316.72	0.06
317.089	0.07
317.458	0.08
317.826	0.08
318.195	0.08
318.564	0.06
318.933	0.08
319.301	0.07
319.67	0.07
320.038	0.08
320.407	0.07
320.775	0.09
321.144	0.08
321.512	0.08
321.881	0.08
322.249	0.09
322.618	0.08
322.986	0.09
323.354	0.08
323.723	0.08
324.091	0.08
324.459	0.09
324.827	0.09
325.195	0.09
325.564	0.09
325.932	0.1
326.3	0.09
326.668	0.09
327.036	0.1
327.404	0.1
327.772	0.1
328.14	0.11
328.508	0.1
328.875	0.1
329.243	0.1
329.611	0.1
329.979	0.1
330.346	0.11
330.714	0.11
331.082	0.11
331.449	0.11
331.817	0.11
332.185	0.11
332.552	0.11
332.92	0.12
333.287	0.12
333.655	0.12
334.022	0.13
334.389	0.13
334.757	0.13
335.124	0.13
335.491	0.13
335.859	0.14
336.226	0.13
336.593	0.14
336.96	0.14
337.327	0.15
337.695	0.15
338.062	0.15
338.429	0.16
338.796	0.16
339.163	0.16
339.53	0.16
339.897	0.16
340.263	0.17
340.63	0.17
340.997	0.17
341.364	0.17
341.731	0.18
342.097	0.18
342.464	0.18
342.831	0.19
343.197	0.19
343.564	0.2
343.931	0.19
344.297	0.2
344.664	0.2
345.03	0.2
345.396	0.2
345.763	0.21
346.129	0.21
346.496	0.22
346.862	0.22
347.228	0.23
347.594	0.23
347.961	0.23
348.327	0.23
348.693	0.23
349.059	0.23
349.425	0.24
349.791	0.24
350.157	0.25
350.523	0.25
350.889	0.26
351.255	0.26
351.621	0.26
351.987	0.26
352.353	0.27
352.719	0.26
353.084	0.27
353.45	0.28
353.816	0.27
354.181	0.28
354.547	0.29
354.913	0.29
355.278	0.29
355.644	0.29
356.009	0.3
356.375	0.3
356.74	0.31
357.106	0.31
357.471	0.31
357.836	0.32
358.202	0.32
358.567	0.33
358.932	0.33
359.297	0.34
359.663	0.35
360.028	0.35
360.393	0.35
360.758	0.36
361.123	0.37
361.488	0.37
361.853	0.38
362.218	0.38
362.583	0.39
362.948	0.4
363.312	0.4
363.677	0.4
364.042	0.4
364.407	0.41
364.772	0.42
365.136	0.42
365.501	0.43
365.865	0.43
366.23	0.42
366.595	0.43
366.959	0.44
367.324	0.45
367.688	0.45
368.052	0.45
368.417	0.46
368.781	0.46
369.145	0.46
369.51	0.47
369.874	0.48
370.238	0.49
370.602	0.49
370.967	0.49
371.331	0.49
371.695	0.49
372.059	0.5
372.423	0.5
372.787	0.5
373.151	0.5
373.515	0.5
373.878	0.5
374.242	0.5
374.606	0.49
374.97	0.49
375.334	0.48
375.697	0.48
376.061	0.47
376.425	0.47
376.788	0.47
377.152	0.47
377.515	0.46
377.879	0.46
378.242	0.45
378.606	0.45
378.969	0.44
379.333	0.44
379.696	0.43
380.059	0.43
380.422	0.43
380.786	0.42
381.149	0.41
381.512	0.42
381.875	0.42
382.238	0.41
382.601	0.41
382.964	0.41
383.327	0.4
383.69	0.4
384.053	0.4
384.416	0.39
384.779	0.4
385.142	0.39
385.504	0.4
385.867	0.4
386.23	0.4
386.593	0.4
386.955	0.4
387.318	0.4
387.68	0.4
388.043	0.41
388.405	0.41
388.768	0.41
389.13	0.41
389.493	0.41
389.855	0.41
390.217	0.41
390.58	0.41
390.942	0.41
391.304	0.4
391.666	0.4
392.028	0.4
392.391	0.39
392.753	0.39
393.115	0.38
393.477	0.38
393.839	0.39
394.201	0.37
394.563	0.37
394.924	0.38
395.286	0.38
395.648	0.38
396.01	0.38
396.371	0.39
396.733	0.4
397.095	0.4
397.456	0.42
397.818	0.42
398.18	0.44
398.541	0.45
398.903	0.46
399.264	0.47
399.625	0.49
399.987	0.5
400.348	0.5
400.709	0.52
401.071	0.52
401.432	0.53
401.793	0.52
402.154	0.52
402.515	0.51
402.876	0.51
403.238	0.5
403.599	0.49
403.96	0.47
404.32	0.45
404.681	0.44
405.042	0.42
405.403	0.4
405.764	0.37
406.125	0.36
406.485	0.34
406.846	0.32
407.207	0.3
407.567	0.29
407.928	0.27
408.288	0.26
408.649	0.24
409.009	0.23
409.37	0.21
409.73	0.2
410.091	0.19
410.451	0.18
410.811	0.17
411.171	0.16
411.532	0.15
411.892	0.14
412.252	0.14
412.612	0.13
412.972	0.12
413.332	0.12
413.692	0.11
414.052	0.11
414.412	0.1
414.772	0.1
415.132	0.1
415.492	0.1
415.851	0.09
416.211	0.09
416.571	0.08
416.931	0.08
417.29	0.07
417.65	0.08
418.009	0.07
418.369	0.08
418.728	0.07
419.088	0.07
419.447	0.06
419.807	0.06
420.166	0.06
420.525	0.06
420.884	0.06
421.244	0.06
421.603	0.06
421.962	0.05
422.321	0.06
422.68	0.05
423.039	0.05
423.398	0.06
423.757	0.05
424.116	0.05
424.475	0.05
424.834	0.05
425.193	0.05
425.551	0.04
425.91	0.04
426.269	0.05
426.628	0.05
426.986	0.05
427.345	0.04
427.703	0.05
428.062	0.05
428.42	0.04
428.779	0.04
429.137	0.05
429.496	0.05
429.854	0.04
430.212	0.04
430.57	0.05
430.929	0.04
431.287	0.04
431.645	0.05
432.003	0.04
432.361	0.04
432.719	0.04
433.077	0.04
433.435	0.04
433.793	0.04
434.151	0.03
434.509	0.04
434.866	0.03
435.224	0.03
435.582	0.03
435.94	0.03
436.297	0.03
436.655	0.04
437.012	0.04
437.37	0.04
437.727	0.04
438.085	0.03
438.442	0.04
438.8	0.03
439.157	0.04
439.514	0.03
439.872	0.03
440.229	0.03
440.586	0.04
440.943	0.04
441.3	0.03
441.657	0.03
442.014	0.03
442.371	0.04
442.728	0.03
443.085	0.03
443.442	0.03
443.799	0.03
444.156	0.03
444.513	0.04
444.869	0.04
445.226	0.04
445.583	0.03
445.939	0.02
446.296	0.04
446.652	0.03
447.009	0.03
447.365	0.04
447.722	0.03
448.078	0.03
448.434	0.03
448.791	0.03
449.147	0.03
449.503	0.02
449.859	0.03
450.215	0.04
450.571	0.03
450.928	0.03
451.284	0.03
451.64	0.02
451.995	0.02
452.351	0.01
452.707	0.03
453.063	0.02
453.419	0.02
453.775	0.02
454.13	0.02
454.486	0.03
454.842	0.03
455.197	0.02
455.553	0.01
455.908	0
456.264	0.01
456.619	0
456.975	0.01
457.33	0.01
457.685	0.01
458.04	0.01
458.396	-0.01
458.751	0
459.106	0.01
459.461	-0.01
459.816	-0.02
460.171	-0.01
460.526	0
460.881	-0.02
461.236	-0.01
461.591	-0.02
461.946	-0.01
462.301	-0.02
462.655	-0.02
463.01	-0.02
463.365	-0.02
463.719	-0.03
464.074	-0.03
464.428	-0.03
464.783	-0.04
465.137	-0.04
465.492	-0.03
465.846	-0.04
466.201	-0.04
466.555	-0.04
466.909	-0.04
467.263	-0.04
467.618	-0.04
467.972	-0.03
468.326	-0.03
468.68	-0.04
469.034	-0.05
469.388	-0.05
469.742	-0.05
470.096	-0.04
470.45	-0.05
470.804	-0.04
471.157	-0.04
471.511	-0.04
471.865	-0.04
472.218	-0.04
472.572	-0.03
472.926	-0.04
473.279	-0.03
473.633	-0.03
473.986	-0.03
474.34	-0.02
474.693	-0.02
475.046	-0.01
475.4	-0.01
475.753	-0
476.106	0.01
476.459	0.01
476.812	0.01
477.165	0.01
477.519	0.02
477.872	0.02
478.224	0.02
478.577	0.03
478.93	0.02
479.283	0.03
479.636	0.03
479.989	0.04
480.341	0.04
480.694	0.04
481.047	0.04
481.399	0.05
481.752	0.05
482.104	0.05
482.457	0.05
482.809	0.05
483.162	0.05
483.514	0.06
483.866	0.06
484.219	0.06
484.571	0.06
484.923	0.06
485.275	0.06
485.627	0.07
485.979	0.07
486.331	0.07
486.683	0.08
487.035	0.07
487.387	0.07
487.739	0.08
488.091	0.08
488.443	0.08
488.794	0.08
489.146	0.08
489.498	0.09
489.849	0.09
490.201	0.09
490.552	0.08
490.904	0.09
491.255	0.09
491.607	0.09
491.958	0.09
492.309	0.09
492.661	0.09
493.012	0.1
493.363	0.1
493.714	0.09
494.065	0.1
494.416	0.1
494.767	0.1
495.118	0.1
495.469	0.1
495.82	0.1
496.171	0.11
496.522	0.11
496.872	0.11
497.223	0.11
497.574	0.11
497.924	0.11
498.275	0.11
498.626	0.11
498.976	0.11
499.327	0.11
499.677	0.12
500.027	0.12
500.378	0.12
500.728	0.12
501.078	0.12
501.428	0.12
501.779	0.12
502.129	0.12
502.479	0.12
502.829	0.13
503.179	0.13
503.529	0.12
503.879	0.13
504.229	0.13
504.578	0.13
504.928	0.13
505.278	0.14
505.628	0.14
505.977	0.14
506.327	0.14
506.676	0.14
507.026	0.14
507.375	0.14
507.725	0.14
508.074	0.14
508.424	0.14
508.773	0.14
509.122	0.14
509.471	0.15
509.82	0.15
510.17	0.15
510.519	0.15
510.868	0.15
511.217	0.15
511.566	0.15
511.915	0.15
512.263	0.15
512.612	0.16
512.961	0.16
513.31	0.16
513.659	0.16
514.007	0.16
514.356	0.16
514.704	0.16
515.053	0.16
515.401	0.16
515.75	0.16
516.098	0.16
516.447	0.17
516.795	0.17
517.143	0.16
517.491	0.17
517.839	0.16
518.188	0.17
518.536	0.17
518.884	0.17
519.232	0.17
519.58	0.17
519.928	0.18
520.275	0.17
520.623	0.17
520.971	0.17
521.319	0.18
521.666	0.18
522.014	0.18
522.362	0.18
522.709	0.18
523.057	0.18
523.404	0.18
523.752	0.18
524.099	0.18
524.446	0.18
524.794	0.18
525.141	0.18
525.488	0.19
525.835	0.18
526.182	0.18
526.529	0.18
526.876	0.19
527.223	0.19
527.57	0.19
527.917	0.18
528.264	0.19
528.611	0.19
528.958	0.19
529.304	0.19
529.651	0.19
529.998	0.19
530.344	0.19
530.691	0.19
531.037	0.19
531.384	0.2
531.73	0.19
532.076	0.19
532.423	0.2
532.769	0.19
533.115	0.2
533.461	0.2
533.807	0.19
534.154	0.2
534.5	0.2
534.846	0.2
535.192	0.2
535.537	0.2
535.883	0.21
536.229	0.21
536.575	0.2
536.921	0.21
537.266	0.21
537.612	0.21
537.957	0.21
538.303	0.21
538.649	0.2
538.994	0.21
539.339	0.21
539.685	0.21
540.03	0.21
540.375	0.21
540.721	0.21
541.066	0.21
541.411	0.21
541.756	0.21
542.101	0.21
542.446	0.21
542.791	0.21
543.136	0.21
543.481	0.21
543.825	0.21
544.17	0.21
544.515	0.21
544.86	0.21
545.204	0.22
545.549	0.21
545.893	0.22
546.238	0.22
546.582	0.22
546.927	0.22
547.271	0.22
547.615	0.22
547.96	0.22
548.304	0.22
548.648	0.22
548.992	0.22
549.336	0.22
549.68	0.22
550.024	0.22
550.368	0.22
550.712	0.23
551.056	0.22
551.4	0.23
551.743	0.23
552.087	0.22
552.431	0.23
552.774	0.23
553.118	0.22
553.462	0.22
553.805	0.22
554.148	0.22
554.492	0.22
554.835	0.23
555.178	0.23
555.522	0.22
555.865	0.22
556.208	0.23
556.551	0.23
556.894	0.23
557.237	0.23
557.58	0.22
557.923	0.23
558.266	0.23
558.609	0.22
558.952	0.22
559.294	0.23
559.637	0.23
559.98	0.22
560.322	0.23
560.665	0.23
561.007	0.22
561.35	0.23
561.692	0.22
562.034	0.23
562.377	0.23
562.719	0.23
563.061	0.22
563.403	0.22
563.745	0.22
564.088	0.23
564.43	0.22
564.772	0.23
565.113	0.22
565.455	0.22
565.797	0.22
566.139	0.22
566.481	0.22
566.822	0.22
567.164	0.22
567.506	0.22
567.847	0.22
568.189	0.22
568.53	0.22
568.872	0.22
569.213	0.23
569.554	0.22
569.895	0.22
570.237	0.22
570.578	0.22
570.919	0.22
571.26	0.22
571.601	0.22
571.942	0.22
572.283	0.22
572.624	0.22
572.965	0.22
573.306	0.22
573.646	0.21
573.987	0.21
574.328	0.21
574.668	0.22
575.009	0.21
575.349	0.22
575.69	0.21
576.03	0.21
576.37	0.21
576.711	0.21
577.051	0.21
577.391	0.21
577.731	0.21
578.072	0.21
578.412	0.21
578.752	0.21
579.092	0.2
579.431	0.19
579.771	0.18
580.111	0.17
580.451	0.18
580.791	0.2
581.13	0.2
581.47	0.2
581.81	0.2
582.149	0.2
582.489	0.2
582.828	0.19
583.167	0.17
583.507	0.13
583.846	0.12
584.185	0.15
584.525	0.17
584.864	0.19
585.203	0.2
585.542	0.2
585.881	0.21
586.22	0.21
586.559	0.2
586.898	0.19
587.236	0.18
587.575	0.18
587.914	0.19
588.252	0.2
588.591	0.2
588.93	0.2
589.268	0.2
589.607	0.2
589.945	0.2
590.283	0.2
590.622	0.2
590.96	0.21
591.298	0.21
591.636	0.21
591.974	0.21
592.313	0.21
592.651	0.21
592.989	0.21
593.326	0.21
593.664	0.21
594.002	0.21
594.34	0.21
594.678	0.21
595.015	0.2
595.353	0.19
595.691	0.2
596.028	0.21
596.366	0.21
596.703	0.21
597.04	0.21
597.378	0.21
597.715	0.22
598.052	0.21
598.389	0.22
598.726	0.22
599.064	0.21
599.401	0.21
599.738	0.21
600.074	0.21
600.411	0.21
600.748	0.21
601.085	0.21
601.422	0.2
601.758	0.2
602.095	0.2
602.432	0.2
602.768	0.21
603.105	0.21
603.441	0.21
603.777	0.21
604.114	0.21
604.45	0.21
604.786	0.21
605.122	0.21
605.459	0.21
605.795	0.21
606.131	0.21
606.467	0.21
606.803	0.21
607.139	0.21
607.474	0.21
607.81	0.21
608.146	0.21
608.482	0.21
608.817	0.21
609.153	0.21
609.488	0.2
609.824	0.2
610.159	0.21
610.495	0.2
610.83	0.21
611.165	0.21
611.5	0.2
611.836	0.2
612.171	0.2
612.506	0.2
612.841	0.21
613.176	0.2
613.511	0.2
613.845	0.2
614.18	0.2
614.515	0.2
614.85	0.2
615.184	0.2
615.519	0.2
615.854	0.2
616.188	0.2
616.523	0.2
616.857	0.19
617.191	0.19
617.526	0.19
617.86	0.19
618.194	0.19
618.528	0.19
618.862	0.19
619.196	0.19
619.53	0.19
619.864	0.19
620.198	0.19
620.532	0.19
620.866	0.19
621.2	0.19
621.533	0.19
621.867	0.19
622.201	0.19
622.534	0.19
622.868	0.19
623.201	0.18
623.534	0.19
623.868	0.18
624.201	0.18
624.534	0.18
624.868	0.18
625.201	0.18
625.534	0.18
625.867	0.18
626.2	0.18
626.533	0.18
626.865	0.18
627.198	0.18
627.531	0.18
627.864	0.18
628.196	0.18
628.529	0.17
628.862	0.18
629.194	0.17
629.527	0.17
629.859	0.17
630.191	0.17
630.524	0.17
630.856	0.17
631.188	0.17
631.52	0.17
631.852	0.16
632.184	0.16
632.516	0.16
632.848	0.16
633.18	0.16
633.512	0.16
633.844	0.16
634.175	0.16
634.507	0.16
634.839	0.16
635.17	0.15
635.502	0.15
635.833	0.15
636.165	0.15
636.496	0.15
636.827	0.15
637.159	0.15
637.49	0.15
637.821	0.14
638.152	0.14
638.483	0.14
638.814	0.14
639.145	0.14
639.476	0.14
639.807	0.14
640.137	0.14
640.468	0.14
640.799	0.13
641.129	0.13
641.46	0.13
641.791	0.13
642.121	0.13
642.451	0.13
642.782	0.13
643.112	0.13
643.442	0.13
643.773	0.13
644.103	0.13
644.433	0.13
644.763	0.12
645.093	0.13
645.423	0.12
645.753	0.12
646.082	0.12
646.412	0.12
646.742	0.12
647.072	0.13
647.401	0.12
647.731	0.12
648.06	0.12
648.39	0.11
648.719	0.12
649.048	0.11
649.378	0.11
649.707	0.11
650.036	0.11
650.365	0.11
650.694	0.11
651.023	0.11
651.352	0.11
651.681	0.11
652.01	0.11
652.339	0.11
652.668	0.11
652.996	0.11
653.325	0.11
653.654	0.12
653.982	0.11
654.311	0.11
654.639	0.11
654.967	0.11
655.296	0.11
655.624	0.11
655.952	0.11
656.28	0.11
656.609	0.11
656.937	0.11
657.265	0.11
657.593	0.01
657.92	0
658.248	-0
658.576	0
658.904	0
659.231	0.05
659.559	0.1
659.887	0.1
660.214	0.11
660.542	0.1
660.869	0.1
661.196	0.1
661.524	0.1
661.851	0.1
662.178	0.1
662.505	0.1
662.832	0.1
663.159	0.1
663.486	0.11
663.813	0.11
664.14	0.1
664.467	0.1
664.794	0.1
665.12	0.1
665.447	0.1
665.774	0.1
666.1	0.1
666.427	0.1
666.753	0.1
667.079	0.1
667.406	0.1
667.732	0.1
668.058	0.1
668.384	0.1
668.71	0.1
669.036	0.1
669.362	0.1
669.688	0.1
670.014	0.1
670.34	0.1
670.666	0.09
670.991	0.09
671.317	0.09
671.643	0.09
671.968	0.09
672.294	0.09
672.619	0.08
672.945	0.08
673.27	0.08
673.595	0.08
673.92	0.08
674.246	0.08
674.571	0.08
674.896	0.09
675.221	0.09
675.546	0.08
675.87	0.09
676.195	0.08
676.52	0.08
676.845	0.08
677.169	0.08
677.494	0.08
677.819	0.08
678.143	0.07
678.468	0.07
678.792	0.07
679.116	0.07
679.44	0.07
679.765	0.07
680.089	0.07
680.413	0.07
680.737	0.07
681.061	0.06
681.385	0.06
681.709	0.06
682.033	0.06
682.356	0.06
682.68	0.06
683.004	0.06
683.327	0.06
683.651	0.06
683.974	0.06
684.298	0.06
684.621	0.06
684.944	0.05
685.268	0.06
685.591	0.05
685.914	0.05
686.237	0.05
686.56	0.05
686.883	0.05
687.206	0.05
687.529	0.05
687.852	0.04
688.175	0.05
688.497	0.05
688.82	0.05
689.142	0.05
689.465	0.05
689.787	0.05
690.11	0.05
690.432	0.05
690.755	0.04
691.077	0.05
691.399	0.04
691.721	0.04
692.043	0.04
692.365	0.04
692.687	0.04
693.009	0.04
693.331	0.04
693.653	0.04
693.974	0.04
694.296	0.04
694.618	0.04
694.939	0.03
695.261	0.03
695.582	0.04
695.904	0.04
696.225	0.04
696.546	0.04
696.868	0.04
697.189	0.03
697.51	0.03
697.831	0.03
698.152	0.03
698.473	0.03
698.794	0.02
699.114	0.03
699.435	0.01
699.756	0.02
700.077	0.02
700.397	0.02
700.718	0.03
701.038	0.03
701.359	0.03
701.679	0.03
701.999	0.03
702.32	0.03
702.64	0.03
702.96	0.03
703.28	0.03
703.6	0.03
703.92	0.02
704.24	0.02
704.56	0.02
704.879	0.02
705.199	0.02
705.519	0.02
705.838	0.02
706.158	0.03
706.478	0.02
706.797	0.03
707.116	0.03
707.436	0.03
707.755	0.03
708.074	0.03
708.393	0.02
708.712	0.02
709.031	0.01
709.35	0.01
709.669	0.01
709.988	0.01
710.307	0.01
710.626	0.01
710.944	0.02
711.263	0.02
711.582	0.02
711.9	0.02
712.219	0.01
712.537	0.02
712.855	0.02
713.174	0.02
713.492	0.02
713.81	0.02
714.128	0.02
714.446	0.02
714.764	0.02
715.082	0.01
715.4	0.02
715.718	0.02
716.035	0.01
716.353	0.01
716.671	0.02
716.988	0.02
717.306	0.01
717.623	0.02
717.941	0.02
718.258	0.02
718.575	0.03
718.893	0.03
719.21	0.02
719.527	0.02
719.844	0.02
720.161	0.02
720.478	0.02
720.795	0.02
721.112	0.02
721.428	0.02
721.745	0.02
722.062	0.02
722.378	0.02
722.695	0.02
723.011	0.02
723.328	0.02
723.644	0.02
723.96	0.03
724.276	0.03
724.593	0.02
724.909	0.02
725.225	0.03
725.541	0.03
725.857	0.03
726.173	0.03
726.488	0.03
726.804	0.03
727.12	0.03
727.435	0.03
727.751	0.03
728.067	0.03
728.382	0.03
728.697	0.03
729.013	0.03
729.328	0.03
729.643	0.03
729.958	0.03
730.273	0.03
730.588	0.03
730.903	0.03
731.218	0.03
731.533	0.03
731.848	0.03
732.163	0.03
732.477	0.03
732.792	0.03
733.107	0.02
733.421	0.02
733.736	0.02
734.05	0.02
734.364	0.03
734.678	0.03
734.993	0.02
735.307	0.02
735.621	0.02
735.935	0.02
736.249	0.02
736.563	0.02
736.877	0.02
737.19	0.02
737.504	0.02
737.818	0.02
738.131	0.02
738.445	0.03
738.758	0.02
739.072	0.02
739.385	0.02
739.698	0.03
740.012	0.03
740.325	0.02
740.638	0.03
740.951	0.03
741.264	0.02
741.577	0.03
741.89	0.03
742.203	0.03
742.515	0.03
742.828	0.02
743.141	0.02
743.453	0.02
743.766	0.02
744.078	0.02
744.391	0.02
744.703	0.02
745.015	0.02
745.327	0.02
745.639	0.02
745.952	0.02
746.264	0.02
746.575	0.02
746.887	0.02
747.199	0.02
747.511	0.02
747.823	0.02
748.134	0.02
748.446	0.02
748.757	0.01
749.069	0.02
749.38	0.02
749.692	0.02
750.003	0.02
750.314	0.02
750.625	0.02
750.936	0.02
751.248	0.02
751.559	0.02
751.869	0.02
752.18	0.02
752.491	0.02
752.802	0.02
753.112	0.02
753.423	0.02
753.734	0.02
754.044	0.02
754.355	0.02
754.665	0.01
754.975	0.02
755.285	0.02
755.596	0.02
755.906	0.02
756.216	0.01
756.526	0.01
756.836	0.01
757.146	0.01
757.455	0.01
757.765	0.01
758.075	0.01
758.385	0.01
758.694	0.01
759.004	0.01
759.313	0.01
759.622	0.01
759.932	0.01
760.241	0.01
760.55	0.01
760.859	0
761.168	0.01
761.477	0.01
761.786	0
762.095	0
762.404	0
762.713	0
763.021	0.01
763.33	0.01
763.639	0.01
763.947	0.01
764.256	0.01
764.564	0.01
764.872	0.01
765.181	0
765.489	0
765.797	0
766.105	0
766.413	0
766.721	0.01
767.029	0.01
767.337	0.01
767.644	0.01
767.952	0.01
768.26	0.01
768.567	0.01
768.875	0.01
769.182	0.01
769.49	0.01
769.797	0
770.104	0
770.411	0
770.718	0
771.026	0
771.333	0
771.639	0
771.946	0
772.253	0
772.56	0
772.867	0
773.173	0
773.48	0
773.786	0.01
774.093	0
774.399	0.01
774.705	0.01
775.012	0.01
775.318	0
775.624	0.01
775.93	0.01
776.236	0.01
776.542	0
776.848	0.01
777.154	0.01
777.459	0.01
777.765	0.01
778.071	0.01
778.376	0.01
778.682	0.01
778.987	0.01
779.292	0.01
779.598	0
779.903	0.01
780.208	0.01
780.513	0.01
780.818	0.01
781.123	0.01
781.428	0.01
781.733	0.01
782.038	0.01
782.343	0.01
782.647	0.01
782.952	0.01
783.256	0
783.561	0
783.865	0
784.17	0
784.474	0.01
784.778	0
785.082	0.01
785.386	0.01
785.69	0.01
785.994	0.01
786.298	0.01
786.602	0.01
786.906	0.01
787.209	0.01
787.513	0.01
787.817	0.01
788.12	0.01
788.424	0.01
788.727	0.01
789.03	0.01
789.333	0.01
789.637	0.01
789.94	0.02
790.243	0.01
790.546	0.01
790.849	0.01
791.152	0.01
791.454	0.01
791.757	0.02
792.06	0.01
792.362	0.01
792.665	0.01
792.967	0.01
793.27	0.01
793.572	0.01
793.874	0.02
794.177	0.01
794.479	0.02
794.781	0.01
795.083	0.01
795.385	0.01
795.687	0.01
795.989	0.01
796.29	0.02
796.592	0.01
796.894	0.01
797.195	0.01
797.497	0.01
797.798	0.01
798.1	0.01
798.401	0.01
798.702	0.01
799.003	0
799.304	0.01
799.605	0
799.906	0
800.207	0
800.508	0
800.809	0
801.11	0
801.41	0
801.711	0.01
802.011	0
802.312	0
802.612	0.01
802.913	0
803.213	0.01
803.513	0.01
803.813	0.01
804.113	0.01
804.413	0.01
804.713	0.01
805.013	0.01
805.313	0.01
805.613	0.01
805.912	0.01
806.212	0.02
806.511	0.02
806.811	0.02
807.11	0.01
807.41	0.02
807.709	0.02
808.008	0.01
808.307	0.01
808.606	0.01
808.905	0.01
809.204	0.01
809.503	0.01
809.802	0.01
810.101	0.02
810.399	0.01
810.698	0.01
810.997	0.01
811.295	0.01
811.593	0.01
811.892	0.01
812.19	0.01
812.488	0.01
812.786	0.01
813.084	0.01
813.383	0.01
813.68	0.01
813.978	0.01
814.276	0.01
814.574	0.01
814.872	0.02
815.169	0.01
815.467	0.02
815.764	0.01
816.062	0.01
816.359	0.02
816.656	0.01
816.954	0.02
817.251	0.02
817.548	0.01
817.845	0.02
818.142	0.01
818.439	0.01
818.735	0.01
819.032	0.02
819.329	0.01
819.626	0.02
819.922	0.01
820.219	0.02
820.515	0.01
820.811	0.01
821.108	0.01
821.404	0.02
821.7	0.02
821.996	0.01
822.292	0.01
822.588	0.01
822.884	0.01
823.18	0.01
823.475	0.02
823.771	0.01
824.067	0.01
824.362	0.01
824.658	0.01
824.953	0.01
825.249	0.01
825.544	0.01
825.839	0.01
826.134	0.01
826.429	0.01
826.724	0.01
827.019	0.01
827.314	0.01
827.609	0.02
827.904	0.01
828.198	0.01
828.493	0.01
828.787	0.02
829.082	0.02
829.376	0.01
829.671	0.01
829.965	0.01
830.259	0.02
830.553	0.02
830.847	0.02
831.141	0.02
831.435	0.01
831.729	0.02
832.023	0.02
832.317	0.02
832.61	0.02
832.904	0.01
833.197	0.01
833.491	0.01
833.784	0.01
834.077	0.01
834.371	0.02
834.664	0.02
834.957	0.02
835.25	0.02
835.543	0.02
835.836	0.02
836.129	0.02
836.421	0.02
836.714	0.02
837.007	0.02
837.299	0.02
837.592	0.01
837.884	0.02
838.177	0.02
838.469	0.02
838.761	0.01
839.053	0.01
839.345	0.02
839.637	0.01
839.929	0.02
840.221	0.01
840.513	0.02
840.805	0.01
841.096	0.02
841.388	0.02
841.68	0.02
841.971	0.02
842.262	0.02
842.554	0.02
842.845	0.02
843.136	0.02
843.427	0.02
843.718	0.02
844.009	0.02
844.3	0.02
844.591	0.02
844.882	0.02
845.173	0.01
845.463	0.02
845.754	0.02
846.044	0.02
846.335	0.02
846.625	0.02
846.915	0.03
847.206	0.03
847.496	0.03
847.786	0.03
848.076	0.02
848.366	0.03
848.656	0.03
848.945	0.02
849.235	0.02
849.525	0.03
849.814	0.03
850.104	0.03
850.393	0.03
850.683	0.03
850.972	0.03
851.261	0.02
851.551	0.02
851.84	0.01
852.129	0.02
852.418	0.02
852.707	0.02
852.995	0.02
853.284	0.03
853.573	0.03
853.862	0.03
854.15	0.01
854.439	0.02
854.727	0.03
855.015	0.02
855.304	0.02
855.592	0.03
855.88	0.02
856.168	0.02
856.456	0.03
856.744	0.01
857.032	0.03
857.32	0.03
857.607	0.04
857.895	0.02
858.183	0.03
858.47	0.03
858.757	0.02
859.045	0.04
859.332	0.02
859.619	0.01
859.907	0.03
860.194	0.03
860.481	0.02
860.768	0.02
861.054	0.03
861.341	0.02
861.628	0.02
861.915	0.02
862.201	0.02
862.488	0.03
862.774	0.02
863.061	0.04
863.347	0.02
863.633	0.03
863.919	0.02
864.205	0.05
864.491	0.02
864.777	0.03
865.063	0.03
865.349	0.02
865.635	0.04
865.92	0.04
866.206	0.04
866.492	0.02
866.777	0.02
867.062	0.02
867.348	0.02
867.633	0.05
867.918	0.05
868.203	0.04
868.488	0.05
868.773	0.02
869.058	-0
869.343	0.02
869.628	0.03
869.912	0
870.197	0.02
870.482	-0
870.766	0.02
871.05	0.01
871.335	0.02
871.619	0.03
871.903	0.02
872.187	0.01
872.471	0.01
872.755	0.03
873.039	0
873.323	-0.02
873.607	0.03
873.89	0.04
874.174	0.04
874.458	0.01
874.741	0.08
875.024	0.05
875.308	-0.02
875.591	-0.01
875.874	-0.01
876.157	0.01
876.44	0.03
876.723	0.07
877.006	-0.02
877.289	0.03
877.572	-0.03
877.854	0
878.137	0.07
878.42	-0.03
878.702	0.08
878.984	0.05
879.267	-0.03
879.549	0.02
879.831	0.04
880.113	0
880.395	0.04
880.677	-0.08
880.959	-0.07
