Data from Rubpy_BV_1200_EDTA_Buffered_Absorbance_13-49-11-173.txt Node
Date: Wed Jul 01 13:49:11 BST 2026
User: fpm-admin
Spectrometer: OFX00224
Trigger mode: 0
Integration Time (sec): 7.000000E-2
Scans to average: 3
Nonlinearity correction enabled: false
Boxcar width: 0
Storing dark spectrum: false
XAxis mode: Wavelengths
Number of Pixels in Spectrum: 2136
>>>>>Begin Spectral Data<<<<<
154.91	-0
155.289	-0.48
155.669	-0.44
156.048	-1.05
156.428	-0.14
156.807	-0
157.186	-0.65
157.566	-0
157.945	-0.24
158.325	-0.07
158.704	0.18
159.083	-0.16
159.462	-0
159.842	-0.34
160.221	-0
160.6	0.37
160.979	-0
161.359	-0
161.738	-0.19
162.117	-0
162.496	1.15
162.875	0.12
163.254	-0
163.633	-0.59
164.012	-0
164.391	0.19
164.77	-0.11
165.149	-0.01
165.528	0.95
165.907	-0
166.286	0.45
166.665	-0.05
167.044	-0.9
167.423	-0.02
167.802	-0.64
168.181	-0
168.559	0.18
168.938	0.03
169.317	-0.1
169.696	-0
170.074	-0.9
170.453	-0
170.832	-0.44
171.21	-0.56
171.589	-0
171.968	-0.23
172.346	0.01
172.725	-0
173.103	-0.4
173.482	-0.05
173.861	-0.1
174.239	-0
174.617	-0.19
174.996	0.34
175.374	-0
175.753	-0.11
176.131	-1.02
176.51	0.76
176.888	-0
177.266	-0
177.645	0.09
178.023	0.47
178.401	-0.18
178.779	1
179.158	-0
179.536	0.18
179.914	-0
180.292	-0.53
180.67	1.04
181.048	-0
181.427	-0.07
181.805	-0.41
182.183	-0.22
182.561	-0
182.939	0.02
183.317	-0.4
183.695	0.14
184.073	-0.02
184.451	-1.08
184.829	0.03
185.206	-0.19
185.584	0.1
185.962	-0
186.34	-0.9
186.718	-0
187.096	0.44
187.473	-0.48
187.851	-0.18
188.229	-0.67
188.607	0.11
188.984	0.18
189.362	0.16
189.74	0.22
190.117	0.17
190.495	0.1
190.872	0.06
191.25	0.29
191.627	0.18
192.005	0.15
192.382	0.09
192.76	0.15
193.137	0.18
193.515	0.13
193.892	0.24
194.269	0.13
194.647	0.13
195.024	0.03
195.401	0.1
195.779	0.21
196.156	0.11
196.533	0.09
196.91	0.12
197.288	0.08
197.665	0.11
198.042	0.08
198.419	0.27
198.796	0.17
199.173	0.22
199.55	0.19
199.927	0.16
200.304	0.18
200.681	0.26
201.058	0.25
201.435	0.2
201.812	0.17
202.189	0.08
202.566	0.26
202.943	0.19
203.32	0.12
203.697	0.11
204.073	0.2
204.45	0.18
204.827	0.24
205.204	0.24
205.58	0.15
205.957	0.17
206.334	0.26
206.71	0.25
207.087	0.21
207.464	0.28
207.84	0.21
208.217	0.21
208.593	0.18
208.97	0.05
209.346	0.19
209.723	0.23
210.099	0.15
210.476	0.18
210.852	0.16
211.228	0.12
211.605	0.25
211.981	0.17
212.357	0.07
212.733	0.3
213.11	0.19
213.486	0.26
213.862	0.17
214.238	0.3
214.614	0.17
214.991	0.14
215.367	0.18
215.743	0.13
216.119	0.1
216.495	0.14
216.871	0.34
217.247	0.13
217.623	0.26
217.999	0.2
218.375	0.13
218.751	0.15
219.127	0.22
219.502	0.17
219.878	0.16
220.254	0.19
220.63	0.17
221.006	0.2
221.381	0.15
221.757	0.17
222.133	0.15
222.508	0.16
222.884	0.18
223.26	0.2
223.635	0.14
224.011	0.16
224.386	0.15
224.762	0.17
225.137	0.19
225.513	0.12
225.888	0.24
226.264	0.33
226.639	0.11
227.014	0.22
227.39	0.28
227.765	0.17
228.14	0.19
228.516	0.16
228.891	0.21
229.266	0.25
229.641	0.28
230.017	0.2
230.392	0.28
230.767	0.23
231.142	0.19
231.517	0.17
231.892	0.13
232.267	0.2
232.642	0.32
233.017	0.17
233.392	0.13
233.767	0.14
234.142	0.24
234.517	0.21
234.892	0.12
235.267	0.18
235.641	0.21
236.016	0.23
236.391	0.16
236.766	0.18
237.14	0.27
237.515	0.19
237.89	0.23
238.264	0.24
238.639	0.13
239.014	0.18
239.388	0.17
239.763	0.23
240.137	0.2
240.512	0.18
240.886	0.2
241.261	0.28
241.635	0.15
242.009	0.16
242.384	0.21
242.758	0.29
243.132	0.17
243.507	0.22
243.881	0.19
244.255	0.26
244.629	0.15
245.004	0.13
245.378	0.15
245.752	0.2
246.126	0.18
246.5	0.26
246.874	0.29
247.248	0.16
247.622	0.15
247.996	0.22
248.37	0.24
248.744	0.22
249.118	0.32
249.492	0.12
249.866	0.22
250.24	0.13
250.613	0.11
250.987	0.19
251.361	0.24
251.735	0.12
252.108	0.2
252.482	0.13
252.856	0.09
253.229	0.2
253.603	0.2
253.977	0.13
254.35	0.16
254.724	0.27
255.097	0.29
255.471	0.24
255.844	0.26
256.218	0.19
256.591	0.09
256.964	0.15
257.338	0.27
257.711	0.22
258.084	0.24
258.458	0.2
258.831	0.21
259.204	0.14
259.577	0.31
259.95	0.23
260.323	0.18
260.697	0.24
261.07	0.21
261.443	0.25
261.816	0.13
262.189	0.21
262.562	0.34
262.935	0.2
263.308	0.23
263.68	0.3
264.053	0.26
264.426	0.21
264.799	0.18
265.172	0.13
265.545	0.21
265.917	0.25
266.29	0.22
266.663	0.26
267.035	0.2
267.408	0.24
267.781	0.24
268.153	0.17
268.526	0.16
268.898	0.2
269.271	0.26
269.643	0.23
270.016	0.17
270.388	0.14
270.76	0.22
271.133	0.2
271.505	0.13
271.877	0.26
272.25	0.18
272.622	0.31
272.994	0.23
273.366	0.15
273.739	0.21
274.111	0.21
274.483	0.19
274.855	0.24
275.227	0.18
275.599	0.15
275.971	0.15
276.343	0.22
276.715	0.22
277.087	0.32
277.459	0.16
277.831	0.21
278.203	0.2
278.574	0.18
278.946	0.27
279.318	0.23
279.69	0.26
280.061	0.2
280.433	0.21
280.805	0.21
281.176	0.13
281.548	0.27
281.92	0.23
282.291	0.23
282.663	0.21
283.034	0.18
283.406	0.18
283.777	0.17
284.148	0.18
284.52	0.26
284.891	0.29
285.262	0.18
285.634	0.25
286.005	0.2
286.376	0.19
286.747	0.2
287.119	0.19
287.49	0.19
287.861	0.23
288.232	0.24
288.603	0.23
288.974	0.27
289.345	0.17
289.716	0.18
290.087	0.23
290.458	0.15
290.829	0.26
291.2	0.22
291.571	0.3
291.941	0.25
292.312	0.24
292.683	0.13
293.054	0.19
293.424	0.2
293.795	0.22
294.166	0.32
294.536	0.19
294.907	0.21
295.277	0.19
295.648	0.2
296.018	0.26
296.389	0.22
296.759	0.19
297.13	0.25
297.5	0.24
297.871	0.24
298.241	0.22
298.611	0.3
298.981	0.25
299.352	0.19
299.722	0.13
300.092	0.22
300.462	0.36
300.832	0.24
301.202	0.24
301.573	0.17
301.943	0.23
302.313	0.19
302.683	0.21
303.053	0.18
303.422	0.19
303.792	0.16
304.162	0.2
304.532	0.19
304.902	0.19
305.272	0.16
305.641	0.17
306.011	0.14
306.381	0.16
306.75	0.18
307.12	0.15
307.49	0.12
307.859	0.16
308.229	0.12
308.598	0.14
308.968	0.15
309.337	0.17
309.707	0.16
310.076	0.13
310.445	0.15
310.815	0.14
311.184	0.13
311.553	0.14
311.923	0.13
312.292	0.15
312.661	0.15
313.03	0.15
313.399	0.16
313.768	0.17
314.137	0.16
314.506	0.17
314.875	0.16
315.244	0.17
315.613	0.18
315.982	0.18
316.351	0.17
316.72	0.17
317.089	0.18
317.458	0.19
317.826	0.18
318.195	0.19
318.564	0.19
318.933	0.19
319.301	0.19
319.67	0.2
320.038	0.21
320.407	0.19
320.775	0.21
321.144	0.21
321.512	0.21
321.881	0.22
322.249	0.23
322.618	0.22
322.986	0.22
323.354	0.23
323.723	0.23
324.091	0.23
324.459	0.24
324.827	0.24
325.195	0.24
325.564	0.25
325.932	0.26
326.3	0.25
326.668	0.25
327.036	0.26
327.404	0.26
327.772	0.27
328.14	0.28
328.508	0.28
328.875	0.28
329.243	0.29
329.611	0.29
329.979	0.29
330.346	0.3
330.714	0.3
331.082	0.3
331.449	0.3
331.817	0.31
332.185	0.32
332.552	0.33
332.92	0.34
333.287	0.34
333.655	0.34
334.022	0.36
334.389	0.36
334.757	0.36
335.124	0.37
335.491	0.38
335.859	0.38
336.226	0.39
336.593	0.4
336.96	0.41
337.327	0.41
337.695	0.43
338.062	0.43
338.429	0.43
338.796	0.44
339.163	0.45
339.53	0.46
339.897	0.46
340.263	0.48
340.63	0.49
340.997	0.48
341.364	0.5
341.731	0.51
342.097	0.51
342.464	0.52
342.831	0.53
343.197	0.54
343.564	0.55
343.931	0.55
344.297	0.57
344.664	0.58
345.03	0.58
345.396	0.59
345.763	0.59
346.129	0.61
346.496	0.62
346.862	0.63
347.228	0.64
347.594	0.64
347.961	0.65
348.327	0.66
348.693	0.67
349.059	0.68
349.425	0.69
349.791	0.69
350.157	0.7
350.523	0.71
350.889	0.72
351.255	0.72
351.621	0.73
351.987	0.75
352.353	0.75
352.719	0.76
353.084	0.77
353.45	0.78
353.816	0.79
354.181	0.79
354.547	0.81
354.913	0.81
355.278	0.82
355.644	0.83
356.009	0.84
356.375	0.85
356.74	0.86
357.106	0.88
357.471	0.88
357.836	0.9
358.202	0.91
358.567	0.93
358.932	0.93
359.297	0.96
359.663	0.96
360.028	0.96
360.393	0.98
360.758	1
361.123	1.02
361.488	1.03
361.853	1.03
362.218	1.06
362.583	1.07
362.948	1.08
363.312	1.09
363.677	1.1
364.042	1.11
364.407	1.13
364.772	1.13
365.136	1.14
365.501	1.16
365.865	1.17
366.23	1.17
366.595	1.18
366.959	1.19
367.324	1.19
367.688	1.21
368.052	1.22
368.417	1.24
368.781	1.23
369.145	1.23
369.51	1.25
369.874	1.26
370.238	1.27
370.602	1.28
370.967	1.29
371.331	1.27
371.695	1.29
372.059	1.29
372.423	1.3
372.787	1.31
373.151	1.28
373.515	1.3
373.878	1.31
374.242	1.29
374.606	1.27
374.97	1.27
375.334	1.25
375.697	1.25
376.061	1.22
376.425	1.22
376.788	1.23
377.152	1.22
377.515	1.21
377.879	1.19
378.242	1.18
378.606	1.17
378.969	1.14
379.333	1.14
379.696	1.13
380.059	1.12
380.422	1.1
380.786	1.08
381.149	1.07
381.512	1.06
381.875	1.05
382.238	1.05
382.601	1.05
382.964	1.02
383.327	1
383.69	1
384.053	0.99
384.416	0.99
384.779	0.98
385.142	0.97
385.504	0.96
385.867	0.96
386.23	0.95
386.593	0.96
386.955	0.95
387.318	0.95
387.68	0.94
388.043	0.94
388.405	0.95
388.768	0.94
389.13	0.94
389.493	0.93
389.855	0.93
390.217	0.93
390.58	0.91
390.942	0.9
391.304	0.9
391.666	0.88
392.028	0.87
392.391	0.87
392.753	0.85
393.115	0.84
393.477	0.84
393.839	0.83
394.201	0.82
394.563	0.81
394.924	0.81
395.286	0.81
395.648	0.81
396.01	0.82
396.371	0.82
396.733	0.84
397.095	0.85
397.456	0.87
397.818	0.88
398.18	0.91
398.541	0.92
398.903	0.94
399.264	0.97
399.625	0.99
399.987	1.02
400.348	1.03
400.709	1.05
401.071	1.05
401.432	1.06
401.793	1.05
402.154	1.05
402.515	1.04
402.876	1.02
403.238	1.01
403.599	0.99
403.96	0.95
404.32	0.93
404.681	0.88
405.042	0.85
405.403	0.82
405.764	0.78
406.125	0.74
406.485	0.71
406.846	0.67
407.207	0.63
407.567	0.61
407.928	0.56
408.288	0.54
408.649	0.51
409.009	0.48
409.37	0.45
409.73	0.42
410.091	0.41
410.451	0.38
410.811	0.36
411.171	0.34
411.532	0.33
411.892	0.31
412.252	0.3
412.612	0.28
412.972	0.26
413.332	0.26
413.692	0.25
414.052	0.24
414.412	0.22
414.772	0.22
415.132	0.21
415.492	0.2
415.851	0.2
416.211	0.19
416.571	0.18
416.931	0.19
417.29	0.17
417.65	0.17
418.009	0.16
418.369	0.16
418.728	0.16
419.088	0.15
419.447	0.15
419.807	0.15
420.166	0.14
420.525	0.14
420.884	0.13
421.244	0.13
421.603	0.14
421.962	0.13
422.321	0.13
422.68	0.12
423.039	0.13
423.398	0.13
423.757	0.12
424.116	0.12
424.475	0.12
424.834	0.11
425.193	0.11
425.551	0.11
425.91	0.11
426.269	0.11
426.628	0.11
426.986	0.12
427.345	0.11
427.703	0.11
428.062	0.11
428.42	0.1
428.779	0.1
429.137	0.1
429.496	0.11
429.854	0.1
430.212	0.1
430.57	0.11
430.929	0.1
431.287	0.1
431.645	0.1
432.003	0.1
432.361	0.1
432.719	0.1
433.077	0.1
433.435	0.09
433.793	0.1
434.151	0.09
434.509	0.1
434.866	0.1
435.224	0.09
435.582	0.09
435.94	0.09
436.297	0.1
436.655	0.09
437.012	0.09
437.37	0.1
437.727	0.1
438.085	0.1
438.442	0.09
438.8	0.09
439.157	0.09
439.514	0.09
439.872	0.09
440.229	0.09
440.586	0.09
440.943	0.09
441.3	0.1
441.657	0.09
442.014	0.08
442.371	0.09
442.728	0.09
443.085	0.09
443.442	0.09
443.799	0.09
444.156	0.09
444.513	0.1
444.869	0.09
445.226	0.1
445.583	0.1
445.939	0.09
446.296	0.1
446.652	0.1
447.009	0.09
447.365	0.1
447.722	0.1
448.078	0.09
448.434	0.09
448.791	0.1
449.147	0.1
449.503	0.09
449.859	0.1
450.215	0.1
450.571	0.09
450.928	0.1
451.284	0.1
451.64	0.08
451.995	0.09
452.351	0.09
452.707	0.1
453.063	0.09
453.419	0.09
453.775	0.09
454.13	0.08
454.486	0.09
454.842	0.09
455.197	0.09
455.553	0.09
455.908	0.08
456.264	0.08
456.619	0.08
456.975	0.08
457.33	0.08
457.685	0.08
458.04	0.08
458.396	0.07
458.751	0.07
459.106	0.08
459.461	0.06
459.816	0.06
460.171	0.07
460.526	0.07
460.881	0.06
461.236	0.06
461.591	0.07
461.946	0.06
462.301	0.06
462.655	0.05
463.01	0.05
463.365	0.05
463.719	0.05
464.074	0.04
464.428	0.04
464.783	0.03
465.137	0.03
465.492	0.04
465.846	0.04
466.201	0.04
466.555	0.05
466.909	0.05
467.263	0.04
467.618	0.05
467.972	0.04
468.326	0.05
468.68	0.04
469.034	0.04
469.388	0.04
469.742	0.05
470.096	0.05
470.45	0.05
470.804	0.05
471.157	0.06
471.511	0.06
471.865	0.05
472.218	0.06
472.572	0.06
472.926	0.06
473.279	0.07
473.633	0.08
473.986	0.08
474.34	0.08
474.693	0.1
475.046	0.1
475.4	0.11
475.753	0.12
476.106	0.12
476.459	0.13
476.812	0.13
477.165	0.14
477.519	0.15
477.872	0.15
478.224	0.15
478.577	0.16
478.93	0.16
479.283	0.17
479.636	0.17
479.989	0.17
480.341	0.18
480.694	0.18
481.047	0.18
481.399	0.19
481.752	0.2
482.104	0.21
482.457	0.21
482.809	0.21
483.162	0.22
483.514	0.22
483.866	0.22
484.219	0.22
484.571	0.23
484.923	0.23
485.275	0.24
485.627	0.24
485.979	0.24
486.331	0.25
486.683	0.25
487.035	0.25
487.387	0.26
487.739	0.26
488.091	0.26
488.443	0.27
488.794	0.27
489.146	0.27
489.498	0.27
489.849	0.27
490.201	0.28
490.552	0.28
490.904	0.28
491.255	0.29
491.607	0.29
491.958	0.29
492.309	0.29
492.661	0.29
493.012	0.3
493.363	0.3
493.714	0.3
494.065	0.31
494.416	0.31
494.767	0.31
495.118	0.31
495.469	0.32
495.82	0.32
496.171	0.32
496.522	0.33
496.872	0.34
497.223	0.33
497.574	0.34
497.924	0.34
498.275	0.35
498.626	0.35
498.976	0.35
499.327	0.35
499.677	0.35
500.027	0.36
500.378	0.36
500.728	0.36
501.078	0.36
501.428	0.37
501.779	0.37
502.129	0.37
502.479	0.37
502.829	0.38
503.179	0.38
503.529	0.39
503.879	0.39
504.229	0.38
504.578	0.39
504.928	0.4
505.278	0.4
505.628	0.4
505.977	0.41
506.327	0.4
506.676	0.41
507.026	0.41
507.375	0.41
507.725	0.42
508.074	0.42
508.424	0.42
508.773	0.42
509.122	0.43
509.471	0.43
509.82	0.43
510.17	0.43
510.519	0.43
510.868	0.44
511.217	0.44
511.566	0.44
511.915	0.45
512.263	0.45
512.612	0.45
512.961	0.45
513.31	0.46
513.659	0.46
514.007	0.46
514.356	0.47
514.704	0.47
515.053	0.47
515.401	0.47
515.75	0.47
516.098	0.48
516.447	0.48
516.795	0.48
517.143	0.48
517.491	0.48
517.839	0.48
518.188	0.48
518.536	0.49
518.884	0.49
519.232	0.49
519.58	0.49
519.928	0.49
520.275	0.5
520.623	0.5
520.971	0.5
521.319	0.5
521.666	0.5
522.014	0.51
522.362	0.51
522.709	0.51
523.057	0.52
523.404	0.52
523.752	0.51
524.099	0.52
524.446	0.52
524.794	0.52
525.141	0.52
525.488	0.52
525.835	0.53
526.182	0.52
526.529	0.53
526.876	0.54
527.223	0.53
527.57	0.53
527.917	0.53
528.264	0.54
528.611	0.53
528.958	0.54
529.304	0.54
529.651	0.55
529.998	0.55
530.344	0.54
530.691	0.55
531.037	0.55
531.384	0.55
531.73	0.55
532.076	0.55
532.423	0.55
532.769	0.56
533.115	0.55
533.461	0.56
533.807	0.56
534.154	0.56
534.5	0.56
534.846	0.56
535.192	0.57
535.537	0.56
535.883	0.57
536.229	0.57
536.575	0.57
536.921	0.57
537.266	0.57
537.612	0.58
537.957	0.58
538.303	0.58
538.649	0.58
538.994	0.58
539.339	0.58
539.685	0.58
540.03	0.58
540.375	0.58
540.721	0.58
541.066	0.58
541.411	0.58
541.756	0.59
542.101	0.59
542.446	0.59
542.791	0.59
543.136	0.58
543.481	0.59
543.825	0.59
544.17	0.59
544.515	0.59
544.86	0.59
545.204	0.6
545.549	0.6
545.893	0.6
546.238	0.59
546.582	0.6
546.927	0.6
547.271	0.6
547.615	0.6
547.96	0.6
548.304	0.6
548.648	0.6
548.992	0.6
549.336	0.59
549.68	0.6
550.024	0.61
550.368	0.6
550.712	0.6
551.056	0.6
551.4	0.6
551.743	0.6
552.087	0.6
552.431	0.6
552.774	0.61
553.118	0.6
553.462	0.6
553.805	0.6
554.148	0.6
554.492	0.6
554.835	0.6
555.178	0.6
555.522	0.6
555.865	0.6
556.208	0.6
556.551	0.6
556.894	0.61
557.237	0.61
557.58	0.6
557.923	0.6
558.266	0.6
558.609	0.6
558.952	0.61
559.294	0.6
559.637	0.6
559.98	0.59
560.322	0.6
560.665	0.6
561.007	0.6
561.35	0.6
561.692	0.6
562.034	0.6
562.377	0.6
562.719	0.6
563.061	0.59
563.403	0.6
563.745	0.59
564.088	0.59
564.43	0.59
564.772	0.6
565.113	0.6
565.455	0.59
565.797	0.59
566.139	0.59
566.481	0.59
566.822	0.59
567.164	0.59
567.506	0.59
567.847	0.58
568.189	0.59
568.53	0.59
568.872	0.59
569.213	0.59
569.554	0.58
569.895	0.58
570.237	0.58
570.578	0.58
570.919	0.58
571.26	0.58
571.601	0.58
571.942	0.58
572.283	0.57
572.624	0.57
572.965	0.57
573.306	0.57
573.646	0.57
573.987	0.56
574.328	0.56
574.668	0.56
575.009	0.57
575.349	0.57
575.69	0.56
576.03	0.56
576.37	0.56
576.711	0.55
577.051	0.56
577.391	0.55
577.731	0.56
578.072	0.56
578.412	0.55
578.752	0.55
579.092	0.54
579.431	0.53
579.771	0.51
580.111	0.5
580.451	0.51
580.791	0.54
581.13	0.54
581.47	0.54
581.81	0.54
582.149	0.53
582.489	0.54
582.828	0.53
583.167	0.5
583.507	0.46
583.846	0.44
584.185	0.47
584.525	0.5
584.864	0.52
585.203	0.53
585.542	0.54
585.881	0.53
586.22	0.53
586.559	0.52
586.898	0.51
587.236	0.5
587.575	0.5
587.914	0.51
588.252	0.52
588.591	0.53
588.93	0.53
589.268	0.52
589.607	0.52
589.945	0.52
590.283	0.52
590.622	0.52
590.96	0.53
591.298	0.53
591.636	0.53
591.974	0.53
592.313	0.53
592.651	0.53
592.989	0.53
593.326	0.53
593.664	0.54
594.002	0.53
594.34	0.53
594.678	0.52
595.015	0.52
595.353	0.51
595.691	0.52
596.028	0.53
596.366	0.53
596.703	0.53
597.04	0.53
597.378	0.53
597.715	0.53
598.052	0.53
598.389	0.53
598.726	0.53
599.064	0.53
599.401	0.53
599.738	0.53
600.074	0.53
600.411	0.53
600.748	0.52
601.085	0.52
601.422	0.51
601.758	0.51
602.095	0.51
602.432	0.51
602.768	0.52
603.105	0.52
603.441	0.52
603.777	0.52
604.114	0.52
604.45	0.52
604.786	0.52
605.122	0.52
605.459	0.52
605.795	0.52
606.131	0.51
606.467	0.52
606.803	0.51
607.139	0.51
607.474	0.51
607.81	0.5
608.146	0.51
608.482	0.51
608.817	0.51
609.153	0.5
609.488	0.5
609.824	0.5
610.159	0.5
610.495	0.5
610.83	0.5
611.165	0.5
611.5	0.5
611.836	0.49
612.171	0.49
612.506	0.49
612.841	0.5
613.176	0.49
613.511	0.49
613.845	0.49
614.18	0.49
614.515	0.49
614.85	0.48
615.184	0.48
615.519	0.48
615.854	0.48
616.188	0.48
616.523	0.47
616.857	0.47
617.191	0.47
617.526	0.46
617.86	0.47
618.194	0.46
618.528	0.46
618.862	0.46
619.196	0.46
619.53	0.46
619.864	0.46
620.198	0.46
620.532	0.46
620.866	0.46
621.2	0.45
621.533	0.46
621.867	0.46
622.201	0.45
622.534	0.45
622.868	0.45
623.201	0.44
623.534	0.44
623.868	0.44
624.201	0.43
624.534	0.44
624.868	0.43
625.201	0.43
625.534	0.43
625.867	0.43
626.2	0.43
626.533	0.43
626.865	0.43
627.198	0.42
627.531	0.42
627.864	0.42
628.196	0.42
628.529	0.41
628.862	0.41
629.194	0.41
629.527	0.4
629.859	0.4
630.191	0.4
630.524	0.4
630.856	0.4
631.188	0.4
631.52	0.39
631.852	0.39
632.184	0.39
632.516	0.39
632.848	0.39
633.18	0.38
633.512	0.38
633.844	0.38
634.175	0.37
634.507	0.37
634.839	0.37
635.17	0.37
635.502	0.37
635.833	0.37
636.165	0.36
636.496	0.36
636.827	0.36
637.159	0.35
637.49	0.35
637.821	0.35
638.152	0.34
638.483	0.34
638.814	0.34
639.145	0.34
639.476	0.33
639.807	0.33
640.137	0.33
640.468	0.33
640.799	0.33
641.129	0.32
641.46	0.32
641.791	0.32
642.121	0.32
642.451	0.32
642.782	0.32
643.112	0.31
643.442	0.31
643.773	0.31
644.103	0.31
644.433	0.31
644.763	0.31
645.093	0.3
645.423	0.3
645.753	0.3
646.082	0.3
646.412	0.3
646.742	0.29
647.072	0.3
647.401	0.29
647.731	0.29
648.06	0.29
648.39	0.28
648.719	0.28
649.048	0.28
649.378	0.28
649.707	0.28
650.036	0.27
650.365	0.27
650.694	0.27
651.023	0.27
651.352	0.27
651.681	0.27
652.01	0.27
652.339	0.27
652.668	0.27
652.996	0.27
653.325	0.27
653.654	0.27
653.982	0.27
654.311	0.27
654.639	0.27
654.967	0.27
655.296	0.26
655.624	0.26
655.952	0.26
656.28	0.26
656.609	0.26
656.937	0.27
657.265	0.26
657.593	0.15
657.92	0.04
658.248	0.01
658.576	0.03
658.904	0.11
659.231	0.2
659.559	0.24
659.887	0.25
660.214	0.25
660.542	0.25
660.869	0.25
661.196	0.25
661.524	0.25
661.851	0.25
662.178	0.25
662.505	0.25
662.832	0.25
663.159	0.25
663.486	0.25
663.813	0.24
664.14	0.24
664.467	0.24
664.794	0.24
665.12	0.24
665.447	0.24
665.774	0.23
666.1	0.24
666.427	0.24
666.753	0.23
667.079	0.23
667.406	0.23
667.732	0.23
668.058	0.23
668.384	0.23
668.71	0.23
669.036	0.22
669.362	0.22
669.688	0.22
670.014	0.22
670.34	0.22
670.666	0.22
670.991	0.21
671.317	0.21
671.643	0.21
671.968	0.2
672.294	0.2
672.619	0.2
672.945	0.2
673.27	0.2
673.595	0.2
673.92	0.2
674.246	0.2
674.571	0.2
674.896	0.2
675.221	0.19
675.546	0.19
675.87	0.19
676.195	0.19
676.52	0.19
676.845	0.19
677.169	0.18
677.494	0.18
677.819	0.18
678.143	0.18
678.468	0.18
678.792	0.17
679.116	0.17
679.44	0.17
679.765	0.17
680.089	0.16
680.413	0.16
680.737	0.16
681.061	0.16
681.385	0.16
681.709	0.15
682.033	0.15
682.356	0.15
682.68	0.15
683.004	0.15
683.327	0.15
683.651	0.15
683.974	0.15
684.298	0.15
684.621	0.15
684.944	0.14
685.268	0.14
685.591	0.13
685.914	0.13
686.237	0.13
686.56	0.13
686.883	0.13
687.206	0.12
687.529	0.12
687.852	0.12
688.175	0.12
688.497	0.12
688.82	0.12
689.142	0.12
689.465	0.12
689.787	0.12
690.11	0.12
690.432	0.12
690.755	0.11
691.077	0.11
691.399	0.11
691.721	0.11
692.043	0.11
692.365	0.1
692.687	0.1
693.009	0.1
693.331	0.1
693.653	0.1
693.974	0.1
694.296	0.1
694.618	0.09
694.939	0.1
695.261	0.09
695.582	0.09
695.904	0.09
696.225	0.09
696.546	0.09
696.868	0.09
697.189	0.09
697.51	0.09
697.831	0.09
698.152	0.09
698.473	0.08
698.794	0.07
699.114	0.07
699.435	0.06
699.756	0.07
700.077	0.07
700.397	0.07
700.718	0.07
701.038	0.08
701.359	0.08
701.679	0.07
701.999	0.08
702.32	0.07
702.64	0.07
702.96	0.07
703.28	0.08
703.6	0.07
703.92	0.07
704.24	0.07
704.56	0.06
704.879	0.06
705.199	0.07
705.519	0.07
705.838	0.07
706.158	0.07
706.478	0.07
706.797	0.07
707.116	0.07
707.436	0.07
707.755	0.07
708.074	0.07
708.393	0.06
708.712	0.06
709.031	0.04
709.35	0.04
709.669	0.04
709.988	0.04
710.307	0.05
710.626	0.05
710.944	0.06
711.263	0.06
711.582	0.06
711.9	0.06
712.219	0.05
712.537	0.06
712.855	0.06
713.174	0.06
713.492	0.06
713.81	0.06
714.128	0.06
714.446	0.06
714.764	0.06
715.082	0.05
715.4	0.06
715.718	0.05
716.035	0.05
716.353	0.05
716.671	0.05
716.988	0.06
717.306	0.05
717.623	0.06
717.941	0.06
718.258	0.07
718.575	0.07
718.893	0.07
719.21	0.07
719.527	0.07
719.844	0.06
720.161	0.06
720.478	0.06
720.795	0.06
721.112	0.06
721.428	0.07
721.745	0.06
722.062	0.07
722.378	0.07
722.695	0.07
723.011	0.06
723.328	0.07
723.644	0.07
723.96	0.07
724.276	0.07
724.593	0.07
724.909	0.07
725.225	0.07
725.541	0.07
725.857	0.07
726.173	0.08
726.488	0.08
726.804	0.07
727.12	0.07
727.435	0.07
727.751	0.07
728.067	0.07
728.382	0.08
728.697	0.07
729.013	0.08
729.328	0.07
729.643	0.08
729.958	0.07
730.273	0.08
730.588	0.07
730.903	0.07
731.218	0.07
731.533	0.07
731.848	0.07
732.163	0.07
732.477	0.07
732.792	0.07
733.107	0.06
733.421	0.07
733.736	0.07
734.05	0.07
734.364	0.07
734.678	0.07
734.993	0.06
735.307	0.06
735.621	0.06
735.935	0.06
736.249	0.06
736.563	0.06
736.877	0.07
737.19	0.07
737.504	0.06
737.818	0.07
738.131	0.07
738.445	0.07
738.758	0.07
739.072	0.06
739.385	0.06
739.698	0.07
740.012	0.07
740.325	0.06
740.638	0.06
740.951	0.06
741.264	0.06
741.577	0.07
741.89	0.07
742.203	0.07
742.515	0.07
742.828	0.06
743.141	0.06
743.453	0.06
743.766	0.06
744.078	0.06
744.391	0.05
744.703	0.05
745.015	0.05
745.327	0.05
745.639	0.05
745.952	0.05
746.264	0.05
746.575	0.05
746.887	0.05
747.199	0.05
747.511	0.05
747.823	0.05
748.134	0.05
748.446	0.05
748.757	0.05
749.069	0.05
749.38	0.05
749.692	0.05
750.003	0.05
750.314	0.05
750.625	0.05
750.936	0.05
751.248	0.04
751.559	0.04
751.869	0.05
752.18	0.05
752.491	0.04
752.802	0.05
753.112	0.05
753.423	0.05
753.734	0.05
754.044	0.04
754.355	0.04
754.665	0.04
754.975	0.04
755.285	0.04
755.596	0.04
755.906	0.04
756.216	0.04
756.526	0.04
756.836	0.04
757.146	0.03
757.455	0.03
757.765	0.04
758.075	0.04
758.385	0.03
758.694	0.03
759.004	0.03
759.313	0.03
759.622	0.03
759.932	0.03
760.241	0.03
760.55	0.03
760.859	0.03
761.168	0.03
761.477	0.03
761.786	0.02
762.095	0.02
762.404	0.02
762.713	0.02
763.021	0.03
763.33	0.03
763.639	0.03
763.947	0.03
764.256	0.03
764.564	0.03
764.872	0.03
765.181	0.02
765.489	0.03
765.797	0.03
766.105	0.02
766.413	0.02
766.721	0.03
767.029	0.03
767.337	0.03
767.644	0.03
767.952	0.03
768.26	0.03
768.567	0.03
768.875	0.03
769.182	0.03
769.49	0.03
769.797	0.03
770.104	0.03
770.411	0.02
770.718	0.02
771.026	0.02
771.333	0.02
771.639	0.03
771.946	0.03
772.253	0.03
772.56	0.02
772.867	0.03
773.173	0.03
773.48	0.03
773.786	0.03
774.093	0.03
774.399	0.03
774.705	0.03
775.012	0.03
775.318	0.03
775.624	0.03
775.93	0.03
776.236	0.03
776.542	0.03
776.848	0.03
777.154	0.03
777.459	0.03
777.765	0.03
778.071	0.03
778.376	0.03
778.682	0.03
778.987	0.03
779.292	0.03
779.598	0.03
779.903	0.03
780.208	0.03
780.513	0.03
780.818	0.03
781.123	0.03
781.428	0.03
781.733	0.03
782.038	0.03
782.343	0.03
782.647	0.03
782.952	0.03
783.256	0.03
783.561	0.03
783.865	0.03
784.17	0.03
784.474	0.03
784.778	0.03
785.082	0.03
785.386	0.04
785.69	0.03
785.994	0.04
786.298	0.04
786.602	0.03
786.906	0.04
787.209	0.04
787.513	0.04
787.817	0.04
788.12	0.03
788.424	0.03
788.727	0.03
789.03	0.03
789.333	0.04
789.637	0.04
789.94	0.04
790.243	0.04
790.546	0.04
790.849	0.04
791.152	0.04
791.454	0.04
791.757	0.04
792.06	0.04
792.362	0.04
792.665	0.04
792.967	0.04
793.27	0.04
793.572	0.04
793.874	0.04
794.177	0.04
794.479	0.05
794.781	0.04
795.083	0.04
795.385	0.04
795.687	0.04
795.989	0.04
796.29	0.04
796.592	0.04
796.894	0.04
797.195	0.04
797.497	0.04
797.798	0.04
798.1	0.04
798.401	0.04
798.702	0.03
799.003	0.04
799.304	0.04
799.605	0.03
799.906	0.03
800.207	0.03
800.508	0.03
800.809	0.04
801.11	0.03
801.41	0.03
801.711	0.03
802.011	0.03
802.312	0.03
802.612	0.03
802.913	0.04
803.213	0.04
803.513	0.05
803.813	0.04
804.113	0.05
804.413	0.05
804.713	0.05
805.013	0.05
805.313	0.05
805.613	0.05
805.912	0.05
806.212	0.05
806.511	0.05
806.811	0.05
807.11	0.04
807.41	0.05
807.709	0.05
808.008	0.05
808.307	0.05
808.606	0.05
808.905	0.05
809.204	0.05
809.503	0.05
809.802	0.05
810.101	0.05
810.399	0.05
810.698	0.05
810.997	0.05
811.295	0.05
811.593	0.05
811.892	0.05
812.19	0.05
812.488	0.05
812.786	0.05
813.084	0.05
813.383	0.05
813.68	0.05
813.978	0.05
814.276	0.05
814.574	0.05
814.872	0.06
815.169	0.05
815.467	0.05
815.764	0.06
816.062	0.06
816.359	0.05
816.656	0.06
816.954	0.06
817.251	0.06
817.548	0.06
817.845	0.06
818.142	0.06
818.439	0.06
818.735	0.05
819.032	0.06
819.329	0.05
819.626	0.06
819.922	0.05
820.219	0.05
820.515	0.05
820.811	0.05
821.108	0.05
821.404	0.05
821.7	0.05
821.996	0.06
822.292	0.06
822.588	0.06
822.884	0.06
823.18	0.06
823.475	0.06
823.771	0.06
824.067	0.06
824.362	0.05
824.658	0.06
824.953	0.06
825.249	0.06
825.544	0.06
825.839	0.05
826.134	0.06
826.429	0.05
826.724	0.06
827.019	0.05
827.314	0.06
827.609	0.06
827.904	0.06
828.198	0.06
828.493	0.06
828.787	0.06
829.082	0.07
829.376	0.06
829.671	0.07
829.965	0.07
830.259	0.06
830.553	0.07
830.847	0.07
831.141	0.07
831.435	0.07
831.729	0.07
832.023	0.07
832.317	0.07
832.61	0.07
832.904	0.07
833.197	0.07
833.491	0.07
833.784	0.06
834.077	0.07
834.371	0.07
834.664	0.07
834.957	0.07
835.25	0.07
835.543	0.08
835.836	0.08
836.129	0.07
836.421	0.07
836.714	0.08
837.007	0.07
837.299	0.07
837.592	0.07
837.884	0.06
838.177	0.07
838.469	0.07
838.761	0.08
839.053	0.06
839.345	0.07
839.637	0.07
839.929	0.07
840.221	0.07
840.513	0.07
840.805	0.07
841.096	0.08
841.388	0.07
841.68	0.08
841.971	0.08
842.262	0.08
842.554	0.07
842.845	0.07
843.136	0.07
843.427	0.07
843.718	0.08
844.009	0.08
844.3	0.09
844.591	0.08
844.882	0.07
845.173	0.07
845.463	0.07
845.754	0.08
846.044	0.08
846.335	0.08
846.625	0.08
846.915	0.09
847.206	0.09
847.496	0.09
847.786	0.09
848.076	0.09
848.366	0.09
848.656	0.09
848.945	0.09
849.235	0.08
849.525	0.1
849.814	0.09
850.104	0.09
850.393	0.09
850.683	0.09
850.972	0.1
851.261	0.07
851.551	0.09
851.84	0.08
852.129	0.08
852.418	0.08
852.707	0.08
852.995	0.08
853.284	0.08
853.573	0.09
853.862	0.09
854.15	0.09
854.439	0.08
854.727	0.1
855.015	0.08
855.304	0.09
855.592	0.1
855.88	0.1
856.168	0.1
856.456	0.1
856.744	0.08
857.032	0.1
857.32	0.1
857.607	0.09
857.895	0.09
858.183	0.09
858.47	0.09
858.757	0.09
859.045	0.1
859.332	0.1
859.619	0.1
859.907	0.1
860.194	0.1
860.481	0.09
860.768	0.08
861.054	0.1
861.341	0.1
861.628	0.1
861.915	0.11
862.201	0.09
862.488	0.1
862.774	0.09
863.061	0.1
863.347	0.1
863.633	0.1
863.919	0.08
864.205	0.11
864.491	0.09
864.777	0.09
865.063	0.12
865.349	0.09
865.635	0.1
865.92	0.12
866.206	0.11
866.492	0.09
866.777	0.08
867.062	0.09
867.348	0.11
867.633	0.11
867.918	0.1
868.203	0.11
868.488	0.11
868.773	0.09
869.058	0.09
869.343	0.08
869.628	0.12
869.912	0.09
870.197	0.1
870.482	0.08
870.766	0.07
871.05	0.09
871.335	0.07
871.619	0.07
871.903	0.11
872.187	0.11
872.471	0.08
872.755	0.1
873.039	0.03
873.323	0.07
873.607	0.08
873.89	0.1
874.174	0.08
874.458	0.05
874.741	0.14
875.024	0.15
875.308	0.06
875.591	0.09
875.874	0.08
876.157	0.06
876.44	0.11
876.723	0.07
877.006	0.06
877.289	0.07
877.572	0.02
877.854	0.09
878.137	0.14
878.42	0.07
878.702	0.11
878.984	0.13
879.267	0.02
879.549	0.05
879.831	0.11
880.113	0.05
880.395	0.1
880.677	0.02
880.959	0.03
