Data from Rubpy_BV_1200_EDTA_Buffered_Absorbance_13-36-46-047.txt Node
Date: Wed Jul 01 13:36:46 BST 2026
User: fpm-admin
Spectrometer: OFX00224
Trigger mode: 0
Integration Time (sec): 7.000000E-2
Scans to average: 3
Nonlinearity correction enabled: false
Boxcar width: 0
Storing dark spectrum: false
XAxis mode: Wavelengths
Number of Pixels in Spectrum: 2136
>>>>>Begin Spectral Data<<<<<
154.91	-0
155.289	-0
155.669	-0.39
156.048	-0.86
156.428	-0
156.807	-0
157.186	-0
157.566	-0.51
157.945	-0.32
158.325	-0.07
158.704	-1.04
159.083	-0.26
159.462	0.6
159.842	-0.25
160.221	-0
160.6	1.8
160.979	-0
161.359	-0
161.738	-0.1
162.117	-0
162.496	-0
162.875	-0.52
163.254	-0
163.633	-0.53
164.012	-0
164.391	-0.02
164.77	-0.22
165.149	0.04
165.528	0.35
165.907	-0
166.286	0.22
166.665	-0.06
167.044	-1.44
167.423	-0.26
167.802	-0.38
168.181	-0
168.559	-0.07
168.938	-0.32
169.317	0.08
169.696	-0
170.074	-0
170.453	-0
170.832	-0
171.21	-0.66
171.589	-0
171.968	-0
172.346	-0.06
172.725	-0
173.103	-0.84
173.482	-0.12
173.861	-0.84
174.239	-0.16
174.617	-0
174.996	-0
175.374	-0
175.753	0.07
176.131	-1.16
176.51	0.55
176.888	-0
177.266	0.5
177.645	0.12
178.023	0.01
178.401	-0.15
178.779	-0
179.158	-0.78
179.536	-0.22
179.914	-0
180.292	-0.41
180.67	-0
181.048	-0
181.427	-0.34
181.805	-0.41
182.183	-0
182.561	-0.7
182.939	-0
183.317	-0.3
183.695	1.11
184.073	-0.09
184.451	-0
184.829	-0.07
185.206	0.12
185.584	-0.2
185.962	-0.85
186.34	-0.94
186.718	-0
187.096	0.54
187.473	-0.73
187.851	-0.16
188.229	-0
188.607	-0.05
188.984	0.07
189.362	0.03
189.74	-0.08
190.117	0.11
190.495	-0
190.872	-0.07
191.25	0.06
191.627	-0.07
192.005	-0.03
192.382	0.04
192.76	-0.02
193.137	-0
193.515	-0.07
193.892	-0.08
194.269	0.05
194.647	-0.06
195.024	-0.05
195.401	-0.01
195.779	-0.08
196.156	-0.04
196.533	-0.07
196.91	-0.08
197.288	-0.07
197.665	-0.05
198.042	0
198.419	-0.03
198.796	-0.12
199.173	-0.03
199.55	0
199.927	-0.08
200.304	0.08
200.681	0.07
201.058	0.03
201.435	-0.13
201.812	0.06
202.189	-0.09
202.566	-0.04
202.943	0.01
203.32	-0.04
203.697	-0.07
204.073	0
204.45	-0.01
204.827	-0.01
205.204	-0.01
205.58	-0.05
205.957	-0.04
206.334	-0.04
206.71	-0.09
207.087	-0.01
207.464	-0.01
207.84	-0.02
208.217	0.01
208.593	0.04
208.97	-0.01
209.346	0.03
209.723	0.06
210.099	-0.02
210.476	-0.09
210.852	-0.04
211.228	-0
211.605	-0.05
211.981	-0.01
212.357	-0.04
212.733	-0.12
213.11	0.02
213.486	0.05
213.862	-0.03
214.238	-0
214.614	0.01
214.991	-0.03
215.367	0.09
215.743	-0.11
216.119	0.07
216.495	-0.04
216.871	0.09
217.247	-0.01
217.623	0.03
217.999	-0.02
218.375	-0.04
218.751	-0.05
219.127	-0
219.502	-0.01
219.878	-0.01
220.254	0.04
220.63	-0.07
221.006	-0.04
221.381	0.01
221.757	-0.03
222.133	-0.06
222.508	-0.02
222.884	0.05
223.26	-0.04
223.635	-0.04
224.011	-0.05
224.386	0.01
224.762	-0.02
225.137	-0.04
225.513	-0.02
225.888	0.01
226.264	-0.04
226.639	0.02
227.014	-0.01
227.39	0.01
227.765	0.04
228.14	-0.01
228.516	0
228.891	-0
229.266	0.07
229.641	-0.06
230.017	-0
230.392	-0.02
230.767	0.03
231.142	-0.07
231.517	0.05
231.892	-0.05
232.267	-0.02
232.642	0.03
233.017	0.03
233.392	0.04
233.767	-0
234.142	0.01
234.517	-0.04
234.892	-0.11
235.267	-0.03
235.641	0.02
236.016	0.04
236.391	0.01
236.766	-0.04
237.14	0.05
237.515	0.06
237.89	-0.03
238.264	0.07
238.639	0.03
239.014	-0.05
239.388	0.03
239.763	-0
240.137	0.02
240.512	-0.01
240.886	-0.01
241.261	0.01
241.635	0.03
242.009	-0.03
242.384	0.02
242.758	0
243.132	-0.03
243.507	0.01
243.881	0
244.255	0.02
244.629	0.02
245.004	0.04
245.378	-0.05
245.752	-0.02
246.126	-0.01
246.5	-0.02
246.874	-0.01
247.248	0.02
247.622	-0.05
247.996	0.01
248.37	0.03
248.744	-0.01
249.118	0.06
249.492	-0.06
249.866	0.05
250.24	-0.04
250.613	-0.05
250.987	0.09
251.361	0.05
251.735	-0.05
252.108	0.02
252.482	0.04
252.856	-0.09
253.229	-0.03
253.603	0.04
253.977	-0.04
254.35	0.03
254.724	0.02
255.097	-0.05
255.471	-0.01
255.844	-0.05
256.218	0.07
256.591	-0.05
256.964	-0.02
257.338	0.1
257.711	0.04
258.084	0.06
258.458	-0.04
258.831	0.04
259.204	-0.04
259.577	0.05
259.95	0.04
260.323	0
260.697	0.05
261.07	-0.02
261.443	0.07
261.816	0.02
262.189	-0.03
262.562	0.03
262.935	0.04
263.308	0.01
263.68	-0.02
264.053	0.04
264.426	-0.01
264.799	0.01
265.172	-0.08
265.545	-0.04
265.917	-0.02
266.29	0.02
266.663	-0.01
267.035	0.01
267.408	0.01
267.781	0
268.153	-0.03
268.526	-0.05
268.898	0.01
269.271	-0.02
269.643	0
270.016	0
270.388	0.03
270.76	-0.02
271.133	0.05
271.505	-0
271.877	0
272.25	0.03
272.622	0.09
272.994	0.03
273.366	-0.1
273.739	0.01
274.111	-0.03
274.483	0.02
274.855	0.03
275.227	-0.01
275.599	0.02
275.971	0
276.343	0.01
276.715	0.05
277.087	0.1
277.459	-0.05
277.831	0.01
278.203	-0
278.574	0.01
278.946	0.06
279.318	0.05
279.69	0.03
280.061	0.02
280.433	0.09
280.805	0
281.176	-0.03
281.548	-0.03
281.92	-0.02
282.291	0.01
282.663	0
283.034	-0.02
283.406	0.03
283.777	0.06
284.148	-0.03
284.52	-0.01
284.891	0.07
285.262	0.08
285.634	0.08
286.005	-0.01
286.376	0.06
286.747	0.03
287.119	0.03
287.49	-0.02
287.861	0.01
288.232	0
288.603	0.02
288.974	0.02
289.345	-0.01
289.716	0.05
290.087	-0
290.458	0.04
290.829	0.05
291.2	0.03
291.571	0.08
291.941	0.03
292.312	0.03
292.683	0.01
293.054	-0.04
293.424	0.01
293.795	0
294.166	0.08
294.536	0.02
294.907	0.04
295.277	-0
295.648	0.03
296.018	-0
296.389	-0.02
296.759	-0
297.13	0.03
297.5	0.02
297.871	0.05
298.241	0.07
298.611	0.08
298.981	0.04
299.352	-0
299.722	-0.03
300.092	0.01
300.462	0.06
300.832	-0.01
301.202	0.08
301.573	0.01
301.943	0.01
302.313	-0
302.683	-0
303.053	-0.04
303.422	0.04
303.792	0.01
304.162	0.01
304.532	-0.01
304.902	0.01
305.272	0.02
305.641	0.02
306.011	0.01
306.381	0.01
306.75	-0
307.12	0.02
307.49	0.04
307.859	0.01
308.229	-0
308.598	0.01
308.968	0.02
309.337	0.03
309.707	0.04
310.076	0.02
310.445	-0.01
310.815	0.02
311.184	0
311.553	0.01
311.923	0.01
312.292	0.03
312.661	0.01
313.03	0.02
313.399	0.01
313.768	0.02
314.137	0.02
314.506	0.03
314.875	0.02
315.244	0.04
315.613	0.03
315.982	0.03
316.351	0.01
316.72	0.02
317.089	0.01
317.458	0.03
317.826	0.01
318.195	0.02
318.564	0.02
318.933	0.02
319.301	0.02
319.67	0.02
320.038	0.02
320.407	0.01
320.775	0.03
321.144	0.02
321.512	0.01
321.881	0.03
322.249	0.03
322.618	0.03
322.986	0.03
323.354	0.02
323.723	0.02
324.091	0.02
324.459	0.03
324.827	0.03
325.195	0.02
325.564	0.03
325.932	0.03
326.3	0.03
326.668	0.02
327.036	0.03
327.404	0.03
327.772	0.02
328.14	0.03
328.508	0.03
328.875	0.03
329.243	0.03
329.611	0.03
329.979	0.02
330.346	0.03
330.714	0.03
331.082	0.03
331.449	0.03
331.817	0.03
332.185	0.03
332.552	0.03
332.92	0.04
333.287	0.03
333.655	0.03
334.022	0.04
334.389	0.03
334.757	0.03
335.124	0.04
335.491	0.04
335.859	0.04
336.226	0.04
336.593	0.04
336.96	0.04
337.327	0.04
337.695	0.04
338.062	0.04
338.429	0.04
338.796	0.04
339.163	0.04
339.53	0.04
339.897	0.04
340.263	0.05
340.63	0.04
340.997	0.04
341.364	0.05
341.731	0.05
342.097	0.05
342.464	0.05
342.831	0.05
343.197	0.05
343.564	0.05
343.931	0.05
344.297	0.05
344.664	0.05
345.03	0.05
345.396	0.06
345.763	0.06
346.129	0.05
346.496	0.06
346.862	0.06
347.228	0.06
347.594	0.06
347.961	0.07
348.327	0.06
348.693	0.06
349.059	0.06
349.425	0.07
349.791	0.06
350.157	0.07
350.523	0.06
350.889	0.07
351.255	0.07
351.621	0.07
351.987	0.07
352.353	0.07
352.719	0.07
353.084	0.07
353.45	0.08
353.816	0.07
354.181	0.08
354.547	0.07
354.913	0.08
355.278	0.08
355.644	0.08
356.009	0.08
356.375	0.09
356.74	0.08
357.106	0.08
357.471	0.08
357.836	0.08
358.202	0.09
358.567	0.09
358.932	0.09
359.297	0.09
359.663	0.09
360.028	0.09
360.393	0.1
360.758	0.1
361.123	0.1
361.488	0.1
361.853	0.1
362.218	0.11
362.583	0.11
362.948	0.11
363.312	0.11
363.677	0.11
364.042	0.11
364.407	0.11
364.772	0.12
365.136	0.11
365.501	0.12
365.865	0.12
366.23	0.12
366.595	0.12
366.959	0.12
367.324	0.12
367.688	0.13
368.052	0.13
368.417	0.13
368.781	0.13
369.145	0.13
369.51	0.14
369.874	0.14
370.238	0.14
370.602	0.14
370.967	0.14
371.331	0.14
371.695	0.14
372.059	0.15
372.423	0.14
372.787	0.14
373.151	0.15
373.515	0.15
373.878	0.15
374.242	0.14
374.606	0.14
374.97	0.14
375.334	0.14
375.697	0.14
376.061	0.14
376.425	0.14
376.788	0.14
377.152	0.14
377.515	0.13
377.879	0.14
378.242	0.13
378.606	0.14
378.969	0.13
379.333	0.13
379.696	0.13
380.059	0.13
380.422	0.13
380.786	0.13
381.149	0.13
381.512	0.13
381.875	0.13
382.238	0.13
382.601	0.13
382.964	0.13
383.327	0.13
383.69	0.13
384.053	0.13
384.416	0.13
384.779	0.13
385.142	0.13
385.504	0.13
385.867	0.13
386.23	0.13
386.593	0.14
386.955	0.14
387.318	0.14
387.68	0.14
388.043	0.14
388.405	0.14
388.768	0.15
389.13	0.14
389.493	0.15
389.855	0.15
390.217	0.15
390.58	0.15
390.942	0.15
391.304	0.15
391.666	0.15
392.028	0.15
392.391	0.14
392.753	0.15
393.115	0.14
393.477	0.15
393.839	0.15
394.201	0.14
394.563	0.14
394.924	0.14
395.286	0.15
395.648	0.15
396.01	0.15
396.371	0.15
396.733	0.15
397.095	0.16
397.456	0.16
397.818	0.16
398.18	0.17
398.541	0.18
398.903	0.18
399.264	0.19
399.625	0.19
399.987	0.2
400.348	0.2
400.709	0.21
401.071	0.21
401.432	0.21
401.793	0.2
402.154	0.21
402.515	0.21
402.876	0.21
403.238	0.2
403.599	0.19
403.96	0.19
404.32	0.18
404.681	0.18
405.042	0.17
405.403	0.16
405.764	0.15
406.125	0.15
406.485	0.14
406.846	0.13
407.207	0.12
407.567	0.12
407.928	0.11
408.288	0.1
408.649	0.09
409.009	0.09
409.37	0.08
409.73	0.08
410.091	0.08
410.451	0.07
410.811	0.07
411.171	0.06
411.532	0.06
411.892	0.05
412.252	0.05
412.612	0.05
412.972	0.04
413.332	0.05
413.692	0.05
414.052	0.04
414.412	0.04
414.772	0.04
415.132	0.03
415.492	0.04
415.851	0.03
416.211	0.03
416.571	0.02
416.931	0.03
417.29	0.02
417.65	0.03
418.009	0.03
418.369	0.03
418.728	0.03
419.088	0.02
419.447	0.02
419.807	0.02
420.166	0.02
420.525	0.02
420.884	0.02
421.244	0.02
421.603	0.02
421.962	0.01
422.321	0.01
422.68	0.02
423.039	0.01
423.398	0.03
423.757	0.02
424.116	0.02
424.475	0.02
424.834	0.02
425.193	0.01
425.551	0.02
425.91	0.02
426.269	0.02
426.628	0.01
426.986	0.02
427.345	0.01
427.703	0.01
428.062	0.02
428.42	0.01
428.779	0.01
429.137	0.01
429.496	0.02
429.854	0.02
430.212	0.01
430.57	0.01
430.929	0.01
431.287	0.01
431.645	0.01
432.003	0.01
432.361	0.02
432.719	0.01
433.077	0.01
433.435	0.01
433.793	0.01
434.151	0.01
434.509	0.01
434.866	0.01
435.224	0.01
435.582	0
435.94	0
436.297	0.01
436.655	0.01
437.012	0.01
437.37	0.02
437.727	0.01
438.085	0.01
438.442	0.01
438.8	0.01
439.157	0.01
439.514	0.01
439.872	0.01
440.229	0.01
440.586	0.01
440.943	0.01
441.3	0.01
441.657	-0
442.014	0
442.371	0.01
442.728	0.01
443.085	0.01
443.442	0.01
443.799	0.01
444.156	0
444.513	0.01
444.869	0.01
445.226	0.01
445.583	0.01
445.939	0.01
446.296	0.01
446.652	0
447.009	0.01
447.365	0.01
447.722	0.01
448.078	0
448.434	0
448.791	-0
449.147	0
449.503	-0
449.859	0
450.215	-0
450.571	-0
450.928	-0
451.284	-0
451.64	-0.01
451.995	-0.01
452.351	-0.01
452.707	0
453.063	-0.01
453.419	-0.01
453.775	-0
454.13	-0.01
454.486	-0.01
454.842	-0
455.197	-0.02
455.553	-0.01
455.908	-0.02
456.264	-0.02
456.619	-0.03
456.975	-0.02
457.33	-0.02
457.685	-0.03
458.04	-0.02
458.396	-0.03
458.751	-0.03
459.106	-0.02
459.461	-0.04
459.816	-0.04
460.171	-0.05
460.526	-0.04
460.881	-0.05
461.236	-0.05
461.591	-0.05
461.946	-0.05
462.301	-0.06
462.655	-0.06
463.01	-0.05
463.365	-0.06
463.719	-0.06
464.074	-0.07
464.428	-0.07
464.783	-0.08
465.137	-0.08
465.492	-0.07
465.846	-0.08
466.201	-0.08
466.555	-0.07
466.909	-0.08
467.263	-0.07
467.618	-0.08
467.972	-0.08
468.326	-0.07
468.68	-0.08
469.034	-0.08
469.388	-0.09
469.742	-0.08
470.096	-0.08
470.45	-0.08
470.804	-0.08
471.157	-0.09
471.511	-0.08
471.865	-0.09
472.218	-0.07
472.572	-0.08
472.926	-0.08
473.279	-0.08
473.633	-0.07
473.986	-0.07
474.34	-0.06
474.693	-0.06
475.046	-0.05
475.4	-0.06
475.753	-0.05
476.106	-0.04
476.459	-0.04
476.812	-0.05
477.165	-0.03
477.519	-0.03
477.872	-0.04
478.224	-0.03
478.577	-0.03
478.93	-0.04
479.283	-0.03
479.636	-0.02
479.989	-0.02
480.341	-0.02
480.694	-0.02
481.047	-0.02
481.399	-0.02
481.752	-0.01
482.104	-0.01
482.457	-0.01
482.809	-0.01
483.162	-0.01
483.514	-0
483.866	-0.01
484.219	-0.01
484.571	-0
484.923	-0
485.275	0
485.627	0.01
485.979	0
486.331	0
486.683	0
487.035	0
487.387	0
487.739	0.01
488.091	0.01
488.443	0.01
488.794	0.01
489.146	0.01
489.498	0.01
489.849	0.01
490.201	0.01
490.552	0.01
490.904	0.01
491.255	0.01
491.607	0.01
491.958	0.01
492.309	0.01
492.661	0.01
493.012	0.01
493.363	0.02
493.714	0.01
494.065	0.01
494.416	0.01
494.767	0.02
495.118	0.02
495.469	0.02
495.82	0.01
496.171	0.02
496.522	0.02
496.872	0.02
497.223	0.02
497.574	0.02
497.924	0.02
498.275	0.02
498.626	0.02
498.976	0.02
499.327	0.02
499.677	0.02
500.027	0.02
500.378	0.02
500.728	0.03
501.078	0.03
501.428	0.03
501.779	0.02
502.129	0.02
502.479	0.03
502.829	0.02
503.179	0.03
503.529	0.03
503.879	0.03
504.229	0.03
504.578	0.03
504.928	0.03
505.278	0.03
505.628	0.03
505.977	0.03
506.327	0.03
506.676	0.03
507.026	0.03
507.375	0.03
507.725	0.03
508.074	0.04
508.424	0.04
508.773	0.03
509.122	0.03
509.471	0.04
509.82	0.03
510.17	0.04
510.519	0.03
510.868	0.04
511.217	0.03
511.566	0.03
511.915	0.04
512.263	0.04
512.612	0.04
512.961	0.04
513.31	0.04
513.659	0.04
514.007	0.04
514.356	0.04
514.704	0.04
515.053	0.04
515.401	0.04
515.75	0.04
516.098	0.04
516.447	0.04
516.795	0.04
517.143	0.04
517.491	0.04
517.839	0.04
518.188	0.04
518.536	0.04
518.884	0.04
519.232	0.04
519.58	0.04
519.928	0.04
520.275	0.04
520.623	0.04
520.971	0.04
521.319	0.04
521.666	0.05
522.014	0.05
522.362	0.05
522.709	0.04
523.057	0.05
523.404	0.05
523.752	0.04
524.099	0.05
524.446	0.05
524.794	0.05
525.141	0.04
525.488	0.05
525.835	0.05
526.182	0.05
526.529	0.05
526.876	0.05
527.223	0.05
527.57	0.05
527.917	0.05
528.264	0.05
528.611	0.05
528.958	0.05
529.304	0.05
529.651	0.05
529.998	0.05
530.344	0.05
530.691	0.05
531.037	0.05
531.384	0.05
531.73	0.05
532.076	0.05
532.423	0.05
532.769	0.05
533.115	0.05
533.461	0.05
533.807	0.04
534.154	0.05
534.5	0.05
534.846	0.05
535.192	0.05
535.537	0.05
535.883	0.05
536.229	0.06
536.575	0.05
536.921	0.05
537.266	0.06
537.612	0.06
537.957	0.06
538.303	0.06
538.649	0.05
538.994	0.05
539.339	0.05
539.685	0.05
540.03	0.05
540.375	0.06
540.721	0.06
541.066	0.06
541.411	0.06
541.756	0.06
542.101	0.05
542.446	0.06
542.791	0.06
543.136	0.05
543.481	0.06
543.825	0.06
544.17	0.06
544.515	0.06
544.86	0.06
545.204	0.06
545.549	0.06
545.893	0.06
546.238	0.06
546.582	0.06
546.927	0.06
547.271	0.06
547.615	0.06
547.96	0.06
548.304	0.06
548.648	0.06
548.992	0.06
549.336	0.06
549.68	0.06
550.024	0.07
550.368	0.06
550.712	0.07
551.056	0.06
551.4	0.06
551.743	0.06
552.087	0.06
552.431	0.06
552.774	0.07
553.118	0.06
553.462	0.06
553.805	0.06
554.148	0.06
554.492	0.06
554.835	0.07
555.178	0.06
555.522	0.06
555.865	0.06
556.208	0.06
556.551	0.07
556.894	0.06
557.237	0.07
557.58	0.06
557.923	0.06
558.266	0.06
558.609	0.06
558.952	0.06
559.294	0.06
559.637	0.06
559.98	0.06
560.322	0.06
560.665	0.06
561.007	0.06
561.35	0.07
561.692	0.07
562.034	0.07
562.377	0.06
562.719	0.06
563.061	0.06
563.403	0.07
563.745	0.07
564.088	0.07
564.43	0.07
564.772	0.07
565.113	0.07
565.455	0.07
565.797	0.06
566.139	0.07
566.481	0.07
566.822	0.07
567.164	0.07
567.506	0.06
567.847	0.06
568.189	0.07
568.53	0.06
568.872	0.06
569.213	0.06
569.554	0.06
569.895	0.06
570.237	0.07
570.578	0.07
570.919	0.06
571.26	0.06
571.601	0.07
571.942	0.06
572.283	0.06
572.624	0.06
572.965	0.06
573.306	0.06
573.646	0.06
573.987	0.06
574.328	0.06
574.668	0.07
575.009	0.07
575.349	0.07
575.69	0.06
576.03	0.06
576.37	0.06
576.711	0.06
577.051	0.06
577.391	0.06
577.731	0.06
578.072	0.06
578.412	0.06
578.752	0.06
579.092	0.06
579.431	0.05
579.771	0.04
580.111	0.03
580.451	0.04
580.791	0.06
581.13	0.06
581.47	0.06
581.81	0.06
582.149	0.06
582.489	0.06
582.828	0.05
583.167	0.03
583.507	0.01
583.846	0
584.185	0.02
584.525	0.03
584.864	0.05
585.203	0.06
585.542	0.06
585.881	0.06
586.22	0.06
586.559	0.06
586.898	0.05
587.236	0.04
587.575	0.04
587.914	0.05
588.252	0.06
588.591	0.06
588.93	0.06
589.268	0.06
589.607	0.06
589.945	0.06
590.283	0.06
590.622	0.06
590.96	0.06
591.298	0.06
591.636	0.07
591.974	0.06
592.313	0.06
592.651	0.07
592.989	0.07
593.326	0.07
593.664	0.07
594.002	0.07
594.34	0.07
594.678	0.06
595.015	0.06
595.353	0.05
595.691	0.06
596.028	0.06
596.366	0.06
596.703	0.07
597.04	0.07
597.378	0.07
597.715	0.07
598.052	0.07
598.389	0.07
598.726	0.07
599.064	0.07
599.401	0.06
599.738	0.07
600.074	0.07
600.411	0.07
600.748	0.06
601.085	0.06
601.422	0.06
601.758	0.06
602.095	0.06
602.432	0.06
602.768	0.06
603.105	0.07
603.441	0.07
603.777	0.07
604.114	0.07
604.45	0.07
604.786	0.07
605.122	0.07
605.459	0.07
605.795	0.07
606.131	0.06
606.467	0.07
606.803	0.07
607.139	0.07
607.474	0.06
607.81	0.07
608.146	0.07
608.482	0.07
608.817	0.07
609.153	0.07
609.488	0.06
609.824	0.07
610.159	0.07
610.495	0.07
610.83	0.07
611.165	0.07
611.5	0.06
611.836	0.06
612.171	0.07
612.506	0.07
612.841	0.07
613.176	0.07
613.511	0.07
613.845	0.07
614.18	0.06
614.515	0.06
614.85	0.06
615.184	0.06
615.519	0.06
615.854	0.06
616.188	0.06
616.523	0.06
616.857	0.06
617.191	0.06
617.526	0.06
617.86	0.06
618.194	0.06
618.528	0.06
618.862	0.06
619.196	0.06
619.53	0.06
619.864	0.06
620.198	0.06
620.532	0.06
620.866	0.07
621.2	0.06
621.533	0.07
621.867	0.07
622.201	0.06
622.534	0.06
622.868	0.06
623.201	0.06
623.534	0.06
623.868	0.06
624.201	0.06
624.534	0.06
624.868	0.06
625.201	0.06
625.534	0.06
625.867	0.06
626.2	0.06
626.533	0.06
626.865	0.06
627.198	0.06
627.531	0.06
627.864	0.06
628.196	0.06
628.529	0.06
628.862	0.06
629.194	0.06
629.527	0.05
629.859	0.05
630.191	0.05
630.524	0.05
630.856	0.06
631.188	0.06
631.52	0.05
631.852	0.05
632.184	0.05
632.516	0.06
632.848	0.05
633.18	0.05
633.512	0.05
633.844	0.05
634.175	0.05
634.507	0.05
634.839	0.05
635.17	0.05
635.502	0.05
635.833	0.05
636.165	0.05
636.496	0.05
636.827	0.05
637.159	0.05
637.49	0.05
637.821	0.05
638.152	0.04
638.483	0.05
638.814	0.05
639.145	0.05
639.476	0.05
639.807	0.05
640.137	0.04
640.468	0.04
640.799	0.04
641.129	0.04
641.46	0.04
641.791	0.04
642.121	0.04
642.451	0.04
642.782	0.04
643.112	0.04
643.442	0.04
643.773	0.04
644.103	0.04
644.433	0.04
644.763	0.04
645.093	0.04
645.423	0.04
645.753	0.04
646.082	0.04
646.412	0.04
646.742	0.04
647.072	0.04
647.401	0.04
647.731	0.04
648.06	0.04
648.39	0.03
648.719	0.03
649.048	0.03
649.378	0.03
649.707	0.03
650.036	0.03
650.365	0.03
650.694	0.03
651.023	0.03
651.352	0.03
651.681	0.03
652.01	0.03
652.339	0.03
652.668	0.04
652.996	0.04
653.325	0.03
653.654	0.04
653.982	0.04
654.311	0.04
654.639	0.04
654.967	0.03
655.296	0.03
655.624	0.03
655.952	0.03
656.28	0.03
656.609	0.03
656.937	0.03
657.265	0.03
657.593	-0
657.92	-0
658.248	-0
658.576	-0
658.904	-0
659.231	0
659.559	0.03
659.887	0.03
660.214	0.03
660.542	0.03
660.869	0.03
661.196	0.03
661.524	0.03
661.851	0.03
662.178	0.03
662.505	0.03
662.832	0.03
663.159	0.03
663.486	0.03
663.813	0.04
664.14	0.03
664.467	0.03
664.794	0.03
665.12	0.03
665.447	0.03
665.774	0.03
666.1	0.03
666.427	0.03
666.753	0.03
667.079	0.03
667.406	0.03
667.732	0.03
668.058	0.03
668.384	0.03
668.71	0.03
669.036	0.03
669.362	0.03
669.688	0.03
670.014	0.03
670.34	0.03
670.666	0.03
670.991	0.03
671.317	0.03
671.643	0.02
671.968	0.03
672.294	0.02
672.619	0.02
672.945	0.02
673.27	0.02
673.595	0.03
673.92	0.03
674.246	0.03
674.571	0.03
674.896	0.03
675.221	0.03
675.546	0.03
675.87	0.03
676.195	0.03
676.52	0.03
676.845	0.02
677.169	0.02
677.494	0.02
677.819	0.02
678.143	0.02
678.468	0.02
678.792	0.02
679.116	0.02
679.44	0.02
679.765	0.02
680.089	0.02
680.413	0.02
680.737	0.02
681.061	0.02
681.385	0.02
681.709	0.01
682.033	0.01
682.356	0.01
682.68	0.02
683.004	0.02
683.327	0.02
683.651	0.02
683.974	0.02
684.298	0.02
684.621	0.02
684.944	0.02
685.268	0.02
685.591	0.02
685.914	0.01
686.237	0.01
686.56	0.02
686.883	0.02
687.206	0.01
687.529	0.01
687.852	0.01
688.175	0.01
688.497	0.01
688.82	0.01
689.142	0.01
689.465	0.01
689.787	0.01
690.11	0.01
690.432	0.01
690.755	0.01
691.077	0.01
691.399	0.01
691.721	0.01
692.043	0.01
692.365	0.01
692.687	0.01
693.009	0.01
693.331	0.01
693.653	0.01
693.974	0.01
694.296	0.01
694.618	0.01
694.939	0.01
695.261	0.01
695.582	0.01
695.904	0.01
696.225	0.01
696.546	0.01
696.868	0.01
697.189	0.01
697.51	0.01
697.831	0.01
698.152	0.01
698.473	0.01
698.794	0
699.114	0
699.435	0
699.756	0
700.077	0
700.397	0
700.718	0
701.038	0
701.359	0.01
701.679	0
701.999	0.01
702.32	0
702.64	0.01
702.96	0.01
703.28	0.01
703.6	0.01
703.92	0
704.24	0
704.56	0
704.879	0
705.199	0.01
705.519	0
705.838	0.01
706.158	0.01
706.478	0
706.797	0.01
707.116	0.01
707.436	0.01
707.755	0
708.074	0.01
708.393	0
708.712	0
709.031	0
709.35	0
709.669	0
709.988	0
710.307	0
710.626	0
710.944	0
711.263	0
711.582	0
711.9	0
712.219	0
712.537	0
712.855	0
713.174	0
713.492	0
713.81	0
714.128	0
714.446	0
714.764	0
715.082	0
715.4	0
715.718	0
716.035	0
716.353	0
716.671	0
716.988	0
717.306	0
717.623	0
717.941	0.01
718.258	0.01
718.575	0.01
718.893	0.01
719.21	0.01
719.527	0.01
719.844	0
720.161	0.01
720.478	0
720.795	0
721.112	0
721.428	0
721.745	0
722.062	0
722.378	0
722.695	0
723.011	0
723.328	0
723.644	0
723.96	0.01
724.276	0
724.593	0
724.909	0
725.225	0.01
725.541	0.01
725.857	0.01
726.173	0.01
726.488	0.01
726.804	0.01
727.12	0.01
727.435	0.01
727.751	0.01
728.067	0.01
728.382	0.01
728.697	0.01
729.013	0.01
729.328	0.01
729.643	0.01
729.958	0.01
730.273	0.01
730.588	0.01
730.903	0.01
731.218	0.01
731.533	0.01
731.848	0.01
732.163	0.01
732.477	0.01
732.792	0.01
733.107	0
733.421	0
733.736	0
734.05	0.01
734.364	0.01
734.678	0.01
734.993	0.01
735.307	0
735.621	0
735.935	0.01
736.249	0.01
736.563	0
736.877	0.01
737.19	0.01
737.504	0
737.818	0.01
738.131	0.01
738.445	0.01
738.758	0.01
739.072	0.01
739.385	0.01
739.698	0.01
740.012	0.01
740.325	0.01
740.638	0.01
740.951	0.01
741.264	0.01
741.577	0.01
741.89	0.01
742.203	0.01
742.515	0.01
742.828	0.01
743.141	0
743.453	0
743.766	0
744.078	0
744.391	-0
744.703	0
745.015	-0
745.327	-0
745.639	0
745.952	0
746.264	0
746.575	0
746.887	0
747.199	0
747.511	0
747.823	0
748.134	0
748.446	-0
748.757	-0
749.069	0
749.38	0
749.692	0
750.003	0
750.314	0
750.625	0
750.936	0
751.248	0
751.559	0
751.869	0
752.18	0
752.491	0
752.802	0
753.112	0
753.423	0
753.734	0
754.044	0
754.355	0
754.665	0
754.975	0
755.285	0
755.596	0
755.906	0
756.216	0
756.526	0
756.836	-0
757.146	-0
757.455	-0
757.765	-0
758.075	-0
758.385	0
758.694	0
759.004	-0
759.313	-0
759.622	-0
759.932	-0
760.241	-0
760.55	-0
760.859	-0
761.168	-0
761.477	-0
761.786	-0.01
762.095	-0.01
762.404	-0.01
762.713	-0
763.021	-0
763.33	-0
763.639	-0
763.947	-0
764.256	-0
764.564	-0
764.872	-0
765.181	-0.01
765.489	-0.01
765.797	-0.01
766.105	-0
766.413	-0
766.721	-0
767.029	-0
767.337	-0
767.644	-0
767.952	-0
768.26	-0
768.567	0
768.875	-0
769.182	-0
769.49	-0
769.797	-0
770.104	-0
770.411	-0
770.718	-0.01
771.026	-0.01
771.333	-0.01
771.639	-0.01
771.946	-0.01
772.253	-0.01
772.56	-0.01
772.867	-0.01
773.173	-0.01
773.48	-0.01
773.786	-0
774.093	-0.01
774.399	-0
774.705	-0
775.012	-0
775.318	-0.01
775.624	-0.01
775.93	-0
776.236	-0.01
776.542	-0.01
776.848	-0
777.154	-0
777.459	-0
777.765	-0
778.071	0
778.376	-0
778.682	-0
778.987	-0
779.292	-0
779.598	-0
779.903	-0
780.208	-0
780.513	-0
780.818	-0.01
781.123	-0
781.428	-0
781.733	-0
782.038	-0
782.343	-0
782.647	-0
782.952	-0
783.256	-0
783.561	-0.01
783.865	-0.01
784.17	-0.01
784.474	-0
784.778	-0.01
785.082	-0
785.386	0
785.69	-0
785.994	0
786.298	-0
786.602	0
786.906	-0
787.209	0
787.513	0
787.817	0
788.12	-0
788.424	-0
788.727	-0
789.03	-0
789.333	-0
789.637	0
789.94	0.01
790.243	0
790.546	0
790.849	0.01
791.152	0.01
791.454	0
791.757	0
792.06	0
792.362	-0
792.665	0
792.967	0
793.27	0
793.572	0
793.874	0.01
794.177	0
794.479	0.01
794.781	0
795.083	0
795.385	0
795.687	0
795.989	0
796.29	0
796.592	0
796.894	0
797.195	0
797.497	0
797.798	-0
798.1	-0
798.401	-0
798.702	-0
799.003	-0
799.304	-0
799.605	-0.01
799.906	-0.01
800.207	-0.01
800.508	-0.01
800.809	-0.01
801.11	-0.01
801.41	-0.01
801.711	-0.01
802.011	-0.01
802.312	-0
802.612	-0
802.913	-0.01
803.213	-0
803.513	0
803.813	-0
804.113	0
804.413	-0
804.713	-0
805.013	0
805.313	0
805.613	0
805.912	-0
806.212	0
806.511	0
806.811	0
807.11	-0
807.41	0
807.709	0
808.008	0
808.307	0
808.606	0
808.905	0
809.204	0
809.503	0
809.802	0
810.101	0
810.399	-0
810.698	-0
810.997	-0
811.295	-0
811.593	-0
811.892	0
812.19	-0
812.488	-0
812.786	-0
813.084	0
813.383	-0
813.68	-0
813.978	-0
814.276	0
814.574	0
814.872	0.01
815.169	0
815.467	0
815.764	-0
816.062	0
816.359	0
816.656	0
816.954	0
817.251	0
817.548	0
817.845	0
818.142	-0
818.439	-0
818.735	0
819.032	0
819.329	-0.01
819.626	-0
819.922	-0
820.219	-0
820.515	-0.01
820.811	-0.01
821.108	-0.01
821.404	-0
821.7	-0
821.996	-0
822.292	-0.01
822.588	-0.01
822.884	-0
823.18	-0
823.475	-0
823.771	-0.01
824.067	-0.01
824.362	-0.01
824.658	-0
824.953	-0
825.249	-0
825.544	-0.01
825.839	-0.01
826.134	-0
826.429	-0.01
826.724	-0.01
827.019	-0.01
827.314	-0
827.609	0
827.904	-0
828.198	-0.01
828.493	-0
828.787	-0
829.082	-0
829.376	-0
829.671	-0
829.965	0
830.259	-0
830.553	0
830.847	-0.01
831.141	-0.01
831.435	-0
831.729	-0
832.023	0
832.317	0
832.61	0
832.904	-0.01
833.197	-0
833.491	-0.01
833.784	-0
834.077	-0
834.371	-0
834.664	-0
834.957	0
835.25	-0
835.543	-0
835.836	0
836.129	-0
836.421	-0
836.714	0.01
837.007	-0
837.299	-0
837.592	-0
837.884	-0
838.177	-0
838.469	-0.01
838.761	-0
839.053	-0.01
839.345	-0
839.637	-0
839.929	0
840.221	-0.01
840.513	-0
840.805	-0.01
841.096	-0.01
841.388	-0
841.68	-0
841.971	-0
842.262	-0
842.554	-0
842.845	-0
843.136	-0
843.427	-0
843.718	-0
844.009	-0
844.3	0
844.591	-0
844.882	-0
845.173	-0
845.463	0
845.754	0.01
846.044	0
846.335	0.01
846.625	0.01
846.915	0.02
847.206	0.01
847.496	0
847.786	0.01
848.076	0.01
848.366	0.01
848.656	0.01
848.945	0
849.235	0.01
849.525	0.01
849.814	0.01
850.104	0.01
850.393	0.01
850.683	0
850.972	0.01
851.261	-0.01
851.551	0
851.84	-0.01
852.129	-0.01
852.418	-0.02
852.707	-0.01
852.995	-0.01
853.284	-0
853.573	0
853.862	0
854.15	0
854.439	0
854.727	0
855.015	-0
855.304	0.02
855.592	0.01
855.88	0.01
856.168	0.01
856.456	0.01
856.744	-0.01
857.032	0.01
857.32	0
857.607	0.01
857.895	-0
858.183	0
858.47	0
858.757	0
859.045	0.01
859.332	0
859.619	-0.01
859.907	-0.01
860.194	0.01
860.481	-0
860.768	0
861.054	-0
861.341	-0.01
861.628	-0.01
861.915	-0.01
862.201	-0.01
862.488	0.01
862.774	0
863.061	0.01
863.347	-0.01
863.633	-0.01
863.919	-0.01
864.205	-0
864.491	-0.01
864.777	-0.01
865.063	-0
865.349	-0.01
865.635	0.01
865.92	0.03
866.206	0.01
866.492	0.01
866.777	0.01
867.062	0.01
867.348	0.01
867.633	0.03
867.918	0.01
868.203	0.01
868.488	0.02
868.773	0
869.058	-0.01
869.343	-0.01
869.628	-0.01
869.912	-0.01
870.197	-0.01
870.482	-0.03
870.766	-0.02
871.05	-0
871.335	0.02
871.619	-0.01
871.903	-0.01
872.187	0
872.471	-0.03
872.755	-0.01
873.039	-0
873.323	-0.03
873.607	0
873.89	0.01
874.174	0
874.458	-0.02
874.741	0.04
875.024	-0.01
875.308	0.02
875.591	-0.05
875.874	-0.03
876.157	-0.07
876.44	0.01
876.723	0.02
877.006	-0.05
877.289	-0
877.572	-0.07
877.854	-0.01
878.137	0.01
878.42	-0.06
878.702	0.02
878.984	0.03
879.267	-0.03
879.549	-0.04
879.831	-0.02
880.113	0.03
880.395	0.01
880.677	-0.07
880.959	-0.05
