Data from Rubpy_BV_1200_EDTA_Buffered_Absorbance_14-05-04-163.txt Node
Date: Wed Jul 01 14:05:04 BST 2026
User: fpm-admin
Spectrometer: OFX00224
Trigger mode: 0
Integration Time (sec): 7.000000E-2
Scans to average: 3
Nonlinearity correction enabled: false
Boxcar width: 0
Storing dark spectrum: false
XAxis mode: Wavelengths
Number of Pixels in Spectrum: 2136
>>>>>Begin Spectral Data<<<<<
154.91	-0
155.289	-0
155.669	0.02
156.048	-1.1
156.428	-0.21
156.807	-0
157.186	-0
157.566	-0
157.945	-0.39
158.325	0.05
158.704	-1.04
159.083	0.06
159.462	-0
159.842	-0.36
160.221	-0
160.6	-0
160.979	-0
161.359	-0
161.738	-0.27
162.117	0.56
162.496	-0
162.875	0.48
163.254	-0
163.633	-0.31
164.012	-0
164.391	-0.19
164.77	-0.07
165.149	-0.26
165.528	-0
165.907	-0
166.286	-0.03
166.665	-0.2
167.044	-1.11
167.423	0.1
167.802	-0.2
168.181	-0
168.559	-0
168.938	-0.52
169.317	-0.03
169.696	-0
170.074	-0
170.453	-0
170.832	-0.41
171.21	-0.35
171.589	-0
171.968	-0.04
172.346	0.2
172.725	-0
173.103	-0.42
173.482	-0.16
173.861	0.6
174.239	-0.27
174.617	-0.05
174.996	-0
175.374	-1.15
175.753	-0.21
176.131	-1.36
176.51	0.55
176.888	-0
177.266	-0
177.645	0.08
178.023	0.2
178.401	-0.18
178.779	-0
179.158	-0
179.536	-0.44
179.914	-0
180.292	-0.39
180.67	-0.16
181.048	-0
181.427	-0.6
181.805	-0.15
182.183	-0
182.561	-0
182.939	-0
183.317	0.3
183.695	-0
184.073	-0.23
184.451	-1.16
184.829	-0.01
185.206	-0.31
185.584	-0
185.962	-0
186.34	-0.43
186.718	-0
187.096	0.13
187.473	-0.66
187.851	-0.18
188.229	0.85
188.607	0.16
188.984	0.18
189.362	0.18
189.74	0.31
190.117	0.26
190.495	0.1
190.872	0.22
191.25	0.23
191.627	0.07
192.005	0.15
192.382	0.18
192.76	0.1
193.137	0.08
193.515	0.12
193.892	0.04
194.269	0.22
194.647	0.19
195.024	0.06
195.401	0.17
195.779	0.24
196.156	0.25
196.533	0.22
196.91	0.17
197.288	0.2
197.665	0.13
198.042	0.13
198.419	0.33
198.796	0.07
199.173	0.33
199.55	0.23
199.927	0.11
200.304	0.22
200.681	0.25
201.058	0.22
201.435	0.16
201.812	0.13
202.189	0.16
202.566	0.28
202.943	0.29
203.32	0.19
203.697	0.16
204.073	0.33
204.45	0.17
204.827	0.28
205.204	0.23
205.58	0.22
205.957	0.2
206.334	0.27
206.71	0.3
207.087	0.24
207.464	0.25
207.84	0.18
208.217	0.3
208.593	0.29
208.97	0.15
209.346	0.27
209.723	0.33
210.099	0.17
210.476	0.28
210.852	0.17
211.228	0.21
211.605	0.16
211.981	0.2
212.357	0.19
212.733	0.14
213.11	0.19
213.486	0.25
213.862	0.21
214.238	0.18
214.614	0.29
214.991	0.14
215.367	0.27
215.743	0.17
216.119	0.19
216.495	0.25
216.871	0.24
217.247	0.17
217.623	0.26
217.999	0.32
218.375	0.19
218.751	0.15
219.127	0.2
219.502	0.24
219.878	0.31
220.254	0.35
220.63	0.23
221.006	0.14
221.381	0.28
221.757	0.15
222.133	0.24
222.508	0.2
222.884	0.27
223.26	0.2
223.635	0.21
224.011	0.16
224.386	0.15
224.762	0.24
225.137	0.23
225.513	0.15
225.888	0.24
226.264	0.31
226.639	0.16
227.014	0.17
227.39	0.31
227.765	0.32
228.14	0.23
228.516	0.21
228.891	0.21
229.266	0.21
229.641	0.26
230.017	0.24
230.392	0.28
230.767	0.16
231.142	0.24
231.517	0.37
231.892	0.24
232.267	0.24
232.642	0.32
233.017	0.19
233.392	0.17
233.767	0.31
234.142	0.23
234.517	0.17
234.892	0.15
235.267	0.21
235.641	0.47
236.016	0.26
236.391	0.21
236.766	0.16
237.14	0.18
237.515	0.2
237.89	0.23
238.264	0.22
238.639	0.17
239.014	0.19
239.388	0.17
239.763	0.29
240.137	0.25
240.512	0.23
240.886	0.26
241.261	0.22
241.635	0.2
242.009	0.19
242.384	0.25
242.758	0.25
243.132	0.13
243.507	0.24
243.881	0.22
244.255	0.21
244.629	0.24
245.004	0.25
245.378	0.15
245.752	0.19
246.126	0.17
246.5	0.22
246.874	0.25
247.248	0.25
247.622	0.25
247.996	0.24
248.37	0.22
248.744	0.22
249.118	0.32
249.492	0.14
249.866	0.24
250.24	0.15
250.613	0.19
250.987	0.31
251.361	0.22
251.735	0.19
252.108	0.23
252.482	0.22
252.856	0.17
253.229	0.21
253.603	0.29
253.977	0.1
254.35	0.3
254.724	0.33
255.097	0.23
255.471	0.29
255.844	0.31
256.218	0.28
256.591	0.26
256.964	0.17
257.338	0.23
257.711	0.28
258.084	0.32
258.458	0.28
258.831	0.23
259.204	0.15
259.577	0.34
259.95	0.27
260.323	0.25
260.697	0.34
261.07	0.39
261.443	0.32
261.816	0.33
262.189	0.31
262.562	0.31
262.935	0.23
263.308	0.29
263.68	0.3
264.053	0.25
264.426	0.22
264.799	0.37
265.172	0.18
265.545	0.29
265.917	0.25
266.29	0.29
266.663	0.16
267.035	0.31
267.408	0.3
267.781	0.28
268.153	0.26
268.526	0.23
268.898	0.29
269.271	0.29
269.643	0.26
270.016	0.21
270.388	0.21
270.76	0.22
271.133	0.36
271.505	0.23
271.877	0.29
272.25	0.35
272.622	0.29
272.994	0.27
273.366	0.2
273.739	0.31
274.111	0.22
274.483	0.31
274.855	0.31
275.227	0.25
275.599	0.19
275.971	0.27
276.343	0.27
276.715	0.23
277.087	0.41
277.459	0.19
277.831	0.27
278.203	0.27
278.574	0.19
278.946	0.24
279.318	0.32
279.69	0.25
280.061	0.27
280.433	0.27
280.805	0.32
281.176	0.32
281.548	0.33
281.92	0.33
282.291	0.31
282.663	0.27
283.034	0.21
283.406	0.28
283.777	0.27
284.148	0.18
284.52	0.19
284.891	0.27
285.262	0.28
285.634	0.3
286.005	0.34
286.376	0.25
286.747	0.29
287.119	0.26
287.49	0.25
287.861	0.28
288.232	0.25
288.603	0.29
288.974	0.29
289.345	0.23
289.716	0.28
290.087	0.36
290.458	0.25
290.829	0.26
291.2	0.3
291.571	0.34
291.941	0.3
292.312	0.24
292.683	0.24
293.054	0.25
293.424	0.25
293.795	0.31
294.166	0.28
294.536	0.26
294.907	0.28
295.277	0.24
295.648	0.24
296.018	0.3
296.389	0.24
296.759	0.27
297.13	0.33
297.5	0.26
297.871	0.34
298.241	0.31
298.611	0.28
298.981	0.27
299.352	0.31
299.722	0.23
300.092	0.25
300.462	0.32
300.832	0.29
301.202	0.27
301.573	0.27
301.943	0.29
302.313	0.22
302.683	0.28
303.053	0.24
303.422	0.28
303.792	0.24
304.162	0.16
304.532	0.18
304.902	0.24
305.272	0.23
305.641	0.19
306.011	0.19
306.381	0.2
306.75	0.21
307.12	0.23
307.49	0.2
307.859	0.21
308.229	0.17
308.598	0.2
308.968	0.18
309.337	0.19
309.707	0.2
310.076	0.22
310.445	0.23
310.815	0.17
311.184	0.2
311.553	0.2
311.923	0.2
312.292	0.2
312.661	0.21
313.03	0.22
313.399	0.24
313.768	0.23
314.137	0.24
314.506	0.25
314.875	0.24
315.244	0.24
315.613	0.26
315.982	0.26
316.351	0.25
316.72	0.26
317.089	0.26
317.458	0.28
317.826	0.27
318.195	0.26
318.564	0.28
318.933	0.28
319.301	0.29
319.67	0.29
320.038	0.29
320.407	0.29
320.775	0.32
321.144	0.3
321.512	0.32
321.881	0.31
322.249	0.33
322.618	0.33
322.986	0.33
323.354	0.32
323.723	0.34
324.091	0.35
324.459	0.35
324.827	0.35
325.195	0.35
325.564	0.37
325.932	0.37
326.3	0.37
326.668	0.38
327.036	0.4
327.404	0.38
327.772	0.41
328.14	0.4
328.508	0.41
328.875	0.41
329.243	0.43
329.611	0.43
329.979	0.43
330.346	0.45
330.714	0.45
331.082	0.46
331.449	0.47
331.817	0.47
332.185	0.48
332.552	0.48
332.92	0.5
333.287	0.5
333.655	0.51
334.022	0.53
334.389	0.54
334.757	0.55
335.124	0.56
335.491	0.57
335.859	0.58
336.226	0.59
336.593	0.6
336.96	0.61
337.327	0.62
337.695	0.64
338.062	0.64
338.429	0.67
338.796	0.67
339.163	0.67
339.53	0.69
339.897	0.71
340.263	0.72
340.63	0.73
340.997	0.74
341.364	0.75
341.731	0.77
342.097	0.78
342.464	0.79
342.831	0.8
343.197	0.82
343.564	0.84
343.931	0.84
344.297	0.85
344.664	0.87
345.03	0.89
345.396	0.9
345.763	0.9
346.129	0.92
346.496	0.94
346.862	0.94
347.228	0.96
347.594	0.98
347.961	0.99
348.327	1.01
348.693	1.01
349.059	1.03
349.425	1.04
349.791	1.04
350.157	1.06
350.523	1.07
350.889	1.09
351.255	1.09
351.621	1.11
351.987	1.12
352.353	1.14
352.719	1.14
353.084	1.15
353.45	1.17
353.816	1.17
354.181	1.2
354.547	1.22
354.913	1.24
355.278	1.22
355.644	1.24
356.009	1.26
356.375	1.28
356.74	1.28
357.106	1.32
357.471	1.32
357.836	1.32
358.202	1.35
358.567	1.37
358.932	1.37
359.297	1.41
359.663	1.42
360.028	1.42
360.393	1.48
360.758	1.49
361.123	1.49
361.488	1.53
361.853	1.54
362.218	1.54
362.583	1.55
362.948	1.57
363.312	1.59
363.677	1.61
364.042	1.65
364.407	1.61
364.772	1.63
365.136	1.63
365.501	1.67
365.865	1.67
366.23	1.7
366.595	1.68
366.959	1.69
367.324	1.71
367.688	1.74
368.052	1.73
368.417	1.71
368.781	1.74
369.145	1.75
369.51	1.73
369.874	1.77
370.238	1.77
370.602	1.77
370.967	1.77
371.331	1.75
371.695	1.83
372.059	1.76
372.423	1.81
372.787	1.79
373.151	1.76
373.515	1.79
373.878	1.81
374.242	1.82
374.606	1.79
374.97	1.73
375.334	1.76
375.697	1.73
376.061	1.73
376.425	1.74
376.788	1.71
377.152	1.67
377.515	1.69
377.879	1.68
378.242	1.66
378.606	1.65
378.969	1.63
379.333	1.61
379.696	1.6
380.059	1.55
380.422	1.55
380.786	1.54
381.149	1.53
381.512	1.52
381.875	1.51
382.238	1.49
382.601	1.46
382.964	1.46
383.327	1.45
383.69	1.43
384.053	1.43
384.416	1.39
384.779	1.37
385.142	1.37
385.504	1.36
385.867	1.36
386.23	1.33
386.593	1.34
386.955	1.33
387.318	1.33
387.68	1.32
388.043	1.32
388.405	1.32
388.768	1.31
389.13	1.28
389.493	1.29
389.855	1.3
390.217	1.27
390.58	1.25
390.942	1.25
391.304	1.22
391.666	1.22
392.028	1.19
392.391	1.18
392.753	1.16
393.115	1.15
393.477	1.13
393.839	1.14
394.201	1.13
394.563	1.11
394.924	1.12
395.286	1.11
395.648	1.1
396.01	1.11
396.371	1.12
396.733	1.14
397.095	1.14
397.456	1.16
397.818	1.19
398.18	1.21
398.541	1.23
398.903	1.25
399.264	1.28
399.625	1.3
399.987	1.33
400.348	1.35
400.709	1.35
401.071	1.37
401.432	1.39
401.793	1.36
402.154	1.37
402.515	1.36
402.876	1.33
403.238	1.31
403.599	1.28
403.96	1.23
404.32	1.21
404.681	1.17
405.042	1.12
405.403	1.08
405.764	1.03
406.125	0.98
406.485	0.93
406.846	0.89
407.207	0.84
407.567	0.8
407.928	0.76
408.288	0.72
408.649	0.69
409.009	0.65
409.37	0.6
409.73	0.58
410.091	0.55
410.451	0.52
410.811	0.49
411.171	0.46
411.532	0.44
411.892	0.42
412.252	0.41
412.612	0.38
412.972	0.37
413.332	0.36
413.692	0.34
414.052	0.33
414.412	0.31
414.772	0.3
415.132	0.29
415.492	0.28
415.851	0.27
416.211	0.27
416.571	0.25
416.931	0.24
417.29	0.24
417.65	0.24
418.009	0.22
418.369	0.23
418.728	0.22
419.088	0.21
419.447	0.2
419.807	0.2
420.166	0.2
420.525	0.19
420.884	0.19
421.244	0.18
421.603	0.19
421.962	0.18
422.321	0.18
422.68	0.17
423.039	0.16
423.398	0.18
423.757	0.16
424.116	0.16
424.475	0.16
424.834	0.16
425.193	0.16
425.551	0.15
425.91	0.15
426.269	0.16
426.628	0.16
426.986	0.16
427.345	0.15
427.703	0.15
428.062	0.15
428.42	0.15
428.779	0.13
429.137	0.14
429.496	0.14
429.854	0.14
430.212	0.14
430.57	0.14
430.929	0.14
431.287	0.14
431.645	0.13
432.003	0.13
432.361	0.14
432.719	0.13
433.077	0.14
433.435	0.14
433.793	0.14
434.151	0.13
434.509	0.13
434.866	0.13
435.224	0.14
435.582	0.13
435.94	0.13
436.297	0.13
436.655	0.13
437.012	0.14
437.37	0.14
437.727	0.14
438.085	0.13
438.442	0.14
438.8	0.13
439.157	0.14
439.514	0.13
439.872	0.13
440.229	0.13
440.586	0.14
440.943	0.13
441.3	0.13
441.657	0.13
442.014	0.13
442.371	0.13
442.728	0.14
443.085	0.14
443.442	0.13
443.799	0.13
444.156	0.14
444.513	0.14
444.869	0.14
445.226	0.15
445.583	0.14
445.939	0.14
446.296	0.15
446.652	0.14
447.009	0.14
447.365	0.14
447.722	0.14
448.078	0.14
448.434	0.14
448.791	0.14
449.147	0.15
449.503	0.14
449.859	0.15
450.215	0.15
450.571	0.14
450.928	0.15
451.284	0.14
451.64	0.14
451.995	0.14
452.351	0.14
452.707	0.15
453.063	0.14
453.419	0.14
453.775	0.14
454.13	0.14
454.486	0.14
454.842	0.15
455.197	0.14
455.553	0.14
455.908	0.13
456.264	0.13
456.619	0.13
456.975	0.13
457.33	0.14
457.685	0.14
458.04	0.14
458.396	0.12
458.751	0.13
459.106	0.14
459.461	0.13
459.816	0.12
460.171	0.12
460.526	0.13
460.881	0.13
461.236	0.12
461.591	0.13
461.946	0.12
462.301	0.11
462.655	0.12
463.01	0.12
463.365	0.12
463.719	0.11
464.074	0.1
464.428	0.1
464.783	0.09
465.137	0.09
465.492	0.1
465.846	0.11
466.201	0.1
466.555	0.11
466.909	0.1
467.263	0.1
467.618	0.11
467.972	0.11
468.326	0.11
468.68	0.11
469.034	0.1
469.388	0.1
469.742	0.11
470.096	0.12
470.45	0.12
470.804	0.12
471.157	0.11
471.511	0.12
471.865	0.12
472.218	0.13
472.572	0.13
472.926	0.14
473.279	0.14
473.633	0.15
473.986	0.16
474.34	0.17
474.693	0.18
475.046	0.18
475.4	0.19
475.753	0.2
476.106	0.2
476.459	0.21
476.812	0.22
477.165	0.23
477.519	0.24
477.872	0.24
478.224	0.25
478.577	0.26
478.93	0.26
479.283	0.27
479.636	0.28
479.989	0.28
480.341	0.28
480.694	0.3
481.047	0.3
481.399	0.3
481.752	0.31
482.104	0.32
482.457	0.32
482.809	0.33
483.162	0.34
483.514	0.34
483.866	0.35
484.219	0.34
484.571	0.36
484.923	0.36
485.275	0.37
485.627	0.37
485.979	0.37
486.331	0.38
486.683	0.38
487.035	0.39
487.387	0.4
487.739	0.4
488.091	0.41
488.443	0.41
488.794	0.41
489.146	0.42
489.498	0.42
489.849	0.42
490.201	0.43
490.552	0.42
490.904	0.43
491.255	0.44
491.607	0.44
491.958	0.45
492.309	0.45
492.661	0.46
493.012	0.47
493.363	0.47
493.714	0.47
494.065	0.47
494.416	0.47
494.767	0.48
495.118	0.48
495.469	0.49
495.82	0.49
496.171	0.49
496.522	0.5
496.872	0.51
497.223	0.51
497.574	0.52
497.924	0.52
498.275	0.52
498.626	0.53
498.976	0.54
499.327	0.53
499.677	0.53
500.027	0.54
500.378	0.55
500.728	0.56
501.078	0.56
501.428	0.57
501.779	0.57
502.129	0.56
502.479	0.57
502.829	0.57
503.179	0.58
503.529	0.59
503.879	0.59
504.229	0.59
504.578	0.6
504.928	0.6
505.278	0.61
505.628	0.61
505.977	0.61
506.327	0.62
506.676	0.62
507.026	0.62
507.375	0.63
507.725	0.63
508.074	0.63
508.424	0.64
508.773	0.64
509.122	0.65
509.471	0.65
509.82	0.65
510.17	0.66
510.519	0.66
510.868	0.67
511.217	0.67
511.566	0.67
511.915	0.68
512.263	0.68
512.612	0.69
512.961	0.69
513.31	0.69
513.659	0.69
514.007	0.69
514.356	0.71
514.704	0.7
515.053	0.71
515.401	0.71
515.75	0.71
516.098	0.72
516.447	0.72
516.795	0.72
517.143	0.72
517.491	0.72
517.839	0.73
518.188	0.73
518.536	0.74
518.884	0.74
519.232	0.74
519.58	0.74
519.928	0.75
520.275	0.75
520.623	0.75
520.971	0.76
521.319	0.76
521.666	0.77
522.014	0.77
522.362	0.77
522.709	0.78
523.057	0.77
523.404	0.78
523.752	0.77
524.099	0.78
524.446	0.78
524.794	0.79
525.141	0.79
525.488	0.79
525.835	0.79
526.182	0.8
526.529	0.8
526.876	0.81
527.223	0.79
527.57	0.81
527.917	0.8
528.264	0.81
528.611	0.81
528.958	0.82
529.304	0.81
529.651	0.82
529.998	0.82
530.344	0.82
530.691	0.83
531.037	0.83
531.384	0.82
531.73	0.83
532.076	0.82
532.423	0.84
532.769	0.83
533.115	0.83
533.461	0.84
533.807	0.84
534.154	0.83
534.5	0.84
534.846	0.85
535.192	0.85
535.537	0.84
535.883	0.85
536.229	0.85
536.575	0.85
536.921	0.86
537.266	0.86
537.612	0.86
537.957	0.87
538.303	0.87
538.649	0.86
538.994	0.86
539.339	0.86
539.685	0.87
540.03	0.87
540.375	0.87
540.721	0.87
541.066	0.87
541.411	0.87
541.756	0.87
542.101	0.87
542.446	0.87
542.791	0.87
543.136	0.87
543.481	0.88
543.825	0.88
544.17	0.89
544.515	0.88
544.86	0.88
545.204	0.89
545.549	0.88
545.893	0.89
546.238	0.88
546.582	0.88
546.927	0.89
547.271	0.89
547.615	0.89
547.96	0.89
548.304	0.89
548.648	0.89
548.992	0.9
549.336	0.89
549.68	0.89
550.024	0.89
550.368	0.89
550.712	0.9
551.056	0.89
551.4	0.9
551.743	0.89
552.087	0.9
552.431	0.9
552.774	0.89
553.118	0.89
553.462	0.89
553.805	0.89
554.148	0.88
554.492	0.89
554.835	0.89
555.178	0.89
555.522	0.89
555.865	0.89
556.208	0.89
556.551	0.89
556.894	0.89
557.237	0.89
557.58	0.89
557.923	0.89
558.266	0.88
558.609	0.88
558.952	0.88
559.294	0.88
559.637	0.88
559.98	0.87
560.322	0.88
560.665	0.88
561.007	0.88
561.35	0.88
561.692	0.88
562.034	0.88
562.377	0.87
562.719	0.87
563.061	0.87
563.403	0.87
563.745	0.87
564.088	0.87
564.43	0.87
564.772	0.87
565.113	0.87
565.455	0.87
565.797	0.86
566.139	0.86
566.481	0.86
566.822	0.86
567.164	0.86
567.506	0.86
567.847	0.86
568.189	0.85
568.53	0.86
568.872	0.85
569.213	0.85
569.554	0.85
569.895	0.85
570.237	0.85
570.578	0.85
570.919	0.84
571.26	0.85
571.601	0.84
571.942	0.84
572.283	0.84
572.624	0.83
572.965	0.83
573.306	0.83
573.646	0.82
573.987	0.83
574.328	0.83
574.668	0.83
575.009	0.82
575.349	0.82
575.69	0.82
576.03	0.82
576.37	0.81
576.711	0.81
577.051	0.81
577.391	0.81
577.731	0.81
578.072	0.81
578.412	0.81
578.752	0.8
579.092	0.8
579.431	0.78
579.771	0.76
580.111	0.75
580.451	0.76
580.791	0.78
581.13	0.79
581.47	0.79
581.81	0.78
582.149	0.78
582.489	0.79
582.828	0.77
583.167	0.75
583.507	0.7
583.846	0.69
584.185	0.72
584.525	0.74
584.864	0.76
585.203	0.78
585.542	0.78
585.881	0.77
586.22	0.78
586.559	0.77
586.898	0.75
587.236	0.75
587.575	0.74
587.914	0.75
588.252	0.76
588.591	0.77
588.93	0.76
589.268	0.76
589.607	0.76
589.945	0.76
590.283	0.76
590.622	0.76
590.96	0.76
591.298	0.77
591.636	0.77
591.974	0.76
592.313	0.77
592.651	0.77
592.989	0.76
593.326	0.77
593.664	0.77
594.002	0.77
594.34	0.76
594.678	0.76
595.015	0.75
595.353	0.74
595.691	0.75
596.028	0.75
596.366	0.76
596.703	0.76
597.04	0.76
597.378	0.76
597.715	0.76
598.052	0.76
598.389	0.76
598.726	0.76
599.064	0.76
599.401	0.75
599.738	0.76
600.074	0.75
600.411	0.75
600.748	0.75
601.085	0.74
601.422	0.74
601.758	0.74
602.095	0.74
602.432	0.74
602.768	0.74
603.105	0.74
603.441	0.74
603.777	0.74
604.114	0.74
604.45	0.74
604.786	0.74
605.122	0.74
605.459	0.73
605.795	0.73
606.131	0.73
606.467	0.73
606.803	0.73
607.139	0.72
607.474	0.72
607.81	0.72
608.146	0.72
608.482	0.72
608.817	0.71
609.153	0.71
609.488	0.71
609.824	0.71
610.159	0.71
610.495	0.71
610.83	0.71
611.165	0.71
611.5	0.7
611.836	0.7
612.171	0.7
612.506	0.7
612.841	0.7
613.176	0.69
613.511	0.69
613.845	0.69
614.18	0.69
614.515	0.68
614.85	0.68
615.184	0.67
615.519	0.68
615.854	0.67
616.188	0.67
616.523	0.67
616.857	0.66
617.191	0.67
617.526	0.66
617.86	0.66
618.194	0.65
618.528	0.65
618.862	0.65
619.196	0.65
619.53	0.65
619.864	0.65
620.198	0.64
620.532	0.64
620.866	0.64
621.2	0.64
621.533	0.64
621.867	0.64
622.201	0.63
622.534	0.63
622.868	0.63
623.201	0.62
623.534	0.62
623.868	0.61
624.201	0.62
624.534	0.61
624.868	0.61
625.201	0.6
625.534	0.61
625.867	0.6
626.2	0.6
626.533	0.6
626.865	0.6
627.198	0.59
627.531	0.59
627.864	0.59
628.196	0.58
628.529	0.58
628.862	0.57
629.194	0.57
629.527	0.57
629.859	0.56
630.191	0.56
630.524	0.56
630.856	0.56
631.188	0.56
631.52	0.55
631.852	0.55
632.184	0.55
632.516	0.54
632.848	0.54
633.18	0.54
633.512	0.53
633.844	0.53
634.175	0.52
634.507	0.52
634.839	0.52
635.17	0.51
635.502	0.52
635.833	0.51
636.165	0.51
636.496	0.5
636.827	0.5
637.159	0.49
637.49	0.49
637.821	0.49
638.152	0.48
638.483	0.48
638.814	0.48
639.145	0.48
639.476	0.47
639.807	0.47
640.137	0.47
640.468	0.46
640.799	0.46
641.129	0.46
641.46	0.45
641.791	0.45
642.121	0.45
642.451	0.45
642.782	0.44
643.112	0.44
643.442	0.44
643.773	0.44
644.103	0.43
644.433	0.43
644.763	0.43
645.093	0.43
645.423	0.42
645.753	0.42
646.082	0.42
646.412	0.42
646.742	0.41
647.072	0.41
647.401	0.41
647.731	0.41
648.06	0.41
648.39	0.4
648.719	0.4
649.048	0.4
649.378	0.39
649.707	0.39
650.036	0.39
650.365	0.39
650.694	0.38
651.023	0.39
651.352	0.38
651.681	0.38
652.01	0.39
652.339	0.38
652.668	0.38
652.996	0.38
653.325	0.38
653.654	0.38
653.982	0.38
654.311	0.38
654.639	0.37
654.967	0.37
655.296	0.37
655.624	0.37
655.952	0.37
656.28	0.37
656.609	0.36
656.937	0.37
657.265	0.36
657.593	0.25
657.92	0.14
658.248	0.09
658.576	0.11
658.904	0.21
659.231	0.29
659.559	0.35
659.887	0.35
660.214	0.35
660.542	0.35
660.869	0.34
661.196	0.34
661.524	0.34
661.851	0.34
662.178	0.34
662.505	0.35
662.832	0.34
663.159	0.34
663.486	0.34
663.813	0.34
664.14	0.34
664.467	0.33
664.794	0.33
665.12	0.33
665.447	0.33
665.774	0.33
666.1	0.33
666.427	0.33
666.753	0.33
667.079	0.32
667.406	0.32
667.732	0.32
668.058	0.32
668.384	0.32
668.71	0.31
669.036	0.31
669.362	0.31
669.688	0.31
670.014	0.31
670.34	0.31
670.666	0.3
670.991	0.3
671.317	0.29
671.643	0.29
671.968	0.29
672.294	0.28
672.619	0.28
672.945	0.28
673.27	0.28
673.595	0.28
673.92	0.28
674.246	0.27
674.571	0.27
674.896	0.28
675.221	0.27
675.546	0.27
675.87	0.27
676.195	0.26
676.52	0.26
676.845	0.26
677.169	0.25
677.494	0.25
677.819	0.25
678.143	0.25
678.468	0.25
678.792	0.24
679.116	0.24
679.44	0.24
679.765	0.24
680.089	0.23
680.413	0.23
680.737	0.23
681.061	0.23
681.385	0.22
681.709	0.22
682.033	0.21
682.356	0.21
682.68	0.21
683.004	0.21
683.327	0.21
683.651	0.21
683.974	0.2
684.298	0.2
684.621	0.2
684.944	0.2
685.268	0.2
685.591	0.19
685.914	0.19
686.237	0.18
686.56	0.18
686.883	0.18
687.206	0.18
687.529	0.17
687.852	0.17
688.175	0.17
688.497	0.17
688.82	0.17
689.142	0.17
689.465	0.17
689.787	0.17
690.11	0.16
690.432	0.16
690.755	0.16
691.077	0.16
691.399	0.15
691.721	0.15
692.043	0.15
692.365	0.15
692.687	0.15
693.009	0.14
693.331	0.14
693.653	0.14
693.974	0.14
694.296	0.14
694.618	0.14
694.939	0.13
695.261	0.13
695.582	0.13
695.904	0.13
696.225	0.13
696.546	0.13
696.868	0.13
697.189	0.13
697.51	0.12
697.831	0.12
698.152	0.12
698.473	0.12
698.794	0.11
699.114	0.11
699.435	0.09
699.756	0.1
700.077	0.11
700.397	0.11
700.718	0.11
701.038	0.11
701.359	0.11
701.679	0.11
701.999	0.11
702.32	0.11
702.64	0.11
702.96	0.11
703.28	0.11
703.6	0.11
703.92	0.1
704.24	0.1
704.56	0.09
704.879	0.09
705.199	0.1
705.519	0.1
705.838	0.1
706.158	0.1
706.478	0.1
706.797	0.1
707.116	0.1
707.436	0.1
707.755	0.1
708.074	0.1
708.393	0.09
708.712	0.09
709.031	0.07
709.35	0.07
709.669	0.07
709.988	0.07
710.307	0.08
710.626	0.08
710.944	0.09
711.263	0.09
711.582	0.09
711.9	0.09
712.219	0.08
712.537	0.09
712.855	0.09
713.174	0.09
713.492	0.09
713.81	0.09
714.128	0.09
714.446	0.09
714.764	0.09
715.082	0.08
715.4	0.08
715.718	0.08
716.035	0.08
716.353	0.08
716.671	0.08
716.988	0.08
717.306	0.08
717.623	0.09
717.941	0.09
718.258	0.09
718.575	0.1
718.893	0.1
719.21	0.09
719.527	0.09
719.844	0.09
720.161	0.09
720.478	0.09
720.795	0.09
721.112	0.09
721.428	0.09
721.745	0.09
722.062	0.09
722.378	0.1
722.695	0.09
723.011	0.09
723.328	0.09
723.644	0.1
723.96	0.1
724.276	0.1
724.593	0.1
724.909	0.1
725.225	0.1
725.541	0.1
725.857	0.1
726.173	0.1
726.488	0.11
726.804	0.1
727.12	0.1
727.435	0.1
727.751	0.1
728.067	0.1
728.382	0.11
728.697	0.1
729.013	0.11
729.328	0.1
729.643	0.11
729.958	0.11
730.273	0.11
730.588	0.1
730.903	0.1
731.218	0.1
731.533	0.1
731.848	0.1
732.163	0.1
732.477	0.1
732.792	0.1
733.107	0.09
733.421	0.09
733.736	0.1
734.05	0.1
734.364	0.09
734.678	0.1
734.993	0.09
735.307	0.09
735.621	0.09
735.935	0.09
736.249	0.09
736.563	0.09
736.877	0.09
737.19	0.1
737.504	0.09
737.818	0.09
738.131	0.09
738.445	0.1
738.758	0.09
739.072	0.09
739.385	0.09
739.698	0.09
740.012	0.09
740.325	0.09
740.638	0.09
740.951	0.09
741.264	0.09
741.577	0.09
741.89	0.09
742.203	0.09
742.515	0.09
742.828	0.09
743.141	0.09
743.453	0.08
743.766	0.08
744.078	0.08
744.391	0.08
744.703	0.08
745.015	0.08
745.327	0.08
745.639	0.08
745.952	0.08
746.264	0.08
746.575	0.08
746.887	0.07
747.199	0.07
747.511	0.07
747.823	0.07
748.134	0.07
748.446	0.07
748.757	0.07
749.069	0.07
749.38	0.07
749.692	0.07
750.003	0.07
750.314	0.06
750.625	0.07
750.936	0.06
751.248	0.06
751.559	0.07
751.869	0.06
752.18	0.06
752.491	0.06
752.802	0.07
753.112	0.06
753.423	0.06
753.734	0.07
754.044	0.06
754.355	0.06
754.665	0.06
754.975	0.06
755.285	0.06
755.596	0.06
755.906	0.06
756.216	0.06
756.526	0.05
756.836	0.05
757.146	0.05
757.455	0.05
757.765	0.06
758.075	0.05
758.385	0.05
758.694	0.05
759.004	0.05
759.313	0.05
759.622	0.05
759.932	0.05
760.241	0.05
760.55	0.05
760.859	0.04
761.168	0.05
761.477	0.04
761.786	0.04
762.095	0.04
762.404	0.04
762.713	0.04
763.021	0.04
763.33	0.04
763.639	0.05
763.947	0.04
764.256	0.04
764.564	0.04
764.872	0.04
765.181	0.04
765.489	0.04
765.797	0.04
766.105	0.04
766.413	0.04
766.721	0.04
767.029	0.04
767.337	0.04
767.644	0.04
767.952	0.05
768.26	0.05
768.567	0.05
768.875	0.05
769.182	0.04
769.49	0.04
769.797	0.04
770.104	0.04
770.411	0.04
770.718	0.04
771.026	0.04
771.333	0.04
771.639	0.04
771.946	0.04
772.253	0.04
772.56	0.04
772.867	0.04
773.173	0.04
773.48	0.04
773.786	0.05
774.093	0.05
774.399	0.05
774.705	0.05
775.012	0.05
775.318	0.05
775.624	0.05
775.93	0.05
776.236	0.05
776.542	0.05
776.848	0.05
777.154	0.05
777.459	0.05
777.765	0.05
778.071	0.05
778.376	0.05
778.682	0.05
778.987	0.05
779.292	0.05
779.598	0.05
779.903	0.05
780.208	0.05
780.513	0.05
780.818	0.05
781.123	0.05
781.428	0.05
781.733	0.05
782.038	0.05
782.343	0.05
782.647	0.05
782.952	0.05
783.256	0.05
783.561	0.05
783.865	0.05
784.17	0.05
784.474	0.05
784.778	0.05
785.082	0.05
785.386	0.06
785.69	0.05
785.994	0.06
786.298	0.06
786.602	0.05
786.906	0.05
787.209	0.06
787.513	0.06
787.817	0.06
788.12	0.05
788.424	0.05
788.727	0.06
789.03	0.05
789.333	0.06
789.637	0.06
789.94	0.06
790.243	0.06
790.546	0.06
790.849	0.06
791.152	0.06
791.454	0.06
791.757	0.06
792.06	0.06
792.362	0.06
792.665	0.06
792.967	0.06
793.27	0.06
793.572	0.06
793.874	0.06
794.177	0.06
794.479	0.06
794.781	0.06
795.083	0.06
795.385	0.06
795.687	0.06
795.989	0.06
796.29	0.06
796.592	0.06
796.894	0.06
797.195	0.06
797.497	0.06
797.798	0.06
798.1	0.06
798.401	0.06
798.702	0.06
799.003	0.06
799.304	0.06
799.605	0.05
799.906	0.06
800.207	0.05
800.508	0.06
800.809	0.05
801.11	0.06
801.41	0.05
801.711	0.06
802.011	0.06
802.312	0.06
802.612	0.06
802.913	0.07
803.213	0.07
803.513	0.07
803.813	0.07
804.113	0.07
804.413	0.08
804.713	0.07
805.013	0.07
805.313	0.07
805.613	0.08
805.912	0.07
806.212	0.07
806.511	0.07
806.811	0.07
807.11	0.07
807.41	0.07
807.709	0.07
808.008	0.07
808.307	0.07
808.606	0.07
808.905	0.07
809.204	0.07
809.503	0.08
809.802	0.07
810.101	0.07
810.399	0.08
810.698	0.08
810.997	0.08
811.295	0.08
811.593	0.08
811.892	0.08
812.19	0.08
812.488	0.08
812.786	0.08
813.084	0.08
813.383	0.08
813.68	0.08
813.978	0.08
814.276	0.08
814.574	0.08
814.872	0.09
815.169	0.08
815.467	0.09
815.764	0.08
816.062	0.08
816.359	0.09
816.656	0.09
816.954	0.09
817.251	0.09
817.548	0.09
817.845	0.08
818.142	0.09
818.439	0.08
818.735	0.09
819.032	0.09
819.329	0.09
819.626	0.09
819.922	0.09
820.219	0.09
820.515	0.09
820.811	0.08
821.108	0.09
821.404	0.09
821.7	0.09
821.996	0.09
822.292	0.09
822.588	0.09
822.884	0.09
823.18	0.09
823.475	0.09
823.771	0.09
824.067	0.09
824.362	0.09
824.658	0.1
824.953	0.1
825.249	0.09
825.544	0.09
825.839	0.09
826.134	0.09
826.429	0.09
826.724	0.09
827.019	0.09
827.314	0.1
827.609	0.1
827.904	0.1
828.198	0.1
828.493	0.1
828.787	0.1
829.082	0.1
829.376	0.1
829.671	0.1
829.965	0.1
830.259	0.11
830.553	0.11
830.847	0.1
831.141	0.11
831.435	0.11
831.729	0.11
832.023	0.11
832.317	0.11
832.61	0.11
832.904	0.1
833.197	0.11
833.491	0.1
833.784	0.1
834.077	0.11
834.371	0.11
834.664	0.11
834.957	0.11
835.25	0.11
835.543	0.11
835.836	0.11
836.129	0.11
836.421	0.12
836.714	0.12
837.007	0.11
837.299	0.11
837.592	0.11
837.884	0.11
838.177	0.11
838.469	0.11
838.761	0.12
839.053	0.11
839.345	0.12
839.637	0.12
839.929	0.12
840.221	0.12
840.513	0.11
840.805	0.11
841.096	0.11
841.388	0.12
841.68	0.12
841.971	0.11
842.262	0.12
842.554	0.11
842.845	0.11
843.136	0.12
843.427	0.12
843.718	0.13
844.009	0.12
844.3	0.12
844.591	0.12
844.882	0.12
845.173	0.12
845.463	0.12
845.754	0.12
846.044	0.12
846.335	0.12
846.625	0.12
846.915	0.14
847.206	0.13
847.496	0.13
847.786	0.13
848.076	0.14
848.366	0.13
848.656	0.14
848.945	0.13
849.235	0.12
849.525	0.14
849.814	0.14
850.104	0.14
850.393	0.14
850.683	0.13
850.972	0.14
851.261	0.12
851.551	0.13
851.84	0.13
852.129	0.13
852.418	0.12
852.707	0.13
852.995	0.14
853.284	0.14
853.573	0.14
853.862	0.13
854.15	0.14
854.439	0.13
854.727	0.14
855.015	0.14
855.304	0.14
855.592	0.15
855.88	0.14
856.168	0.15
856.456	0.15
856.744	0.13
857.032	0.14
857.32	0.15
857.607	0.14
857.895	0.14
858.183	0.15
858.47	0.14
858.757	0.14
859.045	0.15
859.332	0.15
859.619	0.14
859.907	0.15
860.194	0.15
860.481	0.15
860.768	0.12
861.054	0.15
861.341	0.14
861.628	0.16
861.915	0.13
862.201	0.15
862.488	0.15
862.774	0.14
863.061	0.15
863.347	0.15
863.633	0.14
863.919	0.13
864.205	0.15
864.491	0.13
864.777	0.14
865.063	0.14
865.349	0.15
865.635	0.16
865.92	0.18
866.206	0.17
866.492	0.15
866.777	0.13
867.062	0.13
867.348	0.14
867.633	0.18
867.918	0.12
868.203	0.15
868.488	0.16
868.773	0.14
869.058	0.17
869.343	0.15
869.628	0.17
869.912	0.12
870.197	0.13
870.482	0.13
870.766	0.13
871.05	0.13
871.335	0.14
871.619	0.1
871.903	0.14
872.187	0.13
872.471	0.1
872.755	0.13
873.039	0.1
873.323	0.13
873.607	0.08
873.89	0.16
874.174	0.12
874.458	0.07
874.741	0.17
875.024	0.13
875.308	0.09
875.591	0.09
875.874	0.12
876.157	0.1
876.44	0.12
876.723	0.14
877.006	0.1
877.289	0.09
877.572	0.06
877.854	0.12
878.137	0.19
878.42	0.09
878.702	0.19
878.984	0.12
879.267	0.12
879.549	0.07
879.831	0.03
880.113	0.08
880.395	0.16
880.677	-0.06
880.959	0.08
