Data from Rubpy_BV_1200_EDTA_Buffered_Absorbance_13-44-12-134.txt Node
Date: Wed Jul 01 13:44:12 BST 2026
User: fpm-admin
Spectrometer: OFX00224
Trigger mode: 0
Integration Time (sec): 7.000000E-2
Scans to average: 3
Nonlinearity correction enabled: false
Boxcar width: 0
Storing dark spectrum: false
XAxis mode: Wavelengths
Number of Pixels in Spectrum: 2136
>>>>>Begin Spectral Data<<<<<
154.91	-0
155.289	-0
155.669	-0.03
156.048	-0.73
156.428	-0
156.807	-0.11
157.186	-0
157.566	-0
157.945	0.1
158.325	-0.05
158.704	-0.95
159.083	0.09
159.462	-0
159.842	-0.36
160.221	-0
160.6	1.8
160.979	-0
161.359	-0
161.738	-0.16
162.117	-0
162.496	0.37
162.875	-0.12
163.254	-0
163.633	-0.41
164.012	-1
164.391	0.37
164.77	0.03
165.149	0.02
165.528	-0
165.907	-0
166.286	0.16
166.665	-0.11
167.044	-1.06
167.423	0.01
167.802	-0.62
168.181	-0
168.559	0.95
168.938	-0.12
169.317	0.01
169.696	-0
170.074	-0
170.453	-0
170.832	0.39
171.21	-0.24
171.589	-0
171.968	0.4
172.346	0.11
172.725	-0
173.103	-0.33
173.482	-0.04
173.861	-0.56
174.239	-0.43
174.617	0.06
174.996	0.44
175.374	-0
175.753	-0.1
176.131	-1.38
176.51	0.34
176.888	-0
177.266	-0
177.645	0.15
178.023	0.53
178.401	-0.16
178.779	1.6
179.158	-0
179.536	-0
179.914	-0
180.292	-0.07
180.67	-0
181.048	0.94
181.427	-0.45
181.805	0.3
182.183	0.41
182.561	-0
182.939	0.36
183.317	-0
183.695	-0.2
184.073	-0
184.451	-1.18
184.829	-0.15
185.206	-0.02
185.584	-0
185.962	-0
186.34	-0.92
186.718	-0
187.096	0.36
187.473	-0.48
187.851	-0.2
188.229	-0.54
188.607	0
188.984	0.24
189.362	0.12
189.74	0.05
190.117	0.2
190.495	0.07
190.872	0.11
191.25	0.19
191.627	0.07
192.005	0.07
192.382	0.13
192.76	0.07
193.137	0.11
193.515	0.14
193.892	0.09
194.269	0.16
194.647	0.26
195.024	0.12
195.401	0.07
195.779	0.1
196.156	0.11
196.533	0.1
196.91	0.17
197.288	0.1
197.665	0.21
198.042	0.14
198.419	0.1
198.796	0.03
199.173	0.08
199.55	0.17
199.927	0.12
200.304	0.14
200.681	0.16
201.058	0.15
201.435	0.01
201.812	0.11
202.189	0.12
202.566	0.1
202.943	0.15
203.32	0.1
203.697	0.05
204.073	0.15
204.45	0.13
204.827	0.19
205.204	0.18
205.58	0.06
205.957	0.09
206.334	0.19
206.71	0.14
207.087	0.28
207.464	0.08
207.84	0.11
208.217	0.11
208.593	0.29
208.97	0.03
209.346	0.15
209.723	0.12
210.099	0.1
210.476	0.1
210.852	0.07
211.228	0.11
211.605	0.07
211.981	0.2
212.357	0.11
212.733	0.07
213.11	0.09
213.486	0.21
213.862	0.1
214.238	0.11
214.614	0.12
214.991	0.13
215.367	0.14
215.743	0.12
216.119	0.13
216.495	0.16
216.871	0.24
217.247	0.11
217.623	0.19
217.999	0.19
218.375	0.15
218.751	0.06
219.127	0.22
219.502	0.17
219.878	0.12
220.254	0.24
220.63	0.19
221.006	0.06
221.381	0.21
221.757	0.13
222.133	0.14
222.508	0.14
222.884	0.16
223.26	0.11
223.635	0.1
224.011	0.01
224.386	0.1
224.762	0.16
225.137	0.19
225.513	0.17
225.888	0.17
226.264	0.16
226.639	0.09
227.014	0.15
227.39	0.2
227.765	0.2
228.14	0.28
228.516	0.1
228.891	0.14
229.266	0.15
229.641	0.2
230.017	0.12
230.392	0.31
230.767	0.11
231.142	0.14
231.517	0.18
231.892	0.04
232.267	0.1
232.642	0.21
233.017	0.12
233.392	0.1
233.767	0.15
234.142	0.19
234.517	0.09
234.892	0.09
235.267	0.19
235.641	0.23
236.016	0.17
236.391	0.16
236.766	0.13
237.14	0.14
237.515	0.17
237.89	0.17
238.264	0.11
238.639	0.08
239.014	0.07
239.388	0.21
239.763	0.17
240.137	0.17
240.512	0.14
240.886	0.17
241.261	0.21
241.635	0.13
242.009	0.11
242.384	0.15
242.758	0.18
243.132	0.12
243.507	0.2
243.881	0.16
244.255	0.18
244.629	0.15
245.004	0.11
245.378	0.11
245.752	0.13
246.126	0.1
246.5	0.24
246.874	0.13
247.248	0.17
247.622	0.02
247.996	0.1
248.37	0.2
248.744	0.16
249.118	0.3
249.492	0.12
249.866	0.16
250.24	0.1
250.613	0.16
250.987	0.14
251.361	0.19
251.735	0.13
252.108	0.12
252.482	0.08
252.856	0.13
253.229	0.16
253.603	0.18
253.977	0.03
254.35	0.14
254.724	0.2
255.097	0.17
255.471	0.27
255.844	0.16
256.218	0.23
256.591	0.12
256.964	0.21
257.338	0.25
257.711	0.2
258.084	0.13
258.458	0.18
258.831	0.21
259.204	0.12
259.577	0.2
259.95	0.24
260.323	0.16
260.697	0.25
261.07	0.27
261.443	0.23
261.816	0.14
262.189	0.12
262.562	0.23
262.935	0.11
263.308	0.19
263.68	0.21
264.053	0.21
264.426	0.14
264.799	0.19
265.172	0.1
265.545	0.16
265.917	0.13
266.29	0.26
266.663	0.12
267.035	0.16
267.408	0.21
267.781	0.13
268.153	0.15
268.526	0.1
268.898	0.18
269.271	0.16
269.643	0.15
270.016	0.18
270.388	0.14
270.76	0.13
271.133	0.16
271.505	0.17
271.877	0.16
272.25	0.22
272.622	0.24
272.994	0.23
273.366	0.1
273.739	0.19
274.111	0.12
274.483	0.18
274.855	0.16
275.227	0.14
275.599	0.11
275.971	0.11
276.343	0.13
276.715	0.16
277.087	0.25
277.459	0.16
277.831	0.14
278.203	0.21
278.574	0.14
278.946	0.21
279.318	0.13
279.69	0.19
280.061	0.17
280.433	0.16
280.805	0.18
281.176	0.18
281.548	0.16
281.92	0.17
282.291	0.19
282.663	0.18
283.034	0.18
283.406	0.21
283.777	0.2
284.148	0.1
284.52	0.14
284.891	0.29
285.262	0.17
285.634	0.18
286.005	0.23
286.376	0.15
286.747	0.18
287.119	0.17
287.49	0.18
287.861	0.17
288.232	0.14
288.603	0.14
288.974	0.14
289.345	0.1
289.716	0.17
290.087	0.22
290.458	0.18
290.829	0.25
291.2	0.21
291.571	0.22
291.941	0.26
292.312	0.17
292.683	0.14
293.054	0.12
293.424	0.23
293.795	0.15
294.166	0.19
294.536	0.17
294.907	0.17
295.277	0.16
295.648	0.21
296.018	0.2
296.389	0.09
296.759	0.12
297.13	0.18
297.5	0.2
297.871	0.22
298.241	0.15
298.611	0.19
298.981	0.26
299.352	0.19
299.722	0.15
300.092	0.19
300.462	0.3
300.832	0.16
301.202	0.18
301.573	0.21
301.943	0.17
302.313	0.09
302.683	0.15
303.053	0.15
303.422	0.17
303.792	0.19
304.162	0.13
304.532	0.14
304.902	0.14
305.272	0.16
305.641	0.13
306.011	0.14
306.381	0.11
306.75	0.13
307.12	0.16
307.49	0.12
307.859	0.12
308.229	0.11
308.598	0.13
308.968	0.11
309.337	0.11
309.707	0.14
310.076	0.11
310.445	0.12
310.815	0.12
311.184	0.1
311.553	0.13
311.923	0.11
312.292	0.12
312.661	0.12
313.03	0.12
313.399	0.14
313.768	0.13
314.137	0.13
314.506	0.15
314.875	0.14
315.244	0.14
315.613	0.15
315.982	0.15
316.351	0.13
316.72	0.13
317.089	0.14
317.458	0.15
317.826	0.15
318.195	0.14
318.564	0.15
318.933	0.16
319.301	0.16
319.67	0.16
320.038	0.17
320.407	0.15
320.775	0.17
321.144	0.17
321.512	0.17
321.881	0.18
322.249	0.18
322.618	0.18
322.986	0.18
323.354	0.18
323.723	0.17
324.091	0.18
324.459	0.19
324.827	0.19
325.195	0.18
325.564	0.2
325.932	0.2
326.3	0.19
326.668	0.19
327.036	0.21
327.404	0.2
327.772	0.22
328.14	0.22
328.508	0.22
328.875	0.22
329.243	0.23
329.611	0.23
329.979	0.22
330.346	0.23
330.714	0.23
331.082	0.24
331.449	0.24
331.817	0.25
332.185	0.25
332.552	0.26
332.92	0.27
333.287	0.26
333.655	0.27
334.022	0.28
334.389	0.28
334.757	0.28
335.124	0.29
335.491	0.29
335.859	0.3
336.226	0.3
336.593	0.31
336.96	0.32
337.327	0.32
337.695	0.33
338.062	0.33
338.429	0.34
338.796	0.34
339.163	0.35
339.53	0.35
339.897	0.36
340.263	0.37
340.63	0.37
340.997	0.38
341.364	0.39
341.731	0.4
342.097	0.4
342.464	0.41
342.831	0.41
343.197	0.42
343.564	0.43
343.931	0.44
344.297	0.44
344.664	0.45
345.03	0.46
345.396	0.46
345.763	0.47
346.129	0.48
346.496	0.48
346.862	0.49
347.228	0.5
347.594	0.5
347.961	0.51
348.327	0.52
348.693	0.52
349.059	0.52
349.425	0.54
349.791	0.54
350.157	0.55
350.523	0.55
350.889	0.57
351.255	0.57
351.621	0.58
351.987	0.58
352.353	0.59
352.719	0.6
353.084	0.6
353.45	0.61
353.816	0.61
354.181	0.62
354.547	0.63
354.913	0.64
355.278	0.64
355.644	0.66
356.009	0.66
356.375	0.67
356.74	0.67
357.106	0.69
357.471	0.69
357.836	0.71
358.202	0.72
358.567	0.73
358.932	0.73
359.297	0.74
359.663	0.76
360.028	0.76
360.393	0.77
360.758	0.78
361.123	0.8
361.488	0.82
361.853	0.82
362.218	0.83
362.583	0.84
362.948	0.86
363.312	0.86
363.677	0.87
364.042	0.89
364.407	0.89
364.772	0.9
365.136	0.91
365.501	0.91
365.865	0.92
366.23	0.93
366.595	0.94
366.959	0.95
367.324	0.95
367.688	0.97
368.052	0.98
368.417	0.97
368.781	0.98
369.145	1
369.51	1.01
369.874	1.01
370.238	1.02
370.602	1.02
370.967	1.04
371.331	1.04
371.695	1.04
372.059	1.04
372.423	1.04
372.787	1.04
373.151	1.05
373.515	1.03
373.878	1.05
374.242	1.04
374.606	1.02
374.97	1.02
375.334	1.01
375.697	1.01
376.061	0.99
376.425	0.99
376.788	0.98
377.152	0.98
377.515	0.96
377.879	0.95
378.242	0.94
378.606	0.93
378.969	0.92
379.333	0.92
379.696	0.91
380.059	0.89
380.422	0.89
380.786	0.88
381.149	0.87
381.512	0.85
381.875	0.85
382.238	0.84
382.601	0.83
382.964	0.83
383.327	0.81
383.69	0.81
384.053	0.81
384.416	0.78
384.779	0.79
385.142	0.78
385.504	0.79
385.867	0.78
386.23	0.78
386.593	0.78
386.955	0.77
387.318	0.77
387.68	0.77
388.043	0.78
388.405	0.78
388.768	0.78
389.13	0.78
389.493	0.77
389.855	0.77
390.217	0.77
390.58	0.76
390.942	0.75
391.304	0.75
391.666	0.74
392.028	0.73
392.391	0.72
392.753	0.71
393.115	0.7
393.477	0.7
393.839	0.69
394.201	0.69
394.563	0.68
394.924	0.68
395.286	0.69
395.648	0.68
396.01	0.69
396.371	0.69
396.733	0.71
397.095	0.72
397.456	0.73
397.818	0.75
398.18	0.77
398.541	0.79
398.903	0.81
399.264	0.83
399.625	0.85
399.987	0.87
400.348	0.88
400.709	0.89
401.071	0.9
401.432	0.91
401.793	0.9
402.154	0.9
402.515	0.88
402.876	0.88
403.238	0.85
403.599	0.85
403.96	0.81
404.32	0.79
404.681	0.76
405.042	0.72
405.403	0.7
405.764	0.66
406.125	0.63
406.485	0.59
406.846	0.57
407.207	0.53
407.567	0.51
407.928	0.47
408.288	0.46
408.649	0.42
409.009	0.4
409.37	0.38
409.73	0.36
410.091	0.34
410.451	0.33
410.811	0.31
411.171	0.29
411.532	0.27
411.892	0.26
412.252	0.25
412.612	0.24
412.972	0.23
413.332	0.21
413.692	0.2
414.052	0.2
414.412	0.19
414.772	0.18
415.132	0.17
415.492	0.17
415.851	0.16
416.211	0.16
416.571	0.15
416.931	0.15
417.29	0.14
417.65	0.14
418.009	0.14
418.369	0.14
418.728	0.13
419.088	0.13
419.447	0.12
419.807	0.12
420.166	0.12
420.525	0.11
420.884	0.11
421.244	0.11
421.603	0.11
421.962	0.1
422.321	0.1
422.68	0.1
423.039	0.1
423.398	0.1
423.757	0.09
424.116	0.09
424.475	0.09
424.834	0.1
425.193	0.09
425.551	0.09
425.91	0.09
426.269	0.09
426.628	0.09
426.986	0.08
427.345	0.09
427.703	0.09
428.062	0.09
428.42	0.08
428.779	0.08
429.137	0.08
429.496	0.09
429.854	0.08
430.212	0.08
430.57	0.08
430.929	0.08
431.287	0.08
431.645	0.08
432.003	0.08
432.361	0.08
432.719	0.08
433.077	0.08
433.435	0.08
433.793	0.08
434.151	0.07
434.509	0.08
434.866	0.08
435.224	0.07
435.582	0.08
435.94	0.07
436.297	0.08
436.655	0.07
437.012	0.08
437.37	0.08
437.727	0.08
438.085	0.07
438.442	0.07
438.8	0.07
439.157	0.07
439.514	0.07
439.872	0.07
440.229	0.08
440.586	0.07
440.943	0.07
441.3	0.07
441.657	0.07
442.014	0.07
442.371	0.07
442.728	0.07
443.085	0.08
443.442	0.07
443.799	0.07
444.156	0.07
444.513	0.07
444.869	0.07
445.226	0.08
445.583	0.07
445.939	0.07
446.296	0.08
446.652	0.08
447.009	0.07
447.365	0.07
447.722	0.07
448.078	0.07
448.434	0.08
448.791	0.07
449.147	0.07
449.503	0.07
449.859	0.08
450.215	0.07
450.571	0.06
450.928	0.07
451.284	0.07
451.64	0.07
451.995	0.07
452.351	0.06
452.707	0.08
453.063	0.07
453.419	0.06
453.775	0.07
454.13	0.06
454.486	0.07
454.842	0.07
455.197	0.07
455.553	0.07
455.908	0.06
456.264	0.05
456.619	0.05
456.975	0.05
457.33	0.06
457.685	0.05
458.04	0.05
458.396	0.05
458.751	0.06
459.106	0.05
459.461	0.04
459.816	0.04
460.171	0.04
460.526	0.05
460.881	0.04
461.236	0.04
461.591	0.04
461.946	0.04
462.301	0.03
462.655	0.03
463.01	0.04
463.365	0.03
463.719	0.03
464.074	0.02
464.428	0.01
464.783	0.01
465.137	0
465.492	0.02
465.846	0.02
466.201	0.01
466.555	0.02
466.909	0.02
467.263	0.02
467.618	0.02
467.972	0.02
468.326	0.02
468.68	0.01
469.034	0.02
469.388	0.01
469.742	0.02
470.096	0.02
470.45	0.02
470.804	0.02
471.157	0.03
471.511	0.02
471.865	0.02
472.218	0.03
472.572	0.03
472.926	0.03
473.279	0.04
473.633	0.04
473.986	0.05
474.34	0.06
474.693	0.06
475.046	0.07
475.4	0.07
475.753	0.08
476.106	0.08
476.459	0.08
476.812	0.09
477.165	0.1
477.519	0.1
477.872	0.11
478.224	0.11
478.577	0.11
478.93	0.11
479.283	0.12
479.636	0.13
479.989	0.13
480.341	0.13
480.694	0.14
481.047	0.14
481.399	0.15
481.752	0.15
482.104	0.15
482.457	0.16
482.809	0.16
483.162	0.16
483.514	0.17
483.866	0.16
484.219	0.17
484.571	0.17
484.923	0.17
485.275	0.18
485.627	0.18
485.979	0.18
486.331	0.19
486.683	0.19
487.035	0.19
487.387	0.2
487.739	0.2
488.091	0.2
488.443	0.21
488.794	0.21
489.146	0.21
489.498	0.21
489.849	0.21
490.201	0.21
490.552	0.21
490.904	0.22
491.255	0.22
491.607	0.22
491.958	0.22
492.309	0.23
492.661	0.23
493.012	0.23
493.363	0.23
493.714	0.23
494.065	0.24
494.416	0.24
494.767	0.24
495.118	0.25
495.469	0.25
495.82	0.25
496.171	0.25
496.522	0.25
496.872	0.26
497.223	0.26
497.574	0.26
497.924	0.26
498.275	0.27
498.626	0.27
498.976	0.27
499.327	0.27
499.677	0.27
500.027	0.28
500.378	0.28
500.728	0.28
501.078	0.28
501.428	0.29
501.779	0.29
502.129	0.29
502.479	0.29
502.829	0.29
503.179	0.3
503.529	0.3
503.879	0.3
504.229	0.29
504.578	0.31
504.928	0.3
505.278	0.31
505.628	0.31
505.977	0.32
506.327	0.31
506.676	0.32
507.026	0.32
507.375	0.32
507.725	0.32
508.074	0.32
508.424	0.33
508.773	0.33
509.122	0.33
509.471	0.33
509.82	0.33
510.17	0.34
510.519	0.34
510.868	0.34
511.217	0.35
511.566	0.34
511.915	0.34
512.263	0.35
512.612	0.35
512.961	0.35
513.31	0.36
513.659	0.36
514.007	0.36
514.356	0.37
514.704	0.36
515.053	0.37
515.401	0.36
515.75	0.36
516.098	0.37
516.447	0.37
516.795	0.37
517.143	0.37
517.491	0.37
517.839	0.37
518.188	0.38
518.536	0.38
518.884	0.38
519.232	0.38
519.58	0.38
519.928	0.39
520.275	0.39
520.623	0.39
520.971	0.4
521.319	0.4
521.666	0.39
522.014	0.4
522.362	0.4
522.709	0.4
523.057	0.4
523.404	0.4
523.752	0.4
524.099	0.4
524.446	0.41
524.794	0.41
525.141	0.41
525.488	0.41
525.835	0.41
526.182	0.41
526.529	0.41
526.876	0.42
527.223	0.42
527.57	0.42
527.917	0.42
528.264	0.42
528.611	0.42
528.958	0.42
529.304	0.42
529.651	0.42
529.998	0.43
530.344	0.43
530.691	0.43
531.037	0.43
531.384	0.43
531.73	0.43
532.076	0.43
532.423	0.44
532.769	0.43
533.115	0.44
533.461	0.44
533.807	0.43
534.154	0.44
534.5	0.44
534.846	0.44
535.192	0.44
535.537	0.44
535.883	0.45
536.229	0.45
536.575	0.45
536.921	0.45
537.266	0.45
537.612	0.45
537.957	0.45
538.303	0.45
538.649	0.45
538.994	0.45
539.339	0.45
539.685	0.46
540.03	0.46
540.375	0.46
540.721	0.46
541.066	0.46
541.411	0.46
541.756	0.46
542.101	0.46
542.446	0.47
542.791	0.46
543.136	0.46
543.481	0.46
543.825	0.47
544.17	0.47
544.515	0.46
544.86	0.47
545.204	0.47
545.549	0.47
545.893	0.47
546.238	0.47
546.582	0.47
546.927	0.47
547.271	0.47
547.615	0.48
547.96	0.47
548.304	0.48
548.648	0.48
548.992	0.48
549.336	0.47
549.68	0.48
550.024	0.48
550.368	0.47
550.712	0.48
551.056	0.48
551.4	0.48
551.743	0.48
552.087	0.48
552.431	0.48
552.774	0.48
553.118	0.48
553.462	0.48
553.805	0.48
554.148	0.48
554.492	0.48
554.835	0.48
555.178	0.48
555.522	0.48
555.865	0.48
556.208	0.48
556.551	0.48
556.894	0.48
557.237	0.48
557.58	0.48
557.923	0.48
558.266	0.48
558.609	0.48
558.952	0.48
559.294	0.48
559.637	0.47
559.98	0.47
560.322	0.48
560.665	0.48
561.007	0.47
561.35	0.48
561.692	0.47
562.034	0.48
562.377	0.47
562.719	0.47
563.061	0.48
563.403	0.48
563.745	0.47
564.088	0.47
564.43	0.47
564.772	0.48
565.113	0.47
565.455	0.47
565.797	0.47
566.139	0.47
566.481	0.47
566.822	0.47
567.164	0.46
567.506	0.47
567.847	0.47
568.189	0.47
568.53	0.47
568.872	0.47
569.213	0.47
569.554	0.47
569.895	0.47
570.237	0.46
570.578	0.47
570.919	0.46
571.26	0.46
571.601	0.46
571.942	0.46
572.283	0.46
572.624	0.45
572.965	0.45
573.306	0.45
573.646	0.45
573.987	0.45
574.328	0.45
574.668	0.45
575.009	0.45
575.349	0.45
575.69	0.45
576.03	0.45
576.37	0.44
576.711	0.44
577.051	0.44
577.391	0.44
577.731	0.45
578.072	0.44
578.412	0.44
578.752	0.44
579.092	0.44
579.431	0.42
579.771	0.4
580.111	0.39
580.451	0.4
580.791	0.43
581.13	0.43
581.47	0.43
581.81	0.43
582.149	0.43
582.489	0.43
582.828	0.42
583.167	0.39
583.507	0.35
583.846	0.34
584.185	0.37
584.525	0.39
584.864	0.41
585.203	0.43
585.542	0.43
585.881	0.43
586.22	0.43
586.559	0.42
586.898	0.41
587.236	0.4
587.575	0.4
587.914	0.41
588.252	0.42
588.591	0.42
588.93	0.42
589.268	0.42
589.607	0.42
589.945	0.42
590.283	0.42
590.622	0.42
590.96	0.43
591.298	0.43
591.636	0.43
591.974	0.43
592.313	0.43
592.651	0.43
592.989	0.43
593.326	0.43
593.664	0.44
594.002	0.43
594.34	0.43
594.678	0.42
595.015	0.42
595.353	0.41
595.691	0.42
596.028	0.42
596.366	0.43
596.703	0.43
597.04	0.43
597.378	0.43
597.715	0.43
598.052	0.43
598.389	0.43
598.726	0.43
599.064	0.43
599.401	0.43
599.738	0.43
600.074	0.43
600.411	0.43
600.748	0.42
601.085	0.42
601.422	0.41
601.758	0.41
602.095	0.42
602.432	0.42
602.768	0.42
603.105	0.42
603.441	0.42
603.777	0.42
604.114	0.42
604.45	0.43
604.786	0.42
605.122	0.42
605.459	0.42
605.795	0.42
606.131	0.42
606.467	0.42
606.803	0.42
607.139	0.42
607.474	0.41
607.81	0.41
608.146	0.41
608.482	0.41
608.817	0.41
609.153	0.41
609.488	0.4
609.824	0.41
610.159	0.41
610.495	0.41
610.83	0.41
611.165	0.41
611.5	0.41
611.836	0.4
612.171	0.4
612.506	0.4
612.841	0.4
613.176	0.4
613.511	0.4
613.845	0.4
614.18	0.4
614.515	0.4
614.85	0.4
615.184	0.39
615.519	0.39
615.854	0.39
616.188	0.39
616.523	0.39
616.857	0.38
617.191	0.38
617.526	0.38
617.86	0.38
618.194	0.38
618.528	0.38
618.862	0.38
619.196	0.38
619.53	0.38
619.864	0.38
620.198	0.37
620.532	0.38
620.866	0.38
621.2	0.37
621.533	0.38
621.867	0.37
622.201	0.37
622.534	0.37
622.868	0.37
623.201	0.36
623.534	0.36
623.868	0.36
624.201	0.35
624.534	0.36
624.868	0.36
625.201	0.35
625.534	0.35
625.867	0.35
626.2	0.35
626.533	0.35
626.865	0.35
627.198	0.34
627.531	0.34
627.864	0.34
628.196	0.34
628.529	0.34
628.862	0.34
629.194	0.33
629.527	0.33
629.859	0.33
630.191	0.33
630.524	0.33
630.856	0.33
631.188	0.32
631.52	0.32
631.852	0.32
632.184	0.32
632.516	0.32
632.848	0.32
633.18	0.31
633.512	0.31
633.844	0.31
634.175	0.31
634.507	0.3
634.839	0.31
635.17	0.3
635.502	0.3
635.833	0.3
636.165	0.3
636.496	0.29
636.827	0.29
637.159	0.29
637.49	0.29
637.821	0.28
638.152	0.28
638.483	0.28
638.814	0.28
639.145	0.28
639.476	0.28
639.807	0.28
640.137	0.27
640.468	0.27
640.799	0.27
641.129	0.27
641.46	0.26
641.791	0.26
642.121	0.26
642.451	0.26
642.782	0.26
643.112	0.26
643.442	0.25
643.773	0.25
644.103	0.25
644.433	0.25
644.763	0.25
645.093	0.25
645.423	0.25
645.753	0.25
646.082	0.24
646.412	0.24
646.742	0.24
647.072	0.24
647.401	0.24
647.731	0.24
648.06	0.24
648.39	0.23
648.719	0.23
649.048	0.23
649.378	0.23
649.707	0.23
650.036	0.22
650.365	0.22
650.694	0.22
651.023	0.22
651.352	0.22
651.681	0.22
652.01	0.22
652.339	0.22
652.668	0.22
652.996	0.22
653.325	0.22
653.654	0.22
653.982	0.22
654.311	0.22
654.639	0.22
654.967	0.22
655.296	0.22
655.624	0.22
655.952	0.22
656.28	0.22
656.609	0.21
656.937	0.22
657.265	0.21
657.593	0.1
657.92	0.01
658.248	0
658.576	0
658.904	0.07
659.231	0.15
659.559	0.2
659.887	0.2
660.214	0.21
660.542	0.2
660.869	0.2
661.196	0.2
661.524	0.2
661.851	0.2
662.178	0.2
662.505	0.2
662.832	0.2
663.159	0.2
663.486	0.2
663.813	0.2
664.14	0.2
664.467	0.2
664.794	0.2
665.12	0.2
665.447	0.19
665.774	0.19
666.1	0.19
666.427	0.19
666.753	0.19
667.079	0.19
667.406	0.19
667.732	0.19
668.058	0.19
668.384	0.19
668.71	0.19
669.036	0.19
669.362	0.19
669.688	0.18
670.014	0.18
670.34	0.19
670.666	0.18
670.991	0.18
671.317	0.17
671.643	0.17
671.968	0.17
672.294	0.17
672.619	0.17
672.945	0.16
673.27	0.16
673.595	0.16
673.92	0.16
674.246	0.16
674.571	0.16
674.896	0.16
675.221	0.16
675.546	0.16
675.87	0.16
676.195	0.16
676.52	0.16
676.845	0.15
677.169	0.15
677.494	0.15
677.819	0.15
678.143	0.14
678.468	0.14
678.792	0.14
679.116	0.14
679.44	0.14
679.765	0.14
680.089	0.14
680.413	0.13
680.737	0.13
681.061	0.13
681.385	0.13
681.709	0.13
682.033	0.13
682.356	0.12
682.68	0.12
683.004	0.12
683.327	0.12
683.651	0.12
683.974	0.12
684.298	0.12
684.621	0.12
684.944	0.12
685.268	0.12
685.591	0.11
685.914	0.11
686.237	0.11
686.56	0.11
686.883	0.1
687.206	0.1
687.529	0.1
687.852	0.09
688.175	0.1
688.497	0.1
688.82	0.1
689.142	0.1
689.465	0.09
689.787	0.1
690.11	0.1
690.432	0.09
690.755	0.09
691.077	0.09
691.399	0.09
691.721	0.09
692.043	0.09
692.365	0.08
692.687	0.08
693.009	0.08
693.331	0.08
693.653	0.08
693.974	0.08
694.296	0.08
694.618	0.08
694.939	0.08
695.261	0.08
695.582	0.07
695.904	0.07
696.225	0.07
696.546	0.08
696.868	0.07
697.189	0.07
697.51	0.07
697.831	0.07
698.152	0.07
698.473	0.07
698.794	0.06
699.114	0.06
699.435	0.04
699.756	0.05
700.077	0.05
700.397	0.06
700.718	0.06
701.038	0.06
701.359	0.06
701.679	0.06
701.999	0.06
702.32	0.06
702.64	0.06
702.96	0.06
703.28	0.06
703.6	0.06
703.92	0.05
704.24	0.05
704.56	0.05
704.879	0.05
705.199	0.05
705.519	0.05
705.838	0.05
706.158	0.06
706.478	0.05
706.797	0.06
707.116	0.06
707.436	0.06
707.755	0.05
708.074	0.06
708.393	0.05
708.712	0.04
709.031	0.03
709.35	0.03
709.669	0.03
709.988	0.03
710.307	0.04
710.626	0.04
710.944	0.04
711.263	0.04
711.582	0.05
711.9	0.05
712.219	0.04
712.537	0.04
712.855	0.05
713.174	0.05
713.492	0.05
713.81	0.05
714.128	0.05
714.446	0.05
714.764	0.04
715.082	0.04
715.4	0.04
715.718	0.04
716.035	0.04
716.353	0.04
716.671	0.04
716.988	0.04
717.306	0.04
717.623	0.05
717.941	0.05
718.258	0.05
718.575	0.06
718.893	0.05
719.21	0.05
719.527	0.05
719.844	0.05
720.161	0.05
720.478	0.05
720.795	0.05
721.112	0.05
721.428	0.05
721.745	0.05
722.062	0.05
722.378	0.05
722.695	0.05
723.011	0.05
723.328	0.05
723.644	0.05
723.96	0.06
724.276	0.06
724.593	0.05
724.909	0.06
725.225	0.06
725.541	0.06
725.857	0.06
726.173	0.06
726.488	0.06
726.804	0.06
727.12	0.06
727.435	0.06
727.751	0.06
728.067	0.06
728.382	0.06
728.697	0.06
729.013	0.06
729.328	0.06
729.643	0.06
729.958	0.06
730.273	0.06
730.588	0.06
730.903	0.06
731.218	0.06
731.533	0.06
731.848	0.06
732.163	0.06
732.477	0.06
732.792	0.06
733.107	0.05
733.421	0.05
733.736	0.05
734.05	0.05
734.364	0.05
734.678	0.05
734.993	0.05
735.307	0.05
735.621	0.05
735.935	0.05
736.249	0.05
736.563	0.05
736.877	0.05
737.19	0.05
737.504	0.05
737.818	0.05
738.131	0.05
738.445	0.06
738.758	0.06
739.072	0.05
739.385	0.06
739.698	0.05
740.012	0.05
740.325	0.05
740.638	0.05
740.951	0.05
741.264	0.05
741.577	0.06
741.89	0.05
742.203	0.05
742.515	0.05
742.828	0.05
743.141	0.05
743.453	0.05
743.766	0.04
744.078	0.05
744.391	0.04
744.703	0.04
745.015	0.04
745.327	0.04
745.639	0.04
745.952	0.04
746.264	0.04
746.575	0.04
746.887	0.04
747.199	0.04
747.511	0.04
747.823	0.04
748.134	0.04
748.446	0.04
748.757	0.04
749.069	0.04
749.38	0.04
749.692	0.04
750.003	0.04
750.314	0.04
750.625	0.04
750.936	0.04
751.248	0.04
751.559	0.04
751.869	0.04
752.18	0.04
752.491	0.03
752.802	0.04
753.112	0.04
753.423	0.04
753.734	0.04
754.044	0.03
754.355	0.04
754.665	0.03
754.975	0.03
755.285	0.03
755.596	0.03
755.906	0.03
756.216	0.03
756.526	0.03
756.836	0.03
757.146	0.03
757.455	0.03
757.765	0.03
758.075	0.03
758.385	0.03
758.694	0.03
759.004	0.02
759.313	0.02
759.622	0.02
759.932	0.02
760.241	0.02
760.55	0.02
760.859	0.02
761.168	0.02
761.477	0.02
761.786	0.02
762.095	0.01
762.404	0.02
762.713	0.02
763.021	0.02
763.33	0.02
763.639	0.02
763.947	0.02
764.256	0.02
764.564	0.02
764.872	0.02
765.181	0.02
765.489	0.02
765.797	0.02
766.105	0.02
766.413	0.02
766.721	0.02
767.029	0.02
767.337	0.02
767.644	0.02
767.952	0.02
768.26	0.02
768.567	0.03
768.875	0.03
769.182	0.02
769.49	0.02
769.797	0.02
770.104	0.02
770.411	0.02
770.718	0.02
771.026	0.02
771.333	0.02
771.639	0.02
771.946	0.02
772.253	0.02
772.56	0.02
772.867	0.02
773.173	0.02
773.48	0.02
773.786	0.02
774.093	0.02
774.399	0.02
774.705	0.02
775.012	0.02
775.318	0.02
775.624	0.02
775.93	0.02
776.236	0.02
776.542	0.02
776.848	0.02
777.154	0.02
777.459	0.02
777.765	0.02
778.071	0.02
778.376	0.02
778.682	0.03
778.987	0.02
779.292	0.02
779.598	0.02
779.903	0.02
780.208	0.02
780.513	0.02
780.818	0.02
781.123	0.02
781.428	0.02
781.733	0.02
782.038	0.02
782.343	0.02
782.647	0.02
782.952	0.02
783.256	0.02
783.561	0.02
783.865	0.02
784.17	0.02
784.474	0.02
784.778	0.02
785.082	0.02
785.386	0.03
785.69	0.03
785.994	0.03
786.298	0.03
786.602	0.03
786.906	0.03
787.209	0.03
787.513	0.03
787.817	0.03
788.12	0.03
788.424	0.03
788.727	0.02
789.03	0.03
789.333	0.02
789.637	0.03
789.94	0.03
790.243	0.03
790.546	0.03
790.849	0.03
791.152	0.03
791.454	0.03
791.757	0.03
792.06	0.03
792.362	0.03
792.665	0.03
792.967	0.03
793.27	0.03
793.572	0.03
793.874	0.03
794.177	0.03
794.479	0.04
794.781	0.03
795.083	0.03
795.385	0.03
795.687	0.04
795.989	0.03
796.29	0.03
796.592	0.03
796.894	0.03
797.195	0.03
797.497	0.03
797.798	0.03
798.1	0.03
798.401	0.03
798.702	0.02
799.003	0.02
799.304	0.03
799.605	0.02
799.906	0.02
800.207	0.02
800.508	0.02
800.809	0.02
801.11	0.02
801.41	0.02
801.711	0.02
802.011	0.02
802.312	0.02
802.612	0.02
802.913	0.03
803.213	0.03
803.513	0.03
803.813	0.03
804.113	0.03
804.413	0.04
804.713	0.04
805.013	0.04
805.313	0.04
805.613	0.04
805.912	0.04
806.212	0.04
806.511	0.04
806.811	0.04
807.11	0.03
807.41	0.03
807.709	0.03
808.008	0.03
808.307	0.03
808.606	0.03
808.905	0.03
809.204	0.04
809.503	0.04
809.802	0.04
810.101	0.04
810.399	0.04
810.698	0.04
810.997	0.04
811.295	0.03
811.593	0.04
811.892	0.03
812.19	0.04
812.488	0.04
812.786	0.04
813.084	0.04
813.383	0.04
813.68	0.04
813.978	0.04
814.276	0.04
814.574	0.04
814.872	0.04
815.169	0.04
815.467	0.04
815.764	0.04
816.062	0.04
816.359	0.04
816.656	0.04
816.954	0.04
817.251	0.04
817.548	0.04
817.845	0.04
818.142	0.04
818.439	0.04
818.735	0.04
819.032	0.04
819.329	0.04
819.626	0.04
819.922	0.04
820.219	0.04
820.515	0.04
820.811	0.04
821.108	0.04
821.404	0.04
821.7	0.04
821.996	0.04
822.292	0.04
822.588	0.04
822.884	0.04
823.18	0.04
823.475	0.04
823.771	0.04
824.067	0.04
824.362	0.04
824.658	0.05
824.953	0.04
825.249	0.05
825.544	0.04
825.839	0.04
826.134	0.04
826.429	0.04
826.724	0.04
827.019	0.04
827.314	0.05
827.609	0.05
827.904	0.05
828.198	0.04
828.493	0.05
828.787	0.05
829.082	0.05
829.376	0.04
829.671	0.05
829.965	0.05
830.259	0.05
830.553	0.05
830.847	0.05
831.141	0.05
831.435	0.05
831.729	0.05
832.023	0.05
832.317	0.05
832.61	0.05
832.904	0.05
833.197	0.05
833.491	0.05
833.784	0.05
834.077	0.05
834.371	0.06
834.664	0.05
834.957	0.05
835.25	0.06
835.543	0.05
835.836	0.06
836.129	0.05
836.421	0.05
836.714	0.06
837.007	0.06
837.299	0.05
837.592	0.05
837.884	0.05
838.177	0.05
838.469	0.05
838.761	0.06
839.053	0.05
839.345	0.05
839.637	0.05
839.929	0.06
840.221	0.05
840.513	0.05
840.805	0.06
841.096	0.06
841.388	0.05
841.68	0.05
841.971	0.05
842.262	0.06
842.554	0.05
842.845	0.06
843.136	0.05
843.427	0.05
843.718	0.06
844.009	0.05
844.3	0.06
844.591	0.06
844.882	0.05
845.173	0.05
845.463	0.06
845.754	0.05
846.044	0.06
846.335	0.06
846.625	0.05
846.915	0.07
847.206	0.07
847.496	0.06
847.786	0.06
848.076	0.07
848.366	0.07
848.656	0.06
848.945	0.07
849.235	0.07
849.525	0.07
849.814	0.07
850.104	0.07
850.393	0.06
850.683	0.07
850.972	0.07
851.261	0.06
851.551	0.06
851.84	0.06
852.129	0.05
852.418	0.05
852.707	0.05
852.995	0.06
853.284	0.06
853.573	0.07
853.862	0.07
854.15	0.07
854.439	0.06
854.727	0.07
855.015	0.07
855.304	0.08
855.592	0.08
855.88	0.08
856.168	0.08
856.456	0.07
856.744	0.06
857.032	0.08
857.32	0.08
857.607	0.06
857.895	0.06
858.183	0.06
858.47	0.06
858.757	0.07
859.045	0.08
859.332	0.07
859.619	0.06
859.907	0.07
860.194	0.08
860.481	0.08
860.768	0.07
861.054	0.07
861.341	0.07
861.628	0.06
861.915	0.07
862.201	0.05
862.488	0.08
862.774	0.06
863.061	0.08
863.347	0.07
863.633	0.06
863.919	0.05
864.205	0.06
864.491	0.07
864.777	0.07
865.063	0.08
865.349	0.06
865.635	0.09
865.92	0.09
866.206	0.07
866.492	0.08
866.777	0.07
867.062	0.08
867.348	0.06
867.633	0.09
867.918	0.06
868.203	0.07
868.488	0.1
868.773	0.07
869.058	0.08
869.343	0.08
869.628	0.09
869.912	0.08
870.197	0.04
870.482	0.07
870.766	0.09
871.05	0.06
871.335	0.07
871.619	0.07
871.903	0.06
872.187	0.05
872.471	0.05
872.755	0.06
873.039	0.02
873.323	0.02
873.607	0.05
873.89	0.06
874.174	0.06
874.458	0.03
874.741	0.12
875.024	0.09
875.308	0.06
875.591	0.04
875.874	-0.01
876.157	0.03
876.44	0.04
876.723	0.1
877.006	0.02
877.289	0.04
877.572	0.04
877.854	0.11
878.137	0.07
878.42	-0
878.702	0.05
878.984	0.12
879.267	0.01
879.549	0.05
879.831	-0
880.113	0.03
880.395	0.06
880.677	-0.08
880.959	0.02
