Data from Rubpy_BV_1200_EDTA_Buffered_Absorbance_13-37-32-221.txt Node
Date: Wed Jul 01 13:37:32 BST 2026
User: fpm-admin
Spectrometer: OFX00224
Trigger mode: 0
Integration Time (sec): 7.000000E-2
Scans to average: 3
Nonlinearity correction enabled: false
Boxcar width: 0
Storing dark spectrum: false
XAxis mode: Wavelengths
Number of Pixels in Spectrum: 2136
>>>>>Begin Spectral Data<<<<<
154.91	-0.36
155.289	-0
155.669	0.15
156.048	-0.95
156.428	-0
156.807	-0
157.186	-0.65
157.566	-0.94
157.945	-0.37
158.325	-0.06
158.704	-1.1
159.083	0.36
159.462	-0.89
159.842	-0.13
160.221	-0
160.6	1.32
160.979	-0
161.359	-0
161.738	0.9
162.117	-0
162.496	-0
162.875	0.78
163.254	-0
163.633	-0.38
164.012	-0
164.391	-0.12
164.77	-0.05
165.149	-0.07
165.528	-0
165.907	0.18
166.286	-0.14
166.665	0.01
167.044	-1.44
167.423	-0.15
167.802	-0
168.181	-0
168.559	-0
168.938	-0.63
169.317	-0
169.696	-0
170.074	-0.22
170.453	-0
170.832	-0.05
171.21	0.22
171.589	0.67
171.968	-0.36
172.346	-0.07
172.725	-0
173.103	-0.64
173.482	-0.12
173.861	-0
174.239	-0.09
174.617	-0.32
174.996	1.04
175.374	-0
175.753	-0.1
176.131	-1.32
176.51	0.07
176.888	-0
177.266	1.29
177.645	0.09
178.023	0.11
178.401	-0.04
178.779	0.28
179.158	-0.54
179.536	-0
179.914	-0
180.292	-0.3
180.67	-0
181.048	-0
181.427	-0.85
181.805	-0.05
182.183	-0
182.561	-0.85
182.939	-0
183.317	-0.52
183.695	0.34
184.073	0.03
184.451	-0.74
184.829	-0.16
185.206	-0.06
185.584	-0.53
185.962	-0
186.34	-0
186.718	-0
187.096	0.22
187.473	-0.46
187.851	-0.19
188.229	-0
188.607	0.03
188.984	0.12
189.362	0.07
189.74	-0.09
190.117	0.11
190.495	-0.01
190.872	-0.01
191.25	0.1
191.627	-0.01
192.005	0.03
192.382	0.08
192.76	0.08
193.137	0.05
193.515	-0.01
193.892	-0.04
194.269	0.1
194.647	0.03
195.024	-0.05
195.401	-0.06
195.779	-0.02
196.156	-0.06
196.533	0.07
196.91	-0.01
197.288	0.01
197.665	-0.04
198.042	0.06
198.419	-0.02
198.796	-0.12
199.173	0.1
199.55	0.03
199.927	0.01
200.304	0.04
200.681	0.06
201.058	0.09
201.435	0.01
201.812	0.03
202.189	0
202.566	0.11
202.943	0.06
203.32	0.04
203.697	0.01
204.073	0.14
204.45	0.15
204.827	0.09
205.204	0.06
205.58	0.02
205.957	-0.02
206.334	0.01
206.71	0
207.087	0.01
207.464	0.08
207.84	0.01
208.217	-0
208.593	0.07
208.97	-0.1
209.346	0.12
209.723	0.06
210.099	-0.01
210.476	-0.03
210.852	0.06
211.228	-0.04
211.605	0.03
211.981	0.11
212.357	0.01
212.733	-0.08
213.11	-0
213.486	0.09
213.862	-0
214.238	0.06
214.614	0.07
214.991	0.03
215.367	0.02
215.743	-0.02
216.119	0.08
216.495	0.07
216.871	0.09
217.247	0.04
217.623	0.09
217.999	0.07
218.375	-0.03
218.751	0.12
219.127	0.03
219.502	-0.01
219.878	0
220.254	0.04
220.63	-0.02
221.006	0.04
221.381	0.07
221.757	0.04
222.133	-0.02
222.508	0.05
222.884	0.1
223.26	0.02
223.635	0.01
224.011	0.02
224.386	0.02
224.762	-0
225.137	0.03
225.513	0.04
225.888	-0.01
226.264	0.13
226.639	0.02
227.014	0.02
227.39	0.1
227.765	0.05
228.14	0.08
228.516	0.02
228.891	0.04
229.266	0.06
229.641	0.05
230.017	0.02
230.392	0.08
230.767	0.11
231.142	-0.01
231.517	0.03
231.892	0.04
232.267	0.01
232.642	0.08
233.017	-0.07
233.392	0.01
233.767	0.12
234.142	0.02
234.517	-0
234.892	-0.04
235.267	0.05
235.641	0.07
236.016	0.03
236.391	0.04
236.766	-0.05
237.14	0.03
237.515	0.04
237.89	0.03
238.264	0.05
238.639	0.05
239.014	0
239.388	0.02
239.763	0.06
240.137	0.05
240.512	-0
240.886	0.06
241.261	0.03
241.635	0.02
242.009	0.04
242.384	0.11
242.758	0.16
243.132	0
243.507	0.05
243.881	0.1
244.255	0.06
244.629	0.07
245.004	0.06
245.378	-0.02
245.752	-0.01
246.126	0.05
246.5	0.03
246.874	0.12
247.248	0.07
247.622	0.04
247.996	0.05
248.37	0.03
248.744	-0.04
249.118	0.03
249.492	0.02
249.866	0.09
250.24	0.04
250.613	0.01
250.987	0.1
251.361	0.06
251.735	0
252.108	0.01
252.482	0.04
252.856	0.01
253.229	0.06
253.603	0.09
253.977	-0.02
254.35	0.08
254.724	0.05
255.097	0.02
255.471	0.06
255.844	0.11
256.218	0.15
256.591	-0.03
256.964	0.05
257.338	0.02
257.711	0.11
258.084	0.08
258.458	-0
258.831	0.07
259.204	0.04
259.577	0.05
259.95	0.11
260.323	0.04
260.697	0.07
261.07	0.14
261.443	0.09
261.816	0.06
262.189	0.05
262.562	0.09
262.935	0.05
263.308	0.09
263.68	0.11
264.053	0.04
264.426	0.05
264.799	0.03
265.172	-0.02
265.545	0.09
265.917	0.03
266.29	0.04
266.663	0.02
267.035	0.11
267.408	0.08
267.781	0.06
268.153	0.04
268.526	0.05
268.898	0.1
269.271	0.08
269.643	0.04
270.016	0.07
270.388	0.03
270.76	0.01
271.133	0.08
271.505	0.04
271.877	0.06
272.25	0.08
272.622	0.1
272.994	0.05
273.366	-0
273.739	0.1
274.111	0.03
274.483	0.07
274.855	0.08
275.227	-0.01
275.599	0.06
275.971	0.02
276.343	0.04
276.715	0.04
277.087	0.14
277.459	0.05
277.831	-0.03
278.203	0.05
278.574	0.08
278.946	0.07
279.318	0.16
279.69	0.12
280.061	0.06
280.433	0.12
280.805	0.05
281.176	-0.01
281.548	0.07
281.92	0.05
282.291	0.07
282.663	0.11
283.034	0.09
283.406	0.04
283.777	0.12
284.148	0.04
284.52	0.02
284.891	0.07
285.262	0.04
285.634	0.11
286.005	0.04
286.376	0.07
286.747	0.05
287.119	0.05
287.49	0.04
287.861	0.1
288.232	0.05
288.603	0.11
288.974	0.1
289.345	0.01
289.716	0.05
290.087	0.08
290.458	0.05
290.829	0.12
291.2	0.1
291.571	0.1
291.941	0.1
292.312	0.1
292.683	0.03
293.054	0.02
293.424	0.12
293.795	0.05
294.166	0.13
294.536	0.08
294.907	0.07
295.277	0.02
295.648	0.08
296.018	0.08
296.389	0.04
296.759	0.02
297.13	0.03
297.5	0.08
297.871	0.1
298.241	0.11
298.611	0.13
298.981	0.12
299.352	0.06
299.722	0.02
300.092	0.05
300.462	0.04
300.832	0.04
301.202	0.07
301.573	0.04
301.943	0.06
302.313	0.03
302.683	0.04
303.053	0.06
303.422	0.07
303.792	0.06
304.162	0.07
304.532	0.04
304.902	0.08
305.272	0.01
305.641	0.02
306.011	0.07
306.381	0.05
306.75	0.06
307.12	0.04
307.49	0.05
307.859	0.05
308.229	0.05
308.598	0.03
308.968	0.05
309.337	0.05
309.707	0.07
310.076	0.03
310.445	0.01
310.815	0.04
311.184	0.04
311.553	0.04
311.923	0.04
312.292	0.04
312.661	0.03
313.03	0.04
313.399	0.05
313.768	0.04
314.137	0.04
314.506	0.06
314.875	0.04
315.244	0.05
315.613	0.06
315.982	0.05
316.351	0.04
316.72	0.04
317.089	0.04
317.458	0.06
317.826	0.04
318.195	0.05
318.564	0.04
318.933	0.05
319.301	0.03
319.67	0.05
320.038	0.05
320.407	0.05
320.775	0.06
321.144	0.05
321.512	0.04
321.881	0.06
322.249	0.05
322.618	0.07
322.986	0.06
323.354	0.05
323.723	0.05
324.091	0.06
324.459	0.06
324.827	0.05
325.195	0.05
325.564	0.06
325.932	0.06
326.3	0.06
326.668	0.05
327.036	0.07
327.404	0.06
327.772	0.06
328.14	0.06
328.508	0.07
328.875	0.06
329.243	0.06
329.611	0.07
329.979	0.06
330.346	0.07
330.714	0.07
331.082	0.07
331.449	0.07
331.817	0.07
332.185	0.07
332.552	0.08
332.92	0.08
333.287	0.08
333.655	0.08
334.022	0.08
334.389	0.08
334.757	0.08
335.124	0.08
335.491	0.08
335.859	0.09
336.226	0.09
336.593	0.09
336.96	0.09
337.327	0.09
337.695	0.09
338.062	0.09
338.429	0.1
338.796	0.1
339.163	0.1
339.53	0.1
339.897	0.1
340.263	0.11
340.63	0.11
340.997	0.11
341.364	0.11
341.731	0.11
342.097	0.11
342.464	0.12
342.831	0.12
343.197	0.12
343.564	0.12
343.931	0.12
344.297	0.12
344.664	0.13
345.03	0.12
345.396	0.13
345.763	0.13
346.129	0.14
346.496	0.14
346.862	0.14
347.228	0.15
347.594	0.14
347.961	0.14
348.327	0.14
348.693	0.15
349.059	0.14
349.425	0.15
349.791	0.15
350.157	0.16
350.523	0.15
350.889	0.16
351.255	0.16
351.621	0.16
351.987	0.16
352.353	0.17
352.719	0.17
353.084	0.17
353.45	0.17
353.816	0.17
354.181	0.18
354.547	0.18
354.913	0.18
355.278	0.18
355.644	0.19
356.009	0.19
356.375	0.19
356.74	0.19
357.106	0.2
357.471	0.2
357.836	0.2
358.202	0.2
358.567	0.21
358.932	0.21
359.297	0.22
359.663	0.22
360.028	0.22
360.393	0.22
360.758	0.23
361.123	0.23
361.488	0.24
361.853	0.24
362.218	0.24
362.583	0.24
362.948	0.25
363.312	0.25
363.677	0.26
364.042	0.26
364.407	0.26
364.772	0.27
365.136	0.26
365.501	0.27
365.865	0.27
366.23	0.28
366.595	0.28
366.959	0.28
367.324	0.28
367.688	0.29
368.052	0.29
368.417	0.29
368.781	0.29
369.145	0.29
369.51	0.3
369.874	0.3
370.238	0.31
370.602	0.31
370.967	0.31
371.331	0.32
371.695	0.31
372.059	0.32
372.423	0.32
372.787	0.32
373.151	0.32
373.515	0.32
373.878	0.32
374.242	0.32
374.606	0.32
374.97	0.32
375.334	0.31
375.697	0.31
376.061	0.31
376.425	0.31
376.788	0.3
377.152	0.3
377.515	0.3
377.879	0.29
378.242	0.29
378.606	0.29
378.969	0.28
379.333	0.28
379.696	0.28
380.059	0.28
380.422	0.28
380.786	0.28
381.149	0.28
381.512	0.27
381.875	0.28
382.238	0.27
382.601	0.28
382.964	0.27
383.327	0.27
383.69	0.27
384.053	0.27
384.416	0.26
384.779	0.27
385.142	0.27
385.504	0.27
385.867	0.27
386.23	0.27
386.593	0.28
386.955	0.28
387.318	0.28
387.68	0.28
388.043	0.28
388.405	0.28
388.768	0.29
389.13	0.28
389.493	0.29
389.855	0.29
390.217	0.29
390.58	0.29
390.942	0.28
391.304	0.28
391.666	0.28
392.028	0.28
392.391	0.27
392.753	0.28
393.115	0.27
393.477	0.27
393.839	0.27
394.201	0.27
394.563	0.26
394.924	0.27
395.286	0.27
395.648	0.27
396.01	0.27
396.371	0.28
396.733	0.28
397.095	0.29
397.456	0.3
397.818	0.31
398.18	0.31
398.541	0.33
398.903	0.34
399.264	0.34
399.625	0.35
399.987	0.36
400.348	0.37
400.709	0.38
401.071	0.38
401.432	0.38
401.793	0.38
402.154	0.38
402.515	0.38
402.876	0.37
403.238	0.37
403.599	0.36
403.96	0.34
404.32	0.33
404.681	0.32
405.042	0.3
405.403	0.29
405.764	0.27
406.125	0.26
406.485	0.25
406.846	0.24
407.207	0.22
407.567	0.21
407.928	0.19
408.288	0.18
408.649	0.18
409.009	0.16
409.37	0.15
409.73	0.14
410.091	0.14
410.451	0.13
410.811	0.12
411.171	0.12
411.532	0.11
411.892	0.11
412.252	0.1
412.612	0.09
412.972	0.09
413.332	0.09
413.692	0.08
414.052	0.08
414.412	0.07
414.772	0.07
415.132	0.07
415.492	0.06
415.851	0.06
416.211	0.06
416.571	0.05
416.931	0.06
417.29	0.06
417.65	0.05
418.009	0.05
418.369	0.05
418.728	0.05
419.088	0.05
419.447	0.05
419.807	0.05
420.166	0.04
420.525	0.05
420.884	0.04
421.244	0.04
421.603	0.04
421.962	0.03
422.321	0.04
422.68	0.04
423.039	0.03
423.398	0.04
423.757	0.03
424.116	0.04
424.475	0.04
424.834	0.03
425.193	0.03
425.551	0.03
425.91	0.03
426.269	0.03
426.628	0.02
426.986	0.03
427.345	0.03
427.703	0.03
428.062	0.03
428.42	0.03
428.779	0.02
429.137	0.02
429.496	0.03
429.854	0.03
430.212	0.02
430.57	0.03
430.929	0.03
431.287	0.02
431.645	0.02
432.003	0.03
432.361	0.02
432.719	0.02
433.077	0.03
433.435	0.03
433.793	0.03
434.151	0.02
434.509	0.03
434.866	0.03
435.224	0.03
435.582	0.02
435.94	0.02
436.297	0.03
436.655	0.02
437.012	0.02
437.37	0.03
437.727	0.03
438.085	0.02
438.442	0.02
438.8	0.02
439.157	0.02
439.514	0.02
439.872	0.02
440.229	0.02
440.586	0.03
440.943	0.02
441.3	0.02
441.657	0.01
442.014	0.02
442.371	0.03
442.728	0.02
443.085	0.02
443.442	0.02
443.799	0.02
444.156	0.02
444.513	0.02
444.869	0.02
445.226	0.03
445.583	0.02
445.939	0.02
446.296	0.02
446.652	0.02
447.009	0.02
447.365	0.02
447.722	0.02
448.078	0.01
448.434	0.02
448.791	0.01
449.147	0.01
449.503	0.01
449.859	0.02
450.215	0.02
450.571	0.01
450.928	0.02
451.284	0.01
451.64	0
451.995	0.01
452.351	0.01
452.707	0.02
453.063	0
453.419	-0
453.775	0.01
454.13	0
454.486	0.01
454.842	0
455.197	-0
455.553	-0
455.908	-0.01
456.264	-0
456.619	-0.02
456.975	-0.01
457.33	-0.01
457.685	-0.01
458.04	-0.01
458.396	-0.02
458.751	-0.01
459.106	-0.01
459.461	-0.03
459.816	-0.02
460.171	-0.03
460.526	-0.02
460.881	-0.03
461.236	-0.03
461.591	-0.03
461.946	-0.03
462.301	-0.04
462.655	-0.04
463.01	-0.04
463.365	-0.05
463.719	-0.05
464.074	-0.05
464.428	-0.06
464.783	-0.06
465.137	-0.06
465.492	-0.06
465.846	-0.06
466.201	-0.06
466.555	-0.07
466.909	-0.06
467.263	-0.06
467.618	-0.06
467.972	-0.06
468.326	-0.06
468.68	-0.07
469.034	-0.07
469.388	-0.06
469.742	-0.07
470.096	-0.06
470.45	-0.06
470.804	-0.06
471.157	-0.06
471.511	-0.06
471.865	-0.07
472.218	-0.06
472.572	-0.06
472.926	-0.06
473.279	-0.06
473.633	-0.05
473.986	-0.04
474.34	-0.05
474.693	-0.04
475.046	-0.03
475.4	-0.03
475.753	-0.03
476.106	-0.02
476.459	-0.02
476.812	-0.02
477.165	-0.01
477.519	-0.01
477.872	-0.01
478.224	-0.01
478.577	-0
478.93	-0.01
479.283	0
479.636	0.01
479.989	0.01
480.341	0.01
480.694	0.01
481.047	0.01
481.399	0.01
481.752	0.02
482.104	0.02
482.457	0.02
482.809	0.02
483.162	0.02
483.514	0.03
483.866	0.03
484.219	0.03
484.571	0.03
484.923	0.03
485.275	0.03
485.627	0.03
485.979	0.03
486.331	0.04
486.683	0.04
487.035	0.04
487.387	0.04
487.739	0.04
488.091	0.04
488.443	0.04
488.794	0.05
489.146	0.04
489.498	0.05
489.849	0.05
490.201	0.05
490.552	0.04
490.904	0.05
491.255	0.05
491.607	0.05
491.958	0.05
492.309	0.05
492.661	0.05
493.012	0.05
493.363	0.05
493.714	0.05
494.065	0.05
494.416	0.06
494.767	0.06
495.118	0.06
495.469	0.06
495.82	0.06
496.171	0.06
496.522	0.06
496.872	0.06
497.223	0.06
497.574	0.07
497.924	0.06
498.275	0.07
498.626	0.07
498.976	0.07
499.327	0.07
499.677	0.07
500.027	0.07
500.378	0.07
500.728	0.07
501.078	0.07
501.428	0.07
501.779	0.07
502.129	0.08
502.479	0.08
502.829	0.07
503.179	0.07
503.529	0.07
503.879	0.08
504.229	0.08
504.578	0.08
504.928	0.08
505.278	0.08
505.628	0.08
505.977	0.08
506.327	0.08
506.676	0.08
507.026	0.08
507.375	0.08
507.725	0.09
508.074	0.09
508.424	0.09
508.773	0.09
509.122	0.09
509.471	0.09
509.82	0.09
510.17	0.09
510.519	0.09
510.868	0.09
511.217	0.09
511.566	0.09
511.915	0.09
512.263	0.09
512.612	0.09
512.961	0.09
513.31	0.1
513.659	0.1
514.007	0.09
514.356	0.1
514.704	0.1
515.053	0.1
515.401	0.1
515.75	0.1
516.098	0.1
516.447	0.1
516.795	0.1
517.143	0.1
517.491	0.1
517.839	0.1
518.188	0.1
518.536	0.1
518.884	0.11
519.232	0.1
519.58	0.11
519.928	0.11
520.275	0.1
520.623	0.11
520.971	0.11
521.319	0.11
521.666	0.11
522.014	0.11
522.362	0.11
522.709	0.11
523.057	0.11
523.404	0.11
523.752	0.11
524.099	0.11
524.446	0.11
524.794	0.11
525.141	0.11
525.488	0.11
525.835	0.11
526.182	0.11
526.529	0.12
526.876	0.12
527.223	0.12
527.57	0.11
527.917	0.11
528.264	0.11
528.611	0.12
528.958	0.12
529.304	0.12
529.651	0.12
529.998	0.12
530.344	0.12
530.691	0.12
531.037	0.12
531.384	0.12
531.73	0.12
532.076	0.12
532.423	0.12
532.769	0.12
533.115	0.12
533.461	0.12
533.807	0.12
534.154	0.12
534.5	0.12
534.846	0.13
535.192	0.12
535.537	0.13
535.883	0.13
536.229	0.13
536.575	0.13
536.921	0.13
537.266	0.13
537.612	0.13
537.957	0.13
538.303	0.13
538.649	0.13
538.994	0.13
539.339	0.13
539.685	0.13
540.03	0.13
540.375	0.13
540.721	0.14
541.066	0.13
541.411	0.14
541.756	0.13
542.101	0.14
542.446	0.14
542.791	0.13
543.136	0.13
543.481	0.13
543.825	0.14
544.17	0.14
544.515	0.14
544.86	0.13
545.204	0.14
545.549	0.14
545.893	0.14
546.238	0.14
546.582	0.14
546.927	0.14
547.271	0.14
547.615	0.14
547.96	0.14
548.304	0.14
548.648	0.14
548.992	0.14
549.336	0.14
549.68	0.14
550.024	0.14
550.368	0.14
550.712	0.15
551.056	0.15
551.4	0.14
551.743	0.14
552.087	0.14
552.431	0.15
552.774	0.14
553.118	0.14
553.462	0.14
553.805	0.15
554.148	0.14
554.492	0.14
554.835	0.15
555.178	0.14
555.522	0.14
555.865	0.15
556.208	0.15
556.551	0.15
556.894	0.15
557.237	0.15
557.58	0.15
557.923	0.15
558.266	0.15
558.609	0.14
558.952	0.14
559.294	0.14
559.637	0.15
559.98	0.14
560.322	0.15
560.665	0.14
561.007	0.15
561.35	0.15
561.692	0.15
562.034	0.15
562.377	0.15
562.719	0.14
563.061	0.15
563.403	0.15
563.745	0.15
564.088	0.15
564.43	0.14
564.772	0.15
565.113	0.15
565.455	0.15
565.797	0.15
566.139	0.14
566.481	0.14
566.822	0.15
567.164	0.14
567.506	0.14
567.847	0.14
568.189	0.14
568.53	0.14
568.872	0.14
569.213	0.15
569.554	0.14
569.895	0.14
570.237	0.15
570.578	0.15
570.919	0.14
571.26	0.14
571.601	0.14
571.942	0.14
572.283	0.14
572.624	0.14
572.965	0.14
573.306	0.14
573.646	0.14
573.987	0.14
574.328	0.14
574.668	0.14
575.009	0.14
575.349	0.14
575.69	0.14
576.03	0.14
576.37	0.13
576.711	0.13
577.051	0.14
577.391	0.13
577.731	0.14
578.072	0.14
578.412	0.14
578.752	0.14
579.092	0.13
579.431	0.12
579.771	0.11
580.111	0.1
580.451	0.11
580.791	0.13
581.13	0.13
581.47	0.13
581.81	0.13
582.149	0.13
582.489	0.13
582.828	0.13
583.167	0.1
583.507	0.07
583.846	0.06
584.185	0.08
584.525	0.1
584.864	0.12
585.203	0.13
585.542	0.13
585.881	0.14
586.22	0.14
586.559	0.13
586.898	0.12
587.236	0.11
587.575	0.11
587.914	0.12
588.252	0.13
588.591	0.13
588.93	0.13
589.268	0.13
589.607	0.13
589.945	0.13
590.283	0.13
590.622	0.13
590.96	0.14
591.298	0.14
591.636	0.14
591.974	0.14
592.313	0.14
592.651	0.14
592.989	0.14
593.326	0.14
593.664	0.14
594.002	0.14
594.34	0.14
594.678	0.14
595.015	0.13
595.353	0.12
595.691	0.13
596.028	0.14
596.366	0.14
596.703	0.14
597.04	0.14
597.378	0.14
597.715	0.14
598.052	0.14
598.389	0.14
598.726	0.15
599.064	0.14
599.401	0.14
599.738	0.14
600.074	0.14
600.411	0.14
600.748	0.14
601.085	0.14
601.422	0.13
601.758	0.13
602.095	0.14
602.432	0.13
602.768	0.14
603.105	0.14
603.441	0.14
603.777	0.14
604.114	0.14
604.45	0.14
604.786	0.14
605.122	0.14
605.459	0.14
605.795	0.14
606.131	0.14
606.467	0.14
606.803	0.14
607.139	0.14
607.474	0.14
607.81	0.14
608.146	0.14
608.482	0.14
608.817	0.14
609.153	0.14
609.488	0.14
609.824	0.14
610.159	0.14
610.495	0.14
610.83	0.14
611.165	0.14
611.5	0.14
611.836	0.14
612.171	0.14
612.506	0.14
612.841	0.14
613.176	0.14
613.511	0.14
613.845	0.14
614.18	0.14
614.515	0.14
614.85	0.13
615.184	0.13
615.519	0.13
615.854	0.13
616.188	0.13
616.523	0.13
616.857	0.13
617.191	0.13
617.526	0.13
617.86	0.13
618.194	0.13
618.528	0.13
618.862	0.13
619.196	0.13
619.53	0.13
619.864	0.13
620.198	0.13
620.532	0.13
620.866	0.13
621.2	0.13
621.533	0.13
621.867	0.13
622.201	0.13
622.534	0.13
622.868	0.13
623.201	0.13
623.534	0.13
623.868	0.13
624.201	0.12
624.534	0.12
624.868	0.12
625.201	0.12
625.534	0.13
625.867	0.12
626.2	0.13
626.533	0.13
626.865	0.12
627.198	0.12
627.531	0.12
627.864	0.12
628.196	0.12
628.529	0.12
628.862	0.12
629.194	0.12
629.527	0.12
629.859	0.11
630.191	0.12
630.524	0.12
630.856	0.12
631.188	0.11
631.52	0.11
631.852	0.11
632.184	0.11
632.516	0.11
632.848	0.11
633.18	0.11
633.512	0.11
633.844	0.11
634.175	0.11
634.507	0.1
634.839	0.11
635.17	0.1
635.502	0.1
635.833	0.1
636.165	0.1
636.496	0.1
636.827	0.1
637.159	0.1
637.49	0.1
637.821	0.1
638.152	0.1
638.483	0.1
638.814	0.1
639.145	0.1
639.476	0.1
639.807	0.1
640.137	0.09
640.468	0.09
640.799	0.09
641.129	0.09
641.46	0.09
641.791	0.09
642.121	0.09
642.451	0.09
642.782	0.09
643.112	0.09
643.442	0.09
643.773	0.09
644.103	0.09
644.433	0.08
644.763	0.08
645.093	0.08
645.423	0.08
645.753	0.08
646.082	0.08
646.412	0.08
646.742	0.08
647.072	0.09
647.401	0.08
647.731	0.08
648.06	0.08
648.39	0.08
648.719	0.08
649.048	0.08
649.378	0.08
649.707	0.07
650.036	0.07
650.365	0.07
650.694	0.07
651.023	0.07
651.352	0.07
651.681	0.07
652.01	0.07
652.339	0.07
652.668	0.08
652.996	0.08
653.325	0.08
653.654	0.08
653.982	0.08
654.311	0.08
654.639	0.08
654.967	0.08
655.296	0.07
655.624	0.07
655.952	0.08
656.28	0.08
656.609	0.07
656.937	0.07
657.265	0.07
657.593	0
657.92	-0
658.248	-0
658.576	-0
658.904	0
659.231	0.03
659.559	0.07
659.887	0.07
660.214	0.07
660.542	0.07
660.869	0.07
661.196	0.07
661.524	0.07
661.851	0.07
662.178	0.07
662.505	0.07
662.832	0.07
663.159	0.07
663.486	0.07
663.813	0.07
664.14	0.07
664.467	0.07
664.794	0.07
665.12	0.07
665.447	0.07
665.774	0.07
666.1	0.07
666.427	0.07
666.753	0.07
667.079	0.07
667.406	0.07
667.732	0.07
668.058	0.07
668.384	0.07
668.71	0.07
669.036	0.07
669.362	0.07
669.688	0.07
670.014	0.07
670.34	0.07
670.666	0.06
670.991	0.06
671.317	0.06
671.643	0.06
671.968	0.06
672.294	0.05
672.619	0.06
672.945	0.05
673.27	0.06
673.595	0.06
673.92	0.06
674.246	0.06
674.571	0.06
674.896	0.06
675.221	0.06
675.546	0.06
675.87	0.06
676.195	0.06
676.52	0.06
676.845	0.05
677.169	0.05
677.494	0.05
677.819	0.05
678.143	0.05
678.468	0.05
678.792	0.05
679.116	0.05
679.44	0.05
679.765	0.05
680.089	0.04
680.413	0.04
680.737	0.04
681.061	0.04
681.385	0.04
681.709	0.04
682.033	0.04
682.356	0.04
682.68	0.04
683.004	0.04
683.327	0.04
683.651	0.04
683.974	0.04
684.298	0.04
684.621	0.04
684.944	0.04
685.268	0.04
685.591	0.03
685.914	0.03
686.237	0.03
686.56	0.04
686.883	0.03
687.206	0.03
687.529	0.03
687.852	0.03
688.175	0.03
688.497	0.03
688.82	0.03
689.142	0.03
689.465	0.03
689.787	0.03
690.11	0.03
690.432	0.03
690.755	0.03
691.077	0.03
691.399	0.03
691.721	0.03
692.043	0.03
692.365	0.03
692.687	0.03
693.009	0.02
693.331	0.02
693.653	0.02
693.974	0.02
694.296	0.02
694.618	0.02
694.939	0.02
695.261	0.02
695.582	0.02
695.904	0.02
696.225	0.02
696.546	0.02
696.868	0.02
697.189	0.02
697.51	0.02
697.831	0.02
698.152	0.02
698.473	0.02
698.794	0.01
699.114	0.01
699.435	0.01
699.756	0.01
700.077	0.01
700.397	0.01
700.718	0.02
701.038	0.02
701.359	0.02
701.679	0.02
701.999	0.02
702.32	0.02
702.64	0.02
702.96	0.02
703.28	0.02
703.6	0.02
703.92	0.01
704.24	0.01
704.56	0.01
704.879	0.01
705.199	0.02
705.519	0.01
705.838	0.01
706.158	0.02
706.478	0.01
706.797	0.02
707.116	0.02
707.436	0.02
707.755	0.01
708.074	0.01
708.393	0.01
708.712	0.01
709.031	0
709.35	0
709.669	0
709.988	0
710.307	0.01
710.626	0
710.944	0.01
711.263	0.01
711.582	0.01
711.9	0.01
712.219	0.01
712.537	0.01
712.855	0.01
713.174	0.01
713.492	0.01
713.81	0.01
714.128	0.01
714.446	0.01
714.764	0.01
715.082	0.01
715.4	0.01
715.718	0.01
716.035	0.01
716.353	0.01
716.671	0.01
716.988	0.01
717.306	0.01
717.623	0.01
717.941	0.01
718.258	0.02
718.575	0.02
718.893	0.02
719.21	0.02
719.527	0.02
719.844	0.01
720.161	0.01
720.478	0.01
720.795	0.01
721.112	0.01
721.428	0.01
721.745	0.01
722.062	0.01
722.378	0.01
722.695	0.01
723.011	0.01
723.328	0.01
723.644	0.01
723.96	0.02
724.276	0.01
724.593	0.01
724.909	0.01
725.225	0.02
725.541	0.02
725.857	0.02
726.173	0.02
726.488	0.02
726.804	0.02
727.12	0.02
727.435	0.02
727.751	0.02
728.067	0.02
728.382	0.02
728.697	0.02
729.013	0.02
729.328	0.02
729.643	0.02
729.958	0.02
730.273	0.02
730.588	0.02
730.903	0.02
731.218	0.02
731.533	0.02
731.848	0.02
732.163	0.02
732.477	0.02
732.792	0.02
733.107	0.01
733.421	0.01
733.736	0.01
734.05	0.02
734.364	0.02
734.678	0.02
734.993	0.02
735.307	0.02
735.621	0.01
735.935	0.01
736.249	0.01
736.563	0.01
736.877	0.01
737.19	0.02
737.504	0.01
737.818	0.01
738.131	0.01
738.445	0.02
738.758	0.02
739.072	0.02
739.385	0.02
739.698	0.02
740.012	0.02
740.325	0.02
740.638	0.02
740.951	0.02
741.264	0.02
741.577	0.02
741.89	0.02
742.203	0.02
742.515	0.02
742.828	0.01
743.141	0.01
743.453	0.01
743.766	0.01
744.078	0.01
744.391	0.01
744.703	0.01
745.015	0.01
745.327	0.01
745.639	0.01
745.952	0.01
746.264	0.01
746.575	0.01
746.887	0.01
747.199	0.01
747.511	0.01
747.823	0.01
748.134	0.01
748.446	0.01
748.757	0.01
749.069	0.01
749.38	0.01
749.692	0.01
750.003	0.01
750.314	0.01
750.625	0.01
750.936	0.01
751.248	0.01
751.559	0.01
751.869	0.01
752.18	0.01
752.491	0.01
752.802	0.01
753.112	0.01
753.423	0.01
753.734	0.01
754.044	0.01
754.355	0.01
754.665	0.01
754.975	0.01
755.285	0.01
755.596	0.01
755.906	0.01
756.216	0.01
756.526	0.01
756.836	0.01
757.146	0
757.455	0
757.765	0.01
758.075	0.01
758.385	0.01
758.694	0.01
759.004	0
759.313	0
759.622	0
759.932	0
760.241	0
760.55	0
760.859	0
761.168	0
761.477	0
761.786	-0
762.095	-0
762.404	0
762.713	0
763.021	0
763.33	0
763.639	0
763.947	0
764.256	0
764.564	0
764.872	0
765.181	-0
765.489	-0
765.797	-0
766.105	0
766.413	-0
766.721	0
767.029	0
767.337	0
767.644	0
767.952	0
768.26	0
768.567	0.01
768.875	0
769.182	0
769.49	-0
769.797	0
770.104	0
770.411	0
770.718	-0
771.026	-0
771.333	-0
771.639	-0
771.946	-0
772.253	-0
772.56	-0
772.867	-0
773.173	-0
773.48	-0
773.786	0
774.093	-0
774.399	0
774.705	0
775.012	0
775.318	-0
775.624	0
775.93	-0
776.236	0
776.542	0
776.848	0
777.154	0
777.459	0.01
777.765	0
778.071	0
778.376	0
778.682	0
778.987	0
779.292	0
779.598	0
779.903	0
780.208	0
780.513	0
780.818	0
781.123	0
781.428	0
781.733	0
782.038	0
782.343	0
782.647	0
782.952	0
783.256	-0
783.561	-0
783.865	-0
784.17	-0
784.474	-0
784.778	-0
785.082	0
785.386	0
785.69	0
785.994	0.01
786.298	0.01
786.602	0
786.906	0.01
787.209	0.01
787.513	0.01
787.817	0.01
788.12	0
788.424	0
788.727	0
789.03	0
789.333	0
789.637	0
789.94	0.01
790.243	0.01
790.546	0.01
790.849	0.01
791.152	0.01
791.454	0.01
791.757	0.01
792.06	0.01
792.362	0.01
792.665	0.01
792.967	0.01
793.27	0.01
793.572	0.01
793.874	0.01
794.177	0.01
794.479	0.01
794.781	0.01
795.083	0.01
795.385	0.01
795.687	0.01
795.989	0
796.29	0.01
796.592	0.01
796.894	0.01
797.195	0
797.497	0.01
797.798	0
798.1	0
798.401	0
798.702	0
799.003	-0
799.304	0
799.605	-0
799.906	-0
800.207	-0.01
800.508	-0.01
800.809	-0
801.11	-0
801.41	-0
801.711	-0
802.011	-0.01
802.312	0
802.612	0
802.913	0
803.213	0.01
803.513	0
803.813	0.01
804.113	0.01
804.413	0.01
804.713	0.01
805.013	0.01
805.313	0.01
805.613	0.01
805.912	0.01
806.212	0.01
806.511	0.01
806.811	0.01
807.11	0
807.41	0.01
807.709	0.01
808.008	0.01
808.307	0
808.606	0
808.905	0
809.204	0.01
809.503	0.01
809.802	0
810.101	0.01
810.399	0.01
810.698	0.01
810.997	0
811.295	-0
811.593	0
811.892	0
812.19	0.01
812.488	0.01
812.786	0
813.084	0.01
813.383	0
813.68	0.01
813.978	0.01
814.276	0.01
814.574	0.01
814.872	0.01
815.169	0
815.467	0.01
815.764	0.01
816.062	0.01
816.359	0.01
816.656	0.01
816.954	0.01
817.251	0.01
817.548	0.01
817.845	0.01
818.142	0.01
818.439	0.01
818.735	0.01
819.032	0.01
819.329	0
819.626	0
819.922	0.01
820.219	0.01
820.515	0
820.811	-0
821.108	0
821.404	0
821.7	0.01
821.996	0
822.292	-0
822.588	0
822.884	0
823.18	0
823.475	0
823.771	0
824.067	0
824.362	-0
824.658	0
824.953	0
825.249	0
825.544	0
825.839	0
826.134	0
826.429	0
826.724	0
827.019	0
827.314	0.01
827.609	0.01
827.904	0.01
828.198	0.01
828.493	0.01
828.787	0.01
829.082	0.01
829.376	0.01
829.671	0
829.965	0.01
830.259	0.01
830.553	0.01
830.847	0.01
831.141	0.01
831.435	0
831.729	0.01
832.023	0.01
832.317	0.01
832.61	0.01
832.904	0.01
833.197	0
833.491	0
833.784	0
834.077	0
834.371	0.01
834.664	0
834.957	0.01
835.25	0.01
835.543	0.01
835.836	0.01
836.129	0.01
836.421	0.01
836.714	0.01
837.007	0.01
837.299	0.01
837.592	0
837.884	0
838.177	0.01
838.469	0.01
838.761	0.01
839.053	0
839.345	0.01
839.637	0.01
839.929	0.01
840.221	0.01
840.513	0.01
840.805	0.01
841.096	0.01
841.388	0
841.68	0.01
841.971	0.01
842.262	0.01
842.554	0.01
842.845	0.01
843.136	0.01
843.427	0.01
843.718	0.01
844.009	0
844.3	0.01
844.591	0
844.882	0.01
845.173	0.01
845.463	0.01
845.754	0.01
846.044	0.01
846.335	0.01
846.625	0.01
846.915	0.02
847.206	0.02
847.496	0.02
847.786	0.02
848.076	0.02
848.366	0.02
848.656	0.01
848.945	0.01
849.235	0.01
849.525	0.02
849.814	0.02
850.104	0.02
850.393	0.01
850.683	0.01
850.972	0.02
851.261	-0
851.551	0
851.84	0.01
852.129	0
852.418	0
852.707	0.01
852.995	0.02
853.284	0.01
853.573	0.01
853.862	0.01
854.15	0.01
854.439	0.01
854.727	0.01
855.015	0.01
855.304	0.02
855.592	0.02
855.88	0.02
856.168	0.02
856.456	0.02
856.744	0
857.032	0.01
857.32	0.02
857.607	0.01
857.895	0.01
858.183	0.01
858.47	0.01
858.757	0.01
859.045	0.03
859.332	0.01
859.619	0.02
859.907	0.01
860.194	0.02
860.481	0.02
860.768	-0
861.054	0.02
861.341	0
861.628	0.01
861.915	0.01
862.201	0
862.488	0.01
862.774	0.01
863.061	0.01
863.347	0.01
863.633	0.02
863.919	-0.01
864.205	0.02
864.491	-0
864.777	0.02
865.063	0.01
865.349	0.01
865.635	0.02
865.92	0.02
866.206	0.02
866.492	0.01
866.777	0.02
867.062	-0.01
867.348	0.02
867.633	0.04
867.918	-0
868.203	0.02
868.488	0.05
868.773	0.01
869.058	0.03
869.343	0.02
869.628	0.04
869.912	0.02
870.197	-0
870.482	-0.01
870.766	-0.02
871.05	0
871.335	0.01
871.619	-0
871.903	0.02
872.187	0.01
872.471	-0.02
872.755	0.01
873.039	-0.01
873.323	0
873.607	0.02
873.89	-0.01
874.174	0.01
874.458	-0.03
874.741	-0
875.024	0.03
875.308	-0.01
875.591	-0.01
875.874	-0
876.157	-0.05
876.44	0.02
876.723	0.05
877.006	-0
877.289	0.01
877.572	-0.05
877.854	0.04
878.137	0.02
878.42	-0.05
878.702	0.03
878.984	0.07
879.267	-0.06
879.549	0.01
879.831	-0.04
880.113	0.05
880.395	0.02
880.677	-0.11
880.959	-0.04
