Data from Rubpy_BV_900_EDTA_Buffered_Absorbance_12-59-41-887.txt Node
Date: Wed Jul 01 12:59:41 BST 2026
User: fpm-admin
Spectrometer: OFX00224
Trigger mode: 0
Integration Time (sec): 7.000000E-2
Scans to average: 3
Nonlinearity correction enabled: false
Boxcar width: 0
Storing dark spectrum: false
XAxis mode: Wavelengths
Number of Pixels in Spectrum: 2136
>>>>>Begin Spectral Data<<<<<
154.91	-0.21
155.289	-0
155.669	0.66
156.048	0.12
156.428	-0.18
156.807	-0
157.186	0.4
157.566	1.23
157.945	-0.08
158.325	0.18
158.704	-0.34
159.083	-0.54
159.462	0.62
159.842	0.21
160.221	-0
160.6	-0
160.979	0.1
161.359	-0
161.738	-0.3
162.117	-0
162.496	0.63
162.875	-0.11
163.254	-0
163.633	0.22
164.012	-0.38
164.391	-0.39
164.77	-0
165.149	0.03
165.528	-0.43
165.907	-0.93
166.286	0.02
166.665	-0
167.044	0.51
167.423	-0.44
167.802	-0.2
168.181	-0
168.559	0.9
168.938	-0
169.317	0.07
169.696	0.25
170.074	-0.24
170.453	-0.08
170.832	-0.1
171.21	-0
171.589	0.17
171.968	0.56
172.346	-0
172.725	0.29
173.103	0.59
173.482	-0
173.861	-0
174.239	-0
174.617	-0
174.996	0.45
175.374	-0
175.753	-0.16
176.131	-0
176.51	0.06
176.888	-0
177.266	-0
177.645	-0.23
178.023	0.63
178.401	-0.05
178.779	-0.11
179.158	-0.97
179.536	-0
179.914	1.04
180.292	-0.95
180.67	0.99
181.048	-0.04
181.427	0.26
181.805	-1.28
182.183	-0.76
182.561	-0
182.939	-0
183.317	-0.78
183.695	-0
184.073	-0
184.451	0.12
184.829	1
185.206	-0.94
185.584	-0
185.962	-0.04
186.34	-0
186.718	-0
187.096	-0.92
187.473	-0
187.851	0.21
188.229	-0
188.607	0.11
188.984	0.15
189.362	0.1
189.74	-0.02
190.117	0.07
190.495	0.08
190.872	0.13
191.25	0.05
191.627	0.04
192.005	0.09
192.382	0.22
192.76	0.1
193.137	0.2
193.515	0.07
193.892	0.15
194.269	0.09
194.647	0.15
195.024	0.09
195.401	-0.07
195.779	0.08
196.156	0.08
196.533	0.13
196.91	0.2
197.288	0.04
197.665	0
198.042	0.07
198.419	0.07
198.796	0.15
199.173	0.15
199.55	0.13
199.927	0.12
200.304	0.14
200.681	0.12
201.058	0.08
201.435	0.23
201.812	0.17
202.189	0.1
202.566	0.12
202.943	0.15
203.32	0.18
203.697	0.21
204.073	0.07
204.45	0.08
204.827	0.15
205.204	0.07
205.58	0.14
205.957	0.18
206.334	0.21
206.71	0.22
207.087	0.16
207.464	0.16
207.84	0.15
208.217	0.05
208.593	0.01
208.97	0.07
209.346	0.13
209.723	0.1
210.099	0.1
210.476	0.05
210.852	0.13
211.228	0.16
211.605	0.08
211.981	0.13
212.357	0.12
212.733	0.15
213.11	0.13
213.486	0.16
213.862	0.07
214.238	0.15
214.614	0.1
214.991	0.14
215.367	0.03
215.743	0.15
216.119	0.11
216.495	0.14
216.871	0.07
217.247	0.16
217.623	0.21
217.999	0.1
218.375	0.12
218.751	0.1
219.127	0.15
219.502	0.11
219.878	0.15
220.254	0.11
220.63	0.12
221.006	0.07
221.381	0.15
221.757	0.12
222.133	0.14
222.508	0.11
222.884	0.14
223.26	0.23
223.635	0.15
224.011	0.1
224.386	0.16
224.762	0.18
225.137	0.1
225.513	0.13
225.888	0.09
226.264	0.09
226.639	0.15
227.014	0.12
227.39	0.22
227.765	0.26
228.14	0.1
228.516	0.21
228.891	0.23
229.266	0.24
229.641	0.26
230.017	0.19
230.392	0.15
230.767	0.1
231.142	0.12
231.517	0.13
231.892	-0
232.267	0.19
232.642	0.03
233.017	0.09
233.392	0.2
233.767	0.15
234.142	0.08
234.517	0.07
234.892	0.07
235.267	0.13
235.641	0.08
236.016	0.13
236.391	0.17
236.766	0.11
237.14	0.11
237.515	0.04
237.89	0.12
238.264	0.04
238.639	0.2
239.014	0.21
239.388	0.16
239.763	0.28
240.137	0.11
240.512	0.2
240.886	0.11
241.261	0.13
241.635	0.13
242.009	0.12
242.384	0.09
242.758	0.04
243.132	0.17
243.507	0.21
243.881	0.22
244.255	0.12
244.629	0.08
245.004	0.11
245.378	0.16
245.752	0.08
246.126	0.18
246.5	0.15
246.874	0.16
247.248	0.12
247.622	0.06
247.996	0.12
248.37	0.2
248.744	0.15
249.118	0.07
249.492	0.18
249.866	0.16
250.24	0.16
250.613	0.12
250.987	0.04
251.361	0.11
251.735	0.08
252.108	0.19
252.482	0.13
252.856	0.13
253.229	0.15
253.603	0.14
253.977	0.14
254.35	0.14
254.724	0.17
255.097	0.17
255.471	0.19
255.844	0.14
256.218	0.23
256.591	0.1
256.964	0.13
257.338	0.15
257.711	0.15
258.084	0.13
258.458	0.17
258.831	0.18
259.204	0.19
259.577	0.12
259.95	0.04
260.323	0.16
260.697	0.17
261.07	0.22
261.443	0.13
261.816	0.14
262.189	0.2
262.562	0.11
262.935	0.26
263.308	0.03
263.68	0.26
264.053	0.16
264.426	0.15
264.799	0.14
265.172	0.16
265.545	0.07
265.917	0.12
266.29	0.07
266.663	0.17
267.035	0.18
267.408	0.23
267.781	0.18
268.153	0.17
268.526	0.13
268.898	0.14
269.271	0.19
269.643	0.1
270.016	0.12
270.388	0.18
270.76	0.14
271.133	0.14
271.505	0.16
271.877	0.13
272.25	0.13
272.622	0.13
272.994	0.14
273.366	0.16
273.739	0.14
274.111	0.14
274.483	0.18
274.855	0.25
275.227	0.19
275.599	0.16
275.971	0.19
276.343	0.18
276.715	0.2
277.087	0.08
277.459	0.1
277.831	0.2
278.203	0.11
278.574	0.17
278.946	0.09
279.318	0.18
279.69	0.18
280.061	0.21
280.433	0.05
280.805	0.07
281.176	0.12
281.548	0.07
281.92	0.13
282.291	0.17
282.663	0.13
283.034	0.09
283.406	0.1
283.777	0.14
284.148	0.16
284.52	0.18
284.891	0.12
285.262	0.25
285.634	0.12
286.005	0.11
286.376	0.08
286.747	0.12
287.119	0.18
287.49	0.1
287.861	0.16
288.232	0.17
288.603	0.16
288.974	0.24
289.345	0.12
289.716	0.12
290.087	0.12
290.458	0.15
290.829	0.15
291.2	0.17
291.571	0.16
291.941	0.12
292.312	0.21
292.683	0.16
293.054	0.14
293.424	0.11
293.795	0.14
294.166	0.15
294.536	0.19
294.907	0.11
295.277	0.08
295.648	0.13
296.018	0.12
296.389	0.12
296.759	0.13
297.13	0.16
297.5	0.13
297.871	0.19
298.241	0.12
298.611	0.17
298.981	0.13
299.352	0.16
299.722	0.2
300.092	0.18
300.462	0.15
300.832	0.16
301.202	0.17
301.573	0.14
301.943	0.12
302.313	0.12
302.683	0.16
303.053	0.14
303.422	0.09
303.792	0.09
304.162	0.1
304.532	0.08
304.902	0.1
305.272	0.08
305.641	0.08
306.011	0.12
306.381	0.08
306.75	0.07
307.12	0.09
307.49	0.08
307.859	0.08
308.229	0.06
308.598	0.09
308.968	0.07
309.337	0.08
309.707	0.08
310.076	0.08
310.445	0.09
310.815	0.08
311.184	0.08
311.553	0.08
311.923	0.08
312.292	0.09
312.661	0.1
313.03	0.07
313.399	0.08
313.768	0.1
314.137	0.09
314.506	0.09
314.875	0.09
315.244	0.1
315.613	0.1
315.982	0.1
316.351	0.1
316.72	0.11
317.089	0.11
317.458	0.1
317.826	0.1
318.195	0.11
318.564	0.11
318.933	0.12
319.301	0.12
319.67	0.11
320.038	0.12
320.407	0.12
320.775	0.11
321.144	0.12
321.512	0.12
321.881	0.13
322.249	0.12
322.618	0.12
322.986	0.13
323.354	0.14
323.723	0.13
324.091	0.13
324.459	0.14
324.827	0.14
325.195	0.13
325.564	0.14
325.932	0.14
326.3	0.14
326.668	0.14
327.036	0.15
327.404	0.15
327.772	0.15
328.14	0.15
328.508	0.16
328.875	0.16
329.243	0.16
329.611	0.16
329.979	0.16
330.346	0.16
330.714	0.17
331.082	0.17
331.449	0.17
331.817	0.18
332.185	0.18
332.552	0.18
332.92	0.19
333.287	0.19
333.655	0.19
334.022	0.19
334.389	0.2
334.757	0.2
335.124	0.2
335.491	0.21
335.859	0.22
336.226	0.22
336.593	0.22
336.96	0.23
337.327	0.23
337.695	0.23
338.062	0.24
338.429	0.24
338.796	0.25
339.163	0.25
339.53	0.26
339.897	0.25
340.263	0.26
340.63	0.26
340.997	0.27
341.364	0.27
341.731	0.28
342.097	0.28
342.464	0.29
342.831	0.29
343.197	0.3
343.564	0.3
343.931	0.31
344.297	0.31
344.664	0.32
345.03	0.32
345.396	0.33
345.763	0.33
346.129	0.34
346.496	0.34
346.862	0.35
347.228	0.35
347.594	0.36
347.961	0.36
348.327	0.37
348.693	0.37
349.059	0.38
349.425	0.38
349.791	0.39
350.157	0.39
350.523	0.39
350.889	0.4
351.255	0.4
351.621	0.41
351.987	0.41
352.353	0.41
352.719	0.42
353.084	0.43
353.45	0.43
353.816	0.44
354.181	0.44
354.547	0.45
354.913	0.45
355.278	0.46
355.644	0.47
356.009	0.47
356.375	0.48
356.74	0.49
357.106	0.49
357.471	0.5
357.836	0.5
358.202	0.51
358.567	0.52
358.932	0.52
359.297	0.53
359.663	0.54
360.028	0.54
360.393	0.55
360.758	0.56
361.123	0.57
361.488	0.58
361.853	0.58
362.218	0.6
362.583	0.61
362.948	0.61
363.312	0.62
363.677	0.62
364.042	0.63
364.407	0.63
364.772	0.65
365.136	0.65
365.501	0.66
365.865	0.66
366.23	0.67
366.595	0.68
366.959	0.68
367.324	0.69
367.688	0.69
368.052	0.7
368.417	0.71
368.781	0.72
369.145	0.72
369.51	0.72
369.874	0.73
370.238	0.73
370.602	0.74
370.967	0.74
371.331	0.75
371.695	0.75
372.059	0.75
372.423	0.76
372.787	0.76
373.151	0.75
373.515	0.76
373.878	0.74
374.242	0.75
374.606	0.74
374.97	0.74
375.334	0.73
375.697	0.73
376.061	0.72
376.425	0.72
376.788	0.71
377.152	0.7
377.515	0.7
377.879	0.69
378.242	0.68
378.606	0.67
378.969	0.67
379.333	0.66
379.696	0.66
380.059	0.65
380.422	0.64
380.786	0.63
381.149	0.63
381.512	0.61
381.875	0.6
382.238	0.61
382.601	0.6
382.964	0.59
383.327	0.59
383.69	0.59
384.053	0.58
384.416	0.58
384.779	0.58
385.142	0.58
385.504	0.57
385.867	0.58
386.23	0.57
386.593	0.57
386.955	0.57
387.318	0.57
387.68	0.57
388.043	0.57
388.405	0.58
388.768	0.58
389.13	0.57
389.493	0.57
389.855	0.57
390.217	0.57
390.58	0.57
390.942	0.56
391.304	0.55
391.666	0.55
392.028	0.54
392.391	0.53
392.753	0.53
393.115	0.53
393.477	0.52
393.839	0.52
394.201	0.51
394.563	0.51
394.924	0.5
395.286	0.51
395.648	0.51
396.01	0.52
396.371	0.53
396.733	0.53
397.095	0.54
397.456	0.56
397.818	0.57
398.18	0.58
398.541	0.59
398.903	0.61
399.264	0.62
399.625	0.65
399.987	0.65
400.348	0.68
400.709	0.67
401.071	0.69
401.432	0.68
401.793	0.69
402.154	0.69
402.515	0.68
402.876	0.67
403.238	0.66
403.599	0.64
403.96	0.62
404.32	0.6
404.681	0.57
405.042	0.56
405.403	0.53
405.764	0.5
406.125	0.48
406.485	0.45
406.846	0.42
407.207	0.4
407.567	0.39
407.928	0.35
408.288	0.34
408.649	0.32
409.009	0.3
409.37	0.28
409.73	0.27
410.091	0.26
410.451	0.24
410.811	0.23
411.171	0.22
411.532	0.2
411.892	0.2
412.252	0.19
412.612	0.18
412.972	0.17
413.332	0.16
413.692	0.15
414.052	0.15
414.412	0.15
414.772	0.14
415.132	0.13
415.492	0.13
415.851	0.12
416.211	0.12
416.571	0.11
416.931	0.11
417.29	0.11
417.65	0.1
418.009	0.1
418.369	0.1
418.728	0.1
419.088	0.1
419.447	0.09
419.807	0.09
420.166	0.09
420.525	0.08
420.884	0.08
421.244	0.08
421.603	0.08
421.962	0.08
422.321	0.07
422.68	0.08
423.039	0.07
423.398	0.07
423.757	0.08
424.116	0.08
424.475	0.07
424.834	0.07
425.193	0.07
425.551	0.07
425.91	0.07
426.269	0.06
426.628	0.06
426.986	0.07
427.345	0.07
427.703	0.07
428.062	0.07
428.42	0.06
428.779	0.05
429.137	0.06
429.496	0.06
429.854	0.06
430.212	0.07
430.57	0.07
430.929	0.06
431.287	0.06
431.645	0.06
432.003	0.06
432.361	0.06
432.719	0.06
433.077	0.06
433.435	0.06
433.793	0.06
434.151	0.06
434.509	0.06
434.866	0.05
435.224	0.06
435.582	0.05
435.94	0.06
436.297	0.06
436.655	0.06
437.012	0.06
437.37	0.06
437.727	0.06
438.085	0.06
438.442	0.06
438.8	0.06
439.157	0.06
439.514	0.06
439.872	0.05
440.229	0.06
440.586	0.05
440.943	0.06
441.3	0.05
441.657	0.06
442.014	0.06
442.371	0.05
442.728	0.06
443.085	0.05
443.442	0.06
443.799	0.06
444.156	0.06
444.513	0.06
444.869	0.07
445.226	0.06
445.583	0.06
445.939	0.06
446.296	0.06
446.652	0.07
447.009	0.06
447.365	0.06
447.722	0.06
448.078	0.06
448.434	0.06
448.791	0.06
449.147	0.06
449.503	0.06
449.859	0.05
450.215	0.05
450.571	0.06
450.928	0.06
451.284	0.05
451.64	0.05
451.995	0.05
452.351	0.06
452.707	0.06
453.063	0.06
453.419	0.06
453.775	0.06
454.13	0.06
454.486	0.06
454.842	0.06
455.197	0.07
455.553	0.06
455.908	0.06
456.264	0.07
456.619	0.07
456.975	0.07
457.33	0.07
457.685	0.06
458.04	0.07
458.396	0.06
458.751	0.06
459.106	0.07
459.461	0.07
459.816	0.06
460.171	0.07
460.526	0.06
460.881	0.07
461.236	0.07
461.591	0.06
461.946	0.07
462.301	0.07
462.655	0.06
463.01	0.06
463.365	0.07
463.719	0.07
464.074	0.06
464.428	0.07
464.783	0.07
465.137	0.06
465.492	0.07
465.846	0.07
466.201	0.07
466.555	0.06
466.909	0.08
467.263	0.07
467.618	0.07
467.972	0.07
468.326	0.08
468.68	0.07
469.034	0.08
469.388	0.07
469.742	0.07
470.096	0.07
470.45	0.08
470.804	0.08
471.157	0.08
471.511	0.08
471.865	0.08
472.218	0.08
472.572	0.09
472.926	0.09
473.279	0.08
473.633	0.09
473.986	0.09
474.34	0.1
474.693	0.1
475.046	0.1
475.4	0.09
475.753	0.1
476.106	0.1
476.459	0.1
476.812	0.11
477.165	0.11
477.519	0.11
477.872	0.11
478.224	0.11
478.577	0.12
478.93	0.12
479.283	0.12
479.636	0.12
479.989	0.12
480.341	0.12
480.694	0.12
481.047	0.12
481.399	0.12
481.752	0.13
482.104	0.13
482.457	0.13
482.809	0.13
483.162	0.13
483.514	0.13
483.866	0.14
484.219	0.14
484.571	0.14
484.923	0.14
485.275	0.14
485.627	0.14
485.979	0.15
486.331	0.14
486.683	0.15
487.035	0.15
487.387	0.15
487.739	0.15
488.091	0.15
488.443	0.15
488.794	0.15
489.146	0.15
489.498	0.16
489.849	0.16
490.201	0.16
490.552	0.16
490.904	0.16
491.255	0.16
491.607	0.16
491.958	0.17
492.309	0.17
492.661	0.17
493.012	0.17
493.363	0.17
493.714	0.18
494.065	0.17
494.416	0.18
494.767	0.17
495.118	0.18
495.469	0.18
495.82	0.18
496.171	0.18
496.522	0.18
496.872	0.19
497.223	0.19
497.574	0.19
497.924	0.2
498.275	0.2
498.626	0.19
498.976	0.2
499.327	0.2
499.677	0.2
500.027	0.2
500.378	0.21
500.728	0.21
501.078	0.21
501.428	0.21
501.779	0.21
502.129	0.21
502.479	0.21
502.829	0.21
503.179	0.21
503.529	0.21
503.879	0.21
504.229	0.22
504.578	0.22
504.928	0.22
505.278	0.22
505.628	0.22
505.977	0.22
506.327	0.23
506.676	0.22
507.026	0.23
507.375	0.23
507.725	0.23
508.074	0.24
508.424	0.24
508.773	0.24
509.122	0.24
509.471	0.24
509.82	0.24
510.17	0.24
510.519	0.25
510.868	0.24
511.217	0.25
511.566	0.25
511.915	0.25
512.263	0.25
512.612	0.25
512.961	0.25
513.31	0.26
513.659	0.26
514.007	0.26
514.356	0.26
514.704	0.26
515.053	0.26
515.401	0.26
515.75	0.27
516.098	0.26
516.447	0.27
516.795	0.27
517.143	0.27
517.491	0.27
517.839	0.27
518.188	0.28
518.536	0.27
518.884	0.27
519.232	0.28
519.58	0.28
519.928	0.27
520.275	0.28
520.623	0.28
520.971	0.28
521.319	0.29
521.666	0.28
522.014	0.28
522.362	0.29
522.709	0.28
523.057	0.29
523.404	0.29
523.752	0.29
524.099	0.29
524.446	0.29
524.794	0.29
525.141	0.29
525.488	0.3
525.835	0.3
526.182	0.3
526.529	0.3
526.876	0.3
527.223	0.3
527.57	0.3
527.917	0.3
528.264	0.3
528.611	0.3
528.958	0.3
529.304	0.31
529.651	0.31
529.998	0.31
530.344	0.31
530.691	0.31
531.037	0.31
531.384	0.31
531.73	0.31
532.076	0.31
532.423	0.32
532.769	0.31
533.115	0.32
533.461	0.31
533.807	0.32
534.154	0.32
534.5	0.31
534.846	0.32
535.192	0.32
535.537	0.32
535.883	0.32
536.229	0.32
536.575	0.32
536.921	0.33
537.266	0.32
537.612	0.32
537.957	0.32
538.303	0.33
538.649	0.33
538.994	0.33
539.339	0.33
539.685	0.33
540.03	0.33
540.375	0.33
540.721	0.33
541.066	0.33
541.411	0.33
541.756	0.33
542.101	0.33
542.446	0.33
542.791	0.33
543.136	0.33
543.481	0.34
543.825	0.33
544.17	0.34
544.515	0.34
544.86	0.34
545.204	0.34
545.549	0.34
545.893	0.34
546.238	0.34
546.582	0.34
546.927	0.34
547.271	0.34
547.615	0.34
547.96	0.34
548.304	0.34
548.648	0.34
548.992	0.34
549.336	0.34
549.68	0.34
550.024	0.34
550.368	0.34
550.712	0.34
551.056	0.34
551.4	0.35
551.743	0.35
552.087	0.34
552.431	0.34
552.774	0.35
553.118	0.35
553.462	0.35
553.805	0.35
554.148	0.35
554.492	0.35
554.835	0.35
555.178	0.34
555.522	0.35
555.865	0.34
556.208	0.34
556.551	0.34
556.894	0.34
557.237	0.34
557.58	0.34
557.923	0.35
558.266	0.35
558.609	0.35
558.952	0.35
559.294	0.34
559.637	0.35
559.98	0.35
560.322	0.35
560.665	0.35
561.007	0.35
561.35	0.35
561.692	0.35
562.034	0.35
562.377	0.35
562.719	0.34
563.061	0.34
563.403	0.34
563.745	0.34
564.088	0.34
564.43	0.34
564.772	0.34
565.113	0.35
565.455	0.34
565.797	0.34
566.139	0.34
566.481	0.34
566.822	0.34
567.164	0.34
567.506	0.34
567.847	0.34
568.189	0.34
568.53	0.34
568.872	0.34
569.213	0.34
569.554	0.34
569.895	0.34
570.237	0.34
570.578	0.34
570.919	0.34
571.26	0.33
571.601	0.33
571.942	0.33
572.283	0.33
572.624	0.33
572.965	0.33
573.306	0.33
573.646	0.32
573.987	0.32
574.328	0.32
574.668	0.32
575.009	0.32
575.349	0.32
575.69	0.32
576.03	0.32
576.37	0.31
576.711	0.3
577.051	0.31
577.391	0.31
577.731	0.32
578.072	0.31
578.412	0.31
578.752	0.31
579.092	0.31
579.431	0.29
579.771	0.26
580.111	0.25
580.451	0.26
580.791	0.29
581.13	0.3
581.47	0.3
581.81	0.3
582.149	0.3
582.489	0.31
582.828	0.29
583.167	0.25
583.507	0.22
583.846	0.2
584.185	0.23
584.525	0.25
584.864	0.28
585.203	0.3
585.542	0.31
585.881	0.31
586.22	0.31
586.559	0.3
586.898	0.28
587.236	0.26
587.575	0.26
587.914	0.27
588.252	0.29
588.591	0.3
588.93	0.3
589.268	0.29
589.607	0.29
589.945	0.29
590.283	0.29
590.622	0.3
590.96	0.3
591.298	0.31
591.636	0.3
591.974	0.31
592.313	0.31
592.651	0.31
592.989	0.31
593.326	0.32
593.664	0.31
594.002	0.31
594.34	0.31
594.678	0.3
595.015	0.29
595.353	0.27
595.691	0.29
596.028	0.3
596.366	0.3
596.703	0.31
597.04	0.31
597.378	0.31
597.715	0.31
598.052	0.31
598.389	0.31
598.726	0.31
599.064	0.31
599.401	0.31
599.738	0.31
600.074	0.31
600.411	0.31
600.748	0.3
601.085	0.3
601.422	0.29
601.758	0.29
602.095	0.29
602.432	0.29
602.768	0.29
603.105	0.3
603.441	0.31
603.777	0.31
604.114	0.31
604.45	0.31
604.786	0.31
605.122	0.31
605.459	0.3
605.795	0.3
606.131	0.31
606.467	0.3
606.803	0.3
607.139	0.3
607.474	0.3
607.81	0.3
608.146	0.3
608.482	0.3
608.817	0.29
609.153	0.29
609.488	0.29
609.824	0.29
610.159	0.3
610.495	0.3
610.83	0.3
611.165	0.3
611.5	0.3
611.836	0.3
612.171	0.3
612.506	0.3
612.841	0.29
613.176	0.3
613.511	0.29
613.845	0.29
614.18	0.29
614.515	0.29
614.85	0.29
615.184	0.29
615.519	0.29
615.854	0.29
616.188	0.29
616.523	0.28
616.857	0.28
617.191	0.28
617.526	0.28
617.86	0.28
618.194	0.28
618.528	0.28
618.862	0.28
619.196	0.28
619.53	0.28
619.864	0.28
620.198	0.28
620.532	0.28
620.866	0.27
621.2	0.28
621.533	0.27
621.867	0.27
622.201	0.27
622.534	0.27
622.868	0.27
623.201	0.27
623.534	0.27
623.868	0.27
624.201	0.26
624.534	0.26
624.868	0.26
625.201	0.26
625.534	0.26
625.867	0.26
626.2	0.26
626.533	0.26
626.865	0.26
627.198	0.25
627.531	0.26
627.864	0.25
628.196	0.25
628.529	0.25
628.862	0.25
629.194	0.25
629.527	0.24
629.859	0.25
630.191	0.25
630.524	0.24
630.856	0.24
631.188	0.24
631.52	0.24
631.852	0.24
632.184	0.24
632.516	0.23
632.848	0.23
633.18	0.23
633.512	0.23
633.844	0.23
634.175	0.23
634.507	0.23
634.839	0.23
635.17	0.22
635.502	0.22
635.833	0.22
636.165	0.22
636.496	0.22
636.827	0.22
637.159	0.22
637.49	0.22
637.821	0.22
638.152	0.21
638.483	0.21
638.814	0.21
639.145	0.21
639.476	0.21
639.807	0.2
640.137	0.2
640.468	0.2
640.799	0.2
641.129	0.2
641.46	0.2
641.791	0.2
642.121	0.2
642.451	0.2
642.782	0.19
643.112	0.19
643.442	0.19
643.773	0.19
644.103	0.19
644.433	0.19
644.763	0.19
645.093	0.18
645.423	0.18
645.753	0.18
646.082	0.18
646.412	0.18
646.742	0.18
647.072	0.18
647.401	0.18
647.731	0.18
648.06	0.17
648.39	0.18
648.719	0.17
649.048	0.18
649.378	0.17
649.707	0.17
650.036	0.17
650.365	0.17
650.694	0.17
651.023	0.17
651.352	0.17
651.681	0.17
652.01	0.17
652.339	0.17
652.668	0.17
652.996	0.17
653.325	0.17
653.654	0.17
653.982	0.17
654.311	0.16
654.639	0.17
654.967	0.17
655.296	0.16
655.624	0.16
655.952	0.17
656.28	0.17
656.609	0.16
656.937	0.16
657.265	0.16
657.593	0.04
657.92	0
658.248	0
658.576	0
658.904	0.01
659.231	0.07
659.559	0.13
659.887	0.15
660.214	0.15
660.542	0.15
660.869	0.15
661.196	0.15
661.524	0.15
661.851	0.15
662.178	0.15
662.505	0.15
662.832	0.15
663.159	0.15
663.486	0.15
663.813	0.15
664.14	0.15
664.467	0.15
664.794	0.15
665.12	0.15
665.447	0.15
665.774	0.14
666.1	0.14
666.427	0.14
666.753	0.15
667.079	0.14
667.406	0.14
667.732	0.14
668.058	0.14
668.384	0.14
668.71	0.14
669.036	0.14
669.362	0.14
669.688	0.14
670.014	0.14
670.34	0.14
670.666	0.14
670.991	0.13
671.317	0.13
671.643	0.13
671.968	0.14
672.294	0.13
672.619	0.13
672.945	0.13
673.27	0.13
673.595	0.12
673.92	0.12
674.246	0.12
674.571	0.12
674.896	0.12
675.221	0.12
675.546	0.12
675.87	0.12
676.195	0.12
676.52	0.12
676.845	0.12
677.169	0.12
677.494	0.12
677.819	0.12
678.143	0.11
678.468	0.11
678.792	0.11
679.116	0.11
679.44	0.11
679.765	0.11
680.089	0.1
680.413	0.1
680.737	0.1
681.061	0.1
681.385	0.1
681.709	0.1
682.033	0.09
682.356	0.09
682.68	0.1
683.004	0.09
683.327	0.09
683.651	0.09
683.974	0.09
684.298	0.09
684.621	0.09
684.944	0.09
685.268	0.09
685.591	0.09
685.914	0.08
686.237	0.08
686.56	0.08
686.883	0.07
687.206	0.07
687.529	0.07
687.852	0.06
688.175	0.06
688.497	0.07
688.82	0.07
689.142	0.07
689.465	0.07
689.787	0.07
690.11	0.07
690.432	0.07
690.755	0.07
691.077	0.07
691.399	0.06
691.721	0.07
692.043	0.06
692.365	0.06
692.687	0.06
693.009	0.06
693.331	0.05
693.653	0.05
693.974	0.05
694.296	0.05
694.618	0.05
694.939	0.05
695.261	0.04
695.582	0.05
695.904	0.05
696.225	0.05
696.546	0.05
696.868	0.05
697.189	0.05
697.51	0.05
697.831	0.05
698.152	0.05
698.473	0.05
698.794	0.04
699.114	0.03
699.435	0.02
699.756	0.02
700.077	0.03
700.397	0.03
700.718	0.04
701.038	0.04
701.359	0.04
701.679	0.04
701.999	0.05
702.32	0.04
702.64	0.04
702.96	0.04
703.28	0.04
703.6	0.04
703.92	0.03
704.24	0.03
704.56	0.03
704.879	0.02
705.199	0.03
705.519	0.03
705.838	0.03
706.158	0.03
706.478	0.03
706.797	0.03
707.116	0.04
707.436	0.04
707.755	0.04
708.074	0.03
708.393	0.03
708.712	0.02
709.031	0.01
709.35	0.01
709.669	0.01
709.988	0.01
710.307	0.02
710.626	0.02
710.944	0.02
711.263	0.02
711.582	0.03
711.9	0.03
712.219	0.02
712.537	0.02
712.855	0.03
713.174	0.02
713.492	0.02
713.81	0.03
714.128	0.02
714.446	0.03
714.764	0.02
715.082	0.02
715.4	0.02
715.718	0.02
716.035	0.02
716.353	0.02
716.671	0.02
716.988	0.02
717.306	0.02
717.623	0.02
717.941	0.02
718.258	0.03
718.575	0.03
718.893	0.03
719.21	0.03
719.527	0.03
719.844	0.03
720.161	0.03
720.478	0.03
720.795	0.03
721.112	0.03
721.428	0.03
721.745	0.04
722.062	0.04
722.378	0.04
722.695	0.04
723.011	0.04
723.328	0.04
723.644	0.04
723.96	0.04
724.276	0.04
724.593	0.04
724.909	0.05
725.225	0.04
725.541	0.05
725.857	0.04
726.173	0.04
726.488	0.05
726.804	0.04
727.12	0.04
727.435	0.04
727.751	0.04
728.067	0.04
728.382	0.05
728.697	0.04
729.013	0.05
729.328	0.04
729.643	0.04
729.958	0.04
730.273	0.04
730.588	0.04
730.903	0.04
731.218	0.04
731.533	0.04
731.848	0.04
732.163	0.04
732.477	0.04
732.792	0.04
733.107	0.03
733.421	0.03
733.736	0.03
734.05	0.04
734.364	0.04
734.678	0.04
734.993	0.03
735.307	0.04
735.621	0.03
735.935	0.04
736.249	0.03
736.563	0.04
736.877	0.04
737.19	0.04
737.504	0.04
737.818	0.04
738.131	0.04
738.445	0.04
738.758	0.04
739.072	0.04
739.385	0.04
739.698	0.04
740.012	0.04
740.325	0.04
740.638	0.04
740.951	0.04
741.264	0.04
741.577	0.04
741.89	0.04
742.203	0.04
742.515	0.04
742.828	0.04
743.141	0.04
743.453	0.04
743.766	0.04
744.078	0.04
744.391	0.04
744.703	0.04
745.015	0.04
745.327	0.04
745.639	0.04
745.952	0.03
746.264	0.04
746.575	0.04
746.887	0.03
747.199	0.03
747.511	0.04
747.823	0.03
748.134	0.03
748.446	0.03
748.757	0.03
749.069	0.03
749.38	0.03
749.692	0.03
750.003	0.03
750.314	0.03
750.625	0.03
750.936	0.03
751.248	0.03
751.559	0.03
751.869	0.03
752.18	0.03
752.491	0.03
752.802	0.03
753.112	0.03
753.423	0.03
753.734	0.03
754.044	0.03
754.355	0.03
754.665	0.03
754.975	0.02
755.285	0.02
755.596	0.02
755.906	0.02
756.216	0.02
756.526	0.02
756.836	0.02
757.146	0.02
757.455	0.02
757.765	0.02
758.075	0.02
758.385	0.02
758.694	0.02
759.004	0.01
759.313	0.01
759.622	0.01
759.932	0.02
760.241	0.02
760.55	0.02
760.859	0.02
761.168	0.02
761.477	0.02
761.786	0.02
762.095	0.02
762.404	0.02
762.713	0.02
763.021	0.02
763.33	0.02
763.639	0.02
763.947	0.02
764.256	0.02
764.564	0.02
764.872	0.02
765.181	0.02
765.489	0.02
765.797	0.02
766.105	0.02
766.413	0.02
766.721	0.02
767.029	0.02
767.337	0.02
767.644	0.02
767.952	0.02
768.26	0.02
768.567	0.02
768.875	0.02
769.182	0.02
769.49	0.02
769.797	0.02
770.104	0.02
770.411	0.02
770.718	0.02
771.026	0.02
771.333	0.02
771.639	0.02
771.946	0.02
772.253	0.02
772.56	0.02
772.867	0.02
773.173	0.02
773.48	0.02
773.786	0.02
774.093	0.02
774.399	0.02
774.705	0.02
775.012	0.03
775.318	0.02
775.624	0.03
775.93	0.02
776.236	0.03
776.542	0.02
776.848	0.03
777.154	0.03
777.459	0.03
777.765	0.03
778.071	0.03
778.376	0.03
778.682	0.03
778.987	0.03
779.292	0.02
779.598	0.02
779.903	0.03
780.208	0.02
780.513	0.03
780.818	0.02
781.123	0.02
781.428	0.02
781.733	0.02
782.038	0.02
782.343	0.02
782.647	0.02
782.952	0.03
783.256	0.02
783.561	0.02
783.865	0.02
784.17	0.02
784.474	0.02
784.778	0.02
785.082	0.02
785.386	0.03
785.69	0.02
785.994	0.02
786.298	0.02
786.602	0.02
786.906	0.02
787.209	0.03
787.513	0.02
787.817	0.02
788.12	0.03
788.424	0.02
788.727	0.02
789.03	0.02
789.333	0.02
789.637	0.03
789.94	0.03
790.243	0.03
790.546	0.03
790.849	0.03
791.152	0.03
791.454	0.03
791.757	0.03
792.06	0.03
792.362	0.03
792.665	0.03
792.967	0.03
793.27	0.03
793.572	0.02
793.874	0.02
794.177	0.02
794.479	0.03
794.781	0.03
795.083	0.03
795.385	0.03
795.687	0.02
795.989	0.03
796.29	0.03
796.592	0.03
796.894	0.02
797.195	0.02
797.497	0.02
797.798	0.02
798.1	0.02
798.401	0.03
798.702	0.03
799.003	0.02
799.304	0.03
799.605	0.02
799.906	0.02
800.207	0.03
800.508	0.03
800.809	0.03
801.11	0.03
801.41	0.03
801.711	0.03
802.011	0.03
802.312	0.03
802.612	0.03
802.913	0.03
803.213	0.03
803.513	0.03
803.813	0.03
804.113	0.03
804.413	0.03
804.713	0.03
805.013	0.02
805.313	0.03
805.613	0.03
805.912	0.02
806.212	0.03
806.511	0.02
806.811	0.03
807.11	0.02
807.41	0.02
807.709	0.03
808.008	0.02
808.307	0.02
808.606	0.02
808.905	0.03
809.204	0.02
809.503	0.03
809.802	0.03
810.101	0.02
810.399	0.02
810.698	0.02
810.997	0.03
811.295	0.03
811.593	0.03
811.892	0.03
812.19	0.03
812.488	0.03
812.786	0.03
813.084	0.03
813.383	0.03
813.68	0.03
813.978	0.03
814.276	0.03
814.574	0.03
814.872	0.03
815.169	0.03
815.467	0.03
815.764	0.03
816.062	0.03
816.359	0.03
816.656	0.03
816.954	0.03
817.251	0.03
817.548	0.03
817.845	0.03
818.142	0.03
818.439	0.03
818.735	0.02
819.032	0.03
819.329	0.03
819.626	0.03
819.922	0.03
820.219	0.03
820.515	0.03
820.811	0.03
821.108	0.03
821.404	0.03
821.7	0.04
821.996	0.03
822.292	0.03
822.588	0.03
822.884	0.03
823.18	0.04
823.475	0.04
823.771	0.03
824.067	0.04
824.362	0.04
824.658	0.04
824.953	0.04
825.249	0.04
825.544	0.04
825.839	0.03
826.134	0.03
826.429	0.04
826.724	0.03
827.019	0.03
827.314	0.03
827.609	0.03
827.904	0.03
828.198	0.03
828.493	0.03
828.787	0.03
829.082	0.03
829.376	0.03
829.671	0.03
829.965	0.03
830.259	0.04
830.553	0.03
830.847	0.03
831.141	0.04
831.435	0.04
831.729	0.03
832.023	0.03
832.317	0.04
832.61	0.03
832.904	0.03
833.197	0.03
833.491	0.03
833.784	0.03
834.077	0.03
834.371	0.03
834.664	0.03
834.957	0.04
835.25	0.04
835.543	0.04
835.836	0.04
836.129	0.04
836.421	0.04
836.714	0.04
837.007	0.04
837.299	0.04
837.592	0.03
837.884	0.03
838.177	0.04
838.469	0.03
838.761	0.04
839.053	0.04
839.345	0.04
839.637	0.04
839.929	0.05
840.221	0.04
840.513	0.05
840.805	0.04
841.096	0.04
841.388	0.05
841.68	0.05
841.971	0.04
842.262	0.03
842.554	0.04
842.845	0.04
843.136	0.05
843.427	0.04
843.718	0.04
844.009	0.05
844.3	0.04
844.591	0.04
844.882	0.04
845.173	0.05
845.463	0.04
845.754	0.05
846.044	0.04
846.335	0.04
846.625	0.04
846.915	0.04
847.206	0.04
847.496	0.04
847.786	0.05
848.076	0.05
848.366	0.04
848.656	0.04
848.945	0.04
849.235	0.04
849.525	0.04
849.814	0.05
850.104	0.04
850.393	0.04
850.683	0.04
850.972	0.05
851.261	0.04
851.551	0.04
851.84	0.03
852.129	0.04
852.418	0.04
852.707	0.04
852.995	0.03
853.284	0.04
853.573	0.05
853.862	0.04
854.15	0.05
854.439	0.05
854.727	0.05
855.015	0.04
855.304	0.05
855.592	0.05
855.88	0.05
856.168	0.05
856.456	0.05
856.744	0.05
857.032	0.04
857.32	0.04
857.607	0.05
857.895	0.04
858.183	0.04
858.47	0.04
858.757	0.04
859.045	0.05
859.332	0.06
859.619	0.05
859.907	0.06
860.194	0.04
860.481	0.05
860.768	0.05
861.054	0.05
861.341	0.05
861.628	0.04
861.915	0.05
862.201	0.06
862.488	0.05
862.774	0.05
863.061	0.04
863.347	0.04
863.633	0.04
863.919	0.05
864.205	0.06
864.491	0.06
864.777	0.04
865.063	0.04
865.349	0.03
865.635	0.05
865.92	0.06
866.206	0.04
866.492	0.03
866.777	0.05
867.062	0.06
867.348	0.04
867.633	0.03
867.918	0.03
868.203	0.05
868.488	0.05
868.773	0.04
869.058	0.04
869.343	0.05
869.628	0.08
869.912	0.05
870.197	0.06
870.482	0.05
870.766	0.05
871.05	0.05
871.335	0.03
871.619	0.05
871.903	0.03
872.187	0.06
872.471	0.06
872.755	0.01
873.039	0.03
873.323	0.05
873.607	0.03
873.89	0.01
874.174	0.03
874.458	0.01
874.741	0.02
875.024	0.03
875.308	0.02
875.591	0.09
875.874	0.05
876.157	-0.01
876.44	0.02
876.723	0.03
877.006	0.06
877.289	0.03
877.572	0.03
877.854	0.03
878.137	0.08
878.42	-0.02
878.702	0.03
878.984	0.03
879.267	0.01
879.549	0.03
879.831	0.06
880.113	-0.02
880.395	0.07
880.677	0.1
880.959	0.07
