Data from Rubpy_BV_900_EDTA_Buffered_Absorbance_12-57-13-761.txt Node
Date: Wed Jul 01 12:57:13 BST 2026
User: fpm-admin
Spectrometer: OFX00224
Trigger mode: 0
Integration Time (sec): 7.000000E-2
Scans to average: 3
Nonlinearity correction enabled: false
Boxcar width: 0
Storing dark spectrum: false
XAxis mode: Wavelengths
Number of Pixels in Spectrum: 2136
>>>>>Begin Spectral Data<<<<<
154.91	-0.76
155.289	0.35
155.669	0.66
156.048	-0.18
156.428	-0.19
156.807	0.51
157.186	-0
157.566	-0
157.945	-0
158.325	-0
158.704	-0.2
159.083	-0.07
159.462	-0
159.842	0.65
160.221	0.43
160.6	-0.7
160.979	-0.27
161.359	-0
161.738	0.3
162.117	-0
162.496	-0.26
162.875	-0.15
163.254	-0.12
163.633	-0
164.012	-0
164.391	-0
164.77	0.22
165.149	-0.01
165.528	-0.24
165.907	-1.15
166.286	-0.03
166.665	-0
167.044	0.03
167.423	-0.21
167.802	-0.34
168.181	-0.6
168.559	-0
168.938	0.24
169.317	0.43
169.696	0.36
170.074	0.59
170.453	0.24
170.832	-0
171.21	-0
171.589	-0.27
171.968	-0
172.346	-0
172.725	0.41
173.103	-0
173.482	-0
173.861	-0
174.239	-0
174.617	-0
174.996	-0.09
175.374	-0.18
175.753	0.19
176.131	-0
176.51	-0.03
176.888	0.86
177.266	0.52
177.645	-0.1
178.023	0.22
178.401	-0.06
178.779	-0.17
179.158	-0
179.536	-0.14
179.914	-0.21
180.292	-0
180.67	0.36
181.048	-0.12
181.427	0.01
181.805	-0
182.183	-0
182.561	-0.1
182.939	-0
183.317	-0.92
183.695	-0
184.073	-0.4
184.451	-0
184.829	-0.08
185.206	-0.43
185.584	-1.43
185.962	-0
186.34	-0
186.718	0.3
187.096	-1.15
187.473	1.02
187.851	-0.11
188.229	-0
188.607	0.03
188.984	0.11
189.362	0.05
189.74	-0.05
190.117	-0.04
190.495	0.05
190.872	0.1
191.25	0.05
191.627	-0.05
192.005	-0.02
192.382	0.07
192.76	0.08
193.137	0.08
193.515	0.02
193.892	0.1
194.269	0.12
194.647	0.07
195.024	0.05
195.401	-0.03
195.779	0.03
196.156	-0.01
196.533	0.03
196.91	0.06
197.288	0.1
197.665	0.03
198.042	-0.01
198.419	0.09
198.796	-0.01
199.173	0.13
199.55	0.07
199.927	0.04
200.304	-0
200.681	0.13
201.058	0.1
201.435	0.09
201.812	0.09
202.189	0.07
202.566	0.04
202.943	0.06
203.32	0.1
203.697	0.08
204.073	0.14
204.45	0.03
204.827	0.09
205.204	-0.01
205.58	0.04
205.957	0.13
206.334	0.06
206.71	0.17
207.087	0.11
207.464	0.09
207.84	0.03
208.217	0.06
208.593	-0.05
208.97	0.04
209.346	0.14
209.723	0.01
210.099	0.03
210.476	0.05
210.852	0.05
211.228	0.15
211.605	0.14
211.981	0.07
212.357	0.09
212.733	0.03
213.11	0.02
213.486	0.08
213.862	-0.02
214.238	0.12
214.614	0.06
214.991	0.06
215.367	0.01
215.743	0.04
216.119	0.03
216.495	-0.01
216.871	0.01
217.247	0.04
217.623	0.01
217.999	0.11
218.375	0.01
218.751	0.07
219.127	0.05
219.502	0.04
219.878	0.07
220.254	0.07
220.63	0.05
221.006	-0.01
221.381	0.06
221.757	0.07
222.133	0.05
222.508	0.05
222.884	0.02
223.26	0.04
223.635	0.04
224.011	0.07
224.386	0.08
224.762	0.07
225.137	0.09
225.513	0.09
225.888	-0.13
226.264	-0.04
226.639	0.15
227.014	0.04
227.39	0.17
227.765	0.13
228.14	0.03
228.516	0.01
228.891	0.11
229.266	0.14
229.641	0.12
230.017	0.05
230.392	0.13
230.767	0.11
231.142	0.05
231.517	0.06
231.892	-0.08
232.267	0.12
232.642	-0.01
233.017	0.07
233.392	0.08
233.767	0.11
234.142	0.12
234.517	0.06
234.892	-0.02
235.267	0.06
235.641	0.02
236.016	0.17
236.391	0.06
236.766	0.05
237.14	0.05
237.515	0.02
237.89	0.04
238.264	0.02
238.639	0.06
239.014	0.06
239.388	0.09
239.763	0.05
240.137	0.02
240.512	0.12
240.886	0.06
241.261	0.03
241.635	0.07
242.009	0
242.384	0
242.758	-0.01
243.132	0.12
243.507	0.1
243.881	0.05
244.255	0.07
244.629	0.08
245.004	0.1
245.378	0.02
245.752	0.03
246.126	0.03
246.5	0.11
246.874	-0.02
247.248	0.05
247.622	0.08
247.996	0.08
248.37	0.12
248.744	0.02
249.118	0.07
249.492	0.07
249.866	0.08
250.24	0.1
250.613	0.01
250.987	0.05
251.361	0.06
251.735	0.12
252.108	0.07
252.482	0.08
252.856	-0.02
253.229	0.12
253.603	0.02
253.977	0.01
254.35	0.09
254.724	0.1
255.097	0.08
255.471	0.05
255.844	-0.03
256.218	0.07
256.591	0.02
256.964	-0.01
257.338	0.06
257.711	0.05
258.084	0.05
258.458	0.11
258.831	0.1
259.204	0.05
259.577	0.14
259.95	0.1
260.323	0.07
260.697	0.09
261.07	0.06
261.443	0.04
261.816	0.11
262.189	0.11
262.562	0.09
262.935	0.11
263.308	0.05
263.68	0.14
264.053	0.11
264.426	0.06
264.799	0.03
265.172	0.13
265.545	0.09
265.917	0.07
266.29	0.05
266.663	0.12
267.035	0.12
267.408	0.06
267.781	0.1
268.153	0.03
268.526	0.06
268.898	0.03
269.271	0.03
269.643	-0.02
270.016	0.12
270.388	0.12
270.76	0.06
271.133	0.09
271.505	0.13
271.877	0.1
272.25	0.08
272.622	-0.01
272.994	0.05
273.366	0.05
273.739	0.1
274.111	0.06
274.483	0.05
274.855	0.08
275.227	0.08
275.599	0.09
275.971	0.07
276.343	0.07
276.715	0.17
277.087	0.02
277.459	0
277.831	0.13
278.203	0.04
278.574	0.11
278.946	0.09
279.318	0.03
279.69	0.09
280.061	0.09
280.433	0.01
280.805	0.03
281.176	0.04
281.548	0.04
281.92	0.06
282.291	0.03
282.663	0.07
283.034	0.02
283.406	0.01
283.777	0.11
284.148	0.03
284.52	0.09
284.891	0.07
285.262	0.09
285.634	0.07
286.005	0.08
286.376	0.01
286.747	0.03
287.119	0.08
287.49	0.1
287.861	0.07
288.232	0.09
288.603	0.1
288.974	0.07
289.345	0.03
289.716	0.09
290.087	0.08
290.458	0.1
290.829	0.08
291.2	0.08
291.571	0.06
291.941	0.06
292.312	0.07
292.683	0.09
293.054	0.04
293.424	0.07
293.795	0.1
294.166	0.11
294.536	0.06
294.907	0.03
295.277	0.05
295.648	0.05
296.018	0.08
296.389	0.08
296.759	0.07
297.13	0.04
297.5	0.08
297.871	0.14
298.241	0.07
298.611	0.06
298.981	0.04
299.352	0.07
299.722	0.12
300.092	0.07
300.462	0.05
300.832	0.09
301.202	0.06
301.573	0.05
301.943	0.08
302.313	0.06
302.683	0.06
303.053	0.07
303.422	0.01
303.792	0.07
304.162	0.06
304.532	0.04
304.902	0.06
305.272	0.05
305.641	0.04
306.011	0.06
306.381	0.05
306.75	0.05
307.12	0.04
307.49	0.04
307.859	0.05
308.229	0.04
308.598	0.05
308.968	0.04
309.337	0.05
309.707	0.03
310.076	0.05
310.445	0.03
310.815	0.04
311.184	0.03
311.553	0.03
311.923	0.03
312.292	0.05
312.661	0.05
313.03	0.03
313.399	0.04
313.768	0.04
314.137	0.04
314.506	0.05
314.875	0.05
315.244	0.05
315.613	0.05
315.982	0.05
316.351	0.06
316.72	0.06
317.089	0.06
317.458	0.06
317.826	0.05
318.195	0.06
318.564	0.05
318.933	0.06
319.301	0.06
319.67	0.06
320.038	0.06
320.407	0.07
320.775	0.06
321.144	0.06
321.512	0.05
321.881	0.06
322.249	0.06
322.618	0.06
322.986	0.07
323.354	0.07
323.723	0.07
324.091	0.07
324.459	0.06
324.827	0.07
325.195	0.07
325.564	0.07
325.932	0.07
326.3	0.07
326.668	0.07
327.036	0.07
327.404	0.08
327.772	0.08
328.14	0.08
328.508	0.08
328.875	0.07
329.243	0.08
329.611	0.07
329.979	0.08
330.346	0.08
330.714	0.09
331.082	0.08
331.449	0.09
331.817	0.09
332.185	0.08
332.552	0.1
332.92	0.1
333.287	0.09
333.655	0.09
334.022	0.1
334.389	0.1
334.757	0.1
335.124	0.1
335.491	0.1
335.859	0.11
336.226	0.11
336.593	0.11
336.96	0.11
337.327	0.11
337.695	0.12
338.062	0.11
338.429	0.12
338.796	0.12
339.163	0.12
339.53	0.12
339.897	0.12
340.263	0.13
340.63	0.13
340.997	0.13
341.364	0.13
341.731	0.13
342.097	0.13
342.464	0.14
342.831	0.14
343.197	0.14
343.564	0.15
343.931	0.15
344.297	0.15
344.664	0.15
345.03	0.15
345.396	0.16
345.763	0.16
346.129	0.16
346.496	0.17
346.862	0.16
347.228	0.17
347.594	0.17
347.961	0.17
348.327	0.18
348.693	0.18
349.059	0.18
349.425	0.18
349.791	0.19
350.157	0.19
350.523	0.19
350.889	0.19
351.255	0.2
351.621	0.2
351.987	0.2
352.353	0.2
352.719	0.2
353.084	0.2
353.45	0.21
353.816	0.22
354.181	0.22
354.547	0.21
354.913	0.22
355.278	0.23
355.644	0.23
356.009	0.23
356.375	0.23
356.74	0.24
357.106	0.24
357.471	0.24
357.836	0.24
358.202	0.24
358.567	0.25
358.932	0.26
359.297	0.26
359.663	0.26
360.028	0.27
360.393	0.28
360.758	0.27
361.123	0.28
361.488	0.29
361.853	0.28
362.218	0.3
362.583	0.3
362.948	0.3
363.312	0.3
363.677	0.31
364.042	0.31
364.407	0.31
364.772	0.32
365.136	0.32
365.501	0.33
365.865	0.33
366.23	0.33
366.595	0.33
366.959	0.34
367.324	0.34
367.688	0.35
368.052	0.35
368.417	0.35
368.781	0.36
369.145	0.36
369.51	0.36
369.874	0.37
370.238	0.37
370.602	0.37
370.967	0.38
371.331	0.37
371.695	0.37
372.059	0.38
372.423	0.38
372.787	0.39
373.151	0.38
373.515	0.38
373.878	0.38
374.242	0.38
374.606	0.38
374.97	0.37
375.334	0.37
375.697	0.37
376.061	0.37
376.425	0.36
376.788	0.36
377.152	0.35
377.515	0.36
377.879	0.35
378.242	0.34
378.606	0.34
378.969	0.34
379.333	0.33
379.696	0.33
380.059	0.33
380.422	0.33
380.786	0.32
381.149	0.32
381.512	0.32
381.875	0.32
382.238	0.32
382.601	0.31
382.964	0.31
383.327	0.31
383.69	0.31
384.053	0.31
384.416	0.31
384.779	0.31
385.142	0.31
385.504	0.31
385.867	0.31
386.23	0.31
386.593	0.31
386.955	0.31
387.318	0.31
387.68	0.32
388.043	0.31
388.405	0.32
388.768	0.32
389.13	0.32
389.493	0.32
389.855	0.32
390.217	0.32
390.58	0.31
390.942	0.32
391.304	0.31
391.666	0.31
392.028	0.31
392.391	0.3
392.753	0.3
393.115	0.3
393.477	0.29
393.839	0.29
394.201	0.3
394.563	0.29
394.924	0.29
395.286	0.3
395.648	0.3
396.01	0.3
396.371	0.31
396.733	0.31
397.095	0.31
397.456	0.32
397.818	0.33
398.18	0.34
398.541	0.35
398.903	0.36
399.264	0.37
399.625	0.38
399.987	0.39
400.348	0.4
400.709	0.4
401.071	0.4
401.432	0.41
401.793	0.41
402.154	0.41
402.515	0.41
402.876	0.4
403.238	0.39
403.599	0.39
403.96	0.37
404.32	0.35
404.681	0.34
405.042	0.33
405.403	0.31
405.764	0.3
406.125	0.28
406.485	0.27
406.846	0.25
407.207	0.24
407.567	0.22
407.928	0.21
408.288	0.2
408.649	0.19
409.009	0.18
409.37	0.17
409.73	0.16
410.091	0.15
410.451	0.14
410.811	0.13
411.171	0.13
411.532	0.12
411.892	0.11
412.252	0.1
412.612	0.1
412.972	0.1
413.332	0.1
413.692	0.09
414.052	0.09
414.412	0.08
414.772	0.08
415.132	0.07
415.492	0.07
415.851	0.07
416.211	0.07
416.571	0.07
416.931	0.07
417.29	0.06
417.65	0.05
418.009	0.06
418.369	0.06
418.728	0.06
419.088	0.05
419.447	0.04
419.807	0.05
420.166	0.05
420.525	0.05
420.884	0.05
421.244	0.05
421.603	0.04
421.962	0.05
422.321	0.04
422.68	0.04
423.039	0.04
423.398	0.04
423.757	0.04
424.116	0.05
424.475	0.04
424.834	0.04
425.193	0.04
425.551	0.04
425.91	0.04
426.269	0.03
426.628	0.03
426.986	0.04
427.345	0.04
427.703	0.04
428.062	0.04
428.42	0.03
428.779	0.03
429.137	0.03
429.496	0.03
429.854	0.04
430.212	0.04
430.57	0.03
430.929	0.03
431.287	0.04
431.645	0.03
432.003	0.03
432.361	0.03
432.719	0.03
433.077	0.03
433.435	0.03
433.793	0.03
434.151	0.03
434.509	0.03
434.866	0.03
435.224	0.03
435.582	0.03
435.94	0.03
436.297	0.03
436.655	0.03
437.012	0.02
437.37	0.03
437.727	0.03
438.085	0.04
438.442	0.03
438.8	0.03
439.157	0.03
439.514	0.03
439.872	0.03
440.229	0.04
440.586	0.03
440.943	0.03
441.3	0.03
441.657	0.04
442.014	0.03
442.371	0.02
442.728	0.02
443.085	0.02
443.442	0.04
443.799	0.03
444.156	0.03
444.513	0.03
444.869	0.03
445.226	0.03
445.583	0.03
445.939	0.03
446.296	0.03
446.652	0.03
447.009	0.03
447.365	0.02
447.722	0.03
448.078	0.03
448.434	0.02
448.791	0.02
449.147	0.03
449.503	0.03
449.859	0.03
450.215	0.02
450.571	0.03
450.928	0.03
451.284	0.02
451.64	0.03
451.995	0.03
452.351	0.03
452.707	0.03
453.063	0.03
453.419	0.02
453.775	0.03
454.13	0.02
454.486	0.03
454.842	0.03
455.197	0.03
455.553	0.02
455.908	0.03
456.264	0.03
456.619	0.03
456.975	0.03
457.33	0.03
457.685	0.03
458.04	0.03
458.396	0.03
458.751	0.03
459.106	0.03
459.461	0.02
459.816	0.02
460.171	0.03
460.526	0.02
460.881	0.03
461.236	0.02
461.591	0.02
461.946	0.02
462.301	0.03
462.655	0.02
463.01	0.03
463.365	0.03
463.719	0.03
464.074	0.02
464.428	0.02
464.783	0.02
465.137	0.02
465.492	0.03
465.846	0.03
466.201	0.03
466.555	0.03
466.909	0.03
467.263	0.03
467.618	0.03
467.972	0.02
468.326	0.03
468.68	0.03
469.034	0.02
469.388	0.03
469.742	0.03
470.096	0.02
470.45	0.02
470.804	0.03
471.157	0.03
471.511	0.03
471.865	0.03
472.218	0.03
472.572	0.03
472.926	0.03
473.279	0.04
473.633	0.04
473.986	0.03
474.34	0.04
474.693	0.04
475.046	0.04
475.4	0.04
475.753	0.04
476.106	0.04
476.459	0.04
476.812	0.04
477.165	0.05
477.519	0.05
477.872	0.04
478.224	0.05
478.577	0.05
478.93	0.05
479.283	0.05
479.636	0.05
479.989	0.05
480.341	0.05
480.694	0.05
481.047	0.05
481.399	0.06
481.752	0.06
482.104	0.05
482.457	0.06
482.809	0.06
483.162	0.06
483.514	0.06
483.866	0.06
484.219	0.06
484.571	0.06
484.923	0.06
485.275	0.07
485.627	0.06
485.979	0.07
486.331	0.07
486.683	0.07
487.035	0.07
487.387	0.07
487.739	0.07
488.091	0.07
488.443	0.07
488.794	0.07
489.146	0.07
489.498	0.07
489.849	0.08
490.201	0.08
490.552	0.07
490.904	0.07
491.255	0.07
491.607	0.08
491.958	0.08
492.309	0.07
492.661	0.08
493.012	0.08
493.363	0.08
493.714	0.09
494.065	0.08
494.416	0.08
494.767	0.09
495.118	0.08
495.469	0.08
495.82	0.09
496.171	0.09
496.522	0.09
496.872	0.09
497.223	0.09
497.574	0.09
497.924	0.09
498.275	0.1
498.626	0.09
498.976	0.09
499.327	0.09
499.677	0.1
500.027	0.09
500.378	0.1
500.728	0.1
501.078	0.1
501.428	0.1
501.779	0.1
502.129	0.1
502.479	0.1
502.829	0.1
503.179	0.1
503.529	0.1
503.879	0.1
504.229	0.1
504.578	0.1
504.928	0.1
505.278	0.1
505.628	0.11
505.977	0.11
506.327	0.11
506.676	0.11
507.026	0.11
507.375	0.11
507.725	0.11
508.074	0.11
508.424	0.11
508.773	0.11
509.122	0.12
509.471	0.12
509.82	0.12
510.17	0.12
510.519	0.12
510.868	0.12
511.217	0.12
511.566	0.12
511.915	0.12
512.263	0.12
512.612	0.12
512.961	0.13
513.31	0.12
513.659	0.12
514.007	0.13
514.356	0.12
514.704	0.12
515.053	0.13
515.401	0.13
515.75	0.13
516.098	0.13
516.447	0.13
516.795	0.13
517.143	0.13
517.491	0.13
517.839	0.13
518.188	0.14
518.536	0.13
518.884	0.13
519.232	0.13
519.58	0.14
519.928	0.13
520.275	0.14
520.623	0.14
520.971	0.14
521.319	0.14
521.666	0.14
522.014	0.14
522.362	0.14
522.709	0.14
523.057	0.14
523.404	0.14
523.752	0.15
524.099	0.14
524.446	0.14
524.794	0.14
525.141	0.14
525.488	0.15
525.835	0.15
526.182	0.15
526.529	0.14
526.876	0.15
527.223	0.15
527.57	0.15
527.917	0.15
528.264	0.15
528.611	0.15
528.958	0.15
529.304	0.15
529.651	0.15
529.998	0.15
530.344	0.15
530.691	0.15
531.037	0.15
531.384	0.16
531.73	0.15
532.076	0.16
532.423	0.15
532.769	0.16
533.115	0.16
533.461	0.16
533.807	0.16
534.154	0.16
534.5	0.16
534.846	0.16
535.192	0.16
535.537	0.16
535.883	0.16
536.229	0.16
536.575	0.16
536.921	0.16
537.266	0.16
537.612	0.16
537.957	0.16
538.303	0.16
538.649	0.16
538.994	0.16
539.339	0.16
539.685	0.16
540.03	0.16
540.375	0.16
540.721	0.16
541.066	0.16
541.411	0.17
541.756	0.17
542.101	0.17
542.446	0.17
542.791	0.17
543.136	0.17
543.481	0.17
543.825	0.17
544.17	0.17
544.515	0.17
544.86	0.17
545.204	0.17
545.549	0.17
545.893	0.17
546.238	0.17
546.582	0.17
546.927	0.17
547.271	0.17
547.615	0.17
547.96	0.17
548.304	0.17
548.648	0.17
548.992	0.17
549.336	0.17
549.68	0.17
550.024	0.18
550.368	0.17
550.712	0.17
551.056	0.17
551.4	0.17
551.743	0.18
552.087	0.17
552.431	0.18
552.774	0.18
553.118	0.18
553.462	0.18
553.805	0.18
554.148	0.18
554.492	0.18
554.835	0.18
555.178	0.17
555.522	0.18
555.865	0.18
556.208	0.18
556.551	0.17
556.894	0.18
557.237	0.18
557.58	0.18
557.923	0.18
558.266	0.18
558.609	0.18
558.952	0.18
559.294	0.18
559.637	0.18
559.98	0.18
560.322	0.18
560.665	0.18
561.007	0.18
561.35	0.18
561.692	0.18
562.034	0.18
562.377	0.18
562.719	0.18
563.061	0.18
563.403	0.18
563.745	0.18
564.088	0.18
564.43	0.18
564.772	0.18
565.113	0.18
565.455	0.18
565.797	0.17
566.139	0.18
566.481	0.18
566.822	0.18
567.164	0.18
567.506	0.18
567.847	0.18
568.189	0.18
568.53	0.17
568.872	0.18
569.213	0.18
569.554	0.17
569.895	0.18
570.237	0.17
570.578	0.18
570.919	0.17
571.26	0.17
571.601	0.17
571.942	0.17
572.283	0.17
572.624	0.17
572.965	0.17
573.306	0.17
573.646	0.16
573.987	0.16
574.328	0.17
574.668	0.16
575.009	0.16
575.349	0.16
575.69	0.16
576.03	0.16
576.37	0.16
576.711	0.15
577.051	0.15
577.391	0.15
577.731	0.16
578.072	0.16
578.412	0.16
578.752	0.16
579.092	0.15
579.431	0.14
579.771	0.11
580.111	0.1
580.451	0.11
580.791	0.14
581.13	0.15
581.47	0.15
581.81	0.15
582.149	0.15
582.489	0.15
582.828	0.14
583.167	0.11
583.507	0.07
583.846	0.06
584.185	0.08
584.525	0.1
584.864	0.13
585.203	0.15
585.542	0.16
585.881	0.16
586.22	0.16
586.559	0.15
586.898	0.13
587.236	0.12
587.575	0.12
587.914	0.12
588.252	0.14
588.591	0.15
588.93	0.15
589.268	0.14
589.607	0.15
589.945	0.14
590.283	0.15
590.622	0.15
590.96	0.15
591.298	0.16
591.636	0.16
591.974	0.16
592.313	0.16
592.651	0.16
592.989	0.16
593.326	0.17
593.664	0.16
594.002	0.16
594.34	0.16
594.678	0.15
595.015	0.14
595.353	0.13
595.691	0.14
596.028	0.16
596.366	0.16
596.703	0.16
597.04	0.16
597.378	0.16
597.715	0.16
598.052	0.16
598.389	0.17
598.726	0.17
599.064	0.17
599.401	0.16
599.738	0.17
600.074	0.17
600.411	0.17
600.748	0.16
601.085	0.15
601.422	0.15
601.758	0.14
602.095	0.15
602.432	0.15
602.768	0.15
603.105	0.16
603.441	0.16
603.777	0.16
604.114	0.16
604.45	0.17
604.786	0.17
605.122	0.17
605.459	0.16
605.795	0.16
606.131	0.16
606.467	0.16
606.803	0.16
607.139	0.16
607.474	0.16
607.81	0.16
608.146	0.16
608.482	0.16
608.817	0.16
609.153	0.16
609.488	0.15
609.824	0.16
610.159	0.16
610.495	0.16
610.83	0.16
611.165	0.16
611.5	0.16
611.836	0.16
612.171	0.16
612.506	0.16
612.841	0.16
613.176	0.16
613.511	0.16
613.845	0.16
614.18	0.16
614.515	0.16
614.85	0.16
615.184	0.16
615.519	0.16
615.854	0.16
616.188	0.16
616.523	0.15
616.857	0.16
617.191	0.15
617.526	0.15
617.86	0.15
618.194	0.15
618.528	0.15
618.862	0.15
619.196	0.15
619.53	0.15
619.864	0.15
620.198	0.15
620.532	0.15
620.866	0.15
621.2	0.15
621.533	0.15
621.867	0.15
622.201	0.15
622.534	0.15
622.868	0.15
623.201	0.15
623.534	0.15
623.868	0.15
624.201	0.14
624.534	0.14
624.868	0.14
625.201	0.14
625.534	0.15
625.867	0.14
626.2	0.14
626.533	0.14
626.865	0.14
627.198	0.14
627.531	0.14
627.864	0.14
628.196	0.14
628.529	0.14
628.862	0.14
629.194	0.14
629.527	0.14
629.859	0.14
630.191	0.13
630.524	0.13
630.856	0.13
631.188	0.13
631.52	0.13
631.852	0.13
632.184	0.13
632.516	0.13
632.848	0.13
633.18	0.13
633.512	0.13
633.844	0.12
634.175	0.12
634.507	0.13
634.839	0.12
635.17	0.12
635.502	0.12
635.833	0.12
636.165	0.12
636.496	0.12
636.827	0.12
637.159	0.12
637.49	0.12
637.821	0.12
638.152	0.12
638.483	0.12
638.814	0.12
639.145	0.12
639.476	0.11
639.807	0.11
640.137	0.11
640.468	0.11
640.799	0.11
641.129	0.11
641.46	0.11
641.791	0.11
642.121	0.11
642.451	0.11
642.782	0.11
643.112	0.11
643.442	0.1
643.773	0.1
644.103	0.1
644.433	0.1
644.763	0.1
645.093	0.1
645.423	0.1
645.753	0.1
646.082	0.1
646.412	0.1
646.742	0.1
647.072	0.1
647.401	0.1
647.731	0.1
648.06	0.09
648.39	0.1
648.719	0.1
649.048	0.1
649.378	0.1
649.707	0.1
650.036	0.1
650.365	0.1
650.694	0.09
651.023	0.1
651.352	0.09
651.681	0.09
652.01	0.1
652.339	0.1
652.668	0.09
652.996	0.1
653.325	0.09
653.654	0.09
653.982	0.09
654.311	0.09
654.639	0.09
654.967	0.09
655.296	0.09
655.624	0.09
655.952	0.09
656.28	0.1
656.609	0.09
656.937	0.09
657.265	0.09
657.593	0
657.92	0
658.248	-0
658.576	0
658.904	-0
659.231	0.01
659.559	0.07
659.887	0.08
660.214	0.08
660.542	0.08
660.869	0.09
661.196	0.09
661.524	0.08
661.851	0.08
662.178	0.08
662.505	0.08
662.832	0.08
663.159	0.09
663.486	0.08
663.813	0.08
664.14	0.08
664.467	0.08
664.794	0.08
665.12	0.08
665.447	0.08
665.774	0.08
666.1	0.08
666.427	0.08
666.753	0.08
667.079	0.08
667.406	0.08
667.732	0.08
668.058	0.08
668.384	0.08
668.71	0.08
669.036	0.08
669.362	0.08
669.688	0.08
670.014	0.08
670.34	0.08
670.666	0.08
670.991	0.08
671.317	0.07
671.643	0.08
671.968	0.08
672.294	0.07
672.619	0.07
672.945	0.07
673.27	0.07
673.595	0.07
673.92	0.07
674.246	0.07
674.571	0.07
674.896	0.07
675.221	0.07
675.546	0.07
675.87	0.07
676.195	0.07
676.52	0.07
676.845	0.07
677.169	0.07
677.494	0.07
677.819	0.07
678.143	0.07
678.468	0.06
678.792	0.06
679.116	0.07
679.44	0.06
679.765	0.06
680.089	0.06
680.413	0.06
680.737	0.06
681.061	0.06
681.385	0.06
681.709	0.05
682.033	0.05
682.356	0.05
682.68	0.06
683.004	0.05
683.327	0.05
683.651	0.05
683.974	0.05
684.298	0.05
684.621	0.05
684.944	0.05
685.268	0.05
685.591	0.05
685.914	0.05
686.237	0.04
686.56	0.04
686.883	0.04
687.206	0.04
687.529	0.03
687.852	0.03
688.175	0.03
688.497	0.04
688.82	0.04
689.142	0.03
689.465	0.03
689.787	0.04
690.11	0.04
690.432	0.04
690.755	0.04
691.077	0.04
691.399	0.03
691.721	0.03
692.043	0.03
692.365	0.03
692.687	0.03
693.009	0.03
693.331	0.02
693.653	0.02
693.974	0.03
694.296	0.02
694.618	0.03
694.939	0.02
695.261	0.02
695.582	0.02
695.904	0.02
696.225	0.03
696.546	0.03
696.868	0.03
697.189	0.03
697.51	0.02
697.831	0.02
698.152	0.03
698.473	0.02
698.794	0.02
699.114	0.01
699.435	0
699.756	0.01
700.077	0.01
700.397	0.01
700.718	0.02
701.038	0.02
701.359	0.02
701.679	0.02
701.999	0.02
702.32	0.02
702.64	0.02
702.96	0.02
703.28	0.02
703.6	0.02
703.92	0.02
704.24	0.01
704.56	0.01
704.879	0.01
705.199	0.01
705.519	0.01
705.838	0.01
706.158	0.01
706.478	0.01
706.797	0.02
707.116	0.02
707.436	0.02
707.755	0.02
708.074	0.01
708.393	0.01
708.712	0.01
709.031	0
709.35	0
709.669	0
709.988	0
710.307	0.01
710.626	0
710.944	0.01
711.263	0.01
711.582	0.01
711.9	0.01
712.219	0.01
712.537	0.01
712.855	0.01
713.174	0.01
713.492	0.01
713.81	0.01
714.128	0.01
714.446	0.01
714.764	0.01
715.082	0
715.4	0.01
715.718	0.01
716.035	0.01
716.353	0.01
716.671	0.01
716.988	0.01
717.306	0
717.623	0.01
717.941	0.01
718.258	0.01
718.575	0.01
718.893	0.01
719.21	0.01
719.527	0.02
719.844	0.01
720.161	0.01
720.478	0.01
720.795	0.01
721.112	0.01
721.428	0.01
721.745	0.02
722.062	0.02
722.378	0.02
722.695	0.02
723.011	0.02
723.328	0.02
723.644	0.02
723.96	0.02
724.276	0.02
724.593	0.02
724.909	0.03
725.225	0.02
725.541	0.03
725.857	0.02
726.173	0.02
726.488	0.03
726.804	0.02
727.12	0.02
727.435	0.02
727.751	0.02
728.067	0.02
728.382	0.02
728.697	0.02
729.013	0.02
729.328	0.02
729.643	0.02
729.958	0.02
730.273	0.03
730.588	0.02
730.903	0.02
731.218	0.02
731.533	0.02
731.848	0.02
732.163	0.02
732.477	0.02
732.792	0.02
733.107	0.01
733.421	0.01
733.736	0.01
734.05	0.02
734.364	0.02
734.678	0.02
734.993	0.02
735.307	0.02
735.621	0.01
735.935	0.02
736.249	0.02
736.563	0.02
736.877	0.02
737.19	0.02
737.504	0.02
737.818	0.02
738.131	0.02
738.445	0.02
738.758	0.02
739.072	0.02
739.385	0.02
739.698	0.02
740.012	0.02
740.325	0.02
740.638	0.02
740.951	0.02
741.264	0.02
741.577	0.02
741.89	0.02
742.203	0.02
742.515	0.02
742.828	0.02
743.141	0.02
743.453	0.02
743.766	0.02
744.078	0.02
744.391	0.02
744.703	0.02
745.015	0.02
745.327	0.02
745.639	0.02
745.952	0.02
746.264	0.02
746.575	0.02
746.887	0.02
747.199	0.02
747.511	0.02
747.823	0.02
748.134	0.02
748.446	0.02
748.757	0.02
749.069	0.02
749.38	0.02
749.692	0.02
750.003	0.02
750.314	0.02
750.625	0.02
750.936	0.02
751.248	0.01
751.559	0.02
751.869	0.01
752.18	0.02
752.491	0.01
752.802	0.01
753.112	0.01
753.423	0.01
753.734	0.01
754.044	0.02
754.355	0.01
754.665	0.01
754.975	0.01
755.285	0.01
755.596	0.01
755.906	0.01
756.216	0.01
756.526	0.01
756.836	0.01
757.146	0.01
757.455	0.01
757.765	0.01
758.075	0.01
758.385	0.01
758.694	0.01
759.004	0.01
759.313	0.01
759.622	0.01
759.932	0.01
760.241	0.01
760.55	0.01
760.859	0.01
761.168	0.01
761.477	0.01
761.786	0.01
762.095	0.01
762.404	0.01
762.713	0.01
763.021	0.01
763.33	0.01
763.639	0.01
763.947	0.01
764.256	0.01
764.564	0.01
764.872	0.01
765.181	0.01
765.489	0.01
765.797	0.01
766.105	0.01
766.413	0.01
766.721	0.01
767.029	0.01
767.337	0.01
767.644	0.01
767.952	0.01
768.26	0.01
768.567	0.01
768.875	0.01
769.182	0.01
769.49	0.01
769.797	0.01
770.104	0.01
770.411	0.01
770.718	0.01
771.026	0.01
771.333	0.01
771.639	0.01
771.946	0.01
772.253	0.01
772.56	0.01
772.867	0.01
773.173	0.01
773.48	0.01
773.786	0.01
774.093	0.01
774.399	0.01
774.705	0.02
775.012	0.01
775.318	0.02
775.624	0.02
775.93	0.01
776.236	0.01
776.542	0.01
776.848	0.01
777.154	0.02
777.459	0.01
777.765	0.01
778.071	0.01
778.376	0.02
778.682	0.02
778.987	0.02
779.292	0.01
779.598	0.01
779.903	0.01
780.208	0.01
780.513	0.02
780.818	0.01
781.123	0.01
781.428	0.02
781.733	0.01
782.038	0.01
782.343	0.01
782.647	0.01
782.952	0.02
783.256	0.02
783.561	0.01
783.865	0.02
784.17	0.02
784.474	0.01
784.778	0.01
785.082	0.01
785.386	0.02
785.69	0.01
785.994	0.01
786.298	0.01
786.602	0.01
786.906	0.01
787.209	0.01
787.513	0.01
787.817	0.01
788.12	0.02
788.424	0.01
788.727	0.01
789.03	0.01
789.333	0.02
789.637	0.02
789.94	0.02
790.243	0.02
790.546	0.02
790.849	0.02
791.152	0.02
791.454	0.02
791.757	0.02
792.06	0.02
792.362	0.02
792.665	0.02
792.967	0.02
793.27	0.02
793.572	0.01
793.874	0.01
794.177	0.02
794.479	0.02
794.781	0.01
795.083	0.01
795.385	0.01
795.687	0.02
795.989	0.01
796.29	0.02
796.592	0.01
796.894	0.01
797.195	0.01
797.497	0.01
797.798	0.01
798.1	0.01
798.401	0.01
798.702	0.01
799.003	0.01
799.304	0.01
799.605	0.01
799.906	0.01
800.207	0.01
800.508	0.02
800.809	0.02
801.11	0.01
801.41	0.02
801.711	0.02
802.011	0.02
802.312	0.02
802.612	0.02
802.913	0.02
803.213	0.01
803.513	0.02
803.813	0.01
804.113	0.01
804.413	0.01
804.713	0.02
805.013	0.01
805.313	0.02
805.613	0.01
805.912	0.01
806.212	0.01
806.511	0.01
806.811	0.01
807.11	0.01
807.41	0.01
807.709	0.01
808.008	0.01
808.307	0
808.606	0.01
808.905	0.01
809.204	0.01
809.503	0.01
809.802	0.01
810.101	0.01
810.399	0.01
810.698	0.01
810.997	0.01
811.295	0.01
811.593	0.02
811.892	0.01
812.19	0.01
812.488	0.01
812.786	0.02
813.084	0.02
813.383	0.02
813.68	0.01
813.978	0.01
814.276	0.02
814.574	0.01
814.872	0.02
815.169	0.02
815.467	0.02
815.764	0.01
816.062	0.01
816.359	0.02
816.656	0.01
816.954	0.01
817.251	0.01
817.548	0.01
817.845	0.02
818.142	0.01
818.439	0.01
818.735	0.01
819.032	0.01
819.329	0.01
819.626	0.01
819.922	0.01
820.219	0.01
820.515	0.01
820.811	0.01
821.108	0.01
821.404	0.01
821.7	0.01
821.996	0.02
822.292	0.02
822.588	0.02
822.884	0.02
823.18	0.02
823.475	0.02
823.771	0.02
824.067	0.02
824.362	0.02
824.658	0.02
824.953	0.02
825.249	0.02
825.544	0.02
825.839	0.01
826.134	0.01
826.429	0.02
826.724	0.01
827.019	0.01
827.314	0.01
827.609	0.01
827.904	0.01
828.198	0.02
828.493	0.01
828.787	0.01
829.082	0.01
829.376	0.01
829.671	0.01
829.965	0.01
830.259	0.02
830.553	0.01
830.847	0.01
831.141	0.01
831.435	0.02
831.729	0.01
832.023	0.01
832.317	0.01
832.61	0.01
832.904	0.01
833.197	0.01
833.491	0.01
833.784	0.01
834.077	0.01
834.371	0.01
834.664	0.02
834.957	0.01
835.25	0.02
835.543	0.02
835.836	0.02
836.129	0.02
836.421	0.02
836.714	0.02
837.007	0.02
837.299	0.02
837.592	0.02
837.884	0.01
838.177	0.01
838.469	0.02
838.761	0.01
839.053	0.01
839.345	0.02
839.637	0.02
839.929	0.02
840.221	0.03
840.513	0.02
840.805	0.02
841.096	0.02
841.388	0.02
841.68	0.02
841.971	0.01
842.262	0.01
842.554	0.02
842.845	0.01
843.136	0.02
843.427	0.02
843.718	0.01
844.009	0.03
844.3	0.02
844.591	0.02
844.882	0.02
845.173	0.02
845.463	0.02
845.754	0.02
846.044	0.02
846.335	0.02
846.625	0.02
846.915	0.02
847.206	0.01
847.496	0.02
847.786	0.02
848.076	0.03
848.366	0.01
848.656	0.02
848.945	0.01
849.235	0.01
849.525	0.02
849.814	0.02
850.104	0.02
850.393	0.02
850.683	0.02
850.972	0.02
851.261	0.02
851.551	0.01
851.84	0.01
852.129	0.03
852.418	0.02
852.707	0.02
852.995	0.01
853.284	0.02
853.573	0.02
853.862	0.02
854.15	0.03
854.439	0.02
854.727	0.03
855.015	0.02
855.304	0.02
855.592	0.03
855.88	0.03
856.168	0.01
856.456	0.02
856.744	0.02
857.032	0.02
857.32	0.02
857.607	0.01
857.895	0.03
858.183	0.01
858.47	0.01
858.757	0.02
859.045	0.03
859.332	0.03
859.619	0.03
859.907	0.02
860.194	0.02
860.481	0.02
860.768	0.01
861.054	0.01
861.341	0.01
861.628	0.03
861.915	0.02
862.201	0
862.488	0.01
862.774	0.04
863.061	0.01
863.347	0.02
863.633	0.01
863.919	0.01
864.205	0.02
864.491	0.02
864.777	0.02
865.063	0.02
865.349	0.01
865.635	0.03
865.92	0.01
866.206	0
866.492	-0
866.777	0.01
867.062	0.03
867.348	0.01
867.633	0.01
867.918	-0.01
868.203	0.02
868.488	0.01
868.773	-0
869.058	0.03
869.343	0.02
869.628	-0.01
869.912	0.01
870.197	0.03
870.482	0.01
870.766	0.01
871.05	-0.04
871.335	0
871.619	0.01
871.903	-0.01
872.187	0.02
872.471	-0.02
872.755	0.01
873.039	0.01
873.323	0.04
873.607	0.01
873.89	-0.03
874.174	-0
874.458	0.01
874.741	-0.03
875.024	0.02
875.308	0.01
875.591	0.04
875.874	0.02
876.157	-0.03
876.44	-0.03
876.723	-0.03
877.006	0.05
877.289	0.02
877.572	0.02
877.854	0.03
878.137	0.03
878.42	-0.04
878.702	-0.01
878.984	-0.02
879.267	0
879.549	0.02
879.831	0.02
880.113	0
880.395	0.01
880.677	-0.06
880.959	0.05
