Data from Rubpy_BV_900_EDTA_Buffered_Absorbance_13-22-42-900.txt Node
Date: Wed Jul 01 13:22:42 BST 2026
User: fpm-admin
Spectrometer: OFX00224
Trigger mode: 0
Integration Time (sec): 7.000000E-2
Scans to average: 3
Nonlinearity correction enabled: false
Boxcar width: 0
Storing dark spectrum: false
XAxis mode: Wavelengths
Number of Pixels in Spectrum: 2136
>>>>>Begin Spectral Data<<<<<
154.91	-0
155.289	0.15
155.669	-0.1
156.048	-0
156.428	-0
156.807	0.02
157.186	-0.14
157.566	-0
157.945	-0.07
158.325	1.32
158.704	-0.12
159.083	0.08
159.462	0.62
159.842	-0.07
160.221	0.09
160.6	-0
160.979	0.07
161.359	0.75
161.738	-0.77
162.117	-0
162.496	-0.26
162.875	-0.2
163.254	-0
163.633	-0.23
164.012	-0
164.391	0.05
164.77	-0.15
165.149	0.29
165.528	-0.18
165.907	-0.48
166.286	-0.2
166.665	-0
167.044	0.81
167.423	-0.3
167.802	-0.15
168.181	-0
168.559	-0
168.938	-0
169.317	0.26
169.696	0.09
170.074	-0.03
170.453	0.29
170.832	-0
171.21	-0
171.589	0.64
171.968	0.03
172.346	-0
172.725	0.99
173.103	0.85
173.482	-0
173.861	-0
174.239	-0
174.617	-0
174.996	0.54
175.374	-0
175.753	0.56
176.131	-0
176.51	0.34
176.888	-0
177.266	-0
177.645	-0.09
178.023	0.65
178.401	-0.13
178.779	-0.07
179.158	-1.32
179.536	0.6
179.914	-0.34
180.292	-1.04
180.67	0.54
181.048	-0.45
181.427	0.08
181.805	-0
182.183	-0
182.561	-0
182.939	-0
183.317	-0.24
183.695	-0
184.073	-0.8
184.451	0.25
184.829	-0
185.206	-0.3
185.584	-1.11
185.962	0.07
186.34	-0
186.718	-0
187.096	-1.23
187.473	-0
187.851	-0.05
188.229	-0
188.607	0.09
188.984	0.16
189.362	0.11
189.74	0.06
190.117	0.08
190.495	0.21
190.872	0.32
191.25	0.2
191.627	0.01
192.005	0.14
192.382	0.11
192.76	0.11
193.137	0.23
193.515	0.13
193.892	0.24
194.269	0.27
194.647	0.13
195.024	0.16
195.401	0.04
195.779	0.21
196.156	0.21
196.533	0.25
196.91	0.17
197.288	0.14
197.665	0.12
198.042	0.12
198.419	0.19
198.796	0.16
199.173	0.38
199.55	0.18
199.927	0.14
200.304	0.22
200.681	0.24
201.058	0.21
201.435	0.17
201.812	0.17
202.189	0.13
202.566	0.11
202.943	0.16
203.32	0.25
203.697	0.2
204.073	0.15
204.45	0.11
204.827	0.29
205.204	0.1
205.58	0.14
205.957	0.22
206.334	0.17
206.71	0.22
207.087	0.15
207.464	0.15
207.84	0.24
208.217	0.17
208.593	0.07
208.97	0.23
209.346	0.17
209.723	0.14
210.099	0.15
210.476	0.09
210.852	0.19
211.228	0.24
211.605	0.19
211.981	0.17
212.357	0.09
212.733	0.17
213.11	0.22
213.486	0.11
213.862	0.13
214.238	0.22
214.614	0.25
214.991	0.17
215.367	0.25
215.743	0.23
216.119	0.21
216.495	0.1
216.871	0.14
217.247	0.06
217.623	0.22
217.999	0.21
218.375	0.21
218.751	0.15
219.127	0.22
219.502	0.14
219.878	0.14
220.254	0.19
220.63	0.18
221.006	0.18
221.381	0.28
221.757	0.32
222.133	0.22
222.508	0.2
222.884	0.21
223.26	0.24
223.635	0.14
224.011	0.19
224.386	0.17
224.762	0.18
225.137	0.26
225.513	0.15
225.888	0.08
226.264	0.17
226.639	0.24
227.014	0.19
227.39	0.23
227.765	0.23
228.14	0.16
228.516	0.13
228.891	0.2
229.266	0.24
229.641	0.22
230.017	0.32
230.392	0.23
230.767	0.16
231.142	0.27
231.517	0.16
231.892	0.09
232.267	0.21
232.642	0.15
233.017	0.22
233.392	0.24
233.767	0.21
234.142	0.24
234.517	0.2
234.892	0.17
235.267	0.18
235.641	0.09
236.016	0.26
236.391	0.13
236.766	0.11
237.14	0.24
237.515	0.16
237.89	0.14
238.264	0.15
238.639	0.3
239.014	0.19
239.388	0.22
239.763	0.23
240.137	0.2
240.512	0.2
240.886	0.19
241.261	0.19
241.635	0.21
242.009	0.1
242.384	0.15
242.758	0.15
243.132	0.26
243.507	0.38
243.881	0.2
244.255	0.28
244.629	0.24
245.004	0.29
245.378	0.34
245.752	0.11
246.126	0.25
246.5	0.24
246.874	0.25
247.248	0.22
247.622	0.18
247.996	0.23
248.37	0.2
248.744	0.12
249.118	0.08
249.492	0.27
249.866	0.18
250.24	0.26
250.613	0.29
250.987	0.15
251.361	0.14
251.735	0.21
252.108	0.16
252.482	0.19
252.856	0.14
253.229	0.21
253.603	0.24
253.977	0.21
254.35	0.24
254.724	0.12
255.097	0.21
255.471	0.24
255.844	0.21
256.218	0.21
256.591	0.19
256.964	0.15
257.338	0.21
257.711	0.13
258.084	0.11
258.458	0.25
258.831	0.34
259.204	0.21
259.577	0.34
259.95	0.22
260.323	0.26
260.697	0.25
261.07	0.26
261.443	0.13
261.816	0.22
262.189	0.21
262.562	0.22
262.935	0.28
263.308	0.22
263.68	0.38
264.053	0.24
264.426	0.31
264.799	0.25
265.172	0.24
265.545	0.18
265.917	0.17
266.29	0.17
266.663	0.26
267.035	0.29
267.408	0.28
267.781	0.18
268.153	0.26
268.526	0.18
268.898	0.21
269.271	0.2
269.643	0.17
270.016	0.19
270.388	0.23
270.76	0.2
271.133	0.16
271.505	0.35
271.877	0.31
272.25	0.17
272.622	0.17
272.994	0.16
273.366	0.22
273.739	0.15
274.111	0.11
274.483	0.2
274.855	0.25
275.227	0.24
275.599	0.28
275.971	0.29
276.343	0.24
276.715	0.26
277.087	0.21
277.459	0.15
277.831	0.23
278.203	0.24
278.574	0.23
278.946	0.25
279.318	0.21
279.69	0.25
280.061	0.3
280.433	0.11
280.805	0.21
281.176	0.23
281.548	0.2
281.92	0.16
282.291	0.16
282.663	0.18
283.034	0.19
283.406	0.13
283.777	0.13
284.148	0.21
284.52	0.3
284.891	0.25
285.262	0.28
285.634	0.17
286.005	0.24
286.376	0.23
286.747	0.22
287.119	0.21
287.49	0.21
287.861	0.18
288.232	0.21
288.603	0.23
288.974	0.24
289.345	0.21
289.716	0.19
290.087	0.23
290.458	0.23
290.829	0.33
291.2	0.21
291.571	0.2
291.941	0.21
292.312	0.29
292.683	0.21
293.054	0.24
293.424	0.2
293.795	0.23
294.166	0.28
294.536	0.2
294.907	0.2
295.277	0.24
295.648	0.27
296.018	0.18
296.389	0.24
296.759	0.23
297.13	0.18
297.5	0.21
297.871	0.24
298.241	0.21
298.611	0.25
298.981	0.18
299.352	0.19
299.722	0.28
300.092	0.26
300.462	0.23
300.832	0.21
301.202	0.18
301.573	0.25
301.943	0.22
302.313	0.21
302.683	0.18
303.053	0.15
303.422	0.12
303.792	0.13
304.162	0.15
304.532	0.14
304.902	0.11
305.272	0.11
305.641	0.13
306.011	0.17
306.381	0.13
306.75	0.13
307.12	0.14
307.49	0.13
307.859	0.13
308.229	0.09
308.598	0.14
308.968	0.1
309.337	0.13
309.707	0.12
310.076	0.11
310.445	0.13
310.815	0.13
311.184	0.12
311.553	0.13
311.923	0.13
312.292	0.14
312.661	0.14
313.03	0.13
313.399	0.13
313.768	0.15
314.137	0.14
314.506	0.16
314.875	0.16
315.244	0.16
315.613	0.16
315.982	0.16
316.351	0.16
316.72	0.17
317.089	0.18
317.458	0.18
317.826	0.16
318.195	0.19
318.564	0.18
318.933	0.18
319.301	0.19
319.67	0.19
320.038	0.19
320.407	0.2
320.775	0.2
321.144	0.2
321.512	0.2
321.881	0.2
322.249	0.21
322.618	0.21
322.986	0.21
323.354	0.22
323.723	0.21
324.091	0.23
324.459	0.22
324.827	0.22
325.195	0.23
325.564	0.23
325.932	0.23
326.3	0.24
326.668	0.24
327.036	0.25
327.404	0.25
327.772	0.25
328.14	0.25
328.508	0.27
328.875	0.26
329.243	0.27
329.611	0.28
329.979	0.28
330.346	0.28
330.714	0.29
331.082	0.28
331.449	0.29
331.817	0.3
332.185	0.3
332.552	0.31
332.92	0.32
333.287	0.32
333.655	0.33
334.022	0.33
334.389	0.33
334.757	0.35
335.124	0.35
335.491	0.36
335.859	0.37
336.226	0.37
336.593	0.38
336.96	0.39
337.327	0.39
337.695	0.39
338.062	0.41
338.429	0.41
338.796	0.42
339.163	0.42
339.53	0.44
339.897	0.44
340.263	0.45
340.63	0.45
340.997	0.46
341.364	0.47
341.731	0.48
342.097	0.49
342.464	0.5
342.831	0.5
343.197	0.52
343.564	0.52
343.931	0.53
344.297	0.53
344.664	0.54
345.03	0.55
345.396	0.56
345.763	0.56
346.129	0.58
346.496	0.58
346.862	0.59
347.228	0.61
347.594	0.61
347.961	0.62
348.327	0.63
348.693	0.63
349.059	0.64
349.425	0.65
349.791	0.66
350.157	0.67
350.523	0.67
350.889	0.67
351.255	0.69
351.621	0.69
351.987	0.71
352.353	0.71
352.719	0.72
353.084	0.72
353.45	0.73
353.816	0.74
354.181	0.76
354.547	0.77
354.913	0.77
355.278	0.78
355.644	0.79
356.009	0.8
356.375	0.81
356.74	0.82
357.106	0.83
357.471	0.83
357.836	0.84
358.202	0.86
358.567	0.87
358.932	0.87
359.297	0.9
359.663	0.92
360.028	0.92
360.393	0.93
360.758	0.94
361.123	0.95
361.488	0.98
361.853	0.98
362.218	1.01
362.583	1
362.948	1.02
363.312	1.03
363.677	1.05
364.042	1.05
364.407	1.07
364.772	1.07
365.136	1.1
365.501	1.09
365.865	1.11
366.23	1.13
366.595	1.13
366.959	1.13
367.324	1.14
367.688	1.16
368.052	1.17
368.417	1.17
368.781	1.18
369.145	1.2
369.51	1.2
369.874	1.2
370.238	1.22
370.602	1.22
370.967	1.23
371.331	1.23
371.695	1.22
372.059	1.24
372.423	1.24
372.787	1.26
373.151	1.24
373.515	1.24
373.878	1.23
374.242	1.22
374.606	1.22
374.97	1.21
375.334	1.21
375.697	1.21
376.061	1.19
376.425	1.17
376.788	1.17
377.152	1.16
377.515	1.14
377.879	1.14
378.242	1.13
378.606	1.11
378.969	1.1
379.333	1.08
379.696	1.07
380.059	1.07
380.422	1.05
380.786	1.04
381.149	1.02
381.512	1.01
381.875	1.01
382.238	1
382.601	0.99
382.964	0.97
383.327	0.97
383.69	0.96
384.053	0.94
384.416	0.94
384.779	0.93
385.142	0.94
385.504	0.93
385.867	0.93
386.23	0.92
386.593	0.93
386.955	0.92
387.318	0.91
387.68	0.91
388.043	0.91
388.405	0.91
388.768	0.9
389.13	0.91
389.493	0.91
389.855	0.9
390.217	0.89
390.58	0.89
390.942	0.88
391.304	0.86
391.666	0.86
392.028	0.85
392.391	0.85
392.753	0.83
393.115	0.82
393.477	0.81
393.839	0.81
394.201	0.8
394.563	0.8
394.924	0.8
395.286	0.8
395.648	0.8
396.01	0.81
396.371	0.82
396.733	0.82
397.095	0.84
397.456	0.85
397.818	0.87
398.18	0.89
398.541	0.9
398.903	0.93
399.264	0.95
399.625	0.98
399.987	1
400.348	1.02
400.709	1.02
401.071	1.03
401.432	1.03
401.793	1.04
402.154	1.02
402.515	1.02
402.876	1
403.238	0.99
403.599	0.96
403.96	0.93
404.32	0.9
404.681	0.87
405.042	0.84
405.403	0.8
405.764	0.76
406.125	0.73
406.485	0.69
406.846	0.65
407.207	0.62
407.567	0.58
407.928	0.55
408.288	0.53
408.649	0.5
409.009	0.47
409.37	0.45
409.73	0.41
410.091	0.4
410.451	0.38
410.811	0.35
411.171	0.34
411.532	0.32
411.892	0.3
412.252	0.29
412.612	0.28
412.972	0.26
413.332	0.25
413.692	0.24
414.052	0.23
414.412	0.22
414.772	0.22
415.132	0.2
415.492	0.2
415.851	0.19
416.211	0.18
416.571	0.18
416.931	0.17
417.29	0.17
417.65	0.16
418.009	0.16
418.369	0.15
418.728	0.16
419.088	0.15
419.447	0.14
419.807	0.14
420.166	0.14
420.525	0.13
420.884	0.12
421.244	0.13
421.603	0.13
421.962	0.12
422.321	0.13
422.68	0.12
423.039	0.12
423.398	0.11
423.757	0.12
424.116	0.12
424.475	0.11
424.834	0.11
425.193	0.1
425.551	0.1
425.91	0.11
426.269	0.1
426.628	0.1
426.986	0.11
427.345	0.1
427.703	0.11
428.062	0.1
428.42	0.1
428.779	0.1
429.137	0.1
429.496	0.1
429.854	0.1
430.212	0.1
430.57	0.1
430.929	0.09
431.287	0.09
431.645	0.09
432.003	0.09
432.361	0.09
432.719	0.09
433.077	0.09
433.435	0.09
433.793	0.09
434.151	0.09
434.509	0.09
434.866	0.09
435.224	0.09
435.582	0.09
435.94	0.09
436.297	0.09
436.655	0.09
437.012	0.09
437.37	0.09
437.727	0.09
438.085	0.09
438.442	0.09
438.8	0.09
439.157	0.09
439.514	0.09
439.872	0.09
440.229	0.1
440.586	0.09
440.943	0.09
441.3	0.08
441.657	0.1
442.014	0.09
442.371	0.08
442.728	0.09
443.085	0.09
443.442	0.1
443.799	0.09
444.156	0.09
444.513	0.09
444.869	0.1
445.226	0.09
445.583	0.09
445.939	0.09
446.296	0.1
446.652	0.1
447.009	0.09
447.365	0.09
447.722	0.09
448.078	0.1
448.434	0.09
448.791	0.09
449.147	0.1
449.503	0.1
449.859	0.09
450.215	0.1
450.571	0.1
450.928	0.1
451.284	0.1
451.64	0.1
451.995	0.09
452.351	0.1
452.707	0.1
453.063	0.1
453.419	0.1
453.775	0.1
454.13	0.1
454.486	0.1
454.842	0.11
455.197	0.11
455.553	0.1
455.908	0.1
456.264	0.1
456.619	0.11
456.975	0.12
457.33	0.11
457.685	0.1
458.04	0.12
458.396	0.11
458.751	0.11
459.106	0.12
459.461	0.11
459.816	0.11
460.171	0.11
460.526	0.11
460.881	0.12
461.236	0.12
461.591	0.11
461.946	0.12
462.301	0.12
462.655	0.11
463.01	0.12
463.365	0.12
463.719	0.12
464.074	0.12
464.428	0.13
464.783	0.12
465.137	0.13
465.492	0.11
465.846	0.13
466.201	0.13
466.555	0.13
466.909	0.14
467.263	0.13
467.618	0.13
467.972	0.13
468.326	0.14
468.68	0.14
469.034	0.13
469.388	0.15
469.742	0.15
470.096	0.14
470.45	0.14
470.804	0.15
471.157	0.15
471.511	0.14
471.865	0.15
472.218	0.15
472.572	0.16
472.926	0.16
473.279	0.15
473.633	0.17
473.986	0.16
474.34	0.17
474.693	0.18
475.046	0.18
475.4	0.17
475.753	0.17
476.106	0.19
476.459	0.18
476.812	0.19
477.165	0.19
477.519	0.19
477.872	0.2
478.224	0.2
478.577	0.2
478.93	0.21
479.283	0.21
479.636	0.21
479.989	0.21
480.341	0.21
480.694	0.21
481.047	0.21
481.399	0.22
481.752	0.23
482.104	0.22
482.457	0.22
482.809	0.23
483.162	0.23
483.514	0.24
483.866	0.24
484.219	0.24
484.571	0.25
484.923	0.24
485.275	0.25
485.627	0.25
485.979	0.26
486.331	0.25
486.683	0.25
487.035	0.26
487.387	0.26
487.739	0.26
488.091	0.27
488.443	0.27
488.794	0.27
489.146	0.27
489.498	0.27
489.849	0.28
490.201	0.28
490.552	0.28
490.904	0.29
491.255	0.28
491.607	0.28
491.958	0.29
492.309	0.29
492.661	0.3
493.012	0.3
493.363	0.3
493.714	0.3
494.065	0.3
494.416	0.31
494.767	0.31
495.118	0.31
495.469	0.31
495.82	0.31
496.171	0.32
496.522	0.32
496.872	0.33
497.223	0.33
497.574	0.33
497.924	0.33
498.275	0.34
498.626	0.33
498.976	0.34
499.327	0.34
499.677	0.35
500.027	0.35
500.378	0.35
500.728	0.35
501.078	0.36
501.428	0.35
501.779	0.36
502.129	0.36
502.479	0.36
502.829	0.36
503.179	0.37
503.529	0.37
503.879	0.37
504.229	0.38
504.578	0.37
504.928	0.38
505.278	0.38
505.628	0.38
505.977	0.39
506.327	0.39
506.676	0.39
507.026	0.39
507.375	0.4
507.725	0.4
508.074	0.4
508.424	0.4
508.773	0.4
509.122	0.41
509.471	0.41
509.82	0.41
510.17	0.42
510.519	0.41
510.868	0.42
511.217	0.42
511.566	0.42
511.915	0.42
512.263	0.43
512.612	0.43
512.961	0.43
513.31	0.43
513.659	0.43
514.007	0.44
514.356	0.43
514.704	0.44
515.053	0.45
515.401	0.45
515.75	0.44
516.098	0.45
516.447	0.45
516.795	0.46
517.143	0.46
517.491	0.46
517.839	0.46
518.188	0.47
518.536	0.46
518.884	0.46
519.232	0.47
519.58	0.47
519.928	0.47
520.275	0.47
520.623	0.47
520.971	0.48
521.319	0.49
521.666	0.48
522.014	0.48
522.362	0.48
522.709	0.49
523.057	0.49
523.404	0.48
523.752	0.49
524.099	0.49
524.446	0.49
524.794	0.5
525.141	0.5
525.488	0.5
525.835	0.5
526.182	0.5
526.529	0.5
526.876	0.51
527.223	0.51
527.57	0.51
527.917	0.51
528.264	0.51
528.611	0.52
528.958	0.52
529.304	0.51
529.651	0.52
529.998	0.52
530.344	0.52
530.691	0.52
531.037	0.52
531.384	0.53
531.73	0.52
532.076	0.53
532.423	0.53
532.769	0.53
533.115	0.54
533.461	0.53
533.807	0.53
534.154	0.53
534.5	0.54
534.846	0.54
535.192	0.54
535.537	0.54
535.883	0.54
536.229	0.54
536.575	0.54
536.921	0.55
537.266	0.54
537.612	0.54
537.957	0.54
538.303	0.55
538.649	0.55
538.994	0.55
539.339	0.55
539.685	0.55
540.03	0.55
540.375	0.56
540.721	0.56
541.066	0.56
541.411	0.56
541.756	0.56
542.101	0.56
542.446	0.56
542.791	0.56
543.136	0.56
543.481	0.56
543.825	0.56
544.17	0.56
544.515	0.56
544.86	0.57
545.204	0.57
545.549	0.57
545.893	0.57
546.238	0.57
546.582	0.56
546.927	0.57
547.271	0.57
547.615	0.57
547.96	0.57
548.304	0.57
548.648	0.57
548.992	0.57
549.336	0.57
549.68	0.58
550.024	0.57
550.368	0.58
550.712	0.57
551.056	0.57
551.4	0.57
551.743	0.58
552.087	0.57
552.431	0.58
552.774	0.58
553.118	0.58
553.462	0.57
553.805	0.58
554.148	0.58
554.492	0.57
554.835	0.58
555.178	0.58
555.522	0.57
555.865	0.57
556.208	0.57
556.551	0.57
556.894	0.57
557.237	0.58
557.58	0.57
557.923	0.58
558.266	0.58
558.609	0.58
558.952	0.57
559.294	0.57
559.637	0.57
559.98	0.57
560.322	0.58
560.665	0.57
561.007	0.58
561.35	0.57
561.692	0.57
562.034	0.57
562.377	0.57
562.719	0.57
563.061	0.57
563.403	0.57
563.745	0.57
564.088	0.57
564.43	0.57
564.772	0.57
565.113	0.57
565.455	0.56
565.797	0.56
566.139	0.57
566.481	0.56
566.822	0.57
567.164	0.57
567.506	0.56
567.847	0.57
568.189	0.56
568.53	0.56
568.872	0.56
569.213	0.56
569.554	0.56
569.895	0.56
570.237	0.56
570.578	0.56
570.919	0.55
571.26	0.55
571.601	0.55
571.942	0.55
572.283	0.55
572.624	0.55
572.965	0.54
573.306	0.54
573.646	0.54
573.987	0.54
574.328	0.54
574.668	0.54
575.009	0.53
575.349	0.53
575.69	0.53
576.03	0.53
576.37	0.52
576.711	0.52
577.051	0.52
577.391	0.52
577.731	0.53
578.072	0.53
578.412	0.52
578.752	0.52
579.092	0.52
579.431	0.5
579.771	0.47
580.111	0.46
580.451	0.46
580.791	0.5
581.13	0.51
581.47	0.51
581.81	0.51
582.149	0.51
582.489	0.51
582.828	0.49
583.167	0.46
583.507	0.42
583.846	0.4
584.185	0.42
584.525	0.45
584.864	0.48
585.203	0.5
585.542	0.51
585.881	0.51
586.22	0.51
586.559	0.5
586.898	0.48
587.236	0.46
587.575	0.46
587.914	0.47
588.252	0.49
588.591	0.5
588.93	0.5
589.268	0.49
589.607	0.49
589.945	0.49
590.283	0.49
590.622	0.49
590.96	0.5
591.298	0.51
591.636	0.5
591.974	0.51
592.313	0.51
592.651	0.51
592.989	0.51
593.326	0.51
593.664	0.51
594.002	0.51
594.34	0.5
594.678	0.5
595.015	0.49
595.353	0.47
595.691	0.48
596.028	0.5
596.366	0.5
596.703	0.51
597.04	0.51
597.378	0.51
597.715	0.51
598.052	0.51
598.389	0.51
598.726	0.51
599.064	0.51
599.401	0.51
599.738	0.51
600.074	0.51
600.411	0.51
600.748	0.5
601.085	0.49
601.422	0.48
601.758	0.48
602.095	0.48
602.432	0.49
602.768	0.49
603.105	0.49
603.441	0.5
603.777	0.5
604.114	0.5
604.45	0.5
604.786	0.5
605.122	0.5
605.459	0.5
605.795	0.49
606.131	0.49
606.467	0.5
606.803	0.49
607.139	0.49
607.474	0.49
607.81	0.49
608.146	0.49
608.482	0.49
608.817	0.48
609.153	0.48
609.488	0.48
609.824	0.48
610.159	0.48
610.495	0.48
610.83	0.48
611.165	0.48
611.5	0.48
611.836	0.48
612.171	0.48
612.506	0.48
612.841	0.48
613.176	0.48
613.511	0.48
613.845	0.47
614.18	0.47
614.515	0.47
614.85	0.47
615.184	0.47
615.519	0.47
615.854	0.46
616.188	0.47
616.523	0.46
616.857	0.46
617.191	0.46
617.526	0.45
617.86	0.45
618.194	0.45
618.528	0.45
618.862	0.45
619.196	0.45
619.53	0.45
619.864	0.45
620.198	0.45
620.532	0.44
620.866	0.44
621.2	0.44
621.533	0.44
621.867	0.44
622.201	0.44
622.534	0.43
622.868	0.43
623.201	0.43
623.534	0.43
623.868	0.43
624.201	0.42
624.534	0.42
624.868	0.42
625.201	0.42
625.534	0.42
625.867	0.42
626.2	0.42
626.533	0.41
626.865	0.41
627.198	0.41
627.531	0.41
627.864	0.41
628.196	0.4
628.529	0.4
628.862	0.4
629.194	0.4
629.527	0.4
629.859	0.39
630.191	0.39
630.524	0.39
630.856	0.39
631.188	0.39
631.52	0.38
631.852	0.38
632.184	0.38
632.516	0.38
632.848	0.37
633.18	0.37
633.512	0.37
633.844	0.37
634.175	0.37
634.507	0.36
634.839	0.36
635.17	0.36
635.502	0.35
635.833	0.36
636.165	0.36
636.496	0.35
636.827	0.35
637.159	0.35
637.49	0.35
637.821	0.34
638.152	0.34
638.483	0.34
638.814	0.33
639.145	0.33
639.476	0.33
639.807	0.33
640.137	0.33
640.468	0.33
640.799	0.32
641.129	0.32
641.46	0.32
641.791	0.31
642.121	0.31
642.451	0.31
642.782	0.31
643.112	0.3
643.442	0.31
643.773	0.31
644.103	0.3
644.433	0.29
644.763	0.3
645.093	0.29
645.423	0.29
645.753	0.29
646.082	0.29
646.412	0.29
646.742	0.29
647.072	0.28
647.401	0.28
647.731	0.29
648.06	0.28
648.39	0.28
648.719	0.28
649.048	0.28
649.378	0.28
649.707	0.28
650.036	0.28
650.365	0.28
650.694	0.27
651.023	0.28
651.352	0.28
651.681	0.27
652.01	0.27
652.339	0.27
652.668	0.27
652.996	0.27
653.325	0.27
653.654	0.27
653.982	0.27
654.311	0.26
654.639	0.26
654.967	0.26
655.296	0.26
655.624	0.26
655.952	0.26
656.28	0.26
656.609	0.26
656.937	0.26
657.265	0.26
657.593	0.13
657.92	0.03
658.248	0
658.576	0.01
658.904	0.08
659.231	0.16
659.559	0.22
659.887	0.24
660.214	0.24
660.542	0.24
660.869	0.25
661.196	0.25
661.524	0.24
661.851	0.24
662.178	0.24
662.505	0.24
662.832	0.24
663.159	0.24
663.486	0.24
663.813	0.24
664.14	0.24
664.467	0.24
664.794	0.24
665.12	0.24
665.447	0.23
665.774	0.23
666.1	0.23
666.427	0.23
666.753	0.23
667.079	0.23
667.406	0.22
667.732	0.22
668.058	0.22
668.384	0.22
668.71	0.23
669.036	0.23
669.362	0.23
669.688	0.22
670.014	0.22
670.34	0.22
670.666	0.22
670.991	0.21
671.317	0.21
671.643	0.21
671.968	0.21
672.294	0.21
672.619	0.21
672.945	0.2
673.27	0.2
673.595	0.2
673.92	0.2
674.246	0.2
674.571	0.2
674.896	0.2
675.221	0.19
675.546	0.19
675.87	0.19
676.195	0.19
676.52	0.19
676.845	0.19
677.169	0.19
677.494	0.19
677.819	0.19
678.143	0.18
678.468	0.18
678.792	0.18
679.116	0.18
679.44	0.18
679.765	0.18
680.089	0.17
680.413	0.16
680.737	0.16
681.061	0.16
681.385	0.16
681.709	0.16
682.033	0.15
682.356	0.15
682.68	0.15
683.004	0.15
683.327	0.15
683.651	0.14
683.974	0.14
684.298	0.15
684.621	0.14
684.944	0.14
685.268	0.14
685.591	0.14
685.914	0.14
686.237	0.13
686.56	0.13
686.883	0.12
687.206	0.12
687.529	0.12
687.852	0.11
688.175	0.11
688.497	0.12
688.82	0.12
689.142	0.11
689.465	0.11
689.787	0.12
690.11	0.12
690.432	0.11
690.755	0.11
691.077	0.11
691.399	0.11
691.721	0.11
692.043	0.1
692.365	0.1
692.687	0.1
693.009	0.1
693.331	0.09
693.653	0.09
693.974	0.09
694.296	0.09
694.618	0.09
694.939	0.09
695.261	0.08
695.582	0.08
695.904	0.08
696.225	0.09
696.546	0.09
696.868	0.09
697.189	0.08
697.51	0.08
697.831	0.08
698.152	0.09
698.473	0.08
698.794	0.07
699.114	0.07
699.435	0.05
699.756	0.06
700.077	0.06
700.397	0.07
700.718	0.07
701.038	0.07
701.359	0.07
701.679	0.07
701.999	0.07
702.32	0.07
702.64	0.07
702.96	0.07
703.28	0.07
703.6	0.07
703.92	0.06
704.24	0.06
704.56	0.05
704.879	0.05
705.199	0.06
705.519	0.06
705.838	0.06
706.158	0.06
706.478	0.06
706.797	0.06
707.116	0.06
707.436	0.06
707.755	0.06
708.074	0.06
708.393	0.05
708.712	0.04
709.031	0.03
709.35	0.03
709.669	0.03
709.988	0.03
710.307	0.04
710.626	0.04
710.944	0.05
711.263	0.05
711.582	0.05
711.9	0.05
712.219	0.04
712.537	0.05
712.855	0.05
713.174	0.05
713.492	0.05
713.81	0.05
714.128	0.05
714.446	0.05
714.764	0.04
715.082	0.04
715.4	0.05
715.718	0.04
716.035	0.04
716.353	0.04
716.671	0.05
716.988	0.04
717.306	0.04
717.623	0.05
717.941	0.05
718.258	0.06
718.575	0.06
718.893	0.06
719.21	0.06
719.527	0.06
719.844	0.05
720.161	0.06
720.478	0.05
720.795	0.05
721.112	0.06
721.428	0.06
721.745	0.06
722.062	0.06
722.378	0.07
722.695	0.06
723.011	0.07
723.328	0.07
723.644	0.07
723.96	0.07
724.276	0.07
724.593	0.07
724.909	0.07
725.225	0.07
725.541	0.07
725.857	0.07
726.173	0.07
726.488	0.08
726.804	0.07
727.12	0.07
727.435	0.07
727.751	0.07
728.067	0.07
728.382	0.07
728.697	0.07
729.013	0.07
729.328	0.07
729.643	0.07
729.958	0.07
730.273	0.07
730.588	0.07
730.903	0.07
731.218	0.07
731.533	0.07
731.848	0.07
732.163	0.07
732.477	0.06
732.792	0.06
733.107	0.05
733.421	0.06
733.736	0.06
734.05	0.07
734.364	0.06
734.678	0.07
734.993	0.06
735.307	0.07
735.621	0.06
735.935	0.06
736.249	0.06
736.563	0.06
736.877	0.07
737.19	0.07
737.504	0.07
737.818	0.07
738.131	0.07
738.445	0.07
738.758	0.07
739.072	0.07
739.385	0.07
739.698	0.07
740.012	0.07
740.325	0.07
740.638	0.07
740.951	0.07
741.264	0.06
741.577	0.07
741.89	0.07
742.203	0.07
742.515	0.07
742.828	0.07
743.141	0.07
743.453	0.06
743.766	0.06
744.078	0.06
744.391	0.06
744.703	0.06
745.015	0.06
745.327	0.06
745.639	0.06
745.952	0.06
746.264	0.05
746.575	0.06
746.887	0.06
747.199	0.05
747.511	0.05
747.823	0.05
748.134	0.05
748.446	0.05
748.757	0.05
749.069	0.05
749.38	0.05
749.692	0.05
750.003	0.05
750.314	0.05
750.625	0.05
750.936	0.05
751.248	0.04
751.559	0.05
751.869	0.05
752.18	0.05
752.491	0.04
752.802	0.04
753.112	0.04
753.423	0.04
753.734	0.04
754.044	0.04
754.355	0.04
754.665	0.04
754.975	0.04
755.285	0.04
755.596	0.04
755.906	0.04
756.216	0.04
756.526	0.04
756.836	0.04
757.146	0.04
757.455	0.04
757.765	0.03
758.075	0.03
758.385	0.03
758.694	0.03
759.004	0.03
759.313	0.02
759.622	0.03
759.932	0.03
760.241	0.03
760.55	0.03
760.859	0.03
761.168	0.03
761.477	0.03
761.786	0.03
762.095	0.03
762.404	0.03
762.713	0.03
763.021	0.03
763.33	0.03
763.639	0.03
763.947	0.03
764.256	0.03
764.564	0.03
764.872	0.03
765.181	0.03
765.489	0.03
765.797	0.03
766.105	0.03
766.413	0.03
766.721	0.03
767.029	0.03
767.337	0.03
767.644	0.03
767.952	0.03
768.26	0.03
768.567	0.04
768.875	0.03
769.182	0.04
769.49	0.04
769.797	0.04
770.104	0.03
770.411	0.03
770.718	0.03
771.026	0.03
771.333	0.03
771.639	0.03
771.946	0.03
772.253	0.03
772.56	0.03
772.867	0.03
773.173	0.03
773.48	0.03
773.786	0.03
774.093	0.03
774.399	0.03
774.705	0.04
775.012	0.04
775.318	0.04
775.624	0.04
775.93	0.04
776.236	0.04
776.542	0.04
776.848	0.04
777.154	0.04
777.459	0.04
777.765	0.04
778.071	0.04
778.376	0.04
778.682	0.04
778.987	0.04
779.292	0.04
779.598	0.03
779.903	0.04
780.208	0.04
780.513	0.04
780.818	0.04
781.123	0.04
781.428	0.04
781.733	0.04
782.038	0.04
782.343	0.04
782.647	0.04
782.952	0.04
783.256	0.04
783.561	0.04
783.865	0.04
784.17	0.04
784.474	0.04
784.778	0.04
785.082	0.04
785.386	0.04
785.69	0.04
785.994	0.04
786.298	0.04
786.602	0.04
786.906	0.04
787.209	0.04
787.513	0.04
787.817	0.04
788.12	0.04
788.424	0.04
788.727	0.04
789.03	0.04
789.333	0.04
789.637	0.05
789.94	0.05
790.243	0.05
790.546	0.05
790.849	0.05
791.152	0.05
791.454	0.05
791.757	0.05
792.06	0.05
792.362	0.05
792.665	0.04
792.967	0.05
793.27	0.05
793.572	0.04
793.874	0.04
794.177	0.04
794.479	0.04
794.781	0.05
795.083	0.04
795.385	0.05
795.687	0.04
795.989	0.04
796.29	0.04
796.592	0.04
796.894	0.04
797.195	0.04
797.497	0.04
797.798	0.04
798.1	0.04
798.401	0.05
798.702	0.04
799.003	0.04
799.304	0.04
799.605	0.04
799.906	0.04
800.207	0.04
800.508	0.05
800.809	0.05
801.11	0.05
801.41	0.05
801.711	0.04
802.011	0.05
802.312	0.05
802.612	0.05
802.913	0.05
803.213	0.05
803.513	0.05
803.813	0.05
804.113	0.05
804.413	0.05
804.713	0.05
805.013	0.05
805.313	0.05
805.613	0.05
805.912	0.04
806.212	0.04
806.511	0.04
806.811	0.04
807.11	0.04
807.41	0.04
807.709	0.04
808.008	0.04
808.307	0.04
808.606	0.04
808.905	0.05
809.204	0.04
809.503	0.04
809.802	0.04
810.101	0.04
810.399	0.05
810.698	0.04
810.997	0.05
811.295	0.05
811.593	0.05
811.892	0.05
812.19	0.05
812.488	0.05
812.786	0.06
813.084	0.06
813.383	0.05
813.68	0.05
813.978	0.05
814.276	0.06
814.574	0.05
814.872	0.05
815.169	0.06
815.467	0.05
815.764	0.06
816.062	0.05
816.359	0.05
816.656	0.05
816.954	0.05
817.251	0.05
817.548	0.05
817.845	0.05
818.142	0.05
818.439	0.05
818.735	0.05
819.032	0.05
819.329	0.05
819.626	0.05
819.922	0.05
820.219	0.05
820.515	0.05
820.811	0.05
821.108	0.05
821.404	0.05
821.7	0.05
821.996	0.06
822.292	0.06
822.588	0.06
822.884	0.06
823.18	0.06
823.475	0.06
823.771	0.06
824.067	0.06
824.362	0.06
824.658	0.06
824.953	0.07
825.249	0.07
825.544	0.07
825.839	0.07
826.134	0.06
826.429	0.06
826.724	0.06
827.019	0.06
827.314	0.06
827.609	0.06
827.904	0.06
828.198	0.06
828.493	0.06
828.787	0.06
829.082	0.05
829.376	0.06
829.671	0.06
829.965	0.06
830.259	0.06
830.553	0.06
830.847	0.06
831.141	0.07
831.435	0.07
831.729	0.06
832.023	0.06
832.317	0.06
832.61	0.06
832.904	0.07
833.197	0.06
833.491	0.06
833.784	0.06
834.077	0.06
834.371	0.06
834.664	0.07
834.957	0.07
835.25	0.07
835.543	0.07
835.836	0.07
836.129	0.07
836.421	0.07
836.714	0.07
837.007	0.06
837.299	0.06
837.592	0.07
837.884	0.07
838.177	0.06
838.469	0.07
838.761	0.07
839.053	0.07
839.345	0.08
839.637	0.07
839.929	0.08
840.221	0.08
840.513	0.08
840.805	0.08
841.096	0.08
841.388	0.08
841.68	0.08
841.971	0.07
842.262	0.07
842.554	0.08
842.845	0.07
843.136	0.08
843.427	0.07
843.718	0.07
844.009	0.09
844.3	0.08
844.591	0.08
844.882	0.08
845.173	0.08
845.463	0.08
845.754	0.09
846.044	0.08
846.335	0.09
846.625	0.08
846.915	0.08
847.206	0.07
847.496	0.08
847.786	0.08
848.076	0.08
848.366	0.08
848.656	0.08
848.945	0.07
849.235	0.07
849.525	0.07
849.814	0.08
850.104	0.08
850.393	0.08
850.683	0.07
850.972	0.08
851.261	0.08
851.551	0.08
851.84	0.09
852.129	0.09
852.418	0.08
852.707	0.08
852.995	0.08
853.284	0.09
853.573	0.08
853.862	0.09
854.15	0.09
854.439	0.1
854.727	0.1
855.015	0.08
855.304	0.08
855.592	0.09
855.88	0.09
856.168	0.08
856.456	0.09
856.744	0.09
857.032	0.08
857.32	0.09
857.607	0.09
857.895	0.09
858.183	0.08
858.47	0.09
858.757	0.09
859.045	0.09
859.332	0.09
859.619	0.1
859.907	0.09
860.194	0.09
860.481	0.08
860.768	0.09
861.054	0.08
861.341	0.09
861.628	0.09
861.915	0.09
862.201	0.09
862.488	0.1
862.774	0.1
863.061	0.07
863.347	0.09
863.633	0.1
863.919	0.08
864.205	0.09
864.491	0.08
864.777	0.09
865.063	0.09
865.349	0.09
865.635	0.08
865.92	0.09
866.206	0.07
866.492	0.09
866.777	0.07
867.062	0.1
867.348	0.07
867.633	0.07
867.918	0.08
868.203	0.08
868.488	0.1
868.773	0.08
869.058	0.09
869.343	0.09
869.628	0.09
869.912	0.08
870.197	0.09
870.482	0.06
870.766	0.09
871.05	0.07
871.335	0.05
871.619	0.09
871.903	0.02
872.187	0.09
872.471	0.07
872.755	0.05
873.039	0.06
873.323	0.08
873.607	0.04
873.89	0.04
874.174	0.08
874.458	0.06
874.741	0.04
875.024	0.09
875.308	0.08
875.591	0.08
875.874	0.11
876.157	0.04
876.44	0.04
876.723	0.1
877.006	0.08
877.289	0.11
877.572	0.09
877.854	0.1
878.137	0.06
878.42	0
878.702	0.04
878.984	0.05
879.267	0.07
879.549	0.03
879.831	0.07
880.113	0.08
880.395	0.16
880.677	0.02
880.959	0.03
