Data from Rubpy_BV_900_EDTA_Buffered_Absorbance_13-20-15-964.txt Node
Date: Wed Jul 01 13:20:15 BST 2026
User: fpm-admin
Spectrometer: OFX00224
Trigger mode: 0
Integration Time (sec): 7.000000E-2
Scans to average: 3
Nonlinearity correction enabled: false
Boxcar width: 0
Storing dark spectrum: false
XAxis mode: Wavelengths
Number of Pixels in Spectrum: 2136
>>>>>Begin Spectral Data<<<<<
154.91	-0
155.289	0.24
155.669	-0.18
156.048	-0.63
156.428	-0.45
156.807	0.37
157.186	-0
157.566	-0
157.945	-0.12
158.325	0.62
158.704	-0.54
159.083	0.3
159.462	0.29
159.842	-0
160.221	-0
160.6	-1
160.979	0.33
161.359	-0
161.738	-0
162.117	-1.09
162.496	-0.33
162.875	-0
163.254	-0
163.633	-0
164.012	-0
164.391	0.05
164.77	-0
165.149	-0.13
165.528	-0.4
165.907	-1.23
166.286	0.21
166.665	-0
167.044	-0
167.423	0.51
167.802	0.04
168.181	-0
168.559	-0
168.938	-0
169.317	0.17
169.696	-0
170.074	-0.24
170.453	0.29
170.832	-0.3
171.21	0.76
171.589	0.3
171.968	0.22
172.346	-0
172.725	0.69
173.103	-0
173.482	-0
173.861	-0
174.239	-0
174.617	-0
174.996	0.29
175.374	-0
175.753	0.07
176.131	-0
176.51	0.18
176.888	-0
177.266	-0
177.645	-0.14
178.023	0.93
178.401	0.01
178.779	-0.22
179.158	-0.94
179.536	-0.34
179.914	-0.54
180.292	-0
180.67	0.29
181.048	-0.43
181.427	0.41
181.805	-1.11
182.183	0.22
182.561	-0
182.939	-0
183.317	-0
183.695	-0
184.073	-0.95
184.451	-0.21
184.829	-0
185.206	-0
185.584	-1.08
185.962	1.3
186.34	0.51
186.718	-0.46
187.096	-1.04
187.473	0.85
187.851	-0
188.229	-1.28
188.607	0.2
188.984	0.23
189.362	0.17
189.74	0.06
190.117	0.07
190.495	0.12
190.872	0.31
191.25	0.12
191.627	0.2
192.005	0.2
192.382	0.23
192.76	0.17
193.137	0.4
193.515	0.19
193.892	0.26
194.269	0.16
194.647	0.1
195.024	0.24
195.401	0.08
195.779	0.17
196.156	0.07
196.533	0.23
196.91	0.14
197.288	0.16
197.665	0.24
198.042	0.08
198.419	0.14
198.796	0.2
199.173	0.3
199.55	0.26
199.927	0.14
200.304	0.1
200.681	0.23
201.058	0.24
201.435	0.13
201.812	0.2
202.189	0.26
202.566	0.07
202.943	0.26
203.32	0.35
203.697	0.2
204.073	0.13
204.45	0.09
204.827	0.18
205.204	0.09
205.58	0.24
205.957	0.35
206.334	0.31
206.71	0.2
207.087	0.15
207.464	0.15
207.84	0.19
208.217	0.19
208.593	0.12
208.97	0.2
209.346	0.29
209.723	0.21
210.099	0.2
210.476	0.15
210.852	0.13
211.228	0.29
211.605	0.18
211.981	0.3
212.357	0.17
212.733	0.13
213.11	0.21
213.486	0.17
213.862	0.06
214.238	0.2
214.614	0.16
214.991	0.19
215.367	0.18
215.743	0.15
216.119	0.12
216.495	0.18
216.871	0.16
217.247	0.09
217.623	0.12
217.999	0.18
218.375	0.25
218.751	0.13
219.127	0.19
219.502	0.21
219.878	0.25
220.254	0.15
220.63	0.14
221.006	0.16
221.381	0.16
221.757	0.26
222.133	0.11
222.508	0.25
222.884	0.22
223.26	0.3
223.635	0.25
224.011	0.24
224.386	0.2
224.762	0.17
225.137	0.28
225.513	0.33
225.888	0.08
226.264	0.2
226.639	0.29
227.014	0.22
227.39	0.26
227.765	0.33
228.14	0.19
228.516	0.17
228.891	0.26
229.266	0.24
229.641	0.23
230.017	0.36
230.392	0.21
230.767	0.23
231.142	0.2
231.517	0.11
231.892	0.18
232.267	0.23
232.642	0.14
233.017	0.15
233.392	0.24
233.767	0.23
234.142	0.22
234.517	0.14
234.892	0.06
235.267	0.27
235.641	0.17
236.016	0.22
236.391	0.18
236.766	0.17
237.14	0.14
237.515	0.13
237.89	0.19
238.264	0.13
238.639	0.2
239.014	0.3
239.388	0.19
239.763	0.37
240.137	0.3
240.512	0.19
240.886	0.16
241.261	0.17
241.635	0.2
242.009	0.15
242.384	0.15
242.758	0.14
243.132	0.21
243.507	0.3
243.881	0.29
244.255	0.18
244.629	0.15
245.004	0.26
245.378	0.32
245.752	0.12
246.126	0.2
246.5	0.19
246.874	0.09
247.248	0.16
247.622	0.24
247.996	0.14
248.37	0.19
248.744	0.19
249.118	0.1
249.492	0.25
249.866	0.19
250.24	0.32
250.613	0.16
250.987	0.18
251.361	0.17
251.735	0.2
252.108	0.19
252.482	0.27
252.856	0.18
253.229	0.24
253.603	0.15
253.977	0.22
254.35	0.22
254.724	0.21
255.097	0.21
255.471	0.15
255.844	0.13
256.218	0.24
256.591	0.15
256.964	0.15
257.338	0.18
257.711	0.21
258.084	0.18
258.458	0.25
258.831	0.26
259.204	0.25
259.577	0.23
259.95	0.17
260.323	0.34
260.697	0.26
261.07	0.2
261.443	0.16
261.816	0.23
262.189	0.25
262.562	0.21
262.935	0.29
263.308	0.19
263.68	0.33
264.053	0.23
264.426	0.17
264.799	0.17
265.172	0.18
265.545	0.2
265.917	0.25
266.29	0.14
266.663	0.22
267.035	0.26
267.408	0.21
267.781	0.26
268.153	0.21
268.526	0.23
268.898	0.24
269.271	0.28
269.643	0.09
270.016	0.23
270.388	0.24
270.76	0.2
271.133	0.24
271.505	0.27
271.877	0.24
272.25	0.13
272.622	0.2
272.994	0.24
273.366	0.25
273.739	0.19
274.111	0.17
274.483	0.22
274.855	0.32
275.227	0.22
275.599	0.27
275.971	0.16
276.343	0.23
276.715	0.24
277.087	0.19
277.459	0.13
277.831	0.25
278.203	0.21
278.574	0.27
278.946	0.21
279.318	0.23
279.69	0.29
280.061	0.32
280.433	0.14
280.805	0.14
281.176	0.2
281.548	0.2
281.92	0.17
282.291	0.22
282.663	0.29
283.034	0.17
283.406	0.17
283.777	0.21
284.148	0.24
284.52	0.23
284.891	0.25
285.262	0.38
285.634	0.24
286.005	0.28
286.376	0.18
286.747	0.18
287.119	0.22
287.49	0.25
287.861	0.24
288.232	0.21
288.603	0.23
288.974	0.26
289.345	0.15
289.716	0.18
290.087	0.17
290.458	0.23
290.829	0.18
291.2	0.2
291.571	0.17
291.941	0.18
292.312	0.21
292.683	0.24
293.054	0.23
293.424	0.24
293.795	0.2
294.166	0.22
294.536	0.2
294.907	0.22
295.277	0.18
295.648	0.23
296.018	0.2
296.389	0.14
296.759	0.27
297.13	0.23
297.5	0.24
297.871	0.22
298.241	0.21
298.611	0.29
298.981	0.17
299.352	0.26
299.722	0.24
300.092	0.21
300.462	0.2
300.832	0.16
301.202	0.2
301.573	0.2
301.943	0.2
302.313	0.17
302.683	0.15
303.053	0.17
303.422	0.13
303.792	0.18
304.162	0.11
304.532	0.15
304.902	0.14
305.272	0.11
305.641	0.14
306.011	0.14
306.381	0.14
306.75	0.1
307.12	0.11
307.49	0.12
307.859	0.14
308.229	0.1
308.598	0.11
308.968	0.11
309.337	0.11
309.707	0.15
310.076	0.1
310.445	0.13
310.815	0.12
311.184	0.13
311.553	0.13
311.923	0.12
312.292	0.12
312.661	0.13
313.03	0.13
313.399	0.13
313.768	0.13
314.137	0.14
314.506	0.14
314.875	0.15
315.244	0.16
315.613	0.16
315.982	0.16
316.351	0.17
316.72	0.15
317.089	0.16
317.458	0.17
317.826	0.16
318.195	0.17
318.564	0.16
318.933	0.18
319.301	0.17
319.67	0.17
320.038	0.18
320.407	0.19
320.775	0.19
321.144	0.19
321.512	0.19
321.881	0.19
322.249	0.19
322.618	0.19
322.986	0.2
323.354	0.2
323.723	0.19
324.091	0.2
324.459	0.21
324.827	0.21
325.195	0.21
325.564	0.22
325.932	0.22
326.3	0.22
326.668	0.23
327.036	0.23
327.404	0.23
327.772	0.23
328.14	0.24
328.508	0.24
328.875	0.25
329.243	0.24
329.611	0.25
329.979	0.26
330.346	0.26
330.714	0.27
331.082	0.27
331.449	0.27
331.817	0.27
332.185	0.27
332.552	0.29
332.92	0.29
333.287	0.3
333.655	0.3
334.022	0.31
334.389	0.32
334.757	0.31
335.124	0.32
335.491	0.32
335.859	0.34
336.226	0.34
336.593	0.35
336.96	0.35
337.327	0.36
337.695	0.36
338.062	0.37
338.429	0.38
338.796	0.38
339.163	0.4
339.53	0.4
339.897	0.4
340.263	0.41
340.63	0.42
340.997	0.43
341.364	0.44
341.731	0.44
342.097	0.44
342.464	0.46
342.831	0.46
343.197	0.47
343.564	0.48
343.931	0.48
344.297	0.49
344.664	0.5
345.03	0.51
345.396	0.51
345.763	0.51
346.129	0.53
346.496	0.54
346.862	0.54
347.228	0.56
347.594	0.56
347.961	0.57
348.327	0.58
348.693	0.58
349.059	0.59
349.425	0.59
349.791	0.61
350.157	0.6
350.523	0.62
350.889	0.63
351.255	0.64
351.621	0.64
351.987	0.65
352.353	0.65
352.719	0.66
353.084	0.66
353.45	0.68
353.816	0.68
354.181	0.69
354.547	0.7
354.913	0.71
355.278	0.72
355.644	0.73
356.009	0.74
356.375	0.74
356.74	0.76
357.106	0.76
357.471	0.77
357.836	0.78
358.202	0.8
358.567	0.8
358.932	0.81
359.297	0.83
359.663	0.84
360.028	0.85
360.393	0.87
360.758	0.86
361.123	0.89
361.488	0.9
361.853	0.91
362.218	0.93
362.583	0.93
362.948	0.94
363.312	0.95
363.677	0.96
364.042	0.98
364.407	0.99
364.772	1
365.136	1
365.501	1.01
365.865	1.02
366.23	1.02
366.595	1.04
366.959	1.05
367.324	1.06
367.688	1.07
368.052	1.07
368.417	1.08
368.781	1.09
369.145	1.1
369.51	1.11
369.874	1.11
370.238	1.12
370.602	1.13
370.967	1.12
371.331	1.13
371.695	1.14
372.059	1.15
372.423	1.15
372.787	1.15
373.151	1.16
373.515	1.15
373.878	1.14
374.242	1.13
374.606	1.13
374.97	1.12
375.334	1.14
375.697	1.12
376.061	1.1
376.425	1.09
376.788	1.07
377.152	1.07
377.515	1.05
377.879	1.06
378.242	1.04
378.606	1.03
378.969	1.03
379.333	1.01
379.696	1.01
380.059	0.99
380.422	0.98
380.786	0.96
381.149	0.95
381.512	0.94
381.875	0.93
382.238	0.93
382.601	0.92
382.964	0.9
383.327	0.9
383.69	0.89
384.053	0.88
384.416	0.88
384.779	0.86
385.142	0.87
385.504	0.86
385.867	0.86
386.23	0.85
386.593	0.86
386.955	0.86
387.318	0.85
387.68	0.86
388.043	0.85
388.405	0.85
388.768	0.86
389.13	0.85
389.493	0.84
389.855	0.84
390.217	0.84
390.58	0.83
390.942	0.82
391.304	0.81
391.666	0.81
392.028	0.8
392.391	0.79
392.753	0.78
393.115	0.77
393.477	0.76
393.839	0.76
394.201	0.75
394.563	0.75
394.924	0.74
395.286	0.74
395.648	0.74
396.01	0.75
396.371	0.77
396.733	0.77
397.095	0.78
397.456	0.79
397.818	0.82
398.18	0.83
398.541	0.86
398.903	0.87
399.264	0.89
399.625	0.92
399.987	0.93
400.348	0.95
400.709	0.97
401.071	0.97
401.432	0.98
401.793	0.99
402.154	0.97
402.515	0.96
402.876	0.95
403.238	0.93
403.599	0.91
403.96	0.88
404.32	0.85
404.681	0.82
405.042	0.79
405.403	0.76
405.764	0.72
406.125	0.69
406.485	0.65
406.846	0.62
407.207	0.58
407.567	0.55
407.928	0.52
408.288	0.49
408.649	0.47
409.009	0.44
409.37	0.42
409.73	0.39
410.091	0.37
410.451	0.34
410.811	0.33
411.171	0.32
411.532	0.3
411.892	0.29
412.252	0.27
412.612	0.26
412.972	0.24
413.332	0.23
413.692	0.23
414.052	0.22
414.412	0.21
414.772	0.2
415.132	0.19
415.492	0.18
415.851	0.18
416.211	0.17
416.571	0.17
416.931	0.16
417.29	0.16
417.65	0.15
418.009	0.15
418.369	0.15
418.728	0.14
419.088	0.14
419.447	0.13
419.807	0.13
420.166	0.13
420.525	0.12
420.884	0.12
421.244	0.12
421.603	0.12
421.962	0.12
422.321	0.12
422.68	0.11
423.039	0.11
423.398	0.11
423.757	0.11
424.116	0.1
424.475	0.1
424.834	0.1
425.193	0.1
425.551	0.1
425.91	0.1
426.269	0.1
426.628	0.1
426.986	0.1
427.345	0.1
427.703	0.1
428.062	0.1
428.42	0.1
428.779	0.08
429.137	0.09
429.496	0.09
429.854	0.09
430.212	0.09
430.57	0.09
430.929	0.09
431.287	0.09
431.645	0.08
432.003	0.09
432.361	0.08
432.719	0.07
433.077	0.08
433.435	0.08
433.793	0.09
434.151	0.09
434.509	0.08
434.866	0.09
435.224	0.08
435.582	0.08
435.94	0.09
436.297	0.09
436.655	0.09
437.012	0.08
437.37	0.09
437.727	0.08
438.085	0.08
438.442	0.08
438.8	0.08
439.157	0.08
439.514	0.09
439.872	0.08
440.229	0.09
440.586	0.08
440.943	0.08
441.3	0.08
441.657	0.09
442.014	0.09
442.371	0.07
442.728	0.07
443.085	0.07
443.442	0.09
443.799	0.08
444.156	0.09
444.513	0.09
444.869	0.08
445.226	0.09
445.583	0.08
445.939	0.09
446.296	0.09
446.652	0.09
447.009	0.08
447.365	0.09
447.722	0.09
448.078	0.08
448.434	0.09
448.791	0.09
449.147	0.09
449.503	0.09
449.859	0.09
450.215	0.09
450.571	0.09
450.928	0.09
451.284	0.09
451.64	0.1
451.995	0.09
452.351	0.09
452.707	0.09
453.063	0.09
453.419	0.09
453.775	0.1
454.13	0.1
454.486	0.09
454.842	0.09
455.197	0.1
455.553	0.09
455.908	0.1
456.264	0.1
456.619	0.1
456.975	0.1
457.33	0.11
457.685	0.1
458.04	0.1
458.396	0.1
458.751	0.1
459.106	0.1
459.461	0.1
459.816	0.1
460.171	0.11
460.526	0.1
460.881	0.11
461.236	0.11
461.591	0.1
461.946	0.11
462.301	0.11
462.655	0.11
463.01	0.11
463.365	0.11
463.719	0.12
464.074	0.11
464.428	0.11
464.783	0.11
465.137	0.12
465.492	0.11
465.846	0.12
466.201	0.12
466.555	0.12
466.909	0.13
467.263	0.12
467.618	0.13
467.972	0.12
468.326	0.13
468.68	0.12
469.034	0.12
469.388	0.13
469.742	0.13
470.096	0.13
470.45	0.13
470.804	0.13
471.157	0.14
471.511	0.14
471.865	0.14
472.218	0.14
472.572	0.15
472.926	0.14
473.279	0.15
473.633	0.16
473.986	0.15
474.34	0.16
474.693	0.16
475.046	0.17
475.4	0.16
475.753	0.17
476.106	0.17
476.459	0.17
476.812	0.17
477.165	0.18
477.519	0.18
477.872	0.18
478.224	0.18
478.577	0.18
478.93	0.19
479.283	0.19
479.636	0.19
479.989	0.19
480.341	0.19
480.694	0.2
481.047	0.2
481.399	0.2
481.752	0.21
482.104	0.21
482.457	0.21
482.809	0.21
483.162	0.21
483.514	0.22
483.866	0.22
484.219	0.22
484.571	0.22
484.923	0.22
485.275	0.23
485.627	0.23
485.979	0.24
486.331	0.23
486.683	0.24
487.035	0.24
487.387	0.24
487.739	0.24
488.091	0.25
488.443	0.25
488.794	0.25
489.146	0.25
489.498	0.25
489.849	0.26
490.201	0.26
490.552	0.25
490.904	0.26
491.255	0.26
491.607	0.26
491.958	0.27
492.309	0.27
492.661	0.27
493.012	0.27
493.363	0.28
493.714	0.28
494.065	0.28
494.416	0.28
494.767	0.29
495.118	0.28
495.469	0.29
495.82	0.29
496.171	0.29
496.522	0.3
496.872	0.3
497.223	0.3
497.574	0.3
497.924	0.31
498.275	0.31
498.626	0.31
498.976	0.31
499.327	0.31
499.677	0.32
500.027	0.32
500.378	0.33
500.728	0.32
501.078	0.33
501.428	0.33
501.779	0.33
502.129	0.33
502.479	0.34
502.829	0.34
503.179	0.34
503.529	0.34
503.879	0.35
504.229	0.35
504.578	0.35
504.928	0.35
505.278	0.35
505.628	0.35
505.977	0.36
506.327	0.36
506.676	0.36
507.026	0.36
507.375	0.37
507.725	0.37
508.074	0.37
508.424	0.36
508.773	0.37
509.122	0.38
509.471	0.38
509.82	0.38
510.17	0.38
510.519	0.39
510.868	0.39
511.217	0.39
511.566	0.39
511.915	0.4
512.263	0.4
512.612	0.4
512.961	0.4
513.31	0.4
513.659	0.4
514.007	0.41
514.356	0.41
514.704	0.41
515.053	0.42
515.401	0.42
515.75	0.41
516.098	0.42
516.447	0.42
516.795	0.42
517.143	0.42
517.491	0.43
517.839	0.43
518.188	0.43
518.536	0.43
518.884	0.43
519.232	0.43
519.58	0.43
519.928	0.44
520.275	0.43
520.623	0.44
520.971	0.44
521.319	0.45
521.666	0.45
522.014	0.44
522.362	0.45
522.709	0.45
523.057	0.46
523.404	0.45
523.752	0.46
524.099	0.46
524.446	0.46
524.794	0.46
525.141	0.46
525.488	0.46
525.835	0.47
526.182	0.46
526.529	0.46
526.876	0.47
527.223	0.47
527.57	0.47
527.917	0.47
528.264	0.47
528.611	0.48
528.958	0.47
529.304	0.48
529.651	0.48
529.998	0.48
530.344	0.48
530.691	0.48
531.037	0.49
531.384	0.49
531.73	0.49
532.076	0.49
532.423	0.49
532.769	0.49
533.115	0.5
533.461	0.5
533.807	0.5
534.154	0.49
534.5	0.5
534.846	0.5
535.192	0.5
535.537	0.5
535.883	0.5
536.229	0.5
536.575	0.51
536.921	0.5
537.266	0.51
537.612	0.51
537.957	0.5
538.303	0.5
538.649	0.51
538.994	0.51
539.339	0.51
539.685	0.51
540.03	0.51
540.375	0.51
540.721	0.51
541.066	0.51
541.411	0.51
541.756	0.52
542.101	0.52
542.446	0.52
542.791	0.52
543.136	0.53
543.481	0.52
543.825	0.52
544.17	0.52
544.515	0.53
544.86	0.52
545.204	0.53
545.549	0.52
545.893	0.53
546.238	0.53
546.582	0.53
546.927	0.53
547.271	0.53
547.615	0.53
547.96	0.53
548.304	0.53
548.648	0.53
548.992	0.53
549.336	0.53
549.68	0.53
550.024	0.54
550.368	0.53
550.712	0.53
551.056	0.53
551.4	0.54
551.743	0.54
552.087	0.53
552.431	0.54
552.774	0.54
553.118	0.54
553.462	0.54
553.805	0.53
554.148	0.53
554.492	0.54
554.835	0.54
555.178	0.54
555.522	0.54
555.865	0.53
556.208	0.53
556.551	0.53
556.894	0.53
557.237	0.54
557.58	0.53
557.923	0.53
558.266	0.54
558.609	0.53
558.952	0.53
559.294	0.53
559.637	0.53
559.98	0.53
560.322	0.54
560.665	0.54
561.007	0.54
561.35	0.53
561.692	0.53
562.034	0.53
562.377	0.53
562.719	0.53
563.061	0.53
563.403	0.53
563.745	0.53
564.088	0.53
564.43	0.53
564.772	0.53
565.113	0.53
565.455	0.53
565.797	0.52
566.139	0.52
566.481	0.52
566.822	0.52
567.164	0.52
567.506	0.52
567.847	0.53
568.189	0.52
568.53	0.52
568.872	0.52
569.213	0.53
569.554	0.52
569.895	0.52
570.237	0.52
570.578	0.52
570.919	0.51
571.26	0.51
571.601	0.51
571.942	0.51
572.283	0.51
572.624	0.51
572.965	0.51
573.306	0.51
573.646	0.5
573.987	0.5
574.328	0.5
574.668	0.5
575.009	0.49
575.349	0.49
575.69	0.49
576.03	0.49
576.37	0.49
576.711	0.48
577.051	0.48
577.391	0.48
577.731	0.49
578.072	0.49
578.412	0.49
578.752	0.48
579.092	0.48
579.431	0.46
579.771	0.43
580.111	0.42
580.451	0.43
580.791	0.46
581.13	0.47
581.47	0.48
581.81	0.47
582.149	0.47
582.489	0.47
582.828	0.46
583.167	0.42
583.507	0.38
583.846	0.37
584.185	0.39
584.525	0.41
584.864	0.45
585.203	0.47
585.542	0.48
585.881	0.48
586.22	0.48
586.559	0.47
586.898	0.44
587.236	0.43
587.575	0.42
587.914	0.43
588.252	0.45
588.591	0.46
588.93	0.46
589.268	0.45
589.607	0.45
589.945	0.46
590.283	0.45
590.622	0.46
590.96	0.46
591.298	0.47
591.636	0.47
591.974	0.47
592.313	0.48
592.651	0.48
592.989	0.48
593.326	0.48
593.664	0.48
594.002	0.48
594.34	0.47
594.678	0.47
595.015	0.45
595.353	0.44
595.691	0.45
596.028	0.47
596.366	0.47
596.703	0.47
597.04	0.48
597.378	0.47
597.715	0.47
598.052	0.48
598.389	0.48
598.726	0.48
599.064	0.48
599.401	0.47
599.738	0.47
600.074	0.48
600.411	0.47
600.748	0.46
601.085	0.46
601.422	0.45
601.758	0.45
602.095	0.45
602.432	0.46
602.768	0.46
603.105	0.46
603.441	0.47
603.777	0.47
604.114	0.47
604.45	0.47
604.786	0.47
605.122	0.47
605.459	0.46
605.795	0.46
606.131	0.46
606.467	0.46
606.803	0.46
607.139	0.46
607.474	0.45
607.81	0.46
608.146	0.45
608.482	0.45
608.817	0.45
609.153	0.45
609.488	0.44
609.824	0.45
610.159	0.45
610.495	0.45
610.83	0.45
611.165	0.46
611.5	0.45
611.836	0.45
612.171	0.45
612.506	0.45
612.841	0.45
613.176	0.45
613.511	0.44
613.845	0.44
614.18	0.44
614.515	0.44
614.85	0.44
615.184	0.44
615.519	0.44
615.854	0.43
616.188	0.44
616.523	0.43
616.857	0.43
617.191	0.43
617.526	0.42
617.86	0.42
618.194	0.42
618.528	0.42
618.862	0.42
619.196	0.42
619.53	0.42
619.864	0.42
620.198	0.42
620.532	0.41
620.866	0.41
621.2	0.41
621.533	0.41
621.867	0.41
622.201	0.41
622.534	0.4
622.868	0.41
623.201	0.4
623.534	0.4
623.868	0.4
624.201	0.4
624.534	0.4
624.868	0.4
625.201	0.39
625.534	0.4
625.867	0.39
626.2	0.39
626.533	0.39
626.865	0.39
627.198	0.38
627.531	0.38
627.864	0.38
628.196	0.38
628.529	0.38
628.862	0.38
629.194	0.38
629.527	0.37
629.859	0.37
630.191	0.37
630.524	0.36
630.856	0.36
631.188	0.36
631.52	0.36
631.852	0.36
632.184	0.35
632.516	0.35
632.848	0.35
633.18	0.35
633.512	0.35
633.844	0.34
634.175	0.34
634.507	0.34
634.839	0.34
635.17	0.34
635.502	0.33
635.833	0.33
636.165	0.33
636.496	0.33
636.827	0.33
637.159	0.33
637.49	0.33
637.821	0.32
638.152	0.32
638.483	0.32
638.814	0.31
639.145	0.31
639.476	0.31
639.807	0.31
640.137	0.31
640.468	0.31
640.799	0.3
641.129	0.3
641.46	0.3
641.791	0.29
642.121	0.29
642.451	0.29
642.782	0.29
643.112	0.28
643.442	0.29
643.773	0.28
644.103	0.28
644.433	0.28
644.763	0.28
645.093	0.28
645.423	0.27
645.753	0.27
646.082	0.27
646.412	0.27
646.742	0.27
647.072	0.27
647.401	0.27
647.731	0.27
648.06	0.27
648.39	0.26
648.719	0.26
649.048	0.26
649.378	0.26
649.707	0.26
650.036	0.26
650.365	0.26
650.694	0.26
651.023	0.26
651.352	0.26
651.681	0.26
652.01	0.26
652.339	0.26
652.668	0.25
652.996	0.25
653.325	0.25
653.654	0.25
653.982	0.25
654.311	0.25
654.639	0.25
654.967	0.25
655.296	0.25
655.624	0.25
655.952	0.25
656.28	0.25
656.609	0.24
656.937	0.24
657.265	0.25
657.593	0.12
657.92	0.02
658.248	0
658.576	0
658.904	0.06
659.231	0.14
659.559	0.21
659.887	0.23
660.214	0.23
660.542	0.23
660.869	0.23
661.196	0.23
661.524	0.23
661.851	0.22
662.178	0.23
662.505	0.23
662.832	0.23
663.159	0.23
663.486	0.23
663.813	0.22
664.14	0.22
664.467	0.22
664.794	0.22
665.12	0.22
665.447	0.22
665.774	0.22
666.1	0.21
666.427	0.21
666.753	0.22
667.079	0.21
667.406	0.21
667.732	0.21
668.058	0.21
668.384	0.21
668.71	0.21
669.036	0.21
669.362	0.21
669.688	0.21
670.014	0.21
670.34	0.2
670.666	0.2
670.991	0.2
671.317	0.2
671.643	0.2
671.968	0.2
672.294	0.2
672.619	0.19
672.945	0.19
673.27	0.19
673.595	0.19
673.92	0.19
674.246	0.18
674.571	0.18
674.896	0.18
675.221	0.18
675.546	0.18
675.87	0.18
676.195	0.17
676.52	0.18
676.845	0.17
677.169	0.17
677.494	0.18
677.819	0.17
678.143	0.17
678.468	0.17
678.792	0.17
679.116	0.17
679.44	0.16
679.765	0.16
680.089	0.16
680.413	0.15
680.737	0.15
681.061	0.15
681.385	0.15
681.709	0.15
682.033	0.14
682.356	0.14
682.68	0.14
683.004	0.14
683.327	0.14
683.651	0.13
683.974	0.14
684.298	0.14
684.621	0.14
684.944	0.13
685.268	0.13
685.591	0.13
685.914	0.13
686.237	0.13
686.56	0.12
686.883	0.11
687.206	0.11
687.529	0.11
687.852	0.1
688.175	0.1
688.497	0.11
688.82	0.11
689.142	0.11
689.465	0.1
689.787	0.11
690.11	0.11
690.432	0.1
690.755	0.11
691.077	0.1
691.399	0.1
691.721	0.1
692.043	0.1
692.365	0.1
692.687	0.09
693.009	0.09
693.331	0.08
693.653	0.08
693.974	0.08
694.296	0.08
694.618	0.08
694.939	0.08
695.261	0.08
695.582	0.08
695.904	0.08
696.225	0.08
696.546	0.08
696.868	0.08
697.189	0.08
697.51	0.08
697.831	0.08
698.152	0.08
698.473	0.07
698.794	0.06
699.114	0.06
699.435	0.04
699.756	0.05
700.077	0.05
700.397	0.06
700.718	0.06
701.038	0.07
701.359	0.06
701.679	0.07
701.999	0.07
702.32	0.07
702.64	0.06
702.96	0.06
703.28	0.07
703.6	0.07
703.92	0.06
704.24	0.06
704.56	0.05
704.879	0.05
705.199	0.06
705.519	0.05
705.838	0.05
706.158	0.06
706.478	0.05
706.797	0.06
707.116	0.06
707.436	0.06
707.755	0.06
708.074	0.05
708.393	0.05
708.712	0.04
709.031	0.03
709.35	0.02
709.669	0.03
709.988	0.03
710.307	0.03
710.626	0.03
710.944	0.04
711.263	0.04
711.582	0.05
711.9	0.05
712.219	0.04
712.537	0.04
712.855	0.04
713.174	0.04
713.492	0.04
713.81	0.05
714.128	0.05
714.446	0.05
714.764	0.04
715.082	0.04
715.4	0.04
715.718	0.04
716.035	0.04
716.353	0.04
716.671	0.04
716.988	0.04
717.306	0.03
717.623	0.04
717.941	0.05
718.258	0.05
718.575	0.06
718.893	0.05
719.21	0.05
719.527	0.06
719.844	0.05
720.161	0.05
720.478	0.05
720.795	0.05
721.112	0.05
721.428	0.06
721.745	0.06
722.062	0.06
722.378	0.06
722.695	0.06
723.011	0.06
723.328	0.06
723.644	0.06
723.96	0.07
724.276	0.07
724.593	0.07
724.909	0.07
725.225	0.06
725.541	0.07
725.857	0.07
726.173	0.07
726.488	0.07
726.804	0.07
727.12	0.06
727.435	0.06
727.751	0.07
728.067	0.06
728.382	0.07
728.697	0.06
729.013	0.07
729.328	0.06
729.643	0.07
729.958	0.07
730.273	0.07
730.588	0.06
730.903	0.07
731.218	0.06
731.533	0.07
731.848	0.06
732.163	0.06
732.477	0.06
732.792	0.06
733.107	0.05
733.421	0.05
733.736	0.05
734.05	0.06
734.364	0.06
734.678	0.06
734.993	0.05
735.307	0.06
735.621	0.05
735.935	0.06
736.249	0.06
736.563	0.06
736.877	0.06
737.19	0.06
737.504	0.06
737.818	0.06
738.131	0.06
738.445	0.06
738.758	0.06
739.072	0.06
739.385	0.06
739.698	0.06
740.012	0.07
740.325	0.07
740.638	0.06
740.951	0.06
741.264	0.06
741.577	0.06
741.89	0.06
742.203	0.06
742.515	0.06
742.828	0.06
743.141	0.06
743.453	0.06
743.766	0.06
744.078	0.06
744.391	0.06
744.703	0.05
745.015	0.05
745.327	0.06
745.639	0.06
745.952	0.05
746.264	0.05
746.575	0.05
746.887	0.05
747.199	0.05
747.511	0.05
747.823	0.05
748.134	0.05
748.446	0.05
748.757	0.05
749.069	0.04
749.38	0.05
749.692	0.05
750.003	0.05
750.314	0.04
750.625	0.05
750.936	0.04
751.248	0.04
751.559	0.05
751.869	0.04
752.18	0.04
752.491	0.04
752.802	0.04
753.112	0.04
753.423	0.04
753.734	0.04
754.044	0.04
754.355	0.04
754.665	0.04
754.975	0.04
755.285	0.03
755.596	0.03
755.906	0.03
756.216	0.03
756.526	0.03
756.836	0.03
757.146	0.03
757.455	0.03
757.765	0.03
758.075	0.03
758.385	0.03
758.694	0.03
759.004	0.03
759.313	0.02
759.622	0.02
759.932	0.03
760.241	0.03
760.55	0.03
760.859	0.03
761.168	0.03
761.477	0.03
761.786	0.03
762.095	0.03
762.404	0.03
762.713	0.03
763.021	0.03
763.33	0.03
763.639	0.03
763.947	0.03
764.256	0.03
764.564	0.03
764.872	0.03
765.181	0.03
765.489	0.03
765.797	0.03
766.105	0.03
766.413	0.03
766.721	0.03
767.029	0.03
767.337	0.03
767.644	0.03
767.952	0.03
768.26	0.03
768.567	0.03
768.875	0.03
769.182	0.03
769.49	0.04
769.797	0.03
770.104	0.03
770.411	0.03
770.718	0.03
771.026	0.03
771.333	0.03
771.639	0.03
771.946	0.03
772.253	0.03
772.56	0.03
772.867	0.03
773.173	0.03
773.48	0.03
773.786	0.03
774.093	0.03
774.399	0.03
774.705	0.03
775.012	0.03
775.318	0.03
775.624	0.04
775.93	0.03
776.236	0.04
776.542	0.04
776.848	0.04
777.154	0.04
777.459	0.04
777.765	0.04
778.071	0.04
778.376	0.04
778.682	0.04
778.987	0.04
779.292	0.04
779.598	0.03
779.903	0.04
780.208	0.04
780.513	0.04
780.818	0.03
781.123	0.03
781.428	0.04
781.733	0.03
782.038	0.03
782.343	0.03
782.647	0.04
782.952	0.04
783.256	0.04
783.561	0.04
783.865	0.04
784.17	0.04
784.474	0.03
784.778	0.04
785.082	0.03
785.386	0.04
785.69	0.03
785.994	0.03
786.298	0.04
786.602	0.04
786.906	0.04
787.209	0.04
787.513	0.04
787.817	0.04
788.12	0.04
788.424	0.03
788.727	0.03
789.03	0.04
789.333	0.04
789.637	0.04
789.94	0.04
790.243	0.04
790.546	0.04
790.849	0.05
791.152	0.05
791.454	0.04
791.757	0.04
792.06	0.05
792.362	0.04
792.665	0.04
792.967	0.04
793.27	0.04
793.572	0.04
793.874	0.04
794.177	0.04
794.479	0.04
794.781	0.04
795.083	0.04
795.385	0.04
795.687	0.04
795.989	0.04
796.29	0.04
796.592	0.04
796.894	0.04
797.195	0.04
797.497	0.04
797.798	0.04
798.1	0.04
798.401	0.04
798.702	0.04
799.003	0.04
799.304	0.04
799.605	0.04
799.906	0.04
800.207	0.04
800.508	0.04
800.809	0.04
801.11	0.04
801.41	0.04
801.711	0.04
802.011	0.05
802.312	0.05
802.612	0.05
802.913	0.04
803.213	0.04
803.513	0.04
803.813	0.04
804.113	0.05
804.413	0.05
804.713	0.05
805.013	0.04
805.313	0.05
805.613	0.04
805.912	0.04
806.212	0.04
806.511	0.04
806.811	0.04
807.11	0.04
807.41	0.04
807.709	0.04
808.008	0.04
808.307	0.04
808.606	0.04
808.905	0.04
809.204	0.04
809.503	0.04
809.802	0.04
810.101	0.04
810.399	0.04
810.698	0.04
810.997	0.04
811.295	0.04
811.593	0.05
811.892	0.05
812.19	0.05
812.488	0.05
812.786	0.05
813.084	0.05
813.383	0.05
813.68	0.05
813.978	0.05
814.276	0.05
814.574	0.05
814.872	0.05
815.169	0.05
815.467	0.05
815.764	0.05
816.062	0.05
816.359	0.05
816.656	0.05
816.954	0.05
817.251	0.05
817.548	0.05
817.845	0.05
818.142	0.04
818.439	0.04
818.735	0.04
819.032	0.04
819.329	0.04
819.626	0.04
819.922	0.05
820.219	0.05
820.515	0.05
820.811	0.05
821.108	0.05
821.404	0.05
821.7	0.05
821.996	0.05
822.292	0.06
822.588	0.05
822.884	0.06
823.18	0.06
823.475	0.06
823.771	0.06
824.067	0.06
824.362	0.06
824.658	0.07
824.953	0.06
825.249	0.06
825.544	0.06
825.839	0.06
826.134	0.06
826.429	0.06
826.724	0.05
827.019	0.05
827.314	0.05
827.609	0.06
827.904	0.05
828.198	0.05
828.493	0.05
828.787	0.05
829.082	0.06
829.376	0.06
829.671	0.06
829.965	0.05
830.259	0.06
830.553	0.05
830.847	0.06
831.141	0.06
831.435	0.06
831.729	0.06
832.023	0.06
832.317	0.06
832.61	0.05
832.904	0.06
833.197	0.06
833.491	0.06
833.784	0.05
834.077	0.06
834.371	0.06
834.664	0.06
834.957	0.06
835.25	0.07
835.543	0.07
835.836	0.07
836.129	0.07
836.421	0.07
836.714	0.06
837.007	0.05
837.299	0.06
837.592	0.06
837.884	0.06
838.177	0.06
838.469	0.06
838.761	0.07
839.053	0.07
839.345	0.07
839.637	0.07
839.929	0.07
840.221	0.07
840.513	0.07
840.805	0.07
841.096	0.07
841.388	0.07
841.68	0.07
841.971	0.07
842.262	0.07
842.554	0.07
842.845	0.06
843.136	0.07
843.427	0.07
843.718	0.07
844.009	0.08
844.3	0.07
844.591	0.08
844.882	0.07
845.173	0.08
845.463	0.07
845.754	0.08
846.044	0.08
846.335	0.08
846.625	0.07
846.915	0.08
847.206	0.07
847.496	0.07
847.786	0.08
848.076	0.08
848.366	0.07
848.656	0.08
848.945	0.08
849.235	0.07
849.525	0.06
849.814	0.08
850.104	0.07
850.393	0.07
850.683	0.07
850.972	0.08
851.261	0.08
851.551	0.07
851.84	0.07
852.129	0.09
852.418	0.08
852.707	0.08
852.995	0.07
853.284	0.08
853.573	0.07
853.862	0.07
854.15	0.08
854.439	0.08
854.727	0.08
855.015	0.08
855.304	0.08
855.592	0.08
855.88	0.09
856.168	0.07
856.456	0.09
856.744	0.08
857.032	0.08
857.32	0.09
857.607	0.07
857.895	0.08
858.183	0.09
858.47	0.09
858.757	0.08
859.045	0.09
859.332	0.09
859.619	0.09
859.907	0.08
860.194	0.1
860.481	0.09
860.768	0.08
861.054	0.08
861.341	0.09
861.628	0.09
861.915	0.09
862.201	0.06
862.488	0.08
862.774	0.08
863.061	0.08
863.347	0.08
863.633	0.08
863.919	0.07
864.205	0.08
864.491	0.08
864.777	0.08
865.063	0.08
865.349	0.09
865.635	0.07
865.92	0.08
866.206	0.08
866.492	0.07
866.777	0.07
867.062	0.09
867.348	0.08
867.633	0.06
867.918	0.06
868.203	0.08
868.488	0.08
868.773	0.09
869.058	0.1
869.343	0.07
869.628	0.08
869.912	0.08
870.197	0.09
870.482	0.07
870.766	0.08
871.05	0.06
871.335	0.07
871.619	0.08
871.903	0.06
872.187	0.07
872.471	0.06
872.755	0.05
873.039	0.05
873.323	0.09
873.607	0.07
873.89	0.11
874.174	0.07
874.458	0.08
874.741	0.04
875.024	0.08
875.308	0.07
875.591	0.12
875.874	0.06
876.157	0.02
876.44	0.09
876.723	0.07
877.006	0.09
877.289	0.06
877.572	0.09
877.854	0.08
878.137	0.09
878.42	0.07
878.702	0.07
878.984	0.06
879.267	-0.01
879.549	0.04
879.831	0.14
880.113	0.05
880.395	0.16
880.677	0.05
880.959	0.1
