Data from Rubpy_BV_900_EDTA_Buffered_Absorbance_13-00-37-816.txt Node
Date: Wed Jul 01 13:00:37 BST 2026
User: fpm-admin
Spectrometer: OFX00224
Trigger mode: 0
Integration Time (sec): 7.000000E-2
Scans to average: 3
Nonlinearity correction enabled: false
Boxcar width: 0
Storing dark spectrum: false
XAxis mode: Wavelengths
Number of Pixels in Spectrum: 2136
>>>>>Begin Spectral Data<<<<<
154.91	-0
155.289	0.24
155.669	-0
156.048	-0
156.428	-0.28
156.807	-0.21
157.186	-0
157.566	-0
157.945	-0.07
158.325	0.37
158.704	-0.43
159.083	0.78
159.462	-0.03
159.842	-0
160.221	-0
160.6	-0
160.979	0.17
161.359	0.15
161.738	-0.18
162.117	-0
162.496	-0.2
162.875	-0.06
163.254	-0.12
163.633	0.4
164.012	-0.1
164.391	-0.16
164.77	-0
165.149	0.44
165.528	-0.52
165.907	-0.95
166.286	-0
166.665	0.3
167.044	-0
167.423	-0.48
167.802	-0.13
168.181	-0
168.559	0.03
168.938	-0
169.317	0.18
169.696	-0.23
170.074	-0.09
170.453	0.1
170.832	-0.3
171.21	0.18
171.589	0.39
171.968	0.15
172.346	0.24
172.725	0.27
173.103	-0.05
173.482	-0
173.861	-0
174.239	-0
174.617	1.28
174.996	-0
175.374	-0
175.753	0.32
176.131	-0.63
176.51	0.41
176.888	-0
177.266	-0
177.645	-0.16
178.023	0.58
178.401	-0.08
178.779	-0.11
179.158	-0.82
179.536	-0.41
179.914	-0.1
180.292	-0
180.67	0.99
181.048	-0.23
181.427	-0.02
181.805	-0
182.183	-0
182.561	0.6
182.939	-0
183.317	0.6
183.695	-0
184.073	-0.35
184.451	0.2
184.829	-0
185.206	-0.9
185.584	-0.6
185.962	-0.13
186.34	-0
186.718	-0.05
187.096	-1.01
187.473	0.78
187.851	-0
188.229	-0.6
188.607	0.16
188.984	0.15
189.362	0.15
189.74	0.1
190.117	0.03
190.495	0.04
190.872	0.13
191.25	0.1
191.627	0.03
192.005	0.15
192.382	0.11
192.76	0.13
193.137	0.14
193.515	0.11
193.892	0.16
194.269	0.11
194.647	0.14
195.024	0.17
195.401	0.04
195.779	0.1
196.156	0.02
196.533	0.19
196.91	0.11
197.288	0.15
197.665	0.06
198.042	0.12
198.419	0.15
198.796	0.17
199.173	0.21
199.55	0.22
199.927	0.14
200.304	0.04
200.681	0.25
201.058	0.11
201.435	0.05
201.812	0.16
202.189	0.09
202.566	0.07
202.943	0.16
203.32	0.17
203.697	0.16
204.073	0.11
204.45	0
204.827	0.08
205.204	0.06
205.58	0.14
205.957	0.18
206.334	0.16
206.71	0.17
207.087	0.05
207.464	0.08
207.84	0.03
208.217	0.16
208.593	0.14
208.97	0.27
209.346	0.21
209.723	0.2
210.099	0.14
210.476	0.07
210.852	0.09
211.228	0.15
211.605	0.08
211.981	0.11
212.357	0.14
212.733	0.07
213.11	0.11
213.486	0.14
213.862	0.15
214.238	0.17
214.614	0.14
214.991	0.19
215.367	0.13
215.743	0.17
216.119	0.13
216.495	0.14
216.871	0.09
217.247	0.11
217.623	0.16
217.999	0.1
218.375	0.11
218.751	0.22
219.127	0.24
219.502	0.2
219.878	0.16
220.254	0.08
220.63	0.13
221.006	0.07
221.381	0.1
221.757	0.17
222.133	0.08
222.508	0.13
222.884	0.1
223.26	0.11
223.635	0.07
224.011	0.09
224.386	0.13
224.762	0.27
225.137	0.07
225.513	0.09
225.888	0.12
226.264	0.08
226.639	0.14
227.014	0.1
227.39	0.25
227.765	0.23
228.14	0.1
228.516	0.1
228.891	0.08
229.266	0.18
229.641	0.09
230.017	0.18
230.392	0.15
230.767	0.1
231.142	0.17
231.517	0.08
231.892	-0.01
232.267	0.1
232.642	0.05
233.017	0.09
233.392	0.17
233.767	0.18
234.142	0.15
234.517	0.1
234.892	0.07
235.267	0.13
235.641	0.17
236.016	0.12
236.391	0.18
236.766	0.12
237.14	0.18
237.515	0.05
237.89	0.11
238.264	0.13
238.639	0.13
239.014	0.16
239.388	0.3
239.763	0.18
240.137	0.12
240.512	0.2
240.886	0.16
241.261	0.17
241.635	0.18
242.009	0.1
242.384	0.09
242.758	0.14
243.132	0.17
243.507	0.27
243.881	0.06
244.255	0.15
244.629	0.1
245.004	0.23
245.378	0.18
245.752	0.1
246.126	0.12
246.5	0.16
246.874	0.17
247.248	0.1
247.622	0.09
247.996	0.15
248.37	0.13
248.744	0.08
249.118	0.12
249.492	0.17
249.866	0.17
250.24	0.19
250.613	0.13
250.987	0.17
251.361	0.11
251.735	0.16
252.108	0.21
252.482	0.18
252.856	0.04
253.229	0.18
253.603	0.12
253.977	0.2
254.35	0.12
254.724	0.22
255.097	0.21
255.471	0.11
255.844	0.15
256.218	0.24
256.591	0.09
256.964	0.12
257.338	0.09
257.711	0.11
258.084	0.1
258.458	0.12
258.831	0.17
259.204	0.11
259.577	0.12
259.95	0.11
260.323	0.22
260.697	0.2
261.07	0.16
261.443	0.13
261.816	0.17
262.189	0.18
262.562	0.15
262.935	0.19
263.308	0.16
263.68	0.2
264.053	0.22
264.426	0.16
264.799	0.14
265.172	0.19
265.545	0.13
265.917	0.2
266.29	0.15
266.663	0.16
267.035	0.22
267.408	0.17
267.781	0.1
268.153	0.15
268.526	0.11
268.898	0.15
269.271	0.21
269.643	0.11
270.016	0.18
270.388	0.19
270.76	0.16
271.133	0.13
271.505	0.24
271.877	0.14
272.25	0.1
272.622	0.1
272.994	0.13
273.366	0.14
273.739	0.2
274.111	0.15
274.483	0.14
274.855	0.16
275.227	0.18
275.599	0.18
275.971	0.13
276.343	0.23
276.715	0.25
277.087	0.13
277.459	0.14
277.831	0.19
278.203	0.16
278.574	0.17
278.946	0.11
279.318	0.11
279.69	0.14
280.061	0.17
280.433	0.05
280.805	0.18
281.176	0.16
281.548	0.14
281.92	0.17
282.291	0.16
282.663	0.12
283.034	0.13
283.406	0.18
283.777	0.14
284.148	0.16
284.52	0.12
284.891	0.18
285.262	0.24
285.634	0.14
286.005	0.14
286.376	0.09
286.747	0.24
287.119	0.18
287.49	0.17
287.861	0.18
288.232	0.13
288.603	0.12
288.974	0.19
289.345	0.14
289.716	0.11
290.087	0.23
290.458	0.18
290.829	0.19
291.2	0.16
291.571	0.16
291.941	0.12
292.312	0.19
292.683	0.18
293.054	0.1
293.424	0.12
293.795	0.14
294.166	0.15
294.536	0.13
294.907	0.16
295.277	0.17
295.648	0.15
296.018	0.17
296.389	0.15
296.759	0.18
297.13	0.09
297.5	0.2
297.871	0.2
298.241	0.22
298.611	0.15
298.981	0.14
299.352	0.16
299.722	0.21
300.092	0.18
300.462	0.21
300.832	0.13
301.202	0.13
301.573	0.16
301.943	0.17
302.313	0.1
302.683	0.14
303.053	0.11
303.422	0.1
303.792	0.15
304.162	0.09
304.532	0.08
304.902	0.11
305.272	0.09
305.641	0.09
306.011	0.14
306.381	0.08
306.75	0.09
307.12	0.1
307.49	0.09
307.859	0.09
308.229	0.07
308.598	0.08
308.968	0.08
309.337	0.09
309.707	0.09
310.076	0.08
310.445	0.1
310.815	0.09
311.184	0.1
311.553	0.08
311.923	0.08
312.292	0.1
312.661	0.1
313.03	0.09
313.399	0.1
313.768	0.1
314.137	0.09
314.506	0.1
314.875	0.1
315.244	0.11
315.613	0.12
315.982	0.11
316.351	0.11
316.72	0.12
317.089	0.11
317.458	0.12
317.826	0.12
318.195	0.13
318.564	0.12
318.933	0.13
319.301	0.13
319.67	0.13
320.038	0.13
320.407	0.14
320.775	0.13
321.144	0.14
321.512	0.14
321.881	0.14
322.249	0.14
322.618	0.14
322.986	0.15
323.354	0.15
323.723	0.15
324.091	0.15
324.459	0.15
324.827	0.15
325.195	0.15
325.564	0.15
325.932	0.16
326.3	0.16
326.668	0.16
327.036	0.17
327.404	0.17
327.772	0.17
328.14	0.17
328.508	0.17
328.875	0.18
329.243	0.18
329.611	0.18
329.979	0.18
330.346	0.18
330.714	0.19
331.082	0.19
331.449	0.19
331.817	0.2
332.185	0.2
332.552	0.21
332.92	0.21
333.287	0.21
333.655	0.21
334.022	0.22
334.389	0.22
334.757	0.22
335.124	0.23
335.491	0.23
335.859	0.24
336.226	0.24
336.593	0.25
336.96	0.25
337.327	0.26
337.695	0.26
338.062	0.27
338.429	0.27
338.796	0.27
339.163	0.29
339.53	0.28
339.897	0.29
340.263	0.3
340.63	0.3
340.997	0.31
341.364	0.31
341.731	0.31
342.097	0.32
342.464	0.33
342.831	0.33
343.197	0.33
343.564	0.34
343.931	0.35
344.297	0.35
344.664	0.35
345.03	0.36
345.396	0.37
345.763	0.37
346.129	0.38
346.496	0.39
346.862	0.39
347.228	0.4
347.594	0.4
347.961	0.4
348.327	0.41
348.693	0.42
349.059	0.42
349.425	0.43
349.791	0.43
350.157	0.43
350.523	0.44
350.889	0.45
351.255	0.45
351.621	0.45
351.987	0.46
352.353	0.47
352.719	0.47
353.084	0.48
353.45	0.48
353.816	0.49
354.181	0.5
354.547	0.5
354.913	0.51
355.278	0.51
355.644	0.52
356.009	0.53
356.375	0.53
356.74	0.55
357.106	0.55
357.471	0.56
357.836	0.56
358.202	0.57
358.567	0.58
358.932	0.59
359.297	0.6
359.663	0.6
360.028	0.6
360.393	0.62
360.758	0.62
361.123	0.63
361.488	0.65
361.853	0.65
362.218	0.67
362.583	0.67
362.948	0.68
363.312	0.68
363.677	0.7
364.042	0.7
364.407	0.71
364.772	0.72
365.136	0.73
365.501	0.74
365.865	0.74
366.23	0.75
366.595	0.75
366.959	0.76
367.324	0.76
367.688	0.78
368.052	0.78
368.417	0.79
368.781	0.79
369.145	0.8
369.51	0.8
369.874	0.82
370.238	0.81
370.602	0.81
370.967	0.82
371.331	0.83
371.695	0.83
372.059	0.84
372.423	0.85
372.787	0.84
373.151	0.84
373.515	0.84
373.878	0.84
374.242	0.83
374.606	0.83
374.97	0.82
375.334	0.82
375.697	0.81
376.061	0.8
376.425	0.8
376.788	0.79
377.152	0.78
377.515	0.78
377.879	0.77
378.242	0.76
378.606	0.75
378.969	0.74
379.333	0.73
379.696	0.72
380.059	0.72
380.422	0.71
380.786	0.7
381.149	0.69
381.512	0.69
381.875	0.68
382.238	0.67
382.601	0.67
382.964	0.66
383.327	0.65
383.69	0.65
384.053	0.65
384.416	0.65
384.779	0.63
385.142	0.63
385.504	0.63
385.867	0.63
386.23	0.63
386.593	0.63
386.955	0.62
387.318	0.63
387.68	0.63
388.043	0.62
388.405	0.63
388.768	0.63
389.13	0.63
389.493	0.63
389.855	0.62
390.217	0.62
390.58	0.62
390.942	0.61
391.304	0.61
391.666	0.6
392.028	0.59
392.391	0.59
392.753	0.58
393.115	0.57
393.477	0.57
393.839	0.57
394.201	0.56
394.563	0.55
394.924	0.55
395.286	0.56
395.648	0.55
396.01	0.56
396.371	0.57
396.733	0.58
397.095	0.58
397.456	0.6
397.818	0.61
398.18	0.63
398.541	0.65
398.903	0.66
399.264	0.68
399.625	0.7
399.987	0.71
400.348	0.73
400.709	0.73
401.071	0.74
401.432	0.74
401.793	0.75
402.154	0.74
402.515	0.74
402.876	0.72
403.238	0.7
403.599	0.69
403.96	0.66
404.32	0.65
404.681	0.62
405.042	0.6
405.403	0.57
405.764	0.55
406.125	0.52
406.485	0.49
406.846	0.47
407.207	0.44
407.567	0.41
407.928	0.39
408.288	0.37
408.649	0.35
409.009	0.33
409.37	0.31
409.73	0.29
410.091	0.28
410.451	0.27
410.811	0.25
411.171	0.23
411.532	0.22
411.892	0.21
412.252	0.2
412.612	0.19
412.972	0.18
413.332	0.18
413.692	0.17
414.052	0.16
414.412	0.16
414.772	0.15
415.132	0.14
415.492	0.14
415.851	0.13
416.211	0.13
416.571	0.13
416.931	0.12
417.29	0.12
417.65	0.11
418.009	0.11
418.369	0.11
418.728	0.11
419.088	0.11
419.447	0.1
419.807	0.09
420.166	0.1
420.525	0.1
420.884	0.09
421.244	0.09
421.603	0.09
421.962	0.09
422.321	0.08
422.68	0.09
423.039	0.08
423.398	0.08
423.757	0.08
424.116	0.08
424.475	0.08
424.834	0.08
425.193	0.07
425.551	0.08
425.91	0.08
426.269	0.07
426.628	0.07
426.986	0.07
427.345	0.08
427.703	0.08
428.062	0.07
428.42	0.07
428.779	0.07
429.137	0.07
429.496	0.07
429.854	0.08
430.212	0.07
430.57	0.07
430.929	0.06
431.287	0.07
431.645	0.06
432.003	0.06
432.361	0.06
432.719	0.06
433.077	0.07
433.435	0.06
433.793	0.06
434.151	0.06
434.509	0.06
434.866	0.06
435.224	0.07
435.582	0.06
435.94	0.07
436.297	0.06
436.655	0.06
437.012	0.06
437.37	0.06
437.727	0.05
438.085	0.06
438.442	0.06
438.8	0.06
439.157	0.06
439.514	0.07
439.872	0.06
440.229	0.07
440.586	0.06
440.943	0.06
441.3	0.06
441.657	0.07
442.014	0.07
442.371	0.05
442.728	0.06
443.085	0.06
443.442	0.08
443.799	0.06
444.156	0.07
444.513	0.06
444.869	0.07
445.226	0.06
445.583	0.06
445.939	0.06
446.296	0.06
446.652	0.08
447.009	0.06
447.365	0.06
447.722	0.06
448.078	0.06
448.434	0.06
448.791	0.06
449.147	0.07
449.503	0.07
449.859	0.06
450.215	0.06
450.571	0.07
450.928	0.07
451.284	0.06
451.64	0.06
451.995	0.07
452.351	0.08
452.707	0.07
453.063	0.07
453.419	0.07
453.775	0.08
454.13	0.07
454.486	0.07
454.842	0.07
455.197	0.08
455.553	0.07
455.908	0.07
456.264	0.07
456.619	0.08
456.975	0.07
457.33	0.07
457.685	0.07
458.04	0.08
458.396	0.07
458.751	0.07
459.106	0.07
459.461	0.07
459.816	0.07
460.171	0.07
460.526	0.07
460.881	0.08
461.236	0.07
461.591	0.07
461.946	0.08
462.301	0.07
462.655	0.07
463.01	0.07
463.365	0.07
463.719	0.08
464.074	0.08
464.428	0.08
464.783	0.07
465.137	0.08
465.492	0.08
465.846	0.08
466.201	0.08
466.555	0.08
466.909	0.09
467.263	0.09
467.618	0.08
467.972	0.08
468.326	0.08
468.68	0.09
469.034	0.08
469.388	0.09
469.742	0.09
470.096	0.09
470.45	0.09
470.804	0.09
471.157	0.09
471.511	0.09
471.865	0.09
472.218	0.09
472.572	0.1
472.926	0.1
473.279	0.1
473.633	0.1
473.986	0.1
474.34	0.11
474.693	0.11
475.046	0.11
475.4	0.11
475.753	0.11
476.106	0.12
476.459	0.11
476.812	0.12
477.165	0.12
477.519	0.12
477.872	0.12
478.224	0.12
478.577	0.13
478.93	0.13
479.283	0.13
479.636	0.13
479.989	0.14
480.341	0.13
480.694	0.13
481.047	0.14
481.399	0.14
481.752	0.14
482.104	0.14
482.457	0.14
482.809	0.15
483.162	0.15
483.514	0.15
483.866	0.15
484.219	0.16
484.571	0.16
484.923	0.15
485.275	0.16
485.627	0.16
485.979	0.16
486.331	0.17
486.683	0.17
487.035	0.16
487.387	0.17
487.739	0.17
488.091	0.17
488.443	0.17
488.794	0.17
489.146	0.18
489.498	0.18
489.849	0.18
490.201	0.18
490.552	0.18
490.904	0.18
491.255	0.18
491.607	0.19
491.958	0.19
492.309	0.19
492.661	0.19
493.012	0.19
493.363	0.19
493.714	0.2
494.065	0.19
494.416	0.2
494.767	0.2
495.118	0.2
495.469	0.2
495.82	0.21
496.171	0.21
496.522	0.21
496.872	0.21
497.223	0.21
497.574	0.21
497.924	0.21
498.275	0.22
498.626	0.22
498.976	0.22
499.327	0.22
499.677	0.23
500.027	0.22
500.378	0.23
500.728	0.23
501.078	0.23
501.428	0.23
501.779	0.24
502.129	0.24
502.479	0.24
502.829	0.24
503.179	0.24
503.529	0.24
503.879	0.24
504.229	0.25
504.578	0.24
504.928	0.25
505.278	0.24
505.628	0.25
505.977	0.25
506.327	0.25
506.676	0.25
507.026	0.26
507.375	0.26
507.725	0.26
508.074	0.27
508.424	0.26
508.773	0.26
509.122	0.27
509.471	0.27
509.82	0.27
510.17	0.28
510.519	0.27
510.868	0.27
511.217	0.28
511.566	0.28
511.915	0.28
512.263	0.28
512.612	0.28
512.961	0.28
513.31	0.29
513.659	0.28
514.007	0.29
514.356	0.29
514.704	0.3
515.053	0.29
515.401	0.29
515.75	0.29
516.098	0.29
516.447	0.3
516.795	0.3
517.143	0.3
517.491	0.3
517.839	0.31
518.188	0.31
518.536	0.3
518.884	0.31
519.232	0.31
519.58	0.31
519.928	0.31
520.275	0.31
520.623	0.32
520.971	0.32
521.319	0.32
521.666	0.32
522.014	0.32
522.362	0.32
522.709	0.32
523.057	0.32
523.404	0.32
523.752	0.32
524.099	0.32
524.446	0.33
524.794	0.32
525.141	0.33
525.488	0.33
525.835	0.33
526.182	0.33
526.529	0.33
526.876	0.33
527.223	0.34
527.57	0.34
527.917	0.34
528.264	0.34
528.611	0.34
528.958	0.34
529.304	0.34
529.651	0.35
529.998	0.34
530.344	0.34
530.691	0.34
531.037	0.35
531.384	0.34
531.73	0.34
532.076	0.35
532.423	0.35
532.769	0.35
533.115	0.35
533.461	0.35
533.807	0.36
534.154	0.35
534.5	0.35
534.846	0.36
535.192	0.36
535.537	0.36
535.883	0.36
536.229	0.36
536.575	0.36
536.921	0.36
537.266	0.36
537.612	0.36
537.957	0.36
538.303	0.36
538.649	0.37
538.994	0.37
539.339	0.37
539.685	0.36
540.03	0.36
540.375	0.37
540.721	0.37
541.066	0.37
541.411	0.37
541.756	0.37
542.101	0.37
542.446	0.37
542.791	0.37
543.136	0.38
543.481	0.37
543.825	0.38
544.17	0.38
544.515	0.38
544.86	0.38
545.204	0.38
545.549	0.38
545.893	0.38
546.238	0.38
546.582	0.38
546.927	0.38
547.271	0.38
547.615	0.38
547.96	0.38
548.304	0.38
548.648	0.38
548.992	0.38
549.336	0.38
549.68	0.38
550.024	0.38
550.368	0.38
550.712	0.39
551.056	0.38
551.4	0.39
551.743	0.38
552.087	0.38
552.431	0.38
552.774	0.39
553.118	0.39
553.462	0.39
553.805	0.38
554.148	0.38
554.492	0.39
554.835	0.38
555.178	0.38
555.522	0.39
555.865	0.38
556.208	0.38
556.551	0.38
556.894	0.39
557.237	0.39
557.58	0.38
557.923	0.38
558.266	0.38
558.609	0.38
558.952	0.39
559.294	0.38
559.637	0.38
559.98	0.38
560.322	0.39
560.665	0.39
561.007	0.39
561.35	0.38
561.692	0.38
562.034	0.38
562.377	0.38
562.719	0.39
563.061	0.38
563.403	0.38
563.745	0.38
564.088	0.38
564.43	0.38
564.772	0.38
565.113	0.38
565.455	0.38
565.797	0.38
566.139	0.38
566.481	0.38
566.822	0.38
567.164	0.38
567.506	0.38
567.847	0.38
568.189	0.38
568.53	0.38
568.872	0.37
569.213	0.38
569.554	0.38
569.895	0.37
570.237	0.37
570.578	0.37
570.919	0.37
571.26	0.37
571.601	0.37
571.942	0.37
572.283	0.37
572.624	0.37
572.965	0.37
573.306	0.36
573.646	0.36
573.987	0.36
574.328	0.36
574.668	0.36
575.009	0.36
575.349	0.35
575.69	0.35
576.03	0.35
576.37	0.35
576.711	0.34
577.051	0.34
577.391	0.34
577.731	0.35
578.072	0.35
578.412	0.35
578.752	0.35
579.092	0.34
579.431	0.32
579.771	0.3
580.111	0.28
580.451	0.29
580.791	0.32
581.13	0.33
581.47	0.34
581.81	0.34
582.149	0.34
582.489	0.34
582.828	0.32
583.167	0.28
583.507	0.25
583.846	0.24
584.185	0.26
584.525	0.28
584.864	0.31
585.203	0.33
585.542	0.34
585.881	0.34
586.22	0.34
586.559	0.33
586.898	0.31
587.236	0.3
587.575	0.29
587.914	0.3
588.252	0.32
588.591	0.33
588.93	0.33
589.268	0.32
589.607	0.32
589.945	0.32
590.283	0.32
590.622	0.33
590.96	0.34
591.298	0.34
591.636	0.34
591.974	0.34
592.313	0.34
592.651	0.34
592.989	0.34
593.326	0.35
593.664	0.34
594.002	0.34
594.34	0.34
594.678	0.34
595.015	0.32
595.353	0.31
595.691	0.32
596.028	0.33
596.366	0.33
596.703	0.34
597.04	0.34
597.378	0.34
597.715	0.34
598.052	0.34
598.389	0.35
598.726	0.34
599.064	0.35
599.401	0.34
599.738	0.34
600.074	0.34
600.411	0.34
600.748	0.33
601.085	0.33
601.422	0.32
601.758	0.32
602.095	0.32
602.432	0.33
602.768	0.33
603.105	0.33
603.441	0.34
603.777	0.34
604.114	0.34
604.45	0.34
604.786	0.34
605.122	0.34
605.459	0.34
605.795	0.33
606.131	0.33
606.467	0.34
606.803	0.33
607.139	0.34
607.474	0.33
607.81	0.33
608.146	0.33
608.482	0.33
608.817	0.33
609.153	0.32
609.488	0.32
609.824	0.32
610.159	0.33
610.495	0.33
610.83	0.33
611.165	0.33
611.5	0.33
611.836	0.33
612.171	0.32
612.506	0.32
612.841	0.33
613.176	0.32
613.511	0.33
613.845	0.32
614.18	0.32
614.515	0.32
614.85	0.32
615.184	0.32
615.519	0.32
615.854	0.32
616.188	0.32
616.523	0.31
616.857	0.31
617.191	0.31
617.526	0.31
617.86	0.31
618.194	0.3
618.528	0.31
618.862	0.31
619.196	0.31
619.53	0.31
619.864	0.31
620.198	0.31
620.532	0.3
620.866	0.3
621.2	0.31
621.533	0.3
621.867	0.3
622.201	0.3
622.534	0.3
622.868	0.3
623.201	0.29
623.534	0.3
623.868	0.29
624.201	0.29
624.534	0.29
624.868	0.29
625.201	0.29
625.534	0.29
625.867	0.29
626.2	0.29
626.533	0.28
626.865	0.28
627.198	0.28
627.531	0.28
627.864	0.28
628.196	0.28
628.529	0.28
628.862	0.27
629.194	0.28
629.527	0.27
629.859	0.27
630.191	0.27
630.524	0.27
630.856	0.27
631.188	0.26
631.52	0.26
631.852	0.26
632.184	0.26
632.516	0.26
632.848	0.26
633.18	0.25
633.512	0.25
633.844	0.25
634.175	0.25
634.507	0.25
634.839	0.25
635.17	0.25
635.502	0.24
635.833	0.25
636.165	0.24
636.496	0.24
636.827	0.24
637.159	0.24
637.49	0.24
637.821	0.24
638.152	0.23
638.483	0.23
638.814	0.23
639.145	0.23
639.476	0.23
639.807	0.22
640.137	0.22
640.468	0.22
640.799	0.22
641.129	0.22
641.46	0.22
641.791	0.21
642.121	0.21
642.451	0.21
642.782	0.21
643.112	0.21
643.442	0.21
643.773	0.21
644.103	0.2
644.433	0.21
644.763	0.2
645.093	0.2
645.423	0.2
645.753	0.2
646.082	0.2
646.412	0.2
646.742	0.2
647.072	0.2
647.401	0.2
647.731	0.2
648.06	0.19
648.39	0.19
648.719	0.19
649.048	0.19
649.378	0.19
649.707	0.19
650.036	0.19
650.365	0.19
650.694	0.19
651.023	0.19
651.352	0.19
651.681	0.19
652.01	0.19
652.339	0.19
652.668	0.19
652.996	0.19
653.325	0.18
653.654	0.18
653.982	0.18
654.311	0.18
654.639	0.18
654.967	0.18
655.296	0.18
655.624	0.18
655.952	0.18
656.28	0.18
656.609	0.18
656.937	0.18
657.265	0.18
657.593	0.06
657.92	0
658.248	-0
658.576	0
658.904	0.01
659.231	0.09
659.559	0.15
659.887	0.16
660.214	0.17
660.542	0.17
660.869	0.17
661.196	0.17
661.524	0.17
661.851	0.17
662.178	0.17
662.505	0.17
662.832	0.17
663.159	0.17
663.486	0.16
663.813	0.16
664.14	0.16
664.467	0.16
664.794	0.16
665.12	0.16
665.447	0.16
665.774	0.16
666.1	0.16
666.427	0.16
666.753	0.16
667.079	0.15
667.406	0.15
667.732	0.15
668.058	0.15
668.384	0.15
668.71	0.15
669.036	0.15
669.362	0.15
669.688	0.15
670.014	0.15
670.34	0.15
670.666	0.15
670.991	0.15
671.317	0.15
671.643	0.15
671.968	0.15
672.294	0.14
672.619	0.14
672.945	0.14
673.27	0.14
673.595	0.14
673.92	0.13
674.246	0.13
674.571	0.13
674.896	0.13
675.221	0.13
675.546	0.13
675.87	0.13
676.195	0.13
676.52	0.13
676.845	0.13
677.169	0.13
677.494	0.13
677.819	0.13
678.143	0.12
678.468	0.12
678.792	0.12
679.116	0.12
679.44	0.12
679.765	0.12
680.089	0.12
680.413	0.11
680.737	0.11
681.061	0.11
681.385	0.11
681.709	0.11
682.033	0.1
682.356	0.1
682.68	0.11
683.004	0.1
683.327	0.1
683.651	0.1
683.974	0.1
684.298	0.1
684.621	0.1
684.944	0.09
685.268	0.1
685.591	0.1
685.914	0.09
686.237	0.09
686.56	0.09
686.883	0.08
687.206	0.08
687.529	0.07
687.852	0.07
688.175	0.07
688.497	0.08
688.82	0.08
689.142	0.08
689.465	0.08
689.787	0.08
690.11	0.08
690.432	0.08
690.755	0.08
691.077	0.08
691.399	0.07
691.721	0.07
692.043	0.07
692.365	0.07
692.687	0.07
693.009	0.06
693.331	0.06
693.653	0.05
693.974	0.06
694.296	0.05
694.618	0.06
694.939	0.06
695.261	0.05
695.582	0.05
695.904	0.05
696.225	0.06
696.546	0.06
696.868	0.06
697.189	0.05
697.51	0.05
697.831	0.05
698.152	0.05
698.473	0.05
698.794	0.04
699.114	0.04
699.435	0.02
699.756	0.03
700.077	0.03
700.397	0.04
700.718	0.04
701.038	0.05
701.359	0.05
701.679	0.04
701.999	0.05
702.32	0.04
702.64	0.04
702.96	0.04
703.28	0.04
703.6	0.05
703.92	0.04
704.24	0.04
704.56	0.03
704.879	0.03
705.199	0.04
705.519	0.03
705.838	0.03
706.158	0.04
706.478	0.03
706.797	0.04
707.116	0.04
707.436	0.04
707.755	0.04
708.074	0.04
708.393	0.03
708.712	0.02
709.031	0.01
709.35	0.01
709.669	0.01
709.988	0.01
710.307	0.02
710.626	0.02
710.944	0.02
711.263	0.03
711.582	0.03
711.9	0.03
712.219	0.02
712.537	0.03
712.855	0.03
713.174	0.03
713.492	0.03
713.81	0.03
714.128	0.03
714.446	0.03
714.764	0.02
715.082	0.02
715.4	0.02
715.718	0.02
716.035	0.02
716.353	0.02
716.671	0.02
716.988	0.02
717.306	0.02
717.623	0.03
717.941	0.03
718.258	0.03
718.575	0.04
718.893	0.04
719.21	0.03
719.527	0.04
719.844	0.03
720.161	0.04
720.478	0.03
720.795	0.03
721.112	0.03
721.428	0.04
721.745	0.04
722.062	0.04
722.378	0.04
722.695	0.04
723.011	0.04
723.328	0.04
723.644	0.05
723.96	0.05
724.276	0.05
724.593	0.05
724.909	0.05
725.225	0.05
725.541	0.05
725.857	0.05
726.173	0.05
726.488	0.05
726.804	0.05
727.12	0.05
727.435	0.05
727.751	0.05
728.067	0.05
728.382	0.05
728.697	0.05
729.013	0.05
729.328	0.04
729.643	0.05
729.958	0.05
730.273	0.05
730.588	0.04
730.903	0.05
731.218	0.05
731.533	0.05
731.848	0.04
732.163	0.04
732.477	0.04
732.792	0.04
733.107	0.03
733.421	0.04
733.736	0.04
734.05	0.04
734.364	0.04
734.678	0.04
734.993	0.04
735.307	0.04
735.621	0.03
735.935	0.04
736.249	0.04
736.563	0.04
736.877	0.04
737.19	0.05
737.504	0.04
737.818	0.04
738.131	0.04
738.445	0.05
738.758	0.04
739.072	0.05
739.385	0.05
739.698	0.05
740.012	0.05
740.325	0.05
740.638	0.05
740.951	0.04
741.264	0.04
741.577	0.04
741.89	0.04
742.203	0.05
742.515	0.05
742.828	0.05
743.141	0.05
743.453	0.05
743.766	0.05
744.078	0.05
744.391	0.04
744.703	0.04
745.015	0.04
745.327	0.04
745.639	0.04
745.952	0.04
746.264	0.04
746.575	0.04
746.887	0.04
747.199	0.04
747.511	0.04
747.823	0.04
748.134	0.03
748.446	0.04
748.757	0.03
749.069	0.03
749.38	0.03
749.692	0.03
750.003	0.03
750.314	0.03
750.625	0.03
750.936	0.03
751.248	0.03
751.559	0.03
751.869	0.03
752.18	0.03
752.491	0.03
752.802	0.03
753.112	0.03
753.423	0.03
753.734	0.03
754.044	0.03
754.355	0.03
754.665	0.03
754.975	0.03
755.285	0.02
755.596	0.02
755.906	0.02
756.216	0.03
756.526	0.02
756.836	0.02
757.146	0.02
757.455	0.02
757.765	0.02
758.075	0.02
758.385	0.02
758.694	0.02
759.004	0.02
759.313	0.01
759.622	0.01
759.932	0.02
760.241	0.02
760.55	0.02
760.859	0.02
761.168	0.02
761.477	0.02
761.786	0.02
762.095	0.02
762.404	0.02
762.713	0.02
763.021	0.02
763.33	0.02
763.639	0.02
763.947	0.02
764.256	0.02
764.564	0.02
764.872	0.02
765.181	0.02
765.489	0.02
765.797	0.02
766.105	0.02
766.413	0.02
766.721	0.02
767.029	0.02
767.337	0.02
767.644	0.02
767.952	0.02
768.26	0.02
768.567	0.03
768.875	0.02
769.182	0.03
769.49	0.03
769.797	0.02
770.104	0.02
770.411	0.02
770.718	0.02
771.026	0.02
771.333	0.02
771.639	0.02
771.946	0.02
772.253	0.02
772.56	0.02
772.867	0.02
773.173	0.02
773.48	0.03
773.786	0.02
774.093	0.02
774.399	0.03
774.705	0.03
775.012	0.03
775.318	0.03
775.624	0.03
775.93	0.03
776.236	0.03
776.542	0.03
776.848	0.03
777.154	0.03
777.459	0.03
777.765	0.03
778.071	0.03
778.376	0.03
778.682	0.03
778.987	0.03
779.292	0.03
779.598	0.02
779.903	0.03
780.208	0.03
780.513	0.03
780.818	0.03
781.123	0.03
781.428	0.03
781.733	0.03
782.038	0.03
782.343	0.03
782.647	0.03
782.952	0.03
783.256	0.03
783.561	0.03
783.865	0.03
784.17	0.03
784.474	0.03
784.778	0.03
785.082	0.02
785.386	0.03
785.69	0.03
785.994	0.03
786.298	0.03
786.602	0.03
786.906	0.03
787.209	0.03
787.513	0.03
787.817	0.03
788.12	0.03
788.424	0.02
788.727	0.03
789.03	0.03
789.333	0.03
789.637	0.03
789.94	0.03
790.243	0.03
790.546	0.03
790.849	0.04
791.152	0.03
791.454	0.03
791.757	0.03
792.06	0.03
792.362	0.03
792.665	0.03
792.967	0.03
793.27	0.03
793.572	0.03
793.874	0.03
794.177	0.03
794.479	0.03
794.781	0.03
795.083	0.03
795.385	0.03
795.687	0.03
795.989	0.03
796.29	0.03
796.592	0.03
796.894	0.02
797.195	0.02
797.497	0.02
797.798	0.02
798.1	0.02
798.401	0.03
798.702	0.03
799.003	0.03
799.304	0.03
799.605	0.03
799.906	0.03
800.207	0.03
800.508	0.03
800.809	0.03
801.11	0.03
801.41	0.03
801.711	0.03
802.011	0.04
802.312	0.03
802.612	0.03
802.913	0.03
803.213	0.03
803.513	0.03
803.813	0.03
804.113	0.03
804.413	0.03
804.713	0.03
805.013	0.03
805.313	0.03
805.613	0.03
805.912	0.03
806.212	0.03
806.511	0.03
806.811	0.03
807.11	0.02
807.41	0.02
807.709	0.03
808.008	0.03
808.307	0.03
808.606	0.03
808.905	0.03
809.204	0.03
809.503	0.03
809.802	0.03
810.101	0.03
810.399	0.03
810.698	0.02
810.997	0.03
811.295	0.03
811.593	0.03
811.892	0.03
812.19	0.03
812.488	0.03
812.786	0.03
813.084	0.04
813.383	0.03
813.68	0.04
813.978	0.03
814.276	0.04
814.574	0.03
814.872	0.03
815.169	0.04
815.467	0.03
815.764	0.03
816.062	0.03
816.359	0.03
816.656	0.03
816.954	0.03
817.251	0.03
817.548	0.04
817.845	0.03
818.142	0.03
818.439	0.03
818.735	0.03
819.032	0.03
819.329	0.03
819.626	0.03
819.922	0.03
820.219	0.03
820.515	0.04
820.811	0.03
821.108	0.03
821.404	0.03
821.7	0.04
821.996	0.04
822.292	0.04
822.588	0.04
822.884	0.04
823.18	0.04
823.475	0.04
823.771	0.04
824.067	0.04
824.362	0.04
824.658	0.04
824.953	0.04
825.249	0.04
825.544	0.04
825.839	0.04
826.134	0.04
826.429	0.04
826.724	0.04
827.019	0.04
827.314	0.03
827.609	0.03
827.904	0.04
828.198	0.03
828.493	0.03
828.787	0.04
829.082	0.04
829.376	0.04
829.671	0.04
829.965	0.04
830.259	0.04
830.553	0.03
830.847	0.04
831.141	0.04
831.435	0.04
831.729	0.04
832.023	0.04
832.317	0.04
832.61	0.03
832.904	0.04
833.197	0.03
833.491	0.03
833.784	0.03
834.077	0.03
834.371	0.03
834.664	0.04
834.957	0.04
835.25	0.04
835.543	0.04
835.836	0.04
836.129	0.05
836.421	0.05
836.714	0.05
837.007	0.04
837.299	0.04
837.592	0.04
837.884	0.04
838.177	0.04
838.469	0.04
838.761	0.05
839.053	0.04
839.345	0.04
839.637	0.04
839.929	0.05
840.221	0.05
840.513	0.05
840.805	0.05
841.096	0.06
841.388	0.05
841.68	0.05
841.971	0.05
842.262	0.04
842.554	0.04
842.845	0.04
843.136	0.05
843.427	0.04
843.718	0.04
844.009	0.05
844.3	0.05
844.591	0.05
844.882	0.04
845.173	0.05
845.463	0.04
845.754	0.06
846.044	0.05
846.335	0.05
846.625	0.05
846.915	0.05
847.206	0.04
847.496	0.05
847.786	0.05
848.076	0.05
848.366	0.04
848.656	0.05
848.945	0.04
849.235	0.04
849.525	0.04
849.814	0.05
850.104	0.05
850.393	0.05
850.683	0.04
850.972	0.05
851.261	0.05
851.551	0.05
851.84	0.05
852.129	0.05
852.418	0.05
852.707	0.04
852.995	0.05
853.284	0.05
853.573	0.05
853.862	0.05
854.15	0.05
854.439	0.06
854.727	0.06
855.015	0.06
855.304	0.06
855.592	0.06
855.88	0.06
856.168	0.05
856.456	0.05
856.744	0.05
857.032	0.06
857.32	0.05
857.607	0.04
857.895	0.06
858.183	0.06
858.47	0.06
858.757	0.05
859.045	0.07
859.332	0.06
859.619	0.06
859.907	0.06
860.194	0.06
860.481	0.06
860.768	0.05
861.054	0.06
861.341	0.06
861.628	0.04
861.915	0.06
862.201	0.05
862.488	0.05
862.774	0.07
863.061	0.05
863.347	0.06
863.633	0.06
863.919	0.06
864.205	0.06
864.491	0.06
864.777	0.05
865.063	0.05
865.349	0.04
865.635	0.05
865.92	0.07
866.206	0.04
866.492	0.04
866.777	0.06
867.062	0.05
867.348	0.04
867.633	0.04
867.918	0.04
868.203	0.06
868.488	0.06
868.773	0.03
869.058	0.06
869.343	0.03
869.628	0.06
869.912	0.03
870.197	0.06
870.482	0.04
870.766	0.05
871.05	0.03
871.335	0.01
871.619	0.04
871.903	0.02
872.187	0.06
872.471	0.02
872.755	0.04
873.039	0.03
873.323	0.07
873.607	0.05
873.89	0.01
874.174	0.03
874.458	0.02
874.741	0.02
875.024	0.07
875.308	0.05
875.591	0.05
875.874	0.02
876.157	-0.01
876.44	0.03
876.723	0.01
877.006	0.09
877.289	0.01
877.572	0.01
877.854	0.05
878.137	0.01
878.42	-0.02
878.702	0.05
878.984	0.05
879.267	0.07
879.549	-0.01
879.831	0.04
880.113	0.06
880.395	0.09
880.677	0.06
880.959	0.01
