Data from Rubpy_BV_900_EDTA_Buffered_Absorbance_12-58-13-901.txt Node
Date: Wed Jul 01 12:58:13 BST 2026
User: fpm-admin
Spectrometer: OFX00224
Trigger mode: 0
Integration Time (sec): 7.000000E-2
Scans to average: 3
Nonlinearity correction enabled: false
Boxcar width: 0
Storing dark spectrum: false
XAxis mode: Wavelengths
Number of Pixels in Spectrum: 2136
>>>>>Begin Spectral Data<<<<<
154.91	-0.35
155.289	0.95
155.669	0.99
156.048	-0
156.428	-0.2
156.807	-0.02
157.186	-0
157.566	-0
157.945	-0.2
158.325	-0.23
158.704	-0.02
159.083	0.23
159.462	0.37
159.842	0.35
160.221	-0
160.6	-1.15
160.979	-0.07
161.359	-0
161.738	-0.28
162.117	-0
162.496	1.23
162.875	-0.11
163.254	-0.05
163.633	-0
164.012	0.12
164.391	-0.43
164.77	-0
165.149	0.09
165.528	-0.22
165.907	-1.35
166.286	0.05
166.665	0.52
167.044	-0
167.423	-0.3
167.802	-0.16
168.181	-0
168.559	0.16
168.938	-0
169.317	0.85
169.696	0.03
170.074	0.02
170.453	-0.12
170.832	-0.1
171.21	0.62
171.589	-0.21
171.968	0.52
172.346	-0
172.725	1.29
173.103	0.7
173.482	-0
173.861	-0
174.239	-0
174.617	-0
174.996	-0
175.374	-0
175.753	0.08
176.131	-0
176.51	0.34
176.888	-0
177.266	1.44
177.645	-0.09
178.023	0.53
178.401	0.1
178.779	-0
179.158	-0.82
179.536	0.16
179.914	0.14
180.292	-0
180.67	0.44
181.048	1.04
181.427	-0.15
181.805	-0
182.183	-0.2
182.561	-0
182.939	-0
183.317	-0.3
183.695	-0
184.073	-0
184.451	-0
184.829	-0
185.206	-0.8
185.584	-1.4
185.962	-0
186.34	0.51
186.718	-0
187.096	-1.15
187.473	0.51
187.851	-0.18
188.229	-0.4
188.607	0.11
188.984	0.11
189.362	0.05
189.74	0.1
190.117	-0.07
190.495	0.05
190.872	0.14
191.25	0.03
191.627	-0.07
192.005	0.07
192.382	0.04
192.76	0
193.137	0.07
193.515	0.12
193.892	0.14
194.269	0.04
194.647	0.05
195.024	0.07
195.401	-0.01
195.779	0.05
196.156	-0
196.533	0.08
196.91	0.1
197.288	0.01
197.665	0.07
198.042	-0
198.419	0.1
198.796	0.08
199.173	0.11
199.55	0.11
199.927	0.03
200.304	0.04
200.681	0.1
201.058	0.08
201.435	0.03
201.812	0.16
202.189	-0.03
202.566	0.02
202.943	0.08
203.32	0.11
203.697	0.09
204.073	0
204.45	-0.1
204.827	0.06
205.204	0.02
205.58	0.08
205.957	0.21
206.334	0.09
206.71	0.09
207.087	0.04
207.464	0.06
207.84	0.05
208.217	0.06
208.593	0.03
208.97	0.13
209.346	0.11
209.723	0.01
210.099	0.05
210.476	0.06
210.852	0.07
211.228	0.14
211.605	0.03
211.981	0.08
212.357	0.06
212.733	0.06
213.11	0.08
213.486	0.02
213.862	0.03
214.238	0.14
214.614	0.12
214.991	-0.02
215.367	0.04
215.743	0.08
216.119	0.05
216.495	0.03
216.871	0.01
217.247	0.11
217.623	0.12
217.999	0.07
218.375	0.04
218.751	0.14
219.127	0.07
219.502	0.12
219.878	0.06
220.254	0.1
220.63	0.11
221.006	0.02
221.381	0.14
221.757	0.1
222.133	0.03
222.508	0.17
222.884	0.07
223.26	0.12
223.635	0.07
224.011	0.02
224.386	0.12
224.762	0.19
225.137	0.04
225.513	0.06
225.888	-0.07
226.264	-0.01
226.639	0.13
227.014	0.11
227.39	0.13
227.765	0.16
228.14	0.05
228.516	0.14
228.891	0.09
229.266	0.13
229.641	0.08
230.017	0.09
230.392	0.11
230.767	0.15
231.142	0.09
231.517	0.03
231.892	-0.03
232.267	0.09
232.642	-0.01
233.017	0.11
233.392	0.13
233.767	0.2
234.142	0.07
234.517	0.02
234.892	-0.01
235.267	0.07
235.641	0.07
236.016	0.12
236.391	0.11
236.766	0.04
237.14	0.09
237.515	0.02
237.89	0.05
238.264	-0.02
238.639	0.05
239.014	0.16
239.388	0.02
239.763	0.08
240.137	0.07
240.512	0.16
240.886	0.06
241.261	0.09
241.635	0.09
242.009	0.08
242.384	0.06
242.758	-0.01
243.132	0.15
243.507	0.13
243.881	0.14
244.255	0.05
244.629	0.08
245.004	0.13
245.378	0.04
245.752	-0
246.126	0.08
246.5	0.12
246.874	0.12
247.248	0.11
247.622	0.01
247.996	0.07
248.37	0.11
248.744	0.07
249.118	0.01
249.492	0.21
249.866	0.04
250.24	0.05
250.613	0.07
250.987	0.03
251.361	0.05
251.735	0.05
252.108	0.1
252.482	0.1
252.856	0.07
253.229	0.1
253.603	0.1
253.977	0.09
254.35	0.05
254.724	0.07
255.097	0.04
255.471	0.08
255.844	0.03
256.218	0.09
256.591	0.02
256.964	0.04
257.338	0.07
257.711	0.11
258.084	0.08
258.458	0.18
258.831	0.19
259.204	0.07
259.577	0.11
259.95	0.05
260.323	0.05
260.697	0.16
261.07	0.08
261.443	0.06
261.816	0.15
262.189	0.07
262.562	0.11
262.935	0.12
263.308	0.04
263.68	0.19
264.053	0.06
264.426	0.04
264.799	0.1
265.172	0.13
265.545	0.06
265.917	0.11
266.29	0.04
266.663	0.14
267.035	0.09
267.408	0.08
267.781	0.05
268.153	0.09
268.526	0.12
268.898	0.09
269.271	0.16
269.643	0.03
270.016	0.13
270.388	0.1
270.76	0.07
271.133	0.08
271.505	0.13
271.877	0.09
272.25	0.08
272.622	0.06
272.994	0.05
273.366	0.03
273.739	0.08
274.111	0.04
274.483	0.09
274.855	0.11
275.227	0.07
275.599	0.11
275.971	0.1
276.343	0.14
276.715	0.15
277.087	0.07
277.459	0.01
277.831	0.1
278.203	0.07
278.574	0.17
278.946	0.08
279.318	0.06
279.69	0.06
280.061	0.17
280.433	-0.05
280.805	0.06
281.176	0.05
281.548	0.06
281.92	0.11
282.291	0.09
282.663	0.05
283.034	0.07
283.406	0.01
283.777	0.09
284.148	0.14
284.52	0.11
284.891	0.08
285.262	0.19
285.634	0.09
286.005	0.09
286.376	0.06
286.747	0.13
287.119	0.06
287.49	0.02
287.861	0.14
288.232	0.08
288.603	0.13
288.974	0.12
289.345	0.06
289.716	0.09
290.087	0.12
290.458	0.1
290.829	0.1
291.2	0.09
291.571	0.09
291.941	0.04
292.312	0.12
292.683	0.12
293.054	0.09
293.424	0.06
293.795	0.08
294.166	0.11
294.536	0.09
294.907	0.11
295.277	0.08
295.648	0.06
296.018	0.08
296.389	0.08
296.759	0.1
297.13	0.11
297.5	0.1
297.871	0.16
298.241	0.11
298.611	0.1
298.981	0.06
299.352	0.07
299.722	0.15
300.092	0.09
300.462	0.18
300.832	0.09
301.202	0.09
301.573	0.08
301.943	0.1
302.313	0.08
302.683	0.08
303.053	0.07
303.422	0.04
303.792	0.05
304.162	0.04
304.532	0.09
304.902	0.08
305.272	0.1
305.641	0.06
306.011	0.1
306.381	0.06
306.75	0.05
307.12	0.06
307.49	0.08
307.859	0.07
308.229	0.05
308.598	0.06
308.968	0.06
309.337	0.06
309.707	0.06
310.076	0.07
310.445	0.06
310.815	0.06
311.184	0.05
311.553	0.06
311.923	0.05
312.292	0.06
312.661	0.08
313.03	0.06
313.399	0.07
313.768	0.08
314.137	0.07
314.506	0.07
314.875	0.06
315.244	0.07
315.613	0.08
315.982	0.07
316.351	0.09
316.72	0.08
317.089	0.08
317.458	0.09
317.826	0.09
318.195	0.08
318.564	0.08
318.933	0.08
319.301	0.09
319.67	0.09
320.038	0.09
320.407	0.1
320.775	0.09
321.144	0.1
321.512	0.09
321.881	0.09
322.249	0.09
322.618	0.09
322.986	0.1
323.354	0.1
323.723	0.1
324.091	0.1
324.459	0.1
324.827	0.11
325.195	0.1
325.564	0.1
325.932	0.11
326.3	0.11
326.668	0.11
327.036	0.11
327.404	0.11
327.772	0.11
328.14	0.12
328.508	0.12
328.875	0.12
329.243	0.12
329.611	0.13
329.979	0.12
330.346	0.12
330.714	0.13
331.082	0.13
331.449	0.13
331.817	0.14
332.185	0.13
332.552	0.14
332.92	0.14
333.287	0.14
333.655	0.15
334.022	0.15
334.389	0.15
334.757	0.15
335.124	0.16
335.491	0.16
335.859	0.17
336.226	0.16
336.593	0.17
336.96	0.17
337.327	0.17
337.695	0.18
338.062	0.18
338.429	0.18
338.796	0.18
339.163	0.19
339.53	0.19
339.897	0.2
340.263	0.2
340.63	0.2
340.997	0.21
341.364	0.21
341.731	0.21
342.097	0.21
342.464	0.22
342.831	0.22
343.197	0.22
343.564	0.23
343.931	0.23
344.297	0.23
344.664	0.24
345.03	0.25
345.396	0.25
345.763	0.25
346.129	0.25
346.496	0.26
346.862	0.26
347.228	0.27
347.594	0.27
347.961	0.27
348.327	0.28
348.693	0.28
349.059	0.28
349.425	0.29
349.791	0.29
350.157	0.29
350.523	0.3
350.889	0.3
351.255	0.3
351.621	0.31
351.987	0.31
352.353	0.32
352.719	0.32
353.084	0.32
353.45	0.33
353.816	0.33
354.181	0.34
354.547	0.33
354.913	0.34
355.278	0.35
355.644	0.35
356.009	0.36
356.375	0.36
356.74	0.37
357.106	0.37
357.471	0.37
357.836	0.38
358.202	0.38
358.567	0.39
358.932	0.4
359.297	0.4
359.663	0.41
360.028	0.41
360.393	0.42
360.758	0.43
361.123	0.43
361.488	0.44
361.853	0.44
362.218	0.45
362.583	0.45
362.948	0.46
363.312	0.47
363.677	0.47
364.042	0.48
364.407	0.48
364.772	0.49
365.136	0.49
365.501	0.5
365.865	0.51
366.23	0.51
366.595	0.51
366.959	0.52
367.324	0.52
367.688	0.53
368.052	0.53
368.417	0.54
368.781	0.54
369.145	0.55
369.51	0.55
369.874	0.56
370.238	0.56
370.602	0.57
370.967	0.57
371.331	0.56
371.695	0.57
372.059	0.58
372.423	0.58
372.787	0.58
373.151	0.58
373.515	0.57
373.878	0.58
374.242	0.57
374.606	0.57
374.97	0.57
375.334	0.57
375.697	0.56
376.061	0.56
376.425	0.55
376.788	0.54
377.152	0.54
377.515	0.53
377.879	0.53
378.242	0.52
378.606	0.52
378.969	0.51
379.333	0.5
379.696	0.5
380.059	0.5
380.422	0.49
380.786	0.48
381.149	0.47
381.512	0.48
381.875	0.47
382.238	0.47
382.601	0.46
382.964	0.46
383.327	0.46
383.69	0.46
384.053	0.45
384.416	0.45
384.779	0.45
385.142	0.45
385.504	0.44
385.867	0.45
386.23	0.44
386.593	0.45
386.955	0.45
387.318	0.45
387.68	0.45
388.043	0.45
388.405	0.46
388.768	0.46
389.13	0.45
389.493	0.45
389.855	0.45
390.217	0.45
390.58	0.44
390.942	0.45
391.304	0.44
391.666	0.44
392.028	0.43
392.391	0.43
392.753	0.43
393.115	0.42
393.477	0.41
393.839	0.42
394.201	0.41
394.563	0.41
394.924	0.41
395.286	0.41
395.648	0.41
396.01	0.42
396.371	0.43
396.733	0.43
397.095	0.43
397.456	0.45
397.818	0.46
398.18	0.47
398.541	0.48
398.903	0.5
399.264	0.51
399.625	0.53
399.987	0.54
400.348	0.55
400.709	0.55
401.071	0.56
401.432	0.55
401.793	0.56
402.154	0.56
402.515	0.55
402.876	0.54
403.238	0.54
403.599	0.52
403.96	0.5
404.32	0.48
404.681	0.47
405.042	0.45
405.403	0.43
405.764	0.41
406.125	0.39
406.485	0.37
406.846	0.35
407.207	0.33
407.567	0.3
407.928	0.29
408.288	0.27
408.649	0.26
409.009	0.24
409.37	0.23
409.73	0.22
410.091	0.21
410.451	0.19
410.811	0.18
411.171	0.18
411.532	0.16
411.892	0.16
412.252	0.14
412.612	0.15
412.972	0.13
413.332	0.13
413.692	0.12
414.052	0.12
414.412	0.11
414.772	0.11
415.132	0.11
415.492	0.1
415.851	0.1
416.211	0.1
416.571	0.09
416.931	0.09
417.29	0.09
417.65	0.08
418.009	0.08
418.369	0.08
418.728	0.08
419.088	0.08
419.447	0.08
419.807	0.07
420.166	0.07
420.525	0.07
420.884	0.07
421.244	0.06
421.603	0.06
421.962	0.06
422.321	0.06
422.68	0.06
423.039	0.07
423.398	0.06
423.757	0.06
424.116	0.06
424.475	0.06
424.834	0.06
425.193	0.06
425.551	0.05
425.91	0.06
426.269	0.05
426.628	0.05
426.986	0.05
427.345	0.06
427.703	0.05
428.062	0.05
428.42	0.05
428.779	0.05
429.137	0.05
429.496	0.05
429.854	0.05
430.212	0.05
430.57	0.04
430.929	0.05
431.287	0.05
431.645	0.04
432.003	0.05
432.361	0.04
432.719	0.04
433.077	0.04
433.435	0.04
433.793	0.05
434.151	0.05
434.509	0.04
434.866	0.05
435.224	0.04
435.582	0.04
435.94	0.04
436.297	0.05
436.655	0.05
437.012	0.04
437.37	0.05
437.727	0.04
438.085	0.05
438.442	0.04
438.8	0.05
439.157	0.04
439.514	0.05
439.872	0.04
440.229	0.05
440.586	0.04
440.943	0.05
441.3	0.04
441.657	0.05
442.014	0.04
442.371	0.03
442.728	0.03
443.085	0.04
443.442	0.04
443.799	0.04
444.156	0.05
444.513	0.04
444.869	0.04
445.226	0.05
445.583	0.05
445.939	0.04
446.296	0.05
446.652	0.05
447.009	0.05
447.365	0.04
447.722	0.04
448.078	0.04
448.434	0.04
448.791	0.04
449.147	0.05
449.503	0.04
449.859	0.04
450.215	0.04
450.571	0.04
450.928	0.04
451.284	0.04
451.64	0.04
451.995	0.05
452.351	0.04
452.707	0.05
453.063	0.04
453.419	0.04
453.775	0.05
454.13	0.05
454.486	0.04
454.842	0.04
455.197	0.04
455.553	0.04
455.908	0.05
456.264	0.05
456.619	0.05
456.975	0.04
457.33	0.05
457.685	0.05
458.04	0.05
458.396	0.04
458.751	0.04
459.106	0.05
459.461	0.05
459.816	0.05
460.171	0.05
460.526	0.04
460.881	0.05
461.236	0.04
461.591	0.04
461.946	0.05
462.301	0.05
462.655	0.04
463.01	0.04
463.365	0.04
463.719	0.05
464.074	0.04
464.428	0.04
464.783	0.04
465.137	0.05
465.492	0.05
465.846	0.05
466.201	0.05
466.555	0.04
466.909	0.05
467.263	0.06
467.618	0.05
467.972	0.04
468.326	0.05
468.68	0.05
469.034	0.04
469.388	0.05
469.742	0.05
470.096	0.05
470.45	0.05
470.804	0.05
471.157	0.05
471.511	0.05
471.865	0.06
472.218	0.06
472.572	0.06
472.926	0.06
473.279	0.06
473.633	0.07
473.986	0.06
474.34	0.07
474.693	0.06
475.046	0.07
475.4	0.07
475.753	0.07
476.106	0.08
476.459	0.07
476.812	0.08
477.165	0.08
477.519	0.09
477.872	0.08
478.224	0.08
478.577	0.08
478.93	0.08
479.283	0.09
479.636	0.09
479.989	0.09
480.341	0.09
480.694	0.09
481.047	0.09
481.399	0.09
481.752	0.09
482.104	0.09
482.457	0.1
482.809	0.09
483.162	0.1
483.514	0.1
483.866	0.1
484.219	0.1
484.571	0.1
484.923	0.1
485.275	0.11
485.627	0.1
485.979	0.11
486.331	0.11
486.683	0.11
487.035	0.11
487.387	0.11
487.739	0.11
488.091	0.11
488.443	0.11
488.794	0.11
489.146	0.12
489.498	0.12
489.849	0.12
490.201	0.12
490.552	0.12
490.904	0.12
491.255	0.12
491.607	0.12
491.958	0.13
492.309	0.13
492.661	0.13
493.012	0.13
493.363	0.13
493.714	0.13
494.065	0.13
494.416	0.14
494.767	0.13
495.118	0.13
495.469	0.14
495.82	0.13
496.171	0.13
496.522	0.14
496.872	0.14
497.223	0.14
497.574	0.14
497.924	0.14
498.275	0.15
498.626	0.14
498.976	0.14
499.327	0.15
499.677	0.15
500.027	0.15
500.378	0.15
500.728	0.15
501.078	0.15
501.428	0.15
501.779	0.15
502.129	0.16
502.479	0.16
502.829	0.16
503.179	0.16
503.529	0.16
503.879	0.16
504.229	0.16
504.578	0.17
504.928	0.17
505.278	0.16
505.628	0.17
505.977	0.17
506.327	0.17
506.676	0.17
507.026	0.17
507.375	0.18
507.725	0.17
508.074	0.18
508.424	0.18
508.773	0.18
509.122	0.18
509.471	0.18
509.82	0.19
510.17	0.18
510.519	0.18
510.868	0.19
511.217	0.19
511.566	0.18
511.915	0.19
512.263	0.19
512.612	0.19
512.961	0.19
513.31	0.19
513.659	0.19
514.007	0.2
514.356	0.19
514.704	0.19
515.053	0.2
515.401	0.2
515.75	0.2
516.098	0.2
516.447	0.2
516.795	0.2
517.143	0.2
517.491	0.2
517.839	0.21
518.188	0.21
518.536	0.21
518.884	0.21
519.232	0.21
519.58	0.21
519.928	0.21
520.275	0.21
520.623	0.21
520.971	0.21
521.319	0.22
521.666	0.21
522.014	0.21
522.362	0.22
522.709	0.22
523.057	0.22
523.404	0.22
523.752	0.22
524.099	0.22
524.446	0.22
524.794	0.22
525.141	0.22
525.488	0.22
525.835	0.22
526.182	0.23
526.529	0.22
526.876	0.23
527.223	0.23
527.57	0.23
527.917	0.23
528.264	0.23
528.611	0.23
528.958	0.23
529.304	0.23
529.651	0.23
529.998	0.23
530.344	0.23
530.691	0.23
531.037	0.24
531.384	0.24
531.73	0.23
532.076	0.24
532.423	0.24
532.769	0.24
533.115	0.24
533.461	0.24
533.807	0.24
534.154	0.24
534.5	0.24
534.846	0.25
535.192	0.25
535.537	0.25
535.883	0.24
536.229	0.25
536.575	0.24
536.921	0.25
537.266	0.25
537.612	0.25
537.957	0.24
538.303	0.25
538.649	0.25
538.994	0.25
539.339	0.25
539.685	0.25
540.03	0.25
540.375	0.25
540.721	0.25
541.066	0.26
541.411	0.25
541.756	0.26
542.101	0.25
542.446	0.25
542.791	0.25
543.136	0.26
543.481	0.26
543.825	0.26
544.17	0.26
544.515	0.26
544.86	0.26
545.204	0.26
545.549	0.26
545.893	0.26
546.238	0.26
546.582	0.26
546.927	0.26
547.271	0.26
547.615	0.26
547.96	0.26
548.304	0.26
548.648	0.26
548.992	0.26
549.336	0.26
549.68	0.27
550.024	0.26
550.368	0.27
550.712	0.27
551.056	0.26
551.4	0.27
551.743	0.26
552.087	0.26
552.431	0.27
552.774	0.27
553.118	0.27
553.462	0.27
553.805	0.26
554.148	0.26
554.492	0.27
554.835	0.27
555.178	0.27
555.522	0.27
555.865	0.26
556.208	0.26
556.551	0.26
556.894	0.26
557.237	0.27
557.58	0.26
557.923	0.26
558.266	0.27
558.609	0.26
558.952	0.26
559.294	0.26
559.637	0.27
559.98	0.27
560.322	0.27
560.665	0.27
561.007	0.27
561.35	0.27
561.692	0.27
562.034	0.27
562.377	0.27
562.719	0.27
563.061	0.27
563.403	0.27
563.745	0.26
564.088	0.27
564.43	0.26
564.772	0.26
565.113	0.27
565.455	0.26
565.797	0.26
566.139	0.26
566.481	0.26
566.822	0.26
567.164	0.26
567.506	0.26
567.847	0.26
568.189	0.26
568.53	0.26
568.872	0.26
569.213	0.26
569.554	0.26
569.895	0.26
570.237	0.26
570.578	0.26
570.919	0.26
571.26	0.26
571.601	0.26
571.942	0.26
572.283	0.26
572.624	0.25
572.965	0.25
573.306	0.25
573.646	0.24
573.987	0.25
574.328	0.25
574.668	0.25
575.009	0.25
575.349	0.25
575.69	0.24
576.03	0.24
576.37	0.24
576.711	0.23
577.051	0.23
577.391	0.24
577.731	0.24
578.072	0.24
578.412	0.24
578.752	0.24
579.092	0.24
579.431	0.21
579.771	0.19
580.111	0.18
580.451	0.18
580.791	0.21
581.13	0.23
581.47	0.23
581.81	0.23
582.149	0.23
582.489	0.23
582.828	0.22
583.167	0.18
583.507	0.15
583.846	0.14
584.185	0.16
584.525	0.18
584.864	0.21
585.203	0.23
585.542	0.24
585.881	0.24
586.22	0.24
586.559	0.23
586.898	0.2
587.236	0.19
587.575	0.19
587.914	0.2
588.252	0.22
588.591	0.22
588.93	0.23
589.268	0.22
589.607	0.22
589.945	0.22
590.283	0.22
590.622	0.23
590.96	0.23
591.298	0.24
591.636	0.24
591.974	0.24
592.313	0.24
592.651	0.24
592.989	0.24
593.326	0.24
593.664	0.24
594.002	0.24
594.34	0.24
594.678	0.23
595.015	0.22
595.353	0.2
595.691	0.22
596.028	0.23
596.366	0.24
596.703	0.24
597.04	0.24
597.378	0.24
597.715	0.24
598.052	0.24
598.389	0.24
598.726	0.24
599.064	0.25
599.401	0.24
599.738	0.24
600.074	0.24
600.411	0.24
600.748	0.24
601.085	0.23
601.422	0.22
601.758	0.22
602.095	0.22
602.432	0.23
602.768	0.23
603.105	0.23
603.441	0.24
603.777	0.24
604.114	0.24
604.45	0.24
604.786	0.24
605.122	0.24
605.459	0.24
605.795	0.24
606.131	0.24
606.467	0.24
606.803	0.24
607.139	0.24
607.474	0.23
607.81	0.23
608.146	0.23
608.482	0.23
608.817	0.23
609.153	0.23
609.488	0.23
609.824	0.23
610.159	0.23
610.495	0.23
610.83	0.24
611.165	0.24
611.5	0.24
611.836	0.23
612.171	0.23
612.506	0.23
612.841	0.23
613.176	0.23
613.511	0.23
613.845	0.23
614.18	0.23
614.515	0.23
614.85	0.23
615.184	0.23
615.519	0.23
615.854	0.23
616.188	0.23
616.523	0.22
616.857	0.22
617.191	0.22
617.526	0.22
617.86	0.22
618.194	0.22
618.528	0.22
618.862	0.22
619.196	0.22
619.53	0.22
619.864	0.22
620.198	0.22
620.532	0.22
620.866	0.22
621.2	0.22
621.533	0.22
621.867	0.21
622.201	0.21
622.534	0.21
622.868	0.21
623.201	0.21
623.534	0.21
623.868	0.21
624.201	0.21
624.534	0.21
624.868	0.21
625.201	0.21
625.534	0.21
625.867	0.21
626.2	0.2
626.533	0.2
626.865	0.2
627.198	0.2
627.531	0.2
627.864	0.2
628.196	0.2
628.529	0.2
628.862	0.2
629.194	0.2
629.527	0.19
629.859	0.19
630.191	0.19
630.524	0.19
630.856	0.19
631.188	0.19
631.52	0.19
631.852	0.19
632.184	0.18
632.516	0.18
632.848	0.18
633.18	0.18
633.512	0.18
633.844	0.18
634.175	0.18
634.507	0.18
634.839	0.18
635.17	0.18
635.502	0.17
635.833	0.17
636.165	0.18
636.496	0.17
636.827	0.17
637.159	0.17
637.49	0.17
637.821	0.17
638.152	0.17
638.483	0.17
638.814	0.17
639.145	0.17
639.476	0.16
639.807	0.16
640.137	0.16
640.468	0.16
640.799	0.16
641.129	0.16
641.46	0.16
641.791	0.16
642.121	0.16
642.451	0.15
642.782	0.15
643.112	0.15
643.442	0.15
643.773	0.15
644.103	0.15
644.433	0.15
644.763	0.15
645.093	0.15
645.423	0.14
645.753	0.14
646.082	0.14
646.412	0.14
646.742	0.14
647.072	0.14
647.401	0.14
647.731	0.14
648.06	0.14
648.39	0.14
648.719	0.14
649.048	0.14
649.378	0.14
649.707	0.14
650.036	0.14
650.365	0.14
650.694	0.13
651.023	0.14
651.352	0.14
651.681	0.14
652.01	0.14
652.339	0.14
652.668	0.13
652.996	0.13
653.325	0.13
653.654	0.13
653.982	0.13
654.311	0.13
654.639	0.13
654.967	0.13
655.296	0.13
655.624	0.13
655.952	0.13
656.28	0.13
656.609	0.13
656.937	0.13
657.265	0.13
657.593	0.02
657.92	0
658.248	-0
658.576	0
658.904	0
659.231	0.04
659.559	0.1
659.887	0.12
660.214	0.12
660.542	0.12
660.869	0.12
661.196	0.12
661.524	0.12
661.851	0.12
662.178	0.12
662.505	0.12
662.832	0.12
663.159	0.12
663.486	0.12
663.813	0.12
664.14	0.12
664.467	0.12
664.794	0.12
665.12	0.12
665.447	0.11
665.774	0.11
666.1	0.11
666.427	0.11
666.753	0.12
667.079	0.11
667.406	0.11
667.732	0.11
668.058	0.11
668.384	0.11
668.71	0.12
669.036	0.12
669.362	0.11
669.688	0.11
670.014	0.11
670.34	0.11
670.666	0.11
670.991	0.11
671.317	0.11
671.643	0.11
671.968	0.11
672.294	0.11
672.619	0.11
672.945	0.1
673.27	0.1
673.595	0.1
673.92	0.1
674.246	0.1
674.571	0.1
674.896	0.1
675.221	0.1
675.546	0.1
675.87	0.1
676.195	0.1
676.52	0.1
676.845	0.1
677.169	0.09
677.494	0.09
677.819	0.1
678.143	0.09
678.468	0.09
678.792	0.09
679.116	0.09
679.44	0.09
679.765	0.09
680.089	0.09
680.413	0.08
680.737	0.08
681.061	0.08
681.385	0.08
681.709	0.08
682.033	0.07
682.356	0.07
682.68	0.08
683.004	0.07
683.327	0.07
683.651	0.07
683.974	0.07
684.298	0.07
684.621	0.07
684.944	0.07
685.268	0.07
685.591	0.07
685.914	0.07
686.237	0.06
686.56	0.06
686.883	0.06
687.206	0.05
687.529	0.05
687.852	0.05
688.175	0.05
688.497	0.05
688.82	0.05
689.142	0.05
689.465	0.05
689.787	0.06
690.11	0.06
690.432	0.05
690.755	0.06
691.077	0.05
691.399	0.05
691.721	0.05
692.043	0.05
692.365	0.05
692.687	0.05
693.009	0.05
693.331	0.04
693.653	0.04
693.974	0.04
694.296	0.03
694.618	0.04
694.939	0.04
695.261	0.03
695.582	0.03
695.904	0.03
696.225	0.04
696.546	0.04
696.868	0.04
697.189	0.04
697.51	0.04
697.831	0.04
698.152	0.04
698.473	0.04
698.794	0.03
699.114	0.02
699.435	0.01
699.756	0.02
700.077	0.02
700.397	0.02
700.718	0.03
701.038	0.03
701.359	0.03
701.679	0.03
701.999	0.03
702.32	0.03
702.64	0.03
702.96	0.03
703.28	0.03
703.6	0.03
703.92	0.02
704.24	0.02
704.56	0.02
704.879	0.02
705.199	0.02
705.519	0.02
705.838	0.02
706.158	0.02
706.478	0.02
706.797	0.03
707.116	0.03
707.436	0.03
707.755	0.03
708.074	0.02
708.393	0.02
708.712	0.01
709.031	0
709.35	0
709.669	0
709.988	0.01
710.307	0.01
710.626	0.01
710.944	0.01
711.263	0.01
711.582	0.02
711.9	0.02
712.219	0.01
712.537	0.01
712.855	0.02
713.174	0.02
713.492	0.01
713.81	0.02
714.128	0.02
714.446	0.02
714.764	0.01
715.082	0.01
715.4	0.01
715.718	0.01
716.035	0.01
716.353	0.01
716.671	0.01
716.988	0.01
717.306	0.01
717.623	0.01
717.941	0.02
718.258	0.02
718.575	0.02
718.893	0.02
719.21	0.02
719.527	0.03
719.844	0.02
720.161	0.02
720.478	0.02
720.795	0.02
721.112	0.02
721.428	0.02
721.745	0.03
722.062	0.03
722.378	0.03
722.695	0.03
723.011	0.03
723.328	0.03
723.644	0.03
723.96	0.03
724.276	0.03
724.593	0.03
724.909	0.04
725.225	0.03
725.541	0.04
725.857	0.03
726.173	0.04
726.488	0.04
726.804	0.03
727.12	0.03
727.435	0.03
727.751	0.03
728.067	0.03
728.382	0.04
728.697	0.03
729.013	0.04
729.328	0.03
729.643	0.03
729.958	0.03
730.273	0.04
730.588	0.03
730.903	0.03
731.218	0.03
731.533	0.03
731.848	0.03
732.163	0.03
732.477	0.03
732.792	0.03
733.107	0.02
733.421	0.02
733.736	0.02
734.05	0.03
734.364	0.03
734.678	0.03
734.993	0.02
735.307	0.03
735.621	0.02
735.935	0.03
736.249	0.03
736.563	0.03
736.877	0.03
737.19	0.03
737.504	0.03
737.818	0.03
738.131	0.03
738.445	0.04
738.758	0.03
739.072	0.03
739.385	0.03
739.698	0.03
740.012	0.04
740.325	0.04
740.638	0.03
740.951	0.03
741.264	0.03
741.577	0.03
741.89	0.03
742.203	0.03
742.515	0.03
742.828	0.04
743.141	0.04
743.453	0.03
743.766	0.03
744.078	0.03
744.391	0.03
744.703	0.03
745.015	0.03
745.327	0.03
745.639	0.03
745.952	0.03
746.264	0.03
746.575	0.03
746.887	0.03
747.199	0.03
747.511	0.03
747.823	0.02
748.134	0.02
748.446	0.03
748.757	0.03
749.069	0.02
749.38	0.03
749.692	0.03
750.003	0.03
750.314	0.03
750.625	0.02
750.936	0.02
751.248	0.02
751.559	0.02
751.869	0.02
752.18	0.02
752.491	0.02
752.802	0.02
753.112	0.02
753.423	0.02
753.734	0.02
754.044	0.02
754.355	0.02
754.665	0.02
754.975	0.02
755.285	0.02
755.596	0.01
755.906	0.02
756.216	0.02
756.526	0.02
756.836	0.02
757.146	0.01
757.455	0.01
757.765	0.02
758.075	0.01
758.385	0.01
758.694	0.01
759.004	0.01
759.313	0.01
759.622	0.01
759.932	0.01
760.241	0.02
760.55	0.02
760.859	0.02
761.168	0.02
761.477	0.02
761.786	0.02
762.095	0.02
762.404	0.01
762.713	0.02
763.021	0.01
763.33	0.01
763.639	0.01
763.947	0.02
764.256	0.02
764.564	0.02
764.872	0.02
765.181	0.02
765.489	0.01
765.797	0.02
766.105	0.02
766.413	0.01
766.721	0.01
767.029	0.02
767.337	0.02
767.644	0.02
767.952	0.02
768.26	0.02
768.567	0.02
768.875	0.02
769.182	0.02
769.49	0.02
769.797	0.02
770.104	0.02
770.411	0.01
770.718	0.02
771.026	0.02
771.333	0.01
771.639	0.02
771.946	0.02
772.253	0.02
772.56	0.01
772.867	0.02
773.173	0.02
773.48	0.02
773.786	0.02
774.093	0.02
774.399	0.02
774.705	0.02
775.012	0.02
775.318	0.02
775.624	0.02
775.93	0.02
776.236	0.02
776.542	0.02
776.848	0.02
777.154	0.02
777.459	0.02
777.765	0.02
778.071	0.02
778.376	0.02
778.682	0.02
778.987	0.02
779.292	0.02
779.598	0.02
779.903	0.02
780.208	0.02
780.513	0.02
780.818	0.02
781.123	0.02
781.428	0.02
781.733	0.02
782.038	0.02
782.343	0.02
782.647	0.02
782.952	0.02
783.256	0.02
783.561	0.02
783.865	0.02
784.17	0.02
784.474	0.02
784.778	0.02
785.082	0.02
785.386	0.02
785.69	0.02
785.994	0.02
786.298	0.02
786.602	0.02
786.906	0.02
787.209	0.02
787.513	0.02
787.817	0.02
788.12	0.02
788.424	0.02
788.727	0.02
789.03	0.02
789.333	0.02
789.637	0.02
789.94	0.03
790.243	0.02
790.546	0.03
790.849	0.03
791.152	0.03
791.454	0.03
791.757	0.03
792.06	0.03
792.362	0.02
792.665	0.02
792.967	0.02
793.27	0.02
793.572	0.02
793.874	0.02
794.177	0.02
794.479	0.02
794.781	0.02
795.083	0.02
795.385	0.02
795.687	0.02
795.989	0.02
796.29	0.02
796.592	0.02
796.894	0.02
797.195	0.02
797.497	0.02
797.798	0.02
798.1	0.02
798.401	0.02
798.702	0.02
799.003	0.02
799.304	0.02
799.605	0.02
799.906	0.02
800.207	0.02
800.508	0.02
800.809	0.02
801.11	0.02
801.41	0.02
801.711	0.02
802.011	0.02
802.312	0.03
802.612	0.02
802.913	0.02
803.213	0.02
803.513	0.02
803.813	0.02
804.113	0.02
804.413	0.02
804.713	0.02
805.013	0.02
805.313	0.03
805.613	0.02
805.912	0.02
806.212	0.02
806.511	0.02
806.811	0.02
807.11	0.01
807.41	0.01
807.709	0.01
808.008	0.01
808.307	0.01
808.606	0.01
808.905	0.02
809.204	0.01
809.503	0.01
809.802	0.02
810.101	0.02
810.399	0.02
810.698	0.01
810.997	0.02
811.295	0.02
811.593	0.02
811.892	0.02
812.19	0.02
812.488	0.02
812.786	0.02
813.084	0.03
813.383	0.02
813.68	0.02
813.978	0.02
814.276	0.02
814.574	0.02
814.872	0.03
815.169	0.02
815.467	0.02
815.764	0.02
816.062	0.02
816.359	0.03
816.656	0.02
816.954	0.02
817.251	0.02
817.548	0.02
817.845	0.02
818.142	0.02
818.439	0.02
818.735	0.02
819.032	0.02
819.329	0.02
819.626	0.02
819.922	0.02
820.219	0.03
820.515	0.02
820.811	0.02
821.108	0.01
821.404	0.02
821.7	0.02
821.996	0.02
822.292	0.03
822.588	0.03
822.884	0.03
823.18	0.03
823.475	0.02
823.771	0.02
824.067	0.03
824.362	0.03
824.658	0.03
824.953	0.03
825.249	0.03
825.544	0.03
825.839	0.03
826.134	0.03
826.429	0.03
826.724	0.02
827.019	0.02
827.314	0.02
827.609	0.02
827.904	0.02
828.198	0.02
828.493	0.02
828.787	0.02
829.082	0.03
829.376	0.03
829.671	0.02
829.965	0.02
830.259	0.03
830.553	0.02
830.847	0.03
831.141	0.03
831.435	0.03
831.729	0.02
832.023	0.02
832.317	0.03
832.61	0.02
832.904	0.03
833.197	0.02
833.491	0.02
833.784	0.02
834.077	0.02
834.371	0.02
834.664	0.03
834.957	0.03
835.25	0.03
835.543	0.03
835.836	0.03
836.129	0.04
836.421	0.03
836.714	0.03
837.007	0.02
837.299	0.03
837.592	0.03
837.884	0.03
838.177	0.02
838.469	0.02
838.761	0.02
839.053	0.02
839.345	0.03
839.637	0.03
839.929	0.04
840.221	0.04
840.513	0.04
840.805	0.03
841.096	0.04
841.388	0.03
841.68	0.03
841.971	0.03
842.262	0.02
842.554	0.03
842.845	0.02
843.136	0.03
843.427	0.03
843.718	0.03
844.009	0.04
844.3	0.04
844.591	0.04
844.882	0.03
845.173	0.04
845.463	0.03
845.754	0.04
846.044	0.03
846.335	0.03
846.625	0.03
846.915	0.04
847.206	0.03
847.496	0.03
847.786	0.03
848.076	0.04
848.366	0.02
848.656	0.03
848.945	0.03
849.235	0.02
849.525	0.03
849.814	0.03
850.104	0.03
850.393	0.04
850.683	0.03
850.972	0.03
851.261	0.03
851.551	0.02
851.84	0.03
852.129	0.04
852.418	0.03
852.707	0.03
852.995	0.02
853.284	0.03
853.573	0.03
853.862	0.03
854.15	0.04
854.439	0.04
854.727	0.04
855.015	0.03
855.304	0.04
855.592	0.04
855.88	0.04
856.168	0.03
856.456	0.02
856.744	0.03
857.032	0.02
857.32	0.03
857.607	0.02
857.895	0.03
858.183	0.03
858.47	0.03
858.757	0.03
859.045	0.03
859.332	0.04
859.619	0.04
859.907	0.04
860.194	0.04
860.481	0.03
860.768	0.03
861.054	0.03
861.341	0.04
861.628	0.03
861.915	0.04
862.201	0.03
862.488	0.02
862.774	0.04
863.061	0.02
863.347	0.04
863.633	0.03
863.919	0.03
864.205	0.03
864.491	0.03
864.777	0.04
865.063	0.02
865.349	0.03
865.635	0.03
865.92	0.03
866.206	0.01
866.492	0.03
866.777	0.03
867.062	0.04
867.348	0.02
867.633	0.04
867.918	0.04
868.203	0.02
868.488	0.04
868.773	0.04
869.058	0.05
869.343	0.03
869.628	0.02
869.912	0.01
870.197	0.04
870.482	0.05
870.766	0.02
871.05	-0
871.335	0.02
871.619	0.02
871.903	-0.02
872.187	0.04
872.471	0.02
872.755	-0.01
873.039	0.02
873.323	0.04
873.607	0
873.89	-0.01
874.174	0.02
874.458	-0.03
874.741	0.01
875.024	0.01
875.308	0.03
875.591	0.06
875.874	-0
876.157	-0.03
876.44	0.01
876.723	-0.02
877.006	0.03
877.289	0
877.572	0.03
877.854	0.01
878.137	-0.02
878.42	-0.01
878.702	-0.02
878.984	-0.02
879.267	-0.01
879.549	0
879.831	0.06
880.113	0.02
880.395	0.05
880.677	0.02
880.959	0.03
