Data from Rubpy_BV_900_EDTA_Buffered_Absorbance_12-56-26-794.txt Node
Date: Wed Jul 01 12:56:26 BST 2026
User: fpm-admin
Spectrometer: OFX00224
Trigger mode: 0
Integration Time (sec): 7.000000E-2
Scans to average: 3
Nonlinearity correction enabled: false
Boxcar width: 0
Storing dark spectrum: false
XAxis mode: Wavelengths
Number of Pixels in Spectrum: 2136
>>>>>Begin Spectral Data<<<<<
154.91	-0
155.289	0.24
155.669	0.49
156.048	-0
156.428	0.3
156.807	1.41
157.186	0.36
157.566	-0
157.945	-0.04
158.325	0.24
158.704	-0.4
159.083	-0.15
159.462	1.04
159.842	-0
160.221	-0
160.6	-0
160.979	-0.2
161.359	-0
161.738	-0.4
162.117	-0
162.496	-0
162.875	-0
163.254	-0
163.633	-0
164.012	-0
164.391	-0.05
164.77	-0
165.149	0.2
165.528	-0.32
165.907	-0.65
166.286	-0.08
166.665	-0
167.044	0.11
167.423	-0.67
167.802	0.02
168.181	-0.12
168.559	-0
168.938	-0
169.317	0.97
169.696	-0
170.074	-0
170.453	-0.05
170.832	-0.44
171.21	-0
171.589	0.39
171.968	0.6
172.346	-0
172.725	0.11
173.103	0.08
173.482	-0
173.861	-0
174.239	-0
174.617	-0
174.996	-0
175.374	-0
175.753	0.46
176.131	-0
176.51	-0.13
176.888	0.23
177.266	0.58
177.645	-0.14
178.023	0.09
178.401	0.29
178.779	-0.19
179.158	-1.17
179.536	0.51
179.914	-0.13
180.292	-1.15
180.67	0.66
181.048	-0.27
181.427	-0.12
181.805	-0
182.183	-0.68
182.561	-0.34
182.939	-0
183.317	-0.9
183.695	-0
184.073	-0
184.451	0.13
184.829	0.22
185.206	-1
185.584	-1.32
185.962	0.46
186.34	0.25
186.718	0.9
187.096	-1.24
187.473	-0
187.851	0.11
188.229	-0.98
188.607	-0.04
188.984	0.08
189.362	0.06
189.74	-0.07
190.117	-0.12
190.495	0.01
190.872	0.04
191.25	-0.01
191.627	-0.07
192.005	-0.03
192.382	0.03
192.76	-0.03
193.137	0.06
193.515	-0.02
193.892	0.07
194.269	-0.01
194.647	0.01
195.024	0
195.401	-0
195.779	0.02
196.156	0.03
196.533	0.1
196.91	0.02
197.288	0.02
197.665	-0.04
198.042	-0.04
198.419	0.07
198.796	-0.01
199.173	0.05
199.55	0.09
199.927	0.05
200.304	-0.05
200.681	0.07
201.058	0.04
201.435	0.06
201.812	0.15
202.189	0.04
202.566	-0.04
202.943	0.07
203.32	0.1
203.697	0.08
204.073	0.07
204.45	0.02
204.827	0.05
205.204	0.03
205.58	0.02
205.957	0.13
206.334	0.18
206.71	0.05
207.087	0.08
207.464	0.02
207.84	-0.03
208.217	0.01
208.593	0.06
208.97	-0
209.346	0.03
209.723	-0.03
210.099	0.11
210.476	-0.03
210.852	0.11
211.228	0.09
211.605	0.03
211.981	0.06
212.357	0.08
212.733	0.03
213.11	0.09
213.486	-0
213.862	0.02
214.238	0.12
214.614	0.12
214.991	0.05
215.367	0.01
215.743	0.09
216.119	0.04
216.495	0.04
216.871	-0.01
217.247	0.02
217.623	-0.01
217.999	0.01
218.375	0.04
218.751	0.03
219.127	0.09
219.502	0.08
219.878	0.02
220.254	0.06
220.63	0.05
221.006	-0.04
221.381	0.06
221.757	0.02
222.133	-0.03
222.508	0.02
222.884	0.02
223.26	0.05
223.635	0.07
224.011	0.01
224.386	0.13
224.762	0.17
225.137	0.03
225.513	0
225.888	-0.11
226.264	-0
226.639	0.08
227.014	0.06
227.39	-0.05
227.765	0.14
228.14	0.08
228.516	0.04
228.891	0.09
229.266	0.13
229.641	0.03
230.017	0.04
230.392	0.01
230.767	0.02
231.142	0.01
231.517	0.01
231.892	-0.05
232.267	0.01
232.642	0.02
233.017	0.14
233.392	0.16
233.767	0.12
234.142	0.06
234.517	0.03
234.892	-0.01
235.267	0.04
235.641	-0.08
236.016	0.03
236.391	0.04
236.766	0.04
237.14	0.03
237.515	-0.03
237.89	0.04
238.264	-0.01
238.639	0.1
239.014	0.06
239.388	0.07
239.763	0.01
240.137	0.08
240.512	0.07
240.886	0.03
241.261	0.08
241.635	0.01
242.009	0.06
242.384	0.02
242.758	-0
243.132	0.04
243.507	0.1
243.881	0.06
244.255	0.02
244.629	0.03
245.004	0.08
245.378	0.11
245.752	-0.03
246.126	-0
246.5	0.07
246.874	0.05
247.248	0.01
247.622	-0.04
247.996	0.05
248.37	0.04
248.744	0.04
249.118	0.01
249.492	0.09
249.866	0.12
250.24	0.07
250.613	0.03
250.987	0.01
251.361	0.02
251.735	0.02
252.108	0.03
252.482	0.08
252.856	0.02
253.229	0.05
253.603	0.04
253.977	0.03
254.35	0.06
254.724	0.04
255.097	0.01
255.471	0.08
255.844	0.02
256.218	0.04
256.591	0.06
256.964	-0.03
257.338	-0
257.711	0.02
258.084	0.03
258.458	0.02
258.831	0.19
259.204	0.11
259.577	0.03
259.95	-0
260.323	0.05
260.697	0.09
261.07	0.03
261.443	0
261.816	0.02
262.189	0.14
262.562	0.04
262.935	0.08
263.308	-0.01
263.68	0.11
264.053	0.08
264.426	0.02
264.799	0.02
265.172	0.05
265.545	0.02
265.917	0.06
266.29	0.04
266.663	0.15
267.035	0.05
267.408	0.09
267.781	0.02
268.153	0.08
268.526	0.08
268.898	0.02
269.271	0.08
269.643	0.01
270.016	0.09
270.388	0.07
270.76	0.04
271.133	0.04
271.505	0.09
271.877	0.03
272.25	0.02
272.622	0.03
272.994	0.03
273.366	0.01
273.739	0.01
274.111	0.03
274.483	0.02
274.855	0.07
275.227	0.04
275.599	0.06
275.971	0.02
276.343	0.03
276.715	0.1
277.087	0.06
277.459	0.03
277.831	0.03
278.203	0.03
278.574	0.08
278.946	0.06
279.318	-0
279.69	0.11
280.061	0.03
280.433	-0.03
280.805	0.03
281.176	0.05
281.548	0.04
281.92	0.01
282.291	0.06
282.663	-0.01
283.034	-0.02
283.406	0.01
283.777	0.08
284.148	0.06
284.52	0.17
284.891	0.04
285.262	0.17
285.634	0.06
286.005	0.02
286.376	-0.02
286.747	0.08
287.119	0.1
287.49	0.05
287.861	0.07
288.232	0.09
288.603	0.06
288.974	0.09
289.345	0.04
289.716	0.05
290.087	0.03
290.458	0.04
290.829	0.07
291.2	0.03
291.571	0.05
291.941	0.01
292.312	0.09
292.683	0.03
293.054	0.02
293.424	0.05
293.795	0.04
294.166	0.06
294.536	0.01
294.907	0.03
295.277	0.02
295.648	0.02
296.018	0.06
296.389	0.03
296.759	0.02
297.13	0.06
297.5	0.09
297.871	0.03
298.241	0.03
298.611	-0.01
298.981	0.01
299.352	0.03
299.722	0.07
300.092	0.06
300.462	0.01
300.832	0.03
301.202	0.08
301.573	0.04
301.943	0.07
302.313	0.09
302.683	0.03
303.053	0.03
303.422	-0
303.792	0.05
304.162	0.01
304.532	0.05
304.902	0.03
305.272	0.03
305.641	0.02
306.011	0.05
306.381	0.03
306.75	0.03
307.12	0.02
307.49	0.04
307.859	0.02
308.229	0.02
308.598	0.04
308.968	0.01
309.337	0.05
309.707	0.04
310.076	0.02
310.445	0.02
310.815	0.02
311.184	0.01
311.553	0.02
311.923	0.01
312.292	0.02
312.661	0.02
313.03	0.01
313.399	0.02
313.768	0.03
314.137	0.02
314.506	0.03
314.875	0.02
315.244	0.03
315.613	0.03
315.982	0.02
316.351	0.03
316.72	0.03
317.089	0.03
317.458	0.04
317.826	0.03
318.195	0.03
318.564	0.04
318.933	0.03
319.301	0.04
319.67	0.03
320.038	0.03
320.407	0.04
320.775	0.04
321.144	0.04
321.512	0.04
321.881	0.03
322.249	0.04
322.618	0.03
322.986	0.03
323.354	0.04
323.723	0.03
324.091	0.04
324.459	0.04
324.827	0.04
325.195	0.03
325.564	0.03
325.932	0.04
326.3	0.04
326.668	0.04
327.036	0.04
327.404	0.04
327.772	0.04
328.14	0.04
328.508	0.04
328.875	0.04
329.243	0.04
329.611	0.04
329.979	0.05
330.346	0.04
330.714	0.05
331.082	0.04
331.449	0.04
331.817	0.05
332.185	0.04
332.552	0.05
332.92	0.05
333.287	0.05
333.655	0.05
334.022	0.05
334.389	0.05
334.757	0.05
335.124	0.05
335.491	0.05
335.859	0.06
336.226	0.05
336.593	0.06
336.96	0.06
337.327	0.06
337.695	0.06
338.062	0.06
338.429	0.06
338.796	0.06
339.163	0.06
339.53	0.06
339.897	0.06
340.263	0.07
340.63	0.07
340.997	0.07
341.364	0.07
341.731	0.07
342.097	0.07
342.464	0.07
342.831	0.07
343.197	0.07
343.564	0.07
343.931	0.08
344.297	0.08
344.664	0.08
345.03	0.08
345.396	0.08
345.763	0.08
346.129	0.08
346.496	0.09
346.862	0.08
347.228	0.09
347.594	0.09
347.961	0.09
348.327	0.09
348.693	0.09
349.059	0.09
349.425	0.1
349.791	0.09
350.157	0.1
350.523	0.1
350.889	0.1
351.255	0.1
351.621	0.1
351.987	0.11
352.353	0.1
352.719	0.1
353.084	0.1
353.45	0.11
353.816	0.11
354.181	0.11
354.547	0.11
354.913	0.11
355.278	0.12
355.644	0.11
356.009	0.12
356.375	0.12
356.74	0.12
357.106	0.12
357.471	0.12
357.836	0.12
358.202	0.13
358.567	0.13
358.932	0.13
359.297	0.13
359.663	0.14
360.028	0.14
360.393	0.14
360.758	0.14
361.123	0.14
361.488	0.15
361.853	0.15
362.218	0.16
362.583	0.15
362.948	0.16
363.312	0.16
363.677	0.16
364.042	0.16
364.407	0.16
364.772	0.17
365.136	0.17
365.501	0.17
365.865	0.17
366.23	0.17
366.595	0.17
366.959	0.18
367.324	0.18
367.688	0.18
368.052	0.18
368.417	0.19
368.781	0.19
369.145	0.19
369.51	0.19
369.874	0.19
370.238	0.2
370.602	0.19
370.967	0.2
371.331	0.2
371.695	0.2
372.059	0.2
372.423	0.2
372.787	0.21
373.151	0.2
373.515	0.2
373.878	0.2
374.242	0.2
374.606	0.2
374.97	0.2
375.334	0.2
375.697	0.19
376.061	0.19
376.425	0.19
376.788	0.2
377.152	0.19
377.515	0.19
377.879	0.19
378.242	0.18
378.606	0.19
378.969	0.18
379.333	0.18
379.696	0.18
380.059	0.18
380.422	0.18
380.786	0.18
381.149	0.18
381.512	0.17
381.875	0.17
382.238	0.17
382.601	0.17
382.964	0.17
383.327	0.17
383.69	0.17
384.053	0.18
384.416	0.18
384.779	0.17
385.142	0.18
385.504	0.17
385.867	0.17
386.23	0.18
386.593	0.18
386.955	0.18
387.318	0.18
387.68	0.18
388.043	0.18
388.405	0.19
388.768	0.19
389.13	0.19
389.493	0.19
389.855	0.19
390.217	0.19
390.58	0.19
390.942	0.19
391.304	0.19
391.666	0.18
392.028	0.19
392.391	0.18
392.753	0.18
393.115	0.18
393.477	0.18
393.839	0.18
394.201	0.18
394.563	0.18
394.924	0.18
395.286	0.18
395.648	0.18
396.01	0.18
396.371	0.19
396.733	0.19
397.095	0.19
397.456	0.2
397.818	0.2
398.18	0.21
398.541	0.22
398.903	0.22
399.264	0.23
399.625	0.24
399.987	0.24
400.348	0.25
400.709	0.25
401.071	0.26
401.432	0.26
401.793	0.26
402.154	0.26
402.515	0.26
402.876	0.25
403.238	0.24
403.599	0.24
403.96	0.23
404.32	0.22
404.681	0.22
405.042	0.21
405.403	0.19
405.764	0.19
406.125	0.18
406.485	0.17
406.846	0.16
407.207	0.15
407.567	0.14
407.928	0.13
408.288	0.12
408.649	0.12
409.009	0.11
409.37	0.11
409.73	0.1
410.091	0.1
410.451	0.09
410.811	0.08
411.171	0.08
411.532	0.07
411.892	0.07
412.252	0.06
412.612	0.06
412.972	0.06
413.332	0.06
413.692	0.06
414.052	0.05
414.412	0.05
414.772	0.05
415.132	0.04
415.492	0.05
415.851	0.04
416.211	0.04
416.571	0.04
416.931	0.04
417.29	0.04
417.65	0.03
418.009	0.04
418.369	0.03
418.728	0.03
419.088	0.03
419.447	0.03
419.807	0.03
420.166	0.04
420.525	0.03
420.884	0.03
421.244	0.03
421.603	0.03
421.962	0.03
422.321	0.03
422.68	0.03
423.039	0.03
423.398	0.03
423.757	0.02
424.116	0.03
424.475	0.03
424.834	0.03
425.193	0.03
425.551	0.02
425.91	0.02
426.269	0.02
426.628	0.02
426.986	0.02
427.345	0.03
427.703	0.02
428.062	0.02
428.42	0.02
428.779	0.01
429.137	0.02
429.496	0.02
429.854	0.03
430.212	0.02
430.57	0.02
430.929	0.02
431.287	0.02
431.645	0.02
432.003	0.01
432.361	0.02
432.719	0.01
433.077	0.01
433.435	0.02
433.793	0.03
434.151	0.02
434.509	0.02
434.866	0.01
435.224	0.02
435.582	0.01
435.94	0.02
436.297	0.02
436.655	0.02
437.012	0.01
437.37	0.02
437.727	0.01
438.085	0.02
438.442	0.02
438.8	0.01
439.157	0.02
439.514	0.01
439.872	0.02
440.229	0.03
440.586	0.02
440.943	0.02
441.3	0.01
441.657	0.02
442.014	0.02
442.371	0.01
442.728	0.02
443.085	0.01
443.442	0.03
443.799	0.02
444.156	0.02
444.513	0.01
444.869	0.02
445.226	0.01
445.583	0.01
445.939	0.01
446.296	0.02
446.652	0.02
447.009	0.01
447.365	0.02
447.722	0.02
448.078	0.02
448.434	0.02
448.791	0.01
449.147	0.01
449.503	0.01
449.859	0.02
450.215	0
450.571	0.01
450.928	0.01
451.284	0.01
451.64	0.01
451.995	0.01
452.351	0.01
452.707	0.01
453.063	0.01
453.419	0.01
453.775	0.01
454.13	0.01
454.486	0.01
454.842	0.02
455.197	0.01
455.553	0.01
455.908	0.01
456.264	0.01
456.619	0.02
456.975	0.02
457.33	0.02
457.685	0.01
458.04	0.01
458.396	0
458.751	0.01
459.106	0.02
459.461	0.01
459.816	0.01
460.171	0.01
460.526	-0
460.881	0.01
461.236	0
461.591	0.01
461.946	0.01
462.301	0.01
462.655	0.01
463.01	0.01
463.365	0.01
463.719	0.01
464.074	0
464.428	0.01
464.783	0
465.137	0
465.492	0.01
465.846	0
466.201	0
466.555	0
466.909	0.01
467.263	0.01
467.618	0
467.972	0
468.326	0.01
468.68	0
469.034	-0
469.388	0
469.742	0.01
470.096	-0
470.45	0
470.804	0.01
471.157	0
471.511	0
471.865	0
472.218	0.01
472.572	0.01
472.926	0.02
473.279	0.01
473.633	0.01
473.986	0.01
474.34	0.01
474.693	0.01
475.046	0.02
475.4	0.01
475.753	0.01
476.106	0.01
476.459	0.01
476.812	0.02
477.165	0.02
477.519	0.02
477.872	0.01
478.224	0.02
478.577	0.02
478.93	0.02
479.283	0.02
479.636	0.02
479.989	0.02
480.341	0.02
480.694	0.02
481.047	0.02
481.399	0.03
481.752	0.02
482.104	0.02
482.457	0.03
482.809	0.02
483.162	0.03
483.514	0.03
483.866	0.03
484.219	0.03
484.571	0.03
484.923	0.03
485.275	0.04
485.627	0.03
485.979	0.03
486.331	0.03
486.683	0.03
487.035	0.03
487.387	0.03
487.739	0.03
488.091	0.04
488.443	0.03
488.794	0.03
489.146	0.04
489.498	0.04
489.849	0.04
490.201	0.03
490.552	0.04
490.904	0.04
491.255	0.03
491.607	0.04
491.958	0.04
492.309	0.04
492.661	0.04
493.012	0.04
493.363	0.04
493.714	0.04
494.065	0.04
494.416	0.04
494.767	0.04
495.118	0.03
495.469	0.04
495.82	0.04
496.171	0.04
496.522	0.04
496.872	0.04
497.223	0.04
497.574	0.05
497.924	0.05
498.275	0.05
498.626	0.05
498.976	0.05
499.327	0.04
499.677	0.05
500.027	0.05
500.378	0.05
500.728	0.05
501.078	0.05
501.428	0.05
501.779	0.05
502.129	0.05
502.479	0.05
502.829	0.05
503.179	0.05
503.529	0.05
503.879	0.05
504.229	0.05
504.578	0.05
504.928	0.05
505.278	0.05
505.628	0.05
505.977	0.06
506.327	0.06
506.676	0.05
507.026	0.05
507.375	0.06
507.725	0.06
508.074	0.06
508.424	0.06
508.773	0.06
509.122	0.06
509.471	0.06
509.82	0.06
510.17	0.06
510.519	0.06
510.868	0.06
511.217	0.06
511.566	0.06
511.915	0.06
512.263	0.06
512.612	0.06
512.961	0.06
513.31	0.07
513.659	0.06
514.007	0.06
514.356	0.06
514.704	0.06
515.053	0.07
515.401	0.07
515.75	0.07
516.098	0.06
516.447	0.07
516.795	0.07
517.143	0.07
517.491	0.07
517.839	0.07
518.188	0.07
518.536	0.07
518.884	0.07
519.232	0.07
519.58	0.07
519.928	0.07
520.275	0.07
520.623	0.07
520.971	0.07
521.319	0.08
521.666	0.07
522.014	0.07
522.362	0.07
522.709	0.07
523.057	0.07
523.404	0.07
523.752	0.08
524.099	0.08
524.446	0.08
524.794	0.07
525.141	0.08
525.488	0.08
525.835	0.08
526.182	0.08
526.529	0.07
526.876	0.08
527.223	0.08
527.57	0.08
527.917	0.08
528.264	0.08
528.611	0.08
528.958	0.08
529.304	0.08
529.651	0.08
529.998	0.08
530.344	0.08
530.691	0.08
531.037	0.08
531.384	0.08
531.73	0.08
532.076	0.08
532.423	0.08
532.769	0.08
533.115	0.09
533.461	0.08
533.807	0.09
534.154	0.08
534.5	0.08
534.846	0.09
535.192	0.09
535.537	0.09
535.883	0.08
536.229	0.09
536.575	0.08
536.921	0.09
537.266	0.09
537.612	0.09
537.957	0.09
538.303	0.09
538.649	0.09
538.994	0.09
539.339	0.09
539.685	0.09
540.03	0.09
540.375	0.08
540.721	0.09
541.066	0.09
541.411	0.09
541.756	0.09
542.101	0.09
542.446	0.09
542.791	0.09
543.136	0.09
543.481	0.09
543.825	0.09
544.17	0.09
544.515	0.09
544.86	0.09
545.204	0.09
545.549	0.09
545.893	0.09
546.238	0.09
546.582	0.09
546.927	0.09
547.271	0.09
547.615	0.09
547.96	0.09
548.304	0.09
548.648	0.09
548.992	0.09
549.336	0.09
549.68	0.1
550.024	0.09
550.368	0.09
550.712	0.09
551.056	0.09
551.4	0.09
551.743	0.09
552.087	0.09
552.431	0.09
552.774	0.1
553.118	0.1
553.462	0.1
553.805	0.1
554.148	0.09
554.492	0.1
554.835	0.1
555.178	0.1
555.522	0.1
555.865	0.09
556.208	0.1
556.551	0.09
556.894	0.09
557.237	0.1
557.58	0.1
557.923	0.09
558.266	0.1
558.609	0.1
558.952	0.1
559.294	0.1
559.637	0.1
559.98	0.1
560.322	0.1
560.665	0.1
561.007	0.1
561.35	0.1
561.692	0.1
562.034	0.1
562.377	0.1
562.719	0.1
563.061	0.1
563.403	0.1
563.745	0.1
564.088	0.1
564.43	0.1
564.772	0.1
565.113	0.1
565.455	0.1
565.797	0.1
566.139	0.1
566.481	0.1
566.822	0.1
567.164	0.1
567.506	0.1
567.847	0.1
568.189	0.1
568.53	0.09
568.872	0.1
569.213	0.1
569.554	0.1
569.895	0.1
570.237	0.1
570.578	0.1
570.919	0.1
571.26	0.1
571.601	0.09
571.942	0.1
572.283	0.09
572.624	0.09
572.965	0.09
573.306	0.09
573.646	0.09
573.987	0.09
574.328	0.09
574.668	0.09
575.009	0.09
575.349	0.09
575.69	0.09
576.03	0.09
576.37	0.08
576.711	0.08
577.051	0.08
577.391	0.08
577.731	0.09
578.072	0.09
578.412	0.09
578.752	0.09
579.092	0.08
579.431	0.06
579.771	0.05
580.111	0.03
580.451	0.04
580.791	0.07
581.13	0.08
581.47	0.08
581.81	0.08
582.149	0.08
582.489	0.08
582.828	0.07
583.167	0.04
583.507	0.01
583.846	0.01
584.185	0.02
584.525	0.04
584.864	0.06
585.203	0.08
585.542	0.09
585.881	0.09
586.22	0.09
586.559	0.08
586.898	0.06
587.236	0.05
587.575	0.05
587.914	0.06
588.252	0.07
588.591	0.08
588.93	0.08
589.268	0.08
589.607	0.08
589.945	0.08
590.283	0.08
590.622	0.08
590.96	0.09
591.298	0.09
591.636	0.09
591.974	0.09
592.313	0.09
592.651	0.09
592.989	0.09
593.326	0.09
593.664	0.09
594.002	0.09
594.34	0.09
594.678	0.09
595.015	0.07
595.353	0.06
595.691	0.07
596.028	0.09
596.366	0.09
596.703	0.09
597.04	0.09
597.378	0.09
597.715	0.09
598.052	0.09
598.389	0.09
598.726	0.09
599.064	0.09
599.401	0.09
599.738	0.09
600.074	0.09
600.411	0.09
600.748	0.09
601.085	0.08
601.422	0.08
601.758	0.08
602.095	0.08
602.432	0.08
602.768	0.08
603.105	0.09
603.441	0.09
603.777	0.1
604.114	0.09
604.45	0.1
604.786	0.1
605.122	0.1
605.459	0.09
605.795	0.09
606.131	0.09
606.467	0.1
606.803	0.09
607.139	0.09
607.474	0.09
607.81	0.09
608.146	0.09
608.482	0.09
608.817	0.09
609.153	0.09
609.488	0.09
609.824	0.09
610.159	0.09
610.495	0.09
610.83	0.09
611.165	0.09
611.5	0.09
611.836	0.09
612.171	0.09
612.506	0.09
612.841	0.09
613.176	0.09
613.511	0.09
613.845	0.09
614.18	0.09
614.515	0.09
614.85	0.09
615.184	0.09
615.519	0.09
615.854	0.09
616.188	0.09
616.523	0.09
616.857	0.09
617.191	0.09
617.526	0.09
617.86	0.09
618.194	0.09
618.528	0.09
618.862	0.09
619.196	0.09
619.53	0.09
619.864	0.09
620.198	0.09
620.532	0.09
620.866	0.09
621.2	0.09
621.533	0.09
621.867	0.09
622.201	0.09
622.534	0.08
622.868	0.09
623.201	0.09
623.534	0.09
623.868	0.09
624.201	0.08
624.534	0.08
624.868	0.09
625.201	0.08
625.534	0.09
625.867	0.08
626.2	0.09
626.533	0.08
626.865	0.08
627.198	0.08
627.531	0.08
627.864	0.08
628.196	0.08
628.529	0.08
628.862	0.08
629.194	0.08
629.527	0.08
629.859	0.08
630.191	0.08
630.524	0.08
630.856	0.08
631.188	0.08
631.52	0.08
631.852	0.08
632.184	0.07
632.516	0.07
632.848	0.08
633.18	0.07
633.512	0.07
633.844	0.07
634.175	0.07
634.507	0.07
634.839	0.07
635.17	0.07
635.502	0.07
635.833	0.07
636.165	0.08
636.496	0.07
636.827	0.07
637.159	0.07
637.49	0.07
637.821	0.07
638.152	0.07
638.483	0.07
638.814	0.07
639.145	0.07
639.476	0.07
639.807	0.07
640.137	0.06
640.468	0.06
640.799	0.07
641.129	0.06
641.46	0.06
641.791	0.06
642.121	0.06
642.451	0.07
642.782	0.06
643.112	0.06
643.442	0.06
643.773	0.06
644.103	0.06
644.433	0.06
644.763	0.06
645.093	0.06
645.423	0.06
645.753	0.06
646.082	0.06
646.412	0.06
646.742	0.06
647.072	0.06
647.401	0.06
647.731	0.06
648.06	0.06
648.39	0.06
648.719	0.06
649.048	0.06
649.378	0.06
649.707	0.06
650.036	0.06
650.365	0.06
650.694	0.05
651.023	0.06
651.352	0.06
651.681	0.06
652.01	0.06
652.339	0.06
652.668	0.06
652.996	0.06
653.325	0.06
653.654	0.06
653.982	0.06
654.311	0.05
654.639	0.06
654.967	0.05
655.296	0.06
655.624	0.06
655.952	0.06
656.28	0.06
656.609	0.06
656.937	0.05
657.265	0.06
657.593	0
657.92	0
658.248	-0
658.576	0
658.904	-0
659.231	0
659.559	0.03
659.887	0.05
660.214	0.05
660.542	0.05
660.869	0.05
661.196	0.05
661.524	0.05
661.851	0.05
662.178	0.05
662.505	0.05
662.832	0.05
663.159	0.05
663.486	0.05
663.813	0.05
664.14	0.05
664.467	0.05
664.794	0.05
665.12	0.05
665.447	0.05
665.774	0.05
666.1	0.05
666.427	0.04
666.753	0.05
667.079	0.05
667.406	0.04
667.732	0.05
668.058	0.05
668.384	0.04
668.71	0.05
669.036	0.05
669.362	0.05
669.688	0.05
670.014	0.05
670.34	0.05
670.666	0.05
670.991	0.04
671.317	0.05
671.643	0.05
671.968	0.05
672.294	0.05
672.619	0.05
672.945	0.04
673.27	0.04
673.595	0.04
673.92	0.04
674.246	0.04
674.571	0.04
674.896	0.04
675.221	0.04
675.546	0.04
675.87	0.04
676.195	0.04
676.52	0.04
676.845	0.04
677.169	0.04
677.494	0.04
677.819	0.04
678.143	0.04
678.468	0.04
678.792	0.04
679.116	0.04
679.44	0.04
679.765	0.04
680.089	0.04
680.413	0.03
680.737	0.03
681.061	0.03
681.385	0.03
681.709	0.03
682.033	0.03
682.356	0.03
682.68	0.03
683.004	0.03
683.327	0.03
683.651	0.03
683.974	0.03
684.298	0.03
684.621	0.03
684.944	0.03
685.268	0.03
685.591	0.03
685.914	0.03
686.237	0.02
686.56	0.02
686.883	0.02
687.206	0.02
687.529	0.02
687.852	0.01
688.175	0.01
688.497	0.02
688.82	0.02
689.142	0.02
689.465	0.02
689.787	0.02
690.11	0.02
690.432	0.02
690.755	0.02
691.077	0.02
691.399	0.02
691.721	0.02
692.043	0.02
692.365	0.02
692.687	0.02
693.009	0.01
693.331	0.01
693.653	0.01
693.974	0.01
694.296	0.01
694.618	0.01
694.939	0.01
695.261	0.01
695.582	0.01
695.904	0.01
696.225	0.02
696.546	0.02
696.868	0.02
697.189	0.01
697.51	0.01
697.831	0.01
698.152	0.01
698.473	0.01
698.794	0.01
699.114	0.01
699.435	0
699.756	0
700.077	0
700.397	0.01
700.718	0.01
701.038	0.01
701.359	0.01
701.679	0.01
701.999	0.01
702.32	0.01
702.64	0.01
702.96	0.01
703.28	0.01
703.6	0.01
703.92	0.01
704.24	0.01
704.56	0
704.879	0
705.199	0.01
705.519	0
705.838	0.01
706.158	0.01
706.478	0
706.797	0.01
707.116	0.01
707.436	0.01
707.755	0.01
708.074	0.01
708.393	0
708.712	0
709.031	0
709.35	0
709.669	0
709.988	0
710.307	0
710.626	0
710.944	0
711.263	0
711.582	0
711.9	0
712.219	0
712.537	0
712.855	0
713.174	0
713.492	0
713.81	0
714.128	0
714.446	0
714.764	0
715.082	0
715.4	0
715.718	0
716.035	0
716.353	0
716.671	0
716.988	0
717.306	0
717.623	0
717.941	0
718.258	0.01
718.575	0.01
718.893	0.01
719.21	0.01
719.527	0.01
719.844	0
720.161	0.01
720.478	0
720.795	0.01
721.112	0.01
721.428	0.01
721.745	0.01
722.062	0.01
722.378	0.01
722.695	0.01
723.011	0.01
723.328	0.01
723.644	0.01
723.96	0.01
724.276	0.01
724.593	0.01
724.909	0.02
725.225	0.01
725.541	0.01
725.857	0.01
726.173	0.01
726.488	0.02
726.804	0.01
727.12	0.01
727.435	0.01
727.751	0.01
728.067	0.01
728.382	0.01
728.697	0.01
729.013	0.02
729.328	0.01
729.643	0.01
729.958	0.01
730.273	0.01
730.588	0.01
730.903	0.01
731.218	0.01
731.533	0.01
731.848	0.01
732.163	0.01
732.477	0.01
732.792	0.01
733.107	0.01
733.421	0.01
733.736	0.01
734.05	0.01
734.364	0.01
734.678	0.01
734.993	0.01
735.307	0.01
735.621	0.01
735.935	0.01
736.249	0.01
736.563	0.01
736.877	0.01
737.19	0.01
737.504	0.01
737.818	0.01
738.131	0.01
738.445	0.01
738.758	0.01
739.072	0.01
739.385	0.01
739.698	0.02
740.012	0.02
740.325	0.02
740.638	0.02
740.951	0.01
741.264	0.01
741.577	0.01
741.89	0.01
742.203	0.02
742.515	0.01
742.828	0.02
743.141	0.02
743.453	0.02
743.766	0.02
744.078	0.02
744.391	0.01
744.703	0.01
745.015	0.01
745.327	0.01
745.639	0.01
745.952	0.01
746.264	0.01
746.575	0.01
746.887	0.01
747.199	0.01
747.511	0.01
747.823	0.01
748.134	0.01
748.446	0.01
748.757	0.01
749.069	0.01
749.38	0.01
749.692	0.01
750.003	0.01
750.314	0.01
750.625	0.01
750.936	0.01
751.248	0.01
751.559	0.01
751.869	0.01
752.18	0.01
752.491	0.01
752.802	0.01
753.112	0.01
753.423	0.01
753.734	0.01
754.044	0.01
754.355	0.01
754.665	0.01
754.975	0.01
755.285	0
755.596	0
755.906	0
756.216	0
756.526	0
756.836	0.01
757.146	0.01
757.455	0
757.765	0
758.075	0
758.385	0
758.694	0
759.004	0
759.313	0
759.622	0
759.932	0.01
760.241	0.01
760.55	0.01
760.859	0.01
761.168	0.01
761.477	0.01
761.786	0.01
762.095	0.01
762.404	0.01
762.713	0.01
763.021	0.01
763.33	0.01
763.639	0
763.947	0.01
764.256	0.01
764.564	0.01
764.872	0.01
765.181	0.01
765.489	0
765.797	0.01
766.105	0.01
766.413	0.01
766.721	0.01
767.029	0.01
767.337	0.01
767.644	0.01
767.952	0.01
768.26	0.01
768.567	0.01
768.875	0.01
769.182	0.01
769.49	0.01
769.797	0.01
770.104	0.01
770.411	0.01
770.718	0
771.026	0
771.333	0
771.639	0
771.946	0
772.253	0
772.56	0
772.867	0
773.173	0.01
773.48	0.01
773.786	0.01
774.093	0.01
774.399	0.01
774.705	0.01
775.012	0.01
775.318	0.01
775.624	0.01
775.93	0.01
776.236	0.01
776.542	0.01
776.848	0.01
777.154	0.01
777.459	0.01
777.765	0.01
778.071	0.01
778.376	0.01
778.682	0.01
778.987	0.01
779.292	0.01
779.598	0.01
779.903	0.01
780.208	0.01
780.513	0.01
780.818	0.01
781.123	0.01
781.428	0.01
781.733	0.01
782.038	0.01
782.343	0.01
782.647	0.01
782.952	0.01
783.256	0.01
783.561	0.01
783.865	0.01
784.17	0.01
784.474	0.01
784.778	0.01
785.082	0
785.386	0.01
785.69	0.01
785.994	0.01
786.298	0.01
786.602	0.01
786.906	0.01
787.209	0.01
787.513	0.01
787.817	0.01
788.12	0.01
788.424	0.01
788.727	0.01
789.03	0.01
789.333	0.01
789.637	0.01
789.94	0.01
790.243	0.01
790.546	0.01
790.849	0.02
791.152	0.01
791.454	0.01
791.757	0.02
792.06	0.02
792.362	0.01
792.665	0.01
792.967	0.01
793.27	0.01
793.572	0.01
793.874	0.01
794.177	0.01
794.479	0.01
794.781	0.01
795.083	0.01
795.385	0.01
795.687	0.01
795.989	0.01
796.29	0.01
796.592	0.01
796.894	0
797.195	0
797.497	0
797.798	0
798.1	0.01
798.401	0.01
798.702	0.01
799.003	0
799.304	0.01
799.605	0.01
799.906	0
800.207	0.01
800.508	0.01
800.809	0.01
801.11	0.01
801.41	0.01
801.711	0.01
802.011	0.01
802.312	0.01
802.612	0.01
802.913	0.01
803.213	0.01
803.513	0.01
803.813	0.01
804.113	0.01
804.413	0.01
804.713	0.01
805.013	0
805.313	0.01
805.613	0
805.912	0
806.212	0
806.511	0
806.811	0.01
807.11	0.01
807.41	0
807.709	0.01
808.008	0
808.307	0
808.606	0
808.905	0
809.204	0
809.503	0
809.802	0
810.101	0
810.399	0
810.698	-0
810.997	0
811.295	0.01
811.593	0.01
811.892	0.01
812.19	0.01
812.488	0
812.786	0.01
813.084	0.01
813.383	0.01
813.68	0.01
813.978	0.01
814.276	0.01
814.574	0.01
814.872	0.01
815.169	0.01
815.467	0.01
815.764	0
816.062	0
816.359	0.01
816.656	0
816.954	0
817.251	0
817.548	0.01
817.845	0.01
818.142	0
818.439	0
818.735	0
819.032	0
819.329	0
819.626	0
819.922	0
820.219	0.01
820.515	0.01
820.811	0
821.108	0
821.404	0
821.7	0
821.996	0.01
822.292	0.01
822.588	0.01
822.884	0.01
823.18	0.01
823.475	0.01
823.771	0.01
824.067	0.01
824.362	0.01
824.658	0.01
824.953	0.01
825.249	0.01
825.544	0.02
825.839	0.01
826.134	0.01
826.429	0.01
826.724	0
827.019	0
827.314	0
827.609	0
827.904	0
828.198	0
828.493	-0
828.787	0
829.082	0.01
829.376	0.01
829.671	0
829.965	0
830.259	0.01
830.553	0
830.847	0.01
831.141	0.01
831.435	0.01
831.729	0
832.023	0
832.317	0
832.61	0
832.904	0
833.197	-0
833.491	0
833.784	0
834.077	0
834.371	-0
834.664	0
834.957	0
835.25	0.01
835.543	0.01
835.836	0.01
836.129	0.01
836.421	0.01
836.714	0.01
837.007	0.01
837.299	0.01
837.592	0.01
837.884	0.01
838.177	-0
838.469	0.01
838.761	0.01
839.053	0
839.345	0.01
839.637	0
839.929	0.01
840.221	0.01
840.513	0.01
840.805	0.01
841.096	0.01
841.388	0.01
841.68	0.01
841.971	0.01
842.262	0
842.554	0.01
842.845	0
843.136	0.02
843.427	0.01
843.718	0
844.009	0.01
844.3	0.01
844.591	0.01
844.882	0
845.173	0.01
845.463	0.01
845.754	0.01
846.044	0.01
846.335	0.01
846.625	0.01
846.915	0
847.206	-0
847.496	0
847.786	0
848.076	0.02
848.366	0
848.656	0.01
848.945	-0
849.235	0
849.525	0
849.814	0
850.104	0
850.393	0
850.683	0
850.972	0.01
851.261	0.01
851.551	-0
851.84	-0
852.129	0.02
852.418	-0
852.707	-0
852.995	0
853.284	0.01
853.573	0.01
853.862	0.01
854.15	0.01
854.439	0.02
854.727	0.02
855.015	0.02
855.304	0.01
855.592	0.01
855.88	0.02
856.168	-0
856.456	0.01
856.744	0.01
857.032	0.01
857.32	0.01
857.607	0
857.895	0
858.183	0.01
858.47	-0
858.757	0
859.045	0.01
859.332	0.01
859.619	0.02
859.907	0.01
860.194	0.01
860.481	0.01
860.768	-0
861.054	0.01
861.341	0.01
861.628	0.01
861.915	0.01
862.201	0
862.488	0.01
862.774	0.02
863.061	0
863.347	0.03
863.633	-0
863.919	-0.01
864.205	0.02
864.491	0.01
864.777	0.01
865.063	0.01
865.349	0
865.635	-0.01
865.92	0.01
866.206	0
866.492	-0.02
866.777	-0.01
867.062	0.02
867.348	0
867.633	0.01
867.918	0.01
868.203	0.01
868.488	0.03
868.773	0
869.058	0.02
869.343	-0
869.628	0.01
869.912	-0.01
870.197	0.01
870.482	0.01
870.766	0.02
871.05	-0.03
871.335	0
871.619	-0.01
871.903	-0.02
872.187	0
872.471	-0
872.755	-0.01
873.039	0.02
873.323	0.02
873.607	-0.02
873.89	-0.02
874.174	-0.04
874.458	0
874.741	0.01
875.024	0.01
875.308	0.01
875.591	0.02
875.874	0.02
876.157	-0.02
876.44	0.01
876.723	-0.02
877.006	0.04
877.289	0.01
877.572	-0.01
877.854	-0.03
878.137	-0.02
878.42	0.01
878.702	0.01
878.984	0
879.267	-0.04
879.549	-0
879.831	0.06
880.113	0.01
880.395	0.01
880.677	-0.03
880.959	0.04
