Data from Rubpy_BV_900_EDTA_Buffered_Absorbance_13-14-43-876.txt Node
Date: Wed Jul 01 13:14:43 BST 2026
User: fpm-admin
Spectrometer: OFX00224
Trigger mode: 0
Integration Time (sec): 7.000000E-2
Scans to average: 3
Nonlinearity correction enabled: false
Boxcar width: 0
Storing dark spectrum: false
XAxis mode: Wavelengths
Number of Pixels in Spectrum: 2136
>>>>>Begin Spectral Data<<<<<
154.91	-0
155.289	0.2
155.669	0.01
156.048	-0.93
156.428	0.07
156.807	0.09
157.186	0.05
157.566	-0
157.945	-0.25
158.325	-0
158.704	-0.44
159.083	-0.37
159.462	0.07
159.842	-0
160.221	-0
160.6	-0
160.979	0.12
161.359	-0
161.738	-0
162.117	-0
162.496	0.45
162.875	0.67
163.254	0.03
163.633	0.4
164.012	-0.05
164.391	-0
164.77	-0.62
165.149	0.24
165.528	-0.22
165.907	-1.16
166.286	0.02
166.665	-0
167.044	-0
167.423	-0.53
167.802	-0.24
168.181	-0.54
168.559	0.51
168.938	-0
169.317	0.1
169.696	0.25
170.074	-0.03
170.453	-0.07
170.832	-0
171.21	0.38
171.589	0.14
171.968	0.9
172.346	0.42
172.725	-0
173.103	-0
173.482	-0
173.861	-0
174.239	-0
174.617	-0
174.996	0.17
175.374	-0
175.753	-0.01
176.131	-0.24
176.51	-0.11
176.888	-0
177.266	-0
177.645	-0.19
178.023	0.81
178.401	-0.03
178.779	-0.06
179.158	-0.97
179.536	-0.43
179.914	-0.28
180.292	-1
180.67	0.24
181.048	-0.21
181.427	0.06
181.805	-0
182.183	-0
182.561	-0.07
182.939	-0
183.317	-0
183.695	-0
184.073	-0.76
184.451	-0.01
184.829	-0
185.206	-0
185.584	-0.78
185.962	-0
186.34	-0.23
186.718	-0
187.096	-1.12
187.473	1.32
187.851	0.02
188.229	-0.7
188.607	0.17
188.984	0.2
189.362	0.05
189.74	0.16
190.117	0.14
190.495	0.12
190.872	0.21
191.25	0.11
191.627	0.01
192.005	0.08
192.382	0.22
192.76	0.1
193.137	0.14
193.515	0.13
193.892	0.14
194.269	0.14
194.647	0.18
195.024	0.16
195.401	0.06
195.779	0.13
196.156	0.09
196.533	0.18
196.91	0.21
197.288	0.13
197.665	0.1
198.042	0.12
198.419	0.1
198.796	0.14
199.173	0.15
199.55	0.26
199.927	0.21
200.304	0.14
200.681	0.19
201.058	0.24
201.435	0.12
201.812	0.17
202.189	0.18
202.566	0.11
202.943	0.13
203.32	0.27
203.697	0.17
204.073	0.2
204.45	0.16
204.827	0.18
205.204	0.06
205.58	0.2
205.957	0.22
206.334	0.28
206.71	0.17
207.087	0.13
207.464	0.2
207.84	0.31
208.217	0.21
208.593	0.07
208.97	0.07
209.346	0.16
209.723	0.26
210.099	0.2
210.476	0.12
210.852	0.27
211.228	0.14
211.605	0.15
211.981	0.19
212.357	0.13
212.733	0.24
213.11	0.14
213.486	0.15
213.862	0.08
214.238	0.24
214.614	0.24
214.991	0.11
215.367	0.1
215.743	0.27
216.119	0.23
216.495	0.11
216.871	0.1
217.247	0.17
217.623	0.14
217.999	0.19
218.375	0.13
218.751	0.11
219.127	0.15
219.502	0.18
219.878	0.16
220.254	0.1
220.63	0.15
221.006	-0.01
221.381	0.29
221.757	0.2
222.133	0.09
222.508	0.18
222.884	0.24
223.26	0.29
223.635	0.13
224.011	0.16
224.386	0.21
224.762	0.18
225.137	0.2
225.513	0.19
225.888	0.12
226.264	0.06
226.639	0.21
227.014	0.15
227.39	0.23
227.765	0.2
228.14	0.14
228.516	0.21
228.891	0.17
229.266	0.2
229.641	0.19
230.017	0.18
230.392	0.29
230.767	0.22
231.142	0.12
231.517	0.12
231.892	0.04
232.267	0.19
232.642	0.06
233.017	0.16
233.392	0.21
233.767	0.28
234.142	0.21
234.517	0.18
234.892	0.07
235.267	0.17
235.641	0.19
236.016	0.18
236.391	0.21
236.766	0.21
237.14	0.19
237.515	0.13
237.89	0.08
238.264	0.14
238.639	0.2
239.014	0.13
239.388	0.14
239.763	0.13
240.137	0.18
240.512	0.25
240.886	0.14
241.261	0.21
241.635	0.14
242.009	0.19
242.384	0.19
242.758	0.13
243.132	0.27
243.507	0.3
243.881	0.23
244.255	0.15
244.629	0.13
245.004	0.17
245.378	0.19
245.752	0.13
246.126	0.16
246.5	0.14
246.874	0.23
247.248	0.22
247.622	0.17
247.996	0.27
248.37	0.24
248.744	0.14
249.118	0.28
249.492	0.22
249.866	0.17
250.24	0.31
250.613	0.17
250.987	0.13
251.361	0.19
251.735	0.12
252.108	0.19
252.482	0.21
252.856	0.16
253.229	0.22
253.603	0.16
253.977	0.12
254.35	0.19
254.724	0.19
255.097	0.18
255.471	0.16
255.844	0.14
256.218	0.21
256.591	0.14
256.964	0.1
257.338	0.2
257.711	0.22
258.084	0.18
258.458	0.2
258.831	0.25
259.204	0.28
259.577	0.25
259.95	0.17
260.323	0.21
260.697	0.28
261.07	0.19
261.443	0.13
261.816	0.18
262.189	0.14
262.562	0.27
262.935	0.25
263.308	0.18
263.68	0.17
264.053	0.22
264.426	0.23
264.799	0.16
265.172	0.18
265.545	0.19
265.917	0.18
266.29	0.19
266.663	0.27
267.035	0.27
267.408	0.19
267.781	0.21
268.153	0.27
268.526	0.21
268.898	0.22
269.271	0.19
269.643	0.13
270.016	0.16
270.388	0.19
270.76	0.2
271.133	0.2
271.505	0.21
271.877	0.19
272.25	0.17
272.622	0.15
272.994	0.12
273.366	0.2
273.739	0.2
274.111	0.16
274.483	0.14
274.855	0.27
275.227	0.11
275.599	0.3
275.971	0.21
276.343	0.3
276.715	0.23
277.087	0.18
277.459	0.11
277.831	0.2
278.203	0.17
278.574	0.22
278.946	0.21
279.318	0.15
279.69	0.24
280.061	0.26
280.433	0.09
280.805	0.15
281.176	0.2
281.548	0.15
281.92	0.12
282.291	0.24
282.663	0.12
283.034	0.14
283.406	0.13
283.777	0.18
284.148	0.2
284.52	0.27
284.891	0.3
285.262	0.28
285.634	0.17
286.005	0.15
286.376	0.16
286.747	0.22
287.119	0.16
287.49	0.13
287.861	0.19
288.232	0.18
288.603	0.2
288.974	0.22
289.345	0.19
289.716	0.22
290.087	0.18
290.458	0.22
290.829	0.14
291.2	0.18
291.571	0.17
291.941	0.19
292.312	0.21
292.683	0.2
293.054	0.21
293.424	0.17
293.795	0.18
294.166	0.23
294.536	0.26
294.907	0.16
295.277	0.16
295.648	0.24
296.018	0.18
296.389	0.15
296.759	0.19
297.13	0.11
297.5	0.23
297.871	0.27
298.241	0.18
298.611	0.25
298.981	0.16
299.352	0.15
299.722	0.21
300.092	0.17
300.462	0.13
300.832	0.14
301.202	0.18
301.573	0.19
301.943	0.19
302.313	0.18
302.683	0.17
303.053	0.16
303.422	0.11
303.792	0.15
304.162	0.14
304.532	0.12
304.902	0.15
305.272	0.11
305.641	0.1
306.011	0.15
306.381	0.14
306.75	0.11
307.12	0.1
307.49	0.1
307.859	0.13
308.229	0.1
308.598	0.11
308.968	0.11
309.337	0.11
309.707	0.1
310.076	0.12
310.445	0.11
310.815	0.12
311.184	0.1
311.553	0.11
311.923	0.11
312.292	0.12
312.661	0.13
313.03	0.12
313.399	0.14
313.768	0.14
314.137	0.13
314.506	0.14
314.875	0.14
315.244	0.15
315.613	0.15
315.982	0.16
316.351	0.15
316.72	0.14
317.089	0.15
317.458	0.16
317.826	0.15
318.195	0.16
318.564	0.17
318.933	0.18
319.301	0.18
319.67	0.18
320.038	0.17
320.407	0.18
320.775	0.18
321.144	0.19
321.512	0.18
321.881	0.19
322.249	0.19
322.618	0.2
322.986	0.2
323.354	0.2
323.723	0.2
324.091	0.21
324.459	0.21
324.827	0.21
325.195	0.21
325.564	0.22
325.932	0.23
326.3	0.22
326.668	0.21
327.036	0.23
327.404	0.23
327.772	0.24
328.14	0.24
328.508	0.24
328.875	0.25
329.243	0.25
329.611	0.25
329.979	0.27
330.346	0.26
330.714	0.27
331.082	0.27
331.449	0.27
331.817	0.28
332.185	0.28
332.552	0.29
332.92	0.3
333.287	0.3
333.655	0.3
334.022	0.31
334.389	0.32
334.757	0.32
335.124	0.33
335.491	0.32
335.859	0.34
336.226	0.35
336.593	0.35
336.96	0.36
337.327	0.36
337.695	0.37
338.062	0.38
338.429	0.39
338.796	0.39
339.163	0.4
339.53	0.4
339.897	0.42
340.263	0.42
340.63	0.43
340.997	0.43
341.364	0.44
341.731	0.45
342.097	0.46
342.464	0.47
342.831	0.47
343.197	0.48
343.564	0.49
343.931	0.5
344.297	0.5
344.664	0.51
345.03	0.51
345.396	0.52
345.763	0.53
346.129	0.53
346.496	0.55
346.862	0.56
347.228	0.56
347.594	0.58
347.961	0.58
348.327	0.59
348.693	0.6
349.059	0.61
349.425	0.61
349.791	0.61
350.157	0.63
350.523	0.63
350.889	0.64
351.255	0.64
351.621	0.65
351.987	0.66
352.353	0.67
352.719	0.67
353.084	0.68
353.45	0.69
353.816	0.7
354.181	0.71
354.547	0.71
354.913	0.73
355.278	0.73
355.644	0.74
356.009	0.75
356.375	0.76
356.74	0.76
357.106	0.78
357.471	0.79
357.836	0.8
358.202	0.81
358.567	0.82
358.932	0.83
359.297	0.84
359.663	0.85
360.028	0.87
360.393	0.88
360.758	0.89
361.123	0.9
361.488	0.92
361.853	0.93
362.218	0.94
362.583	0.96
362.948	0.97
363.312	0.97
363.677	0.98
364.042	1
364.407	1
364.772	1.01
365.136	1.03
365.501	1.03
365.865	1.05
366.23	1.04
366.595	1.06
366.959	1.06
367.324	1.07
367.688	1.1
368.052	1.08
368.417	1.11
368.781	1.12
369.145	1.12
369.51	1.13
369.874	1.14
370.238	1.14
370.602	1.15
370.967	1.14
371.331	1.16
371.695	1.16
372.059	1.16
372.423	1.18
372.787	1.18
373.151	1.16
373.515	1.16
373.878	1.16
374.242	1.16
374.606	1.15
374.97	1.14
375.334	1.15
375.697	1.13
376.061	1.12
376.425	1.1
376.788	1.1
377.152	1.08
377.515	1.08
377.879	1.06
378.242	1.06
378.606	1.05
378.969	1.03
379.333	1.02
379.696	1.01
380.059	0.99
380.422	0.99
380.786	0.98
381.149	0.95
381.512	0.95
381.875	0.94
382.238	0.92
382.601	0.92
382.964	0.92
383.327	0.9
383.69	0.89
384.053	0.88
384.416	0.88
384.779	0.87
385.142	0.88
385.504	0.86
385.867	0.85
386.23	0.86
386.593	0.86
386.955	0.86
387.318	0.85
387.68	0.84
388.043	0.85
388.405	0.84
388.768	0.85
389.13	0.83
389.493	0.84
389.855	0.83
390.217	0.83
390.58	0.81
390.942	0.81
391.304	0.81
391.666	0.8
392.028	0.79
392.391	0.78
392.753	0.77
393.115	0.76
393.477	0.75
393.839	0.74
394.201	0.73
394.563	0.74
394.924	0.73
395.286	0.72
395.648	0.73
396.01	0.74
396.371	0.75
396.733	0.75
397.095	0.76
397.456	0.78
397.818	0.8
398.18	0.82
398.541	0.83
398.903	0.85
399.264	0.87
399.625	0.89
399.987	0.92
400.348	0.93
400.709	0.94
401.071	0.95
401.432	0.95
401.793	0.94
402.154	0.94
402.515	0.93
402.876	0.91
403.238	0.91
403.599	0.89
403.96	0.86
404.32	0.82
404.681	0.79
405.042	0.77
405.403	0.74
405.764	0.7
406.125	0.67
406.485	0.63
406.846	0.6
407.207	0.57
407.567	0.54
407.928	0.5
408.288	0.48
408.649	0.46
409.009	0.43
409.37	0.4
409.73	0.39
410.091	0.36
410.451	0.35
410.811	0.32
411.171	0.31
411.532	0.29
411.892	0.28
412.252	0.26
412.612	0.26
412.972	0.24
413.332	0.24
413.692	0.22
414.052	0.22
414.412	0.21
414.772	0.2
415.132	0.19
415.492	0.18
415.851	0.17
416.211	0.17
416.571	0.17
416.931	0.16
417.29	0.16
417.65	0.14
418.009	0.15
418.369	0.15
418.728	0.14
419.088	0.14
419.447	0.13
419.807	0.13
420.166	0.13
420.525	0.12
420.884	0.12
421.244	0.12
421.603	0.12
421.962	0.12
422.321	0.11
422.68	0.11
423.039	0.11
423.398	0.11
423.757	0.11
424.116	0.1
424.475	0.11
424.834	0.1
425.193	0.1
425.551	0.1
425.91	0.1
426.269	0.1
426.628	0.09
426.986	0.1
427.345	0.1
427.703	0.1
428.062	0.1
428.42	0.1
428.779	0.09
429.137	0.09
429.496	0.1
429.854	0.09
430.212	0.09
430.57	0.09
430.929	0.09
431.287	0.09
431.645	0.09
432.003	0.08
432.361	0.09
432.719	0.08
433.077	0.08
433.435	0.08
433.793	0.08
434.151	0.08
434.509	0.09
434.866	0.09
435.224	0.09
435.582	0.08
435.94	0.08
436.297	0.08
436.655	0.09
437.012	0.08
437.37	0.09
437.727	0.08
438.085	0.09
438.442	0.08
438.8	0.09
439.157	0.08
439.514	0.09
439.872	0.08
440.229	0.09
440.586	0.08
440.943	0.08
441.3	0.08
441.657	0.09
442.014	0.09
442.371	0.08
442.728	0.08
443.085	0.09
443.442	0.09
443.799	0.09
444.156	0.09
444.513	0.08
444.869	0.09
445.226	0.09
445.583	0.1
445.939	0.09
446.296	0.09
446.652	0.09
447.009	0.09
447.365	0.09
447.722	0.09
448.078	0.08
448.434	0.1
448.791	0.1
449.147	0.1
449.503	0.1
449.859	0.09
450.215	0.09
450.571	0.09
450.928	0.09
451.284	0.09
451.64	0.09
451.995	0.09
452.351	0.09
452.707	0.09
453.063	0.1
453.419	0.1
453.775	0.1
454.13	0.1
454.486	0.1
454.842	0.11
455.197	0.1
455.553	0.1
455.908	0.1
456.264	0.1
456.619	0.11
456.975	0.1
457.33	0.11
457.685	0.11
458.04	0.11
458.396	0.1
458.751	0.1
459.106	0.11
459.461	0.1
459.816	0.11
460.171	0.11
460.526	0.11
460.881	0.11
461.236	0.11
461.591	0.11
461.946	0.11
462.301	0.11
462.655	0.11
463.01	0.11
463.365	0.11
463.719	0.12
464.074	0.11
464.428	0.11
464.783	0.11
465.137	0.11
465.492	0.11
465.846	0.12
466.201	0.13
466.555	0.12
466.909	0.12
467.263	0.13
467.618	0.13
467.972	0.13
468.326	0.13
468.68	0.13
469.034	0.13
469.388	0.14
469.742	0.14
470.096	0.13
470.45	0.14
470.804	0.14
471.157	0.14
471.511	0.14
471.865	0.14
472.218	0.14
472.572	0.15
472.926	0.15
473.279	0.16
473.633	0.16
473.986	0.16
474.34	0.16
474.693	0.17
475.046	0.17
475.4	0.17
475.753	0.17
476.106	0.18
476.459	0.17
476.812	0.17
477.165	0.18
477.519	0.19
477.872	0.18
478.224	0.18
478.577	0.19
478.93	0.19
479.283	0.2
479.636	0.2
479.989	0.21
480.341	0.2
480.694	0.2
481.047	0.2
481.399	0.21
481.752	0.22
482.104	0.22
482.457	0.21
482.809	0.22
483.162	0.22
483.514	0.22
483.866	0.23
484.219	0.22
484.571	0.23
484.923	0.23
485.275	0.24
485.627	0.24
485.979	0.24
486.331	0.24
486.683	0.25
487.035	0.25
487.387	0.25
487.739	0.25
488.091	0.25
488.443	0.25
488.794	0.26
489.146	0.26
489.498	0.26
489.849	0.26
490.201	0.27
490.552	0.27
490.904	0.27
491.255	0.27
491.607	0.27
491.958	0.28
492.309	0.28
492.661	0.28
493.012	0.28
493.363	0.29
493.714	0.29
494.065	0.29
494.416	0.29
494.767	0.29
495.118	0.29
495.469	0.3
495.82	0.3
496.171	0.3
496.522	0.3
496.872	0.31
497.223	0.31
497.574	0.31
497.924	0.32
498.275	0.32
498.626	0.32
498.976	0.32
499.327	0.33
499.677	0.33
500.027	0.33
500.378	0.34
500.728	0.33
501.078	0.34
501.428	0.34
501.779	0.34
502.129	0.34
502.479	0.35
502.829	0.35
503.179	0.35
503.529	0.35
503.879	0.36
504.229	0.36
504.578	0.36
504.928	0.36
505.278	0.36
505.628	0.36
505.977	0.37
506.327	0.37
506.676	0.37
507.026	0.37
507.375	0.38
507.725	0.38
508.074	0.38
508.424	0.38
508.773	0.39
509.122	0.39
509.471	0.39
509.82	0.4
510.17	0.4
510.519	0.4
510.868	0.4
511.217	0.4
511.566	0.4
511.915	0.4
512.263	0.41
512.612	0.41
512.961	0.41
513.31	0.42
513.659	0.41
514.007	0.42
514.356	0.42
514.704	0.42
515.053	0.43
515.401	0.43
515.75	0.43
516.098	0.43
516.447	0.43
516.795	0.44
517.143	0.44
517.491	0.44
517.839	0.44
518.188	0.44
518.536	0.44
518.884	0.44
519.232	0.45
519.58	0.45
519.928	0.44
520.275	0.45
520.623	0.46
520.971	0.45
521.319	0.46
521.666	0.46
522.014	0.45
522.362	0.46
522.709	0.46
523.057	0.47
523.404	0.47
523.752	0.47
524.099	0.47
524.446	0.47
524.794	0.47
525.141	0.48
525.488	0.48
525.835	0.47
526.182	0.48
526.529	0.48
526.876	0.48
527.223	0.48
527.57	0.49
527.917	0.48
528.264	0.49
528.611	0.49
528.958	0.49
529.304	0.49
529.651	0.49
529.998	0.5
530.344	0.49
530.691	0.49
531.037	0.5
531.384	0.5
531.73	0.5
532.076	0.5
532.423	0.51
532.769	0.5
533.115	0.5
533.461	0.51
533.807	0.51
534.154	0.5
534.5	0.5
534.846	0.51
535.192	0.52
535.537	0.51
535.883	0.52
536.229	0.52
536.575	0.52
536.921	0.52
537.266	0.52
537.612	0.52
537.957	0.52
538.303	0.52
538.649	0.52
538.994	0.53
539.339	0.52
539.685	0.53
540.03	0.52
540.375	0.52
540.721	0.52
541.066	0.53
541.411	0.53
541.756	0.53
542.101	0.53
542.446	0.53
542.791	0.53
543.136	0.54
543.481	0.53
543.825	0.53
544.17	0.53
544.515	0.54
544.86	0.54
545.204	0.54
545.549	0.54
545.893	0.54
546.238	0.54
546.582	0.54
546.927	0.54
547.271	0.54
547.615	0.54
547.96	0.54
548.304	0.54
548.648	0.54
548.992	0.54
549.336	0.54
549.68	0.54
550.024	0.55
550.368	0.55
550.712	0.55
551.056	0.54
551.4	0.55
551.743	0.55
552.087	0.54
552.431	0.55
552.774	0.55
553.118	0.54
553.462	0.55
553.805	0.55
554.148	0.54
554.492	0.55
554.835	0.54
555.178	0.54
555.522	0.54
555.865	0.54
556.208	0.54
556.551	0.54
556.894	0.54
557.237	0.54
557.58	0.54
557.923	0.54
558.266	0.54
558.609	0.54
558.952	0.54
559.294	0.54
559.637	0.54
559.98	0.54
560.322	0.54
560.665	0.54
561.007	0.54
561.35	0.54
561.692	0.54
562.034	0.54
562.377	0.54
562.719	0.54
563.061	0.54
563.403	0.54
563.745	0.53
564.088	0.54
564.43	0.53
564.772	0.54
565.113	0.53
565.455	0.53
565.797	0.53
566.139	0.54
566.481	0.53
566.822	0.53
567.164	0.53
567.506	0.53
567.847	0.53
568.189	0.53
568.53	0.53
568.872	0.53
569.213	0.53
569.554	0.53
569.895	0.53
570.237	0.53
570.578	0.53
570.919	0.52
571.26	0.52
571.601	0.52
571.942	0.52
572.283	0.52
572.624	0.51
572.965	0.51
573.306	0.51
573.646	0.51
573.987	0.5
574.328	0.51
574.668	0.5
575.009	0.5
575.349	0.5
575.69	0.5
576.03	0.5
576.37	0.49
576.711	0.48
577.051	0.49
577.391	0.49
577.731	0.5
578.072	0.49
578.412	0.5
578.752	0.49
579.092	0.48
579.431	0.46
579.771	0.44
580.111	0.42
580.451	0.43
580.791	0.46
581.13	0.48
581.47	0.48
581.81	0.48
582.149	0.48
582.489	0.48
582.828	0.46
583.167	0.42
583.507	0.39
583.846	0.37
584.185	0.4
584.525	0.42
584.864	0.45
585.203	0.47
585.542	0.48
585.881	0.48
586.22	0.48
586.559	0.47
586.898	0.44
587.236	0.43
587.575	0.43
587.914	0.44
588.252	0.46
588.591	0.46
588.93	0.46
589.268	0.46
589.607	0.46
589.945	0.46
590.283	0.46
590.622	0.46
590.96	0.47
591.298	0.47
591.636	0.47
591.974	0.48
592.313	0.48
592.651	0.48
592.989	0.48
593.326	0.48
593.664	0.48
594.002	0.47
594.34	0.47
594.678	0.47
595.015	0.45
595.353	0.44
595.691	0.45
596.028	0.47
596.366	0.47
596.703	0.47
597.04	0.47
597.378	0.47
597.715	0.47
598.052	0.48
598.389	0.48
598.726	0.48
599.064	0.48
599.401	0.47
599.738	0.48
600.074	0.47
600.411	0.47
600.748	0.47
601.085	0.46
601.422	0.45
601.758	0.45
602.095	0.45
602.432	0.45
602.768	0.46
603.105	0.46
603.441	0.47
603.777	0.47
604.114	0.47
604.45	0.47
604.786	0.47
605.122	0.47
605.459	0.46
605.795	0.46
606.131	0.46
606.467	0.46
606.803	0.46
607.139	0.46
607.474	0.46
607.81	0.45
608.146	0.45
608.482	0.45
608.817	0.45
609.153	0.45
609.488	0.44
609.824	0.45
610.159	0.45
610.495	0.45
610.83	0.45
611.165	0.45
611.5	0.45
611.836	0.45
612.171	0.45
612.506	0.44
612.841	0.44
613.176	0.44
613.511	0.44
613.845	0.44
614.18	0.44
614.515	0.44
614.85	0.44
615.184	0.44
615.519	0.43
615.854	0.43
616.188	0.44
616.523	0.43
616.857	0.43
617.191	0.42
617.526	0.42
617.86	0.42
618.194	0.42
618.528	0.42
618.862	0.42
619.196	0.42
619.53	0.42
619.864	0.42
620.198	0.42
620.532	0.42
620.866	0.41
621.2	0.41
621.533	0.41
621.867	0.41
622.201	0.4
622.534	0.41
622.868	0.4
623.201	0.4
623.534	0.4
623.868	0.4
624.201	0.39
624.534	0.39
624.868	0.39
625.201	0.39
625.534	0.39
625.867	0.39
626.2	0.38
626.533	0.38
626.865	0.38
627.198	0.38
627.531	0.38
627.864	0.38
628.196	0.38
628.529	0.38
628.862	0.37
629.194	0.37
629.527	0.36
629.859	0.36
630.191	0.37
630.524	0.36
630.856	0.36
631.188	0.36
631.52	0.35
631.852	0.35
632.184	0.35
632.516	0.35
632.848	0.35
633.18	0.34
633.512	0.35
633.844	0.34
634.175	0.34
634.507	0.34
634.839	0.34
635.17	0.33
635.502	0.33
635.833	0.33
636.165	0.33
636.496	0.33
636.827	0.32
637.159	0.33
637.49	0.32
637.821	0.32
638.152	0.32
638.483	0.31
638.814	0.31
639.145	0.31
639.476	0.31
639.807	0.31
640.137	0.31
640.468	0.3
640.799	0.3
641.129	0.3
641.46	0.3
641.791	0.29
642.121	0.29
642.451	0.29
642.782	0.29
643.112	0.28
643.442	0.28
643.773	0.28
644.103	0.28
644.433	0.28
644.763	0.27
645.093	0.27
645.423	0.27
645.753	0.27
646.082	0.27
646.412	0.27
646.742	0.27
647.072	0.27
647.401	0.27
647.731	0.26
648.06	0.26
648.39	0.26
648.719	0.26
649.048	0.26
649.378	0.26
649.707	0.26
650.036	0.26
650.365	0.26
650.694	0.26
651.023	0.26
651.352	0.25
651.681	0.25
652.01	0.26
652.339	0.25
652.668	0.25
652.996	0.25
653.325	0.25
653.654	0.25
653.982	0.25
654.311	0.24
654.639	0.25
654.967	0.25
655.296	0.24
655.624	0.25
655.952	0.24
656.28	0.25
656.609	0.24
656.937	0.24
657.265	0.24
657.593	0.11
657.92	0.01
658.248	0
658.576	0
658.904	0.06
659.231	0.14
659.559	0.21
659.887	0.22
660.214	0.23
660.542	0.23
660.869	0.23
661.196	0.23
661.524	0.22
661.851	0.23
662.178	0.23
662.505	0.22
662.832	0.23
663.159	0.23
663.486	0.22
663.813	0.22
664.14	0.22
664.467	0.22
664.794	0.22
665.12	0.22
665.447	0.22
665.774	0.21
666.1	0.21
666.427	0.21
666.753	0.21
667.079	0.21
667.406	0.21
667.732	0.2
668.058	0.21
668.384	0.21
668.71	0.21
669.036	0.21
669.362	0.21
669.688	0.21
670.014	0.2
670.34	0.2
670.666	0.2
670.991	0.2
671.317	0.2
671.643	0.19
671.968	0.2
672.294	0.19
672.619	0.19
672.945	0.19
673.27	0.19
673.595	0.18
673.92	0.18
674.246	0.18
674.571	0.18
674.896	0.18
675.221	0.18
675.546	0.18
675.87	0.18
676.195	0.17
676.52	0.18
676.845	0.17
677.169	0.17
677.494	0.17
677.819	0.17
678.143	0.17
678.468	0.17
678.792	0.17
679.116	0.16
679.44	0.16
679.765	0.16
680.089	0.16
680.413	0.15
680.737	0.15
681.061	0.15
681.385	0.15
681.709	0.14
682.033	0.14
682.356	0.14
682.68	0.14
683.004	0.14
683.327	0.14
683.651	0.13
683.974	0.13
684.298	0.13
684.621	0.13
684.944	0.13
685.268	0.13
685.591	0.13
685.914	0.12
686.237	0.12
686.56	0.12
686.883	0.11
687.206	0.11
687.529	0.11
687.852	0.1
688.175	0.1
688.497	0.11
688.82	0.11
689.142	0.1
689.465	0.1
689.787	0.11
690.11	0.11
690.432	0.1
690.755	0.1
691.077	0.1
691.399	0.1
691.721	0.1
692.043	0.1
692.365	0.1
692.687	0.09
693.009	0.09
693.331	0.08
693.653	0.08
693.974	0.08
694.296	0.08
694.618	0.08
694.939	0.08
695.261	0.07
695.582	0.07
695.904	0.07
696.225	0.08
696.546	0.08
696.868	0.08
697.189	0.08
697.51	0.07
697.831	0.07
698.152	0.08
698.473	0.07
698.794	0.06
699.114	0.06
699.435	0.04
699.756	0.05
700.077	0.05
700.397	0.06
700.718	0.06
701.038	0.06
701.359	0.07
701.679	0.06
701.999	0.07
702.32	0.07
702.64	0.06
702.96	0.06
703.28	0.06
703.6	0.07
703.92	0.06
704.24	0.06
704.56	0.05
704.879	0.05
705.199	0.05
705.519	0.05
705.838	0.05
706.158	0.06
706.478	0.05
706.797	0.06
707.116	0.06
707.436	0.06
707.755	0.06
708.074	0.06
708.393	0.05
708.712	0.04
709.031	0.03
709.35	0.02
709.669	0.02
709.988	0.03
710.307	0.03
710.626	0.03
710.944	0.04
711.263	0.04
711.582	0.05
711.9	0.05
712.219	0.04
712.537	0.04
712.855	0.04
713.174	0.04
713.492	0.04
713.81	0.05
714.128	0.05
714.446	0.05
714.764	0.04
715.082	0.03
715.4	0.04
715.718	0.04
716.035	0.04
716.353	0.04
716.671	0.04
716.988	0.04
717.306	0.03
717.623	0.04
717.941	0.05
718.258	0.05
718.575	0.05
718.893	0.05
719.21	0.05
719.527	0.05
719.844	0.05
720.161	0.05
720.478	0.05
720.795	0.05
721.112	0.05
721.428	0.05
721.745	0.06
722.062	0.06
722.378	0.06
722.695	0.06
723.011	0.06
723.328	0.06
723.644	0.06
723.96	0.06
724.276	0.06
724.593	0.06
724.909	0.07
725.225	0.06
725.541	0.07
725.857	0.06
726.173	0.07
726.488	0.07
726.804	0.07
727.12	0.06
727.435	0.06
727.751	0.07
728.067	0.06
728.382	0.07
728.697	0.06
729.013	0.07
729.328	0.06
729.643	0.06
729.958	0.06
730.273	0.07
730.588	0.06
730.903	0.06
731.218	0.06
731.533	0.06
731.848	0.06
732.163	0.06
732.477	0.06
732.792	0.06
733.107	0.05
733.421	0.05
733.736	0.06
734.05	0.06
734.364	0.06
734.678	0.06
734.993	0.06
735.307	0.06
735.621	0.05
735.935	0.06
736.249	0.06
736.563	0.06
736.877	0.06
737.19	0.06
737.504	0.06
737.818	0.06
738.131	0.06
738.445	0.06
738.758	0.06
739.072	0.06
739.385	0.06
739.698	0.06
740.012	0.06
740.325	0.06
740.638	0.06
740.951	0.06
741.264	0.06
741.577	0.06
741.89	0.06
742.203	0.06
742.515	0.06
742.828	0.06
743.141	0.06
743.453	0.06
743.766	0.06
744.078	0.06
744.391	0.06
744.703	0.05
745.015	0.05
745.327	0.05
745.639	0.05
745.952	0.05
746.264	0.05
746.575	0.05
746.887	0.05
747.199	0.05
747.511	0.05
747.823	0.05
748.134	0.05
748.446	0.05
748.757	0.05
749.069	0.05
749.38	0.05
749.692	0.05
750.003	0.05
750.314	0.05
750.625	0.04
750.936	0.04
751.248	0.04
751.559	0.05
751.869	0.04
752.18	0.04
752.491	0.04
752.802	0.04
753.112	0.04
753.423	0.04
753.734	0.04
754.044	0.04
754.355	0.04
754.665	0.04
754.975	0.04
755.285	0.03
755.596	0.03
755.906	0.03
756.216	0.03
756.526	0.03
756.836	0.03
757.146	0.03
757.455	0.03
757.765	0.03
758.075	0.03
758.385	0.03
758.694	0.03
759.004	0.03
759.313	0.02
759.622	0.02
759.932	0.03
760.241	0.03
760.55	0.03
760.859	0.03
761.168	0.03
761.477	0.03
761.786	0.03
762.095	0.03
762.404	0.03
762.713	0.03
763.021	0.03
763.33	0.03
763.639	0.03
763.947	0.03
764.256	0.03
764.564	0.03
764.872	0.03
765.181	0.03
765.489	0.03
765.797	0.03
766.105	0.03
766.413	0.03
766.721	0.03
767.029	0.03
767.337	0.03
767.644	0.03
767.952	0.03
768.26	0.03
768.567	0.03
768.875	0.03
769.182	0.03
769.49	0.04
769.797	0.03
770.104	0.03
770.411	0.03
770.718	0.03
771.026	0.03
771.333	0.03
771.639	0.03
771.946	0.03
772.253	0.03
772.56	0.03
772.867	0.03
773.173	0.03
773.48	0.03
773.786	0.03
774.093	0.03
774.399	0.03
774.705	0.03
775.012	0.04
775.318	0.04
775.624	0.04
775.93	0.04
776.236	0.04
776.542	0.04
776.848	0.04
777.154	0.04
777.459	0.04
777.765	0.04
778.071	0.04
778.376	0.04
778.682	0.04
778.987	0.04
779.292	0.03
779.598	0.03
779.903	0.03
780.208	0.03
780.513	0.03
780.818	0.03
781.123	0.03
781.428	0.04
781.733	0.04
782.038	0.04
782.343	0.03
782.647	0.04
782.952	0.04
783.256	0.04
783.561	0.04
783.865	0.04
784.17	0.04
784.474	0.04
784.778	0.04
785.082	0.03
785.386	0.04
785.69	0.03
785.994	0.03
786.298	0.04
786.602	0.04
786.906	0.04
787.209	0.04
787.513	0.04
787.817	0.04
788.12	0.04
788.424	0.04
788.727	0.04
789.03	0.04
789.333	0.04
789.637	0.04
789.94	0.05
790.243	0.04
790.546	0.05
790.849	0.05
791.152	0.05
791.454	0.05
791.757	0.05
792.06	0.05
792.362	0.05
792.665	0.04
792.967	0.04
793.27	0.04
793.572	0.04
793.874	0.04
794.177	0.05
794.479	0.04
794.781	0.04
795.083	0.04
795.385	0.04
795.687	0.04
795.989	0.04
796.29	0.04
796.592	0.04
796.894	0.04
797.195	0.04
797.497	0.04
797.798	0.04
798.1	0.04
798.401	0.04
798.702	0.04
799.003	0.04
799.304	0.04
799.605	0.04
799.906	0.05
800.207	0.04
800.508	0.04
800.809	0.05
801.11	0.04
801.41	0.04
801.711	0.04
802.011	0.05
802.312	0.04
802.612	0.04
802.913	0.05
803.213	0.04
803.513	0.04
803.813	0.04
804.113	0.05
804.413	0.05
804.713	0.05
805.013	0.05
805.313	0.05
805.613	0.04
805.912	0.04
806.212	0.04
806.511	0.04
806.811	0.04
807.11	0.04
807.41	0.04
807.709	0.04
808.008	0.04
808.307	0.04
808.606	0.04
808.905	0.04
809.204	0.04
809.503	0.04
809.802	0.04
810.101	0.04
810.399	0.04
810.698	0.04
810.997	0.05
811.295	0.04
811.593	0.05
811.892	0.05
812.19	0.05
812.488	0.05
812.786	0.05
813.084	0.05
813.383	0.05
813.68	0.05
813.978	0.05
814.276	0.05
814.574	0.05
814.872	0.06
815.169	0.05
815.467	0.05
815.764	0.05
816.062	0.05
816.359	0.05
816.656	0.05
816.954	0.05
817.251	0.05
817.548	0.06
817.845	0.05
818.142	0.05
818.439	0.05
818.735	0.04
819.032	0.05
819.329	0.04
819.626	0.05
819.922	0.05
820.219	0.05
820.515	0.05
820.811	0.05
821.108	0.05
821.404	0.05
821.7	0.05
821.996	0.05
822.292	0.06
822.588	0.06
822.884	0.06
823.18	0.06
823.475	0.06
823.771	0.06
824.067	0.06
824.362	0.06
824.658	0.06
824.953	0.06
825.249	0.06
825.544	0.07
825.839	0.06
826.134	0.06
826.429	0.06
826.724	0.06
827.019	0.05
827.314	0.05
827.609	0.06
827.904	0.05
828.198	0.06
828.493	0.05
828.787	0.06
829.082	0.06
829.376	0.06
829.671	0.06
829.965	0.06
830.259	0.06
830.553	0.06
830.847	0.06
831.141	0.06
831.435	0.07
831.729	0.06
832.023	0.06
832.317	0.06
832.61	0.06
832.904	0.06
833.197	0.06
833.491	0.06
833.784	0.05
834.077	0.06
834.371	0.06
834.664	0.07
834.957	0.07
835.25	0.07
835.543	0.07
835.836	0.07
836.129	0.08
836.421	0.07
836.714	0.07
837.007	0.06
837.299	0.07
837.592	0.06
837.884	0.06
838.177	0.06
838.469	0.06
838.761	0.07
839.053	0.07
839.345	0.07
839.637	0.08
839.929	0.08
840.221	0.08
840.513	0.08
840.805	0.08
841.096	0.07
841.388	0.08
841.68	0.07
841.971	0.08
842.262	0.08
842.554	0.07
842.845	0.07
843.136	0.08
843.427	0.08
843.718	0.07
844.009	0.08
844.3	0.08
844.591	0.08
844.882	0.08
845.173	0.08
845.463	0.08
845.754	0.08
846.044	0.08
846.335	0.08
846.625	0.08
846.915	0.08
847.206	0.07
847.496	0.08
847.786	0.08
848.076	0.09
848.366	0.08
848.656	0.08
848.945	0.07
849.235	0.07
849.525	0.07
849.814	0.08
850.104	0.08
850.393	0.08
850.683	0.07
850.972	0.08
851.261	0.08
851.551	0.07
851.84	0.08
852.129	0.09
852.418	0.08
852.707	0.07
852.995	0.07
853.284	0.08
853.573	0.07
853.862	0.08
854.15	0.1
854.439	0.1
854.727	0.09
855.015	0.08
855.304	0.08
855.592	0.08
855.88	0.09
856.168	0.07
856.456	0.09
856.744	0.09
857.032	0.08
857.32	0.09
857.607	0.08
857.895	0.09
858.183	0.09
858.47	0.08
858.757	0.08
859.045	0.09
859.332	0.09
859.619	0.09
859.907	0.08
860.194	0.09
860.481	0.08
860.768	0.08
861.054	0.08
861.341	0.08
861.628	0.08
861.915	0.1
862.201	0.08
862.488	0.09
862.774	0.09
863.061	0.08
863.347	0.09
863.633	0.07
863.919	0.07
864.205	0.1
864.491	0.08
864.777	0.09
865.063	0.1
865.349	0.07
865.635	0.08
865.92	0.1
866.206	0.07
866.492	0.08
866.777	0.07
867.062	0.08
867.348	0.08
867.633	0.07
867.918	0.1
868.203	0.08
868.488	0.12
868.773	0.09
869.058	0.08
869.343	0.09
869.628	0.08
869.912	0.07
870.197	0.08
870.482	0.08
870.766	0.08
871.05	0.06
871.335	0.08
871.619	0.07
871.903	0.04
872.187	0.1
872.471	0.06
872.755	0.09
873.039	0.09
873.323	0.11
873.607	0.08
873.89	0.05
874.174	0.05
874.458	0.05
874.741	0.05
875.024	0.06
875.308	0.06
875.591	0.09
875.874	0.09
876.157	0.05
876.44	0.05
876.723	0.08
877.006	0.09
877.289	0.05
877.572	0.07
877.854	0.08
878.137	0.07
878.42	0.06
878.702	0.07
878.984	0.07
879.267	0.04
879.549	0.09
879.831	0.08
880.113	0.06
880.395	0.13
880.677	0.02
880.959	0.1
