Data from Rubpy_BV_900_EDTA_Buffered_Absorbance_12-57-24-763.txt Node
Date: Wed Jul 01 12:57:24 BST 2026
User: fpm-admin
Spectrometer: OFX00224
Trigger mode: 0
Integration Time (sec): 7.000000E-2
Scans to average: 3
Nonlinearity correction enabled: false
Boxcar width: 0
Storing dark spectrum: false
XAxis mode: Wavelengths
Number of Pixels in Spectrum: 2136
>>>>>Begin Spectral Data<<<<<
154.91	-0
155.289	1.01
155.669	0.11
156.048	-0
156.428	0.05
156.807	0.14
157.186	-0.07
157.566	-0
157.945	-0.05
158.325	0.12
158.704	0.24
159.083	-0
159.462	0.92
159.842	-0
160.221	-0
160.6	-1.11
160.979	0.27
161.359	-0
161.738	-0.43
162.117	-0
162.496	-0
162.875	-0
163.254	-0
163.633	-0.02
164.012	-0
164.391	-0.44
164.77	-0
165.149	-0.12
165.528	-0.59
165.907	-1.08
166.286	-0
166.665	-0
167.044	-0
167.423	-0.28
167.802	-0
168.181	-0
168.559	-0.12
168.938	-0
169.317	0.26
169.696	0.25
170.074	0.48
170.453	-0.09
170.832	-0
171.21	-0
171.589	-0.3
171.968	0.14
172.346	-0
172.725	0.25
173.103	0.2
173.482	-0
173.861	-0
174.239	-0
174.617	-0
174.996	0.21
175.374	0.6
175.753	-0.01
176.131	0.48
176.51	-0.02
176.888	0.56
177.266	0.56
177.645	-0.14
178.023	0.81
178.401	0.19
178.779	-0.3
179.158	-1.1
179.536	-0.23
179.914	-0
180.292	-0
180.67	0.41
181.048	-0.4
181.427	0.18
181.805	-0.3
182.183	-0.34
182.561	-0
182.939	-0
183.317	-0
183.695	-0
184.073	-0.81
184.451	0.1
184.829	-0
185.206	-0
185.584	-1.45
185.962	-0.1
186.34	-0
186.718	-0
187.096	-1.1
187.473	0.48
187.851	-0
188.229	-0
188.607	0.2
188.984	0.18
189.362	0.06
189.74	0.12
190.117	0.03
190.495	0.03
190.872	0.11
191.25	0.05
191.627	-0.02
192.005	0.05
192.382	0.12
192.76	0.06
193.137	0.11
193.515	0.05
193.892	0.13
194.269	0.06
194.647	0.1
195.024	0.13
195.401	-0.06
195.779	0.09
196.156	0.11
196.533	0.18
196.91	0.05
197.288	0.03
197.665	0.06
198.042	0.08
198.419	0.06
198.796	0.02
199.173	0.13
199.55	0.18
199.927	0.08
200.304	0
200.681	0.19
201.058	0.07
201.435	0.1
201.812	0.1
202.189	0.08
202.566	0.02
202.943	0.14
203.32	0.1
203.697	0.06
204.073	0.17
204.45	0
204.827	0.08
205.204	-0.05
205.58	0.11
205.957	0.23
206.334	0.14
206.71	0.17
207.087	0.1
207.464	0.12
207.84	0.08
208.217	-0.03
208.593	0.02
208.97	0.18
209.346	0.15
209.723	0.1
210.099	0.22
210.476	0.1
210.852	0.03
211.228	0.12
211.605	0.12
211.981	0.13
212.357	0.14
212.733	0.05
213.11	0.07
213.486	0.14
213.862	0.06
214.238	0.2
214.614	0.19
214.991	0.06
215.367	0.05
215.743	0.1
216.119	0.08
216.495	-0.01
216.871	0.03
217.247	0.05
217.623	0.15
217.999	0.03
218.375	0.14
218.751	0.09
219.127	0.09
219.502	0.09
219.878	0.08
220.254	0.08
220.63	0.12
221.006	-0.03
221.381	0.07
221.757	0.06
222.133	0.04
222.508	0.1
222.884	0.21
223.26	0.18
223.635	0.05
224.011	0.06
224.386	0.13
224.762	0.15
225.137	0.05
225.513	0.09
225.888	0.02
226.264	0.01
226.639	0.18
227.014	0.11
227.39	0.12
227.765	0.15
228.14	0.12
228.516	0.07
228.891	0.17
229.266	0.14
229.641	0.12
230.017	0.02
230.392	0.13
230.767	0.06
231.142	0.07
231.517	0.05
231.892	-0
232.267	0.11
232.642	0.12
233.017	0.04
233.392	0.07
233.767	0.13
234.142	0.04
234.517	0.11
234.892	0.03
235.267	0.1
235.641	0.02
236.016	0.08
236.391	0.12
236.766	0.05
237.14	0.16
237.515	0.04
237.89	0.09
238.264	0.02
238.639	0.12
239.014	0.11
239.388	0.07
239.763	0.07
240.137	0.15
240.512	0.09
240.886	0.06
241.261	0.12
241.635	0.08
242.009	0.09
242.384	0.03
242.758	0.07
243.132	0.16
243.507	0.15
243.881	0.09
244.255	0.02
244.629	0.05
245.004	0.1
245.378	0.09
245.752	0.04
246.126	0.08
246.5	0.09
246.874	0.11
247.248	0.08
247.622	0.01
247.996	0.05
248.37	0.1
248.744	0.07
249.118	0.07
249.492	0.18
249.866	0.08
250.24	0.07
250.613	0.13
250.987	0.11
251.361	0.1
251.735	0.09
252.108	0.1
252.482	0.07
252.856	0.07
253.229	0.09
253.603	0.1
253.977	0.07
254.35	0.16
254.724	0.12
255.097	0.09
255.471	0.06
255.844	-0.02
256.218	0.1
256.591	0.09
256.964	0
257.338	0.1
257.711	0.08
258.084	0.04
258.458	0.13
258.831	0.18
259.204	0.14
259.577	0.11
259.95	0.09
260.323	0.09
260.697	0.16
261.07	0.13
261.443	0.07
261.816	0.16
262.189	0.13
262.562	0.14
262.935	0.18
263.308	0.03
263.68	0.13
264.053	0.11
264.426	0.11
264.799	0.12
265.172	0.2
265.545	0.08
265.917	0.09
266.29	0.14
266.663	0.2
267.035	0.09
267.408	0.12
267.781	0.09
268.153	0.08
268.526	0.07
268.898	0.02
269.271	0.13
269.643	0.07
270.016	0.15
270.388	0.12
270.76	0.05
271.133	0.07
271.505	0.13
271.877	0.08
272.25	0.08
272.622	0.06
272.994	0.11
273.366	0.08
273.739	0.13
274.111	0.08
274.483	0.11
274.855	0.13
275.227	0.08
275.599	0.13
275.971	0.14
276.343	0.11
276.715	0.11
277.087	0.11
277.459	0.04
277.831	0.13
278.203	0.09
278.574	0.1
278.946	0.12
279.318	0.11
279.69	0.15
280.061	0.14
280.433	0.06
280.805	0.03
281.176	0.08
281.548	0.06
281.92	0.07
282.291	0.04
282.663	0.12
283.034	0.02
283.406	0.02
283.777	0.14
284.148	0.08
284.52	0.12
284.891	0.09
285.262	0.17
285.634	0.07
286.005	0.1
286.376	0.02
286.747	0.09
287.119	0.08
287.49	0.07
287.861	0.07
288.232	0.1
288.603	0.08
288.974	0.13
289.345	0.06
289.716	0.09
290.087	0.12
290.458	0.1
290.829	0.09
291.2	0.05
291.571	0.07
291.941	0.05
292.312	0.14
292.683	0.1
293.054	0.1
293.424	0.06
293.795	0.1
294.166	0.13
294.536	0.06
294.907	0.05
295.277	0.09
295.648	0.06
296.018	0.07
296.389	0.07
296.759	0.13
297.13	0.09
297.5	0.11
297.871	0.08
298.241	0.09
298.611	0.04
298.981	0.04
299.352	0.09
299.722	0.12
300.092	0.13
300.462	0.11
300.832	0.04
301.202	0.11
301.573	0.03
301.943	0.06
302.313	0.09
302.683	0.09
303.053	0.1
303.422	0.07
303.792	0.07
304.162	0.05
304.532	0.08
304.902	0.1
305.272	0.05
305.641	0.05
306.011	0.07
306.381	0.05
306.75	0.04
307.12	0.05
307.49	0.04
307.859	0.06
308.229	0.03
308.598	0.04
308.968	0.03
309.337	0.04
309.707	0.05
310.076	0.05
310.445	0.05
310.815	0.05
311.184	0.04
311.553	0.06
311.923	0.04
312.292	0.04
312.661	0.05
313.03	0.04
313.399	0.05
313.768	0.06
314.137	0.05
314.506	0.05
314.875	0.05
315.244	0.05
315.613	0.06
315.982	0.07
316.351	0.06
316.72	0.06
317.089	0.06
317.458	0.07
317.826	0.06
318.195	0.06
318.564	0.06
318.933	0.06
319.301	0.07
319.67	0.07
320.038	0.07
320.407	0.07
320.775	0.07
321.144	0.07
321.512	0.07
321.881	0.07
322.249	0.07
322.618	0.07
322.986	0.08
323.354	0.08
323.723	0.07
324.091	0.08
324.459	0.07
324.827	0.08
325.195	0.07
325.564	0.07
325.932	0.08
326.3	0.08
326.668	0.08
327.036	0.08
327.404	0.08
327.772	0.09
328.14	0.08
328.508	0.09
328.875	0.09
329.243	0.08
329.611	0.09
329.979	0.09
330.346	0.09
330.714	0.1
331.082	0.09
331.449	0.1
331.817	0.1
332.185	0.1
332.552	0.1
332.92	0.11
333.287	0.1
333.655	0.1
334.022	0.1
334.389	0.11
334.757	0.11
335.124	0.11
335.491	0.11
335.859	0.12
336.226	0.12
336.593	0.12
336.96	0.12
337.327	0.12
337.695	0.12
338.062	0.13
338.429	0.13
338.796	0.13
339.163	0.14
339.53	0.14
339.897	0.14
340.263	0.14
340.63	0.15
340.997	0.15
341.364	0.15
341.731	0.15
342.097	0.15
342.464	0.16
342.831	0.16
343.197	0.16
343.564	0.16
343.931	0.17
344.297	0.17
344.664	0.17
345.03	0.18
345.396	0.18
345.763	0.18
346.129	0.18
346.496	0.19
346.862	0.19
347.228	0.19
347.594	0.19
347.961	0.2
348.327	0.2
348.693	0.2
349.059	0.21
349.425	0.2
349.791	0.21
350.157	0.21
350.523	0.21
350.889	0.21
351.255	0.22
351.621	0.22
351.987	0.22
352.353	0.23
352.719	0.23
353.084	0.23
353.45	0.23
353.816	0.24
354.181	0.24
354.547	0.24
354.913	0.25
355.278	0.25
355.644	0.25
356.009	0.26
356.375	0.26
356.74	0.27
357.106	0.27
357.471	0.27
357.836	0.27
358.202	0.27
358.567	0.28
358.932	0.28
359.297	0.29
359.663	0.29
360.028	0.29
360.393	0.3
360.758	0.3
361.123	0.31
361.488	0.32
361.853	0.32
362.218	0.33
362.583	0.33
362.948	0.33
363.312	0.34
363.677	0.34
364.042	0.35
364.407	0.35
364.772	0.35
365.136	0.35
365.501	0.36
365.865	0.36
366.23	0.36
366.595	0.37
366.959	0.38
367.324	0.37
367.688	0.38
368.052	0.38
368.417	0.4
368.781	0.4
369.145	0.4
369.51	0.4
369.874	0.4
370.238	0.41
370.602	0.41
370.967	0.41
371.331	0.42
371.695	0.41
372.059	0.42
372.423	0.42
372.787	0.43
373.151	0.42
373.515	0.42
373.878	0.42
374.242	0.42
374.606	0.42
374.97	0.42
375.334	0.42
375.697	0.41
376.061	0.4
376.425	0.4
376.788	0.39
377.152	0.39
377.515	0.39
377.879	0.38
378.242	0.38
378.606	0.38
378.969	0.38
379.333	0.37
379.696	0.37
380.059	0.36
380.422	0.36
380.786	0.36
381.149	0.35
381.512	0.35
381.875	0.35
382.238	0.35
382.601	0.34
382.964	0.34
383.327	0.34
383.69	0.34
384.053	0.34
384.416	0.34
384.779	0.34
385.142	0.34
385.504	0.33
385.867	0.34
386.23	0.34
386.593	0.34
386.955	0.34
387.318	0.34
387.68	0.34
388.043	0.34
388.405	0.35
388.768	0.35
389.13	0.35
389.493	0.35
389.855	0.35
390.217	0.35
390.58	0.34
390.942	0.35
391.304	0.34
391.666	0.34
392.028	0.33
392.391	0.33
392.753	0.33
393.115	0.33
393.477	0.32
393.839	0.32
394.201	0.32
394.563	0.32
394.924	0.32
395.286	0.32
395.648	0.32
396.01	0.33
396.371	0.33
396.733	0.34
397.095	0.34
397.456	0.35
397.818	0.36
398.18	0.37
398.541	0.38
398.903	0.39
399.264	0.4
399.625	0.41
399.987	0.42
400.348	0.43
400.709	0.44
401.071	0.44
401.432	0.44
401.793	0.44
402.154	0.44
402.515	0.44
402.876	0.43
403.238	0.42
403.599	0.42
403.96	0.4
404.32	0.39
404.681	0.38
405.042	0.36
405.403	0.34
405.764	0.32
406.125	0.3
406.485	0.29
406.846	0.27
407.207	0.26
407.567	0.25
407.928	0.23
408.288	0.22
408.649	0.21
409.009	0.19
409.37	0.19
409.73	0.17
410.091	0.17
410.451	0.15
410.811	0.14
411.171	0.13
411.532	0.13
411.892	0.12
412.252	0.12
412.612	0.11
412.972	0.1
413.332	0.11
413.692	0.1
414.052	0.09
414.412	0.09
414.772	0.08
415.132	0.07
415.492	0.08
415.851	0.07
416.211	0.07
416.571	0.07
416.931	0.08
417.29	0.07
417.65	0.06
418.009	0.06
418.369	0.06
418.728	0.07
419.088	0.06
419.447	0.06
419.807	0.06
420.166	0.06
420.525	0.05
420.884	0.05
421.244	0.05
421.603	0.05
421.962	0.05
422.321	0.05
422.68	0.05
423.039	0.04
423.398	0.05
423.757	0.05
424.116	0.05
424.475	0.04
424.834	0.04
425.193	0.04
425.551	0.04
425.91	0.04
426.269	0.04
426.628	0.04
426.986	0.04
427.345	0.04
427.703	0.04
428.062	0.04
428.42	0.04
428.779	0.03
429.137	0.04
429.496	0.04
429.854	0.04
430.212	0.04
430.57	0.04
430.929	0.04
431.287	0.04
431.645	0.04
432.003	0.03
432.361	0.04
432.719	0.04
433.077	0.03
433.435	0.03
433.793	0.04
434.151	0.04
434.509	0.03
434.866	0.03
435.224	0.03
435.582	0.04
435.94	0.03
436.297	0.04
436.655	0.04
437.012	0.03
437.37	0.03
437.727	0.02
438.085	0.04
438.442	0.03
438.8	0.03
439.157	0.04
439.514	0.04
439.872	0.04
440.229	0.04
440.586	0.03
440.943	0.04
441.3	0.03
441.657	0.04
442.014	0.03
442.371	0.03
442.728	0.03
443.085	0.03
443.442	0.04
443.799	0.03
444.156	0.03
444.513	0.03
444.869	0.03
445.226	0.03
445.583	0.04
445.939	0.03
446.296	0.03
446.652	0.04
447.009	0.03
447.365	0.03
447.722	0.03
448.078	0.03
448.434	0.03
448.791	0.03
449.147	0.03
449.503	0.03
449.859	0.03
450.215	0.02
450.571	0.04
450.928	0.03
451.284	0.02
451.64	0.03
451.995	0.03
452.351	0.03
452.707	0.03
453.063	0.03
453.419	0.03
453.775	0.03
454.13	0.03
454.486	0.02
454.842	0.03
455.197	0.04
455.553	0.03
455.908	0.03
456.264	0.03
456.619	0.04
456.975	0.03
457.33	0.04
457.685	0.03
458.04	0.04
458.396	0.03
458.751	0.04
459.106	0.03
459.461	0.03
459.816	0.03
460.171	0.03
460.526	0.03
460.881	0.04
461.236	0.03
461.591	0.02
461.946	0.03
462.301	0.03
462.655	0.03
463.01	0.03
463.365	0.03
463.719	0.03
464.074	0.03
464.428	0.03
464.783	0.03
465.137	0.03
465.492	0.02
465.846	0.03
466.201	0.04
466.555	0.03
466.909	0.04
467.263	0.03
467.618	0.03
467.972	0.03
468.326	0.03
468.68	0.03
469.034	0.03
469.388	0.03
469.742	0.04
470.096	0.03
470.45	0.03
470.804	0.03
471.157	0.04
471.511	0.03
471.865	0.04
472.218	0.03
472.572	0.04
472.926	0.04
473.279	0.04
473.633	0.04
473.986	0.04
474.34	0.04
474.693	0.05
475.046	0.04
475.4	0.05
475.753	0.05
476.106	0.05
476.459	0.05
476.812	0.05
477.165	0.05
477.519	0.06
477.872	0.05
478.224	0.06
478.577	0.06
478.93	0.06
479.283	0.06
479.636	0.06
479.989	0.06
480.341	0.06
480.694	0.06
481.047	0.06
481.399	0.06
481.752	0.06
482.104	0.07
482.457	0.07
482.809	0.06
483.162	0.07
483.514	0.07
483.866	0.07
484.219	0.07
484.571	0.07
484.923	0.07
485.275	0.08
485.627	0.07
485.979	0.07
486.331	0.08
486.683	0.08
487.035	0.08
487.387	0.08
487.739	0.08
488.091	0.08
488.443	0.08
488.794	0.08
489.146	0.08
489.498	0.08
489.849	0.08
490.201	0.08
490.552	0.08
490.904	0.09
491.255	0.08
491.607	0.09
491.958	0.09
492.309	0.09
492.661	0.09
493.012	0.09
493.363	0.09
493.714	0.09
494.065	0.09
494.416	0.1
494.767	0.09
495.118	0.09
495.469	0.1
495.82	0.1
496.171	0.09
496.522	0.1
496.872	0.1
497.223	0.1
497.574	0.1
497.924	0.1
498.275	0.1
498.626	0.1
498.976	0.11
499.327	0.1
499.677	0.11
500.027	0.11
500.378	0.11
500.728	0.11
501.078	0.11
501.428	0.11
501.779	0.11
502.129	0.11
502.479	0.11
502.829	0.11
503.179	0.11
503.529	0.11
503.879	0.12
504.229	0.12
504.578	0.12
504.928	0.12
505.278	0.12
505.628	0.12
505.977	0.12
506.327	0.12
506.676	0.12
507.026	0.12
507.375	0.13
507.725	0.12
508.074	0.13
508.424	0.13
508.773	0.13
509.122	0.13
509.471	0.13
509.82	0.13
510.17	0.13
510.519	0.13
510.868	0.13
511.217	0.13
511.566	0.13
511.915	0.13
512.263	0.14
512.612	0.14
512.961	0.14
513.31	0.14
513.659	0.14
514.007	0.14
514.356	0.14
514.704	0.14
515.053	0.15
515.401	0.14
515.75	0.14
516.098	0.14
516.447	0.15
516.795	0.15
517.143	0.14
517.491	0.15
517.839	0.15
518.188	0.15
518.536	0.15
518.884	0.15
519.232	0.15
519.58	0.15
519.928	0.15
520.275	0.15
520.623	0.16
520.971	0.15
521.319	0.16
521.666	0.16
522.014	0.15
522.362	0.16
522.709	0.15
523.057	0.16
523.404	0.16
523.752	0.16
524.099	0.16
524.446	0.16
524.794	0.16
525.141	0.16
525.488	0.16
525.835	0.16
526.182	0.16
526.529	0.16
526.876	0.16
527.223	0.17
527.57	0.16
527.917	0.17
528.264	0.17
528.611	0.17
528.958	0.17
529.304	0.17
529.651	0.17
529.998	0.17
530.344	0.17
530.691	0.17
531.037	0.18
531.384	0.17
531.73	0.17
532.076	0.17
532.423	0.17
532.769	0.17
533.115	0.17
533.461	0.17
533.807	0.17
534.154	0.18
534.5	0.17
534.846	0.18
535.192	0.18
535.537	0.18
535.883	0.18
536.229	0.18
536.575	0.18
536.921	0.18
537.266	0.18
537.612	0.18
537.957	0.18
538.303	0.18
538.649	0.18
538.994	0.18
539.339	0.18
539.685	0.18
540.03	0.18
540.375	0.18
540.721	0.18
541.066	0.18
541.411	0.18
541.756	0.19
542.101	0.18
542.446	0.18
542.791	0.18
543.136	0.19
543.481	0.18
543.825	0.19
544.17	0.19
544.515	0.19
544.86	0.19
545.204	0.19
545.549	0.19
545.893	0.19
546.238	0.19
546.582	0.19
546.927	0.19
547.271	0.19
547.615	0.19
547.96	0.19
548.304	0.19
548.648	0.19
548.992	0.19
549.336	0.19
549.68	0.2
550.024	0.19
550.368	0.19
550.712	0.19
551.056	0.19
551.4	0.2
551.743	0.2
552.087	0.19
552.431	0.19
552.774	0.19
553.118	0.2
553.462	0.2
553.805	0.19
554.148	0.19
554.492	0.2
554.835	0.2
555.178	0.2
555.522	0.19
555.865	0.19
556.208	0.19
556.551	0.19
556.894	0.19
557.237	0.19
557.58	0.19
557.923	0.19
558.266	0.2
558.609	0.19
558.952	0.19
559.294	0.2
559.637	0.2
559.98	0.2
560.322	0.2
560.665	0.2
561.007	0.2
561.35	0.2
561.692	0.2
562.034	0.19
562.377	0.19
562.719	0.2
563.061	0.2
563.403	0.2
563.745	0.19
564.088	0.2
564.43	0.2
564.772	0.19
565.113	0.2
565.455	0.19
565.797	0.19
566.139	0.19
566.481	0.19
566.822	0.19
567.164	0.2
567.506	0.19
567.847	0.2
568.189	0.19
568.53	0.19
568.872	0.19
569.213	0.19
569.554	0.19
569.895	0.19
570.237	0.19
570.578	0.19
570.919	0.19
571.26	0.19
571.601	0.19
571.942	0.19
572.283	0.19
572.624	0.19
572.965	0.19
573.306	0.19
573.646	0.18
573.987	0.18
574.328	0.18
574.668	0.18
575.009	0.18
575.349	0.18
575.69	0.18
576.03	0.18
576.37	0.17
576.711	0.17
577.051	0.17
577.391	0.17
577.731	0.18
578.072	0.18
578.412	0.18
578.752	0.18
579.092	0.17
579.431	0.15
579.771	0.13
580.111	0.11
580.451	0.12
580.791	0.15
581.13	0.17
581.47	0.17
581.81	0.17
582.149	0.17
582.489	0.17
582.828	0.16
583.167	0.12
583.507	0.09
583.846	0.07
584.185	0.1
584.525	0.12
584.864	0.15
585.203	0.17
585.542	0.18
585.881	0.18
586.22	0.18
586.559	0.17
586.898	0.15
587.236	0.13
587.575	0.13
587.914	0.14
588.252	0.16
588.591	0.16
588.93	0.16
589.268	0.16
589.607	0.16
589.945	0.16
590.283	0.16
590.622	0.17
590.96	0.17
591.298	0.18
591.636	0.18
591.974	0.17
592.313	0.18
592.651	0.18
592.989	0.18
593.326	0.18
593.664	0.18
594.002	0.18
594.34	0.18
594.678	0.17
595.015	0.16
595.353	0.15
595.691	0.16
596.028	0.17
596.366	0.17
596.703	0.18
597.04	0.18
597.378	0.18
597.715	0.18
598.052	0.18
598.389	0.18
598.726	0.18
599.064	0.18
599.401	0.18
599.738	0.18
600.074	0.18
600.411	0.18
600.748	0.18
601.085	0.17
601.422	0.16
601.758	0.16
602.095	0.16
602.432	0.17
602.768	0.17
603.105	0.17
603.441	0.18
603.777	0.18
604.114	0.18
604.45	0.18
604.786	0.18
605.122	0.18
605.459	0.18
605.795	0.18
606.131	0.18
606.467	0.18
606.803	0.18
607.139	0.18
607.474	0.18
607.81	0.17
608.146	0.17
608.482	0.17
608.817	0.17
609.153	0.17
609.488	0.17
609.824	0.17
610.159	0.18
610.495	0.17
610.83	0.18
611.165	0.18
611.5	0.18
611.836	0.18
612.171	0.18
612.506	0.17
612.841	0.18
613.176	0.18
613.511	0.18
613.845	0.17
614.18	0.17
614.515	0.17
614.85	0.18
615.184	0.17
615.519	0.17
615.854	0.18
616.188	0.17
616.523	0.17
616.857	0.17
617.191	0.17
617.526	0.17
617.86	0.17
618.194	0.16
618.528	0.17
618.862	0.17
619.196	0.17
619.53	0.17
619.864	0.17
620.198	0.17
620.532	0.16
620.866	0.16
621.2	0.17
621.533	0.17
621.867	0.17
622.201	0.16
622.534	0.16
622.868	0.16
623.201	0.16
623.534	0.16
623.868	0.16
624.201	0.16
624.534	0.16
624.868	0.16
625.201	0.15
625.534	0.16
625.867	0.16
626.2	0.16
626.533	0.15
626.865	0.16
627.198	0.15
627.531	0.15
627.864	0.15
628.196	0.15
628.529	0.15
628.862	0.15
629.194	0.15
629.527	0.15
629.859	0.15
630.191	0.15
630.524	0.14
630.856	0.14
631.188	0.14
631.52	0.14
631.852	0.14
632.184	0.14
632.516	0.14
632.848	0.14
633.18	0.14
633.512	0.14
633.844	0.13
634.175	0.14
634.507	0.14
634.839	0.14
635.17	0.13
635.502	0.13
635.833	0.13
636.165	0.13
636.496	0.13
636.827	0.13
637.159	0.13
637.49	0.13
637.821	0.13
638.152	0.13
638.483	0.13
638.814	0.13
639.145	0.13
639.476	0.13
639.807	0.12
640.137	0.12
640.468	0.12
640.799	0.12
641.129	0.12
641.46	0.12
641.791	0.12
642.121	0.12
642.451	0.12
642.782	0.12
643.112	0.11
643.442	0.11
643.773	0.11
644.103	0.11
644.433	0.11
644.763	0.11
645.093	0.11
645.423	0.11
645.753	0.11
646.082	0.11
646.412	0.11
646.742	0.11
647.072	0.11
647.401	0.11
647.731	0.11
648.06	0.1
648.39	0.11
648.719	0.1
649.048	0.1
649.378	0.11
649.707	0.11
650.036	0.11
650.365	0.1
650.694	0.1
651.023	0.1
651.352	0.1
651.681	0.1
652.01	0.11
652.339	0.11
652.668	0.1
652.996	0.1
653.325	0.1
653.654	0.1
653.982	0.1
654.311	0.1
654.639	0.1
654.967	0.1
655.296	0.1
655.624	0.1
655.952	0.1
656.28	0.11
656.609	0.1
656.937	0.1
657.265	0.1
657.593	0
657.92	0
658.248	-0
658.576	0
658.904	0
659.231	0.02
659.559	0.08
659.887	0.09
660.214	0.09
660.542	0.09
660.869	0.09
661.196	0.09
661.524	0.09
661.851	0.09
662.178	0.09
662.505	0.09
662.832	0.09
663.159	0.09
663.486	0.09
663.813	0.09
664.14	0.09
664.467	0.09
664.794	0.09
665.12	0.09
665.447	0.09
665.774	0.09
666.1	0.08
666.427	0.09
666.753	0.09
667.079	0.09
667.406	0.08
667.732	0.08
668.058	0.08
668.384	0.08
668.71	0.09
669.036	0.09
669.362	0.09
669.688	0.09
670.014	0.09
670.34	0.08
670.666	0.08
670.991	0.08
671.317	0.08
671.643	0.08
671.968	0.08
672.294	0.08
672.619	0.08
672.945	0.08
673.27	0.08
673.595	0.08
673.92	0.08
674.246	0.08
674.571	0.07
674.896	0.07
675.221	0.07
675.546	0.07
675.87	0.08
676.195	0.07
676.52	0.07
676.845	0.07
677.169	0.07
677.494	0.07
677.819	0.07
678.143	0.07
678.468	0.07
678.792	0.07
679.116	0.07
679.44	0.07
679.765	0.07
680.089	0.07
680.413	0.06
680.737	0.06
681.061	0.06
681.385	0.06
681.709	0.06
682.033	0.06
682.356	0.06
682.68	0.06
683.004	0.06
683.327	0.05
683.651	0.05
683.974	0.05
684.298	0.06
684.621	0.05
684.944	0.05
685.268	0.05
685.591	0.05
685.914	0.05
686.237	0.05
686.56	0.05
686.883	0.04
687.206	0.04
687.529	0.04
687.852	0.03
688.175	0.03
688.497	0.04
688.82	0.04
689.142	0.04
689.465	0.04
689.787	0.04
690.11	0.04
690.432	0.04
690.755	0.04
691.077	0.04
691.399	0.04
691.721	0.04
692.043	0.04
692.365	0.04
692.687	0.04
693.009	0.03
693.331	0.03
693.653	0.03
693.974	0.03
694.296	0.03
694.618	0.03
694.939	0.03
695.261	0.02
695.582	0.02
695.904	0.02
696.225	0.03
696.546	0.03
696.868	0.03
697.189	0.03
697.51	0.03
697.831	0.03
698.152	0.03
698.473	0.03
698.794	0.02
699.114	0.02
699.435	0.01
699.756	0.01
700.077	0.01
700.397	0.02
700.718	0.02
701.038	0.02
701.359	0.02
701.679	0.02
701.999	0.03
702.32	0.02
702.64	0.02
702.96	0.02
703.28	0.02
703.6	0.02
703.92	0.02
704.24	0.02
704.56	0.01
704.879	0.01
705.199	0.01
705.519	0.01
705.838	0.01
706.158	0.02
706.478	0.01
706.797	0.02
707.116	0.02
707.436	0.02
707.755	0.02
708.074	0.02
708.393	0.01
708.712	0.01
709.031	0
709.35	0
709.669	0
709.988	0
710.307	0.01
710.626	0.01
710.944	0.01
711.263	0.01
711.582	0.01
711.9	0.01
712.219	0.01
712.537	0.01
712.855	0.01
713.174	0.01
713.492	0.01
713.81	0.01
714.128	0.01
714.446	0.01
714.764	0.01
715.082	0.01
715.4	0.01
715.718	0.01
716.035	0.01
716.353	0.01
716.671	0.01
716.988	0.01
717.306	0
717.623	0.01
717.941	0.01
718.258	0.01
718.575	0.02
718.893	0.02
719.21	0.01
719.527	0.02
719.844	0.01
720.161	0.02
720.478	0.01
720.795	0.01
721.112	0.01
721.428	0.02
721.745	0.02
722.062	0.02
722.378	0.02
722.695	0.02
723.011	0.02
723.328	0.02
723.644	0.02
723.96	0.02
724.276	0.03
724.593	0.02
724.909	0.03
725.225	0.02
725.541	0.03
725.857	0.03
726.173	0.03
726.488	0.03
726.804	0.02
727.12	0.02
727.435	0.02
727.751	0.02
728.067	0.02
728.382	0.02
728.697	0.02
729.013	0.03
729.328	0.02
729.643	0.02
729.958	0.02
730.273	0.03
730.588	0.02
730.903	0.03
731.218	0.03
731.533	0.02
731.848	0.02
732.163	0.02
732.477	0.02
732.792	0.02
733.107	0.01
733.421	0.01
733.736	0.02
734.05	0.02
734.364	0.02
734.678	0.02
734.993	0.02
735.307	0.02
735.621	0.02
735.935	0.02
736.249	0.02
736.563	0.02
736.877	0.02
737.19	0.03
737.504	0.02
737.818	0.02
738.131	0.02
738.445	0.03
738.758	0.03
739.072	0.02
739.385	0.03
739.698	0.02
740.012	0.03
740.325	0.03
740.638	0.03
740.951	0.02
741.264	0.02
741.577	0.02
741.89	0.02
742.203	0.03
742.515	0.02
742.828	0.03
743.141	0.03
743.453	0.03
743.766	0.03
744.078	0.03
744.391	0.02
744.703	0.02
745.015	0.02
745.327	0.02
745.639	0.02
745.952	0.02
746.264	0.02
746.575	0.02
746.887	0.02
747.199	0.02
747.511	0.02
747.823	0.02
748.134	0.02
748.446	0.02
748.757	0.02
749.069	0.02
749.38	0.02
749.692	0.02
750.003	0.02
750.314	0.02
750.625	0.02
750.936	0.02
751.248	0.02
751.559	0.02
751.869	0.02
752.18	0.02
752.491	0.02
752.802	0.01
753.112	0.02
753.423	0.01
753.734	0.02
754.044	0.02
754.355	0.02
754.665	0.01
754.975	0.01
755.285	0.01
755.596	0.01
755.906	0.01
756.216	0.01
756.526	0.01
756.836	0.01
757.146	0.01
757.455	0.01
757.765	0.01
758.075	0.01
758.385	0.01
758.694	0.01
759.004	0.01
759.313	0.01
759.622	0.01
759.932	0.01
760.241	0.01
760.55	0.01
760.859	0.01
761.168	0.01
761.477	0.01
761.786	0.01
762.095	0.01
762.404	0.01
762.713	0.01
763.021	0.01
763.33	0.01
763.639	0.01
763.947	0.01
764.256	0.01
764.564	0.01
764.872	0.01
765.181	0.01
765.489	0.01
765.797	0.01
766.105	0.01
766.413	0.01
766.721	0.01
767.029	0.01
767.337	0.01
767.644	0.01
767.952	0.01
768.26	0.01
768.567	0.01
768.875	0.01
769.182	0.01
769.49	0.02
769.797	0.01
770.104	0.01
770.411	0.01
770.718	0.01
771.026	0.01
771.333	0.01
771.639	0.01
771.946	0.01
772.253	0.01
772.56	0.01
772.867	0.01
773.173	0.01
773.48	0.01
773.786	0.01
774.093	0.01
774.399	0.02
774.705	0.02
775.012	0.01
775.318	0.01
775.624	0.02
775.93	0.02
776.236	0.02
776.542	0.02
776.848	0.02
777.154	0.02
777.459	0.02
777.765	0.02
778.071	0.02
778.376	0.02
778.682	0.02
778.987	0.02
779.292	0.01
779.598	0.01
779.903	0.02
780.208	0.01
780.513	0.01
780.818	0.01
781.123	0.01
781.428	0.02
781.733	0.01
782.038	0.01
782.343	0.01
782.647	0.01
782.952	0.02
783.256	0.01
783.561	0.02
783.865	0.01
784.17	0.02
784.474	0.02
784.778	0.01
785.082	0.01
785.386	0.02
785.69	0.01
785.994	0.01
786.298	0.01
786.602	0.02
786.906	0.01
787.209	0.02
787.513	0.01
787.817	0.02
788.12	0.02
788.424	0.01
788.727	0.01
789.03	0.02
789.333	0.02
789.637	0.02
789.94	0.02
790.243	0.02
790.546	0.02
790.849	0.02
791.152	0.02
791.454	0.02
791.757	0.02
792.06	0.02
792.362	0.02
792.665	0.02
792.967	0.02
793.27	0.02
793.572	0.02
793.874	0.02
794.177	0.02
794.479	0.02
794.781	0.02
795.083	0.01
795.385	0.02
795.687	0.01
795.989	0.02
796.29	0.02
796.592	0.02
796.894	0.01
797.195	0.01
797.497	0.01
797.798	0.01
798.1	0.01
798.401	0.02
798.702	0.02
799.003	0.01
799.304	0.02
799.605	0.01
799.906	0.01
800.207	0.02
800.508	0.02
800.809	0.02
801.11	0.02
801.41	0.01
801.711	0.01
802.011	0.02
802.312	0.02
802.612	0.02
802.913	0.02
803.213	0.02
803.513	0.02
803.813	0.02
804.113	0.02
804.413	0.02
804.713	0.02
805.013	0.02
805.313	0.02
805.613	0.02
805.912	0.02
806.212	0.01
806.511	0.01
806.811	0.01
807.11	0.01
807.41	0.01
807.709	0.01
808.008	0.01
808.307	0.01
808.606	0.01
808.905	0.01
809.204	0.01
809.503	0.01
809.802	0.01
810.101	0.01
810.399	0.01
810.698	0.01
810.997	0.01
811.295	0.01
811.593	0.01
811.892	0.02
812.19	0.01
812.488	0.01
812.786	0.02
813.084	0.02
813.383	0.02
813.68	0.01
813.978	0.02
814.276	0.02
814.574	0.01
814.872	0.01
815.169	0.02
815.467	0.02
815.764	0.02
816.062	0.01
816.359	0.02
816.656	0.02
816.954	0.01
817.251	0.01
817.548	0.02
817.845	0.02
818.142	0.01
818.439	0.01
818.735	0.01
819.032	0.01
819.329	0.01
819.626	0.01
819.922	0.01
820.219	0.02
820.515	0.02
820.811	0.01
821.108	0.01
821.404	0.01
821.7	0.02
821.996	0.02
822.292	0.02
822.588	0.02
822.884	0.02
823.18	0.02
823.475	0.02
823.771	0.02
824.067	0.02
824.362	0.02
824.658	0.02
824.953	0.03
825.249	0.02
825.544	0.02
825.839	0.02
826.134	0.02
826.429	0.02
826.724	0.01
827.019	0.01
827.314	0.02
827.609	0.01
827.904	0.01
828.198	0.01
828.493	0.01
828.787	0.01
829.082	0.02
829.376	0.02
829.671	0.01
829.965	0.01
830.259	0.02
830.553	0.02
830.847	0.02
831.141	0.02
831.435	0.02
831.729	0.01
832.023	0.01
832.317	0.01
832.61	0.01
832.904	0.02
833.197	0.02
833.491	0.02
833.784	0.01
834.077	0.01
834.371	0.01
834.664	0.02
834.957	0.02
835.25	0.02
835.543	0.02
835.836	0.02
836.129	0.02
836.421	0.02
836.714	0.02
837.007	0.02
837.299	0.02
837.592	0.02
837.884	0.02
838.177	0.02
838.469	0.01
838.761	0.02
839.053	0.01
839.345	0.02
839.637	0.02
839.929	0.03
840.221	0.03
840.513	0.03
840.805	0.03
841.096	0.02
841.388	0.03
841.68	0.02
841.971	0.02
842.262	0.02
842.554	0.02
842.845	0.02
843.136	0.03
843.427	0.02
843.718	0.02
844.009	0.03
844.3	0.03
844.591	0.02
844.882	0.02
845.173	0.03
845.463	0.02
845.754	0.03
846.044	0.03
846.335	0.02
846.625	0.02
846.915	0.02
847.206	0.02
847.496	0.03
847.786	0.02
848.076	0.02
848.366	0.02
848.656	0.03
848.945	0.01
849.235	0.02
849.525	0.02
849.814	0.03
850.104	0.02
850.393	0.02
850.683	0.02
850.972	0.02
851.261	0.02
851.551	0.02
851.84	0.01
852.129	0.03
852.418	0.02
852.707	0.02
852.995	0.02
853.284	0.02
853.573	0.02
853.862	0.02
854.15	0.03
854.439	0.04
854.727	0.03
855.015	0.02
855.304	0.03
855.592	0.03
855.88	0.03
856.168	0.02
856.456	0.02
856.744	0.02
857.032	0.02
857.32	0.02
857.607	0.01
857.895	0.03
858.183	0.02
858.47	0.02
858.757	0.02
859.045	0.03
859.332	0.03
859.619	0.03
859.907	0.03
860.194	0.03
860.481	0.03
860.768	0.01
861.054	0.03
861.341	0.03
861.628	0.02
861.915	0.04
862.201	0.03
862.488	0.02
862.774	0.03
863.061	0.02
863.347	0.03
863.633	0.03
863.919	0
864.205	0.02
864.491	0.02
864.777	0.01
865.063	0.03
865.349	0.02
865.635	0.01
865.92	0.03
866.206	0
866.492	0.02
866.777	0.01
867.062	0.04
867.348	0.02
867.633	0.01
867.918	0.03
868.203	0.01
868.488	0.02
868.773	0.02
869.058	0.04
869.343	0.03
869.628	0.04
869.912	0.01
870.197	0.01
870.482	0.03
870.766	0.03
871.05	-0.01
871.335	-0
871.619	0.02
871.903	-0.06
872.187	0.04
872.471	0.02
872.755	-0.01
873.039	0.02
873.323	0.05
873.607	0.01
873.89	-0.02
874.174	0.03
874.458	0.01
874.741	0
875.024	-0.02
875.308	0.03
875.591	0.05
875.874	0.02
876.157	-0.01
876.44	-0.02
876.723	-0.03
877.006	0.05
877.289	0.01
877.572	-0.01
877.854	-0.04
878.137	0.01
878.42	-0.02
878.702	0.01
878.984	-0.02
879.267	-0
879.549	-0.01
879.831	0.02
880.113	0.01
880.395	-0.03
880.677	0.02
880.959	0.07
