Data from Rubpy_BV_900_EDTA_Buffered_Absorbance_12-57-34-866.txt Node
Date: Wed Jul 01 12:57:34 BST 2026
User: fpm-admin
Spectrometer: OFX00224
Trigger mode: 0
Integration Time (sec): 7.000000E-2
Scans to average: 3
Nonlinearity correction enabled: false
Boxcar width: 0
Storing dark spectrum: false
XAxis mode: Wavelengths
Number of Pixels in Spectrum: 2136
>>>>>Begin Spectral Data<<<<<
154.91	-0
155.289	0.35
155.669	-0.06
156.048	-0.44
156.428	-0.34
156.807	-0
157.186	0.63
157.566	-0
157.945	0.12
158.325	-0.18
158.704	-0.16
159.083	-0.44
159.462	-0.08
159.842	0.28
160.221	-0
160.6	-0
160.979	0.3
161.359	-0
161.738	0.05
162.117	-0.52
162.496	-0
162.875	-0
163.254	-0
163.633	-0
164.012	-0
164.391	-0.64
164.77	-0
165.149	0.12
165.528	-0.35
165.907	-1.04
166.286	-0.03
166.665	0.22
167.044	-0
167.423	0.34
167.802	-0.21
168.181	-0
168.559	0.16
168.938	0.03
169.317	0.19
169.696	-0.12
170.074	0.35
170.453	-0.14
170.832	-0.24
171.21	-0
171.589	0.2
171.968	0.65
172.346	1.32
172.725	0.55
173.103	-0
173.482	-0
173.861	-0
174.239	-0
174.617	-0
174.996	-0.12
175.374	-0
175.753	0.26
176.131	-0
176.51	0.11
176.888	0.38
177.266	0.71
177.645	-0.13
178.023	0.48
178.401	0.52
178.779	-0.28
179.158	-1.1
179.536	-0.26
179.914	-0.46
180.292	-0.78
180.67	0.5
181.048	-0
181.427	0.12
181.805	-0
182.183	-0.45
182.561	-0
182.939	-0
183.317	-0
183.695	-0
184.073	-0.18
184.451	-0.29
184.829	-0.49
185.206	-0
185.584	-1.28
185.962	0.35
186.34	-0.05
186.718	-0.1
187.096	-0.97
187.473	0.19
187.851	-0.11
188.229	-1.19
188.607	0.05
188.984	0.13
189.362	0.02
189.74	-0.04
190.117	-0.04
190.495	0.03
190.872	0.1
191.25	-0.03
191.627	-0.03
192.005	0.11
192.382	0.1
192.76	0.03
193.137	0.13
193.515	0.09
193.892	0.11
194.269	0.04
194.647	0.06
195.024	0.01
195.401	-0.01
195.779	0.08
196.156	0.02
196.533	0.11
196.91	0.05
197.288	0.05
197.665	-0.02
198.042	-0.03
198.419	0.08
198.796	0.07
199.173	0.1
199.55	0.06
199.927	0.04
200.304	0.04
200.681	0.06
201.058	0.11
201.435	0.06
201.812	0.08
202.189	-0.01
202.566	0.13
202.943	0.09
203.32	0.06
203.697	0.1
204.073	-0.01
204.45	-0.03
204.827	0.11
205.204	0.02
205.58	0.08
205.957	0.04
206.334	0.11
206.71	0.12
207.087	0.1
207.464	0.05
207.84	0.02
208.217	0.04
208.593	0.02
208.97	0.1
209.346	0.03
209.723	-0.02
210.099	0.11
210.476	0.05
210.852	0.11
211.228	0.12
211.605	0.02
211.981	0.13
212.357	0.05
212.733	0.08
213.11	0.1
213.486	0.06
213.862	-0.06
214.238	0.1
214.614	0.06
214.991	0.03
215.367	0.05
215.743	0.12
216.119	-0
216.495	0.06
216.871	0.03
217.247	0.08
217.623	0.05
217.999	0.09
218.375	0.11
218.751	0.06
219.127	0.07
219.502	0.05
219.878	0.06
220.254	0.05
220.63	0.01
221.006	0.04
221.381	0.18
221.757	0.04
222.133	-0.01
222.508	0.05
222.884	0.07
223.26	0.11
223.635	0.09
224.011	0.06
224.386	0.07
224.762	0.1
225.137	0.06
225.513	0.06
225.888	-0.05
226.264	0.05
226.639	0.07
227.014	0.05
227.39	0.09
227.765	0.11
228.14	0.06
228.516	0.05
228.891	0.11
229.266	0.13
229.641	0.08
230.017	0.06
230.392	0.15
230.767	0.04
231.142	0.1
231.517	0.05
231.892	-0.03
232.267	0.08
232.642	-0
233.017	0.06
233.392	0.09
233.767	0.12
234.142	0.03
234.517	-0.02
234.892	0.03
235.267	0.04
235.641	0.02
236.016	0.08
236.391	0.08
236.766	0.06
237.14	0.06
237.515	0.04
237.89	0.08
238.264	0.03
238.639	0.16
239.014	0.11
239.388	0.09
239.763	0.06
240.137	0.12
240.512	0.1
240.886	0.09
241.261	0.12
241.635	0.09
242.009	0.04
242.384	0.03
242.758	-0.04
243.132	0.16
243.507	0.12
243.881	0.09
244.255	0.07
244.629	0.03
245.004	0.08
245.378	0.05
245.752	0.03
246.126	0.03
246.5	0.12
246.874	0.08
247.248	0.08
247.622	0.05
247.996	0.09
248.37	0.05
248.744	0.02
249.118	-0.02
249.492	0.13
249.866	0.12
250.24	0.08
250.613	0.04
250.987	0.05
251.361	0.06
251.735	0.05
252.108	0.12
252.482	0.09
252.856	0.06
253.229	0.14
253.603	0.06
253.977	0.07
254.35	0.07
254.724	0.09
255.097	0.06
255.471	0.1
255.844	0.03
256.218	0.11
256.591	0.06
256.964	-0.01
257.338	0.09
257.711	0.05
258.084	0.1
258.458	0.07
258.831	0.11
259.204	0.1
259.577	0.09
259.95	0.08
260.323	0.11
260.697	0.12
261.07	0.09
261.443	0.02
261.816	0.08
262.189	0.12
262.562	0.1
262.935	0.18
263.308	0.01
263.68	0.11
264.053	0.1
264.426	0.06
264.799	0.08
265.172	0.15
265.545	0.03
265.917	0.1
266.29	0
266.663	0.13
267.035	0.1
267.408	0.11
267.781	0.01
268.153	0.11
268.526	0.09
268.898	0.05
269.271	0.11
269.643	0.02
270.016	0.12
270.388	0.11
270.76	0.07
271.133	0.14
271.505	0.13
271.877	0.07
272.25	0.02
272.622	0.08
272.994	0.1
273.366	0.14
273.739	0.07
274.111	0.03
274.483	0.09
274.855	0.08
275.227	0.15
275.599	0.06
275.971	0.04
276.343	0.11
276.715	0.13
277.087	0.09
277.459	0.08
277.831	0.11
278.203	0.05
278.574	0.07
278.946	0.08
279.318	0.06
279.69	0.1
280.061	0.13
280.433	0.03
280.805	0.01
281.176	0.1
281.548	0.05
281.92	0.06
282.291	0.03
282.663	0.12
283.034	-0.02
283.406	0.04
283.777	0.12
284.148	0.02
284.52	0.14
284.891	0.03
285.262	0.17
285.634	0.08
286.005	0.09
286.376	0.06
286.747	0.08
287.119	0.1
287.49	0.03
287.861	0.07
288.232	0.08
288.603	0.14
288.974	0.15
289.345	0.08
289.716	0.05
290.087	0.08
290.458	0.13
290.829	0.08
291.2	0.07
291.571	0.07
291.941	0.09
292.312	0.16
292.683	0.06
293.054	0.05
293.424	0.1
293.795	0.12
294.166	0.11
294.536	0.04
294.907	0.11
295.277	0.08
295.648	0.06
296.018	0.07
296.389	0.08
296.759	0.13
297.13	0.04
297.5	0.11
297.871	0.13
298.241	0.09
298.611	0.08
298.981	0.07
299.352	0.06
299.722	0.1
300.092	0.14
300.462	0.03
300.832	0.06
301.202	0.08
301.573	0.07
301.943	0.05
302.313	0.12
302.683	0.11
303.053	0.12
303.422	0.05
303.792	0.06
304.162	0.05
304.532	0.07
304.902	0.07
305.272	0.05
305.641	0.09
306.011	0.07
306.381	0.05
306.75	0.05
307.12	0.05
307.49	0.03
307.859	0.07
308.229	0.04
308.598	0.04
308.968	0.04
309.337	0.05
309.707	0.06
310.076	0.05
310.445	0.05
310.815	0.05
311.184	0.05
311.553	0.05
311.923	0.03
312.292	0.05
312.661	0.06
313.03	0.05
313.399	0.04
313.768	0.06
314.137	0.05
314.506	0.06
314.875	0.06
315.244	0.06
315.613	0.07
315.982	0.06
316.351	0.06
316.72	0.07
317.089	0.07
317.458	0.06
317.826	0.06
318.195	0.07
318.564	0.06
318.933	0.07
319.301	0.07
319.67	0.07
320.038	0.07
320.407	0.08
320.775	0.08
321.144	0.07
321.512	0.07
321.881	0.07
322.249	0.07
322.618	0.07
322.986	0.08
323.354	0.08
323.723	0.08
324.091	0.09
324.459	0.08
324.827	0.08
325.195	0.08
325.564	0.08
325.932	0.08
326.3	0.09
326.668	0.09
327.036	0.09
327.404	0.09
327.772	0.09
328.14	0.09
328.508	0.09
328.875	0.1
329.243	0.09
329.611	0.09
329.979	0.1
330.346	0.09
330.714	0.11
331.082	0.1
331.449	0.11
331.817	0.11
332.185	0.1
332.552	0.1
332.92	0.11
333.287	0.11
333.655	0.12
334.022	0.11
334.389	0.12
334.757	0.12
335.124	0.12
335.491	0.13
335.859	0.13
336.226	0.13
336.593	0.13
336.96	0.13
337.327	0.13
337.695	0.13
338.062	0.14
338.429	0.14
338.796	0.14
339.163	0.15
339.53	0.14
339.897	0.15
340.263	0.15
340.63	0.16
340.997	0.16
341.364	0.16
341.731	0.16
342.097	0.17
342.464	0.17
342.831	0.17
343.197	0.18
343.564	0.18
343.931	0.18
344.297	0.18
344.664	0.18
345.03	0.19
345.396	0.19
345.763	0.19
346.129	0.2
346.496	0.2
346.862	0.2
347.228	0.21
347.594	0.21
347.961	0.21
348.327	0.22
348.693	0.22
349.059	0.22
349.425	0.22
349.791	0.23
350.157	0.23
350.523	0.23
350.889	0.23
351.255	0.23
351.621	0.24
351.987	0.25
352.353	0.24
352.719	0.24
353.084	0.25
353.45	0.25
353.816	0.26
354.181	0.26
354.547	0.26
354.913	0.27
355.278	0.27
355.644	0.27
356.009	0.28
356.375	0.28
356.74	0.29
357.106	0.29
357.471	0.29
357.836	0.29
358.202	0.3
358.567	0.3
358.932	0.31
359.297	0.32
359.663	0.32
360.028	0.32
360.393	0.33
360.758	0.33
361.123	0.33
361.488	0.35
361.853	0.35
362.218	0.36
362.583	0.36
362.948	0.36
363.312	0.37
363.677	0.37
364.042	0.37
364.407	0.38
364.772	0.39
365.136	0.39
365.501	0.39
365.865	0.4
366.23	0.4
366.595	0.4
366.959	0.41
367.324	0.41
367.688	0.42
368.052	0.41
368.417	0.43
368.781	0.43
369.145	0.43
369.51	0.43
369.874	0.44
370.238	0.44
370.602	0.44
370.967	0.45
371.331	0.45
371.695	0.45
372.059	0.45
372.423	0.46
372.787	0.46
373.151	0.46
373.515	0.45
373.878	0.45
374.242	0.45
374.606	0.45
374.97	0.45
375.334	0.44
375.697	0.44
376.061	0.44
376.425	0.44
376.788	0.43
377.152	0.42
377.515	0.42
377.879	0.42
378.242	0.41
378.606	0.41
378.969	0.41
379.333	0.4
379.696	0.4
380.059	0.4
380.422	0.39
380.786	0.39
381.149	0.38
381.512	0.38
381.875	0.38
382.238	0.38
382.601	0.37
382.964	0.37
383.327	0.37
383.69	0.36
384.053	0.36
384.416	0.37
384.779	0.36
385.142	0.37
385.504	0.36
385.867	0.36
386.23	0.36
386.593	0.36
386.955	0.36
387.318	0.37
387.68	0.37
388.043	0.36
388.405	0.38
388.768	0.37
389.13	0.37
389.493	0.37
389.855	0.38
390.217	0.37
390.58	0.37
390.942	0.37
391.304	0.36
391.666	0.36
392.028	0.36
392.391	0.36
392.753	0.35
393.115	0.35
393.477	0.34
393.839	0.34
394.201	0.34
394.563	0.34
394.924	0.34
395.286	0.34
395.648	0.34
396.01	0.35
396.371	0.35
396.733	0.36
397.095	0.36
397.456	0.37
397.818	0.38
398.18	0.39
398.541	0.41
398.903	0.41
399.264	0.42
399.625	0.44
399.987	0.45
400.348	0.45
400.709	0.46
401.071	0.47
401.432	0.47
401.793	0.47
402.154	0.47
402.515	0.46
402.876	0.46
403.238	0.45
403.599	0.44
403.96	0.42
404.32	0.41
404.681	0.39
405.042	0.38
405.403	0.36
405.764	0.35
406.125	0.33
406.485	0.31
406.846	0.29
407.207	0.27
407.567	0.26
407.928	0.24
408.288	0.23
408.649	0.22
409.009	0.2
409.37	0.2
409.73	0.18
410.091	0.17
410.451	0.16
410.811	0.15
411.171	0.15
411.532	0.14
411.892	0.13
412.252	0.12
412.612	0.12
412.972	0.11
413.332	0.1
413.692	0.11
414.052	0.1
414.412	0.1
414.772	0.09
415.132	0.08
415.492	0.08
415.851	0.08
416.211	0.08
416.571	0.08
416.931	0.07
417.29	0.07
417.65	0.06
418.009	0.07
418.369	0.06
418.728	0.07
419.088	0.06
419.447	0.06
419.807	0.06
420.166	0.06
420.525	0.05
420.884	0.05
421.244	0.06
421.603	0.05
421.962	0.06
422.321	0.05
422.68	0.05
423.039	0.04
423.398	0.05
423.757	0.05
424.116	0.05
424.475	0.05
424.834	0.05
425.193	0.05
425.551	0.04
425.91	0.04
426.269	0.04
426.628	0.04
426.986	0.04
427.345	0.04
427.703	0.05
428.062	0.04
428.42	0.04
428.779	0.03
429.137	0.04
429.496	0.04
429.854	0.04
430.212	0.04
430.57	0.04
430.929	0.04
431.287	0.04
431.645	0.03
432.003	0.03
432.361	0.04
432.719	0.04
433.077	0.04
433.435	0.03
433.793	0.04
434.151	0.04
434.509	0.03
434.866	0.04
435.224	0.04
435.582	0.03
435.94	0.03
436.297	0.03
436.655	0.04
437.012	0.03
437.37	0.04
437.727	0.03
438.085	0.04
438.442	0.04
438.8	0.03
439.157	0.03
439.514	0.04
439.872	0.03
440.229	0.05
440.586	0.03
440.943	0.03
441.3	0.03
441.657	0.04
442.014	0.04
442.371	0.03
442.728	0.03
443.085	0.03
443.442	0.04
443.799	0.04
444.156	0.04
444.513	0.03
444.869	0.04
445.226	0.03
445.583	0.03
445.939	0.04
446.296	0.03
446.652	0.04
447.009	0.03
447.365	0.03
447.722	0.03
448.078	0.03
448.434	0.03
448.791	0.04
449.147	0.03
449.503	0.03
449.859	0.04
450.215	0.03
450.571	0.04
450.928	0.04
451.284	0.03
451.64	0.03
451.995	0.03
452.351	0.03
452.707	0.04
453.063	0.03
453.419	0.04
453.775	0.03
454.13	0.03
454.486	0.03
454.842	0.04
455.197	0.04
455.553	0.03
455.908	0.03
456.264	0.03
456.619	0.04
456.975	0.04
457.33	0.03
457.685	0.03
458.04	0.04
458.396	0.03
458.751	0.03
459.106	0.03
459.461	0.03
459.816	0.03
460.171	0.04
460.526	0.03
460.881	0.04
461.236	0.03
461.591	0.03
461.946	0.04
462.301	0.03
462.655	0.03
463.01	0.03
463.365	0.03
463.719	0.03
464.074	0.03
464.428	0.03
464.783	0.03
465.137	0.03
465.492	0.03
465.846	0.03
466.201	0.04
466.555	0.03
466.909	0.04
467.263	0.04
467.618	0.04
467.972	0.03
468.326	0.03
468.68	0.04
469.034	0.03
469.388	0.04
469.742	0.04
470.096	0.03
470.45	0.04
470.804	0.03
471.157	0.04
471.511	0.03
471.865	0.04
472.218	0.04
472.572	0.04
472.926	0.04
473.279	0.04
473.633	0.05
473.986	0.04
474.34	0.05
474.693	0.05
475.046	0.05
475.4	0.05
475.753	0.05
476.106	0.06
476.459	0.05
476.812	0.05
477.165	0.06
477.519	0.06
477.872	0.05
478.224	0.06
478.577	0.07
478.93	0.06
479.283	0.06
479.636	0.06
479.989	0.06
480.341	0.06
480.694	0.07
481.047	0.07
481.399	0.07
481.752	0.07
482.104	0.07
482.457	0.07
482.809	0.07
483.162	0.07
483.514	0.08
483.866	0.07
484.219	0.08
484.571	0.08
484.923	0.08
485.275	0.08
485.627	0.08
485.979	0.08
486.331	0.08
486.683	0.08
487.035	0.08
487.387	0.09
487.739	0.09
488.091	0.09
488.443	0.09
488.794	0.09
489.146	0.09
489.498	0.09
489.849	0.09
490.201	0.09
490.552	0.09
490.904	0.09
491.255	0.09
491.607	0.09
491.958	0.1
492.309	0.1
492.661	0.1
493.012	0.1
493.363	0.1
493.714	0.1
494.065	0.1
494.416	0.1
494.767	0.1
495.118	0.1
495.469	0.1
495.82	0.11
496.171	0.1
496.522	0.11
496.872	0.11
497.223	0.1
497.574	0.11
497.924	0.11
498.275	0.11
498.626	0.11
498.976	0.12
499.327	0.11
499.677	0.12
500.027	0.12
500.378	0.12
500.728	0.12
501.078	0.12
501.428	0.12
501.779	0.13
502.129	0.12
502.479	0.12
502.829	0.12
503.179	0.12
503.529	0.12
503.879	0.12
504.229	0.13
504.578	0.13
504.928	0.13
505.278	0.13
505.628	0.13
505.977	0.13
506.327	0.13
506.676	0.13
507.026	0.13
507.375	0.13
507.725	0.13
508.074	0.14
508.424	0.14
508.773	0.14
509.122	0.14
509.471	0.14
509.82	0.14
510.17	0.14
510.519	0.15
510.868	0.15
511.217	0.15
511.566	0.15
511.915	0.15
512.263	0.15
512.612	0.14
512.961	0.15
513.31	0.15
513.659	0.15
514.007	0.15
514.356	0.15
514.704	0.15
515.053	0.16
515.401	0.15
515.75	0.16
516.098	0.16
516.447	0.16
516.795	0.16
517.143	0.16
517.491	0.16
517.839	0.16
518.188	0.17
518.536	0.16
518.884	0.16
519.232	0.16
519.58	0.16
519.928	0.16
520.275	0.17
520.623	0.17
520.971	0.17
521.319	0.17
521.666	0.17
522.014	0.17
522.362	0.17
522.709	0.17
523.057	0.17
523.404	0.17
523.752	0.17
524.099	0.17
524.446	0.17
524.794	0.17
525.141	0.17
525.488	0.18
525.835	0.17
526.182	0.17
526.529	0.17
526.876	0.18
527.223	0.18
527.57	0.18
527.917	0.18
528.264	0.18
528.611	0.18
528.958	0.18
529.304	0.18
529.651	0.18
529.998	0.18
530.344	0.18
530.691	0.18
531.037	0.19
531.384	0.18
531.73	0.19
532.076	0.19
532.423	0.19
532.769	0.19
533.115	0.19
533.461	0.19
533.807	0.19
534.154	0.18
534.5	0.19
534.846	0.2
535.192	0.2
535.537	0.19
535.883	0.19
536.229	0.19
536.575	0.19
536.921	0.2
537.266	0.19
537.612	0.2
537.957	0.19
538.303	0.2
538.649	0.2
538.994	0.2
539.339	0.2
539.685	0.2
540.03	0.2
540.375	0.2
540.721	0.2
541.066	0.2
541.411	0.2
541.756	0.2
542.101	0.2
542.446	0.2
542.791	0.2
543.136	0.2
543.481	0.2
543.825	0.2
544.17	0.2
544.515	0.2
544.86	0.21
545.204	0.2
545.549	0.21
545.893	0.21
546.238	0.2
546.582	0.2
546.927	0.21
547.271	0.21
547.615	0.21
547.96	0.2
548.304	0.21
548.648	0.21
548.992	0.21
549.336	0.21
549.68	0.21
550.024	0.21
550.368	0.21
550.712	0.21
551.056	0.21
551.4	0.21
551.743	0.21
552.087	0.21
552.431	0.21
552.774	0.21
553.118	0.21
553.462	0.21
553.805	0.21
554.148	0.21
554.492	0.21
554.835	0.21
555.178	0.21
555.522	0.21
555.865	0.21
556.208	0.21
556.551	0.21
556.894	0.21
557.237	0.21
557.58	0.21
557.923	0.21
558.266	0.21
558.609	0.21
558.952	0.21
559.294	0.21
559.637	0.21
559.98	0.21
560.322	0.22
560.665	0.21
561.007	0.21
561.35	0.21
561.692	0.21
562.034	0.21
562.377	0.21
562.719	0.21
563.061	0.21
563.403	0.21
563.745	0.21
564.088	0.21
564.43	0.21
564.772	0.21
565.113	0.21
565.455	0.21
565.797	0.21
566.139	0.21
566.481	0.21
566.822	0.21
567.164	0.21
567.506	0.21
567.847	0.21
568.189	0.21
568.53	0.21
568.872	0.21
569.213	0.21
569.554	0.21
569.895	0.21
570.237	0.21
570.578	0.21
570.919	0.21
571.26	0.2
571.601	0.2
571.942	0.2
572.283	0.2
572.624	0.2
572.965	0.2
573.306	0.2
573.646	0.2
573.987	0.2
574.328	0.2
574.668	0.2
575.009	0.2
575.349	0.19
575.69	0.19
576.03	0.19
576.37	0.19
576.711	0.18
577.051	0.18
577.391	0.19
577.731	0.19
578.072	0.19
578.412	0.19
578.752	0.19
579.092	0.19
579.431	0.16
579.771	0.14
580.111	0.13
580.451	0.14
580.791	0.16
581.13	0.18
581.47	0.19
581.81	0.18
582.149	0.18
582.489	0.18
582.828	0.17
583.167	0.13
583.507	0.1
583.846	0.09
584.185	0.11
584.525	0.13
584.864	0.16
585.203	0.18
585.542	0.19
585.881	0.19
586.22	0.19
586.559	0.18
586.898	0.16
587.236	0.15
587.575	0.14
587.914	0.15
588.252	0.17
588.591	0.18
588.93	0.18
589.268	0.17
589.607	0.17
589.945	0.17
590.283	0.17
590.622	0.18
590.96	0.18
591.298	0.19
591.636	0.19
591.974	0.19
592.313	0.19
592.651	0.19
592.989	0.19
593.326	0.19
593.664	0.2
594.002	0.19
594.34	0.19
594.678	0.18
595.015	0.17
595.353	0.16
595.691	0.17
596.028	0.19
596.366	0.19
596.703	0.19
597.04	0.19
597.378	0.19
597.715	0.19
598.052	0.19
598.389	0.2
598.726	0.2
599.064	0.19
599.401	0.19
599.738	0.19
600.074	0.2
600.411	0.19
600.748	0.19
601.085	0.18
601.422	0.17
601.758	0.18
602.095	0.18
602.432	0.18
602.768	0.18
603.105	0.19
603.441	0.19
603.777	0.19
604.114	0.19
604.45	0.2
604.786	0.2
605.122	0.19
605.459	0.19
605.795	0.19
606.131	0.19
606.467	0.19
606.803	0.19
607.139	0.19
607.474	0.19
607.81	0.19
608.146	0.19
608.482	0.19
608.817	0.19
609.153	0.19
609.488	0.18
609.824	0.18
610.159	0.19
610.495	0.19
610.83	0.19
611.165	0.19
611.5	0.19
611.836	0.19
612.171	0.19
612.506	0.19
612.841	0.19
613.176	0.19
613.511	0.19
613.845	0.19
614.18	0.19
614.515	0.19
614.85	0.19
615.184	0.19
615.519	0.19
615.854	0.18
616.188	0.18
616.523	0.18
616.857	0.18
617.191	0.18
617.526	0.18
617.86	0.18
618.194	0.18
618.528	0.18
618.862	0.18
619.196	0.18
619.53	0.18
619.864	0.18
620.198	0.18
620.532	0.18
620.866	0.18
621.2	0.18
621.533	0.18
621.867	0.18
622.201	0.17
622.534	0.17
622.868	0.17
623.201	0.17
623.534	0.17
623.868	0.17
624.201	0.17
624.534	0.17
624.868	0.17
625.201	0.17
625.534	0.17
625.867	0.17
626.2	0.17
626.533	0.16
626.865	0.17
627.198	0.17
627.531	0.17
627.864	0.17
628.196	0.16
628.529	0.16
628.862	0.16
629.194	0.16
629.527	0.16
629.859	0.16
630.191	0.16
630.524	0.15
630.856	0.16
631.188	0.15
631.52	0.15
631.852	0.15
632.184	0.15
632.516	0.15
632.848	0.15
633.18	0.15
633.512	0.15
633.844	0.15
634.175	0.15
634.507	0.15
634.839	0.15
635.17	0.14
635.502	0.14
635.833	0.14
636.165	0.15
636.496	0.14
636.827	0.14
637.159	0.14
637.49	0.14
637.821	0.14
638.152	0.14
638.483	0.14
638.814	0.14
639.145	0.13
639.476	0.14
639.807	0.13
640.137	0.13
640.468	0.13
640.799	0.13
641.129	0.13
641.46	0.13
641.791	0.13
642.121	0.13
642.451	0.13
642.782	0.12
643.112	0.12
643.442	0.12
643.773	0.12
644.103	0.12
644.433	0.12
644.763	0.12
645.093	0.12
645.423	0.12
645.753	0.12
646.082	0.12
646.412	0.11
646.742	0.11
647.072	0.11
647.401	0.12
647.731	0.12
648.06	0.11
648.39	0.11
648.719	0.11
649.048	0.11
649.378	0.11
649.707	0.11
650.036	0.11
650.365	0.11
650.694	0.11
651.023	0.11
651.352	0.11
651.681	0.11
652.01	0.11
652.339	0.11
652.668	0.11
652.996	0.11
653.325	0.11
653.654	0.11
653.982	0.11
654.311	0.11
654.639	0.11
654.967	0.11
655.296	0.11
655.624	0.11
655.952	0.11
656.28	0.11
656.609	0.11
656.937	0.11
657.265	0.11
657.593	0
657.92	0
658.248	-0
658.576	0
658.904	-0
659.231	0.02
659.559	0.08
659.887	0.1
660.214	0.1
660.542	0.1
660.869	0.1
661.196	0.1
661.524	0.1
661.851	0.1
662.178	0.1
662.505	0.1
662.832	0.1
663.159	0.1
663.486	0.1
663.813	0.1
664.14	0.1
664.467	0.1
664.794	0.1
665.12	0.09
665.447	0.09
665.774	0.09
666.1	0.09
666.427	0.09
666.753	0.09
667.079	0.09
667.406	0.09
667.732	0.09
668.058	0.09
668.384	0.09
668.71	0.09
669.036	0.09
669.362	0.09
669.688	0.09
670.014	0.1
670.34	0.09
670.666	0.09
670.991	0.09
671.317	0.09
671.643	0.09
671.968	0.09
672.294	0.09
672.619	0.08
672.945	0.08
673.27	0.08
673.595	0.08
673.92	0.08
674.246	0.08
674.571	0.08
674.896	0.08
675.221	0.08
675.546	0.08
675.87	0.08
676.195	0.08
676.52	0.08
676.845	0.08
677.169	0.08
677.494	0.08
677.819	0.08
678.143	0.08
678.468	0.07
678.792	0.07
679.116	0.07
679.44	0.07
679.765	0.07
680.089	0.07
680.413	0.07
680.737	0.07
681.061	0.07
681.385	0.06
681.709	0.06
682.033	0.06
682.356	0.06
682.68	0.06
683.004	0.06
683.327	0.06
683.651	0.06
683.974	0.06
684.298	0.06
684.621	0.06
684.944	0.06
685.268	0.06
685.591	0.06
685.914	0.05
686.237	0.05
686.56	0.05
686.883	0.05
687.206	0.04
687.529	0.04
687.852	0.04
688.175	0.04
688.497	0.04
688.82	0.04
689.142	0.04
689.465	0.04
689.787	0.05
690.11	0.05
690.432	0.04
690.755	0.04
691.077	0.05
691.399	0.04
691.721	0.04
692.043	0.04
692.365	0.04
692.687	0.04
693.009	0.04
693.331	0.03
693.653	0.03
693.974	0.03
694.296	0.03
694.618	0.03
694.939	0.03
695.261	0.02
695.582	0.02
695.904	0.03
696.225	0.03
696.546	0.03
696.868	0.03
697.189	0.03
697.51	0.03
697.831	0.03
698.152	0.03
698.473	0.03
698.794	0.02
699.114	0.02
699.435	0.01
699.756	0.01
700.077	0.01
700.397	0.02
700.718	0.02
701.038	0.02
701.359	0.02
701.679	0.02
701.999	0.03
702.32	0.02
702.64	0.02
702.96	0.02
703.28	0.02
703.6	0.02
703.92	0.02
704.24	0.02
704.56	0.01
704.879	0.01
705.199	0.02
705.519	0.01
705.838	0.01
706.158	0.02
706.478	0.01
706.797	0.02
707.116	0.02
707.436	0.02
707.755	0.02
708.074	0.02
708.393	0.01
708.712	0.01
709.031	0
709.35	0
709.669	0
709.988	0
710.307	0.01
710.626	0.01
710.944	0.01
711.263	0.01
711.582	0.01
711.9	0.01
712.219	0.01
712.537	0.01
712.855	0.01
713.174	0.01
713.492	0.01
713.81	0.01
714.128	0.01
714.446	0.01
714.764	0.01
715.082	0.01
715.4	0.01
715.718	0.01
716.035	0.01
716.353	0.01
716.671	0.01
716.988	0.01
717.306	0
717.623	0.01
717.941	0.01
718.258	0.02
718.575	0.02
718.893	0.02
719.21	0.02
719.527	0.02
719.844	0.01
720.161	0.02
720.478	0.01
720.795	0.01
721.112	0.02
721.428	0.02
721.745	0.02
722.062	0.02
722.378	0.02
722.695	0.02
723.011	0.02
723.328	0.03
723.644	0.03
723.96	0.02
724.276	0.03
724.593	0.03
724.909	0.03
725.225	0.03
725.541	0.03
725.857	0.03
726.173	0.03
726.488	0.03
726.804	0.03
727.12	0.02
727.435	0.02
727.751	0.03
728.067	0.02
728.382	0.03
728.697	0.03
729.013	0.03
729.328	0.02
729.643	0.03
729.958	0.03
730.273	0.03
730.588	0.03
730.903	0.03
731.218	0.03
731.533	0.03
731.848	0.02
732.163	0.02
732.477	0.02
732.792	0.02
733.107	0.01
733.421	0.02
733.736	0.02
734.05	0.02
734.364	0.02
734.678	0.02
734.993	0.02
735.307	0.02
735.621	0.02
735.935	0.02
736.249	0.02
736.563	0.02
736.877	0.02
737.19	0.03
737.504	0.03
737.818	0.02
738.131	0.03
738.445	0.03
738.758	0.03
739.072	0.03
739.385	0.03
739.698	0.03
740.012	0.03
740.325	0.03
740.638	0.03
740.951	0.03
741.264	0.02
741.577	0.03
741.89	0.03
742.203	0.03
742.515	0.03
742.828	0.03
743.141	0.03
743.453	0.03
743.766	0.03
744.078	0.03
744.391	0.03
744.703	0.02
745.015	0.02
745.327	0.02
745.639	0.02
745.952	0.02
746.264	0.02
746.575	0.02
746.887	0.02
747.199	0.02
747.511	0.02
747.823	0.02
748.134	0.02
748.446	0.02
748.757	0.02
749.069	0.02
749.38	0.02
749.692	0.02
750.003	0.02
750.314	0.02
750.625	0.02
750.936	0.02
751.248	0.02
751.559	0.02
751.869	0.02
752.18	0.02
752.491	0.02
752.802	0.02
753.112	0.02
753.423	0.01
753.734	0.02
754.044	0.02
754.355	0.02
754.665	0.02
754.975	0.01
755.285	0.01
755.596	0.01
755.906	0.01
756.216	0.01
756.526	0.01
756.836	0.01
757.146	0.01
757.455	0.01
757.765	0.01
758.075	0.01
758.385	0.01
758.694	0.01
759.004	0.01
759.313	0.01
759.622	0.01
759.932	0.01
760.241	0.01
760.55	0.01
760.859	0.01
761.168	0.01
761.477	0.02
761.786	0.01
762.095	0.01
762.404	0.01
762.713	0.01
763.021	0.01
763.33	0.01
763.639	0.01
763.947	0.01
764.256	0.01
764.564	0.01
764.872	0.01
765.181	0.01
765.489	0.01
765.797	0.01
766.105	0.01
766.413	0.01
766.721	0.01
767.029	0.01
767.337	0.01
767.644	0.01
767.952	0.01
768.26	0.01
768.567	0.02
768.875	0.01
769.182	0.02
769.49	0.02
769.797	0.02
770.104	0.01
770.411	0.01
770.718	0.01
771.026	0.01
771.333	0.01
771.639	0.01
771.946	0.01
772.253	0.01
772.56	0.01
772.867	0.01
773.173	0.01
773.48	0.01
773.786	0.01
774.093	0.01
774.399	0.01
774.705	0.02
775.012	0.02
775.318	0.02
775.624	0.02
775.93	0.02
776.236	0.02
776.542	0.02
776.848	0.02
777.154	0.02
777.459	0.02
777.765	0.02
778.071	0.02
778.376	0.02
778.682	0.02
778.987	0.02
779.292	0.02
779.598	0.01
779.903	0.02
780.208	0.02
780.513	0.02
780.818	0.01
781.123	0.01
781.428	0.02
781.733	0.01
782.038	0.02
782.343	0.01
782.647	0.02
782.952	0.02
783.256	0.02
783.561	0.02
783.865	0.02
784.17	0.02
784.474	0.02
784.778	0.01
785.082	0.01
785.386	0.02
785.69	0.01
785.994	0.02
786.298	0.02
786.602	0.02
786.906	0.02
787.209	0.02
787.513	0.02
787.817	0.02
788.12	0.02
788.424	0.01
788.727	0.02
789.03	0.02
789.333	0.02
789.637	0.02
789.94	0.02
790.243	0.02
790.546	0.02
790.849	0.02
791.152	0.02
791.454	0.02
791.757	0.03
792.06	0.02
792.362	0.02
792.665	0.02
792.967	0.02
793.27	0.02
793.572	0.01
793.874	0.01
794.177	0.02
794.479	0.02
794.781	0.02
795.083	0.02
795.385	0.01
795.687	0.02
795.989	0.02
796.29	0.02
796.592	0.02
796.894	0.01
797.195	0.01
797.497	0.02
797.798	0.01
798.1	0.01
798.401	0.02
798.702	0.02
799.003	0.01
799.304	0.01
799.605	0.02
799.906	0.01
800.207	0.02
800.508	0.02
800.809	0.02
801.11	0.01
801.41	0.01
801.711	0.02
802.011	0.02
802.312	0.02
802.612	0.02
802.913	0.02
803.213	0.01
803.513	0.01
803.813	0.01
804.113	0.02
804.413	0.02
804.713	0.02
805.013	0.02
805.313	0.02
805.613	0.02
805.912	0.02
806.212	0.02
806.511	0.01
806.811	0.01
807.11	0.01
807.41	0.01
807.709	0.01
808.008	0.01
808.307	0.01
808.606	0.01
808.905	0.01
809.204	0.01
809.503	0.01
809.802	0.01
810.101	0.01
810.399	0.01
810.698	0.01
810.997	0.01
811.295	0.01
811.593	0.02
811.892	0.02
812.19	0.02
812.488	0.02
812.786	0.02
813.084	0.02
813.383	0.02
813.68	0.02
813.978	0.02
814.276	0.02
814.574	0.02
814.872	0.02
815.169	0.02
815.467	0.02
815.764	0.02
816.062	0.02
816.359	0.02
816.656	0.02
816.954	0.02
817.251	0.02
817.548	0.02
817.845	0.02
818.142	0.01
818.439	0.02
818.735	0.01
819.032	0.01
819.329	0.01
819.626	0.01
819.922	0.02
820.219	0.02
820.515	0.02
820.811	0.01
821.108	0.01
821.404	0.01
821.7	0.02
821.996	0.02
822.292	0.02
822.588	0.02
822.884	0.02
823.18	0.02
823.475	0.02
823.771	0.02
824.067	0.02
824.362	0.02
824.658	0.03
824.953	0.02
825.249	0.03
825.544	0.03
825.839	0.02
826.134	0.02
826.429	0.02
826.724	0.01
827.019	0.02
827.314	0.02
827.609	0.01
827.904	0.01
828.198	0.02
828.493	0.01
828.787	0.02
829.082	0.02
829.376	0.02
829.671	0.01
829.965	0.02
830.259	0.02
830.553	0.02
830.847	0.02
831.141	0.02
831.435	0.02
831.729	0.02
832.023	0.02
832.317	0.02
832.61	0.01
832.904	0.02
833.197	0.02
833.491	0.02
833.784	0.01
834.077	0.01
834.371	0.01
834.664	0.02
834.957	0.02
835.25	0.03
835.543	0.02
835.836	0.02
836.129	0.03
836.421	0.02
836.714	0.03
837.007	0.02
837.299	0.02
837.592	0.02
837.884	0.02
838.177	0.02
838.469	0.02
838.761	0.02
839.053	0.03
839.345	0.03
839.637	0.03
839.929	0.03
840.221	0.03
840.513	0.03
840.805	0.03
841.096	0.03
841.388	0.03
841.68	0.03
841.971	0.02
842.262	0.02
842.554	0.02
842.845	0.02
843.136	0.02
843.427	0.02
843.718	0.02
844.009	0.03
844.3	0.03
844.591	0.03
844.882	0.02
845.173	0.03
845.463	0.03
845.754	0.03
846.044	0.03
846.335	0.02
846.625	0.02
846.915	0.03
847.206	0.02
847.496	0.03
847.786	0.03
848.076	0.03
848.366	0.02
848.656	0.02
848.945	0.02
849.235	0.01
849.525	0.02
849.814	0.02
850.104	0.02
850.393	0.02
850.683	0.02
850.972	0.03
851.261	0.02
851.551	0.02
851.84	0.02
852.129	0.02
852.418	0.02
852.707	0.02
852.995	0.02
853.284	0.03
853.573	0.01
853.862	0.03
854.15	0.03
854.439	0.04
854.727	0.03
855.015	0.03
855.304	0.03
855.592	0.02
855.88	0.03
856.168	0.03
856.456	0.03
856.744	0.03
857.032	0.03
857.32	0.03
857.607	0.02
857.895	0.03
858.183	0.03
858.47	0.03
858.757	0.02
859.045	0.03
859.332	0.02
859.619	0.04
859.907	0.03
860.194	0.02
860.481	0.03
860.768	0.02
861.054	0.03
861.341	0.02
861.628	0.02
861.915	0.03
862.201	0.02
862.488	0.02
862.774	0.02
863.061	0.02
863.347	0.01
863.633	0.02
863.919	0.01
864.205	0.03
864.491	0.02
864.777	0.03
865.063	0.03
865.349	0.03
865.635	0.01
865.92	0.03
866.206	0.01
866.492	0.01
866.777	0.01
867.062	0.02
867.348	0.03
867.633	0.01
867.918	0.04
868.203	0.03
868.488	0.02
868.773	0.03
869.058	0.02
869.343	0.05
869.628	0.01
869.912	0.01
870.197	0.02
870.482	0.02
870.766	0.03
871.05	-0.01
871.335	-0.02
871.619	-0.01
871.903	0
872.187	0.03
872.471	0.03
872.755	-0
873.039	0.02
873.323	0.03
873.607	0
873.89	-0
874.174	-0.03
874.458	0.02
874.741	-0.01
875.024	0.04
875.308	0.01
875.591	0.06
875.874	-0.01
876.157	0.03
876.44	0.01
876.723	0.01
877.006	0.05
877.289	-0.01
877.572	0.03
877.854	-0.03
878.137	0.01
878.42	0.02
878.702	0.03
878.984	0.04
879.267	-0
879.549	-0.02
879.831	0.04
880.113	0
880.395	0.08
880.677	0
880.959	-0.02
