Data from Rubpy_BV_900_EDTA_Buffered_Absorbance_13-10-46-888.txt Node
Date: Wed Jul 01 13:10:46 BST 2026
User: fpm-admin
Spectrometer: OFX00224
Trigger mode: 0
Integration Time (sec): 7.000000E-2
Scans to average: 3
Nonlinearity correction enabled: false
Boxcar width: 0
Storing dark spectrum: false
XAxis mode: Wavelengths
Number of Pixels in Spectrum: 2136
>>>>>Begin Spectral Data<<<<<
154.91	-0
155.289	0.74
155.669	0.05
156.048	-0
156.428	-0.04
156.807	0.64
157.186	-0.03
157.566	-0
157.945	0.06
158.325	-0.3
158.704	-0.38
159.083	-0
159.462	0.56
159.842	0.56
160.221	-0
160.6	-0
160.979	0.17
161.359	-0
161.738	-0.32
162.117	-0.67
162.496	-0.02
162.875	-0.03
163.254	-0
163.633	-0
164.012	-0
164.391	-0
164.77	-0
165.149	0.16
165.528	-0.45
165.907	-1.29
166.286	-0.06
166.665	-0
167.044	-0
167.423	-0.35
167.802	0.14
168.181	-0
168.559	-0.19
168.938	-0
169.317	0.16
169.696	0.73
170.074	-0.27
170.453	-0.1
170.832	-0
171.21	-0
171.589	0.04
171.968	-0
172.346	-0
172.725	-0
173.103	0.29
173.482	-0
173.861	-0
174.239	-0
174.617	-0
174.996	0.54
175.374	-0
175.753	-0
176.131	-0
176.51	-0.14
176.888	-0
177.266	-0
177.645	-0.17
178.023	1.35
178.401	0.03
178.779	0.25
179.158	-0.9
179.536	-0.54
179.914	-0.28
180.292	-0
180.67	0.35
181.048	-0.44
181.427	0.43
181.805	-0
182.183	-0
182.561	-0
182.939	0.03
183.317	-0.7
183.695	-0
184.073	-0.57
184.451	0.12
184.829	-0
185.206	-0.9
185.584	-1
185.962	0.1
186.34	-0
186.718	-0
187.096	-1.26
187.473	-0
187.851	-0.25
188.229	-0.3
188.607	0.23
188.984	0.24
189.362	0.27
189.74	0.18
190.117	0.06
190.495	0.18
190.872	0.28
191.25	0.05
191.627	-0
192.005	0.17
192.382	0.16
192.76	0.08
193.137	0.27
193.515	0.13
193.892	0.24
194.269	0.24
194.647	0.12
195.024	0.11
195.401	-0.07
195.779	0.25
196.156	0.06
196.533	0.24
196.91	0.22
197.288	0.15
197.665	0.13
198.042	0.16
198.419	0.14
198.796	0.12
199.173	0.23
199.55	0.19
199.927	0.18
200.304	0.08
200.681	0.28
201.058	0.16
201.435	0.2
201.812	0.17
202.189	0.2
202.566	0.14
202.943	0.12
203.32	0.19
203.697	0.22
204.073	0.18
204.45	0.13
204.827	0.16
205.204	0.06
205.58	0.17
205.957	0.23
206.334	0.26
206.71	0.25
207.087	0.15
207.464	0.18
207.84	0.21
208.217	0.17
208.593	0.11
208.97	0.15
209.346	0.24
209.723	0.21
210.099	0.23
210.476	0.15
210.852	0.23
211.228	0.22
211.605	0.25
211.981	0.14
212.357	0.14
212.733	0.05
213.11	0.17
213.486	0.18
213.862	0.19
214.238	0.19
214.614	0.22
214.991	0.13
215.367	0.2
215.743	0.12
216.119	0.17
216.495	0.13
216.871	0.17
217.247	0.12
217.623	0.15
217.999	0.2
218.375	0.23
218.751	0.22
219.127	0.23
219.502	0.23
219.878	0.16
220.254	0.16
220.63	0.18
221.006	0.15
221.381	0.14
221.757	0.18
222.133	0.24
222.508	0.07
222.884	0.14
223.26	0.22
223.635	0.28
224.011	0.15
224.386	0.16
224.762	0.18
225.137	0.32
225.513	0.28
225.888	0.07
226.264	0.11
226.639	0.28
227.014	0.15
227.39	0.26
227.765	0.2
228.14	0.19
228.516	0.2
228.891	0.27
229.266	0.25
229.641	0.3
230.017	0.29
230.392	0.14
230.767	0.15
231.142	0.23
231.517	0.05
231.892	0.07
232.267	0.16
232.642	0.07
233.017	0.14
233.392	0.15
233.767	0.26
234.142	0.15
234.517	0.16
234.892	0.03
235.267	0.19
235.641	0.23
236.016	0.23
236.391	0.25
236.766	0.2
237.14	0.23
237.515	0.15
237.89	0.12
238.264	0.16
238.639	0.27
239.014	0.28
239.388	0.19
239.763	0.3
240.137	0.2
240.512	0.21
240.886	0.24
241.261	0.19
241.635	0.15
242.009	0.11
242.384	0.04
242.758	0.16
243.132	0.18
243.507	0.23
243.881	0.21
244.255	0.25
244.629	0.05
245.004	0.19
245.378	0.18
245.752	0.16
246.126	0.15
246.5	0.15
246.874	0.23
247.248	0.25
247.622	0.22
247.996	0.21
248.37	0.21
248.744	0.17
249.118	0.17
249.492	0.26
249.866	0.24
250.24	0.25
250.613	0.19
250.987	0.21
251.361	0.18
251.735	0.14
252.108	0.21
252.482	0.2
252.856	0.18
253.229	0.23
253.603	0.16
253.977	0.22
254.35	0.18
254.724	0.23
255.097	0.14
255.471	0.17
255.844	0.19
256.218	0.3
256.591	0.23
256.964	0.11
257.338	0.16
257.711	0.19
258.084	0.15
258.458	0.29
258.831	0.38
259.204	0.21
259.577	0.27
259.95	0.17
260.323	0.26
260.697	0.26
261.07	0.15
261.443	0.19
261.816	0.21
262.189	0.17
262.562	0.28
262.935	0.3
263.308	0.15
263.68	0.26
264.053	0.21
264.426	0.25
264.799	0.25
265.172	0.25
265.545	0.24
265.917	0.18
266.29	0.12
266.663	0.24
267.035	0.23
267.408	0.19
267.781	0.34
268.153	0.24
268.526	0.22
268.898	0.16
269.271	0.23
269.643	0.16
270.016	0.25
270.388	0.26
270.76	0.24
271.133	0.21
271.505	0.25
271.877	0.24
272.25	0.15
272.622	0.22
272.994	0.19
273.366	0.18
273.739	0.19
274.111	0.18
274.483	0.2
274.855	0.24
275.227	0.17
275.599	0.21
275.971	0.23
276.343	0.18
276.715	0.24
277.087	0.19
277.459	0.21
277.831	0.26
278.203	0.2
278.574	0.28
278.946	0.24
279.318	0.24
279.69	0.23
280.061	0.23
280.433	0.09
280.805	0.16
281.176	0.25
281.548	0.2
281.92	0.2
282.291	0.25
282.663	0.2
283.034	0.17
283.406	0.24
283.777	0.29
284.148	0.25
284.52	0.36
284.891	0.27
285.262	0.32
285.634	0.22
286.005	0.24
286.376	0.15
286.747	0.24
287.119	0.31
287.49	0.21
287.861	0.28
288.232	0.22
288.603	0.19
288.974	0.3
289.345	0.25
289.716	0.2
290.087	0.23
290.458	0.18
290.829	0.28
291.2	0.17
291.571	0.2
291.941	0.27
292.312	0.26
292.683	0.23
293.054	0.24
293.424	0.22
293.795	0.23
294.166	0.24
294.536	0.18
294.907	0.19
295.277	0.23
295.648	0.21
296.018	0.23
296.389	0.2
296.759	0.24
297.13	0.24
297.5	0.25
297.871	0.23
298.241	0.24
298.611	0.19
298.981	0.24
299.352	0.19
299.722	0.19
300.092	0.26
300.462	0.26
300.832	0.24
301.202	0.24
301.573	0.2
301.943	0.23
302.313	0.17
302.683	0.21
303.053	0.21
303.422	0.14
303.792	0.17
304.162	0.14
304.532	0.15
304.902	0.18
305.272	0.15
305.641	0.11
306.011	0.16
306.381	0.13
306.75	0.11
307.12	0.13
307.49	0.12
307.859	0.13
308.229	0.11
308.598	0.12
308.968	0.12
309.337	0.13
309.707	0.14
310.076	0.11
310.445	0.14
310.815	0.13
311.184	0.13
311.553	0.14
311.923	0.13
312.292	0.14
312.661	0.15
313.03	0.14
313.399	0.14
313.768	0.16
314.137	0.14
314.506	0.15
314.875	0.15
315.244	0.16
315.613	0.16
315.982	0.16
316.351	0.19
316.72	0.17
317.089	0.17
317.458	0.18
317.826	0.17
318.195	0.19
318.564	0.18
318.933	0.19
319.301	0.19
319.67	0.19
320.038	0.19
320.407	0.21
320.775	0.2
321.144	0.2
321.512	0.2
321.881	0.21
322.249	0.21
322.618	0.21
322.986	0.21
323.354	0.21
323.723	0.22
324.091	0.22
324.459	0.23
324.827	0.23
325.195	0.23
325.564	0.24
325.932	0.24
326.3	0.25
326.668	0.25
327.036	0.25
327.404	0.26
327.772	0.26
328.14	0.27
328.508	0.27
328.875	0.28
329.243	0.27
329.611	0.27
329.979	0.29
330.346	0.29
330.714	0.29
331.082	0.29
331.449	0.3
331.817	0.31
332.185	0.31
332.552	0.32
332.92	0.32
333.287	0.32
333.655	0.33
334.022	0.34
334.389	0.34
334.757	0.35
335.124	0.35
335.491	0.36
335.859	0.37
336.226	0.38
336.593	0.38
336.96	0.39
337.327	0.4
337.695	0.41
338.062	0.41
338.429	0.42
338.796	0.43
339.163	0.44
339.53	0.44
339.897	0.45
340.263	0.46
340.63	0.47
340.997	0.48
341.364	0.48
341.731	0.49
342.097	0.49
342.464	0.51
342.831	0.52
343.197	0.52
343.564	0.53
343.931	0.54
344.297	0.55
344.664	0.55
345.03	0.56
345.396	0.57
345.763	0.58
346.129	0.59
346.496	0.6
346.862	0.6
347.228	0.61
347.594	0.62
347.961	0.63
348.327	0.64
348.693	0.65
349.059	0.66
349.425	0.66
349.791	0.67
350.157	0.67
350.523	0.68
350.889	0.69
351.255	0.7
351.621	0.71
351.987	0.72
352.353	0.73
352.719	0.74
353.084	0.75
353.45	0.76
353.816	0.75
354.181	0.77
354.547	0.77
354.913	0.79
355.278	0.8
355.644	0.8
356.009	0.82
356.375	0.82
356.74	0.83
357.106	0.85
357.471	0.86
357.836	0.86
358.202	0.88
358.567	0.89
358.932	0.9
359.297	0.91
359.663	0.92
360.028	0.94
360.393	0.95
360.758	0.96
361.123	0.97
361.488	1
361.853	0.99
362.218	1.03
362.583	1.02
362.948	1.05
363.312	1.06
363.677	1.06
364.042	1.09
364.407	1.08
364.772	1.11
365.136	1.11
365.501	1.12
365.865	1.13
366.23	1.13
366.595	1.14
366.959	1.16
367.324	1.16
367.688	1.18
368.052	1.18
368.417	1.21
368.781	1.2
369.145	1.21
369.51	1.21
369.874	1.23
370.238	1.23
370.602	1.24
370.967	1.25
371.331	1.26
371.695	1.26
372.059	1.26
372.423	1.25
372.787	1.26
373.151	1.24
373.515	1.24
373.878	1.27
374.242	1.24
374.606	1.23
374.97	1.23
375.334	1.22
375.697	1.23
376.061	1.2
376.425	1.18
376.788	1.17
377.152	1.17
377.515	1.17
377.879	1.15
378.242	1.14
378.606	1.13
378.969	1.11
379.333	1.1
379.696	1.08
380.059	1.08
380.422	1.06
380.786	1.04
381.149	1.03
381.512	1.02
381.875	1.01
382.238	1.01
382.601	1
382.964	0.98
383.327	0.98
383.69	0.96
384.053	0.94
384.416	0.95
384.779	0.92
385.142	0.93
385.504	0.92
385.867	0.92
386.23	0.91
386.593	0.9
386.955	0.91
387.318	0.91
387.68	0.9
388.043	0.9
388.405	0.9
388.768	0.9
389.13	0.9
389.493	0.89
389.855	0.88
390.217	0.88
390.58	0.87
390.942	0.87
391.304	0.85
391.666	0.85
392.028	0.83
392.391	0.83
392.753	0.82
393.115	0.8
393.477	0.79
393.839	0.79
394.201	0.78
394.563	0.77
394.924	0.77
395.286	0.77
395.648	0.78
396.01	0.78
396.371	0.8
396.733	0.8
397.095	0.81
397.456	0.83
397.818	0.84
398.18	0.87
398.541	0.88
398.903	0.89
399.264	0.91
399.625	0.94
399.987	0.96
400.348	0.98
400.709	0.99
401.071	1
401.432	1
401.793	1.01
402.154	1
402.515	0.98
402.876	0.97
403.238	0.96
403.599	0.93
403.96	0.9
404.32	0.87
404.681	0.84
405.042	0.81
405.403	0.78
405.764	0.73
406.125	0.71
406.485	0.67
406.846	0.63
407.207	0.6
407.567	0.57
407.928	0.53
408.288	0.51
408.649	0.48
409.009	0.45
409.37	0.43
409.73	0.41
410.091	0.39
410.451	0.36
410.811	0.34
411.171	0.33
411.532	0.31
411.892	0.29
412.252	0.28
412.612	0.27
412.972	0.26
413.332	0.25
413.692	0.24
414.052	0.22
414.412	0.22
414.772	0.21
415.132	0.2
415.492	0.19
415.851	0.19
416.211	0.19
416.571	0.18
416.931	0.17
417.29	0.16
417.65	0.15
418.009	0.16
418.369	0.16
418.728	0.15
419.088	0.15
419.447	0.15
419.807	0.14
420.166	0.14
420.525	0.13
420.884	0.13
421.244	0.13
421.603	0.12
421.962	0.13
422.321	0.12
422.68	0.12
423.039	0.11
423.398	0.12
423.757	0.12
424.116	0.12
424.475	0.11
424.834	0.11
425.193	0.11
425.551	0.11
425.91	0.1
426.269	0.1
426.628	0.1
426.986	0.11
427.345	0.11
427.703	0.1
428.062	0.11
428.42	0.1
428.779	0.09
429.137	0.1
429.496	0.1
429.854	0.1
430.212	0.1
430.57	0.1
430.929	0.1
431.287	0.1
431.645	0.09
432.003	0.09
432.361	0.09
432.719	0.08
433.077	0.09
433.435	0.09
433.793	0.09
434.151	0.09
434.509	0.09
434.866	0.09
435.224	0.09
435.582	0.09
435.94	0.09
436.297	0.08
436.655	0.09
437.012	0.09
437.37	0.1
437.727	0.09
438.085	0.09
438.442	0.09
438.8	0.09
439.157	0.09
439.514	0.1
439.872	0.1
440.229	0.1
440.586	0.09
440.943	0.09
441.3	0.08
441.657	0.1
442.014	0.1
442.371	0.08
442.728	0.09
443.085	0.09
443.442	0.1
443.799	0.09
444.156	0.1
444.513	0.09
444.869	0.1
445.226	0.1
445.583	0.1
445.939	0.1
446.296	0.1
446.652	0.11
447.009	0.1
447.365	0.09
447.722	0.1
448.078	0.09
448.434	0.09
448.791	0.1
449.147	0.1
449.503	0.1
449.859	0.09
450.215	0.1
450.571	0.1
450.928	0.1
451.284	0.09
451.64	0.1
451.995	0.1
452.351	0.1
452.707	0.11
453.063	0.1
453.419	0.11
453.775	0.11
454.13	0.11
454.486	0.1
454.842	0.11
455.197	0.11
455.553	0.1
455.908	0.11
456.264	0.11
456.619	0.12
456.975	0.12
457.33	0.12
457.685	0.12
458.04	0.12
458.396	0.11
458.751	0.11
459.106	0.12
459.461	0.11
459.816	0.12
460.171	0.12
460.526	0.11
460.881	0.12
461.236	0.12
461.591	0.12
461.946	0.11
462.301	0.11
462.655	0.12
463.01	0.12
463.365	0.13
463.719	0.12
464.074	0.13
464.428	0.13
464.783	0.12
465.137	0.12
465.492	0.13
465.846	0.13
466.201	0.14
466.555	0.13
466.909	0.15
467.263	0.14
467.618	0.14
467.972	0.14
468.326	0.14
468.68	0.14
469.034	0.14
469.388	0.14
469.742	0.15
470.096	0.15
470.45	0.15
470.804	0.15
471.157	0.16
471.511	0.15
471.865	0.16
472.218	0.16
472.572	0.17
472.926	0.17
473.279	0.16
473.633	0.17
473.986	0.17
474.34	0.18
474.693	0.18
475.046	0.18
475.4	0.18
475.753	0.18
476.106	0.19
476.459	0.18
476.812	0.19
477.165	0.2
477.519	0.2
477.872	0.2
478.224	0.2
478.577	0.2
478.93	0.21
479.283	0.21
479.636	0.22
479.989	0.22
480.341	0.22
480.694	0.22
481.047	0.22
481.399	0.22
481.752	0.23
482.104	0.23
482.457	0.23
482.809	0.23
483.162	0.24
483.514	0.24
483.866	0.24
484.219	0.25
484.571	0.24
484.923	0.25
485.275	0.26
485.627	0.25
485.979	0.26
486.331	0.26
486.683	0.26
487.035	0.27
487.387	0.27
487.739	0.27
488.091	0.27
488.443	0.27
488.794	0.27
489.146	0.28
489.498	0.28
489.849	0.28
490.201	0.29
490.552	0.29
490.904	0.29
491.255	0.29
491.607	0.29
491.958	0.3
492.309	0.3
492.661	0.31
493.012	0.31
493.363	0.31
493.714	0.31
494.065	0.31
494.416	0.31
494.767	0.32
495.118	0.31
495.469	0.32
495.82	0.32
496.171	0.33
496.522	0.33
496.872	0.34
497.223	0.33
497.574	0.34
497.924	0.35
498.275	0.34
498.626	0.35
498.976	0.35
499.327	0.35
499.677	0.35
500.027	0.36
500.378	0.36
500.728	0.36
501.078	0.36
501.428	0.36
501.779	0.37
502.129	0.37
502.479	0.37
502.829	0.37
503.179	0.37
503.529	0.38
503.879	0.38
504.229	0.39
504.578	0.39
504.928	0.39
505.278	0.39
505.628	0.39
505.977	0.4
506.327	0.4
506.676	0.4
507.026	0.4
507.375	0.4
507.725	0.41
508.074	0.41
508.424	0.41
508.773	0.42
509.122	0.42
509.471	0.42
509.82	0.42
510.17	0.42
510.519	0.43
510.868	0.44
511.217	0.43
511.566	0.44
511.915	0.43
512.263	0.44
512.612	0.44
512.961	0.45
513.31	0.45
513.659	0.45
514.007	0.45
514.356	0.45
514.704	0.45
515.053	0.46
515.401	0.45
515.75	0.46
516.098	0.46
516.447	0.47
516.795	0.47
517.143	0.47
517.491	0.47
517.839	0.48
518.188	0.48
518.536	0.48
518.884	0.48
519.232	0.48
519.58	0.48
519.928	0.49
520.275	0.48
520.623	0.48
520.971	0.49
521.319	0.5
521.666	0.49
522.014	0.49
522.362	0.49
522.709	0.5
523.057	0.5
523.404	0.5
523.752	0.51
524.099	0.51
524.446	0.5
524.794	0.51
525.141	0.51
525.488	0.51
525.835	0.51
526.182	0.51
526.529	0.52
526.876	0.52
527.223	0.52
527.57	0.52
527.917	0.52
528.264	0.52
528.611	0.53
528.958	0.52
529.304	0.53
529.651	0.53
529.998	0.53
530.344	0.53
530.691	0.54
531.037	0.54
531.384	0.54
531.73	0.54
532.076	0.54
532.423	0.54
532.769	0.54
533.115	0.55
533.461	0.55
533.807	0.55
534.154	0.54
534.5	0.55
534.846	0.55
535.192	0.55
535.537	0.55
535.883	0.55
536.229	0.55
536.575	0.55
536.921	0.56
537.266	0.56
537.612	0.56
537.957	0.55
538.303	0.56
538.649	0.56
538.994	0.56
539.339	0.57
539.685	0.57
540.03	0.56
540.375	0.56
540.721	0.57
541.066	0.57
541.411	0.57
541.756	0.57
542.101	0.57
542.446	0.57
542.791	0.57
543.136	0.57
543.481	0.57
543.825	0.57
544.17	0.57
544.515	0.57
544.86	0.57
545.204	0.58
545.549	0.58
545.893	0.58
546.238	0.58
546.582	0.58
546.927	0.58
547.271	0.58
547.615	0.58
547.96	0.58
548.304	0.58
548.648	0.58
548.992	0.58
549.336	0.58
549.68	0.59
550.024	0.58
550.368	0.58
550.712	0.59
551.056	0.58
551.4	0.58
551.743	0.59
552.087	0.58
552.431	0.58
552.774	0.58
553.118	0.58
553.462	0.58
553.805	0.59
554.148	0.58
554.492	0.59
554.835	0.58
555.178	0.58
555.522	0.58
555.865	0.58
556.208	0.58
556.551	0.58
556.894	0.58
557.237	0.59
557.58	0.58
557.923	0.58
558.266	0.58
558.609	0.58
558.952	0.58
559.294	0.58
559.637	0.58
559.98	0.58
560.322	0.58
560.665	0.58
561.007	0.58
561.35	0.58
561.692	0.58
562.034	0.58
562.377	0.58
562.719	0.58
563.061	0.58
563.403	0.58
563.745	0.57
564.088	0.58
564.43	0.58
564.772	0.57
565.113	0.57
565.455	0.57
565.797	0.57
566.139	0.57
566.481	0.57
566.822	0.57
567.164	0.57
567.506	0.56
567.847	0.57
568.189	0.56
568.53	0.56
568.872	0.57
569.213	0.57
569.554	0.56
569.895	0.56
570.237	0.56
570.578	0.56
570.919	0.56
571.26	0.56
571.601	0.55
571.942	0.55
572.283	0.55
572.624	0.55
572.965	0.54
573.306	0.54
573.646	0.54
573.987	0.54
574.328	0.54
574.668	0.55
575.009	0.54
575.349	0.54
575.69	0.53
576.03	0.53
576.37	0.53
576.711	0.52
577.051	0.52
577.391	0.52
577.731	0.53
578.072	0.53
578.412	0.53
578.752	0.53
579.092	0.52
579.431	0.49
579.771	0.47
580.111	0.46
580.451	0.47
580.791	0.5
581.13	0.51
581.47	0.51
581.81	0.51
582.149	0.51
582.489	0.51
582.828	0.49
583.167	0.46
583.507	0.42
583.846	0.4
584.185	0.43
584.525	0.45
584.864	0.48
585.203	0.5
585.542	0.51
585.881	0.51
586.22	0.51
586.559	0.5
586.898	0.48
587.236	0.46
587.575	0.46
587.914	0.47
588.252	0.49
588.591	0.49
588.93	0.5
589.268	0.49
589.607	0.49
589.945	0.49
590.283	0.49
590.622	0.49
590.96	0.5
591.298	0.51
591.636	0.51
591.974	0.5
592.313	0.51
592.651	0.51
592.989	0.51
593.326	0.51
593.664	0.51
594.002	0.51
594.34	0.5
594.678	0.5
595.015	0.48
595.353	0.47
595.691	0.48
596.028	0.5
596.366	0.5
596.703	0.5
597.04	0.5
597.378	0.5
597.715	0.51
598.052	0.51
598.389	0.51
598.726	0.51
599.064	0.51
599.401	0.51
599.738	0.5
600.074	0.51
600.411	0.5
600.748	0.5
601.085	0.49
601.422	0.48
601.758	0.48
602.095	0.48
602.432	0.48
602.768	0.49
603.105	0.49
603.441	0.5
603.777	0.5
604.114	0.5
604.45	0.5
604.786	0.5
605.122	0.49
605.459	0.49
605.795	0.49
606.131	0.49
606.467	0.49
606.803	0.49
607.139	0.49
607.474	0.48
607.81	0.48
608.146	0.48
608.482	0.48
608.817	0.48
609.153	0.48
609.488	0.47
609.824	0.48
610.159	0.48
610.495	0.48
610.83	0.48
611.165	0.48
611.5	0.48
611.836	0.48
612.171	0.47
612.506	0.47
612.841	0.47
613.176	0.47
613.511	0.47
613.845	0.47
614.18	0.46
614.515	0.47
614.85	0.47
615.184	0.46
615.519	0.46
615.854	0.46
616.188	0.46
616.523	0.46
616.857	0.45
617.191	0.45
617.526	0.45
617.86	0.45
618.194	0.44
618.528	0.45
618.862	0.45
619.196	0.45
619.53	0.44
619.864	0.44
620.198	0.44
620.532	0.44
620.866	0.44
621.2	0.44
621.533	0.44
621.867	0.44
622.201	0.43
622.534	0.43
622.868	0.43
623.201	0.43
623.534	0.42
623.868	0.42
624.201	0.42
624.534	0.42
624.868	0.42
625.201	0.41
625.534	0.42
625.867	0.41
626.2	0.41
626.533	0.41
626.865	0.41
627.198	0.41
627.531	0.41
627.864	0.4
628.196	0.4
628.529	0.4
628.862	0.4
629.194	0.4
629.527	0.39
629.859	0.39
630.191	0.39
630.524	0.38
630.856	0.38
631.188	0.38
631.52	0.38
631.852	0.37
632.184	0.37
632.516	0.37
632.848	0.37
633.18	0.37
633.512	0.37
633.844	0.36
634.175	0.36
634.507	0.36
634.839	0.36
635.17	0.35
635.502	0.35
635.833	0.35
636.165	0.35
636.496	0.35
636.827	0.35
637.159	0.34
637.49	0.34
637.821	0.34
638.152	0.34
638.483	0.33
638.814	0.33
639.145	0.33
639.476	0.33
639.807	0.33
640.137	0.32
640.468	0.32
640.799	0.32
641.129	0.31
641.46	0.31
641.791	0.31
642.121	0.31
642.451	0.31
642.782	0.3
643.112	0.3
643.442	0.3
643.773	0.3
644.103	0.3
644.433	0.3
644.763	0.29
645.093	0.29
645.423	0.29
645.753	0.29
646.082	0.29
646.412	0.28
646.742	0.28
647.072	0.28
647.401	0.28
647.731	0.28
648.06	0.28
648.39	0.28
648.719	0.28
649.048	0.28
649.378	0.27
649.707	0.27
650.036	0.27
650.365	0.27
650.694	0.27
651.023	0.27
651.352	0.27
651.681	0.27
652.01	0.27
652.339	0.27
652.668	0.26
652.996	0.27
653.325	0.26
653.654	0.26
653.982	0.26
654.311	0.26
654.639	0.26
654.967	0.26
655.296	0.26
655.624	0.26
655.952	0.26
656.28	0.26
656.609	0.26
656.937	0.26
657.265	0.26
657.593	0.13
657.92	0.03
658.248	0
658.576	0.01
658.904	0.08
659.231	0.15
659.559	0.22
659.887	0.24
660.214	0.24
660.542	0.24
660.869	0.24
661.196	0.24
661.524	0.24
661.851	0.24
662.178	0.24
662.505	0.24
662.832	0.24
663.159	0.24
663.486	0.23
663.813	0.24
664.14	0.23
664.467	0.23
664.794	0.23
665.12	0.23
665.447	0.23
665.774	0.23
666.1	0.22
666.427	0.22
666.753	0.23
667.079	0.22
667.406	0.22
667.732	0.22
668.058	0.22
668.384	0.22
668.71	0.22
669.036	0.22
669.362	0.22
669.688	0.22
670.014	0.22
670.34	0.21
670.666	0.21
670.991	0.21
671.317	0.21
671.643	0.21
671.968	0.21
672.294	0.2
672.619	0.2
672.945	0.2
673.27	0.2
673.595	0.19
673.92	0.19
674.246	0.19
674.571	0.19
674.896	0.19
675.221	0.19
675.546	0.19
675.87	0.19
676.195	0.18
676.52	0.18
676.845	0.18
677.169	0.18
677.494	0.18
677.819	0.18
678.143	0.18
678.468	0.17
678.792	0.17
679.116	0.17
679.44	0.17
679.765	0.17
680.089	0.16
680.413	0.16
680.737	0.16
681.061	0.16
681.385	0.16
681.709	0.15
682.033	0.15
682.356	0.15
682.68	0.15
683.004	0.15
683.327	0.14
683.651	0.14
683.974	0.14
684.298	0.14
684.621	0.14
684.944	0.14
685.268	0.14
685.591	0.14
685.914	0.13
686.237	0.13
686.56	0.13
686.883	0.12
687.206	0.11
687.529	0.11
687.852	0.11
688.175	0.11
688.497	0.11
688.82	0.11
689.142	0.11
689.465	0.11
689.787	0.11
690.11	0.11
690.432	0.11
690.755	0.11
691.077	0.11
691.399	0.1
691.721	0.1
692.043	0.1
692.365	0.1
692.687	0.1
693.009	0.09
693.331	0.09
693.653	0.08
693.974	0.09
694.296	0.08
694.618	0.08
694.939	0.08
695.261	0.08
695.582	0.08
695.904	0.08
696.225	0.09
696.546	0.09
696.868	0.09
697.189	0.08
697.51	0.08
697.831	0.08
698.152	0.08
698.473	0.08
698.794	0.07
699.114	0.06
699.435	0.05
699.756	0.05
700.077	0.06
700.397	0.06
700.718	0.07
701.038	0.07
701.359	0.07
701.679	0.07
701.999	0.07
702.32	0.07
702.64	0.07
702.96	0.07
703.28	0.07
703.6	0.07
703.92	0.06
704.24	0.06
704.56	0.05
704.879	0.05
705.199	0.06
705.519	0.06
705.838	0.06
706.158	0.06
706.478	0.06
706.797	0.06
707.116	0.06
707.436	0.06
707.755	0.06
708.074	0.06
708.393	0.05
708.712	0.04
709.031	0.03
709.35	0.03
709.669	0.03
709.988	0.03
710.307	0.04
710.626	0.04
710.944	0.04
711.263	0.05
711.582	0.05
711.9	0.05
712.219	0.04
712.537	0.05
712.855	0.05
713.174	0.05
713.492	0.04
713.81	0.05
714.128	0.05
714.446	0.05
714.764	0.04
715.082	0.04
715.4	0.04
715.718	0.04
716.035	0.04
716.353	0.04
716.671	0.04
716.988	0.04
717.306	0.04
717.623	0.04
717.941	0.05
718.258	0.06
718.575	0.06
718.893	0.06
719.21	0.05
719.527	0.06
719.844	0.05
720.161	0.06
720.478	0.05
720.795	0.05
721.112	0.06
721.428	0.06
721.745	0.06
722.062	0.06
722.378	0.06
722.695	0.06
723.011	0.06
723.328	0.06
723.644	0.07
723.96	0.07
724.276	0.07
724.593	0.07
724.909	0.07
725.225	0.07
725.541	0.07
725.857	0.07
726.173	0.07
726.488	0.07
726.804	0.07
727.12	0.07
727.435	0.07
727.751	0.07
728.067	0.07
728.382	0.07
728.697	0.07
729.013	0.07
729.328	0.06
729.643	0.07
729.958	0.07
730.273	0.07
730.588	0.07
730.903	0.07
731.218	0.07
731.533	0.07
731.848	0.07
732.163	0.07
732.477	0.06
732.792	0.06
733.107	0.05
733.421	0.06
733.736	0.06
734.05	0.06
734.364	0.06
734.678	0.07
734.993	0.06
735.307	0.06
735.621	0.06
735.935	0.06
736.249	0.06
736.563	0.06
736.877	0.06
737.19	0.07
737.504	0.06
737.818	0.06
738.131	0.06
738.445	0.07
738.758	0.06
739.072	0.06
739.385	0.07
739.698	0.06
740.012	0.07
740.325	0.07
740.638	0.07
740.951	0.06
741.264	0.06
741.577	0.06
741.89	0.06
742.203	0.06
742.515	0.06
742.828	0.07
743.141	0.06
743.453	0.06
743.766	0.06
744.078	0.06
744.391	0.06
744.703	0.06
745.015	0.06
745.327	0.06
745.639	0.06
745.952	0.05
746.264	0.06
746.575	0.06
746.887	0.05
747.199	0.05
747.511	0.05
747.823	0.05
748.134	0.05
748.446	0.05
748.757	0.05
749.069	0.05
749.38	0.05
749.692	0.05
750.003	0.05
750.314	0.05
750.625	0.05
750.936	0.05
751.248	0.04
751.559	0.05
751.869	0.04
752.18	0.05
752.491	0.04
752.802	0.04
753.112	0.04
753.423	0.04
753.734	0.04
754.044	0.04
754.355	0.04
754.665	0.04
754.975	0.04
755.285	0.04
755.596	0.04
755.906	0.04
756.216	0.03
756.526	0.04
756.836	0.04
757.146	0.04
757.455	0.04
757.765	0.03
758.075	0.03
758.385	0.03
758.694	0.03
759.004	0.03
759.313	0.02
759.622	0.03
759.932	0.03
760.241	0.03
760.55	0.03
760.859	0.03
761.168	0.03
761.477	0.03
761.786	0.03
762.095	0.03
762.404	0.03
762.713	0.03
763.021	0.03
763.33	0.03
763.639	0.03
763.947	0.03
764.256	0.03
764.564	0.04
764.872	0.03
765.181	0.03
765.489	0.03
765.797	0.03
766.105	0.03
766.413	0.03
766.721	0.03
767.029	0.03
767.337	0.03
767.644	0.03
767.952	0.03
768.26	0.03
768.567	0.04
768.875	0.04
769.182	0.04
769.49	0.04
769.797	0.04
770.104	0.03
770.411	0.03
770.718	0.03
771.026	0.03
771.333	0.03
771.639	0.03
771.946	0.03
772.253	0.03
772.56	0.03
772.867	0.03
773.173	0.03
773.48	0.03
773.786	0.04
774.093	0.03
774.399	0.04
774.705	0.04
775.012	0.04
775.318	0.04
775.624	0.04
775.93	0.04
776.236	0.04
776.542	0.04
776.848	0.04
777.154	0.04
777.459	0.04
777.765	0.04
778.071	0.04
778.376	0.04
778.682	0.04
778.987	0.04
779.292	0.04
779.598	0.04
779.903	0.04
780.208	0.04
780.513	0.04
780.818	0.04
781.123	0.04
781.428	0.04
781.733	0.04
782.038	0.04
782.343	0.04
782.647	0.04
782.952	0.04
783.256	0.04
783.561	0.04
783.865	0.04
784.17	0.04
784.474	0.04
784.778	0.04
785.082	0.04
785.386	0.04
785.69	0.04
785.994	0.04
786.298	0.04
786.602	0.04
786.906	0.04
787.209	0.04
787.513	0.04
787.817	0.04
788.12	0.04
788.424	0.04
788.727	0.04
789.03	0.04
789.333	0.05
789.637	0.05
789.94	0.05
790.243	0.05
790.546	0.05
790.849	0.05
791.152	0.05
791.454	0.05
791.757	0.05
792.06	0.05
792.362	0.05
792.665	0.05
792.967	0.05
793.27	0.05
793.572	0.04
793.874	0.04
794.177	0.05
794.479	0.05
794.781	0.05
795.083	0.04
795.385	0.05
795.687	0.05
795.989	0.04
796.29	0.05
796.592	0.05
796.894	0.04
797.195	0.04
797.497	0.04
797.798	0.04
798.1	0.04
798.401	0.05
798.702	0.05
799.003	0.04
799.304	0.05
799.605	0.05
799.906	0.05
800.207	0.05
800.508	0.05
800.809	0.05
801.11	0.05
801.41	0.05
801.711	0.05
802.011	0.05
802.312	0.05
802.612	0.05
802.913	0.05
803.213	0.05
803.513	0.05
803.813	0.05
804.113	0.05
804.413	0.05
804.713	0.05
805.013	0.05
805.313	0.05
805.613	0.05
805.912	0.05
806.212	0.04
806.511	0.04
806.811	0.05
807.11	0.04
807.41	0.04
807.709	0.05
808.008	0.04
808.307	0.04
808.606	0.04
808.905	0.05
809.204	0.04
809.503	0.05
809.802	0.05
810.101	0.05
810.399	0.05
810.698	0.05
810.997	0.05
811.295	0.05
811.593	0.05
811.892	0.05
812.19	0.05
812.488	0.05
812.786	0.06
813.084	0.06
813.383	0.06
813.68	0.05
813.978	0.06
814.276	0.06
814.574	0.05
814.872	0.06
815.169	0.06
815.467	0.06
815.764	0.05
816.062	0.05
816.359	0.06
816.656	0.06
816.954	0.06
817.251	0.05
817.548	0.06
817.845	0.06
818.142	0.05
818.439	0.05
818.735	0.05
819.032	0.05
819.329	0.05
819.626	0.05
819.922	0.05
820.219	0.06
820.515	0.06
820.811	0.05
821.108	0.05
821.404	0.05
821.7	0.06
821.996	0.06
822.292	0.06
822.588	0.06
822.884	0.06
823.18	0.07
823.475	0.07
823.771	0.07
824.067	0.06
824.362	0.06
824.658	0.07
824.953	0.07
825.249	0.07
825.544	0.07
825.839	0.07
826.134	0.06
826.429	0.07
826.724	0.06
827.019	0.06
827.314	0.06
827.609	0.06
827.904	0.06
828.198	0.06
828.493	0.06
828.787	0.06
829.082	0.06
829.376	0.06
829.671	0.06
829.965	0.06
830.259	0.07
830.553	0.06
830.847	0.07
831.141	0.07
831.435	0.07
831.729	0.06
832.023	0.06
832.317	0.07
832.61	0.06
832.904	0.06
833.197	0.06
833.491	0.06
833.784	0.05
834.077	0.06
834.371	0.06
834.664	0.07
834.957	0.07
835.25	0.07
835.543	0.07
835.836	0.07
836.129	0.08
836.421	0.07
836.714	0.07
837.007	0.07
837.299	0.07
837.592	0.07
837.884	0.07
838.177	0.06
838.469	0.07
838.761	0.07
839.053	0.07
839.345	0.07
839.637	0.08
839.929	0.08
840.221	0.08
840.513	0.08
840.805	0.08
841.096	0.08
841.388	0.08
841.68	0.08
841.971	0.07
842.262	0.07
842.554	0.08
842.845	0.07
843.136	0.08
843.427	0.07
843.718	0.08
844.009	0.09
844.3	0.09
844.591	0.08
844.882	0.08
845.173	0.09
845.463	0.08
845.754	0.08
846.044	0.08
846.335	0.09
846.625	0.07
846.915	0.08
847.206	0.07
847.496	0.09
847.786	0.08
848.076	0.09
848.366	0.08
848.656	0.08
848.945	0.08
849.235	0.08
849.525	0.07
849.814	0.09
850.104	0.08
850.393	0.08
850.683	0.08
850.972	0.09
851.261	0.09
851.551	0.08
851.84	0.08
852.129	0.09
852.418	0.08
852.707	0.09
852.995	0.08
853.284	0.09
853.573	0.08
853.862	0.08
854.15	0.09
854.439	0.1
854.727	0.1
855.015	0.09
855.304	0.09
855.592	0.09
855.88	0.1
856.168	0.09
856.456	0.09
856.744	0.09
857.032	0.09
857.32	0.09
857.607	0.09
857.895	0.09
858.183	0.1
858.47	0.08
858.757	0.08
859.045	0.09
859.332	0.08
859.619	0.09
859.907	0.1
860.194	0.1
860.481	0.09
860.768	0.08
861.054	0.08
861.341	0.1
861.628	0.09
861.915	0.1
862.201	0.1
862.488	0.09
862.774	0.11
863.061	0.08
863.347	0.09
863.633	0.09
863.919	0.09
864.205	0.1
864.491	0.09
864.777	0.08
865.063	0.1
865.349	0.09
865.635	0.1
865.92	0.09
866.206	0.07
866.492	0.07
866.777	0.08
867.062	0.09
867.348	0.09
867.633	0.06
867.918	0.11
868.203	0.1
868.488	0.09
868.773	0.1
869.058	0.11
869.343	0.1
869.628	0.11
869.912	0.09
870.197	0.09
870.482	0.07
870.766	0.08
871.05	0.06
871.335	0.05
871.619	0.07
871.903	0.07
872.187	0.1
872.471	0.09
872.755	0.05
873.039	0.07
873.323	0.07
873.607	0.06
873.89	0.03
874.174	0.03
874.458	0.05
874.741	0.05
875.024	0.08
875.308	0.06
875.591	0.09
875.874	0.06
876.157	0.03
876.44	0.07
876.723	0.07
877.006	0.06
877.289	0.12
877.572	0.06
877.854	0.05
878.137	0.1
878.42	0.01
878.702	0.07
878.984	0.07
879.267	0.1
879.549	0.05
879.831	0.05
880.113	0.03
880.395	0.12
880.677	0.1
880.959	0.08
