Data from Rubpy_BV_900_EDTA_Buffered_Absorbance_13-24-33-908.txt Node
Date: Wed Jul 01 13:24:33 BST 2026
User: fpm-admin
Spectrometer: OFX00224
Trigger mode: 0
Integration Time (sec): 7.000000E-2
Scans to average: 3
Nonlinearity correction enabled: false
Boxcar width: 0
Storing dark spectrum: false
XAxis mode: Wavelengths
Number of Pixels in Spectrum: 2136
>>>>>Begin Spectral Data<<<<<
154.91	0.6
155.289	0.85
155.669	0.09
156.048	-0.95
156.428	-0.39
156.807	-0
157.186	-0.12
157.566	-0
157.945	-0.06
158.325	-0
158.704	-0.31
159.083	-0.38
159.462	-0.01
159.842	0.35
160.221	-0
160.6	-0
160.979	-0
161.359	0.03
161.738	0.05
162.117	-0
162.496	0.15
162.875	-0
163.254	0.43
163.633	-0
164.012	-0
164.391	0.26
164.77	-0
165.149	-0.18
165.528	-0.31
165.907	-1.36
166.286	0.16
166.665	-0
167.044	0.41
167.423	-0.14
167.802	-0.04
168.181	-0.3
168.559	-0.05
168.938	0.45
169.317	0.85
169.696	0.03
170.074	-0
170.453	-0.14
170.832	-0
171.21	-0
171.589	0.11
171.968	-0
172.346	-0
172.725	0.48
173.103	0.18
173.482	0.6
173.861	-0
174.239	-0
174.617	-0
174.996	0.26
175.374	-0
175.753	-0.01
176.131	-0.18
176.51	0.69
176.888	-0
177.266	-0
177.645	-0.17
178.023	1
178.401	-0.01
178.779	-0.12
179.158	-0.82
179.536	-0.38
179.914	-0.04
180.292	-0
180.67	0.44
181.048	-0.24
181.427	-0
181.805	-0
182.183	0.7
182.561	-0
182.939	-0
183.317	-0
183.695	-0
184.073	0.12
184.451	-0.2
184.829	-0
185.206	-0.6
185.584	-0
185.962	-0.2
186.34	-0.35
186.718	-0.18
187.096	-0.73
187.473	-0
187.851	-0
188.229	-1.27
188.607	0.11
188.984	0.23
189.362	0.2
189.74	0.08
190.117	0.1
190.495	0.15
190.872	0.23
191.25	0.23
191.627	0.11
192.005	0.25
192.382	0.39
192.76	0.2
193.137	0.14
193.515	0.17
193.892	0.16
194.269	0.18
194.647	0.24
195.024	0.33
195.401	0.08
195.779	0.28
196.156	0.14
196.533	0.43
196.91	0.26
197.288	0.31
197.665	0.19
198.042	0.09
198.419	0.2
198.796	0.22
199.173	0.19
199.55	0.19
199.927	0.17
200.304	0.12
200.681	0.2
201.058	0.18
201.435	0.23
201.812	0.22
202.189	0.21
202.566	0.13
202.943	0.1
203.32	0.25
203.697	0.16
204.073	0.21
204.45	0.26
204.827	0.27
205.204	0.1
205.58	0.2
205.957	0.24
206.334	0.25
206.71	0.18
207.087	0.21
207.464	0.19
207.84	0.22
208.217	0.14
208.593	0.16
208.97	0.32
209.346	0.2
209.723	0.25
210.099	0.24
210.476	0.2
210.852	0.21
211.228	0.3
211.605	0.21
211.981	0.22
212.357	0.19
212.733	0.17
213.11	0.24
213.486	0.26
213.862	0.21
214.238	0.26
214.614	0.18
214.991	0.18
215.367	0.19
215.743	0.25
216.119	0.16
216.495	0.11
216.871	0.11
217.247	0.28
217.623	0.24
217.999	0.15
218.375	0.24
218.751	0.22
219.127	0.26
219.502	0.33
219.878	0.2
220.254	0.2
220.63	0.24
221.006	0.16
221.381	0.17
221.757	0.2
222.133	0.26
222.508	0.22
222.884	0.24
223.26	0.29
223.635	0.23
224.011	0.23
224.386	0.34
224.762	0.25
225.137	0.14
225.513	0.27
225.888	0.21
226.264	0.18
226.639	0.39
227.014	0.19
227.39	0.32
227.765	0.28
228.14	0.26
228.516	0.23
228.891	0.19
229.266	0.22
229.641	0.3
230.017	0.32
230.392	0.3
230.767	0.25
231.142	0.28
231.517	0.09
231.892	0.12
232.267	0.17
232.642	0.11
233.017	0.2
233.392	0.35
233.767	0.44
234.142	0.2
234.517	0.17
234.892	0.1
235.267	0.27
235.641	0.29
236.016	0.24
236.391	0.23
236.766	0.13
237.14	0.26
237.515	0.16
237.89	0.14
238.264	0.16
238.639	0.24
239.014	0.22
239.388	0.23
239.763	0.29
240.137	0.21
240.512	0.19
240.886	0.19
241.261	0.27
241.635	0.22
242.009	0.17
242.384	0.23
242.758	0.1
243.132	0.28
243.507	0.23
243.881	0.27
244.255	0.12
244.629	0.11
245.004	0.2
245.378	0.24
245.752	0.16
246.126	0.17
246.5	0.21
246.874	0.28
247.248	0.23
247.622	0.21
247.996	0.26
248.37	0.27
248.744	0.14
249.118	0.17
249.492	0.21
249.866	0.22
250.24	0.34
250.613	0.23
250.987	0.24
251.361	0.19
251.735	0.23
252.108	0.23
252.482	0.23
252.856	0.14
253.229	0.26
253.603	0.17
253.977	0.16
254.35	0.15
254.724	0.19
255.097	0.21
255.471	0.23
255.844	0.22
256.218	0.15
256.591	0.17
256.964	0.18
257.338	0.18
257.711	0.21
258.084	0.2
258.458	0.27
258.831	0.22
259.204	0.22
259.577	0.33
259.95	0.22
260.323	0.23
260.697	0.24
261.07	0.2
261.443	0.22
261.816	0.28
262.189	0.32
262.562	0.29
262.935	0.35
263.308	0.14
263.68	0.26
264.053	0.38
264.426	0.21
264.799	0.27
265.172	0.32
265.545	0.18
265.917	0.24
266.29	0.22
266.663	0.29
267.035	0.19
267.408	0.27
267.781	0.27
268.153	0.19
268.526	0.29
268.898	0.2
269.271	0.21
269.643	0.15
270.016	0.23
270.388	0.23
270.76	0.21
271.133	0.26
271.505	0.25
271.877	0.22
272.25	0.2
272.622	0.29
272.994	0.19
273.366	0.23
273.739	0.16
274.111	0.19
274.483	0.23
274.855	0.23
275.227	0.2
275.599	0.28
275.971	0.3
276.343	0.3
276.715	0.17
277.087	0.26
277.459	0.15
277.831	0.3
278.203	0.2
278.574	0.26
278.946	0.34
279.318	0.2
279.69	0.22
280.061	0.28
280.433	0.18
280.805	0.18
281.176	0.27
281.548	0.23
281.92	0.22
282.291	0.24
282.663	0.31
283.034	0.18
283.406	0.24
283.777	0.21
284.148	0.19
284.52	0.26
284.891	0.27
285.262	0.41
285.634	0.25
286.005	0.27
286.376	0.19
286.747	0.25
287.119	0.25
287.49	0.26
287.861	0.24
288.232	0.33
288.603	0.27
288.974	0.23
289.345	0.24
289.716	0.27
290.087	0.28
290.458	0.3
290.829	0.31
291.2	0.23
291.571	0.23
291.941	0.2
292.312	0.27
292.683	0.28
293.054	0.29
293.424	0.25
293.795	0.21
294.166	0.23
294.536	0.24
294.907	0.24
295.277	0.16
295.648	0.3
296.018	0.22
296.389	0.22
296.759	0.28
297.13	0.24
297.5	0.24
297.871	0.24
298.241	0.29
298.611	0.23
298.981	0.23
299.352	0.22
299.722	0.27
300.092	0.24
300.462	0.2
300.832	0.19
301.202	0.25
301.573	0.16
301.943	0.19
302.313	0.23
302.683	0.2
303.053	0.18
303.422	0.15
303.792	0.16
304.162	0.13
304.532	0.14
304.902	0.18
305.272	0.14
305.641	0.14
306.011	0.17
306.381	0.13
306.75	0.11
307.12	0.12
307.49	0.12
307.859	0.13
308.229	0.11
308.598	0.13
308.968	0.13
309.337	0.12
309.707	0.14
310.076	0.14
310.445	0.14
310.815	0.15
311.184	0.14
311.553	0.15
311.923	0.13
312.292	0.16
312.661	0.16
313.03	0.15
313.399	0.15
313.768	0.16
314.137	0.16
314.506	0.17
314.875	0.17
315.244	0.17
315.613	0.18
315.982	0.18
316.351	0.19
316.72	0.18
317.089	0.2
317.458	0.2
317.826	0.19
318.195	0.21
318.564	0.2
318.933	0.21
319.301	0.2
319.67	0.21
320.038	0.21
320.407	0.22
320.775	0.21
321.144	0.22
321.512	0.22
321.881	0.23
322.249	0.23
322.618	0.23
322.986	0.23
323.354	0.24
323.723	0.24
324.091	0.25
324.459	0.25
324.827	0.25
325.195	0.26
325.564	0.26
325.932	0.26
326.3	0.27
326.668	0.28
327.036	0.28
327.404	0.28
327.772	0.28
328.14	0.28
328.508	0.29
328.875	0.3
329.243	0.3
329.611	0.3
329.979	0.31
330.346	0.31
330.714	0.33
331.082	0.31
331.449	0.33
331.817	0.34
332.185	0.34
332.552	0.35
332.92	0.36
333.287	0.36
333.655	0.37
334.022	0.37
334.389	0.38
334.757	0.38
335.124	0.39
335.491	0.4
335.859	0.42
336.226	0.41
336.593	0.43
336.96	0.43
337.327	0.44
337.695	0.44
338.062	0.45
338.429	0.46
338.796	0.47
339.163	0.48
339.53	0.48
339.897	0.49
340.263	0.5
340.63	0.51
340.997	0.52
341.364	0.53
341.731	0.53
342.097	0.54
342.464	0.56
342.831	0.56
343.197	0.57
343.564	0.58
343.931	0.6
344.297	0.6
344.664	0.61
345.03	0.62
345.396	0.63
345.763	0.63
346.129	0.64
346.496	0.66
346.862	0.67
347.228	0.67
347.594	0.68
347.961	0.69
348.327	0.7
348.693	0.72
349.059	0.71
349.425	0.73
349.791	0.74
350.157	0.74
350.523	0.75
350.889	0.76
351.255	0.77
351.621	0.78
351.987	0.79
352.353	0.8
352.719	0.8
353.084	0.81
353.45	0.82
353.816	0.83
354.181	0.84
354.547	0.85
354.913	0.86
355.278	0.88
355.644	0.89
356.009	0.9
356.375	0.91
356.74	0.93
357.106	0.92
357.471	0.94
357.836	0.96
358.202	0.96
358.567	0.97
358.932	0.99
359.297	1
359.663	1.02
360.028	1.03
360.393	1.04
360.758	1.06
361.123	1.07
361.488	1.09
361.853	1.09
362.218	1.12
362.583	1.13
362.948	1.14
363.312	1.15
363.677	1.17
364.042	1.18
364.407	1.18
364.772	1.2
365.136	1.21
365.501	1.23
365.865	1.24
366.23	1.24
366.595	1.27
366.959	1.26
367.324	1.27
367.688	1.31
368.052	1.29
368.417	1.31
368.781	1.32
369.145	1.33
369.51	1.33
369.874	1.33
370.238	1.35
370.602	1.36
370.967	1.34
371.331	1.36
371.695	1.36
372.059	1.37
372.423	1.38
372.787	1.37
373.151	1.37
373.515	1.37
373.878	1.36
374.242	1.37
374.606	1.37
374.97	1.35
375.334	1.34
375.697	1.32
376.061	1.3
376.425	1.31
376.788	1.3
377.152	1.28
377.515	1.27
377.879	1.27
378.242	1.24
378.606	1.22
378.969	1.23
379.333	1.2
379.696	1.2
380.059	1.17
380.422	1.16
380.786	1.15
381.149	1.13
381.512	1.13
381.875	1.13
382.238	1.11
382.601	1.09
382.964	1.08
383.327	1.07
383.69	1.05
384.053	1.05
384.416	1.06
384.779	1.03
385.142	1.03
385.504	1.02
385.867	1.02
386.23	1
386.593	1.01
386.955	1.01
387.318	1
387.68	1
388.043	0.99
388.405	1
388.768	1
389.13	1
389.493	0.99
389.855	0.99
390.217	0.98
390.58	0.97
390.942	0.97
391.304	0.95
391.666	0.94
392.028	0.92
392.391	0.92
392.753	0.91
393.115	0.89
393.477	0.88
393.839	0.88
394.201	0.88
394.563	0.87
394.924	0.87
395.286	0.86
395.648	0.87
396.01	0.87
396.371	0.88
396.733	0.89
397.095	0.9
397.456	0.92
397.818	0.93
398.18	0.95
398.541	0.99
398.903	1
399.264	1.04
399.625	1.07
399.987	1.08
400.348	1.1
400.709	1.1
401.071	1.13
401.432	1.12
401.793	1.13
402.154	1.11
402.515	1.1
402.876	1.08
403.238	1.06
403.599	1.03
403.96	1
404.32	0.97
404.681	0.94
405.042	0.91
405.403	0.87
405.764	0.83
406.125	0.8
406.485	0.75
406.846	0.71
407.207	0.67
407.567	0.64
407.928	0.61
408.288	0.57
408.649	0.54
409.009	0.51
409.37	0.48
409.73	0.45
410.091	0.43
410.451	0.41
410.811	0.38
411.171	0.37
411.532	0.35
411.892	0.33
412.252	0.31
412.612	0.3
412.972	0.28
413.332	0.28
413.692	0.26
414.052	0.26
414.412	0.24
414.772	0.24
415.132	0.22
415.492	0.22
415.851	0.21
416.211	0.2
416.571	0.2
416.931	0.19
417.29	0.19
417.65	0.17
418.009	0.17
418.369	0.17
418.728	0.17
419.088	0.16
419.447	0.16
419.807	0.15
420.166	0.15
420.525	0.15
420.884	0.14
421.244	0.14
421.603	0.13
421.962	0.14
422.321	0.13
422.68	0.13
423.039	0.13
423.398	0.13
423.757	0.13
424.116	0.13
424.475	0.12
424.834	0.12
425.193	0.12
425.551	0.12
425.91	0.12
426.269	0.12
426.628	0.11
426.986	0.11
427.345	0.12
427.703	0.11
428.062	0.11
428.42	0.11
428.779	0.1
429.137	0.11
429.496	0.1
429.854	0.11
430.212	0.11
430.57	0.1
430.929	0.11
431.287	0.11
431.645	0.1
432.003	0.1
432.361	0.1
432.719	0.1
433.077	0.1
433.435	0.1
433.793	0.1
434.151	0.1
434.509	0.1
434.866	0.1
435.224	0.1
435.582	0.1
435.94	0.1
436.297	0.1
436.655	0.11
437.012	0.09
437.37	0.1
437.727	0.1
438.085	0.1
438.442	0.09
438.8	0.1
439.157	0.1
439.514	0.1
439.872	0.1
440.229	0.11
440.586	0.1
440.943	0.1
441.3	0.09
441.657	0.11
442.014	0.1
442.371	0.1
442.728	0.1
443.085	0.09
443.442	0.11
443.799	0.1
444.156	0.11
444.513	0.1
444.869	0.11
445.226	0.11
445.583	0.11
445.939	0.1
446.296	0.1
446.652	0.11
447.009	0.1
447.365	0.1
447.722	0.11
448.078	0.1
448.434	0.11
448.791	0.11
449.147	0.11
449.503	0.11
449.859	0.1
450.215	0.11
450.571	0.12
450.928	0.11
451.284	0.11
451.64	0.12
451.995	0.11
452.351	0.12
452.707	0.11
453.063	0.11
453.419	0.11
453.775	0.11
454.13	0.11
454.486	0.12
454.842	0.13
455.197	0.11
455.553	0.11
455.908	0.13
456.264	0.12
456.619	0.13
456.975	0.12
457.33	0.12
457.685	0.13
458.04	0.13
458.396	0.12
458.751	0.13
459.106	0.13
459.461	0.12
459.816	0.13
460.171	0.13
460.526	0.12
460.881	0.13
461.236	0.13
461.591	0.13
461.946	0.13
462.301	0.13
462.655	0.13
463.01	0.13
463.365	0.14
463.719	0.14
464.074	0.14
464.428	0.14
464.783	0.14
465.137	0.13
465.492	0.14
465.846	0.15
466.201	0.15
466.555	0.14
466.909	0.15
467.263	0.15
467.618	0.15
467.972	0.14
468.326	0.16
468.68	0.16
469.034	0.16
469.388	0.16
469.742	0.16
470.096	0.16
470.45	0.17
470.804	0.16
471.157	0.17
471.511	0.17
471.865	0.17
472.218	0.17
472.572	0.18
472.926	0.18
473.279	0.19
473.633	0.19
473.986	0.18
474.34	0.19
474.693	0.2
475.046	0.2
475.4	0.19
475.753	0.21
476.106	0.21
476.459	0.21
476.812	0.21
477.165	0.22
477.519	0.22
477.872	0.22
478.224	0.22
478.577	0.23
478.93	0.24
479.283	0.24
479.636	0.23
479.989	0.24
480.341	0.24
480.694	0.24
481.047	0.25
481.399	0.25
481.752	0.25
482.104	0.25
482.457	0.26
482.809	0.26
483.162	0.26
483.514	0.27
483.866	0.27
484.219	0.27
484.571	0.27
484.923	0.27
485.275	0.28
485.627	0.28
485.979	0.28
486.331	0.28
486.683	0.29
487.035	0.29
487.387	0.3
487.739	0.3
488.091	0.3
488.443	0.3
488.794	0.3
489.146	0.31
489.498	0.31
489.849	0.31
490.201	0.31
490.552	0.31
490.904	0.32
491.255	0.32
491.607	0.32
491.958	0.33
492.309	0.33
492.661	0.33
493.012	0.33
493.363	0.34
493.714	0.35
494.065	0.34
494.416	0.35
494.767	0.34
495.118	0.35
495.469	0.35
495.82	0.35
496.171	0.36
496.522	0.36
496.872	0.37
497.223	0.36
497.574	0.37
497.924	0.38
498.275	0.38
498.626	0.38
498.976	0.38
499.327	0.38
499.677	0.39
500.027	0.39
500.378	0.4
500.728	0.4
501.078	0.39
501.428	0.4
501.779	0.4
502.129	0.41
502.479	0.41
502.829	0.41
503.179	0.41
503.529	0.42
503.879	0.41
504.229	0.42
504.578	0.43
504.928	0.43
505.278	0.42
505.628	0.43
505.977	0.44
506.327	0.44
506.676	0.44
507.026	0.44
507.375	0.44
507.725	0.44
508.074	0.45
508.424	0.46
508.773	0.45
509.122	0.46
509.471	0.47
509.82	0.46
510.17	0.47
510.519	0.47
510.868	0.47
511.217	0.48
511.566	0.47
511.915	0.48
512.263	0.48
512.612	0.48
512.961	0.49
513.31	0.49
513.659	0.49
514.007	0.49
514.356	0.49
514.704	0.49
515.053	0.5
515.401	0.5
515.75	0.5
516.098	0.5
516.447	0.51
516.795	0.51
517.143	0.51
517.491	0.51
517.839	0.51
518.188	0.53
518.536	0.52
518.884	0.52
519.232	0.53
519.58	0.53
519.928	0.53
520.275	0.52
520.623	0.53
520.971	0.53
521.319	0.54
521.666	0.54
522.014	0.54
522.362	0.55
522.709	0.54
523.057	0.55
523.404	0.55
523.752	0.56
524.099	0.55
524.446	0.56
524.794	0.55
525.141	0.56
525.488	0.56
525.835	0.56
526.182	0.56
526.529	0.56
526.876	0.56
527.223	0.57
527.57	0.57
527.917	0.57
528.264	0.57
528.611	0.58
528.958	0.58
529.304	0.57
529.651	0.58
529.998	0.58
530.344	0.58
530.691	0.58
531.037	0.59
531.384	0.59
531.73	0.59
532.076	0.59
532.423	0.59
532.769	0.59
533.115	0.6
533.461	0.6
533.807	0.6
534.154	0.6
534.5	0.6
534.846	0.6
535.192	0.61
535.537	0.6
535.883	0.6
536.229	0.61
536.575	0.61
536.921	0.61
537.266	0.61
537.612	0.61
537.957	0.61
538.303	0.61
538.649	0.61
538.994	0.61
539.339	0.61
539.685	0.62
540.03	0.61
540.375	0.62
540.721	0.62
541.066	0.62
541.411	0.62
541.756	0.63
542.101	0.62
542.446	0.62
542.791	0.63
543.136	0.63
543.481	0.63
543.825	0.63
544.17	0.63
544.515	0.63
544.86	0.63
545.204	0.63
545.549	0.63
545.893	0.63
546.238	0.63
546.582	0.63
546.927	0.63
547.271	0.63
547.615	0.64
547.96	0.64
548.304	0.63
548.648	0.64
548.992	0.64
549.336	0.64
549.68	0.64
550.024	0.64
550.368	0.64
550.712	0.64
551.056	0.64
551.4	0.64
551.743	0.64
552.087	0.64
552.431	0.65
552.774	0.64
553.118	0.64
553.462	0.64
553.805	0.64
554.148	0.64
554.492	0.64
554.835	0.64
555.178	0.64
555.522	0.64
555.865	0.64
556.208	0.64
556.551	0.64
556.894	0.64
557.237	0.64
557.58	0.64
557.923	0.64
558.266	0.64
558.609	0.64
558.952	0.64
559.294	0.64
559.637	0.64
559.98	0.64
560.322	0.64
560.665	0.64
561.007	0.64
561.35	0.64
561.692	0.63
562.034	0.63
562.377	0.63
562.719	0.63
563.061	0.64
563.403	0.63
563.745	0.63
564.088	0.63
564.43	0.63
564.772	0.63
565.113	0.63
565.455	0.63
565.797	0.63
566.139	0.63
566.481	0.63
566.822	0.63
567.164	0.63
567.506	0.62
567.847	0.63
568.189	0.63
568.53	0.62
568.872	0.62
569.213	0.62
569.554	0.62
569.895	0.62
570.237	0.62
570.578	0.62
570.919	0.61
571.26	0.61
571.601	0.61
571.942	0.61
572.283	0.61
572.624	0.61
572.965	0.6
573.306	0.6
573.646	0.6
573.987	0.59
574.328	0.59
574.668	0.6
575.009	0.59
575.349	0.59
575.69	0.58
576.03	0.58
576.37	0.58
576.711	0.57
577.051	0.58
577.391	0.58
577.731	0.59
578.072	0.58
578.412	0.58
578.752	0.58
579.092	0.57
579.431	0.55
579.771	0.53
580.111	0.51
580.451	0.52
580.791	0.55
581.13	0.56
581.47	0.57
581.81	0.56
582.149	0.57
582.489	0.57
582.828	0.55
583.167	0.51
583.507	0.48
583.846	0.46
584.185	0.48
584.525	0.5
584.864	0.54
585.203	0.56
585.542	0.57
585.881	0.57
586.22	0.57
586.559	0.55
586.898	0.53
587.236	0.52
587.575	0.51
587.914	0.53
588.252	0.54
588.591	0.55
588.93	0.55
589.268	0.54
589.607	0.54
589.945	0.55
590.283	0.54
590.622	0.55
590.96	0.55
591.298	0.56
591.636	0.56
591.974	0.56
592.313	0.56
592.651	0.56
592.989	0.56
593.326	0.56
593.664	0.57
594.002	0.56
594.34	0.56
594.678	0.55
595.015	0.54
595.353	0.52
595.691	0.53
596.028	0.55
596.366	0.56
596.703	0.56
597.04	0.56
597.378	0.56
597.715	0.56
598.052	0.56
598.389	0.57
598.726	0.56
599.064	0.56
599.401	0.56
599.738	0.56
600.074	0.56
600.411	0.56
600.748	0.55
601.085	0.54
601.422	0.53
601.758	0.53
602.095	0.54
602.432	0.54
602.768	0.54
603.105	0.55
603.441	0.55
603.777	0.55
604.114	0.55
604.45	0.55
604.786	0.56
605.122	0.55
605.459	0.55
605.795	0.55
606.131	0.54
606.467	0.55
606.803	0.54
607.139	0.54
607.474	0.54
607.81	0.54
608.146	0.54
608.482	0.53
608.817	0.53
609.153	0.53
609.488	0.53
609.824	0.53
610.159	0.53
610.495	0.53
610.83	0.53
611.165	0.53
611.5	0.53
611.836	0.53
612.171	0.53
612.506	0.52
612.841	0.52
613.176	0.52
613.511	0.52
613.845	0.52
614.18	0.52
614.515	0.52
614.85	0.52
615.184	0.52
615.519	0.52
615.854	0.51
616.188	0.51
616.523	0.51
616.857	0.5
617.191	0.5
617.526	0.49
617.86	0.5
618.194	0.49
618.528	0.5
618.862	0.49
619.196	0.49
619.53	0.49
619.864	0.49
620.198	0.49
620.532	0.49
620.866	0.49
621.2	0.49
621.533	0.48
621.867	0.48
622.201	0.48
622.534	0.47
622.868	0.47
623.201	0.47
623.534	0.47
623.868	0.47
624.201	0.46
624.534	0.46
624.868	0.47
625.201	0.46
625.534	0.46
625.867	0.46
626.2	0.46
626.533	0.45
626.865	0.45
627.198	0.45
627.531	0.45
627.864	0.44
628.196	0.45
628.529	0.44
628.862	0.44
629.194	0.44
629.527	0.43
629.859	0.43
630.191	0.43
630.524	0.43
630.856	0.43
631.188	0.42
631.52	0.42
631.852	0.42
632.184	0.41
632.516	0.41
632.848	0.41
633.18	0.41
633.512	0.41
633.844	0.4
634.175	0.4
634.507	0.4
634.839	0.4
635.17	0.39
635.502	0.39
635.833	0.39
636.165	0.39
636.496	0.39
636.827	0.38
637.159	0.38
637.49	0.38
637.821	0.38
638.152	0.37
638.483	0.37
638.814	0.37
639.145	0.36
639.476	0.37
639.807	0.36
640.137	0.36
640.468	0.36
640.799	0.35
641.129	0.35
641.46	0.35
641.791	0.35
642.121	0.34
642.451	0.34
642.782	0.34
643.112	0.34
643.442	0.33
643.773	0.34
644.103	0.33
644.433	0.33
644.763	0.33
645.093	0.32
645.423	0.32
645.753	0.32
646.082	0.32
646.412	0.32
646.742	0.32
647.072	0.31
647.401	0.32
647.731	0.31
648.06	0.31
648.39	0.31
648.719	0.31
649.048	0.31
649.378	0.31
649.707	0.31
650.036	0.31
650.365	0.31
650.694	0.3
651.023	0.3
651.352	0.3
651.681	0.3
652.01	0.3
652.339	0.3
652.668	0.29
652.996	0.29
653.325	0.29
653.654	0.29
653.982	0.29
654.311	0.29
654.639	0.29
654.967	0.29
655.296	0.29
655.624	0.29
655.952	0.29
656.28	0.29
656.609	0.28
656.937	0.28
657.265	0.29
657.593	0.16
657.92	0.05
658.248	0.01
658.576	0.02
658.904	0.1
659.231	0.18
659.559	0.25
659.887	0.26
660.214	0.27
660.542	0.27
660.869	0.27
661.196	0.27
661.524	0.27
661.851	0.27
662.178	0.26
662.505	0.27
662.832	0.27
663.159	0.27
663.486	0.26
663.813	0.26
664.14	0.26
664.467	0.26
664.794	0.26
665.12	0.26
665.447	0.25
665.774	0.25
666.1	0.25
666.427	0.25
666.753	0.25
667.079	0.25
667.406	0.24
667.732	0.24
668.058	0.24
668.384	0.24
668.71	0.25
669.036	0.24
669.362	0.25
669.688	0.25
670.014	0.24
670.34	0.24
670.666	0.23
670.991	0.23
671.317	0.23
671.643	0.23
671.968	0.23
672.294	0.23
672.619	0.23
672.945	0.22
673.27	0.22
673.595	0.22
673.92	0.22
674.246	0.21
674.571	0.21
674.896	0.21
675.221	0.21
675.546	0.21
675.87	0.21
676.195	0.21
676.52	0.21
676.845	0.21
677.169	0.2
677.494	0.2
677.819	0.2
678.143	0.2
678.468	0.2
678.792	0.19
679.116	0.19
679.44	0.19
679.765	0.19
680.089	0.19
680.413	0.18
680.737	0.18
681.061	0.18
681.385	0.18
681.709	0.17
682.033	0.17
682.356	0.17
682.68	0.17
683.004	0.16
683.327	0.16
683.651	0.16
683.974	0.16
684.298	0.16
684.621	0.16
684.944	0.16
685.268	0.15
685.591	0.15
685.914	0.15
686.237	0.15
686.56	0.14
686.883	0.14
687.206	0.13
687.529	0.13
687.852	0.12
688.175	0.12
688.497	0.13
688.82	0.13
689.142	0.13
689.465	0.13
689.787	0.13
690.11	0.13
690.432	0.12
690.755	0.12
691.077	0.12
691.399	0.12
691.721	0.12
692.043	0.11
692.365	0.11
692.687	0.11
693.009	0.11
693.331	0.1
693.653	0.1
693.974	0.1
694.296	0.09
694.618	0.1
694.939	0.1
695.261	0.09
695.582	0.09
695.904	0.09
696.225	0.09
696.546	0.1
696.868	0.1
697.189	0.09
697.51	0.09
697.831	0.09
698.152	0.09
698.473	0.09
698.794	0.08
699.114	0.07
699.435	0.06
699.756	0.06
700.077	0.07
700.397	0.07
700.718	0.08
701.038	0.08
701.359	0.08
701.679	0.08
701.999	0.08
702.32	0.08
702.64	0.08
702.96	0.08
703.28	0.08
703.6	0.08
703.92	0.07
704.24	0.07
704.56	0.06
704.879	0.06
705.199	0.07
705.519	0.06
705.838	0.07
706.158	0.07
706.478	0.06
706.797	0.07
707.116	0.07
707.436	0.07
707.755	0.07
708.074	0.07
708.393	0.06
708.712	0.05
709.031	0.04
709.35	0.04
709.669	0.04
709.988	0.04
710.307	0.04
710.626	0.05
710.944	0.05
711.263	0.05
711.582	0.06
711.9	0.06
712.219	0.05
712.537	0.05
712.855	0.06
713.174	0.05
713.492	0.05
713.81	0.06
714.128	0.06
714.446	0.06
714.764	0.05
715.082	0.05
715.4	0.05
715.718	0.05
716.035	0.05
716.353	0.05
716.671	0.05
716.988	0.05
717.306	0.04
717.623	0.05
717.941	0.06
718.258	0.06
718.575	0.07
718.893	0.07
719.21	0.06
719.527	0.07
719.844	0.06
720.161	0.06
720.478	0.06
720.795	0.06
721.112	0.06
721.428	0.07
721.745	0.07
722.062	0.07
722.378	0.07
722.695	0.07
723.011	0.07
723.328	0.07
723.644	0.08
723.96	0.08
724.276	0.08
724.593	0.08
724.909	0.08
725.225	0.08
725.541	0.08
725.857	0.08
726.173	0.08
726.488	0.08
726.804	0.08
727.12	0.08
727.435	0.08
727.751	0.08
728.067	0.08
728.382	0.08
728.697	0.08
729.013	0.08
729.328	0.07
729.643	0.08
729.958	0.08
730.273	0.08
730.588	0.07
730.903	0.08
731.218	0.08
731.533	0.08
731.848	0.07
732.163	0.08
732.477	0.07
732.792	0.07
733.107	0.06
733.421	0.07
733.736	0.07
734.05	0.07
734.364	0.07
734.678	0.07
734.993	0.07
735.307	0.07
735.621	0.06
735.935	0.07
736.249	0.07
736.563	0.07
736.877	0.07
737.19	0.07
737.504	0.07
737.818	0.07
738.131	0.07
738.445	0.08
738.758	0.07
739.072	0.07
739.385	0.07
739.698	0.07
740.012	0.08
740.325	0.08
740.638	0.07
740.951	0.07
741.264	0.07
741.577	0.07
741.89	0.07
742.203	0.07
742.515	0.07
742.828	0.07
743.141	0.07
743.453	0.07
743.766	0.07
744.078	0.07
744.391	0.07
744.703	0.06
745.015	0.06
745.327	0.06
745.639	0.07
745.952	0.06
746.264	0.06
746.575	0.06
746.887	0.06
747.199	0.06
747.511	0.06
747.823	0.06
748.134	0.06
748.446	0.06
748.757	0.06
749.069	0.05
749.38	0.06
749.692	0.06
750.003	0.06
750.314	0.05
750.625	0.05
750.936	0.05
751.248	0.05
751.559	0.05
751.869	0.05
752.18	0.05
752.491	0.05
752.802	0.05
753.112	0.05
753.423	0.05
753.734	0.05
754.044	0.05
754.355	0.05
754.665	0.05
754.975	0.04
755.285	0.04
755.596	0.04
755.906	0.04
756.216	0.04
756.526	0.04
756.836	0.04
757.146	0.04
757.455	0.04
757.765	0.04
758.075	0.04
758.385	0.04
758.694	0.03
759.004	0.03
759.313	0.03
759.622	0.03
759.932	0.03
760.241	0.04
760.55	0.04
760.859	0.04
761.168	0.04
761.477	0.04
761.786	0.04
762.095	0.03
762.404	0.03
762.713	0.04
763.021	0.04
763.33	0.04
763.639	0.04
763.947	0.04
764.256	0.04
764.564	0.04
764.872	0.04
765.181	0.04
765.489	0.04
765.797	0.04
766.105	0.04
766.413	0.03
766.721	0.03
767.029	0.03
767.337	0.03
767.644	0.04
767.952	0.03
768.26	0.04
768.567	0.04
768.875	0.04
769.182	0.04
769.49	0.04
769.797	0.04
770.104	0.04
770.411	0.04
770.718	0.04
771.026	0.04
771.333	0.04
771.639	0.04
771.946	0.04
772.253	0.03
772.56	0.04
772.867	0.04
773.173	0.04
773.48	0.04
773.786	0.04
774.093	0.04
774.399	0.04
774.705	0.04
775.012	0.04
775.318	0.04
775.624	0.04
775.93	0.04
776.236	0.04
776.542	0.04
776.848	0.04
777.154	0.05
777.459	0.04
777.765	0.04
778.071	0.04
778.376	0.04
778.682	0.04
778.987	0.05
779.292	0.04
779.598	0.04
779.903	0.04
780.208	0.04
780.513	0.04
780.818	0.04
781.123	0.04
781.428	0.04
781.733	0.04
782.038	0.04
782.343	0.04
782.647	0.04
782.952	0.04
783.256	0.04
783.561	0.05
783.865	0.04
784.17	0.05
784.474	0.04
784.778	0.04
785.082	0.04
785.386	0.04
785.69	0.04
785.994	0.04
786.298	0.04
786.602	0.04
786.906	0.04
787.209	0.04
787.513	0.04
787.817	0.04
788.12	0.04
788.424	0.04
788.727	0.04
789.03	0.04
789.333	0.05
789.637	0.05
789.94	0.05
790.243	0.05
790.546	0.05
790.849	0.05
791.152	0.05
791.454	0.05
791.757	0.05
792.06	0.05
792.362	0.05
792.665	0.05
792.967	0.05
793.27	0.05
793.572	0.05
793.874	0.04
794.177	0.05
794.479	0.05
794.781	0.05
795.083	0.05
795.385	0.05
795.687	0.05
795.989	0.05
796.29	0.05
796.592	0.05
796.894	0.05
797.195	0.04
797.497	0.05
797.798	0.05
798.1	0.05
798.401	0.05
798.702	0.05
799.003	0.05
799.304	0.05
799.605	0.05
799.906	0.05
800.207	0.05
800.508	0.05
800.809	0.05
801.11	0.05
801.41	0.05
801.711	0.05
802.011	0.05
802.312	0.05
802.612	0.05
802.913	0.05
803.213	0.05
803.513	0.05
803.813	0.05
804.113	0.05
804.413	0.06
804.713	0.06
805.013	0.05
805.313	0.05
805.613	0.05
805.912	0.05
806.212	0.05
806.511	0.05
806.811	0.05
807.11	0.05
807.41	0.05
807.709	0.05
808.008	0.05
808.307	0.05
808.606	0.05
808.905	0.06
809.204	0.05
809.503	0.05
809.802	0.05
810.101	0.05
810.399	0.05
810.698	0.05
810.997	0.05
811.295	0.05
811.593	0.06
811.892	0.05
812.19	0.06
812.488	0.06
812.786	0.06
813.084	0.06
813.383	0.06
813.68	0.06
813.978	0.06
814.276	0.06
814.574	0.06
814.872	0.06
815.169	0.06
815.467	0.06
815.764	0.06
816.062	0.06
816.359	0.06
816.656	0.06
816.954	0.06
817.251	0.06
817.548	0.06
817.845	0.06
818.142	0.06
818.439	0.06
818.735	0.05
819.032	0.05
819.329	0.06
819.626	0.05
819.922	0.06
820.219	0.06
820.515	0.06
820.811	0.06
821.108	0.06
821.404	0.06
821.7	0.06
821.996	0.07
822.292	0.07
822.588	0.07
822.884	0.07
823.18	0.07
823.475	0.07
823.771	0.07
824.067	0.07
824.362	0.07
824.658	0.08
824.953	0.07
825.249	0.08
825.544	0.08
825.839	0.07
826.134	0.07
826.429	0.07
826.724	0.06
827.019	0.07
827.314	0.07
827.609	0.07
827.904	0.07
828.198	0.07
828.493	0.07
828.787	0.07
829.082	0.07
829.376	0.07
829.671	0.07
829.965	0.07
830.259	0.07
830.553	0.07
830.847	0.08
831.141	0.08
831.435	0.08
831.729	0.07
832.023	0.07
832.317	0.07
832.61	0.07
832.904	0.07
833.197	0.07
833.491	0.07
833.784	0.06
834.077	0.07
834.371	0.07
834.664	0.07
834.957	0.07
835.25	0.08
835.543	0.08
835.836	0.08
836.129	0.09
836.421	0.08
836.714	0.08
837.007	0.07
837.299	0.08
837.592	0.08
837.884	0.07
838.177	0.07
838.469	0.08
838.761	0.08
839.053	0.08
839.345	0.08
839.637	0.08
839.929	0.09
840.221	0.09
840.513	0.09
840.805	0.09
841.096	0.08
841.388	0.09
841.68	0.09
841.971	0.09
842.262	0.08
842.554	0.08
842.845	0.08
843.136	0.09
843.427	0.08
843.718	0.09
844.009	0.1
844.3	0.09
844.591	0.09
844.882	0.09
845.173	0.09
845.463	0.09
845.754	0.1
846.044	0.09
846.335	0.09
846.625	0.08
846.915	0.09
847.206	0.09
847.496	0.09
847.786	0.09
848.076	0.1
848.366	0.09
848.656	0.1
848.945	0.08
849.235	0.08
849.525	0.08
849.814	0.09
850.104	0.09
850.393	0.09
850.683	0.09
850.972	0.09
851.261	0.1
851.551	0.08
851.84	0.09
852.129	0.09
852.418	0.09
852.707	0.09
852.995	0.09
853.284	0.1
853.573	0.08
853.862	0.09
854.15	0.1
854.439	0.1
854.727	0.1
855.015	0.1
855.304	0.1
855.592	0.1
855.88	0.1
856.168	0.09
856.456	0.09
856.744	0.1
857.032	0.08
857.32	0.09
857.607	0.09
857.895	0.11
858.183	0.1
858.47	0.09
858.757	0.1
859.045	0.1
859.332	0.1
859.619	0.1
859.907	0.1
860.194	0.1
860.481	0.1
860.768	0.09
861.054	0.1
861.341	0.1
861.628	0.1
861.915	0.09
862.201	0.1
862.488	0.1
862.774	0.11
863.061	0.09
863.347	0.1
863.633	0.1
863.919	0.08
864.205	0.1
864.491	0.1
864.777	0.11
865.063	0.1
865.349	0.1
865.635	0.09
865.92	0.09
866.206	0.09
866.492	0.09
866.777	0.07
867.062	0.09
867.348	0.08
867.633	0.08
867.918	0.1
868.203	0.1
868.488	0.08
868.773	0.09
869.058	0.1
869.343	0.1
869.628	0.09
869.912	0.09
870.197	0.1
870.482	0.08
870.766	0.1
871.05	0.1
871.335	0.06
871.619	0.09
871.903	0.06
872.187	0.1
872.471	0.08
872.755	0.11
873.039	0.09
873.323	0.09
873.607	0.06
873.89	0.08
874.174	0.04
874.458	0.06
874.741	0.08
875.024	0.06
875.308	0.05
875.591	0.1
875.874	0.08
876.157	0.08
876.44	0.12
876.723	0.07
877.006	0.11
877.289	0.11
877.572	0.1
877.854	0.12
878.137	0.08
878.42	0.04
878.702	0.07
878.984	0.09
879.267	0.09
879.549	0.02
879.831	0.08
880.113	0.07
880.395	0.13
880.677	-0.01
880.959	0.13
