Data from Rubpy_BV_900_EDTA_Buffered_Absorbance_13-21-34-878.txt Node
Date: Wed Jul 01 13:21:34 BST 2026
User: fpm-admin
Spectrometer: OFX00224
Trigger mode: 0
Integration Time (sec): 7.000000E-2
Scans to average: 3
Nonlinearity correction enabled: false
Boxcar width: 0
Storing dark spectrum: false
XAxis mode: Wavelengths
Number of Pixels in Spectrum: 2136
>>>>>Begin Spectral Data<<<<<
154.91	-0
155.289	0.6
155.669	-0.02
156.048	-0.68
156.428	0.05
156.807	-0
157.186	0.2
157.566	0.33
157.945	0.02
158.325	0.12
158.704	-0.21
159.083	-0.34
159.462	-0
159.842	0.51
160.221	-0
160.6	-0
160.979	1.15
161.359	0.39
161.738	-0.36
162.117	-0
162.496	-0.22
162.875	-0.37
163.254	0.36
163.633	-0
164.012	-0.38
164.391	-0
164.77	-0
165.149	0.62
165.528	-0.37
165.907	-1.02
166.286	-0.05
166.665	-0
167.044	-0
167.423	-0.33
167.802	-0.06
168.181	-0
168.559	-0
168.938	-0
169.317	0.57
169.696	0.06
170.074	0.09
170.453	-0.05
170.832	-0
171.21	0.05
171.589	-0.2
171.968	1.6
172.346	-0
172.725	0.89
173.103	-0
173.482	-0
173.861	-0
174.239	-0
174.617	-0
174.996	0.35
175.374	0.6
175.753	0.35
176.131	-0
176.51	0.21
176.888	-0
177.266	-0
177.645	-0.19
178.023	1.14
178.401	-0.1
178.779	-0.06
179.158	-1.15
179.536	0.03
179.914	0.39
180.292	-0
180.67	0.32
181.048	-0.53
181.427	0.19
181.805	-0
182.183	-0.26
182.561	-0
182.939	-0
183.317	-0.89
183.695	-0
184.073	-0.51
184.451	0.1
184.829	-0.32
185.206	-0
185.584	-0
185.962	-0.19
186.34	-0
186.718	-0
187.096	-0.56
187.473	-0
187.851	0.14
188.229	-1.02
188.607	0.11
188.984	0.12
189.362	0.13
189.74	0.09
190.117	0.04
190.495	0.25
190.872	0.27
191.25	0.12
191.627	0.17
192.005	0.09
192.382	0.19
192.76	0.09
193.137	0.22
193.515	0.11
193.892	0.19
194.269	0.16
194.647	0.15
195.024	0.18
195.401	0.08
195.779	0.17
196.156	0.07
196.533	0.26
196.91	0.07
197.288	0.17
197.665	0.14
198.042	0.08
198.419	0.16
198.796	0.14
199.173	0.29
199.55	0.18
199.927	0.2
200.304	0.28
200.681	0.23
201.058	0.19
201.435	0.12
201.812	0.11
202.189	0.1
202.566	0.09
202.943	0.21
203.32	0.19
203.697	0.33
204.073	0.14
204.45	0.11
204.827	0.18
205.204	0.11
205.58	0.13
205.957	0.22
206.334	0.26
206.71	0.22
207.087	0.22
207.464	0.21
207.84	0.12
208.217	0.13
208.593	0.03
208.97	0.18
209.346	0.17
209.723	0.12
210.099	0.16
210.476	0.14
210.852	0.25
211.228	0.24
211.605	0.24
211.981	0.28
212.357	0.12
212.733	0.15
213.11	0.16
213.486	0.16
213.862	0.21
214.238	0.15
214.614	0.25
214.991	0.13
215.367	0.18
215.743	0.25
216.119	0.09
216.495	0.1
216.871	0.15
217.247	0.2
217.623	0.18
217.999	0.21
218.375	0.18
218.751	0.17
219.127	0.22
219.502	0.26
219.878	0.24
220.254	0.24
220.63	0.23
221.006	0.18
221.381	0.25
221.757	0.24
222.133	0.14
222.508	0.2
222.884	0.29
223.26	0.3
223.635	0.15
224.011	0.22
224.386	0.23
224.762	0.22
225.137	0.22
225.513	0.16
225.888	0.07
226.264	0.1
226.639	0.31
227.014	0.13
227.39	0.31
227.765	0.28
228.14	0.17
228.516	0.18
228.891	0.29
229.266	0.29
229.641	0.21
230.017	0.22
230.392	0.23
230.767	0.11
231.142	0.24
231.517	0.12
231.892	0.06
232.267	0.29
232.642	0.18
233.017	0.15
233.392	0.23
233.767	0.27
234.142	0.14
234.517	0.13
234.892	0.09
235.267	0.24
235.641	0.18
236.016	0.2
236.391	0.23
236.766	0.22
237.14	0.21
237.515	0.15
237.89	0.13
238.264	0.18
238.639	0.24
239.014	0.18
239.388	0.15
239.763	0.23
240.137	0.23
240.512	0.22
240.886	0.25
241.261	0.25
241.635	0.14
242.009	0.14
242.384	0.1
242.758	0.17
243.132	0.27
243.507	0.22
243.881	0.18
244.255	0.18
244.629	0.11
245.004	0.25
245.378	0.14
245.752	0.12
246.126	0.19
246.5	0.2
246.874	0.21
247.248	0.2
247.622	0.15
247.996	0.23
248.37	0.14
248.744	0.14
249.118	0.15
249.492	0.18
249.866	0.23
250.24	0.24
250.613	0.16
250.987	0.18
251.361	0.2
251.735	0.18
252.108	0.19
252.482	0.2
252.856	0.14
253.229	0.19
253.603	0.17
253.977	0.22
254.35	0.19
254.724	0.19
255.097	0.18
255.471	0.2
255.844	0.16
256.218	0.21
256.591	0.21
256.964	0.19
257.338	0.17
257.711	0.22
258.084	0.17
258.458	0.27
258.831	0.24
259.204	0.22
259.577	0.32
259.95	0.14
260.323	0.29
260.697	0.19
261.07	0.17
261.443	0.19
261.816	0.23
262.189	0.29
262.562	0.24
262.935	0.33
263.308	0.17
263.68	0.38
264.053	0.29
264.426	0.2
264.799	0.2
265.172	0.18
265.545	0.12
265.917	0.21
266.29	0.15
266.663	0.21
267.035	0.22
267.408	0.3
267.781	0.2
268.153	0.23
268.526	0.16
268.898	0.21
269.271	0.24
269.643	0.1
270.016	0.23
270.388	0.2
270.76	0.23
271.133	0.25
271.505	0.26
271.877	0.13
272.25	0.19
272.622	0.16
272.994	0.2
273.366	0.23
273.739	0.24
274.111	0.14
274.483	0.2
274.855	0.2
275.227	0.2
275.599	0.23
275.971	0.18
276.343	0.22
276.715	0.22
277.087	0.22
277.459	0.08
277.831	0.24
278.203	0.27
278.574	0.23
278.946	0.18
279.318	0.18
279.69	0.18
280.061	0.24
280.433	0.11
280.805	0.16
281.176	0.22
281.548	0.21
281.92	0.19
282.291	0.21
282.663	0.24
283.034	0.14
283.406	0.18
283.777	0.24
284.148	0.2
284.52	0.23
284.891	0.29
285.262	0.32
285.634	0.14
286.005	0.24
286.376	0.14
286.747	0.18
287.119	0.23
287.49	0.21
287.861	0.2
288.232	0.2
288.603	0.18
288.974	0.21
289.345	0.21
289.716	0.19
290.087	0.23
290.458	0.21
290.829	0.16
291.2	0.13
291.571	0.18
291.941	0.18
292.312	0.24
292.683	0.22
293.054	0.18
293.424	0.27
293.795	0.24
294.166	0.21
294.536	0.21
294.907	0.15
295.277	0.19
295.648	0.16
296.018	0.22
296.389	0.23
296.759	0.22
297.13	0.19
297.5	0.21
297.871	0.24
298.241	0.21
298.611	0.23
298.981	0.21
299.352	0.17
299.722	0.25
300.092	0.26
300.462	0.13
300.832	0.15
301.202	0.25
301.573	0.18
301.943	0.27
302.313	0.22
302.683	0.16
303.053	0.15
303.422	0.14
303.792	0.16
304.162	0.16
304.532	0.12
304.902	0.15
305.272	0.12
305.641	0.11
306.011	0.16
306.381	0.12
306.75	0.11
307.12	0.12
307.49	0.11
307.859	0.12
308.229	0.11
308.598	0.11
308.968	0.12
309.337	0.11
309.707	0.13
310.076	0.12
310.445	0.13
310.815	0.13
311.184	0.12
311.553	0.15
311.923	0.12
312.292	0.12
312.661	0.13
313.03	0.12
313.399	0.13
313.768	0.14
314.137	0.14
314.506	0.14
314.875	0.14
315.244	0.14
315.613	0.16
315.982	0.16
316.351	0.16
316.72	0.16
317.089	0.16
317.458	0.17
317.826	0.15
318.195	0.17
318.564	0.17
318.933	0.17
319.301	0.17
319.67	0.18
320.038	0.18
320.407	0.19
320.775	0.18
321.144	0.19
321.512	0.19
321.881	0.2
322.249	0.19
322.618	0.2
322.986	0.2
323.354	0.21
323.723	0.21
324.091	0.2
324.459	0.2
324.827	0.22
325.195	0.21
325.564	0.22
325.932	0.23
326.3	0.23
326.668	0.23
327.036	0.24
327.404	0.24
327.772	0.24
328.14	0.25
328.508	0.25
328.875	0.25
329.243	0.25
329.611	0.26
329.979	0.26
330.346	0.26
330.714	0.28
331.082	0.27
331.449	0.28
331.817	0.29
332.185	0.28
332.552	0.3
332.92	0.31
333.287	0.3
333.655	0.31
334.022	0.31
334.389	0.32
334.757	0.33
335.124	0.33
335.491	0.34
335.859	0.35
336.226	0.35
336.593	0.36
336.96	0.37
337.327	0.37
337.695	0.38
338.062	0.38
338.429	0.39
338.796	0.4
339.163	0.41
339.53	0.41
339.897	0.42
340.263	0.42
340.63	0.43
340.997	0.44
341.364	0.44
341.731	0.46
342.097	0.46
342.464	0.47
342.831	0.47
343.197	0.49
343.564	0.49
343.931	0.5
344.297	0.51
344.664	0.51
345.03	0.52
345.396	0.53
345.763	0.54
346.129	0.55
346.496	0.55
346.862	0.56
347.228	0.57
347.594	0.58
347.961	0.58
348.327	0.6
348.693	0.6
349.059	0.61
349.425	0.61
349.791	0.62
350.157	0.62
350.523	0.64
350.889	0.64
351.255	0.65
351.621	0.66
351.987	0.66
352.353	0.68
352.719	0.68
353.084	0.69
353.45	0.7
353.816	0.71
354.181	0.71
354.547	0.73
354.913	0.73
355.278	0.74
355.644	0.75
356.009	0.76
356.375	0.77
356.74	0.77
357.106	0.79
357.471	0.79
357.836	0.8
358.202	0.82
358.567	0.83
358.932	0.84
359.297	0.85
359.663	0.87
360.028	0.87
360.393	0.89
360.758	0.89
361.123	0.91
361.488	0.93
361.853	0.94
362.218	0.96
362.583	0.95
362.948	0.97
363.312	0.98
363.677	1
364.042	1.01
364.407	1.02
364.772	1.03
365.136	1.02
365.501	1.05
365.865	1.05
366.23	1.07
366.595	1.09
366.959	1.08
367.324	1.09
367.688	1.1
368.052	1.1
368.417	1.12
368.781	1.13
369.145	1.13
369.51	1.14
369.874	1.15
370.238	1.16
370.602	1.16
370.967	1.17
371.331	1.18
371.695	1.18
372.059	1.18
372.423	1.18
372.787	1.19
373.151	1.18
373.515	1.17
373.878	1.18
374.242	1.17
374.606	1.16
374.97	1.16
375.334	1.16
375.697	1.15
376.061	1.13
376.425	1.12
376.788	1.11
377.152	1.11
377.515	1.09
377.879	1.09
378.242	1.07
378.606	1.06
378.969	1.05
379.333	1.04
379.696	1.02
380.059	1.01
380.422	1
380.786	0.99
381.149	0.99
381.512	0.97
381.875	0.96
382.238	0.95
382.601	0.94
382.964	0.93
383.327	0.92
383.69	0.91
384.053	0.91
384.416	0.91
384.779	0.89
385.142	0.9
385.504	0.87
385.867	0.89
386.23	0.88
386.593	0.88
386.955	0.88
387.318	0.87
387.68	0.87
388.043	0.87
388.405	0.88
388.768	0.88
389.13	0.86
389.493	0.87
389.855	0.86
390.217	0.86
390.58	0.85
390.942	0.84
391.304	0.84
391.666	0.82
392.028	0.82
392.391	0.81
392.753	0.8
393.115	0.79
393.477	0.78
393.839	0.77
394.201	0.76
394.563	0.76
394.924	0.76
395.286	0.77
395.648	0.77
396.01	0.77
396.371	0.78
396.733	0.79
397.095	0.8
397.456	0.82
397.818	0.84
398.18	0.86
398.541	0.87
398.903	0.91
399.264	0.91
399.625	0.94
399.987	0.95
400.348	0.98
400.709	0.99
401.071	1
401.432	1
401.793	1
402.154	0.99
402.515	0.99
402.876	0.97
403.238	0.96
403.599	0.94
403.96	0.91
404.32	0.87
404.681	0.84
405.042	0.81
405.403	0.77
405.764	0.74
406.125	0.7
406.485	0.67
406.846	0.64
407.207	0.6
407.567	0.57
407.928	0.53
408.288	0.51
408.649	0.48
409.009	0.45
409.37	0.43
409.73	0.4
410.091	0.38
410.451	0.36
410.811	0.34
411.171	0.32
411.532	0.31
411.892	0.29
412.252	0.28
412.612	0.26
412.972	0.25
413.332	0.24
413.692	0.24
414.052	0.22
414.412	0.22
414.772	0.2
415.132	0.19
415.492	0.19
415.851	0.18
416.211	0.18
416.571	0.18
416.931	0.17
417.29	0.16
417.65	0.15
418.009	0.15
418.369	0.15
418.728	0.14
419.088	0.14
419.447	0.14
419.807	0.13
420.166	0.13
420.525	0.13
420.884	0.12
421.244	0.12
421.603	0.12
421.962	0.13
422.321	0.12
422.68	0.11
423.039	0.11
423.398	0.11
423.757	0.11
424.116	0.11
424.475	0.11
424.834	0.11
425.193	0.1
425.551	0.1
425.91	0.11
426.269	0.09
426.628	0.1
426.986	0.1
427.345	0.1
427.703	0.09
428.062	0.1
428.42	0.1
428.779	0.09
429.137	0.1
429.496	0.1
429.854	0.1
430.212	0.1
430.57	0.09
430.929	0.09
431.287	0.1
431.645	0.09
432.003	0.09
432.361	0.09
432.719	0.09
433.077	0.09
433.435	0.09
433.793	0.09
434.151	0.09
434.509	0.09
434.866	0.09
435.224	0.09
435.582	0.08
435.94	0.08
436.297	0.09
436.655	0.09
437.012	0.08
437.37	0.09
437.727	0.08
438.085	0.09
438.442	0.08
438.8	0.08
439.157	0.09
439.514	0.09
439.872	0.08
440.229	0.1
440.586	0.08
440.943	0.08
441.3	0.08
441.657	0.09
442.014	0.08
442.371	0.08
442.728	0.08
443.085	0.08
443.442	0.09
443.799	0.09
444.156	0.09
444.513	0.09
444.869	0.09
445.226	0.08
445.583	0.09
445.939	0.08
446.296	0.09
446.652	0.09
447.009	0.09
447.365	0.09
447.722	0.09
448.078	0.09
448.434	0.09
448.791	0.09
449.147	0.09
449.503	0.09
449.859	0.09
450.215	0.09
450.571	0.1
450.928	0.1
451.284	0.09
451.64	0.09
451.995	0.1
452.351	0.09
452.707	0.1
453.063	0.1
453.419	0.1
453.775	0.1
454.13	0.1
454.486	0.1
454.842	0.1
455.197	0.1
455.553	0.09
455.908	0.1
456.264	0.1
456.619	0.1
456.975	0.1
457.33	0.11
457.685	0.11
458.04	0.11
458.396	0.1
458.751	0.11
459.106	0.11
459.461	0.1
459.816	0.11
460.171	0.11
460.526	0.11
460.881	0.11
461.236	0.11
461.591	0.11
461.946	0.11
462.301	0.11
462.655	0.11
463.01	0.11
463.365	0.12
463.719	0.12
464.074	0.11
464.428	0.12
464.783	0.11
465.137	0.12
465.492	0.12
465.846	0.12
466.201	0.12
466.555	0.12
466.909	0.13
467.263	0.13
467.618	0.13
467.972	0.12
468.326	0.13
468.68	0.13
469.034	0.13
469.388	0.13
469.742	0.14
470.096	0.13
470.45	0.13
470.804	0.14
471.157	0.14
471.511	0.14
471.865	0.15
472.218	0.14
472.572	0.15
472.926	0.15
473.279	0.15
473.633	0.16
473.986	0.16
474.34	0.16
474.693	0.17
475.046	0.17
475.4	0.17
475.753	0.17
476.106	0.18
476.459	0.17
476.812	0.17
477.165	0.18
477.519	0.19
477.872	0.18
478.224	0.18
478.577	0.19
478.93	0.19
479.283	0.2
479.636	0.2
479.989	0.2
480.341	0.2
480.694	0.2
481.047	0.21
481.399	0.21
481.752	0.21
482.104	0.21
482.457	0.21
482.809	0.22
483.162	0.22
483.514	0.22
483.866	0.23
484.219	0.23
484.571	0.23
484.923	0.23
485.275	0.24
485.627	0.24
485.979	0.24
486.331	0.24
486.683	0.25
487.035	0.24
487.387	0.25
487.739	0.25
488.091	0.25
488.443	0.25
488.794	0.25
489.146	0.26
489.498	0.26
489.849	0.26
490.201	0.26
490.552	0.27
490.904	0.27
491.255	0.27
491.607	0.28
491.958	0.28
492.309	0.27
492.661	0.28
493.012	0.28
493.363	0.29
493.714	0.29
494.065	0.29
494.416	0.3
494.767	0.29
495.118	0.29
495.469	0.3
495.82	0.3
496.171	0.3
496.522	0.31
496.872	0.31
497.223	0.31
497.574	0.32
497.924	0.32
498.275	0.32
498.626	0.32
498.976	0.32
499.327	0.32
499.677	0.33
500.027	0.33
500.378	0.34
500.728	0.33
501.078	0.34
501.428	0.34
501.779	0.34
502.129	0.34
502.479	0.35
502.829	0.34
503.179	0.35
503.529	0.35
503.879	0.35
504.229	0.36
504.578	0.36
504.928	0.36
505.278	0.36
505.628	0.36
505.977	0.37
506.327	0.37
506.676	0.37
507.026	0.37
507.375	0.38
507.725	0.38
508.074	0.39
508.424	0.38
508.773	0.38
509.122	0.39
509.471	0.39
509.82	0.39
510.17	0.4
510.519	0.4
510.868	0.4
511.217	0.4
511.566	0.4
511.915	0.4
512.263	0.41
512.612	0.4
512.961	0.41
513.31	0.41
513.659	0.41
514.007	0.42
514.356	0.42
514.704	0.42
515.053	0.43
515.401	0.43
515.75	0.43
516.098	0.43
516.447	0.43
516.795	0.44
517.143	0.43
517.491	0.44
517.839	0.44
518.188	0.44
518.536	0.44
518.884	0.44
519.232	0.44
519.58	0.45
519.928	0.45
520.275	0.45
520.623	0.46
520.971	0.45
521.319	0.46
521.666	0.46
522.014	0.46
522.362	0.46
522.709	0.46
523.057	0.46
523.404	0.46
523.752	0.47
524.099	0.47
524.446	0.47
524.794	0.47
525.141	0.47
525.488	0.48
525.835	0.48
526.182	0.48
526.529	0.48
526.876	0.48
527.223	0.48
527.57	0.49
527.917	0.49
528.264	0.49
528.611	0.49
528.958	0.49
529.304	0.49
529.651	0.49
529.998	0.5
530.344	0.5
530.691	0.49
531.037	0.5
531.384	0.5
531.73	0.5
532.076	0.51
532.423	0.51
532.769	0.5
533.115	0.51
533.461	0.51
533.807	0.51
534.154	0.51
534.5	0.51
534.846	0.52
535.192	0.52
535.537	0.51
535.883	0.52
536.229	0.52
536.575	0.52
536.921	0.52
537.266	0.52
537.612	0.52
537.957	0.52
538.303	0.52
538.649	0.53
538.994	0.53
539.339	0.53
539.685	0.53
540.03	0.53
540.375	0.53
540.721	0.53
541.066	0.53
541.411	0.53
541.756	0.53
542.101	0.53
542.446	0.53
542.791	0.53
543.136	0.53
543.481	0.54
543.825	0.54
544.17	0.54
544.515	0.54
544.86	0.54
545.204	0.54
545.549	0.54
545.893	0.54
546.238	0.54
546.582	0.54
546.927	0.54
547.271	0.54
547.615	0.55
547.96	0.54
548.304	0.54
548.648	0.55
548.992	0.55
549.336	0.55
549.68	0.55
550.024	0.55
550.368	0.54
550.712	0.55
551.056	0.55
551.4	0.55
551.743	0.55
552.087	0.55
552.431	0.55
552.774	0.55
553.118	0.55
553.462	0.55
553.805	0.55
554.148	0.55
554.492	0.55
554.835	0.55
555.178	0.55
555.522	0.55
555.865	0.55
556.208	0.55
556.551	0.55
556.894	0.55
557.237	0.55
557.58	0.55
557.923	0.55
558.266	0.55
558.609	0.55
558.952	0.55
559.294	0.55
559.637	0.55
559.98	0.55
560.322	0.55
560.665	0.55
561.007	0.55
561.35	0.55
561.692	0.54
562.034	0.55
562.377	0.54
562.719	0.55
563.061	0.54
563.403	0.55
563.745	0.54
564.088	0.55
564.43	0.54
564.772	0.54
565.113	0.54
565.455	0.54
565.797	0.54
566.139	0.54
566.481	0.54
566.822	0.54
567.164	0.54
567.506	0.54
567.847	0.54
568.189	0.54
568.53	0.54
568.872	0.54
569.213	0.54
569.554	0.54
569.895	0.53
570.237	0.53
570.578	0.53
570.919	0.53
571.26	0.53
571.601	0.53
571.942	0.53
572.283	0.52
572.624	0.52
572.965	0.52
573.306	0.52
573.646	0.51
573.987	0.51
574.328	0.51
574.668	0.52
575.009	0.51
575.349	0.51
575.69	0.51
576.03	0.5
576.37	0.5
576.711	0.49
577.051	0.5
577.391	0.5
577.731	0.5
578.072	0.5
578.412	0.5
578.752	0.5
579.092	0.49
579.431	0.47
579.771	0.45
580.111	0.43
580.451	0.44
580.791	0.47
581.13	0.48
581.47	0.49
581.81	0.49
582.149	0.49
582.489	0.49
582.828	0.47
583.167	0.43
583.507	0.4
583.846	0.38
584.185	0.4
584.525	0.43
584.864	0.46
585.203	0.48
585.542	0.49
585.881	0.49
586.22	0.49
586.559	0.48
586.898	0.46
587.236	0.44
587.575	0.44
587.914	0.45
588.252	0.47
588.591	0.47
588.93	0.47
589.268	0.47
589.607	0.47
589.945	0.47
590.283	0.47
590.622	0.47
590.96	0.48
591.298	0.48
591.636	0.48
591.974	0.48
592.313	0.49
592.651	0.49
592.989	0.49
593.326	0.49
593.664	0.49
594.002	0.49
594.34	0.48
594.678	0.48
595.015	0.47
595.353	0.45
595.691	0.46
596.028	0.48
596.366	0.48
596.703	0.48
597.04	0.48
597.378	0.48
597.715	0.48
598.052	0.49
598.389	0.49
598.726	0.49
599.064	0.49
599.401	0.49
599.738	0.49
600.074	0.48
600.411	0.48
600.748	0.48
601.085	0.47
601.422	0.46
601.758	0.46
602.095	0.47
602.432	0.47
602.768	0.47
603.105	0.47
603.441	0.48
603.777	0.48
604.114	0.48
604.45	0.48
604.786	0.49
605.122	0.48
605.459	0.48
605.795	0.47
606.131	0.47
606.467	0.48
606.803	0.47
607.139	0.47
607.474	0.47
607.81	0.47
608.146	0.47
608.482	0.46
608.817	0.46
609.153	0.46
609.488	0.46
609.824	0.46
610.159	0.46
610.495	0.46
610.83	0.47
611.165	0.46
611.5	0.46
611.836	0.46
612.171	0.46
612.506	0.46
612.841	0.46
613.176	0.46
613.511	0.45
613.845	0.45
614.18	0.45
614.515	0.45
614.85	0.45
615.184	0.45
615.519	0.45
615.854	0.45
616.188	0.45
616.523	0.44
616.857	0.44
617.191	0.44
617.526	0.43
617.86	0.43
618.194	0.43
618.528	0.43
618.862	0.43
619.196	0.43
619.53	0.43
619.864	0.44
620.198	0.43
620.532	0.43
620.866	0.43
621.2	0.43
621.533	0.42
621.867	0.42
622.201	0.42
622.534	0.42
622.868	0.42
623.201	0.41
623.534	0.41
623.868	0.41
624.201	0.41
624.534	0.41
624.868	0.41
625.201	0.4
625.534	0.4
625.867	0.4
626.2	0.4
626.533	0.4
626.865	0.4
627.198	0.39
627.531	0.39
627.864	0.39
628.196	0.39
628.529	0.39
628.862	0.39
629.194	0.39
629.527	0.38
629.859	0.38
630.191	0.37
630.524	0.37
630.856	0.37
631.188	0.37
631.52	0.36
631.852	0.36
632.184	0.36
632.516	0.36
632.848	0.36
633.18	0.36
633.512	0.35
633.844	0.35
634.175	0.35
634.507	0.35
634.839	0.35
635.17	0.34
635.502	0.34
635.833	0.34
636.165	0.34
636.496	0.34
636.827	0.34
637.159	0.34
637.49	0.33
637.821	0.33
638.152	0.33
638.483	0.33
638.814	0.32
639.145	0.32
639.476	0.32
639.807	0.32
640.137	0.31
640.468	0.31
640.799	0.31
641.129	0.31
641.46	0.3
641.791	0.3
642.121	0.3
642.451	0.3
642.782	0.3
643.112	0.29
643.442	0.29
643.773	0.29
644.103	0.29
644.433	0.29
644.763	0.28
645.093	0.28
645.423	0.28
645.753	0.28
646.082	0.28
646.412	0.28
646.742	0.28
647.072	0.28
647.401	0.27
647.731	0.27
648.06	0.27
648.39	0.27
648.719	0.27
649.048	0.27
649.378	0.27
649.707	0.27
650.036	0.27
650.365	0.27
650.694	0.26
651.023	0.26
651.352	0.26
651.681	0.26
652.01	0.26
652.339	0.26
652.668	0.26
652.996	0.26
653.325	0.26
653.654	0.26
653.982	0.25
654.311	0.25
654.639	0.25
654.967	0.25
655.296	0.25
655.624	0.25
655.952	0.25
656.28	0.25
656.609	0.25
656.937	0.25
657.265	0.25
657.593	0.12
657.92	0.02
658.248	0
658.576	0
658.904	0.07
659.231	0.15
659.559	0.21
659.887	0.23
660.214	0.23
660.542	0.24
660.869	0.24
661.196	0.24
661.524	0.23
661.851	0.23
662.178	0.23
662.505	0.23
662.832	0.23
663.159	0.23
663.486	0.23
663.813	0.23
664.14	0.23
664.467	0.23
664.794	0.23
665.12	0.22
665.447	0.22
665.774	0.22
666.1	0.22
666.427	0.22
666.753	0.22
667.079	0.22
667.406	0.22
667.732	0.21
668.058	0.21
668.384	0.21
668.71	0.22
669.036	0.22
669.362	0.22
669.688	0.21
670.014	0.21
670.34	0.21
670.666	0.21
670.991	0.2
671.317	0.2
671.643	0.2
671.968	0.2
672.294	0.2
672.619	0.2
672.945	0.19
673.27	0.19
673.595	0.19
673.92	0.19
674.246	0.19
674.571	0.19
674.896	0.19
675.221	0.18
675.546	0.18
675.87	0.18
676.195	0.18
676.52	0.18
676.845	0.18
677.169	0.18
677.494	0.18
677.819	0.18
678.143	0.17
678.468	0.17
678.792	0.17
679.116	0.17
679.44	0.17
679.765	0.17
680.089	0.16
680.413	0.16
680.737	0.16
681.061	0.15
681.385	0.16
681.709	0.15
682.033	0.15
682.356	0.15
682.68	0.15
683.004	0.15
683.327	0.14
683.651	0.14
683.974	0.14
684.298	0.14
684.621	0.14
684.944	0.14
685.268	0.13
685.591	0.13
685.914	0.13
686.237	0.13
686.56	0.13
686.883	0.12
687.206	0.11
687.529	0.11
687.852	0.11
688.175	0.11
688.497	0.11
688.82	0.11
689.142	0.11
689.465	0.11
689.787	0.11
690.11	0.11
690.432	0.11
690.755	0.11
691.077	0.11
691.399	0.1
691.721	0.1
692.043	0.1
692.365	0.1
692.687	0.1
693.009	0.09
693.331	0.09
693.653	0.08
693.974	0.09
694.296	0.08
694.618	0.08
694.939	0.08
695.261	0.08
695.582	0.08
695.904	0.08
696.225	0.08
696.546	0.08
696.868	0.08
697.189	0.08
697.51	0.08
697.831	0.08
698.152	0.08
698.473	0.08
698.794	0.07
699.114	0.06
699.435	0.05
699.756	0.05
700.077	0.06
700.397	0.06
700.718	0.06
701.038	0.07
701.359	0.07
701.679	0.07
701.999	0.07
702.32	0.07
702.64	0.06
702.96	0.07
703.28	0.07
703.6	0.07
703.92	0.06
704.24	0.06
704.56	0.05
704.879	0.05
705.199	0.06
705.519	0.05
705.838	0.06
706.158	0.06
706.478	0.05
706.797	0.06
707.116	0.06
707.436	0.06
707.755	0.06
708.074	0.06
708.393	0.05
708.712	0.04
709.031	0.03
709.35	0.03
709.669	0.03
709.988	0.03
710.307	0.03
710.626	0.04
710.944	0.04
711.263	0.04
711.582	0.05
711.9	0.05
712.219	0.04
712.537	0.05
712.855	0.05
713.174	0.04
713.492	0.04
713.81	0.05
714.128	0.05
714.446	0.05
714.764	0.04
715.082	0.04
715.4	0.04
715.718	0.04
716.035	0.04
716.353	0.04
716.671	0.04
716.988	0.04
717.306	0.04
717.623	0.04
717.941	0.05
718.258	0.05
718.575	0.06
718.893	0.06
719.21	0.05
719.527	0.06
719.844	0.05
720.161	0.06
720.478	0.05
720.795	0.05
721.112	0.05
721.428	0.06
721.745	0.06
722.062	0.06
722.378	0.06
722.695	0.06
723.011	0.06
723.328	0.06
723.644	0.07
723.96	0.07
724.276	0.07
724.593	0.07
724.909	0.07
725.225	0.06
725.541	0.07
725.857	0.07
726.173	0.07
726.488	0.07
726.804	0.07
727.12	0.07
727.435	0.06
727.751	0.07
728.067	0.06
728.382	0.07
728.697	0.07
729.013	0.07
729.328	0.06
729.643	0.07
729.958	0.07
730.273	0.07
730.588	0.06
730.903	0.07
731.218	0.07
731.533	0.07
731.848	0.06
732.163	0.06
732.477	0.06
732.792	0.06
733.107	0.05
733.421	0.06
733.736	0.06
734.05	0.06
734.364	0.06
734.678	0.06
734.993	0.06
735.307	0.06
735.621	0.06
735.935	0.06
736.249	0.06
736.563	0.06
736.877	0.06
737.19	0.07
737.504	0.06
737.818	0.06
738.131	0.06
738.445	0.07
738.758	0.07
739.072	0.06
739.385	0.07
739.698	0.06
740.012	0.07
740.325	0.07
740.638	0.06
740.951	0.06
741.264	0.06
741.577	0.06
741.89	0.06
742.203	0.06
742.515	0.06
742.828	0.06
743.141	0.06
743.453	0.06
743.766	0.06
744.078	0.06
744.391	0.06
744.703	0.05
745.015	0.06
745.327	0.06
745.639	0.06
745.952	0.05
746.264	0.05
746.575	0.05
746.887	0.05
747.199	0.05
747.511	0.05
747.823	0.05
748.134	0.05
748.446	0.05
748.757	0.05
749.069	0.05
749.38	0.05
749.692	0.05
750.003	0.05
750.314	0.05
750.625	0.05
750.936	0.05
751.248	0.04
751.559	0.05
751.869	0.04
752.18	0.04
752.491	0.04
752.802	0.04
753.112	0.04
753.423	0.04
753.734	0.04
754.044	0.04
754.355	0.04
754.665	0.04
754.975	0.04
755.285	0.03
755.596	0.04
755.906	0.04
756.216	0.03
756.526	0.03
756.836	0.04
757.146	0.03
757.455	0.03
757.765	0.03
758.075	0.03
758.385	0.03
758.694	0.03
759.004	0.03
759.313	0.02
759.622	0.02
759.932	0.03
760.241	0.03
760.55	0.03
760.859	0.03
761.168	0.03
761.477	0.03
761.786	0.03
762.095	0.03
762.404	0.03
762.713	0.03
763.021	0.03
763.33	0.03
763.639	0.03
763.947	0.03
764.256	0.03
764.564	0.03
764.872	0.03
765.181	0.03
765.489	0.03
765.797	0.03
766.105	0.03
766.413	0.03
766.721	0.03
767.029	0.03
767.337	0.03
767.644	0.03
767.952	0.03
768.26	0.03
768.567	0.04
768.875	0.03
769.182	0.03
769.49	0.04
769.797	0.03
770.104	0.03
770.411	0.03
770.718	0.03
771.026	0.03
771.333	0.03
771.639	0.03
771.946	0.03
772.253	0.03
772.56	0.03
772.867	0.03
773.173	0.03
773.48	0.03
773.786	0.03
774.093	0.03
774.399	0.03
774.705	0.03
775.012	0.03
775.318	0.04
775.624	0.04
775.93	0.04
776.236	0.04
776.542	0.04
776.848	0.04
777.154	0.04
777.459	0.04
777.765	0.04
778.071	0.04
778.376	0.04
778.682	0.04
778.987	0.04
779.292	0.04
779.598	0.03
779.903	0.04
780.208	0.03
780.513	0.04
780.818	0.03
781.123	0.03
781.428	0.04
781.733	0.04
782.038	0.04
782.343	0.03
782.647	0.04
782.952	0.04
783.256	0.04
783.561	0.04
783.865	0.04
784.17	0.04
784.474	0.04
784.778	0.03
785.082	0.03
785.386	0.04
785.69	0.03
785.994	0.04
786.298	0.04
786.602	0.04
786.906	0.04
787.209	0.04
787.513	0.04
787.817	0.04
788.12	0.04
788.424	0.03
788.727	0.04
789.03	0.04
789.333	0.04
789.637	0.04
789.94	0.05
790.243	0.04
790.546	0.05
790.849	0.05
791.152	0.05
791.454	0.05
791.757	0.05
792.06	0.04
792.362	0.04
792.665	0.04
792.967	0.04
793.27	0.04
793.572	0.04
793.874	0.04
794.177	0.04
794.479	0.04
794.781	0.04
795.083	0.04
795.385	0.04
795.687	0.04
795.989	0.04
796.29	0.04
796.592	0.04
796.894	0.04
797.195	0.04
797.497	0.04
797.798	0.04
798.1	0.04
798.401	0.04
798.702	0.04
799.003	0.04
799.304	0.04
799.605	0.04
799.906	0.04
800.207	0.04
800.508	0.05
800.809	0.04
801.11	0.04
801.41	0.04
801.711	0.04
802.011	0.05
802.312	0.05
802.612	0.04
802.913	0.05
803.213	0.04
803.513	0.04
803.813	0.04
804.113	0.05
804.413	0.04
804.713	0.05
805.013	0.04
805.313	0.05
805.613	0.04
805.912	0.04
806.212	0.04
806.511	0.04
806.811	0.04
807.11	0.04
807.41	0.04
807.709	0.04
808.008	0.04
808.307	0.04
808.606	0.04
808.905	0.05
809.204	0.04
809.503	0.04
809.802	0.04
810.101	0.04
810.399	0.04
810.698	0.04
810.997	0.04
811.295	0.04
811.593	0.05
811.892	0.05
812.19	0.05
812.488	0.05
812.786	0.05
813.084	0.05
813.383	0.05
813.68	0.05
813.978	0.05
814.276	0.05
814.574	0.05
814.872	0.05
815.169	0.05
815.467	0.05
815.764	0.05
816.062	0.05
816.359	0.06
816.656	0.05
816.954	0.05
817.251	0.05
817.548	0.05
817.845	0.05
818.142	0.05
818.439	0.05
818.735	0.04
819.032	0.05
819.329	0.04
819.626	0.05
819.922	0.05
820.219	0.05
820.515	0.05
820.811	0.04
821.108	0.05
821.404	0.05
821.7	0.05
821.996	0.05
822.292	0.06
822.588	0.06
822.884	0.06
823.18	0.06
823.475	0.06
823.771	0.06
824.067	0.06
824.362	0.05
824.658	0.06
824.953	0.07
825.249	0.06
825.544	0.07
825.839	0.06
826.134	0.06
826.429	0.06
826.724	0.06
827.019	0.05
827.314	0.05
827.609	0.06
827.904	0.05
828.198	0.06
828.493	0.05
828.787	0.05
829.082	0.06
829.376	0.06
829.671	0.06
829.965	0.06
830.259	0.06
830.553	0.05
830.847	0.06
831.141	0.06
831.435	0.07
831.729	0.06
832.023	0.06
832.317	0.06
832.61	0.05
832.904	0.06
833.197	0.06
833.491	0.06
833.784	0.05
834.077	0.06
834.371	0.06
834.664	0.06
834.957	0.06
835.25	0.07
835.543	0.07
835.836	0.06
836.129	0.07
836.421	0.07
836.714	0.06
837.007	0.06
837.299	0.06
837.592	0.06
837.884	0.06
838.177	0.06
838.469	0.07
838.761	0.07
839.053	0.07
839.345	0.07
839.637	0.07
839.929	0.07
840.221	0.08
840.513	0.07
840.805	0.07
841.096	0.07
841.388	0.07
841.68	0.07
841.971	0.07
842.262	0.07
842.554	0.07
842.845	0.07
843.136	0.07
843.427	0.07
843.718	0.07
844.009	0.07
844.3	0.08
844.591	0.07
844.882	0.07
845.173	0.08
845.463	0.07
845.754	0.08
846.044	0.08
846.335	0.08
846.625	0.08
846.915	0.08
847.206	0.07
847.496	0.08
847.786	0.08
848.076	0.09
848.366	0.07
848.656	0.08
848.945	0.06
849.235	0.06
849.525	0.07
849.814	0.08
850.104	0.08
850.393	0.07
850.683	0.07
850.972	0.07
851.261	0.07
851.551	0.07
851.84	0.07
852.129	0.08
852.418	0.07
852.707	0.07
852.995	0.07
853.284	0.07
853.573	0.08
853.862	0.07
854.15	0.08
854.439	0.08
854.727	0.09
855.015	0.09
855.304	0.08
855.592	0.08
855.88	0.09
856.168	0.07
856.456	0.09
856.744	0.09
857.032	0.09
857.32	0.08
857.607	0.08
857.895	0.08
858.183	0.09
858.47	0.09
858.757	0.08
859.045	0.08
859.332	0.1
859.619	0.09
859.907	0.1
860.194	0.09
860.481	0.09
860.768	0.07
861.054	0.08
861.341	0.07
861.628	0.09
861.915	0.11
862.201	0.08
862.488	0.09
862.774	0.08
863.061	0.07
863.347	0.09
863.633	0.07
863.919	0.07
864.205	0.07
864.491	0.09
864.777	0.09
865.063	0.09
865.349	0.08
865.635	0.08
865.92	0.09
866.206	0.06
866.492	0.06
866.777	0.06
867.062	0.07
867.348	0.05
867.633	0.06
867.918	0.1
868.203	0.06
868.488	0.1
868.773	0.09
869.058	0.1
869.343	0.1
869.628	0.07
869.912	0.08
870.197	0.1
870.482	0.06
870.766	0.08
871.05	0.05
871.335	0.05
871.619	0.09
871.903	0.04
872.187	0.1
872.471	0.06
872.755	0.09
873.039	0.08
873.323	0.07
873.607	0.04
873.89	0.05
874.174	0.02
874.458	0.03
874.741	0.08
875.024	0.07
875.308	0.05
875.591	0.12
875.874	0.11
876.157	0.05
876.44	0.01
876.723	0.05
877.006	0.11
877.289	0.09
877.572	0.07
877.854	0.03
878.137	0.05
878.42	0.02
878.702	0.06
878.984	0.12
879.267	0.08
879.549	0.03
879.831	0.12
880.113	0.04
880.395	0.08
880.677	0.1
880.959	0.07
