Data from Rubpy_BV_900_EDTA_Buffered_Absorbance_12-56-39-839.txt Node
Date: Wed Jul 01 12:56:39 BST 2026
User: fpm-admin
Spectrometer: OFX00224
Trigger mode: 0
Integration Time (sec): 7.000000E-2
Scans to average: 3
Nonlinearity correction enabled: false
Boxcar width: 0
Storing dark spectrum: false
XAxis mode: Wavelengths
Number of Pixels in Spectrum: 2136
>>>>>Begin Spectral Data<<<<<
154.91	-0
155.289	0.25
155.669	0.19
156.048	-0
156.428	0.3
156.807	0.18
157.186	0.33
157.566	0.45
157.945	0.63
158.325	-0.43
158.704	-0.36
159.083	-0
159.462	-0
159.842	0.21
160.221	-0
160.6	-0
160.979	0.85
161.359	-0
161.738	-0.18
162.117	-0
162.496	-0
162.875	0.07
163.254	-0
163.633	0.05
164.012	-0.24
164.391	0.65
164.77	-0.72
165.149	0.34
165.528	-0.35
165.907	-1.06
166.286	-0.35
166.665	-0.4
167.044	-0.55
167.423	-0.44
167.802	0.14
168.181	-0
168.559	0.3
168.938	-0.22
169.317	0.35
169.696	0.06
170.074	-0
170.453	0.02
170.832	-0
171.21	0.29
171.589	1.04
171.968	-0
172.346	-0.06
172.725	0.81
173.103	0.18
173.482	-0
173.861	-0
174.239	-0
174.617	-0
174.996	1.19
175.374	-0
175.753	0.2
176.131	-0
176.51	-0.07
176.888	0.06
177.266	0.29
177.645	-0.13
178.023	0.09
178.401	0.05
178.779	-0.12
179.158	-0.94
179.536	-0.33
179.914	1.04
180.292	-0.95
180.67	0.46
181.048	-0.26
181.427	0.16
181.805	-1
182.183	-0
182.561	-0
182.939	-0
183.317	-0.89
183.695	-0
184.073	-0.98
184.451	0.44
184.829	-0
185.206	-0.8
185.584	-0.48
185.962	-0
186.34	0.6
186.718	-0
187.096	-0.75
187.473	-0
187.851	0.21
188.229	-0
188.607	-0.02
188.984	0.06
189.362	0.06
189.74	-0.03
190.117	-0.03
190.495	0.02
190.872	0.05
191.25	-0.03
191.627	0.01
192.005	-0.01
192.382	0.09
192.76	0.02
193.137	0.07
193.515	0.08
193.892	0.06
194.269	0.06
194.647	0.01
195.024	0.07
195.401	-0.04
195.779	0.02
196.156	0.03
196.533	0.1
196.91	-0.01
197.288	-0.01
197.665	-0.05
198.042	-0.06
198.419	0.01
198.796	0.06
199.173	0.14
199.55	0.11
199.927	-0.03
200.304	-0.01
200.681	0
201.058	0.05
201.435	0.02
201.812	0.16
202.189	-0.03
202.566	0.05
202.943	0.06
203.32	0.07
203.697	0
204.073	-0.03
204.45	-0.12
204.827	-0
205.204	-0
205.58	0.02
205.957	0.16
206.334	0.16
206.71	0.1
207.087	-0.02
207.464	-0.01
207.84	-0.02
208.217	-0.02
208.593	-0.06
208.97	0.1
209.346	0.04
209.723	0.01
210.099	0.05
210.476	0.05
210.852	0.06
211.228	0.08
211.605	0.02
211.981	-0.01
212.357	-0.03
212.733	0.03
213.11	0.07
213.486	0
213.862	-0.04
214.238	0.01
214.614	0.12
214.991	0.04
215.367	0.01
215.743	0.06
216.119	0.05
216.495	0.03
216.871	0.01
217.247	0.01
217.623	0.05
217.999	0.05
218.375	0.01
218.751	0.02
219.127	0.06
219.502	0.02
219.878	0.04
220.254	0.03
220.63	-0
221.006	-0.02
221.381	0.12
221.757	0.1
222.133	-0.02
222.508	-0
222.884	0.04
223.26	0.09
223.635	0.04
224.011	0.05
224.386	0.12
224.762	0.06
225.137	-0.01
225.513	0.04
225.888	-0.04
226.264	0.08
226.639	0.14
227.014	-0.04
227.39	-0.01
227.765	0.06
228.14	-0.02
228.516	0.01
228.891	0.07
229.266	0.09
229.641	-0.05
230.017	-0.01
230.392	0.05
230.767	0.04
231.142	0.06
231.517	0.01
231.892	-0.1
232.267	0.05
232.642	-0.04
233.017	0.02
233.392	0.05
233.767	0.09
234.142	0.06
234.517	0.02
234.892	-0.06
235.267	0.04
235.641	0.02
236.016	0.04
236.391	0.07
236.766	0.02
237.14	0.01
237.515	-0.02
237.89	0.01
238.264	0.02
238.639	0.01
239.014	0.07
239.388	-0.01
239.763	0.02
240.137	0.03
240.512	0.09
240.886	0.07
241.261	0.04
241.635	0.03
242.009	0.03
242.384	0.01
242.758	0
243.132	0.05
243.507	-0
243.881	0.02
244.255	0.01
244.629	0.02
245.004	0.06
245.378	0.11
245.752	0.01
246.126	0
246.5	0.04
246.874	0.04
247.248	0.03
247.622	-0.02
247.996	0.06
248.37	0.05
248.744	0.04
249.118	0.02
249.492	0.08
249.866	0.06
250.24	0.06
250.613	0.05
250.987	-0
251.361	0.02
251.735	0.05
252.108	0.02
252.482	0.04
252.856	-0.08
253.229	0.04
253.603	0.04
253.977	0.05
254.35	0.02
254.724	0.02
255.097	0.02
255.471	0.04
255.844	0.03
256.218	0.08
256.591	0.06
256.964	-0.04
257.338	-0.01
257.711	0.03
258.084	-0.02
258.458	0.05
258.831	0.06
259.204	0.05
259.577	0.08
259.95	0.07
260.323	0.13
260.697	0.05
261.07	0.01
261.443	0.01
261.816	0.01
262.189	0.08
262.562	0.14
262.935	0.09
263.308	0
263.68	0.1
264.053	0.16
264.426	0.02
264.799	0.13
265.172	0.09
265.545	-0.04
265.917	0.05
266.29	-0.03
266.663	0.03
267.035	0.11
267.408	0.1
267.781	-0.02
268.153	0.02
268.526	0.02
268.898	0.03
269.271	0.03
269.643	-0.01
270.016	0.06
270.388	0.08
270.76	0.06
271.133	0.03
271.505	0.07
271.877	-0
272.25	-0.01
272.622	0.02
272.994	0.04
273.366	0.02
273.739	0.01
274.111	0.02
274.483	0.03
274.855	0.02
275.227	0.07
275.599	0.06
275.971	0.1
276.343	0.04
276.715	0.04
277.087	0
277.459	-0.02
277.831	0.07
278.203	0.02
278.574	0.08
278.946	0.03
279.318	0.05
279.69	0.07
280.061	0.09
280.433	-0.01
280.805	0.02
281.176	0.06
281.548	-0.02
281.92	0.06
282.291	0.03
282.663	-0
283.034	0.04
283.406	0.03
283.777	0.09
284.148	-0.01
284.52	0.13
284.891	0.02
285.262	0.07
285.634	0.06
286.005	0.05
286.376	0.02
286.747	0.06
287.119	0.03
287.49	0.05
287.861	0.07
288.232	0.06
288.603	0.04
288.974	0.1
289.345	0.01
289.716	0.06
290.087	0.06
290.458	0.06
290.829	0.06
291.2	0
291.571	0.07
291.941	0.01
292.312	0.13
292.683	0.06
293.054	0.03
293.424	0.07
293.795	0.05
294.166	0.05
294.536	0.06
294.907	0.06
295.277	0.04
295.648	0.05
296.018	0.05
296.389	0.06
296.759	0.04
297.13	0.03
297.5	0.04
297.871	0.07
298.241	0.04
298.611	0.03
298.981	0.04
299.352	0.03
299.722	0.05
300.092	0.08
300.462	0.03
300.832	0.03
301.202	0.03
301.573	0.01
301.943	0.07
302.313	0.03
302.683	0.05
303.053	0.06
303.422	-0.01
303.792	0.03
304.162	-0
304.532	0.04
304.902	0.08
305.272	0.03
305.641	0.03
306.011	0.07
306.381	0.04
306.75	0.04
307.12	0.03
307.49	0
307.859	0.04
308.229	0.03
308.598	0.04
308.968	0.04
309.337	0.03
309.707	0.02
310.076	0.02
310.445	0.03
310.815	0.04
311.184	0.03
311.553	0.03
311.923	0.02
312.292	0.03
312.661	0.03
313.03	0.02
313.399	0.01
313.768	0.02
314.137	0.03
314.506	0.03
314.875	0.03
315.244	0.03
315.613	0.04
315.982	0.04
316.351	0.05
316.72	0.04
317.089	0.04
317.458	0.04
317.826	0.03
318.195	0.04
318.564	0.04
318.933	0.04
319.301	0.03
319.67	0.04
320.038	0.05
320.407	0.05
320.775	0.05
321.144	0.05
321.512	0.04
321.881	0.04
322.249	0.04
322.618	0.04
322.986	0.04
323.354	0.05
323.723	0.04
324.091	0.05
324.459	0.05
324.827	0.04
325.195	0.04
325.564	0.05
325.932	0.04
326.3	0.05
326.668	0.05
327.036	0.05
327.404	0.05
327.772	0.05
328.14	0.05
328.508	0.04
328.875	0.05
329.243	0.05
329.611	0.05
329.979	0.05
330.346	0.05
330.714	0.06
331.082	0.05
331.449	0.05
331.817	0.06
332.185	0.05
332.552	0.06
332.92	0.06
333.287	0.05
333.655	0.07
334.022	0.06
334.389	0.07
334.757	0.06
335.124	0.06
335.491	0.07
335.859	0.07
336.226	0.07
336.593	0.07
336.96	0.07
337.327	0.07
337.695	0.07
338.062	0.08
338.429	0.08
338.796	0.07
339.163	0.08
339.53	0.08
339.897	0.08
340.263	0.08
340.63	0.09
340.997	0.09
341.364	0.08
341.731	0.09
342.097	0.09
342.464	0.09
342.831	0.09
343.197	0.09
343.564	0.09
343.931	0.1
344.297	0.1
344.664	0.1
345.03	0.1
345.396	0.1
345.763	0.1
346.129	0.1
346.496	0.1
346.862	0.1
347.228	0.11
347.594	0.11
347.961	0.11
348.327	0.11
348.693	0.12
349.059	0.12
349.425	0.12
349.791	0.12
350.157	0.12
350.523	0.12
350.889	0.12
351.255	0.13
351.621	0.12
351.987	0.13
352.353	0.13
352.719	0.13
353.084	0.13
353.45	0.14
353.816	0.14
354.181	0.14
354.547	0.14
354.913	0.14
355.278	0.14
355.644	0.15
356.009	0.15
356.375	0.15
356.74	0.16
357.106	0.15
357.471	0.15
357.836	0.16
358.202	0.16
358.567	0.17
358.932	0.16
359.297	0.16
359.663	0.17
360.028	0.17
360.393	0.18
360.758	0.18
361.123	0.18
361.488	0.19
361.853	0.18
362.218	0.19
362.583	0.19
362.948	0.2
363.312	0.2
363.677	0.2
364.042	0.2
364.407	0.2
364.772	0.21
365.136	0.21
365.501	0.21
365.865	0.21
366.23	0.22
366.595	0.22
366.959	0.22
367.324	0.22
367.688	0.23
368.052	0.23
368.417	0.23
368.781	0.23
369.145	0.23
369.51	0.23
369.874	0.24
370.238	0.24
370.602	0.24
370.967	0.24
371.331	0.25
371.695	0.24
372.059	0.25
372.423	0.25
372.787	0.25
373.151	0.25
373.515	0.25
373.878	0.25
374.242	0.25
374.606	0.25
374.97	0.25
375.334	0.25
375.697	0.24
376.061	0.24
376.425	0.24
376.788	0.24
377.152	0.24
377.515	0.23
377.879	0.23
378.242	0.23
378.606	0.23
378.969	0.22
379.333	0.23
379.696	0.22
380.059	0.22
380.422	0.22
380.786	0.22
381.149	0.22
381.512	0.22
381.875	0.21
382.238	0.21
382.601	0.21
382.964	0.21
383.327	0.21
383.69	0.21
384.053	0.21
384.416	0.21
384.779	0.21
385.142	0.22
385.504	0.21
385.867	0.21
386.23	0.21
386.593	0.21
386.955	0.22
387.318	0.22
387.68	0.22
388.043	0.22
388.405	0.22
388.768	0.23
389.13	0.23
389.493	0.23
389.855	0.23
390.217	0.22
390.58	0.22
390.942	0.22
391.304	0.22
391.666	0.22
392.028	0.22
392.391	0.22
392.753	0.22
393.115	0.21
393.477	0.21
393.839	0.21
394.201	0.21
394.563	0.21
394.924	0.21
395.286	0.21
395.648	0.21
396.01	0.22
396.371	0.22
396.733	0.22
397.095	0.23
397.456	0.24
397.818	0.24
398.18	0.25
398.541	0.25
398.903	0.26
399.264	0.27
399.625	0.28
399.987	0.29
400.348	0.29
400.709	0.29
401.071	0.3
401.432	0.3
401.793	0.3
402.154	0.3
402.515	0.3
402.876	0.29
403.238	0.29
403.599	0.29
403.96	0.27
404.32	0.26
404.681	0.25
405.042	0.24
405.403	0.23
405.764	0.22
406.125	0.21
406.485	0.19
406.846	0.19
407.207	0.17
407.567	0.16
407.928	0.16
408.288	0.15
408.649	0.14
409.009	0.12
409.37	0.12
409.73	0.11
410.091	0.11
410.451	0.1
410.811	0.09
411.171	0.09
411.532	0.09
411.892	0.08
412.252	0.08
412.612	0.07
412.972	0.07
413.332	0.07
413.692	0.06
414.052	0.06
414.412	0.06
414.772	0.06
415.132	0.05
415.492	0.05
415.851	0.05
416.211	0.05
416.571	0.05
416.931	0.05
417.29	0.05
417.65	0.04
418.009	0.04
418.369	0.04
418.728	0.04
419.088	0.04
419.447	0.04
419.807	0.03
420.166	0.04
420.525	0.04
420.884	0.03
421.244	0.03
421.603	0.03
421.962	0.03
422.321	0.03
422.68	0.03
423.039	0.02
423.398	0.03
423.757	0.03
424.116	0.03
424.475	0.03
424.834	0.03
425.193	0.02
425.551	0.02
425.91	0.03
426.269	0.02
426.628	0.03
426.986	0.03
427.345	0.03
427.703	0.03
428.062	0.03
428.42	0.03
428.779	0.01
429.137	0.03
429.496	0.02
429.854	0.03
430.212	0.02
430.57	0.02
430.929	0.02
431.287	0.02
431.645	0.02
432.003	0.02
432.361	0.03
432.719	0.02
433.077	0.02
433.435	0.02
433.793	0.02
434.151	0.02
434.509	0.02
434.866	0.02
435.224	0.02
435.582	0.02
435.94	0.02
436.297	0.02
436.655	0.02
437.012	0.02
437.37	0.02
437.727	0.02
438.085	0.02
438.442	0.02
438.8	0.02
439.157	0.02
439.514	0.02
439.872	0.02
440.229	0.03
440.586	0.02
440.943	0.02
441.3	0.01
441.657	0.03
442.014	0.02
442.371	0.01
442.728	0.01
443.085	0.01
443.442	0.03
443.799	0.02
444.156	0.03
444.513	0.02
444.869	0.02
445.226	0.02
445.583	0.02
445.939	0.02
446.296	0.02
446.652	0.02
447.009	0.01
447.365	0.02
447.722	0.02
448.078	0.01
448.434	0.02
448.791	0.02
449.147	0.02
449.503	0.02
449.859	0.01
450.215	0.01
450.571	0.02
450.928	0.02
451.284	0.02
451.64	0.02
451.995	0.02
452.351	0.01
452.707	0.02
453.063	0.01
453.419	0.01
453.775	0.01
454.13	0.01
454.486	0.01
454.842	0.02
455.197	0.02
455.553	0.01
455.908	0.02
456.264	0.01
456.619	0.01
456.975	0.02
457.33	0.01
457.685	0.02
458.04	0.02
458.396	0.01
458.751	0.01
459.106	0.01
459.461	0.01
459.816	0.02
460.171	0.01
460.526	0.01
460.881	0.01
461.236	0.01
461.591	0.01
461.946	0.01
462.301	0.01
462.655	0.01
463.01	0.01
463.365	0.02
463.719	0.02
464.074	0.01
464.428	0.01
464.783	0.01
465.137	0
465.492	0.01
465.846	0.01
466.201	0.01
466.555	0.01
466.909	0.01
467.263	0.01
467.618	0.01
467.972	0.01
468.326	0.01
468.68	0.01
469.034	0.01
469.388	0.01
469.742	0.01
470.096	0
470.45	0.01
470.804	0.01
471.157	0.01
471.511	0.01
471.865	0.01
472.218	0.01
472.572	0.01
472.926	0.02
473.279	0.02
473.633	0.02
473.986	0.01
474.34	0.02
474.693	0.02
475.046	0.02
475.4	0.02
475.753	0.02
476.106	0.03
476.459	0.02
476.812	0.02
477.165	0.03
477.519	0.03
477.872	0.02
478.224	0.02
478.577	0.03
478.93	0.03
479.283	0.03
479.636	0.03
479.989	0.03
480.341	0.03
480.694	0.03
481.047	0.03
481.399	0.03
481.752	0.03
482.104	0.03
482.457	0.03
482.809	0.03
483.162	0.03
483.514	0.04
483.866	0.04
484.219	0.03
484.571	0.04
484.923	0.04
485.275	0.04
485.627	0.04
485.979	0.04
486.331	0.05
486.683	0.04
487.035	0.04
487.387	0.04
487.739	0.05
488.091	0.05
488.443	0.04
488.794	0.04
489.146	0.04
489.498	0.04
489.849	0.05
490.201	0.04
490.552	0.04
490.904	0.05
491.255	0.05
491.607	0.04
491.958	0.05
492.309	0.05
492.661	0.05
493.012	0.05
493.363	0.05
493.714	0.05
494.065	0.05
494.416	0.05
494.767	0.05
495.118	0.04
495.469	0.05
495.82	0.05
496.171	0.05
496.522	0.05
496.872	0.06
497.223	0.05
497.574	0.06
497.924	0.06
498.275	0.06
498.626	0.06
498.976	0.06
499.327	0.06
499.677	0.06
500.027	0.06
500.378	0.06
500.728	0.06
501.078	0.06
501.428	0.06
501.779	0.07
502.129	0.06
502.479	0.07
502.829	0.06
503.179	0.06
503.529	0.06
503.879	0.07
504.229	0.07
504.578	0.07
504.928	0.07
505.278	0.07
505.628	0.07
505.977	0.07
506.327	0.07
506.676	0.07
507.026	0.07
507.375	0.07
507.725	0.07
508.074	0.07
508.424	0.07
508.773	0.07
509.122	0.08
509.471	0.08
509.82	0.08
510.17	0.08
510.519	0.08
510.868	0.07
511.217	0.08
511.566	0.08
511.915	0.08
512.263	0.08
512.612	0.08
512.961	0.08
513.31	0.08
513.659	0.08
514.007	0.08
514.356	0.08
514.704	0.08
515.053	0.08
515.401	0.08
515.75	0.08
516.098	0.08
516.447	0.09
516.795	0.08
517.143	0.09
517.491	0.09
517.839	0.09
518.188	0.09
518.536	0.09
518.884	0.08
519.232	0.09
519.58	0.09
519.928	0.09
520.275	0.09
520.623	0.09
520.971	0.09
521.319	0.09
521.666	0.09
522.014	0.09
522.362	0.09
522.709	0.09
523.057	0.09
523.404	0.09
523.752	0.1
524.099	0.09
524.446	0.09
524.794	0.09
525.141	0.1
525.488	0.09
525.835	0.09
526.182	0.1
526.529	0.09
526.876	0.1
527.223	0.1
527.57	0.1
527.917	0.09
528.264	0.1
528.611	0.1
528.958	0.1
529.304	0.1
529.651	0.1
529.998	0.1
530.344	0.1
530.691	0.1
531.037	0.1
531.384	0.1
531.73	0.1
532.076	0.1
532.423	0.1
532.769	0.1
533.115	0.1
533.461	0.1
533.807	0.11
534.154	0.1
534.5	0.1
534.846	0.1
535.192	0.11
535.537	0.11
535.883	0.11
536.229	0.11
536.575	0.1
536.921	0.11
537.266	0.1
537.612	0.11
537.957	0.11
538.303	0.11
538.649	0.11
538.994	0.11
539.339	0.11
539.685	0.11
540.03	0.11
540.375	0.11
540.721	0.11
541.066	0.11
541.411	0.11
541.756	0.11
542.101	0.11
542.446	0.11
542.791	0.11
543.136	0.11
543.481	0.11
543.825	0.11
544.17	0.11
544.515	0.11
544.86	0.11
545.204	0.11
545.549	0.11
545.893	0.11
546.238	0.11
546.582	0.11
546.927	0.11
547.271	0.12
547.615	0.12
547.96	0.11
548.304	0.11
548.648	0.11
548.992	0.12
549.336	0.11
549.68	0.12
550.024	0.11
550.368	0.12
550.712	0.12
551.056	0.11
551.4	0.12
551.743	0.12
552.087	0.11
552.431	0.12
552.774	0.12
553.118	0.12
553.462	0.12
553.805	0.12
554.148	0.12
554.492	0.12
554.835	0.12
555.178	0.12
555.522	0.12
555.865	0.11
556.208	0.11
556.551	0.12
556.894	0.12
557.237	0.12
557.58	0.12
557.923	0.12
558.266	0.12
558.609	0.12
558.952	0.12
559.294	0.12
559.637	0.12
559.98	0.12
560.322	0.12
560.665	0.12
561.007	0.12
561.35	0.12
561.692	0.12
562.034	0.12
562.377	0.12
562.719	0.12
563.061	0.12
563.403	0.12
563.745	0.12
564.088	0.12
564.43	0.12
564.772	0.12
565.113	0.12
565.455	0.12
565.797	0.12
566.139	0.12
566.481	0.12
566.822	0.12
567.164	0.12
567.506	0.12
567.847	0.12
568.189	0.12
568.53	0.12
568.872	0.12
569.213	0.12
569.554	0.12
569.895	0.12
570.237	0.12
570.578	0.12
570.919	0.12
571.26	0.12
571.601	0.12
571.942	0.11
572.283	0.11
572.624	0.11
572.965	0.11
573.306	0.11
573.646	0.11
573.987	0.11
574.328	0.11
574.668	0.11
575.009	0.11
575.349	0.11
575.69	0.1
576.03	0.11
576.37	0.1
576.711	0.1
577.051	0.1
577.391	0.11
577.731	0.11
578.072	0.11
578.412	0.11
578.752	0.11
579.092	0.1
579.431	0.08
579.771	0.06
580.111	0.05
580.451	0.06
580.791	0.09
581.13	0.1
581.47	0.1
581.81	0.1
582.149	0.1
582.489	0.1
582.828	0.09
583.167	0.06
583.507	0.03
583.846	0.02
584.185	0.04
584.525	0.05
584.864	0.08
585.203	0.1
585.542	0.11
585.881	0.11
586.22	0.11
586.559	0.1
586.898	0.08
587.236	0.07
587.575	0.06
587.914	0.07
588.252	0.09
588.591	0.1
588.93	0.1
589.268	0.09
589.607	0.09
589.945	0.09
590.283	0.09
590.622	0.1
590.96	0.1
591.298	0.11
591.636	0.11
591.974	0.11
592.313	0.11
592.651	0.11
592.989	0.11
593.326	0.11
593.664	0.11
594.002	0.11
594.34	0.11
594.678	0.11
595.015	0.09
595.353	0.08
595.691	0.09
596.028	0.11
596.366	0.11
596.703	0.11
597.04	0.11
597.378	0.11
597.715	0.11
598.052	0.11
598.389	0.11
598.726	0.11
599.064	0.11
599.401	0.11
599.738	0.11
600.074	0.11
600.411	0.11
600.748	0.11
601.085	0.1
601.422	0.09
601.758	0.1
602.095	0.1
602.432	0.1
602.768	0.1
603.105	0.11
603.441	0.11
603.777	0.11
604.114	0.11
604.45	0.12
604.786	0.12
605.122	0.12
605.459	0.11
605.795	0.11
606.131	0.11
606.467	0.11
606.803	0.11
607.139	0.11
607.474	0.11
607.81	0.11
608.146	0.11
608.482	0.11
608.817	0.11
609.153	0.11
609.488	0.11
609.824	0.11
610.159	0.11
610.495	0.11
610.83	0.12
611.165	0.11
611.5	0.11
611.836	0.11
612.171	0.11
612.506	0.11
612.841	0.11
613.176	0.11
613.511	0.11
613.845	0.11
614.18	0.11
614.515	0.11
614.85	0.11
615.184	0.11
615.519	0.11
615.854	0.11
616.188	0.11
616.523	0.11
616.857	0.11
617.191	0.11
617.526	0.1
617.86	0.11
618.194	0.1
618.528	0.11
618.862	0.11
619.196	0.11
619.53	0.11
619.864	0.11
620.198	0.11
620.532	0.11
620.866	0.11
621.2	0.11
621.533	0.1
621.867	0.1
622.201	0.1
622.534	0.1
622.868	0.1
623.201	0.1
623.534	0.1
623.868	0.1
624.201	0.1
624.534	0.1
624.868	0.1
625.201	0.1
625.534	0.1
625.867	0.1
626.2	0.1
626.533	0.1
626.865	0.1
627.198	0.1
627.531	0.1
627.864	0.1
628.196	0.1
628.529	0.1
628.862	0.1
629.194	0.1
629.527	0.1
629.859	0.09
630.191	0.09
630.524	0.09
630.856	0.09
631.188	0.09
631.52	0.09
631.852	0.09
632.184	0.09
632.516	0.09
632.848	0.09
633.18	0.09
633.512	0.09
633.844	0.09
634.175	0.09
634.507	0.09
634.839	0.09
635.17	0.09
635.502	0.09
635.833	0.09
636.165	0.09
636.496	0.09
636.827	0.09
637.159	0.09
637.49	0.09
637.821	0.09
638.152	0.08
638.483	0.08
638.814	0.08
639.145	0.08
639.476	0.08
639.807	0.08
640.137	0.08
640.468	0.08
640.799	0.08
641.129	0.08
641.46	0.07
641.791	0.08
642.121	0.08
642.451	0.08
642.782	0.08
643.112	0.07
643.442	0.07
643.773	0.07
644.103	0.07
644.433	0.07
644.763	0.07
645.093	0.07
645.423	0.07
645.753	0.07
646.082	0.07
646.412	0.07
646.742	0.07
647.072	0.07
647.401	0.07
647.731	0.07
648.06	0.07
648.39	0.07
648.719	0.07
649.048	0.07
649.378	0.07
649.707	0.07
650.036	0.07
650.365	0.07
650.694	0.07
651.023	0.07
651.352	0.07
651.681	0.07
652.01	0.07
652.339	0.07
652.668	0.07
652.996	0.07
653.325	0.07
653.654	0.07
653.982	0.07
654.311	0.06
654.639	0.06
654.967	0.07
655.296	0.06
655.624	0.07
655.952	0.07
656.28	0.07
656.609	0.07
656.937	0.06
657.265	0.06
657.593	0
657.92	0
658.248	-0
658.576	0
658.904	0
659.231	0
659.559	0.04
659.887	0.06
660.214	0.06
660.542	0.06
660.869	0.06
661.196	0.06
661.524	0.06
661.851	0.06
662.178	0.06
662.505	0.06
662.832	0.06
663.159	0.06
663.486	0.06
663.813	0.06
664.14	0.06
664.467	0.06
664.794	0.06
665.12	0.06
665.447	0.06
665.774	0.06
666.1	0.06
666.427	0.05
666.753	0.06
667.079	0.06
667.406	0.05
667.732	0.05
668.058	0.05
668.384	0.06
668.71	0.06
669.036	0.06
669.362	0.06
669.688	0.06
670.014	0.06
670.34	0.06
670.666	0.05
670.991	0.05
671.317	0.05
671.643	0.05
671.968	0.06
672.294	0.05
672.619	0.05
672.945	0.05
673.27	0.05
673.595	0.05
673.92	0.05
674.246	0.05
674.571	0.05
674.896	0.05
675.221	0.05
675.546	0.05
675.87	0.05
676.195	0.05
676.52	0.05
676.845	0.05
677.169	0.05
677.494	0.05
677.819	0.05
678.143	0.05
678.468	0.04
678.792	0.05
679.116	0.05
679.44	0.05
679.765	0.05
680.089	0.04
680.413	0.04
680.737	0.04
681.061	0.04
681.385	0.04
681.709	0.04
682.033	0.04
682.356	0.04
682.68	0.04
683.004	0.04
683.327	0.04
683.651	0.03
683.974	0.03
684.298	0.04
684.621	0.03
684.944	0.03
685.268	0.03
685.591	0.03
685.914	0.03
686.237	0.03
686.56	0.03
686.883	0.03
687.206	0.02
687.529	0.02
687.852	0.02
688.175	0.02
688.497	0.02
688.82	0.02
689.142	0.02
689.465	0.02
689.787	0.03
690.11	0.03
690.432	0.03
690.755	0.03
691.077	0.03
691.399	0.02
691.721	0.02
692.043	0.02
692.365	0.02
692.687	0.02
693.009	0.02
693.331	0.01
693.653	0.01
693.974	0.02
694.296	0.01
694.618	0.02
694.939	0.02
695.261	0.01
695.582	0.01
695.904	0.01
696.225	0.02
696.546	0.02
696.868	0.02
697.189	0.02
697.51	0.02
697.831	0.01
698.152	0.02
698.473	0.01
698.794	0.01
699.114	0.01
699.435	0
699.756	0
700.077	0.01
700.397	0.01
700.718	0.01
701.038	0.01
701.359	0.01
701.679	0.01
701.999	0.02
702.32	0.01
702.64	0.01
702.96	0.01
703.28	0.01
703.6	0.01
703.92	0.01
704.24	0.01
704.56	0.01
704.879	0
705.199	0.01
705.519	0.01
705.838	0.01
706.158	0.01
706.478	0.01
706.797	0.01
707.116	0.01
707.436	0.01
707.755	0.01
708.074	0.01
708.393	0.01
708.712	0
709.031	0
709.35	0
709.669	0
709.988	0
710.307	0
710.626	0
710.944	0
711.263	0
711.582	0.01
711.9	0.01
712.219	0
712.537	0
712.855	0.01
713.174	0
713.492	0
713.81	0.01
714.128	0.01
714.446	0.01
714.764	0
715.082	0
715.4	0
715.718	0
716.035	0
716.353	0
716.671	0
716.988	0
717.306	0
717.623	0
717.941	0.01
718.258	0.01
718.575	0.01
718.893	0.01
719.21	0.01
719.527	0.01
719.844	0.01
720.161	0.01
720.478	0.01
720.795	0.01
721.112	0.01
721.428	0.01
721.745	0.01
722.062	0.01
722.378	0.01
722.695	0.01
723.011	0.01
723.328	0.01
723.644	0.01
723.96	0.01
724.276	0.02
724.593	0.02
724.909	0.02
725.225	0.01
725.541	0.02
725.857	0.02
726.173	0.02
726.488	0.02
726.804	0.01
727.12	0.01
727.435	0.01
727.751	0.02
728.067	0.01
728.382	0.02
728.697	0.02
729.013	0.02
729.328	0.01
729.643	0.02
729.958	0.02
730.273	0.02
730.588	0.02
730.903	0.02
731.218	0.02
731.533	0.02
731.848	0.01
732.163	0.01
732.477	0.01
732.792	0.01
733.107	0.01
733.421	0.01
733.736	0.01
734.05	0.01
734.364	0.01
734.678	0.01
734.993	0.01
735.307	0.01
735.621	0.01
735.935	0.01
736.249	0.01
736.563	0.01
736.877	0.01
737.19	0.02
737.504	0.02
737.818	0.01
738.131	0.01
738.445	0.02
738.758	0.02
739.072	0.02
739.385	0.02
739.698	0.02
740.012	0.02
740.325	0.02
740.638	0.02
740.951	0.01
741.264	0.01
741.577	0.02
741.89	0.02
742.203	0.02
742.515	0.02
742.828	0.02
743.141	0.02
743.453	0.02
743.766	0.02
744.078	0.02
744.391	0.02
744.703	0.01
745.015	0.01
745.327	0.01
745.639	0.02
745.952	0.01
746.264	0.01
746.575	0.01
746.887	0.01
747.199	0.01
747.511	0.01
747.823	0.01
748.134	0.01
748.446	0.01
748.757	0.01
749.069	0.01
749.38	0.01
749.692	0.01
750.003	0.01
750.314	0.01
750.625	0.01
750.936	0.01
751.248	0.01
751.559	0.01
751.869	0.01
752.18	0.01
752.491	0.01
752.802	0.01
753.112	0.01
753.423	0.01
753.734	0.01
754.044	0.01
754.355	0.01
754.665	0.01
754.975	0.01
755.285	0.01
755.596	0
755.906	0.01
756.216	0.01
756.526	0.01
756.836	0.01
757.146	0.01
757.455	0.01
757.765	0.01
758.075	0.01
758.385	0.01
758.694	0.01
759.004	0
759.313	0
759.622	0
759.932	0.01
760.241	0.01
760.55	0.01
760.859	0.01
761.168	0.01
761.477	0.01
761.786	0.01
762.095	0.01
762.404	0.01
762.713	0.01
763.021	0.01
763.33	0
763.639	0.01
763.947	0.01
764.256	0.01
764.564	0.01
764.872	0.01
765.181	0.01
765.489	0.01
765.797	0.01
766.105	0.01
766.413	0.01
766.721	0.01
767.029	0.01
767.337	0.01
767.644	0.01
767.952	0.01
768.26	0.01
768.567	0.01
768.875	0.01
769.182	0.01
769.49	0.01
769.797	0.01
770.104	0.01
770.411	0.01
770.718	0
771.026	0.01
771.333	0
771.639	0.01
771.946	0
772.253	0.01
772.56	0.01
772.867	0.01
773.173	0.01
773.48	0.01
773.786	0.01
774.093	0.01
774.399	0.01
774.705	0.01
775.012	0.01
775.318	0.01
775.624	0.01
775.93	0.01
776.236	0.01
776.542	0.01
776.848	0.01
777.154	0.01
777.459	0.01
777.765	0.01
778.071	0.01
778.376	0.01
778.682	0.01
778.987	0.01
779.292	0.01
779.598	0.01
779.903	0.01
780.208	0.01
780.513	0.01
780.818	0.01
781.123	0.01
781.428	0.01
781.733	0.01
782.038	0.01
782.343	0.01
782.647	0.01
782.952	0.01
783.256	0.01
783.561	0.01
783.865	0.01
784.17	0.01
784.474	0.01
784.778	0.01
785.082	0.01
785.386	0.01
785.69	0.01
785.994	0.01
786.298	0.01
786.602	0.01
786.906	0.01
787.209	0.01
787.513	0.01
787.817	0.01
788.12	0.01
788.424	0.01
788.727	0.01
789.03	0.01
789.333	0.01
789.637	0.01
789.94	0.01
790.243	0.01
790.546	0.02
790.849	0.02
791.152	0.02
791.454	0.02
791.757	0.02
792.06	0.02
792.362	0.01
792.665	0.01
792.967	0.01
793.27	0.01
793.572	0.01
793.874	0.01
794.177	0.01
794.479	0.01
794.781	0.01
795.083	0.01
795.385	0.01
795.687	0.01
795.989	0.01
796.29	0.01
796.592	0.01
796.894	0
797.195	0
797.497	0
797.798	0
798.1	0.01
798.401	0.01
798.702	0.01
799.003	0.01
799.304	0.01
799.605	0.01
799.906	0.01
800.207	0.01
800.508	0.01
800.809	0.01
801.11	0.01
801.41	0.01
801.711	0.01
802.011	0.01
802.312	0.02
802.612	0.01
802.913	0.01
803.213	0.01
803.513	0.01
803.813	0.01
804.113	0.01
804.413	0.01
804.713	0.01
805.013	0.01
805.313	0.01
805.613	0.01
805.912	0.01
806.212	0.01
806.511	0.01
806.811	0.01
807.11	0
807.41	0.01
807.709	0
808.008	0
808.307	0
808.606	0
808.905	0.01
809.204	0
809.503	0.01
809.802	0
810.101	0
810.399	0
810.698	-0
810.997	0.01
811.295	0
811.593	0.01
811.892	0
812.19	0.01
812.488	0.01
812.786	0.01
813.084	0.01
813.383	0.01
813.68	0.01
813.978	0.01
814.276	0.01
814.574	0.01
814.872	0.01
815.169	0.01
815.467	0.01
815.764	0.01
816.062	0
816.359	0.01
816.656	0.01
816.954	0
817.251	0
817.548	0.01
817.845	0.01
818.142	0
818.439	0.01
818.735	0
819.032	0
819.329	0
819.626	0
819.922	0.01
820.219	0.01
820.515	0.01
820.811	0
821.108	0
821.404	0.01
821.7	0.01
821.996	0.01
822.292	0.01
822.588	0.01
822.884	0.01
823.18	0.01
823.475	0.01
823.771	0.01
824.067	0.02
824.362	0.01
824.658	0.02
824.953	0.01
825.249	0.01
825.544	0.01
825.839	0.01
826.134	0.01
826.429	0.01
826.724	0
827.019	0.01
827.314	0
827.609	0
827.904	0
828.198	0.01
828.493	0.01
828.787	0
829.082	0.01
829.376	0.01
829.671	0
829.965	0
830.259	0.01
830.553	0.01
830.847	0.01
831.141	0.01
831.435	0.01
831.729	0.01
832.023	0
832.317	0
832.61	-0
832.904	0
833.197	0
833.491	0
833.784	-0
834.077	0
834.371	0
834.664	0.01
834.957	0.01
835.25	0.01
835.543	0.01
835.836	0.01
836.129	0.02
836.421	0.01
836.714	0.01
837.007	0.01
837.299	0.01
837.592	0.01
837.884	0.01
838.177	0.01
838.469	0.01
838.761	0.01
839.053	0.01
839.345	0.01
839.637	0.01
839.929	0.01
840.221	0.02
840.513	0.02
840.805	0.01
841.096	0.01
841.388	0.01
841.68	0.01
841.971	0
842.262	0.01
842.554	0.01
842.845	0.01
843.136	0.01
843.427	0
843.718	0.01
844.009	0.02
844.3	0.01
844.591	0.01
844.882	0.01
845.173	0.01
845.463	0.01
845.754	0.02
846.044	0.01
846.335	0.01
846.625	0.01
846.915	0.01
847.206	0.01
847.496	0.01
847.786	0.01
848.076	0.02
848.366	0
848.656	0.01
848.945	-0
849.235	0
849.525	-0
849.814	0
850.104	0.01
850.393	0.01
850.683	0
850.972	0.01
851.261	0.01
851.551	0
851.84	0
852.129	0.01
852.418	0.01
852.707	0.01
852.995	0
853.284	0.02
853.573	0.01
853.862	0.01
854.15	0.02
854.439	0.01
854.727	0.02
855.015	0.01
855.304	0.01
855.592	0.02
855.88	0.02
856.168	0.01
856.456	0.01
856.744	0
857.032	0.01
857.32	0
857.607	-0
857.895	0.02
858.183	0.02
858.47	0.01
858.757	0
859.045	0.01
859.332	0.02
859.619	0.01
859.907	0.01
860.194	0.02
860.481	0.01
860.768	0
861.054	0.01
861.341	0.01
861.628	0
861.915	0.01
862.201	0.02
862.488	0.02
862.774	0.01
863.061	-0
863.347	0.01
863.633	-0
863.919	-0.01
864.205	0.02
864.491	0.02
864.777	0
865.063	0.01
865.349	0.02
865.635	0.01
865.92	-0.01
866.206	-0.02
866.492	-0.01
866.777	-0.01
867.062	0
867.348	0
867.633	-0
867.918	0.01
868.203	-0
868.488	0.01
868.773	0.01
869.058	0
869.343	0.01
869.628	0.02
869.912	-0
870.197	0.01
870.482	0.01
870.766	0.04
871.05	-0.01
871.335	-0.03
871.619	-0.03
871.903	-0.04
872.187	0
872.471	0.01
872.755	0
873.039	0.02
873.323	-0
873.607	-0.01
873.89	-0.04
874.174	-0
874.458	-0.03
874.741	-0.04
875.024	-0.01
875.308	-0.02
875.591	0.01
875.874	-0.02
876.157	-0.06
876.44	-0.01
876.723	-0.04
877.006	0.05
877.289	-0.03
877.572	-0.03
877.854	-0.01
878.137	0.02
878.42	-0.04
878.702	-0
878.984	-0.03
879.267	-0.04
879.549	-0.02
879.831	0.05
880.113	-0.03
880.395	0.01
880.677	-0.03
880.959	0.06
