Data from Rubpy_EV_1200_EDTA_Absorbance_12-56-42-804.txt Node
Date: Mon Jun 29 12:56:42 BST 2026
User: fpm-admin
Spectrometer: OFX00224
Trigger mode: 0
Integration Time (sec): 7.000000E-2
Scans to average: 3
Nonlinearity correction enabled: false
Boxcar width: 0
Storing dark spectrum: false
XAxis mode: Wavelengths
Number of Pixels in Spectrum: 2136
>>>>>Begin Spectral Data<<<<<
154.91	0.08
155.289	0.59
155.669	0.06
156.048	-0.02
156.428	-0
156.807	-0
157.186	-0.4
157.566	0.78
157.945	-0
158.325	-0.09
158.704	0.28
159.083	1.23
159.462	0.09
159.842	-0.07
160.221	-0
160.6	-0
160.979	-0.9
161.359	0.52
161.738	-1.09
162.117	-0.28
162.496	-0.46
162.875	-0
163.254	-0.42
163.633	-0.05
164.012	-0
164.391	-0
164.77	0.48
165.149	-0
165.528	0.07
165.907	-0.17
166.286	-0.23
166.665	-0.28
167.044	-0.26
167.423	-0.65
167.802	-0.09
168.181	0.54
168.559	0.1
168.938	0.16
169.317	-0
169.696	0.13
170.074	-0.51
170.453	0.15
170.832	-0.19
171.21	0.16
171.589	-0.11
171.968	-0
172.346	0.3
172.725	-0.03
173.103	-0
173.482	-0.51
173.861	-0
174.239	0.36
174.617	-0
174.996	-0
175.374	-0.33
175.753	0.04
176.131	-0.54
176.51	-0.11
176.888	-0
177.266	-0
177.645	0
178.023	-0
178.401	-0.03
178.779	0.07
179.158	-0
179.536	-0.13
179.914	-0
180.292	-0.04
180.67	-0.13
181.048	-0.33
181.427	-0
181.805	-0.3
182.183	0.53
182.561	-0.34
182.939	0.7
183.317	-0.76
183.695	-0
184.073	-0.51
184.451	-0
184.829	-0.26
185.206	-0
185.584	0.15
185.962	-0.78
186.34	-0
186.718	0.56
187.096	-0
187.473	-0
187.851	-0.04
188.229	0.12
188.607	0.14
188.984	0.14
189.362	0.05
189.74	-0.01
190.117	0.11
190.495	0.11
190.872	0.01
191.25	0.22
191.627	0.14
192.005	0.15
192.382	0.02
192.76	0.06
193.137	0.21
193.515	-0.01
193.892	0.1
194.269	0.12
194.647	0.02
195.024	-0.02
195.401	0.17
195.779	0.04
196.156	0.1
196.533	0.1
196.91	-0.03
197.288	0.05
197.665	0.02
198.042	0.08
198.419	0.11
198.796	0.07
199.173	0.17
199.55	0.24
199.927	0.14
200.304	0.21
200.681	0.09
201.058	0.06
201.435	0.12
201.812	0.15
202.189	0.07
202.566	0.17
202.943	0.16
203.32	-0.04
203.697	0.06
204.073	0.09
204.45	0.14
204.827	0.12
205.204	0.16
205.58	0.05
205.957	0.07
206.334	0.13
206.71	0.13
207.087	0.12
207.464	0.18
207.84	0.1
208.217	0.18
208.593	0.16
208.97	0.13
209.346	0.13
209.723	0.21
210.099	0.25
210.476	0.13
210.852	0.04
211.228	0.05
211.605	0.18
211.981	0.23
212.357	0.09
212.733	0.05
213.11	0.11
213.486	0.03
213.862	0.03
214.238	0.25
214.614	0.18
214.991	0.05
215.367	0.06
215.743	0.26
216.119	0.19
216.495	0.12
216.871	0.2
217.247	0.13
217.623	0.09
217.999	0.19
218.375	0.18
218.751	0.13
219.127	0.16
219.502	0.27
219.878	0.18
220.254	0.17
220.63	0.13
221.006	0.15
221.381	0.1
221.757	0.18
222.133	0.2
222.508	0.17
222.884	0.25
223.26	0.22
223.635	0.15
224.011	0.03
224.386	0.17
224.762	0.12
225.137	0.07
225.513	0.23
225.888	0.25
226.264	0.22
226.639	0.09
227.014	0.12
227.39	0.14
227.765	0.18
228.14	0.17
228.516	0.09
228.891	0.12
229.266	0.23
229.641	0.06
230.017	0.12
230.392	0.1
230.767	0.18
231.142	0.12
231.517	0.21
231.892	0.17
232.267	0.08
232.642	0.06
233.017	0.1
233.392	0.19
233.767	0.27
234.142	0.16
234.517	0.11
234.892	0.11
235.267	0.18
235.641	0.17
236.016	0.15
236.391	0.21
236.766	0.07
237.14	0.1
237.515	0.26
237.89	0.09
238.264	0.24
238.639	0.15
239.014	0.08
239.388	0.16
239.763	0.28
240.137	0.14
240.512	0.18
240.886	0.04
241.261	0.17
241.635	0.16
242.009	0.23
242.384	0.14
242.758	0.11
243.132	0.16
243.507	0.06
243.881	0.18
244.255	0.13
244.629	0.12
245.004	0.18
245.378	0.2
245.752	0.12
246.126	0.17
246.5	0.15
246.874	0.23
247.248	0.21
247.622	0.07
247.996	0.16
248.37	0.14
248.744	0.4
249.118	0.23
249.492	0.09
249.866	0.16
250.24	0.19
250.613	0.08
250.987	0.16
251.361	0.19
251.735	0.16
252.108	0.17
252.482	0.13
252.856	0.15
253.229	0.14
253.603	0.21
253.977	0.09
254.35	0.19
254.724	0.17
255.097	0.16
255.471	0.12
255.844	0.18
256.218	0.17
256.591	0.13
256.964	0.11
257.338	0.16
257.711	0.07
258.084	0.18
258.458	0.1
258.831	0.15
259.204	0.16
259.577	0.15
259.95	0.13
260.323	0.2
260.697	0.14
261.07	0.17
261.443	0.22
261.816	0.14
262.189	0.13
262.562	0.18
262.935	0.2
263.308	0.19
263.68	0.13
264.053	0.2
264.426	0.26
264.799	0.15
265.172	0.16
265.545	0.2
265.917	0.21
266.29	0.17
266.663	0.13
267.035	0.26
267.408	0.18
267.781	0.15
268.153	0.25
268.526	0.27
268.898	0.21
269.271	0.16
269.643	0.15
270.016	0.09
270.388	0.15
270.76	0.22
271.133	0.14
271.505	0.11
271.877	0.14
272.25	0.14
272.622	0.14
272.994	0.07
273.366	0.17
273.739	0.18
274.111	0.21
274.483	0.03
274.855	0.08
275.227	0.18
275.599	0.13
275.971	0.1
276.343	0.13
276.715	0.19
277.087	0.15
277.459	0.16
277.831	0.09
278.203	0.14
278.574	0.1
278.946	0.21
279.318	0.29
279.69	0.16
280.061	0.18
280.433	0.15
280.805	0.15
281.176	0.23
281.548	0.15
281.92	0.17
282.291	0.17
282.663	0.16
283.034	0.23
283.406	0.1
283.777	0.13
284.148	0.12
284.52	0.08
284.891	0.21
285.262	0.22
285.634	0.13
286.005	0.17
286.376	0.17
286.747	0.14
287.119	0.12
287.49	0.14
287.861	0.14
288.232	0.18
288.603	0.18
288.974	0.16
289.345	0.14
289.716	0.14
290.087	0.15
290.458	0.11
290.829	0.13
291.2	0.08
291.571	0.13
291.941	0.15
292.312	0.13
292.683	0.16
293.054	0.16
293.424	0.13
293.795	0.13
294.166	0.1
294.536	0.11
294.907	0.15
295.277	0.12
295.648	0.15
296.018	0.2
296.389	0.18
296.759	0.11
297.13	0.18
297.5	0.16
297.871	0.12
298.241	0.14
298.611	0.1
298.981	0.13
299.352	0.13
299.722	0.06
300.092	0.11
300.462	0.12
300.832	0.08
301.202	0.11
301.573	0.08
301.943	0.13
302.313	0.09
302.683	0.1
303.053	0.11
303.422	0.1
303.792	0.1
304.162	0.1
304.532	0.11
304.902	0.11
305.272	0.12
305.641	0.11
306.011	0.1
306.381	0.12
306.75	0.11
307.12	0.1
307.49	0.12
307.859	0.11
308.229	0.12
308.598	0.12
308.968	0.12
309.337	0.11
309.707	0.12
310.076	0.13
310.445	0.13
310.815	0.14
311.184	0.14
311.553	0.13
311.923	0.13
312.292	0.14
312.661	0.14
313.03	0.13
313.399	0.14
313.768	0.13
314.137	0.13
314.506	0.14
314.875	0.14
315.244	0.13
315.613	0.13
315.982	0.14
316.351	0.13
316.72	0.14
317.089	0.13
317.458	0.14
317.826	0.12
318.195	0.13
318.564	0.12
318.933	0.12
319.301	0.12
319.67	0.13
320.038	0.12
320.407	0.12
320.775	0.12
321.144	0.12
321.512	0.12
321.881	0.12
322.249	0.12
322.618	0.12
322.986	0.11
323.354	0.11
323.723	0.11
324.091	0.11
324.459	0.11
324.827	0.11
325.195	0.11
325.564	0.1
325.932	0.1
326.3	0.1
326.668	0.1
327.036	0.1
327.404	0.1
327.772	0.11
328.14	0.11
328.508	0.1
328.875	0.1
329.243	0.11
329.611	0.11
329.979	0.1
330.346	0.11
330.714	0.1
331.082	0.11
331.449	0.11
331.817	0.11
332.185	0.11
332.552	0.11
332.92	0.11
333.287	0.11
333.655	0.11
334.022	0.11
334.389	0.11
334.757	0.11
335.124	0.12
335.491	0.12
335.859	0.12
336.226	0.12
336.593	0.12
336.96	0.12
337.327	0.12
337.695	0.13
338.062	0.13
338.429	0.13
338.796	0.13
339.163	0.14
339.53	0.14
339.897	0.14
340.263	0.14
340.63	0.14
340.997	0.14
341.364	0.14
341.731	0.15
342.097	0.15
342.464	0.15
342.831	0.16
343.197	0.16
343.564	0.16
343.931	0.16
344.297	0.17
344.664	0.17
345.03	0.17
345.396	0.17
345.763	0.18
346.129	0.18
346.496	0.18
346.862	0.18
347.228	0.19
347.594	0.19
347.961	0.19
348.327	0.19
348.693	0.19
349.059	0.2
349.425	0.2
349.791	0.21
350.157	0.22
350.523	0.21
350.889	0.22
351.255	0.22
351.621	0.23
351.987	0.23
352.353	0.23
352.719	0.25
353.084	0.25
353.45	0.25
353.816	0.26
354.181	0.26
354.547	0.27
354.913	0.28
355.278	0.28
355.644	0.29
356.009	0.29
356.375	0.3
356.74	0.3
357.106	0.31
357.471	0.32
357.836	0.33
358.202	0.34
358.567	0.34
358.932	0.34
359.297	0.35
359.663	0.36
360.028	0.35
360.393	0.36
360.758	0.38
361.123	0.38
361.488	0.38
361.853	0.39
362.218	0.38
362.583	0.39
362.948	0.4
363.312	0.4
363.677	0.42
364.042	0.42
364.407	0.42
364.772	0.44
365.136	0.44
365.501	0.45
365.865	0.46
366.23	0.47
366.595	0.48
366.959	0.49
367.324	0.5
367.688	0.51
368.052	0.52
368.417	0.53
368.781	0.53
369.145	0.54
369.51	0.54
369.874	0.55
370.238	0.54
370.602	0.54
370.967	0.55
371.331	0.55
371.695	0.54
372.059	0.54
372.423	0.54
372.787	0.53
373.151	0.53
373.515	0.54
373.878	0.53
374.242	0.53
374.606	0.53
374.97	0.54
375.334	0.54
375.697	0.54
376.061	0.55
376.425	0.54
376.788	0.55
377.152	0.55
377.515	0.56
377.879	0.55
378.242	0.57
378.606	0.58
378.969	0.58
379.333	0.59
379.696	0.6
380.059	0.61
380.422	0.62
380.786	0.63
381.149	0.64
381.512	0.66
381.875	0.68
382.238	0.69
382.601	0.71
382.964	0.73
383.327	0.74
383.69	0.76
384.053	0.79
384.416	0.81
384.779	0.83
385.142	0.84
385.504	0.85
385.867	0.87
386.23	0.88
386.593	0.88
386.955	0.88
387.318	0.89
387.68	0.89
388.043	0.87
388.405	0.86
388.768	0.86
389.13	0.87
389.493	0.85
389.855	0.85
390.217	0.84
390.58	0.84
390.942	0.84
391.304	0.86
391.666	0.87
392.028	0.87
392.391	0.9
392.753	0.92
393.115	0.95
393.477	0.98
393.839	1.02
394.201	1.06
394.563	1.11
394.924	1.15
395.286	1.19
395.648	1.23
396.01	1.26
396.371	1.3
396.733	1.33
397.095	1.35
397.456	1.35
397.818	1.33
398.18	1.34
398.541	1.33
398.903	1.28
399.264	1.26
399.625	1.22
399.987	1.17
400.348	1.12
400.709	1.06
401.071	1.01
401.432	0.94
401.793	0.89
402.154	0.83
402.515	0.77
402.876	0.72
403.238	0.67
403.599	0.62
403.96	0.57
404.32	0.53
404.681	0.49
405.042	0.46
405.403	0.44
405.764	0.4
406.125	0.37
406.485	0.35
406.846	0.32
407.207	0.31
407.567	0.28
407.928	0.27
408.288	0.25
408.649	0.24
409.009	0.23
409.37	0.22
409.73	0.2
410.091	0.19
410.451	0.19
410.811	0.18
411.171	0.17
411.532	0.16
411.892	0.16
412.252	0.15
412.612	0.14
412.972	0.13
413.332	0.13
413.692	0.13
414.052	0.13
414.412	0.12
414.772	0.12
415.132	0.12
415.492	0.11
415.851	0.11
416.211	0.1
416.571	0.09
416.931	0.1
417.29	0.1
417.65	0.09
418.009	0.1
418.369	0.08
418.728	0.09
419.088	0.09
419.447	0.08
419.807	0.08
420.166	0.08
420.525	0.08
420.884	0.08
421.244	0.08
421.603	0.07
421.962	0.07
422.321	0.07
422.68	0.07
423.039	0.08
423.398	0.07
423.757	0.07
424.116	0.06
424.475	0.07
424.834	0.06
425.193	0.06
425.551	0.06
425.91	0.06
426.269	0.06
426.628	0.06
426.986	0.06
427.345	0.06
427.703	0.06
428.062	0.06
428.42	0.05
428.779	0.06
429.137	0.06
429.496	0.06
429.854	0.05
430.212	0.06
430.57	0.06
430.929	0.05
431.287	0.05
431.645	0.05
432.003	0.05
432.361	0.05
432.719	0.05
433.077	0.05
433.435	0.05
433.793	0.04
434.151	0.05
434.509	0.05
434.866	0.05
435.224	0.04
435.582	0.04
435.94	0.05
436.297	0.05
436.655	0.04
437.012	0.05
437.37	0.04
437.727	0.05
438.085	0.04
438.442	0.05
438.8	0.05
439.157	0.05
439.514	0.04
439.872	0.05
440.229	0.05
440.586	0.04
440.943	0.04
441.3	0.04
441.657	0.04
442.014	0.03
442.371	0.04
442.728	0.04
443.085	0.04
443.442	0.03
443.799	0.04
444.156	0.04
444.513	0.04
444.869	0.04
445.226	0.03
445.583	0.04
445.939	0.04
446.296	0.05
446.652	0.03
447.009	0.04
447.365	0.03
447.722	0.04
448.078	0.03
448.434	0.04
448.791	0.03
449.147	0.03
449.503	0.04
449.859	0.03
450.215	0.04
450.571	0.03
450.928	0.03
451.284	0.04
451.64	0.03
451.995	0.03
452.351	0.04
452.707	0.03
453.063	0.03
453.419	0.03
453.775	0.03
454.13	0.02
454.486	0.02
454.842	0.03
455.197	0.03
455.553	0.03
455.908	0.03
456.264	0.02
456.619	0.03
456.975	0.03
457.33	0.03
457.685	0.03
458.04	0.03
458.396	0.02
458.751	0.02
459.106	0.02
459.461	0.03
459.816	0.03
460.171	0.02
460.526	0.03
460.881	0.03
461.236	0.01
461.591	0.01
461.946	0.02
462.301	0.02
462.655	0.02
463.01	0.02
463.365	0.02
463.719	0.02
464.074	0.02
464.428	0.01
464.783	0.02
465.137	0.01
465.492	0.01
465.846	0.01
466.201	0.02
466.555	0.02
466.909	0.01
467.263	0.02
467.618	0.02
467.972	0.01
468.326	0.02
468.68	0.02
469.034	0.02
469.388	0.02
469.742	0.01
470.096	0.03
470.45	0.01
470.804	0.02
471.157	0.02
471.511	0.01
471.865	0.02
472.218	0.01
472.572	0.02
472.926	0.01
473.279	0.02
473.633	0.02
473.986	0.02
474.34	0.03
474.693	0.03
475.046	0.03
475.4	0.03
475.753	0.03
476.106	0.03
476.459	0.02
476.812	0.03
477.165	0.02
477.519	0.03
477.872	0.03
478.224	0.04
478.577	0.04
478.93	0.03
479.283	0.04
479.636	0.04
479.989	0.04
480.341	0.04
480.694	0.04
481.047	0.04
481.399	0.04
481.752	0.04
482.104	0.04
482.457	0.04
482.809	0.04
483.162	0.05
483.514	0.05
483.866	0.04
484.219	0.04
484.571	0.04
484.923	0.05
485.275	0.05
485.627	0.04
485.979	0.05
486.331	0.05
486.683	0.05
487.035	0.05
487.387	0.05
487.739	0.06
488.091	0.06
488.443	0.05
488.794	0.06
489.146	0.06
489.498	0.06
489.849	0.05
490.201	0.06
490.552	0.06
490.904	0.06
491.255	0.06
491.607	0.06
491.958	0.06
492.309	0.06
492.661	0.07
493.012	0.07
493.363	0.07
493.714	0.06
494.065	0.07
494.416	0.07
494.767	0.07
495.118	0.07
495.469	0.07
495.82	0.07
496.171	0.07
496.522	0.07
496.872	0.07
497.223	0.08
497.574	0.08
497.924	0.08
498.275	0.08
498.626	0.08
498.976	0.08
499.327	0.08
499.677	0.08
500.027	0.09
500.378	0.08
500.728	0.08
501.078	0.09
501.428	0.09
501.779	0.09
502.129	0.09
502.479	0.09
502.829	0.09
503.179	0.09
503.529	0.09
503.879	0.09
504.229	0.09
504.578	0.1
504.928	0.1
505.278	0.1
505.628	0.1
505.977	0.1
506.327	0.1
506.676	0.1
507.026	0.1
507.375	0.11
507.725	0.11
508.074	0.11
508.424	0.11
508.773	0.11
509.122	0.11
509.471	0.11
509.82	0.11
510.17	0.12
510.519	0.12
510.868	0.11
511.217	0.12
511.566	0.12
511.915	0.12
512.263	0.12
512.612	0.12
512.961	0.12
513.31	0.12
513.659	0.13
514.007	0.13
514.356	0.13
514.704	0.13
515.053	0.13
515.401	0.13
515.75	0.13
516.098	0.13
516.447	0.14
516.795	0.14
517.143	0.14
517.491	0.14
517.839	0.14
518.188	0.14
518.536	0.14
518.884	0.14
519.232	0.14
519.58	0.15
519.928	0.14
520.275	0.15
520.623	0.15
520.971	0.15
521.319	0.15
521.666	0.15
522.014	0.16
522.362	0.15
522.709	0.15
523.057	0.15
523.404	0.16
523.752	0.16
524.099	0.16
524.446	0.16
524.794	0.16
525.141	0.16
525.488	0.16
525.835	0.16
526.182	0.16
526.529	0.16
526.876	0.16
527.223	0.17
527.57	0.17
527.917	0.17
528.264	0.17
528.611	0.18
528.958	0.18
529.304	0.18
529.651	0.18
529.998	0.18
530.344	0.18
530.691	0.18
531.037	0.19
531.384	0.18
531.73	0.18
532.076	0.19
532.423	0.19
532.769	0.18
533.115	0.19
533.461	0.19
533.807	0.2
534.154	0.2
534.5	0.2
534.846	0.2
535.192	0.2
535.537	0.21
535.883	0.2
536.229	0.21
536.575	0.21
536.921	0.21
537.266	0.21
537.612	0.21
537.957	0.22
538.303	0.22
538.649	0.22
538.994	0.22
539.339	0.22
539.685	0.22
540.03	0.22
540.375	0.22
540.721	0.23
541.066	0.23
541.411	0.23
541.756	0.23
542.101	0.23
542.446	0.24
542.791	0.24
543.136	0.24
543.481	0.24
543.825	0.25
544.17	0.25
544.515	0.24
544.86	0.24
545.204	0.25
545.549	0.25
545.893	0.26
546.238	0.26
546.582	0.26
546.927	0.26
547.271	0.26
547.615	0.27
547.96	0.27
548.304	0.27
548.648	0.27
548.992	0.27
549.336	0.27
549.68	0.28
550.024	0.28
550.368	0.27
550.712	0.28
551.056	0.28
551.4	0.28
551.743	0.28
552.087	0.28
552.431	0.28
552.774	0.29
553.118	0.29
553.462	0.29
553.805	0.29
554.148	0.29
554.492	0.29
554.835	0.3
555.178	0.3
555.522	0.3
555.865	0.3
556.208	0.29
556.551	0.3
556.894	0.3
557.237	0.3
557.58	0.3
557.923	0.3
558.266	0.3
558.609	0.31
558.952	0.31
559.294	0.31
559.637	0.31
559.98	0.31
560.322	0.31
560.665	0.31
561.007	0.31
561.35	0.31
561.692	0.31
562.034	0.31
562.377	0.32
562.719	0.32
563.061	0.32
563.403	0.32
563.745	0.32
564.088	0.32
564.43	0.32
564.772	0.32
565.113	0.32
565.455	0.32
565.797	0.33
566.139	0.32
566.481	0.32
566.822	0.32
567.164	0.32
567.506	0.33
567.847	0.33
568.189	0.33
568.53	0.33
568.872	0.33
569.213	0.33
569.554	0.33
569.895	0.33
570.237	0.33
570.578	0.33
570.919	0.33
571.26	0.33
571.601	0.33
571.942	0.34
572.283	0.34
572.624	0.33
572.965	0.34
573.306	0.34
573.646	0.33
573.987	0.33
574.328	0.34
574.668	0.34
575.009	0.33
575.349	0.34
575.69	0.33
576.03	0.33
576.37	0.34
576.711	0.34
577.051	0.34
577.391	0.34
577.731	0.34
578.072	0.34
578.412	0.34
578.752	0.34
579.092	0.34
579.431	0.34
579.771	0.34
580.111	0.33
580.451	0.33
580.791	0.34
581.13	0.34
581.47	0.34
581.81	0.35
582.149	0.34
582.489	0.34
582.828	0.34
583.167	0.34
583.507	0.34
583.846	0.33
584.185	0.34
584.525	0.35
584.864	0.35
585.203	0.35
585.542	0.35
585.881	0.35
586.22	0.36
586.559	0.36
586.898	0.35
587.236	0.35
587.575	0.35
587.914	0.35
588.252	0.36
588.591	0.36
588.93	0.36
589.268	0.36
589.607	0.36
589.945	0.36
590.283	0.37
590.622	0.37
590.96	0.37
591.298	0.38
591.636	0.38
591.974	0.38
592.313	0.38
592.651	0.38
592.989	0.38
593.326	0.39
593.664	0.39
594.002	0.39
594.34	0.39
594.678	0.39
595.015	0.39
595.353	0.39
595.691	0.4
596.028	0.4
596.366	0.4
596.703	0.4
597.04	0.4
597.378	0.4
597.715	0.41
598.052	0.41
598.389	0.41
598.726	0.41
599.064	0.41
599.401	0.41
599.738	0.41
600.074	0.41
600.411	0.41
600.748	0.42
601.085	0.41
601.422	0.41
601.758	0.41
602.095	0.42
602.432	0.41
602.768	0.41
603.105	0.41
603.441	0.42
603.777	0.42
604.114	0.42
604.45	0.42
604.786	0.42
605.122	0.42
605.459	0.42
605.795	0.42
606.131	0.41
606.467	0.42
606.803	0.42
607.139	0.42
607.474	0.42
607.81	0.42
608.146	0.42
608.482	0.42
608.817	0.42
609.153	0.41
609.488	0.42
609.824	0.41
610.159	0.41
610.495	0.41
610.83	0.4
611.165	0.41
611.5	0.4
611.836	0.4
612.171	0.4
612.506	0.4
612.841	0.4
613.176	0.4
613.511	0.4
613.845	0.4
614.18	0.4
614.515	0.4
614.85	0.39
615.184	0.39
615.519	0.39
615.854	0.39
616.188	0.39
616.523	0.39
616.857	0.39
617.191	0.39
617.526	0.39
617.86	0.39
618.194	0.39
618.528	0.38
618.862	0.38
619.196	0.38
619.53	0.38
619.864	0.38
620.198	0.38
620.532	0.38
620.866	0.37
621.2	0.37
621.533	0.37
621.867	0.38
622.201	0.37
622.534	0.37
622.868	0.37
623.201	0.36
623.534	0.37
623.868	0.36
624.201	0.36
624.534	0.36
624.868	0.36
625.201	0.35
625.534	0.35
625.867	0.35
626.2	0.35
626.533	0.35
626.865	0.35
627.198	0.35
627.531	0.35
627.864	0.35
628.196	0.35
628.529	0.34
628.862	0.34
629.194	0.34
629.527	0.34
629.859	0.34
630.191	0.33
630.524	0.33
630.856	0.33
631.188	0.33
631.52	0.32
631.852	0.32
632.184	0.31
632.516	0.31
632.848	0.31
633.18	0.31
633.512	0.31
633.844	0.31
634.175	0.3
634.507	0.3
634.839	0.3
635.17	0.3
635.502	0.3
635.833	0.29
636.165	0.29
636.496	0.29
636.827	0.29
637.159	0.29
637.49	0.28
637.821	0.28
638.152	0.28
638.483	0.27
638.814	0.27
639.145	0.27
639.476	0.27
639.807	0.27
640.137	0.27
640.468	0.26
640.799	0.26
641.129	0.26
641.46	0.26
641.791	0.26
642.121	0.25
642.451	0.25
642.782	0.25
643.112	0.25
643.442	0.25
643.773	0.24
644.103	0.24
644.433	0.24
644.763	0.24
645.093	0.24
645.423	0.23
645.753	0.23
646.082	0.24
646.412	0.23
646.742	0.23
647.072	0.23
647.401	0.23
647.731	0.22
648.06	0.23
648.39	0.23
648.719	0.23
649.048	0.23
649.378	0.23
649.707	0.23
650.036	0.23
650.365	0.23
650.694	0.23
651.023	0.23
651.352	0.22
651.681	0.22
652.01	0.22
652.339	0.21
652.668	0.22
652.996	0.22
653.325	0.22
653.654	0.21
653.982	0.22
654.311	0.22
654.639	0.22
654.967	0.22
655.296	0.22
655.624	0.22
655.952	0.22
656.28	0.22
656.609	0.21
656.937	0.22
657.265	0.22
657.593	0.21
657.92	0.13
658.248	0.08
658.576	0.09
658.904	0.19
659.231	0.21
659.559	0.21
659.887	0.22
660.214	0.22
660.542	0.22
660.869	0.21
661.196	0.21
661.524	0.21
661.851	0.21
662.178	0.22
662.505	0.22
662.832	0.22
663.159	0.21
663.486	0.22
663.813	0.22
664.14	0.22
664.467	0.21
664.794	0.21
665.12	0.21
665.447	0.21
665.774	0.21
666.1	0.21
666.427	0.21
666.753	0.21
667.079	0.21
667.406	0.21
667.732	0.2
668.058	0.2
668.384	0.21
668.71	0.2
669.036	0.2
669.362	0.2
669.688	0.2
670.014	0.2
670.34	0.2
670.666	0.2
670.991	0.2
671.317	0.2
671.643	0.2
671.968	0.2
672.294	0.19
672.619	0.2
672.945	0.2
673.27	0.19
673.595	0.19
673.92	0.19
674.246	0.19
674.571	0.19
674.896	0.18
675.221	0.18
675.546	0.19
675.87	0.18
676.195	0.18
676.52	0.18
676.845	0.18
677.169	0.18
677.494	0.18
677.819	0.18
678.143	0.18
678.468	0.18
678.792	0.17
679.116	0.17
679.44	0.17
679.765	0.17
680.089	0.16
680.413	0.16
680.737	0.16
681.061	0.16
681.385	0.16
681.709	0.15
682.033	0.15
682.356	0.15
682.68	0.15
683.004	0.15
683.327	0.15
683.651	0.15
683.974	0.15
684.298	0.14
684.621	0.15
684.944	0.14
685.268	0.14
685.591	0.14
685.914	0.14
686.237	0.13
686.56	0.13
686.883	0.13
687.206	0.13
687.529	0.13
687.852	0.13
688.175	0.13
688.497	0.13
688.82	0.13
689.142	0.12
689.465	0.12
689.787	0.12
690.11	0.12
690.432	0.12
690.755	0.12
691.077	0.12
691.399	0.12
691.721	0.12
692.043	0.12
692.365	0.12
692.687	0.11
693.009	0.11
693.331	0.11
693.653	0.11
693.974	0.11
694.296	0.11
694.618	0.11
694.939	0.11
695.261	0.1
695.582	0.1
695.904	0.1
696.225	0.1
696.546	0.1
696.868	0.1
697.189	0.1
697.51	0.1
697.831	0.1
698.152	0.1
698.473	0.1
698.794	0.1
699.114	0.09
699.435	0.09
699.756	0.09
700.077	0.08
700.397	0.08
700.718	0.08
701.038	0.08
701.359	0.08
701.679	0.08
701.999	0.08
702.32	0.08
702.64	0.08
702.96	0.08
703.28	0.08
703.6	0.08
703.92	0.08
704.24	0.07
704.56	0.07
704.879	0.07
705.199	0.07
705.519	0.07
705.838	0.07
706.158	0.08
706.478	0.07
706.797	0.07
707.116	0.07
707.436	0.07
707.755	0.06
708.074	0.07
708.393	0.06
708.712	0.07
709.031	0.07
709.35	0.07
709.669	0.07
709.988	0.07
710.307	0.07
710.626	0.07
710.944	0.07
711.263	0.07
711.582	0.07
711.9	0.08
712.219	0.08
712.537	0.08
712.855	0.08
713.174	0.08
713.492	0.08
713.81	0.08
714.128	0.08
714.446	0.08
714.764	0.07
715.082	0.07
715.4	0.07
715.718	0.07
716.035	0.07
716.353	0.08
716.671	0.08
716.988	0.08
717.306	0.08
717.623	0.08
717.941	0.07
718.258	0.08
718.575	0.08
718.893	0.08
719.21	0.07
719.527	0.07
719.844	0.07
720.161	0.08
720.478	0.07
720.795	0.07
721.112	0.07
721.428	0.07
721.745	0.07
722.062	0.07
722.378	0.07
722.695	0.07
723.011	0.07
723.328	0.07
723.644	0.07
723.96	0.07
724.276	0.07
724.593	0.07
724.909	0.08
725.225	0.08
725.541	0.08
725.857	0.08
726.173	0.08
726.488	0.08
726.804	0.08
727.12	0.08
727.435	0.08
727.751	0.08
728.067	0.08
728.382	0.08
728.697	0.08
729.013	0.08
729.328	0.08
729.643	0.08
729.958	0.08
730.273	0.08
730.588	0.08
730.903	0.08
731.218	0.08
731.533	0.08
731.848	0.08
732.163	0.07
732.477	0.08
732.792	0.08
733.107	0.08
733.421	0.08
733.736	0.08
734.05	0.08
734.364	0.08
734.678	0.08
734.993	0.07
735.307	0.08
735.621	0.07
735.935	0.07
736.249	0.07
736.563	0.08
736.877	0.08
737.19	0.08
737.504	0.08
737.818	0.07
738.131	0.07
738.445	0.07
738.758	0.07
739.072	0.06
739.385	0.07
739.698	0.07
740.012	0.07
740.325	0.07
740.638	0.07
740.951	0.07
741.264	0.07
741.577	0.07
741.89	0.07
742.203	0.07
742.515	0.07
742.828	0.07
743.141	0.07
743.453	0.07
743.766	0.07
744.078	0.07
744.391	0.07
744.703	0.07
745.015	0.07
745.327	0.07
745.639	0.06
745.952	0.07
746.264	0.06
746.575	0.07
746.887	0.06
747.199	0.06
747.511	0.07
747.823	0.06
748.134	0.06
748.446	0.06
748.757	0.06
749.069	0.06
749.38	0.06
749.692	0.05
750.003	0.06
750.314	0.05
750.625	0.05
750.936	0.05
751.248	0.05
751.559	0.05
751.869	0.05
752.18	0.05
752.491	0.05
752.802	0.05
753.112	0.05
753.423	0.05
753.734	0.05
754.044	0.05
754.355	0.05
754.665	0.05
754.975	0.05
755.285	0.05
755.596	0.04
755.906	0.04
756.216	0.04
756.526	0.04
756.836	0.04
757.146	0.04
757.455	0.04
757.765	0.04
758.075	0.03
758.385	0.03
758.694	0.03
759.004	0.03
759.313	0.03
759.622	0.03
759.932	0.03
760.241	0.03
760.55	0.03
760.859	0.03
761.168	0.03
761.477	0.03
761.786	0.03
762.095	0.03
762.404	0.03
762.713	0.03
763.021	0.03
763.33	0.03
763.639	0.03
763.947	0.03
764.256	0.03
764.564	0.03
764.872	0.03
765.181	0.02
765.489	0.02
765.797	0.02
766.105	0.02
766.413	0.02
766.721	0.02
767.029	0.02
767.337	0.02
767.644	0.02
767.952	0.02
768.26	0.02
768.567	0.02
768.875	0.02
769.182	0.02
769.49	0.02
769.797	0.02
770.104	0.02
770.411	0.01
770.718	0.02
771.026	0.01
771.333	0.01
771.639	0.01
771.946	0.01
772.253	0.01
772.56	0.01
772.867	0.01
773.173	0.01
773.48	0.02
773.786	0.01
774.093	0.01
774.399	0.01
774.705	0.01
775.012	0.01
775.318	0.01
775.624	0.01
775.93	0.01
776.236	0.01
776.542	0.01
776.848	0.01
777.154	0
777.459	0.01
777.765	0.01
778.071	0.01
778.376	0.01
778.682	0
778.987	0
779.292	0.01
779.598	0
779.903	0.01
780.208	0.01
780.513	0.01
780.818	0.01
781.123	0.02
781.428	0.02
781.733	0.02
782.038	0.01
782.343	0.01
782.647	0.01
782.952	0.01
783.256	0.01
783.561	0.01
783.865	0.01
784.17	0.01
784.474	0.01
784.778	0.01
785.082	0.01
785.386	0.01
785.69	0.01
785.994	0
786.298	0.01
786.602	0.01
786.906	0.01
787.209	0.01
787.513	0.01
787.817	0.01
788.12	0.01
788.424	0.01
788.727	0.02
789.03	0.01
789.333	0.01
789.637	0.01
789.94	0.02
790.243	0.02
790.546	0.01
790.849	0.01
791.152	0.01
791.454	0.01
791.757	0.02
792.06	0.02
792.362	0.01
792.665	0.01
792.967	0.01
793.27	0.01
793.572	0
793.874	0
794.177	-0
794.479	0
794.781	0
795.083	0
795.385	0
795.687	0
795.989	0
796.29	0
796.592	0
796.894	0.01
797.195	0
797.497	0
797.798	-0
798.1	-0
798.401	-0
798.702	-0.01
799.003	-0.01
799.304	-0
799.605	-0
799.906	0
800.207	0
800.508	0
800.809	0.01
801.11	0.01
801.41	0.01
801.711	0.01
802.011	0
802.312	0.01
802.612	0.01
802.913	0.01
803.213	0.01
803.513	0.01
803.813	0.01
804.113	0.01
804.413	0.01
804.713	0
805.013	0
805.313	0
805.613	0
805.912	0
806.212	0
806.511	0
806.811	0
807.11	0
807.41	0
807.709	0
808.008	0
808.307	-0
808.606	0
808.905	-0
809.204	-0
809.503	-0.01
809.802	0
810.101	-0
810.399	0
810.698	0.01
810.997	-0
811.295	-0
811.593	-0
811.892	-0
812.19	-0
812.488	-0
812.786	-0
813.084	0
813.383	-0
813.68	-0.01
813.978	-0
814.276	-0
814.574	0
814.872	0
815.169	-0.01
815.467	-0.01
815.764	-0.01
816.062	-0
816.359	-0
816.656	0.01
816.954	0
817.251	0
817.548	0
817.845	-0.01
818.142	-0
818.439	-0
818.735	-0
819.032	-0
819.329	0
819.626	-0.01
819.922	-0
820.219	-0
820.515	-0.01
820.811	-0.01
821.108	-0
821.404	0
821.7	-0
821.996	-0.01
822.292	-0.01
822.588	-0
822.884	-0
823.18	0
823.475	-0
823.771	0.01
824.067	0
824.362	0
824.658	0.01
824.953	0
825.249	0.01
825.544	0.01
825.839	0.01
826.134	0.01
826.429	0.01
826.724	0.02
827.019	0.02
827.314	0
827.609	-0.01
827.904	0
828.198	0
828.493	-0.01
828.787	0
829.082	0
829.376	-0.01
829.671	-0.01
829.965	0
830.259	0
830.553	0
830.847	0
831.141	-0
831.435	-0
831.729	0.01
832.023	0
832.317	0
832.61	-0.01
832.904	-0.01
833.197	0
833.491	0.01
833.784	0
834.077	0
834.371	0
834.664	-0.01
834.957	-0
835.25	-0.01
835.543	-0.01
835.836	0
836.129	-0.01
836.421	-0.01
836.714	-0.01
837.007	-0.02
837.299	-0.01
837.592	-0
837.884	-0
838.177	0
838.469	-0.01
838.761	0
839.053	-0
839.345	0
839.637	0
839.929	0.01
840.221	-0
840.513	-0
840.805	0
841.096	0
841.388	-0
841.68	0.01
841.971	0.01
842.262	0.01
842.554	0
842.845	-0.01
843.136	-0.01
843.427	-0
843.718	0.01
844.009	0.01
844.3	0
844.591	0
844.882	-0.01
845.173	-0.01
845.463	-0.01
845.754	0
846.044	-0.01
846.335	-0.01
846.625	-0.01
846.915	-0
847.206	-0.01
847.496	-0.01
847.786	-0.01
848.076	-0.01
848.366	-0.01
848.656	-0
848.945	0
849.235	-0.01
849.525	0
849.814	0
850.104	-0.01
850.393	-0.01
850.683	-0.01
850.972	-0.02
851.261	-0.02
851.551	-0
851.84	-0.01
852.129	0.01
852.418	-0.01
852.707	0.01
852.995	0
853.284	0
853.573	0
853.862	-0.02
854.15	-0.01
854.439	-0.02
854.727	0
855.015	-0.02
855.304	-0.01
855.592	-0.01
855.88	-0.01
856.168	-0
856.456	-0.02
856.744	-0.01
857.032	-0.01
857.32	-0.02
857.607	-0.01
857.895	-0.04
858.183	-0.02
858.47	-0.01
858.757	-0.02
859.045	-0.03
859.332	-0.01
859.619	-0
859.907	-0.01
860.194	-0.02
860.481	-0.04
860.768	-0.04
861.054	-0.01
861.341	-0.02
861.628	-0.02
861.915	-0.05
862.201	-0.01
862.488	0.01
862.774	-0.03
863.061	-0.02
863.347	-0.02
863.633	-0.03
863.919	0
864.205	-0.02
864.491	-0.02
864.777	0.01
865.063	0.01
865.349	-0.01
865.635	-0.01
865.92	-0.07
866.206	-0.02
866.492	-0.03
866.777	-0.01
867.062	-0.04
867.348	0.01
867.633	0
867.918	-0.02
868.203	0.01
868.488	0
868.773	-0.04
869.058	-0.01
869.343	-0.03
869.628	-0.04
869.912	0
870.197	0.01
870.482	-0.04
870.766	-0.01
871.05	-0.03
871.335	-0.07
871.619	0.01
871.903	-0.09
872.187	-0.05
872.471	-0.04
872.755	-0.07
873.039	-0.04
873.323	-0.03
873.607	-0.06
873.89	-0
874.174	-0.01
874.458	0.06
874.741	-0.03
875.024	-0.04
875.308	-0.02
875.591	0.01
875.874	-0.06
876.157	-0.04
876.44	-0.06
876.723	-0.03
877.006	-0.06
877.289	0.03
877.572	-0.04
877.854	-0.03
878.137	-0.02
878.42	0.01
878.702	-0.13
878.984	-0.02
879.267	-0.06
879.549	-0.02
879.831	-0.06
880.113	0.03
880.395	-0.05
880.677	-0.08
880.959	-0.07
