Data from Rubpy_EV_1200_EDTA_Absorbance_12-48-24-616.txt Node
Date: Mon Jun 29 12:48:24 BST 2026
User: fpm-admin
Spectrometer: OFX00224
Trigger mode: 0
Integration Time (sec): 7.000000E-2
Scans to average: 3
Nonlinearity correction enabled: false
Boxcar width: 0
Storing dark spectrum: false
XAxis mode: Wavelengths
Number of Pixels in Spectrum: 2136
>>>>>Begin Spectral Data<<<<<
154.91	0.92
155.289	-0.13
155.669	1.29
156.048	0.14
156.428	-0
156.807	-0.23
157.186	0.1
157.566	-0
157.945	-0
158.325	0.1
158.704	-0.28
159.083	-0.25
159.462	-0
159.842	0.87
160.221	0.93
160.6	-0
160.979	0.48
161.359	-0.45
161.738	-0
162.117	-0.28
162.496	0.09
162.875	0.53
163.254	0.62
163.633	-0
164.012	0.12
164.391	-0
164.77	-0.22
165.149	-0.14
165.528	0.83
165.907	-0.16
166.286	-0
166.665	0.1
167.044	0.25
167.423	-0
167.802	0.57
168.181	-0
168.559	-0
168.938	0.29
169.317	0.28
169.696	-0
170.074	-0
170.453	-0
170.832	0.25
171.21	0.02
171.589	-0.09
171.968	-0.43
172.346	-0
172.725	0.05
173.103	-0
173.482	0.34
173.861	-0.18
174.239	-0.27
174.617	-0.38
174.996	0.38
175.374	-0.3
175.753	0.64
176.131	-1.31
176.51	0.27
176.888	-0
177.266	-0
177.645	0.11
178.023	-0.31
178.401	-0.03
178.779	0.08
179.158	0.48
179.536	0.22
179.914	0.08
180.292	-0
180.67	0.74
181.048	-0.43
181.427	0.4
181.805	-0
182.183	-0
182.561	0.53
182.939	1.3
183.317	-1.06
183.695	-0
184.073	-0.18
184.451	-0.4
184.829	-0.02
185.206	0.49
185.584	-0.67
185.962	-0.6
186.34	-0
186.718	-0
187.096	-0
187.473	0.09
187.851	-0.55
188.229	-0
188.607	0.12
188.984	-0.01
189.362	-0.02
189.74	-0.05
190.117	-0.14
190.495	0.01
190.872	-0.02
191.25	0.02
191.627	0.12
192.005	0.09
192.382	0.16
192.76	0.03
193.137	0.02
193.515	-0.06
193.892	0.05
194.269	0.15
194.647	-0.05
195.024	-0.03
195.401	-0.03
195.779	-0.08
196.156	-0.02
196.533	-0.03
196.91	-0.16
197.288	0.01
197.665	-0.06
198.042	0.12
198.419	0.04
198.796	0.04
199.173	0.01
199.55	0.03
199.927	0.09
200.304	-0.01
200.681	0.12
201.058	-0.11
201.435	0.12
201.812	0.01
202.189	0.17
202.566	0.06
202.943	0.15
203.32	0.06
203.697	0.06
204.073	0.09
204.45	-0
204.827	0.01
205.204	0.09
205.58	0.07
205.957	0.13
206.334	-0.05
206.71	0.15
207.087	0
207.464	0.02
207.84	0.01
208.217	0.12
208.593	0.05
208.97	-0.05
209.346	0.14
209.723	-0.03
210.099	0.08
210.476	0.05
210.852	0.02
211.228	0.09
211.605	0.16
211.981	0.02
212.357	0.05
212.733	0.02
213.11	0.04
213.486	0.01
213.862	0.13
214.238	0.04
214.614	0.06
214.991	0.01
215.367	0.03
215.743	0.12
216.119	0.07
216.495	0.09
216.871	0.02
217.247	0.05
217.623	0.03
217.999	0.14
218.375	0.19
218.751	0.08
219.127	0.03
219.502	0.12
219.878	-0.03
220.254	-0.01
220.63	0.14
221.006	0.09
221.381	0.03
221.757	0.1
222.133	0.03
222.508	0.15
222.884	0.04
223.26	0.1
223.635	0.03
224.011	0.08
224.386	-0.04
224.762	0
225.137	0.1
225.513	0.08
225.888	0.05
226.264	0.01
226.639	-0
227.014	0.04
227.39	-0.06
227.765	0.05
228.14	0.08
228.516	0.05
228.891	0.14
229.266	0.14
229.641	-0.02
230.017	0.07
230.392	0.07
230.767	-0.02
231.142	0.16
231.517	0.05
231.892	0.11
232.267	0.02
232.642	-0.02
233.017	0.05
233.392	0.03
233.767	0.08
234.142	0.06
234.517	0.07
234.892	-0.01
235.267	0.05
235.641	0.04
236.016	0.02
236.391	0.08
236.766	0.05
237.14	-0.05
237.515	0.14
237.89	-0.04
238.264	0.15
238.639	0.01
239.014	0.05
239.388	0.07
239.763	0.09
240.137	0.01
240.512	0.01
240.886	0.06
241.261	0.04
241.635	0.12
242.009	0.12
242.384	0.05
242.758	0.04
243.132	-0.04
243.507	0.08
243.881	0.06
244.255	0.05
244.629	0.01
245.004	0.02
245.378	0.1
245.752	0.06
246.126	-0
246.5	0.12
246.874	0.15
247.248	0.08
247.622	-0.08
247.996	0.14
248.37	0.07
248.744	0.08
249.118	0.24
249.492	0.07
249.866	0.06
250.24	0.05
250.613	-0
250.987	0.12
251.361	0.12
251.735	0.08
252.108	0.05
252.482	0.03
252.856	0.05
253.229	0.04
253.603	0.04
253.977	-0.03
254.35	0.07
254.724	-0.02
255.097	0.13
255.471	0.06
255.844	0.08
256.218	0.08
256.591	0.06
256.964	0.01
257.338	0.08
257.711	0.06
258.084	0.13
258.458	0.05
258.831	0.03
259.204	0.06
259.577	0.07
259.95	0.02
260.323	0.03
260.697	0.03
261.07	-0.02
261.443	0.05
261.816	0.03
262.189	-0
262.562	0.06
262.935	0.04
263.308	0.04
263.68	0.06
264.053	0.03
264.426	0.04
264.799	0.16
265.172	0.03
265.545	0.04
265.917	0.1
266.29	0.02
266.663	0.06
267.035	0.05
267.408	-0
267.781	0.13
268.153	0.14
268.526	0.03
268.898	0.06
269.271	-0.03
269.643	-0.01
270.016	0.01
270.388	0.08
270.76	0.07
271.133	0
271.505	0.04
271.877	-0.01
272.25	0.05
272.622	0.03
272.994	-0.02
273.366	0.03
273.739	0.05
274.111	0.02
274.483	-0.06
274.855	-0.01
275.227	0.05
275.599	0.03
275.971	0.03
276.343	0.07
276.715	0.12
277.087	-0.01
277.459	0.17
277.831	0.03
278.203	0.09
278.574	0.06
278.946	0.1
279.318	0.17
279.69	0.04
280.061	0.09
280.433	0.11
280.805	0.05
281.176	0.09
281.548	-0.01
281.92	0.05
282.291	0.02
282.663	0.09
283.034	0.06
283.406	0.03
283.777	0.02
284.148	0.11
284.52	0.1
284.891	0.05
285.262	0.02
285.634	0.06
286.005	0.09
286.376	0.09
286.747	0.06
287.119	0.08
287.49	-0.02
287.861	0.05
288.232	0.02
288.603	0.11
288.974	0.05
289.345	0
289.716	0.06
290.087	0.04
290.458	-0.02
290.829	0.09
291.2	0.02
291.571	0.04
291.941	0.05
292.312	0.09
292.683	0.04
293.054	0.06
293.424	0.03
293.795	0.11
294.166	0.05
294.536	-0.02
294.907	0.08
295.277	0.01
295.648	0.06
296.018	0.04
296.389	0.02
296.759	0.01
297.13	0.09
297.5	0.06
297.871	0.05
298.241	0.01
298.611	0.05
298.981	0.03
299.352	0.07
299.722	0.02
300.092	0.03
300.462	0.09
300.832	0.01
301.202	0.05
301.573	0.01
301.943	0.03
302.313	0.03
302.683	0.03
303.053	0.02
303.422	0.05
303.792	0.04
304.162	0.04
304.532	0.05
304.902	0.04
305.272	0.04
305.641	0.03
306.011	0.04
306.381	0.05
306.75	0.04
307.12	0.04
307.49	0.04
307.859	0.05
308.229	0.04
308.598	0.04
308.968	0.04
309.337	0.04
309.707	0.04
310.076	0.05
310.445	0.05
310.815	0.05
311.184	0.05
311.553	0.05
311.923	0.05
312.292	0.05
312.661	0.05
313.03	0.05
313.399	0.05
313.768	0.05
314.137	0.05
314.506	0.05
314.875	0.05
315.244	0.05
315.613	0.05
315.982	0.05
316.351	0.05
316.72	0.05
317.089	0.05
317.458	0.05
317.826	0.04
318.195	0.04
318.564	0.04
318.933	0.05
319.301	0.04
319.67	0.05
320.038	0.04
320.407	0.05
320.775	0.04
321.144	0.04
321.512	0.04
321.881	0.05
322.249	0.05
322.618	0.05
322.986	0.04
323.354	0.03
323.723	0.04
324.091	0.04
324.459	0.04
324.827	0.03
325.195	0.04
325.564	0.04
325.932	0.03
326.3	0.04
326.668	0.03
327.036	0.04
327.404	0.03
327.772	0.04
328.14	0.04
328.508	0.04
328.875	0.03
329.243	0.04
329.611	0.04
329.979	0.04
330.346	0.04
330.714	0.04
331.082	0.03
331.449	0.04
331.817	0.04
332.185	0.04
332.552	0.04
332.92	0.04
333.287	0.04
333.655	0.04
334.022	0.04
334.389	0.04
334.757	0.04
335.124	0.04
335.491	0.04
335.859	0.04
336.226	0.04
336.593	0.05
336.96	0.04
337.327	0.04
337.695	0.04
338.062	0.04
338.429	0.05
338.796	0.05
339.163	0.05
339.53	0.05
339.897	0.05
340.263	0.05
340.63	0.05
340.997	0.05
341.364	0.05
341.731	0.05
342.097	0.05
342.464	0.06
342.831	0.05
343.197	0.06
343.564	0.06
343.931	0.05
344.297	0.06
344.664	0.06
345.03	0.06
345.396	0.06
345.763	0.06
346.129	0.06
346.496	0.07
346.862	0.06
347.228	0.07
347.594	0.07
347.961	0.07
348.327	0.07
348.693	0.07
349.059	0.07
349.425	0.07
349.791	0.07
350.157	0.07
350.523	0.08
350.889	0.08
351.255	0.08
351.621	0.09
351.987	0.08
352.353	0.08
352.719	0.09
353.084	0.09
353.45	0.09
353.816	0.09
354.181	0.09
354.547	0.1
354.913	0.1
355.278	0.1
355.644	0.1
356.009	0.1
356.375	0.11
356.74	0.11
357.106	0.12
357.471	0.11
357.836	0.12
358.202	0.12
358.567	0.13
358.932	0.12
359.297	0.13
359.663	0.13
360.028	0.13
360.393	0.13
360.758	0.14
361.123	0.14
361.488	0.14
361.853	0.14
362.218	0.14
362.583	0.14
362.948	0.15
363.312	0.15
363.677	0.15
364.042	0.15
364.407	0.15
364.772	0.16
365.136	0.16
365.501	0.16
365.865	0.17
366.23	0.17
366.595	0.18
366.959	0.18
367.324	0.18
367.688	0.19
368.052	0.2
368.417	0.19
368.781	0.2
369.145	0.2
369.51	0.2
369.874	0.2
370.238	0.2
370.602	0.2
370.967	0.2
371.331	0.21
371.695	0.2
372.059	0.2
372.423	0.2
372.787	0.2
373.151	0.2
373.515	0.21
373.878	0.2
374.242	0.2
374.606	0.2
374.97	0.2
375.334	0.2
375.697	0.21
376.061	0.21
376.425	0.21
376.788	0.21
377.152	0.21
377.515	0.21
377.879	0.21
378.242	0.22
378.606	0.22
378.969	0.22
379.333	0.23
379.696	0.23
380.059	0.23
380.422	0.24
380.786	0.25
381.149	0.25
381.512	0.26
381.875	0.26
382.238	0.26
382.601	0.27
382.964	0.28
383.327	0.29
383.69	0.3
384.053	0.3
384.416	0.31
384.779	0.32
385.142	0.32
385.504	0.33
385.867	0.34
386.23	0.34
386.593	0.35
386.955	0.34
387.318	0.34
387.68	0.35
388.043	0.34
388.405	0.34
388.768	0.33
389.13	0.34
389.493	0.33
389.855	0.33
390.217	0.32
390.58	0.33
390.942	0.32
391.304	0.33
391.666	0.34
392.028	0.34
392.391	0.35
392.753	0.36
393.115	0.37
393.477	0.39
393.839	0.4
394.201	0.42
394.563	0.44
394.924	0.45
395.286	0.47
395.648	0.49
396.01	0.51
396.371	0.52
396.733	0.53
397.095	0.54
397.456	0.54
397.818	0.54
398.18	0.54
398.541	0.53
398.903	0.52
399.264	0.51
399.625	0.49
399.987	0.47
400.348	0.45
400.709	0.42
401.071	0.4
401.432	0.38
401.793	0.35
402.154	0.33
402.515	0.3
402.876	0.29
403.238	0.26
403.599	0.24
403.96	0.22
404.32	0.21
404.681	0.19
405.042	0.18
405.403	0.17
405.764	0.16
406.125	0.15
406.485	0.14
406.846	0.13
407.207	0.12
407.567	0.11
407.928	0.1
408.288	0.1
408.649	0.09
409.009	0.09
409.37	0.08
409.73	0.08
410.091	0.08
410.451	0.08
410.811	0.07
411.171	0.06
411.532	0.06
411.892	0.06
412.252	0.06
412.612	0.06
412.972	0.05
413.332	0.05
413.692	0.05
414.052	0.05
414.412	0.05
414.772	0.05
415.132	0.04
415.492	0.04
415.851	0.04
416.211	0.04
416.571	0.04
416.931	0.04
417.29	0.04
417.65	0.04
418.009	0.04
418.369	0.03
418.728	0.03
419.088	0.04
419.447	0.03
419.807	0.03
420.166	0.03
420.525	0.03
420.884	0.04
421.244	0.03
421.603	0.03
421.962	0.03
422.321	0.03
422.68	0.03
423.039	0.03
423.398	0.03
423.757	0.02
424.116	0.02
424.475	0.03
424.834	0.02
425.193	0.03
425.551	0.02
425.91	0.03
426.269	0.03
426.628	0.02
426.986	0.03
427.345	0.02
427.703	0.02
428.062	0.02
428.42	0.02
428.779	0.03
429.137	0.03
429.496	0.02
429.854	0.02
430.212	0.02
430.57	0.02
430.929	0.03
431.287	0.02
431.645	0.02
432.003	0.02
432.361	0.03
432.719	0.02
433.077	0.02
433.435	0.02
433.793	0.02
434.151	0.02
434.509	0.03
434.866	0.02
435.224	0.02
435.582	0.01
435.94	0.02
436.297	0.03
436.655	0.02
437.012	0.01
437.37	0.01
437.727	0.03
438.085	0.01
438.442	0.01
438.8	0.02
439.157	0.02
439.514	0.01
439.872	0.02
440.229	0.02
440.586	0.02
440.943	0.02
441.3	0.02
441.657	0.01
442.014	0.01
442.371	0.01
442.728	0.01
443.085	0.01
443.442	0.01
443.799	0.01
444.156	0.01
444.513	0.02
444.869	0.02
445.226	0.01
445.583	0.01
445.939	0.01
446.296	0.01
446.652	0.02
447.009	0.01
447.365	0.01
447.722	0.01
448.078	0.01
448.434	0.01
448.791	0.01
449.147	0.01
449.503	0.01
449.859	0.01
450.215	0.01
450.571	0.01
450.928	0.01
451.284	0.01
451.64	0.01
451.995	-0
452.351	0.01
452.707	0.01
453.063	0.01
453.419	0.01
453.775	0
454.13	0
454.486	0
454.842	0
455.197	0.01
455.553	-0
455.908	0.01
456.264	-0.01
456.619	0
456.975	0.01
457.33	0.01
457.685	0.01
458.04	0.01
458.396	-0
458.751	0
459.106	0
459.461	0.01
459.816	0.01
460.171	-0.01
460.526	0.01
460.881	0
461.236	0
461.591	-0.01
461.946	0
462.301	0
462.655	0
463.01	0
463.365	0
463.719	-0
464.074	-0
464.428	-0.01
464.783	0
465.137	-0.01
465.492	-0.01
465.846	-0.01
466.201	-0.01
466.555	-0
466.909	-0
467.263	-0
467.618	-0
467.972	-0.01
468.326	-0
468.68	-0.01
469.034	-0
469.388	-0.01
469.742	-0.01
470.096	-0
470.45	-0.01
470.804	-0.01
471.157	-0.01
471.511	-0.01
471.865	-0.01
472.218	-0.01
472.572	-0.01
472.926	-0.01
473.279	-0
473.633	-0
473.986	-0
474.34	0
474.693	-0
475.046	-0
475.4	0.01
475.753	0
476.106	0
476.459	-0
476.812	-0
477.165	0
477.519	0
477.872	0.01
478.224	0.01
478.577	0
478.93	0
479.283	0.01
479.636	0.01
479.989	0.01
480.341	0.01
480.694	0.01
481.047	0.01
481.399	0.01
481.752	0.01
482.104	0.01
482.457	0.01
482.809	0.01
483.162	0.01
483.514	0.01
483.866	0.01
484.219	0.01
484.571	0.01
484.923	0.01
485.275	0.02
485.627	0.02
485.979	0.01
486.331	0.02
486.683	0.02
487.035	0.02
487.387	0.02
487.739	0.02
488.091	0.02
488.443	0.01
488.794	0.02
489.146	0.02
489.498	0.02
489.849	0.02
490.201	0.02
490.552	0.01
490.904	0.02
491.255	0.02
491.607	0.02
491.958	0.02
492.309	0.02
492.661	0.02
493.012	0.02
493.363	0.02
493.714	0.02
494.065	0.02
494.416	0.02
494.767	0.02
495.118	0.02
495.469	0.03
495.82	0.03
496.171	0.02
496.522	0.02
496.872	0.02
497.223	0.02
497.574	0.02
497.924	0.03
498.275	0.03
498.626	0.03
498.976	0.02
499.327	0.02
499.677	0.02
500.027	0.03
500.378	0.03
500.728	0.03
501.078	0.03
501.428	0.03
501.779	0.03
502.129	0.03
502.479	0.03
502.829	0.03
503.179	0.03
503.529	0.03
503.879	0.03
504.229	0.04
504.578	0.03
504.928	0.03
505.278	0.03
505.628	0.03
505.977	0.03
506.327	0.03
506.676	0.04
507.026	0.03
507.375	0.03
507.725	0.04
508.074	0.04
508.424	0.04
508.773	0.04
509.122	0.04
509.471	0.04
509.82	0.04
510.17	0.04
510.519	0.04
510.868	0.04
511.217	0.04
511.566	0.04
511.915	0.04
512.263	0.04
512.612	0.04
512.961	0.04
513.31	0.04
513.659	0.04
514.007	0.05
514.356	0.04
514.704	0.05
515.053	0.04
515.401	0.04
515.75	0.05
516.098	0.04
516.447	0.05
516.795	0.05
517.143	0.05
517.491	0.05
517.839	0.04
518.188	0.05
518.536	0.05
518.884	0.05
519.232	0.05
519.58	0.05
519.928	0.05
520.275	0.05
520.623	0.05
520.971	0.06
521.319	0.06
521.666	0.06
522.014	0.06
522.362	0.05
522.709	0.05
523.057	0.05
523.404	0.06
523.752	0.06
524.099	0.06
524.446	0.05
524.794	0.06
525.141	0.06
525.488	0.06
525.835	0.06
526.182	0.06
526.529	0.06
526.876	0.06
527.223	0.06
527.57	0.06
527.917	0.06
528.264	0.06
528.611	0.07
528.958	0.07
529.304	0.07
529.651	0.07
529.998	0.07
530.344	0.07
530.691	0.06
531.037	0.07
531.384	0.07
531.73	0.07
532.076	0.07
532.423	0.07
532.769	0.07
533.115	0.07
533.461	0.07
533.807	0.07
534.154	0.07
534.5	0.07
534.846	0.08
535.192	0.08
535.537	0.08
535.883	0.07
536.229	0.08
536.575	0.08
536.921	0.08
537.266	0.08
537.612	0.08
537.957	0.09
538.303	0.08
538.649	0.08
538.994	0.08
539.339	0.08
539.685	0.09
540.03	0.08
540.375	0.08
540.721	0.09
541.066	0.09
541.411	0.08
541.756	0.08
542.101	0.09
542.446	0.09
542.791	0.09
543.136	0.09
543.481	0.09
543.825	0.09
544.17	0.09
544.515	0.09
544.86	0.09
545.204	0.09
545.549	0.09
545.893	0.09
546.238	0.09
546.582	0.1
546.927	0.09
547.271	0.09
547.615	0.1
547.96	0.09
548.304	0.1
548.648	0.09
548.992	0.1
549.336	0.1
549.68	0.1
550.024	0.1
550.368	0.1
550.712	0.1
551.056	0.1
551.4	0.1
551.743	0.1
552.087	0.11
552.431	0.11
552.774	0.11
553.118	0.11
553.462	0.11
553.805	0.11
554.148	0.11
554.492	0.11
554.835	0.11
555.178	0.11
555.522	0.11
555.865	0.11
556.208	0.11
556.551	0.12
556.894	0.12
557.237	0.12
557.58	0.11
557.923	0.11
558.266	0.11
558.609	0.12
558.952	0.12
559.294	0.12
559.637	0.12
559.98	0.12
560.322	0.12
560.665	0.12
561.007	0.12
561.35	0.11
561.692	0.12
562.034	0.12
562.377	0.12
562.719	0.12
563.061	0.12
563.403	0.12
563.745	0.12
564.088	0.13
564.43	0.12
564.772	0.12
565.113	0.12
565.455	0.12
565.797	0.12
566.139	0.12
566.481	0.12
566.822	0.12
567.164	0.12
567.506	0.12
567.847	0.12
568.189	0.13
568.53	0.12
568.872	0.12
569.213	0.13
569.554	0.12
569.895	0.12
570.237	0.13
570.578	0.12
570.919	0.13
571.26	0.13
571.601	0.13
571.942	0.12
572.283	0.12
572.624	0.13
572.965	0.13
573.306	0.13
573.646	0.12
573.987	0.12
574.328	0.13
574.668	0.13
575.009	0.13
575.349	0.13
575.69	0.12
576.03	0.13
576.37	0.13
576.711	0.12
577.051	0.13
577.391	0.13
577.731	0.13
578.072	0.13
578.412	0.13
578.752	0.13
579.092	0.13
579.431	0.12
579.771	0.12
580.111	0.12
580.451	0.12
580.791	0.13
581.13	0.13
581.47	0.13
581.81	0.13
582.149	0.13
582.489	0.13
582.828	0.13
583.167	0.13
583.507	0.12
583.846	0.12
584.185	0.12
584.525	0.13
584.864	0.13
585.203	0.13
585.542	0.13
585.881	0.13
586.22	0.14
586.559	0.14
586.898	0.13
587.236	0.13
587.575	0.13
587.914	0.13
588.252	0.13
588.591	0.13
588.93	0.14
589.268	0.14
589.607	0.14
589.945	0.13
590.283	0.14
590.622	0.14
590.96	0.14
591.298	0.14
591.636	0.14
591.974	0.14
592.313	0.14
592.651	0.14
592.989	0.14
593.326	0.15
593.664	0.15
594.002	0.15
594.34	0.15
594.678	0.15
595.015	0.15
595.353	0.14
595.691	0.15
596.028	0.15
596.366	0.15
596.703	0.15
597.04	0.15
597.378	0.15
597.715	0.15
598.052	0.16
598.389	0.16
598.726	0.16
599.064	0.16
599.401	0.16
599.738	0.16
600.074	0.16
600.411	0.16
600.748	0.16
601.085	0.16
601.422	0.16
601.758	0.16
602.095	0.16
602.432	0.16
602.768	0.16
603.105	0.15
603.441	0.16
603.777	0.15
604.114	0.16
604.45	0.16
604.786	0.16
605.122	0.16
605.459	0.16
605.795	0.16
606.131	0.16
606.467	0.16
606.803	0.16
607.139	0.16
607.474	0.16
607.81	0.16
608.146	0.16
608.482	0.16
608.817	0.16
609.153	0.15
609.488	0.16
609.824	0.15
610.159	0.15
610.495	0.15
610.83	0.15
611.165	0.15
611.5	0.15
611.836	0.15
612.171	0.15
612.506	0.15
612.841	0.15
613.176	0.15
613.511	0.15
613.845	0.15
614.18	0.15
614.515	0.15
614.85	0.15
615.184	0.15
615.519	0.15
615.854	0.15
616.188	0.15
616.523	0.15
616.857	0.15
617.191	0.15
617.526	0.15
617.86	0.14
618.194	0.14
618.528	0.14
618.862	0.14
619.196	0.15
619.53	0.14
619.864	0.14
620.198	0.14
620.532	0.14
620.866	0.14
621.2	0.14
621.533	0.14
621.867	0.14
622.201	0.14
622.534	0.14
622.868	0.14
623.201	0.13
623.534	0.13
623.868	0.14
624.201	0.13
624.534	0.14
624.868	0.14
625.201	0.13
625.534	0.13
625.867	0.13
626.2	0.13
626.533	0.13
626.865	0.14
627.198	0.13
627.531	0.14
627.864	0.14
628.196	0.14
628.529	0.13
628.862	0.13
629.194	0.13
629.527	0.13
629.859	0.13
630.191	0.13
630.524	0.13
630.856	0.13
631.188	0.13
631.52	0.12
631.852	0.12
632.184	0.12
632.516	0.12
632.848	0.12
633.18	0.11
633.512	0.11
633.844	0.11
634.175	0.12
634.507	0.12
634.839	0.11
635.17	0.11
635.502	0.11
635.833	0.11
636.165	0.11
636.496	0.1
636.827	0.1
637.159	0.11
637.49	0.11
637.821	0.1
638.152	0.1
638.483	0.1
638.814	0.1
639.145	0.1
639.476	0.1
639.807	0.1
640.137	0.1
640.468	0.1
640.799	0.09
641.129	0.1
641.46	0.09
641.791	0.1
642.121	0.09
642.451	0.09
642.782	0.09
643.112	0.09
643.442	0.09
643.773	0.09
644.103	0.09
644.433	0.09
644.763	0.08
645.093	0.09
645.423	0.09
645.753	0.09
646.082	0.08
646.412	0.09
646.742	0.09
647.072	0.08
647.401	0.08
647.731	0.08
648.06	0.08
648.39	0.08
648.719	0.09
649.048	0.08
649.378	0.08
649.707	0.08
650.036	0.09
650.365	0.09
650.694	0.08
651.023	0.09
651.352	0.08
651.681	0.09
652.01	0.08
652.339	0.08
652.668	0.08
652.996	0.08
653.325	0.08
653.654	0.08
653.982	0.08
654.311	0.08
654.639	0.08
654.967	0.08
655.296	0.08
655.624	0.07
655.952	0.08
656.28	0.08
656.609	0.08
656.937	0.08
657.265	0.08
657.593	0.08
657.92	0.01
658.248	0
658.576	0
658.904	0.05
659.231	0.08
659.559	0.08
659.887	0.08
660.214	0.08
660.542	0.08
660.869	0.08
661.196	0.08
661.524	0.08
661.851	0.08
662.178	0.08
662.505	0.08
662.832	0.08
663.159	0.08
663.486	0.09
663.813	0.09
664.14	0.09
664.467	0.08
664.794	0.08
665.12	0.08
665.447	0.08
665.774	0.08
666.1	0.08
666.427	0.08
666.753	0.07
667.079	0.08
667.406	0.08
667.732	0.08
668.058	0.07
668.384	0.08
668.71	0.08
669.036	0.08
669.362	0.07
669.688	0.07
670.014	0.07
670.34	0.07
670.666	0.07
670.991	0.07
671.317	0.07
671.643	0.08
671.968	0.07
672.294	0.07
672.619	0.07
672.945	0.07
673.27	0.07
673.595	0.07
673.92	0.07
674.246	0.07
674.571	0.07
674.896	0.07
675.221	0.07
675.546	0.07
675.87	0.07
676.195	0.07
676.52	0.07
676.845	0.07
677.169	0.07
677.494	0.07
677.819	0.07
678.143	0.07
678.468	0.07
678.792	0.07
679.116	0.06
679.44	0.07
679.765	0.06
680.089	0.06
680.413	0.06
680.737	0.06
681.061	0.06
681.385	0.06
681.709	0.06
682.033	0.05
682.356	0.06
682.68	0.05
683.004	0.05
683.327	0.05
683.651	0.06
683.974	0.06
684.298	0.05
684.621	0.05
684.944	0.05
685.268	0.05
685.591	0.06
685.914	0.05
686.237	0.05
686.56	0.05
686.883	0.05
687.206	0.05
687.529	0.05
687.852	0.05
688.175	0.05
688.497	0.05
688.82	0.05
689.142	0.05
689.465	0.05
689.787	0.05
690.11	0.05
690.432	0.05
690.755	0.05
691.077	0.04
691.399	0.05
691.721	0.05
692.043	0.05
692.365	0.04
692.687	0.04
693.009	0.04
693.331	0.04
693.653	0.04
693.974	0.04
694.296	0.04
694.618	0.04
694.939	0.04
695.261	0.04
695.582	0.04
695.904	0.04
696.225	0.04
696.546	0.04
696.868	0.04
697.189	0.04
697.51	0.04
697.831	0.04
698.152	0.04
698.473	0.04
698.794	0.04
699.114	0.04
699.435	0.03
699.756	0.03
700.077	0.03
700.397	0.03
700.718	0.03
701.038	0.03
701.359	0.03
701.679	0.03
701.999	0.03
702.32	0.03
702.64	0.03
702.96	0.03
703.28	0.03
703.6	0.03
703.92	0.03
704.24	0.02
704.56	0.03
704.879	0.03
705.199	0.03
705.519	0.03
705.838	0.03
706.158	0.03
706.478	0.03
706.797	0.03
707.116	0.03
707.436	0.02
707.755	0.02
708.074	0.02
708.393	0.02
708.712	0.02
709.031	0.03
709.35	0.03
709.669	0.03
709.988	0.03
710.307	0.03
710.626	0.03
710.944	0.03
711.263	0.03
711.582	0.03
711.9	0.03
712.219	0.03
712.537	0.03
712.855	0.03
713.174	0.03
713.492	0.04
713.81	0.04
714.128	0.04
714.446	0.04
714.764	0.03
715.082	0.03
715.4	0.03
715.718	0.03
716.035	0.03
716.353	0.03
716.671	0.03
716.988	0.03
717.306	0.03
717.623	0.03
717.941	0.03
718.258	0.03
718.575	0.03
718.893	0.03
719.21	0.03
719.527	0.03
719.844	0.03
720.161	0.03
720.478	0.03
720.795	0.03
721.112	0.03
721.428	0.02
721.745	0.03
722.062	0.02
722.378	0.02
722.695	0.02
723.011	0.02
723.328	0.02
723.644	0.03
723.96	0.03
724.276	0.03
724.593	0.02
724.909	0.03
725.225	0.03
725.541	0.03
725.857	0.03
726.173	0.03
726.488	0.03
726.804	0.03
727.12	0.04
727.435	0.03
727.751	0.03
728.067	0.03
728.382	0.03
728.697	0.03
729.013	0.03
729.328	0.03
729.643	0.03
729.958	0.03
730.273	0.03
730.588	0.03
730.903	0.03
731.218	0.03
731.533	0.03
731.848	0.03
732.163	0.02
732.477	0.03
732.792	0.03
733.107	0.03
733.421	0.02
733.736	0.03
734.05	0.03
734.364	0.03
734.678	0.03
734.993	0.03
735.307	0.03
735.621	0.03
735.935	0.03
736.249	0.03
736.563	0.03
736.877	0.03
737.19	0.03
737.504	0.03
737.818	0.03
738.131	0.03
738.445	0.03
738.758	0.02
739.072	0.02
739.385	0.02
739.698	0.03
740.012	0.03
740.325	0.03
740.638	0.03
740.951	0.03
741.264	0.02
741.577	0.02
741.89	0.03
742.203	0.03
742.515	0.03
742.828	0.03
743.141	0.03
743.453	0.03
743.766	0.03
744.078	0.03
744.391	0.03
744.703	0.03
745.015	0.03
745.327	0.03
745.639	0.03
745.952	0.02
746.264	0.02
746.575	0.03
746.887	0.03
747.199	0.03
747.511	0.03
747.823	0.02
748.134	0.02
748.446	0.03
748.757	0.03
749.069	0.03
749.38	0.03
749.692	0.02
750.003	0.02
750.314	0.02
750.625	0.02
750.936	0.02
751.248	0.02
751.559	0.02
751.869	0.02
752.18	0.03
752.491	0.02
752.802	0.03
753.112	0.02
753.423	0.02
753.734	0.02
754.044	0.03
754.355	0.02
754.665	0.02
754.975	0.02
755.285	0.02
755.596	0.02
755.906	0.02
756.216	0.01
756.526	0.02
756.836	0.01
757.146	0.01
757.455	0.01
757.765	0.01
758.075	0.01
758.385	0.01
758.694	0.01
759.004	0.01
759.313	0.01
759.622	0.01
759.932	0.01
760.241	0.01
760.55	0.01
760.859	0.01
761.168	0.01
761.477	0.01
761.786	0.01
762.095	0.01
762.404	0.01
762.713	0.02
763.021	0.02
763.33	0.02
763.639	0.01
763.947	0.01
764.256	0.01
764.564	0.01
764.872	0.02
765.181	0.01
765.489	0.01
765.797	0.01
766.105	0.01
766.413	0.01
766.721	0.01
767.029	0.01
767.337	0.01
767.644	0.01
767.952	0.01
768.26	0.01
768.567	0.01
768.875	0.01
769.182	0.01
769.49	0.01
769.797	0
770.104	0
770.411	0
770.718	0.01
771.026	0.01
771.333	0
771.639	0
771.946	0
772.253	0
772.56	-0
772.867	0
773.173	0
773.48	0
773.786	0
774.093	0
774.399	0
774.705	0.01
775.012	0
775.318	0
775.624	0
775.93	0
776.236	0
776.542	0
776.848	-0
777.154	-0
777.459	0
777.765	0
778.071	-0
778.376	-0
778.682	-0.01
778.987	-0
779.292	-0
779.598	0
779.903	0
780.208	0
780.513	0.01
780.818	0.01
781.123	0.01
781.428	0.01
781.733	0.01
782.038	0.01
782.343	0.01
782.647	0
782.952	0
783.256	0
783.561	0
783.865	0
784.17	0
784.474	0.01
784.778	0
785.082	0.01
785.386	0
785.69	0
785.994	-0
786.298	0
786.602	0
786.906	0
787.209	0
787.513	0
787.817	0
788.12	0
788.424	0.01
788.727	0.01
789.03	0.01
789.333	0.01
789.637	0.01
789.94	0.01
790.243	0.01
790.546	0.01
790.849	0.01
791.152	0.01
791.454	0.01
791.757	0.01
792.06	0.01
792.362	0.01
792.665	0
792.967	0.01
793.27	0.01
793.572	0
793.874	0
794.177	-0
794.479	-0
794.781	-0
795.083	-0
795.385	-0
795.687	-0
795.989	-0
796.29	-0
796.592	-0
796.894	-0
797.195	0
797.497	-0
797.798	-0
798.1	-0
798.401	-0.01
798.702	-0.01
799.003	-0.01
799.304	-0
799.605	-0.01
799.906	-0
800.207	-0
800.508	-0
800.809	0
801.11	-0
801.41	-0
801.711	-0
802.011	-0
802.312	-0
802.612	0
802.913	0
803.213	0.01
803.513	0
803.813	0
804.113	0.01
804.413	0
804.713	0
805.013	0
805.313	0
805.613	0.01
805.912	0
806.212	0
806.511	0
806.811	-0.01
807.11	-0
807.41	-0
807.709	0
808.008	-0
808.307	-0.01
808.606	-0
808.905	-0
809.204	-0
809.503	-0
809.802	0
810.101	0
810.399	-0
810.698	0
810.997	-0
811.295	0
811.593	-0
811.892	-0
812.19	0
812.488	-0.01
812.786	-0
813.084	-0
813.383	-0.01
813.68	-0.01
813.978	-0
814.276	-0.01
814.574	-0.01
814.872	-0.01
815.169	-0.01
815.467	-0.01
815.764	-0.01
816.062	-0.01
816.359	-0.01
816.656	0
816.954	0
817.251	0.01
817.548	0
817.845	-0
818.142	-0
818.439	-0
818.735	-0
819.032	-0.01
819.329	-0
819.626	-0
819.922	-0.01
820.219	-0.01
820.515	-0.01
820.811	-0.01
821.108	-0.01
821.404	-0
821.7	-0
821.996	-0.01
822.292	-0.01
822.588	-0
822.884	-0
823.18	-0
823.475	-0.01
823.771	-0.01
824.067	-0
824.362	-0
824.658	0
824.953	0
825.249	0.01
825.544	0.01
825.839	0.01
826.134	0
826.429	0.01
826.724	0.01
827.019	0.01
827.314	-0
827.609	-0.01
827.904	-0
828.198	-0
828.493	-0.01
828.787	-0
829.082	-0
829.376	-0.01
829.671	-0.01
829.965	-0.01
830.259	-0
830.553	-0
830.847	-0
831.141	-0.01
831.435	-0
831.729	-0
832.023	-0
832.317	-0
832.61	-0
832.904	-0.01
833.197	-0
833.491	0
833.784	-0
834.077	-0
834.371	-0
834.664	-0.01
834.957	-0.01
835.25	-0.01
835.543	-0.01
835.836	-0.01
836.129	-0
836.421	-0.01
836.714	-0.01
837.007	-0.01
837.299	-0.01
837.592	0
837.884	-0.01
838.177	0.01
838.469	-0
838.761	-0
839.053	-0
839.345	-0
839.637	-0
839.929	-0
840.221	-0.01
840.513	-0.01
840.805	-0
841.096	0
841.388	0
841.68	0
841.971	0.01
842.262	0.01
842.554	0
842.845	0
843.136	-0
843.427	-0.01
843.718	0
844.009	0.01
844.3	-0
844.591	-0.01
844.882	-0.01
845.173	-0.01
845.463	-0.01
845.754	-0
846.044	-0.02
846.335	-0.01
846.625	-0.01
846.915	-0.02
847.206	-0.02
847.496	0
847.786	-0.01
848.076	-0.01
848.366	-0
848.656	-0.01
848.945	-0.01
849.235	-0.02
849.525	-0
849.814	-0.01
850.104	-0.02
850.393	-0.01
850.683	-0.02
850.972	-0
851.261	-0.02
851.551	0.01
851.84	-0.01
852.129	0.01
852.418	-0
852.707	0
852.995	-0.01
853.284	0
853.573	-0
853.862	-0.01
854.15	-0.01
854.439	-0.02
854.727	-0.01
855.015	-0.01
855.304	-0.02
855.592	-0
855.88	-0.01
856.168	-0
856.456	-0.01
856.744	-0.02
857.032	-0
857.32	-0.01
857.607	-0.01
857.895	-0.04
858.183	-0.03
858.47	-0.01
858.757	-0.02
859.045	-0
859.332	-0
859.619	-0
859.907	-0.01
860.194	-0.03
860.481	-0.04
860.768	-0.05
861.054	-0.04
861.341	-0.02
861.628	-0.04
861.915	-0.03
862.201	-0.01
862.488	0.01
862.774	-0.01
863.061	-0.02
863.347	-0.02
863.633	-0.02
863.919	0.03
864.205	-0.02
864.491	0.02
864.777	-0.01
865.063	0.01
865.349	-0.01
865.635	-0.03
865.92	-0.04
866.206	-0.04
866.492	-0.03
866.777	-0.02
867.062	-0.04
867.348	0.02
867.633	-0.03
867.918	-0.03
868.203	-0.02
868.488	-0
868.773	-0.03
869.058	0
869.343	-0.02
869.628	-0.05
869.912	0.02
870.197	0
870.482	-0.04
870.766	-0.02
871.05	-0.03
871.335	-0.03
871.619	0.02
871.903	-0.04
872.187	-0.09
872.471	-0.02
872.755	-0.04
873.039	-0.07
873.323	-0.06
873.607	-0
873.89	-0.02
874.174	0
874.458	0.04
874.741	-0.02
875.024	-0
875.308	-0.04
875.591	0.06
875.874	-0.07
876.157	-0.07
876.44	-0.08
876.723	0.02
877.006	-0.03
877.289	0.02
877.572	-0.02
877.854	-0.09
878.137	-0.03
878.42	-0.05
878.702	-0.05
878.984	0.14
879.267	0.02
879.549	-0.08
879.831	-0.09
880.113	0.14
880.395	-0.03
880.677	-0.12
880.959	-0.02
