Data from Rubpy_EV_1200_EDTA_Absorbance_12-56-33-613.txt Node
Date: Mon Jun 29 12:56:33 BST 2026
User: fpm-admin
Spectrometer: OFX00224
Trigger mode: 0
Integration Time (sec): 7.000000E-2
Scans to average: 3
Nonlinearity correction enabled: false
Boxcar width: 0
Storing dark spectrum: false
XAxis mode: Wavelengths
Number of Pixels in Spectrum: 2136
>>>>>Begin Spectral Data<<<<<
154.91	-0
155.289	0.04
155.669	0.13
156.048	0.36
156.428	-0
156.807	-0
157.186	0.5
157.566	0.08
157.945	-0.22
158.325	-0.09
158.704	0.24
159.083	0.12
159.462	-0.17
159.842	-0
160.221	-0.02
160.6	-0
160.979	-1.01
161.359	-0.54
161.738	-0.22
162.117	-0.07
162.496	-0.27
162.875	0.15
163.254	-0.32
163.633	-0.07
164.012	-0
164.391	-0
164.77	-0
165.149	-0.03
165.528	0.57
165.907	0.03
166.286	-0.14
166.665	0.63
167.044	-0
167.423	0.12
167.802	0.31
168.181	0.21
168.559	-0.66
168.938	0.06
169.317	-0
169.696	0.36
170.074	-0.27
170.453	0.06
170.832	0.21
171.21	0.18
171.589	-0.14
171.968	0.1
172.346	-0
172.725	0.32
173.103	-0
173.482	0.2
173.861	-0.3
174.239	-0
174.617	-0
174.996	0.18
175.374	-0
175.753	0.06
176.131	-0.74
176.51	0.72
176.888	-0
177.266	-0
177.645	0.12
178.023	-0.14
178.401	-0.07
178.779	0.2
179.158	-0.12
179.536	-0
179.914	0.11
180.292	-0.08
180.67	-0
181.048	-0
181.427	-0
181.805	-0.53
182.183	0.29
182.561	0.28
182.939	-0.24
183.317	-0.44
183.695	-0
184.073	-0.37
184.451	-0
184.829	-0.18
185.206	0.12
185.584	-0.68
185.962	-0.8
186.34	-0
186.718	-0.3
187.096	-0
187.473	0.87
187.851	-0.12
188.229	-0.37
188.607	0.16
188.984	0.04
189.362	0.05
189.74	0.05
190.117	0.01
190.495	0.04
190.872	-0.04
191.25	0.14
191.627	0.05
192.005	0.09
192.382	0.06
192.76	0.22
193.137	0.28
193.515	0.04
193.892	0.12
194.269	0.19
194.647	0.14
195.024	0.16
195.401	0.18
195.779	0.27
196.156	0.1
196.533	0.15
196.91	-0.05
197.288	0.29
197.665	0.07
198.042	0.2
198.419	0.16
198.796	0.02
199.173	0.16
199.55	0.14
199.927	0.23
200.304	0.26
200.681	0.2
201.058	0.08
201.435	0.17
201.812	0.18
202.189	0.36
202.566	0.24
202.943	0.28
203.32	0.16
203.697	0.15
204.073	0.08
204.45	0.09
204.827	0.17
205.204	0.21
205.58	0.05
205.957	0.09
206.334	0.01
206.71	0.12
207.087	0.15
207.464	0.19
207.84	0.04
208.217	0.32
208.593	0.16
208.97	0.05
209.346	0.26
209.723	0.15
210.099	0.34
210.476	0.15
210.852	0.15
211.228	0.27
211.605	0.18
211.981	0.04
212.357	0.02
212.733	0.3
213.11	0.14
213.486	0.11
213.862	0.2
214.238	0.16
214.614	0.09
214.991	0.09
215.367	0.13
215.743	0.12
216.119	0.33
216.495	0.06
216.871	0.2
217.247	0.09
217.623	0.1
217.999	0.03
218.375	0.31
218.751	0.05
219.127	0.02
219.502	0.1
219.878	0.05
220.254	0.13
220.63	0.12
221.006	0.18
221.381	0.09
221.757	0.12
222.133	0.15
222.508	0.19
222.884	0.12
223.26	0.13
223.635	0.06
224.011	0.11
224.386	0.17
224.762	0.08
225.137	0.23
225.513	0.27
225.888	0.17
226.264	0.1
226.639	0.23
227.014	0.15
227.39	0.05
227.765	0.18
228.14	0.23
228.516	0.1
228.891	0.23
229.266	0.26
229.641	0.03
230.017	0.27
230.392	0.1
230.767	0.17
231.142	0.14
231.517	0.19
231.892	0.2
232.267	0.15
232.642	0.05
233.017	0.17
233.392	0.14
233.767	0.17
234.142	0.1
234.517	0.13
234.892	-0.02
235.267	0.11
235.641	0.24
236.016	0.04
236.391	0.19
236.766	0.19
237.14	0.12
237.515	0.21
237.89	0.24
238.264	0.28
238.639	0.13
239.014	0.19
239.388	0.16
239.763	0.14
240.137	0.17
240.512	0.12
240.886	0.09
241.261	0.2
241.635	0.18
242.009	0.19
242.384	0.13
242.758	0.12
243.132	0.15
243.507	0.2
243.881	0.18
244.255	0.01
244.629	0.09
245.004	0.15
245.378	0.24
245.752	0.17
246.126	0.1
246.5	0.24
246.874	0.37
247.248	0.12
247.622	0.08
247.996	0.15
248.37	0.26
248.744	0.26
249.118	0.2
249.492	0.21
249.866	0.08
250.24	0.16
250.613	0.08
250.987	0.26
251.361	0.15
251.735	0.13
252.108	0.23
252.482	0.29
252.856	0.17
253.229	0.2
253.603	0.11
253.977	0.11
254.35	0.1
254.724	0.15
255.097	0.16
255.471	0.18
255.844	0.31
256.218	0.19
256.591	0.17
256.964	0.14
257.338	0.21
257.711	0.16
258.084	0.15
258.458	0.09
258.831	0.08
259.204	0.19
259.577	0.05
259.95	0.17
260.323	0.13
260.697	0.17
261.07	0.16
261.443	0.15
261.816	0.12
262.189	0.12
262.562	0.21
262.935	0.11
263.308	0.19
263.68	0.2
264.053	0.21
264.426	0.11
264.799	0.2
265.172	0.18
265.545	0.2
265.917	0.23
266.29	0.17
266.663	0.09
267.035	0.22
267.408	0.15
267.781	0.13
268.153	0.28
268.526	0.22
268.898	0.14
269.271	0.14
269.643	0.2
270.016	0.09
270.388	0.09
270.76	0.11
271.133	0.13
271.505	0.12
271.877	0.05
272.25	0.18
272.622	0.13
272.994	0.16
273.366	0.13
273.739	0.13
274.111	0.17
274.483	0.13
274.855	0.12
275.227	0.09
275.599	0.13
275.971	0.09
276.343	0.15
276.715	0.27
277.087	0.15
277.459	0.26
277.831	0.13
278.203	0.12
278.574	0.18
278.946	0.22
279.318	0.2
279.69	0.1
280.061	0.16
280.433	0.27
280.805	0.13
281.176	0.17
281.548	0.12
281.92	0.22
282.291	0.08
282.663	0.26
283.034	0.2
283.406	0.2
283.777	0.17
284.148	0.19
284.52	0.17
284.891	0.16
285.262	0.16
285.634	0.19
286.005	0.14
286.376	0.26
286.747	0.19
287.119	0.13
287.49	0.11
287.861	0.15
288.232	0.11
288.603	0.19
288.974	0.18
289.345	0.15
289.716	0.18
290.087	0.18
290.458	0.14
290.829	0.2
291.2	0.08
291.571	0.12
291.941	0.13
292.312	0.19
292.683	0.13
293.054	0.19
293.424	0.15
293.795	0.18
294.166	0.11
294.536	0.12
294.907	0.16
295.277	0.14
295.648	0.17
296.018	0.15
296.389	0.14
296.759	0.14
297.13	0.17
297.5	0.16
297.871	0.15
298.241	0.15
298.611	0.08
298.981	0.12
299.352	0.14
299.722	0.11
300.092	0.13
300.462	0.15
300.832	0.1
301.202	0.12
301.573	0.09
301.943	0.1
302.313	0.1
302.683	0.11
303.053	0.1
303.422	0.11
303.792	0.09
304.162	0.09
304.532	0.09
304.902	0.1
305.272	0.1
305.641	0.1
306.011	0.11
306.381	0.11
306.75	0.1
307.12	0.11
307.49	0.12
307.859	0.13
308.229	0.11
308.598	0.11
308.968	0.12
309.337	0.12
309.707	0.12
310.076	0.13
310.445	0.13
310.815	0.13
311.184	0.13
311.553	0.12
311.923	0.13
312.292	0.14
312.661	0.14
313.03	0.14
313.399	0.13
313.768	0.13
314.137	0.13
314.506	0.13
314.875	0.13
315.244	0.13
315.613	0.13
315.982	0.14
316.351	0.13
316.72	0.13
317.089	0.13
317.458	0.13
317.826	0.13
318.195	0.13
318.564	0.12
318.933	0.13
319.301	0.12
319.67	0.13
320.038	0.12
320.407	0.12
320.775	0.12
321.144	0.12
321.512	0.12
321.881	0.11
322.249	0.12
322.618	0.12
322.986	0.11
323.354	0.1
323.723	0.11
324.091	0.11
324.459	0.11
324.827	0.1
325.195	0.1
325.564	0.11
325.932	0.1
326.3	0.1
326.668	0.1
327.036	0.11
327.404	0.1
327.772	0.11
328.14	0.1
328.508	0.11
328.875	0.1
329.243	0.1
329.611	0.11
329.979	0.11
330.346	0.1
330.714	0.1
331.082	0.11
331.449	0.11
331.817	0.11
332.185	0.11
332.552	0.11
332.92	0.11
333.287	0.11
333.655	0.12
334.022	0.11
334.389	0.11
334.757	0.11
335.124	0.11
335.491	0.12
335.859	0.12
336.226	0.12
336.593	0.12
336.96	0.12
337.327	0.12
337.695	0.13
338.062	0.13
338.429	0.13
338.796	0.13
339.163	0.13
339.53	0.14
339.897	0.14
340.263	0.14
340.63	0.14
340.997	0.14
341.364	0.15
341.731	0.15
342.097	0.15
342.464	0.15
342.831	0.15
343.197	0.15
343.564	0.16
343.931	0.16
344.297	0.17
344.664	0.17
345.03	0.17
345.396	0.17
345.763	0.17
346.129	0.18
346.496	0.18
346.862	0.18
347.228	0.19
347.594	0.19
347.961	0.19
348.327	0.19
348.693	0.2
349.059	0.2
349.425	0.2
349.791	0.21
350.157	0.21
350.523	0.21
350.889	0.22
351.255	0.22
351.621	0.23
351.987	0.23
352.353	0.24
352.719	0.24
353.084	0.24
353.45	0.25
353.816	0.26
354.181	0.26
354.547	0.26
354.913	0.27
355.278	0.27
355.644	0.28
356.009	0.29
356.375	0.3
356.74	0.29
357.106	0.31
357.471	0.31
357.836	0.32
358.202	0.33
358.567	0.33
358.932	0.34
359.297	0.35
359.663	0.35
360.028	0.36
360.393	0.36
360.758	0.37
361.123	0.37
361.488	0.38
361.853	0.38
362.218	0.38
362.583	0.39
362.948	0.4
363.312	0.4
363.677	0.41
364.042	0.41
364.407	0.42
364.772	0.43
365.136	0.43
365.501	0.44
365.865	0.45
366.23	0.46
366.595	0.48
366.959	0.48
367.324	0.49
367.688	0.5
368.052	0.51
368.417	0.53
368.781	0.53
369.145	0.53
369.51	0.54
369.874	0.54
370.238	0.54
370.602	0.54
370.967	0.55
371.331	0.54
371.695	0.54
372.059	0.53
372.423	0.54
372.787	0.53
373.151	0.53
373.515	0.53
373.878	0.53
374.242	0.52
374.606	0.53
374.97	0.52
375.334	0.53
375.697	0.54
376.061	0.54
376.425	0.54
376.788	0.54
377.152	0.55
377.515	0.56
377.879	0.56
378.242	0.57
378.606	0.58
378.969	0.58
379.333	0.59
379.696	0.6
380.059	0.61
380.422	0.61
380.786	0.63
381.149	0.64
381.512	0.65
381.875	0.67
382.238	0.68
382.601	0.7
382.964	0.72
383.327	0.74
383.69	0.76
384.053	0.78
384.416	0.8
384.779	0.82
385.142	0.83
385.504	0.84
385.867	0.86
386.23	0.87
386.593	0.88
386.955	0.88
387.318	0.88
387.68	0.87
388.043	0.86
388.405	0.86
388.768	0.85
389.13	0.85
389.493	0.84
389.855	0.84
390.217	0.84
390.58	0.83
390.942	0.84
391.304	0.85
391.666	0.86
392.028	0.87
392.391	0.89
392.753	0.92
393.115	0.95
393.477	0.98
393.839	1.02
394.201	1.06
394.563	1.09
394.924	1.14
395.286	1.18
395.648	1.22
396.01	1.25
396.371	1.29
396.733	1.31
397.095	1.34
397.456	1.35
397.818	1.32
398.18	1.32
398.541	1.31
398.903	1.27
399.264	1.25
399.625	1.21
399.987	1.16
400.348	1.11
400.709	1.06
401.071	1
401.432	0.94
401.793	0.87
402.154	0.82
402.515	0.77
402.876	0.72
403.238	0.66
403.599	0.62
403.96	0.57
404.32	0.53
404.681	0.49
405.042	0.45
405.403	0.43
405.764	0.39
406.125	0.36
406.485	0.33
406.846	0.32
407.207	0.3
407.567	0.28
407.928	0.27
408.288	0.25
408.649	0.23
409.009	0.23
409.37	0.21
409.73	0.21
410.091	0.19
410.451	0.19
410.811	0.17
411.171	0.17
411.532	0.16
411.892	0.15
412.252	0.15
412.612	0.15
412.972	0.14
413.332	0.13
413.692	0.13
414.052	0.12
414.412	0.12
414.772	0.11
415.132	0.11
415.492	0.11
415.851	0.11
416.211	0.1
416.571	0.09
416.931	0.1
417.29	0.09
417.65	0.09
418.009	0.09
418.369	0.08
418.728	0.09
419.088	0.09
419.447	0.08
419.807	0.08
420.166	0.08
420.525	0.08
420.884	0.08
421.244	0.08
421.603	0.07
421.962	0.07
422.321	0.07
422.68	0.07
423.039	0.08
423.398	0.06
423.757	0.06
424.116	0.07
424.475	0.06
424.834	0.06
425.193	0.06
425.551	0.06
425.91	0.06
426.269	0.07
426.628	0.06
426.986	0.06
427.345	0.05
427.703	0.06
428.062	0.05
428.42	0.06
428.779	0.06
429.137	0.06
429.496	0.05
429.854	0.06
430.212	0.06
430.57	0.05
430.929	0.06
431.287	0.05
431.645	0.05
432.003	0.05
432.361	0.06
432.719	0.05
433.077	0.04
433.435	0.05
433.793	0.05
434.151	0.05
434.509	0.05
434.866	0.04
435.224	0.05
435.582	0.04
435.94	0.05
436.297	0.05
436.655	0.05
437.012	0.04
437.37	0.04
437.727	0.05
438.085	0.04
438.442	0.05
438.8	0.05
439.157	0.05
439.514	0.04
439.872	0.04
440.229	0.04
440.586	0.04
440.943	0.04
441.3	0.04
441.657	0.04
442.014	0.04
442.371	0.04
442.728	0.04
443.085	0.04
443.442	0.04
443.799	0.05
444.156	0.04
444.513	0.05
444.869	0.04
445.226	0.03
445.583	0.04
445.939	0.04
446.296	0.04
446.652	0.03
447.009	0.03
447.365	0.03
447.722	0.04
448.078	0.03
448.434	0.03
448.791	0.03
449.147	0.03
449.503	0.03
449.859	0.03
450.215	0.03
450.571	0.03
450.928	0.04
451.284	0.04
451.64	0.03
451.995	0.02
452.351	0.03
452.707	0.02
453.063	0.03
453.419	0.03
453.775	0.02
454.13	0.02
454.486	0.03
454.842	0.02
455.197	0.02
455.553	0.02
455.908	0.03
456.264	0.02
456.619	0.03
456.975	0.03
457.33	0.02
457.685	0.03
458.04	0.03
458.396	0.02
458.751	0.02
459.106	0.02
459.461	0.04
459.816	0.03
460.171	0.02
460.526	0.03
460.881	0.02
461.236	0.02
461.591	0.01
461.946	0.03
462.301	0.02
462.655	0.03
463.01	0.02
463.365	0.03
463.719	0.02
464.074	0.01
464.428	0.01
464.783	0.02
465.137	0.01
465.492	0.02
465.846	0.01
466.201	0.02
466.555	0.02
466.909	0.02
467.263	0.02
467.618	0.02
467.972	0.01
468.326	0.02
468.68	0.01
469.034	0.01
469.388	0.02
469.742	0.01
470.096	0.02
470.45	0.01
470.804	0.01
471.157	0.02
471.511	0.01
471.865	0.02
472.218	0.02
472.572	0.02
472.926	0.02
473.279	0.02
473.633	0.02
473.986	0.02
474.34	0.02
474.693	0.03
475.046	0.02
475.4	0.03
475.753	0.03
476.106	0.02
476.459	0.02
476.812	0.03
477.165	0.03
477.519	0.03
477.872	0.04
478.224	0.03
478.577	0.03
478.93	0.03
479.283	0.03
479.636	0.03
479.989	0.04
480.341	0.03
480.694	0.04
481.047	0.04
481.399	0.04
481.752	0.04
482.104	0.04
482.457	0.04
482.809	0.04
483.162	0.05
483.514	0.04
483.866	0.04
484.219	0.04
484.571	0.05
484.923	0.05
485.275	0.05
485.627	0.05
485.979	0.05
486.331	0.05
486.683	0.05
487.035	0.05
487.387	0.05
487.739	0.05
488.091	0.06
488.443	0.05
488.794	0.06
489.146	0.06
489.498	0.06
489.849	0.05
490.201	0.06
490.552	0.06
490.904	0.06
491.255	0.06
491.607	0.06
491.958	0.06
492.309	0.06
492.661	0.06
493.012	0.07
493.363	0.07
493.714	0.07
494.065	0.07
494.416	0.07
494.767	0.07
495.118	0.07
495.469	0.07
495.82	0.07
496.171	0.07
496.522	0.07
496.872	0.07
497.223	0.07
497.574	0.07
497.924	0.08
498.275	0.08
498.626	0.08
498.976	0.08
499.327	0.07
499.677	0.08
500.027	0.08
500.378	0.08
500.728	0.08
501.078	0.08
501.428	0.09
501.779	0.08
502.129	0.09
502.479	0.09
502.829	0.09
503.179	0.09
503.529	0.09
503.879	0.09
504.229	0.1
504.578	0.1
504.928	0.09
505.278	0.1
505.628	0.1
505.977	0.1
506.327	0.09
506.676	0.1
507.026	0.1
507.375	0.1
507.725	0.1
508.074	0.1
508.424	0.11
508.773	0.11
509.122	0.11
509.471	0.11
509.82	0.11
510.17	0.11
510.519	0.11
510.868	0.11
511.217	0.12
511.566	0.11
511.915	0.12
512.263	0.12
512.612	0.12
512.961	0.12
513.31	0.12
513.659	0.12
514.007	0.13
514.356	0.13
514.704	0.13
515.053	0.13
515.401	0.13
515.75	0.13
516.098	0.13
516.447	0.13
516.795	0.13
517.143	0.13
517.491	0.14
517.839	0.13
518.188	0.14
518.536	0.14
518.884	0.14
519.232	0.14
519.58	0.14
519.928	0.14
520.275	0.15
520.623	0.15
520.971	0.15
521.319	0.15
521.666	0.16
522.014	0.15
522.362	0.15
522.709	0.15
523.057	0.15
523.404	0.16
523.752	0.16
524.099	0.16
524.446	0.16
524.794	0.16
525.141	0.16
525.488	0.16
525.835	0.16
526.182	0.16
526.529	0.16
526.876	0.17
527.223	0.16
527.57	0.17
527.917	0.17
528.264	0.17
528.611	0.17
528.958	0.17
529.304	0.18
529.651	0.17
529.998	0.18
530.344	0.18
530.691	0.18
531.037	0.19
531.384	0.18
531.73	0.18
532.076	0.19
532.423	0.19
532.769	0.19
533.115	0.19
533.461	0.19
533.807	0.2
534.154	0.19
534.5	0.2
534.846	0.2
535.192	0.2
535.537	0.2
535.883	0.2
536.229	0.21
536.575	0.21
536.921	0.21
537.266	0.21
537.612	0.21
537.957	0.21
538.303	0.22
538.649	0.22
538.994	0.22
539.339	0.22
539.685	0.22
540.03	0.22
540.375	0.22
540.721	0.22
541.066	0.23
541.411	0.23
541.756	0.23
542.101	0.23
542.446	0.23
542.791	0.24
543.136	0.24
543.481	0.24
543.825	0.24
544.17	0.24
544.515	0.24
544.86	0.24
545.204	0.25
545.549	0.25
545.893	0.25
546.238	0.25
546.582	0.25
546.927	0.26
547.271	0.26
547.615	0.26
547.96	0.27
548.304	0.27
548.648	0.27
548.992	0.27
549.336	0.27
549.68	0.27
550.024	0.27
550.368	0.27
550.712	0.27
551.056	0.28
551.4	0.28
551.743	0.28
552.087	0.28
552.431	0.28
552.774	0.28
553.118	0.29
553.462	0.29
553.805	0.28
554.148	0.29
554.492	0.29
554.835	0.3
555.178	0.29
555.522	0.29
555.865	0.3
556.208	0.29
556.551	0.3
556.894	0.3
557.237	0.3
557.58	0.3
557.923	0.3
558.266	0.3
558.609	0.3
558.952	0.31
559.294	0.31
559.637	0.31
559.98	0.31
560.322	0.31
560.665	0.31
561.007	0.31
561.35	0.31
561.692	0.31
562.034	0.31
562.377	0.31
562.719	0.31
563.061	0.31
563.403	0.32
563.745	0.32
564.088	0.32
564.43	0.32
564.772	0.31
565.113	0.32
565.455	0.32
565.797	0.32
566.139	0.32
566.481	0.32
566.822	0.32
567.164	0.32
567.506	0.32
567.847	0.32
568.189	0.33
568.53	0.33
568.872	0.33
569.213	0.33
569.554	0.33
569.895	0.33
570.237	0.33
570.578	0.33
570.919	0.33
571.26	0.33
571.601	0.33
571.942	0.33
572.283	0.33
572.624	0.33
572.965	0.33
573.306	0.33
573.646	0.33
573.987	0.33
574.328	0.33
574.668	0.33
575.009	0.33
575.349	0.34
575.69	0.33
576.03	0.33
576.37	0.33
576.711	0.34
577.051	0.34
577.391	0.33
577.731	0.34
578.072	0.34
578.412	0.34
578.752	0.34
579.092	0.33
579.431	0.33
579.771	0.33
580.111	0.33
580.451	0.33
580.791	0.34
581.13	0.33
581.47	0.34
581.81	0.34
582.149	0.34
582.489	0.34
582.828	0.34
583.167	0.34
583.507	0.33
583.846	0.33
584.185	0.34
584.525	0.34
584.864	0.34
585.203	0.35
585.542	0.35
585.881	0.35
586.22	0.35
586.559	0.35
586.898	0.35
587.236	0.35
587.575	0.35
587.914	0.35
588.252	0.35
588.591	0.36
588.93	0.36
589.268	0.36
589.607	0.36
589.945	0.36
590.283	0.37
590.622	0.36
590.96	0.37
591.298	0.37
591.636	0.37
591.974	0.38
592.313	0.38
592.651	0.38
592.989	0.38
593.326	0.39
593.664	0.39
594.002	0.39
594.34	0.39
594.678	0.39
595.015	0.39
595.353	0.39
595.691	0.39
596.028	0.39
596.366	0.39
596.703	0.39
597.04	0.4
597.378	0.4
597.715	0.4
598.052	0.41
598.389	0.41
598.726	0.4
599.064	0.41
599.401	0.41
599.738	0.41
600.074	0.41
600.411	0.41
600.748	0.41
601.085	0.41
601.422	0.41
601.758	0.41
602.095	0.41
602.432	0.41
602.768	0.41
603.105	0.41
603.441	0.41
603.777	0.41
604.114	0.41
604.45	0.42
604.786	0.41
605.122	0.41
605.459	0.41
605.795	0.42
606.131	0.41
606.467	0.41
606.803	0.41
607.139	0.42
607.474	0.42
607.81	0.41
608.146	0.42
608.482	0.41
608.817	0.41
609.153	0.41
609.488	0.41
609.824	0.41
610.159	0.41
610.495	0.4
610.83	0.4
611.165	0.4
611.5	0.4
611.836	0.4
612.171	0.4
612.506	0.4
612.841	0.4
613.176	0.4
613.511	0.4
613.845	0.39
614.18	0.39
614.515	0.39
614.85	0.39
615.184	0.39
615.519	0.39
615.854	0.39
616.188	0.39
616.523	0.39
616.857	0.39
617.191	0.39
617.526	0.38
617.86	0.38
618.194	0.38
618.528	0.38
618.862	0.38
619.196	0.38
619.53	0.37
619.864	0.37
620.198	0.37
620.532	0.37
620.866	0.37
621.2	0.37
621.533	0.37
621.867	0.37
622.201	0.37
622.534	0.37
622.868	0.37
623.201	0.36
623.534	0.36
623.868	0.36
624.201	0.35
624.534	0.36
624.868	0.36
625.201	0.35
625.534	0.35
625.867	0.35
626.2	0.35
626.533	0.34
626.865	0.35
627.198	0.35
627.531	0.35
627.864	0.35
628.196	0.35
628.529	0.34
628.862	0.34
629.194	0.34
629.527	0.33
629.859	0.34
630.191	0.33
630.524	0.33
630.856	0.33
631.188	0.33
631.52	0.32
631.852	0.32
632.184	0.31
632.516	0.31
632.848	0.3
633.18	0.3
633.512	0.31
633.844	0.3
634.175	0.3
634.507	0.3
634.839	0.3
635.17	0.3
635.502	0.3
635.833	0.29
636.165	0.29
636.496	0.28
636.827	0.28
637.159	0.28
637.49	0.28
637.821	0.27
638.152	0.27
638.483	0.27
638.814	0.27
639.145	0.27
639.476	0.27
639.807	0.26
640.137	0.26
640.468	0.26
640.799	0.26
641.129	0.26
641.46	0.25
641.791	0.25
642.121	0.25
642.451	0.25
642.782	0.24
643.112	0.24
643.442	0.24
643.773	0.24
644.103	0.24
644.433	0.24
644.763	0.24
645.093	0.24
645.423	0.23
645.753	0.23
646.082	0.23
646.412	0.23
646.742	0.23
647.072	0.22
647.401	0.23
647.731	0.22
648.06	0.22
648.39	0.22
648.719	0.23
649.048	0.23
649.378	0.23
649.707	0.23
650.036	0.23
650.365	0.23
650.694	0.23
651.023	0.23
651.352	0.22
651.681	0.22
652.01	0.22
652.339	0.22
652.668	0.21
652.996	0.22
653.325	0.22
653.654	0.21
653.982	0.21
654.311	0.21
654.639	0.22
654.967	0.22
655.296	0.22
655.624	0.21
655.952	0.22
656.28	0.22
656.609	0.21
656.937	0.21
657.265	0.22
657.593	0.21
657.92	0.13
658.248	0.08
658.576	0.09
658.904	0.18
659.231	0.21
659.559	0.21
659.887	0.21
660.214	0.21
660.542	0.21
660.869	0.21
661.196	0.21
661.524	0.21
661.851	0.21
662.178	0.22
662.505	0.21
662.832	0.21
663.159	0.21
663.486	0.22
663.813	0.21
664.14	0.21
664.467	0.21
664.794	0.21
665.12	0.21
665.447	0.21
665.774	0.21
666.1	0.21
666.427	0.21
666.753	0.21
667.079	0.21
667.406	0.2
667.732	0.2
668.058	0.2
668.384	0.2
668.71	0.2
669.036	0.2
669.362	0.2
669.688	0.2
670.014	0.2
670.34	0.19
670.666	0.2
670.991	0.2
671.317	0.2
671.643	0.19
671.968	0.19
672.294	0.19
672.619	0.19
672.945	0.19
673.27	0.19
673.595	0.19
673.92	0.19
674.246	0.19
674.571	0.18
674.896	0.18
675.221	0.18
675.546	0.18
675.87	0.18
676.195	0.18
676.52	0.18
676.845	0.18
677.169	0.18
677.494	0.18
677.819	0.18
678.143	0.18
678.468	0.17
678.792	0.17
679.116	0.17
679.44	0.17
679.765	0.16
680.089	0.16
680.413	0.16
680.737	0.16
681.061	0.16
681.385	0.15
681.709	0.15
682.033	0.15
682.356	0.15
682.68	0.15
683.004	0.15
683.327	0.15
683.651	0.14
683.974	0.14
684.298	0.14
684.621	0.14
684.944	0.14
685.268	0.14
685.591	0.14
685.914	0.13
686.237	0.13
686.56	0.13
686.883	0.13
687.206	0.13
687.529	0.13
687.852	0.13
688.175	0.13
688.497	0.13
688.82	0.13
689.142	0.13
689.465	0.12
689.787	0.12
690.11	0.12
690.432	0.12
690.755	0.12
691.077	0.12
691.399	0.12
691.721	0.12
692.043	0.12
692.365	0.11
692.687	0.11
693.009	0.11
693.331	0.11
693.653	0.1
693.974	0.1
694.296	0.1
694.618	0.1
694.939	0.1
695.261	0.11
695.582	0.11
695.904	0.1
696.225	0.1
696.546	0.1
696.868	0.11
697.189	0.1
697.51	0.1
697.831	0.1
698.152	0.1
698.473	0.09
698.794	0.09
699.114	0.09
699.435	0.09
699.756	0.09
700.077	0.09
700.397	0.08
700.718	0.08
701.038	0.08
701.359	0.08
701.679	0.08
701.999	0.08
702.32	0.08
702.64	0.08
702.96	0.08
703.28	0.08
703.6	0.07
703.92	0.08
704.24	0.07
704.56	0.07
704.879	0.07
705.199	0.07
705.519	0.08
705.838	0.07
706.158	0.07
706.478	0.07
706.797	0.07
707.116	0.07
707.436	0.07
707.755	0.06
708.074	0.07
708.393	0.06
708.712	0.07
709.031	0.07
709.35	0.07
709.669	0.07
709.988	0.07
710.307	0.06
710.626	0.07
710.944	0.07
711.263	0.07
711.582	0.07
711.9	0.07
712.219	0.08
712.537	0.08
712.855	0.07
713.174	0.08
713.492	0.08
713.81	0.07
714.128	0.08
714.446	0.07
714.764	0.07
715.082	0.07
715.4	0.07
715.718	0.07
716.035	0.07
716.353	0.07
716.671	0.08
716.988	0.08
717.306	0.07
717.623	0.08
717.941	0.08
718.258	0.07
718.575	0.07
718.893	0.07
719.21	0.07
719.527	0.07
719.844	0.07
720.161	0.07
720.478	0.07
720.795	0.07
721.112	0.07
721.428	0.07
721.745	0.07
722.062	0.07
722.378	0.07
722.695	0.07
723.011	0.07
723.328	0.07
723.644	0.07
723.96	0.07
724.276	0.07
724.593	0.07
724.909	0.07
725.225	0.08
725.541	0.08
725.857	0.08
726.173	0.08
726.488	0.08
726.804	0.08
727.12	0.08
727.435	0.08
727.751	0.08
728.067	0.08
728.382	0.08
728.697	0.08
729.013	0.08
729.328	0.08
729.643	0.08
729.958	0.08
730.273	0.08
730.588	0.08
730.903	0.08
731.218	0.08
731.533	0.08
731.848	0.08
732.163	0.07
732.477	0.08
732.792	0.08
733.107	0.07
733.421	0.07
733.736	0.08
734.05	0.07
734.364	0.08
734.678	0.08
734.993	0.07
735.307	0.07
735.621	0.07
735.935	0.07
736.249	0.07
736.563	0.08
736.877	0.08
737.19	0.08
737.504	0.08
737.818	0.07
738.131	0.07
738.445	0.07
738.758	0.07
739.072	0.07
739.385	0.07
739.698	0.07
740.012	0.07
740.325	0.07
740.638	0.07
740.951	0.07
741.264	0.06
741.577	0.07
741.89	0.07
742.203	0.07
742.515	0.07
742.828	0.07
743.141	0.07
743.453	0.07
743.766	0.07
744.078	0.07
744.391	0.07
744.703	0.07
745.015	0.07
745.327	0.07
745.639	0.07
745.952	0.06
746.264	0.07
746.575	0.07
746.887	0.06
747.199	0.06
747.511	0.06
747.823	0.06
748.134	0.06
748.446	0.06
748.757	0.06
749.069	0.06
749.38	0.06
749.692	0.06
750.003	0.06
750.314	0.05
750.625	0.05
750.936	0.05
751.248	0.05
751.559	0.05
751.869	0.05
752.18	0.05
752.491	0.05
752.802	0.05
753.112	0.05
753.423	0.05
753.734	0.05
754.044	0.05
754.355	0.05
754.665	0.05
754.975	0.05
755.285	0.04
755.596	0.04
755.906	0.04
756.216	0.04
756.526	0.04
756.836	0.04
757.146	0.04
757.455	0.04
757.765	0.04
758.075	0.03
758.385	0.03
758.694	0.03
759.004	0.03
759.313	0.03
759.622	0.03
759.932	0.03
760.241	0.03
760.55	0.03
760.859	0.03
761.168	0.03
761.477	0.03
761.786	0.03
762.095	0.03
762.404	0.03
762.713	0.03
763.021	0.03
763.33	0.03
763.639	0.03
763.947	0.03
764.256	0.03
764.564	0.03
764.872	0.03
765.181	0.02
765.489	0.02
765.797	0.02
766.105	0.02
766.413	0.02
766.721	0.02
767.029	0.01
767.337	0.02
767.644	0.02
767.952	0.02
768.26	0.02
768.567	0.02
768.875	0.02
769.182	0.02
769.49	0.02
769.797	0.02
770.104	0.01
770.411	0.01
770.718	0.02
771.026	0.01
771.333	0.01
771.639	0.01
771.946	0.01
772.253	0.01
772.56	0.01
772.867	0.01
773.173	0.01
773.48	0.02
773.786	0.01
774.093	0.01
774.399	0.01
774.705	0.01
775.012	0.01
775.318	0.01
775.624	0.01
775.93	0.01
776.236	0.01
776.542	0.01
776.848	0
777.154	0
777.459	0
777.765	0.01
778.071	0.01
778.376	0.01
778.682	0
778.987	0
779.292	0.01
779.598	0.01
779.903	0.01
780.208	0.01
780.513	0.01
780.818	0.01
781.123	0.01
781.428	0.02
781.733	0.02
782.038	0.01
782.343	0.01
782.647	0.01
782.952	0.01
783.256	0.01
783.561	0.01
783.865	0.01
784.17	0.01
784.474	0.01
784.778	0.01
785.082	0.01
785.386	0.01
785.69	0
785.994	0.01
786.298	0.01
786.602	0.01
786.906	0.01
787.209	0.01
787.513	0.01
787.817	0.01
788.12	0.01
788.424	0.01
788.727	0.01
789.03	0.01
789.333	0.01
789.637	0.01
789.94	0.02
790.243	0.02
790.546	0.01
790.849	0.01
791.152	0.02
791.454	0.01
791.757	0.01
792.06	0.02
792.362	0.01
792.665	0.01
792.967	0.01
793.27	0
793.572	0
793.874	0
794.177	0
794.479	-0
794.781	-0
795.083	0
795.385	0
795.687	0
795.989	0
796.29	0
796.592	0
796.894	0.01
797.195	0
797.497	-0
797.798	-0
798.1	-0
798.401	-0
798.702	-0.01
799.003	-0.01
799.304	-0
799.605	0
799.906	0
800.207	-0
800.508	0
800.809	0
801.11	0.01
801.41	0.01
801.711	0.01
802.011	0.01
802.312	0.01
802.612	0.01
802.913	0.01
803.213	0.02
803.513	0.01
803.813	0.01
804.113	0.01
804.413	0.01
804.713	0.01
805.013	0
805.313	0
805.613	0
805.912	0
806.212	0
806.511	0
806.811	0
807.11	-0
807.41	0
807.709	-0
808.008	-0
808.307	0
808.606	0
808.905	0
809.204	-0
809.503	-0
809.802	0
810.101	-0
810.399	0
810.698	0.01
810.997	-0
811.295	-0
811.593	0
811.892	-0
812.19	0
812.488	-0
812.786	-0
813.084	-0
813.383	-0
813.68	-0.01
813.978	-0
814.276	-0.01
814.574	0
814.872	-0.01
815.169	-0
815.467	-0.01
815.764	-0
816.062	-0
816.359	0
816.656	0.01
816.954	0
817.251	0.01
817.548	-0
817.845	-0
818.142	-0
818.439	-0
818.735	-0
819.032	0
819.329	-0
819.626	-0
819.922	-0
820.219	-0
820.515	-0.01
820.811	-0.01
821.108	-0
821.404	-0
821.7	-0
821.996	-0
822.292	-0.01
822.588	-0
822.884	-0
823.18	-0
823.475	0
823.771	0
824.067	0
824.362	0
824.658	0.01
824.953	0
825.249	0.01
825.544	0
825.839	0.01
826.134	0.01
826.429	0.01
826.724	0.02
827.019	0.01
827.314	0
827.609	-0.01
827.904	0
828.198	-0
828.493	-0
828.787	0
829.082	-0
829.376	-0.01
829.671	-0.01
829.965	0.01
830.259	0
830.553	0.01
830.847	0
831.141	0
831.435	-0
831.729	0
832.023	-0
832.317	-0
832.61	-0
832.904	-0.01
833.197	-0
833.491	0.01
833.784	0
834.077	0.01
834.371	0
834.664	-0.01
834.957	-0
835.25	-0.01
835.543	-0.01
835.836	-0
836.129	-0.01
836.421	-0.01
836.714	-0.01
837.007	-0.02
837.299	-0.01
837.592	-0.01
837.884	-0.02
838.177	0
838.469	-0.01
838.761	-0
839.053	0
839.345	-0.01
839.637	-0
839.929	0
840.221	-0
840.513	-0
840.805	-0.01
841.096	-0
841.388	-0
841.68	0.01
841.971	0.01
842.262	0
842.554	0
842.845	0
843.136	0
843.427	-0.01
843.718	0.01
844.009	0
844.3	0
844.591	-0.01
844.882	0
845.173	-0
845.463	-0
845.754	0
846.044	-0.01
846.335	-0.01
846.625	-0.02
846.915	-0.01
847.206	-0.01
847.496	-0.01
847.786	-0.02
848.076	-0
848.366	-0
848.656	0.01
848.945	-0
849.235	-0.01
849.525	-0.01
849.814	-0
850.104	0
850.393	-0.02
850.683	-0.02
850.972	-0.01
851.261	-0.01
851.551	0.01
851.84	0
852.129	0
852.418	-0.01
852.707	0
852.995	0
853.284	0.01
853.573	0.01
853.862	-0
854.15	-0.01
854.439	-0.01
854.727	-0.01
855.015	-0.01
855.304	-0.01
855.592	-0
855.88	-0.01
856.168	-0.01
856.456	-0.01
856.744	-0.02
857.032	-0.02
857.32	-0.03
857.607	-0.01
857.895	-0.04
858.183	-0.04
858.47	-0.02
858.757	-0.03
859.045	-0.02
859.332	-0.01
859.619	-0.03
859.907	-0.02
860.194	-0.02
860.481	-0.04
860.768	-0.03
861.054	-0.03
861.341	-0.02
861.628	-0.03
861.915	-0
862.201	-0.02
862.488	-0.01
862.774	-0.01
863.061	-0.02
863.347	-0.03
863.633	-0.04
863.919	0.04
864.205	-0.02
864.491	0.01
864.777	0.02
865.063	-0.02
865.349	-0.01
865.635	-0.02
865.92	-0.05
866.206	-0.03
866.492	0
866.777	-0.01
867.062	-0.04
867.348	-0.01
867.633	0.02
867.918	-0.04
868.203	0.01
868.488	-0.03
868.773	-0.04
869.058	-0.01
869.343	-0.04
869.628	-0.04
869.912	-0
870.197	-0.04
870.482	-0.01
870.766	0
871.05	-0.07
871.335	-0.07
871.619	-0.04
871.903	-0.09
872.187	-0.09
872.471	-0.05
872.755	0
873.039	-0.05
873.323	-0.08
873.607	-0.06
873.89	0.02
874.174	0.01
874.458	0.05
874.741	-0.02
875.024	0.06
875.308	-0.01
875.591	0.09
875.874	-0.04
876.157	-0.06
876.44	-0.06
876.723	-0.08
877.006	0.03
877.289	-0.04
877.572	-0.08
877.854	-0.09
878.137	0.01
878.42	-0.02
878.702	-0.13
878.984	-0.08
879.267	-0.11
879.549	-0.02
879.831	-0.02
880.113	0.02
880.395	-0.05
880.677	-0.08
880.959	-0.06
