Data from Rubpy_EV_1200_EDTA_Absorbance_12-56-13-631.txt Node
Date: Mon Jun 29 12:56:13 BST 2026
User: fpm-admin
Spectrometer: OFX00224
Trigger mode: 0
Integration Time (sec): 7.000000E-2
Scans to average: 3
Nonlinearity correction enabled: false
Boxcar width: 0
Storing dark spectrum: false
XAxis mode: Wavelengths
Number of Pixels in Spectrum: 2136
>>>>>Begin Spectral Data<<<<<
154.91	1.02
155.289	-0
155.669	-0
156.048	1.11
156.428	-1.04
156.807	-0
157.186	0.32
157.566	-0.22
157.945	-0.67
158.325	-0.14
158.704	-0
159.083	-0.09
159.462	-0.07
159.842	-0
160.221	0.19
160.6	-0
160.979	-0
161.359	-0.38
161.738	-0.48
162.117	-0.39
162.496	-0
162.875	0.83
163.254	-0.31
163.633	-0.35
164.012	-0.09
164.391	-0
164.77	-0.22
165.149	0.2
165.528	0.11
165.907	-0.38
166.286	-0.19
166.665	-0.16
167.044	-0.19
167.423	-0.48
167.802	0.21
168.181	0.21
168.559	-0.72
168.938	0.07
169.317	0.8
169.696	0.1
170.074	-0
170.453	-0
170.832	-0
171.21	-0.1
171.589	0.03
171.968	-0
172.346	-0
172.725	-0
173.103	-0
173.482	-0
173.861	-0.3
174.239	-0
174.617	-0.08
174.996	-0
175.374	-0
175.753	1.34
176.131	-0.3
176.51	-0.07
176.888	-0
177.266	-0
177.645	0.1
178.023	-0.12
178.401	0.04
178.779	0.19
179.158	0.18
179.536	-0
179.914	-0
180.292	-0.08
180.67	-0
181.048	-0.54
181.427	-0
181.805	-0
182.183	-0.03
182.561	0.15
182.939	-0.37
183.317	0.6
183.695	-0
184.073	-0.58
184.451	-0
184.829	0.27
185.206	-0.16
185.584	-0.34
185.962	-0.95
186.34	-0.26
186.718	-0.21
187.096	-0
187.473	0.23
187.851	-0.2
188.229	-0
188.607	0.16
188.984	0.08
189.362	0.12
189.74	0.11
190.117	0.02
190.495	0.08
190.872	0.05
191.25	0.19
191.627	0.14
192.005	0.22
192.382	0.24
192.76	0.07
193.137	0.18
193.515	0.06
193.892	0.16
194.269	0.11
194.647	0.17
195.024	-0.04
195.401	0.06
195.779	0.13
196.156	0.11
196.533	0.13
196.91	-0.01
197.288	0.13
197.665	0.06
198.042	0.14
198.419	0.16
198.796	0.1
199.173	0.06
199.55	0.08
199.927	0.21
200.304	0.23
200.681	0.03
201.058	0.06
201.435	0.09
201.812	0.26
202.189	0.14
202.566	0.07
202.943	0.14
203.32	0.08
203.697	0.15
204.073	0.16
204.45	0.12
204.827	0.18
205.204	0.17
205.58	0.06
205.957	0.18
206.334	0.04
206.71	0.04
207.087	0.22
207.464	0.07
207.84	0.14
208.217	0.17
208.593	0.09
208.97	0.1
209.346	0.19
209.723	0.09
210.099	0.22
210.476	0.18
210.852	0.15
211.228	0.11
211.605	0.17
211.981	0.11
212.357	0.12
212.733	0.07
213.11	0.07
213.486	0.16
213.862	0
214.238	0.2
214.614	0.08
214.991	-0.04
215.367	0.15
215.743	0.14
216.119	0.19
216.495	0.06
216.871	0.22
217.247	0.12
217.623	0.11
217.999	0.14
218.375	0.34
218.751	0.03
219.127	0.17
219.502	0.18
219.878	0.02
220.254	0.04
220.63	0.21
221.006	0.13
221.381	0.1
221.757	0.21
222.133	0.11
222.508	0.27
222.884	0.05
223.26	0.19
223.635	0.11
224.011	0.14
224.386	0.08
224.762	0.02
225.137	0.12
225.513	0.22
225.888	0.18
226.264	0.13
226.639	0.1
227.014	0.12
227.39	0.1
227.765	0.28
228.14	0.19
228.516	0.24
228.891	0.12
229.266	0.19
229.641	0.09
230.017	0.19
230.392	0.19
230.767	0.17
231.142	0.2
231.517	0.2
231.892	0.12
232.267	0.1
232.642	0.07
233.017	0.1
233.392	0.21
233.767	0.38
234.142	0.08
234.517	0.08
234.892	0.05
235.267	0.17
235.641	0.18
236.016	0.12
236.391	0.1
236.766	0.1
237.14	0.03
237.515	0.27
237.89	0.14
238.264	0.2
238.639	0.1
239.014	0.09
239.388	0.2
239.763	0.23
240.137	0.19
240.512	0.06
240.886	0.07
241.261	0.16
241.635	0.09
242.009	0.22
242.384	0.12
242.758	0.1
243.132	0.09
243.507	0.12
243.881	0.17
244.255	0.09
244.629	0.14
245.004	0.14
245.378	0.22
245.752	0.12
246.126	0.11
246.5	0.26
246.874	0.3
247.248	0.24
247.622	0.07
247.996	0.15
248.37	0.06
248.744	0.2
249.118	0.12
249.492	0.23
249.866	0.06
250.24	0.16
250.613	0.06
250.987	0.11
251.361	0.28
251.735	0.09
252.108	0.21
252.482	0.16
252.856	0.09
253.229	0.11
253.603	0.08
253.977	0.05
254.35	0.14
254.724	0.12
255.097	0.17
255.471	0.2
255.844	0.15
256.218	0.16
256.591	0.12
256.964	0.13
257.338	0.16
257.711	0.09
258.084	0.22
258.458	0.18
258.831	0.19
259.204	0.11
259.577	0.11
259.95	0.13
260.323	0.14
260.697	0.1
261.07	0.18
261.443	0.15
261.816	0.14
262.189	0.14
262.562	0.08
262.935	0.19
263.308	0.14
263.68	0.18
264.053	0.17
264.426	0.22
264.799	0.16
265.172	0.09
265.545	0.16
265.917	0.15
266.29	0.07
266.663	0.16
267.035	0.24
267.408	0.1
267.781	0.18
268.153	0.26
268.526	0.14
268.898	0.13
269.271	0.17
269.643	0.2
270.016	0.13
270.388	0.1
270.76	0.16
271.133	0.11
271.505	0.18
271.877	0.12
272.25	0.15
272.622	0.11
272.994	0.13
273.366	0.11
273.739	0.11
274.111	0.26
274.483	0.1
274.855	0.08
275.227	0.11
275.599	0.08
275.971	0.2
276.343	0.1
276.715	0.25
277.087	0.12
277.459	0.15
277.831	0.16
278.203	0.19
278.574	0.22
278.946	0.16
279.318	0.22
279.69	0.11
280.061	0.16
280.433	0.14
280.805	0.14
281.176	0.2
281.548	0.06
281.92	0.17
282.291	0.07
282.663	0.24
283.034	0.17
283.406	0.14
283.777	0.09
284.148	0.17
284.52	0.21
284.891	0.15
285.262	0.16
285.634	0.16
286.005	0.08
286.376	0.2
286.747	0.19
287.119	0.11
287.49	0.12
287.861	0.14
288.232	0.17
288.603	0.16
288.974	0.11
289.345	0.17
289.716	0.15
290.087	0.13
290.458	0.13
290.829	0.18
291.2	0.12
291.571	0.15
291.941	0.1
292.312	0.2
292.683	0.15
293.054	0.1
293.424	0.09
293.795	0.2
294.166	0.16
294.536	0.21
294.907	0.08
295.277	0.12
295.648	0.11
296.018	0.15
296.389	0.08
296.759	0.11
297.13	0.2
297.5	0.12
297.871	0.21
298.241	0.12
298.611	0.11
298.981	0.13
299.352	0.08
299.722	0.11
300.092	0.15
300.462	0.1
300.832	0.08
301.202	0.12
301.573	0.08
301.943	0.13
302.313	0.1
302.683	0.09
303.053	0.08
303.422	0.09
303.792	0.1
304.162	0.1
304.532	0.1
304.902	0.1
305.272	0.12
305.641	0.1
306.011	0.11
306.381	0.1
306.75	0.1
307.12	0.11
307.49	0.11
307.859	0.12
308.229	0.12
308.598	0.11
308.968	0.12
309.337	0.11
309.707	0.12
310.076	0.13
310.445	0.13
310.815	0.12
311.184	0.13
311.553	0.12
311.923	0.14
312.292	0.13
312.661	0.14
313.03	0.13
313.399	0.13
313.768	0.14
314.137	0.14
314.506	0.13
314.875	0.13
315.244	0.13
315.613	0.13
315.982	0.13
316.351	0.13
316.72	0.13
317.089	0.12
317.458	0.13
317.826	0.12
318.195	0.12
318.564	0.12
318.933	0.12
319.301	0.12
319.67	0.12
320.038	0.12
320.407	0.12
320.775	0.12
321.144	0.11
321.512	0.12
321.881	0.11
322.249	0.12
322.618	0.11
322.986	0.12
323.354	0.1
323.723	0.11
324.091	0.1
324.459	0.1
324.827	0.11
325.195	0.1
325.564	0.1
325.932	0.1
326.3	0.1
326.668	0.1
327.036	0.1
327.404	0.1
327.772	0.1
328.14	0.1
328.508	0.1
328.875	0.1
329.243	0.11
329.611	0.11
329.979	0.1
330.346	0.1
330.714	0.1
331.082	0.1
331.449	0.11
331.817	0.11
332.185	0.11
332.552	0.11
332.92	0.11
333.287	0.11
333.655	0.11
334.022	0.11
334.389	0.11
334.757	0.11
335.124	0.11
335.491	0.12
335.859	0.12
336.226	0.12
336.593	0.12
336.96	0.12
337.327	0.12
337.695	0.12
338.062	0.12
338.429	0.12
338.796	0.13
339.163	0.13
339.53	0.13
339.897	0.13
340.263	0.14
340.63	0.14
340.997	0.14
341.364	0.14
341.731	0.15
342.097	0.14
342.464	0.15
342.831	0.15
343.197	0.16
343.564	0.16
343.931	0.16
344.297	0.16
344.664	0.16
345.03	0.16
345.396	0.17
345.763	0.17
346.129	0.18
346.496	0.17
346.862	0.18
347.228	0.18
347.594	0.18
347.961	0.19
348.327	0.19
348.693	0.19
349.059	0.2
349.425	0.2
349.791	0.2
350.157	0.21
350.523	0.21
350.889	0.21
351.255	0.21
351.621	0.22
351.987	0.23
352.353	0.23
352.719	0.24
353.084	0.24
353.45	0.24
353.816	0.25
354.181	0.26
354.547	0.26
354.913	0.27
355.278	0.27
355.644	0.28
356.009	0.28
356.375	0.29
356.74	0.29
357.106	0.3
357.471	0.31
357.836	0.32
358.202	0.32
358.567	0.32
358.932	0.34
359.297	0.34
359.663	0.35
360.028	0.35
360.393	0.35
360.758	0.37
361.123	0.36
361.488	0.37
361.853	0.37
362.218	0.38
362.583	0.38
362.948	0.39
363.312	0.39
363.677	0.4
364.042	0.4
364.407	0.41
364.772	0.43
365.136	0.43
365.501	0.43
365.865	0.45
366.23	0.46
366.595	0.46
366.959	0.48
367.324	0.49
367.688	0.49
368.052	0.51
368.417	0.51
368.781	0.52
369.145	0.52
369.51	0.53
369.874	0.53
370.238	0.53
370.602	0.53
370.967	0.53
371.331	0.53
371.695	0.53
372.059	0.52
372.423	0.53
372.787	0.52
373.151	0.52
373.515	0.52
373.878	0.52
374.242	0.51
374.606	0.52
374.97	0.52
375.334	0.52
375.697	0.52
376.061	0.52
376.425	0.53
376.788	0.53
377.152	0.53
377.515	0.54
377.879	0.55
378.242	0.56
378.606	0.56
378.969	0.57
379.333	0.58
379.696	0.59
380.059	0.59
380.422	0.6
380.786	0.61
381.149	0.63
381.512	0.64
381.875	0.66
382.238	0.67
382.601	0.68
382.964	0.71
383.327	0.73
383.69	0.74
384.053	0.77
384.416	0.79
384.779	0.8
385.142	0.82
385.504	0.83
385.867	0.84
386.23	0.85
386.593	0.87
386.955	0.86
387.318	0.87
387.68	0.86
388.043	0.85
388.405	0.85
388.768	0.84
389.13	0.83
389.493	0.83
389.855	0.83
390.217	0.82
390.58	0.82
390.942	0.82
391.304	0.83
391.666	0.84
392.028	0.85
392.391	0.87
392.753	0.9
393.115	0.93
393.477	0.97
393.839	0.99
394.201	1.03
394.563	1.07
394.924	1.12
395.286	1.17
395.648	1.19
396.01	1.21
396.371	1.24
396.733	1.28
397.095	1.31
397.456	1.33
397.818	1.31
398.18	1.3
398.541	1.29
398.903	1.26
399.264	1.23
399.625	1.18
399.987	1.14
400.348	1.09
400.709	1.03
401.071	0.98
401.432	0.93
401.793	0.86
402.154	0.81
402.515	0.75
402.876	0.7
403.238	0.65
403.599	0.61
403.96	0.56
404.32	0.51
404.681	0.48
405.042	0.45
405.403	0.42
405.764	0.39
406.125	0.36
406.485	0.34
406.846	0.31
407.207	0.29
407.567	0.28
407.928	0.26
408.288	0.25
408.649	0.23
409.009	0.22
409.37	0.21
409.73	0.2
410.091	0.19
410.451	0.18
410.811	0.17
411.171	0.16
411.532	0.16
411.892	0.15
412.252	0.15
412.612	0.14
412.972	0.14
413.332	0.13
413.692	0.13
414.052	0.12
414.412	0.12
414.772	0.11
415.132	0.11
415.492	0.11
415.851	0.1
416.211	0.1
416.571	0.09
416.931	0.09
417.29	0.1
417.65	0.09
418.009	0.09
418.369	0.08
418.728	0.09
419.088	0.09
419.447	0.08
419.807	0.08
420.166	0.08
420.525	0.07
420.884	0.08
421.244	0.08
421.603	0.07
421.962	0.07
422.321	0.07
422.68	0.07
423.039	0.08
423.398	0.07
423.757	0.07
424.116	0.06
424.475	0.06
424.834	0.06
425.193	0.06
425.551	0.06
425.91	0.06
426.269	0.06
426.628	0.06
426.986	0.06
427.345	0.05
427.703	0.06
428.062	0.06
428.42	0.05
428.779	0.06
429.137	0.06
429.496	0.06
429.854	0.05
430.212	0.06
430.57	0.05
430.929	0.06
431.287	0.05
431.645	0.05
432.003	0.05
432.361	0.05
432.719	0.05
433.077	0.05
433.435	0.05
433.793	0.05
434.151	0.04
434.509	0.05
434.866	0.04
435.224	0.05
435.582	0.04
435.94	0.04
436.297	0.05
436.655	0.05
437.012	0.05
437.37	0.04
437.727	0.04
438.085	0.04
438.442	0.04
438.8	0.04
439.157	0.05
439.514	0.03
439.872	0.04
440.229	0.04
440.586	0.04
440.943	0.03
441.3	0.04
441.657	0.03
442.014	0.03
442.371	0.03
442.728	0.04
443.085	0.04
443.442	0.04
443.799	0.04
444.156	0.04
444.513	0.04
444.869	0.05
445.226	0.04
445.583	0.04
445.939	0.04
446.296	0.03
446.652	0.03
447.009	0.03
447.365	0.04
447.722	0.03
448.078	0.03
448.434	0.03
448.791	0.03
449.147	0.03
449.503	0.04
449.859	0.03
450.215	0.03
450.571	0.02
450.928	0.03
451.284	0.04
451.64	0.03
451.995	0.02
452.351	0.02
452.707	0.02
453.063	0.03
453.419	0.02
453.775	0.02
454.13	0.03
454.486	0.03
454.842	0.02
455.197	0.03
455.553	0.02
455.908	0.02
456.264	0.02
456.619	0.03
456.975	0.02
457.33	0.02
457.685	0.03
458.04	0.02
458.396	0.02
458.751	0.03
459.106	0.02
459.461	0.03
459.816	0.02
460.171	0.02
460.526	0.03
460.881	0.02
461.236	0.02
461.591	0.02
461.946	0.03
462.301	0.02
462.655	0.03
463.01	0.02
463.365	0.02
463.719	0.02
464.074	0.02
464.428	0.02
464.783	0.01
465.137	-0
465.492	0.01
465.846	0
466.201	0.02
466.555	0.01
466.909	0.02
467.263	0.02
467.618	0.02
467.972	0.01
468.326	0.01
468.68	0.01
469.034	0.01
469.388	0.02
469.742	0.01
470.096	0.02
470.45	0.01
470.804	0.01
471.157	0.02
471.511	0.01
471.865	0.02
472.218	0.01
472.572	0.02
472.926	0.01
473.279	0.02
473.633	0.02
473.986	0.02
474.34	0.03
474.693	0.02
475.046	0.02
475.4	0.03
475.753	0.03
476.106	0.03
476.459	0.02
476.812	0.03
477.165	0.02
477.519	0.03
477.872	0.03
478.224	0.04
478.577	0.03
478.93	0.03
479.283	0.04
479.636	0.03
479.989	0.03
480.341	0.04
480.694	0.04
481.047	0.04
481.399	0.04
481.752	0.04
482.104	0.04
482.457	0.04
482.809	0.05
483.162	0.04
483.514	0.04
483.866	0.04
484.219	0.04
484.571	0.05
484.923	0.04
485.275	0.05
485.627	0.05
485.979	0.05
486.331	0.05
486.683	0.05
487.035	0.05
487.387	0.05
487.739	0.05
488.091	0.06
488.443	0.05
488.794	0.06
489.146	0.05
489.498	0.06
489.849	0.05
490.201	0.06
490.552	0.06
490.904	0.06
491.255	0.06
491.607	0.06
491.958	0.06
492.309	0.06
492.661	0.06
493.012	0.06
493.363	0.06
493.714	0.06
494.065	0.07
494.416	0.07
494.767	0.06
495.118	0.06
495.469	0.07
495.82	0.07
496.171	0.07
496.522	0.07
496.872	0.07
497.223	0.07
497.574	0.07
497.924	0.08
498.275	0.08
498.626	0.08
498.976	0.08
499.327	0.07
499.677	0.07
500.027	0.08
500.378	0.08
500.728	0.08
501.078	0.08
501.428	0.08
501.779	0.08
502.129	0.09
502.479	0.09
502.829	0.08
503.179	0.09
503.529	0.09
503.879	0.09
504.229	0.09
504.578	0.09
504.928	0.1
505.278	0.09
505.628	0.1
505.977	0.09
506.327	0.09
506.676	0.1
507.026	0.1
507.375	0.1
507.725	0.1
508.074	0.1
508.424	0.11
508.773	0.1
509.122	0.1
509.471	0.11
509.82	0.11
510.17	0.11
510.519	0.11
510.868	0.1
511.217	0.11
511.566	0.11
511.915	0.11
512.263	0.11
512.612	0.12
512.961	0.12
513.31	0.12
513.659	0.12
514.007	0.12
514.356	0.12
514.704	0.13
515.053	0.13
515.401	0.12
515.75	0.13
516.098	0.12
516.447	0.13
516.795	0.13
517.143	0.13
517.491	0.13
517.839	0.13
518.188	0.14
518.536	0.14
518.884	0.14
519.232	0.14
519.58	0.14
519.928	0.14
520.275	0.15
520.623	0.14
520.971	0.15
521.319	0.14
521.666	0.15
522.014	0.15
522.362	0.15
522.709	0.15
523.057	0.15
523.404	0.15
523.752	0.15
524.099	0.15
524.446	0.16
524.794	0.16
525.141	0.16
525.488	0.16
525.835	0.16
526.182	0.15
526.529	0.16
526.876	0.16
527.223	0.16
527.57	0.17
527.917	0.17
528.264	0.17
528.611	0.17
528.958	0.17
529.304	0.17
529.651	0.17
529.998	0.18
530.344	0.18
530.691	0.18
531.037	0.18
531.384	0.18
531.73	0.18
532.076	0.18
532.423	0.18
532.769	0.18
533.115	0.18
533.461	0.19
533.807	0.19
534.154	0.19
534.5	0.19
534.846	0.2
535.192	0.2
535.537	0.2
535.883	0.2
536.229	0.2
536.575	0.21
536.921	0.21
537.266	0.2
537.612	0.2
537.957	0.21
538.303	0.21
538.649	0.21
538.994	0.21
539.339	0.21
539.685	0.22
540.03	0.22
540.375	0.22
540.721	0.22
541.066	0.22
541.411	0.22
541.756	0.22
542.101	0.23
542.446	0.23
542.791	0.24
543.136	0.24
543.481	0.24
543.825	0.24
544.17	0.24
544.515	0.24
544.86	0.24
545.204	0.24
545.549	0.25
545.893	0.25
546.238	0.25
546.582	0.25
546.927	0.25
547.271	0.25
547.615	0.26
547.96	0.25
548.304	0.26
548.648	0.26
548.992	0.26
549.336	0.26
549.68	0.27
550.024	0.27
550.368	0.26
550.712	0.27
551.056	0.27
551.4	0.27
551.743	0.27
552.087	0.27
552.431	0.27
552.774	0.28
553.118	0.28
553.462	0.28
553.805	0.28
554.148	0.29
554.492	0.29
554.835	0.29
555.178	0.29
555.522	0.29
555.865	0.29
556.208	0.29
556.551	0.29
556.894	0.29
557.237	0.29
557.58	0.29
557.923	0.29
558.266	0.3
558.609	0.3
558.952	0.3
559.294	0.3
559.637	0.3
559.98	0.3
560.322	0.3
560.665	0.3
561.007	0.3
561.35	0.3
561.692	0.3
562.034	0.31
562.377	0.31
562.719	0.31
563.061	0.31
563.403	0.31
563.745	0.31
564.088	0.31
564.43	0.31
564.772	0.31
565.113	0.31
565.455	0.31
565.797	0.32
566.139	0.31
566.481	0.31
566.822	0.32
567.164	0.31
567.506	0.32
567.847	0.32
568.189	0.32
568.53	0.32
568.872	0.32
569.213	0.33
569.554	0.32
569.895	0.32
570.237	0.33
570.578	0.32
570.919	0.33
571.26	0.32
571.601	0.32
571.942	0.33
572.283	0.33
572.624	0.33
572.965	0.32
573.306	0.33
573.646	0.32
573.987	0.32
574.328	0.33
574.668	0.32
575.009	0.32
575.349	0.33
575.69	0.33
576.03	0.33
576.37	0.33
576.711	0.33
577.051	0.33
577.391	0.33
577.731	0.33
578.072	0.33
578.412	0.33
578.752	0.33
579.092	0.33
579.431	0.33
579.771	0.32
580.111	0.32
580.451	0.32
580.791	0.33
581.13	0.33
581.47	0.33
581.81	0.33
582.149	0.33
582.489	0.33
582.828	0.33
583.167	0.34
583.507	0.33
583.846	0.32
584.185	0.33
584.525	0.34
584.864	0.34
585.203	0.34
585.542	0.34
585.881	0.34
586.22	0.35
586.559	0.35
586.898	0.34
587.236	0.34
587.575	0.34
587.914	0.34
588.252	0.35
588.591	0.35
588.93	0.35
589.268	0.35
589.607	0.35
589.945	0.35
590.283	0.36
590.622	0.36
590.96	0.36
591.298	0.37
591.636	0.36
591.974	0.37
592.313	0.37
592.651	0.37
592.989	0.37
593.326	0.38
593.664	0.38
594.002	0.38
594.34	0.38
594.678	0.38
595.015	0.38
595.353	0.38
595.691	0.38
596.028	0.38
596.366	0.38
596.703	0.39
597.04	0.39
597.378	0.39
597.715	0.39
598.052	0.4
598.389	0.4
598.726	0.4
599.064	0.4
599.401	0.4
599.738	0.4
600.074	0.4
600.411	0.4
600.748	0.41
601.085	0.4
601.422	0.4
601.758	0.4
602.095	0.4
602.432	0.4
602.768	0.4
603.105	0.4
603.441	0.41
603.777	0.4
604.114	0.4
604.45	0.41
604.786	0.41
605.122	0.41
605.459	0.4
605.795	0.41
606.131	0.41
606.467	0.4
606.803	0.41
607.139	0.41
607.474	0.41
607.81	0.41
608.146	0.41
608.482	0.41
608.817	0.4
609.153	0.4
609.488	0.4
609.824	0.4
610.159	0.4
610.495	0.39
610.83	0.39
611.165	0.39
611.5	0.39
611.836	0.39
612.171	0.39
612.506	0.39
612.841	0.39
613.176	0.39
613.511	0.39
613.845	0.39
614.18	0.39
614.515	0.38
614.85	0.39
615.184	0.38
615.519	0.38
615.854	0.38
616.188	0.38
616.523	0.38
616.857	0.38
617.191	0.38
617.526	0.38
617.86	0.37
618.194	0.37
618.528	0.37
618.862	0.37
619.196	0.37
619.53	0.37
619.864	0.37
620.198	0.37
620.532	0.36
620.866	0.37
621.2	0.36
621.533	0.36
621.867	0.36
622.201	0.36
622.534	0.36
622.868	0.36
623.201	0.35
623.534	0.35
623.868	0.35
624.201	0.35
624.534	0.35
624.868	0.35
625.201	0.35
625.534	0.34
625.867	0.34
626.2	0.34
626.533	0.34
626.865	0.34
627.198	0.34
627.531	0.34
627.864	0.34
628.196	0.34
628.529	0.33
628.862	0.33
629.194	0.33
629.527	0.33
629.859	0.33
630.191	0.32
630.524	0.32
630.856	0.32
631.188	0.32
631.52	0.31
631.852	0.31
632.184	0.31
632.516	0.31
632.848	0.3
633.18	0.3
633.512	0.3
633.844	0.29
634.175	0.3
634.507	0.29
634.839	0.29
635.17	0.29
635.502	0.29
635.833	0.29
636.165	0.28
636.496	0.28
636.827	0.27
637.159	0.28
637.49	0.27
637.821	0.27
638.152	0.27
638.483	0.27
638.814	0.26
639.145	0.26
639.476	0.26
639.807	0.26
640.137	0.26
640.468	0.26
640.799	0.25
641.129	0.25
641.46	0.25
641.791	0.25
642.121	0.25
642.451	0.25
642.782	0.24
643.112	0.24
643.442	0.24
643.773	0.23
644.103	0.23
644.433	0.24
644.763	0.23
645.093	0.23
645.423	0.23
645.753	0.23
646.082	0.22
646.412	0.23
646.742	0.22
647.072	0.22
647.401	0.22
647.731	0.22
648.06	0.22
648.39	0.22
648.719	0.22
649.048	0.22
649.378	0.22
649.707	0.22
650.036	0.22
650.365	0.22
650.694	0.22
651.023	0.22
651.352	0.22
651.681	0.22
652.01	0.21
652.339	0.21
652.668	0.21
652.996	0.21
653.325	0.21
653.654	0.21
653.982	0.21
654.311	0.21
654.639	0.21
654.967	0.21
655.296	0.21
655.624	0.21
655.952	0.21
656.28	0.21
656.609	0.21
656.937	0.22
657.265	0.21
657.593	0.21
657.92	0.13
658.248	0.08
658.576	0.08
658.904	0.18
659.231	0.2
659.559	0.21
659.887	0.21
660.214	0.21
660.542	0.21
660.869	0.21
661.196	0.2
661.524	0.21
661.851	0.21
662.178	0.21
662.505	0.21
662.832	0.21
663.159	0.21
663.486	0.22
663.813	0.22
664.14	0.21
664.467	0.21
664.794	0.21
665.12	0.21
665.447	0.21
665.774	0.2
666.1	0.21
666.427	0.21
666.753	0.2
667.079	0.2
667.406	0.2
667.732	0.2
668.058	0.2
668.384	0.2
668.71	0.2
669.036	0.2
669.362	0.19
669.688	0.19
670.014	0.2
670.34	0.19
670.666	0.2
670.991	0.19
671.317	0.19
671.643	0.19
671.968	0.19
672.294	0.19
672.619	0.19
672.945	0.19
673.27	0.18
673.595	0.19
673.92	0.19
674.246	0.18
674.571	0.18
674.896	0.18
675.221	0.18
675.546	0.18
675.87	0.18
676.195	0.17
676.52	0.18
676.845	0.18
677.169	0.18
677.494	0.18
677.819	0.17
678.143	0.17
678.468	0.17
678.792	0.17
679.116	0.17
679.44	0.16
679.765	0.16
680.089	0.16
680.413	0.15
680.737	0.16
681.061	0.16
681.385	0.15
681.709	0.15
682.033	0.15
682.356	0.14
682.68	0.14
683.004	0.14
683.327	0.14
683.651	0.14
683.974	0.14
684.298	0.14
684.621	0.14
684.944	0.14
685.268	0.14
685.591	0.13
685.914	0.13
686.237	0.13
686.56	0.12
686.883	0.13
687.206	0.13
687.529	0.13
687.852	0.13
688.175	0.13
688.497	0.12
688.82	0.12
689.142	0.12
689.465	0.12
689.787	0.12
690.11	0.12
690.432	0.12
690.755	0.12
691.077	0.12
691.399	0.12
691.721	0.11
692.043	0.11
692.365	0.11
692.687	0.11
693.009	0.11
693.331	0.1
693.653	0.1
693.974	0.1
694.296	0.1
694.618	0.1
694.939	0.1
695.261	0.1
695.582	0.1
695.904	0.1
696.225	0.1
696.546	0.1
696.868	0.1
697.189	0.1
697.51	0.1
697.831	0.1
698.152	0.09
698.473	0.09
698.794	0.09
699.114	0.09
699.435	0.08
699.756	0.08
700.077	0.08
700.397	0.08
700.718	0.08
701.038	0.08
701.359	0.08
701.679	0.08
701.999	0.07
702.32	0.08
702.64	0.08
702.96	0.08
703.28	0.08
703.6	0.08
703.92	0.07
704.24	0.07
704.56	0.07
704.879	0.07
705.199	0.07
705.519	0.07
705.838	0.07
706.158	0.07
706.478	0.07
706.797	0.07
707.116	0.07
707.436	0.07
707.755	0.06
708.074	0.06
708.393	0.06
708.712	0.06
709.031	0.07
709.35	0.07
709.669	0.06
709.988	0.07
710.307	0.07
710.626	0.07
710.944	0.07
711.263	0.07
711.582	0.07
711.9	0.07
712.219	0.07
712.537	0.08
712.855	0.07
713.174	0.08
713.492	0.08
713.81	0.07
714.128	0.07
714.446	0.08
714.764	0.07
715.082	0.07
715.4	0.07
715.718	0.07
716.035	0.07
716.353	0.07
716.671	0.07
716.988	0.07
717.306	0.07
717.623	0.07
717.941	0.07
718.258	0.07
718.575	0.07
718.893	0.07
719.21	0.07
719.527	0.07
719.844	0.07
720.161	0.07
720.478	0.07
720.795	0.07
721.112	0.07
721.428	0.07
721.745	0.07
722.062	0.07
722.378	0.07
722.695	0.07
723.011	0.07
723.328	0.07
723.644	0.07
723.96	0.07
724.276	0.07
724.593	0.07
724.909	0.07
725.225	0.08
725.541	0.08
725.857	0.07
726.173	0.08
726.488	0.08
726.804	0.08
727.12	0.08
727.435	0.08
727.751	0.08
728.067	0.08
728.382	0.08
728.697	0.08
729.013	0.08
729.328	0.08
729.643	0.08
729.958	0.08
730.273	0.08
730.588	0.08
730.903	0.08
731.218	0.08
731.533	0.07
731.848	0.08
732.163	0.07
732.477	0.07
732.792	0.08
733.107	0.07
733.421	0.07
733.736	0.08
734.05	0.07
734.364	0.08
734.678	0.07
734.993	0.07
735.307	0.07
735.621	0.07
735.935	0.07
736.249	0.07
736.563	0.08
736.877	0.08
737.19	0.08
737.504	0.07
737.818	0.07
738.131	0.07
738.445	0.07
738.758	0.07
739.072	0.06
739.385	0.07
739.698	0.07
740.012	0.07
740.325	0.07
740.638	0.07
740.951	0.06
741.264	0.06
741.577	0.06
741.89	0.07
742.203	0.07
742.515	0.07
742.828	0.07
743.141	0.07
743.453	0.07
743.766	0.07
744.078	0.07
744.391	0.07
744.703	0.07
745.015	0.07
745.327	0.07
745.639	0.06
745.952	0.06
746.264	0.06
746.575	0.07
746.887	0.06
747.199	0.06
747.511	0.06
747.823	0.06
748.134	0.06
748.446	0.06
748.757	0.06
749.069	0.06
749.38	0.06
749.692	0.05
750.003	0.06
750.314	0.05
750.625	0.05
750.936	0.05
751.248	0.05
751.559	0.05
751.869	0.05
752.18	0.05
752.491	0.05
752.802	0.05
753.112	0.05
753.423	0.05
753.734	0.05
754.044	0.05
754.355	0.05
754.665	0.05
754.975	0.04
755.285	0.04
755.596	0.04
755.906	0.04
756.216	0.04
756.526	0.03
756.836	0.04
757.146	0.04
757.455	0.04
757.765	0.03
758.075	0.03
758.385	0.03
758.694	0.03
759.004	0.03
759.313	0.03
759.622	0.03
759.932	0.03
760.241	0.03
760.55	0.02
760.859	0.03
761.168	0.03
761.477	0.03
761.786	0.03
762.095	0.03
762.404	0.03
762.713	0.03
763.021	0.03
763.33	0.03
763.639	0.03
763.947	0.03
764.256	0.03
764.564	0.03
764.872	0.03
765.181	0.02
765.489	0.02
765.797	0.02
766.105	0.02
766.413	0.02
766.721	0.02
767.029	0.02
767.337	0.02
767.644	0.02
767.952	0.02
768.26	0.02
768.567	0.02
768.875	0.02
769.182	0.02
769.49	0.02
769.797	0.02
770.104	0.02
770.411	0.01
770.718	0.02
771.026	0.01
771.333	0.01
771.639	0.01
771.946	0.01
772.253	0.01
772.56	0.01
772.867	0.01
773.173	0.01
773.48	0.01
773.786	0.01
774.093	0.01
774.399	0.01
774.705	0.01
775.012	0.01
775.318	0.01
775.624	0.01
775.93	0.01
776.236	0.01
776.542	0.01
776.848	0
777.154	0
777.459	0
777.765	0.01
778.071	0.01
778.376	0
778.682	0
778.987	0
779.292	0
779.598	0
779.903	0.01
780.208	0
780.513	0.01
780.818	0.01
781.123	0.01
781.428	0.01
781.733	0.01
782.038	0.01
782.343	0.01
782.647	0.01
782.952	0.01
783.256	0.01
783.561	0.01
783.865	0.01
784.17	0.01
784.474	0.01
784.778	0.01
785.082	0.01
785.386	0.01
785.69	0.01
785.994	0.01
786.298	0.01
786.602	0.01
786.906	0.01
787.209	0.01
787.513	0.01
787.817	0.01
788.12	0.01
788.424	0.01
788.727	0.01
789.03	0.01
789.333	0.01
789.637	0.01
789.94	0.01
790.243	0.02
790.546	0.01
790.849	0.01
791.152	0.01
791.454	0.01
791.757	0.01
792.06	0.02
792.362	0.01
792.665	0.01
792.967	0.01
793.27	0
793.572	0.01
793.874	0
794.177	-0
794.479	-0
794.781	-0
795.083	0
795.385	-0
795.687	-0
795.989	0
796.29	0.01
796.592	0
796.894	0.01
797.195	0
797.497	0
797.798	-0
798.1	-0
798.401	-0.01
798.702	-0.01
799.003	-0.01
799.304	-0
799.605	0
799.906	0
800.207	-0
800.508	0
800.809	0.01
801.11	0.01
801.41	0
801.711	0.01
802.011	0
802.312	0
802.612	0.01
802.913	0.01
803.213	0.01
803.513	0.01
803.813	0.01
804.113	0.01
804.413	0.01
804.713	0
805.013	0
805.313	0.01
805.613	-0
805.912	-0
806.212	0
806.511	-0
806.811	-0
807.11	0
807.41	0
807.709	0
808.008	0
808.307	0
808.606	0
808.905	-0
809.204	-0
809.503	-0
809.802	-0
810.101	-0
810.399	-0
810.698	0
810.997	-0
811.295	0
811.593	-0
811.892	-0
812.19	-0
812.488	-0
812.786	-0
813.084	-0
813.383	-0
813.68	-0.01
813.978	-0
814.276	-0
814.574	0
814.872	-0
815.169	-0
815.467	-0
815.764	-0
816.062	0
816.359	0
816.656	0
816.954	0
817.251	0.01
817.548	0
817.845	-0
818.142	0
818.439	-0
818.735	-0
819.032	0
819.329	-0
819.626	-0
819.922	-0.01
820.219	-0
820.515	-0.01
820.811	-0.01
821.108	-0
821.404	-0
821.7	-0.01
821.996	-0.01
822.292	-0.01
822.588	0
822.884	-0.01
823.18	-0
823.475	0
823.771	0.01
824.067	0
824.362	0.01
824.658	0.01
824.953	0
825.249	0.01
825.544	0.01
825.839	0.01
826.134	0.01
826.429	0.01
826.724	0.01
827.019	0.01
827.314	-0
827.609	-0
827.904	0
828.198	-0.01
828.493	-0.01
828.787	-0.01
829.082	-0
829.376	-0.01
829.671	-0
829.965	-0
830.259	0
830.553	0.01
830.847	0
831.141	-0
831.435	0
831.729	-0
832.023	-0
832.317	0
832.61	-0
832.904	-0
833.197	-0
833.491	0
833.784	-0
834.077	0.01
834.371	0
834.664	-0.01
834.957	-0
835.25	-0.01
835.543	-0.01
835.836	-0.01
836.129	-0.01
836.421	-0.01
836.714	-0
837.007	-0.02
837.299	-0
837.592	0.01
837.884	-0
838.177	-0
838.469	-0
838.761	-0
839.053	-0.01
839.345	-0
839.637	-0.01
839.929	-0.01
840.221	-0
840.513	-0
840.805	-0
841.096	-0
841.388	-0
841.68	0.01
841.971	0
842.262	0.01
842.554	-0
842.845	0
843.136	0
843.427	-0.01
843.718	0
844.009	0.01
844.3	0
844.591	-0
844.882	0
845.173	-0.01
845.463	-0
845.754	-0
846.044	-0.01
846.335	-0.01
846.625	-0.01
846.915	-0.01
847.206	-0.01
847.496	-0.01
847.786	-0.01
848.076	-0
848.366	-0.01
848.656	-0.02
848.945	-0.01
849.235	-0.01
849.525	-0.01
849.814	0.01
850.104	-0.01
850.393	-0
850.683	-0.01
850.972	-0.01
851.261	-0.01
851.551	0
851.84	-0.01
852.129	-0
852.418	0
852.707	0.01
852.995	0
853.284	0
853.573	-0
853.862	-0
854.15	-0.02
854.439	0
854.727	0
855.015	-0.01
855.304	-0.03
855.592	-0
855.88	-0.01
856.168	-0
856.456	-0.02
856.744	-0.01
857.032	-0.01
857.32	-0.02
857.607	-0.02
857.895	-0.04
858.183	-0.02
858.47	-0.02
858.757	-0.04
859.045	-0.02
859.332	-0.02
859.619	-0.01
859.907	-0.02
860.194	-0.01
860.481	-0.04
860.768	-0.03
861.054	-0.02
861.341	-0.01
861.628	-0.03
861.915	-0.02
862.201	-0.01
862.488	0
862.774	0
863.061	-0.01
863.347	-0.02
863.633	-0.02
863.919	0.02
864.205	-0.01
864.491	-0.02
864.777	-0.01
865.063	-0.01
865.349	-0.01
865.635	-0.01
865.92	-0.01
866.206	-0.02
866.492	-0.04
866.777	-0.02
867.062	-0.03
867.348	-0.01
867.633	0.01
867.918	-0.04
868.203	0.02
868.488	-0
868.773	-0.02
869.058	-0.01
869.343	0.01
869.628	-0.02
869.912	0.01
870.197	-0.03
870.482	-0.03
870.766	0.02
871.05	-0.04
871.335	-0.05
871.619	0.02
871.903	-0.07
872.187	-0.06
872.471	-0.05
872.755	-0.07
873.039	-0.05
873.323	-0.09
873.607	-0.01
873.89	0.02
874.174	-0.02
874.458	0.05
874.741	-0.03
875.024	-0.01
875.308	-0.04
875.591	0.07
875.874	-0.09
876.157	-0.07
876.44	-0.01
876.723	-0.05
877.006	-0.06
877.289	-0.05
877.572	-0.08
877.854	-0.03
878.137	-0.01
878.42	0.02
878.702	-0.13
878.984	0.01
879.267	-0.05
879.549	-0.02
879.831	-0.07
880.113	0.05
880.395	0.01
880.677	-0.02
880.959	0.07
