Data from Rubpy_EV_1200_EDTA_Absorbance_12-50-09-768.txt Node
Date: Mon Jun 29 12:50:09 BST 2026
User: fpm-admin
Spectrometer: OFX00224
Trigger mode: 0
Integration Time (sec): 7.000000E-2
Scans to average: 3
Nonlinearity correction enabled: false
Boxcar width: 0
Storing dark spectrum: false
XAxis mode: Wavelengths
Number of Pixels in Spectrum: 2136
>>>>>Begin Spectral Data<<<<<
154.91	-0
155.289	-0
155.669	-0
156.048	0.81
156.428	-1.3
156.807	0.15
157.186	-0.02
157.566	0.78
157.945	-0
158.325	0.09
158.704	-0
159.083	-0.25
159.462	0.06
159.842	-0
160.221	-0.2
160.6	-0
160.979	-0.6
161.359	-0.04
161.738	-0.99
162.117	-0.07
162.496	0.06
162.875	-0
163.254	-0.29
163.633	-0
164.012	-0
164.391	-0.49
164.77	-0.3
165.149	0.06
165.528	0.33
165.907	-0.06
166.286	-0.32
166.665	-0.14
167.044	0.06
167.423	-0
167.802	0.22
168.181	-0
168.559	-0
168.938	0.49
169.317	-0
169.696	-0
170.074	-0.62
170.453	-0
170.832	-0
171.21	0.44
171.589	0.33
171.968	-0.26
172.346	-0
172.725	-0
173.103	-0
173.482	0.34
173.861	-0
174.239	-0.04
174.617	0.4
174.996	-0
175.374	-0
175.753	-0.06
176.131	-0.48
176.51	-0.03
176.888	0.33
177.266	-0
177.645	0.05
178.023	-0
178.401	-0.03
178.779	0.08
179.158	-0.19
179.536	-0.02
179.914	-0
180.292	0.54
180.67	0.64
181.048	-0.2
181.427	-0
181.805	-0.08
182.183	0.53
182.561	-0.26
182.939	-0.13
183.317	-0
183.695	-0
184.073	-0.45
184.451	-0
184.829	0.57
185.206	0.35
185.584	-0.57
185.962	-0.12
186.34	-0
186.718	0.95
187.096	-1.11
187.473	-0.04
187.851	0.34
188.229	-0
188.607	0.05
188.984	0.04
189.362	0.14
189.74	-0.05
190.117	-0.02
190.495	0.02
190.872	0.01
191.25	0.15
191.627	0.07
192.005	0.18
192.382	0.11
192.76	0.02
193.137	0.11
193.515	-0.02
193.892	0.03
194.269	0.16
194.647	0
195.024	0.01
195.401	-0.06
195.779	0.04
196.156	0.04
196.533	0.15
196.91	0.02
197.288	0.06
197.665	0.16
198.042	0.17
198.419	0.01
198.796	0.09
199.173	0.08
199.55	0.09
199.927	0.16
200.304	0.17
200.681	-0
201.058	0.1
201.435	0.07
201.812	0.11
202.189	0.09
202.566	0.1
202.943	0.15
203.32	0.05
203.697	0.03
204.073	0.09
204.45	0.04
204.827	0.06
205.204	0.1
205.58	-0.01
205.957	0.12
206.334	-0.02
206.71	0.08
207.087	0.12
207.464	0.1
207.84	0.13
208.217	0.21
208.593	0.08
208.97	-0.03
209.346	0.18
209.723	0.01
210.099	0.14
210.476	0.14
210.852	0.09
211.228	0.06
211.605	0.17
211.981	0.06
212.357	-0.01
212.733	0.06
213.11	0.13
213.486	0.08
213.862	0.18
214.238	0.18
214.614	0.07
214.991	0.07
215.367	0.12
215.743	0.07
216.119	0.11
216.495	0.11
216.871	0.04
217.247	0.07
217.623	0.1
217.999	0.15
218.375	0.27
218.751	0.03
219.127	0.02
219.502	0.08
219.878	-0.02
220.254	0.04
220.63	0.02
221.006	0.15
221.381	0.06
221.757	0.2
222.133	0.06
222.508	0.15
222.884	0.14
223.26	0.21
223.635	0.02
224.011	0.08
224.386	0.1
224.762	0.01
225.137	0.21
225.513	0.18
225.888	0.15
226.264	0.07
226.639	-0.03
227.014	0.06
227.39	0.04
227.765	0.05
228.14	0.12
228.516	0.02
228.891	0.14
229.266	0.07
229.641	0
230.017	0.26
230.392	0.15
230.767	0.05
231.142	0.14
231.517	0.19
231.892	0.19
232.267	0.12
232.642	-0.02
233.017	0.02
233.392	0.13
233.767	0.14
234.142	0.01
234.517	0.08
234.892	0.02
235.267	0.1
235.641	0.17
236.016	0.06
236.391	0.07
236.766	-0.09
237.14	-0.08
237.515	0.13
237.89	0.05
238.264	0.11
238.639	0.1
239.014	0.04
239.388	0.08
239.763	0.1
240.137	0.1
240.512	-0.03
240.886	0.14
241.261	0.2
241.635	0.18
242.009	0.06
242.384	0
242.758	0.06
243.132	0.07
243.507	0.26
243.881	0.1
244.255	0.06
244.629	0.11
245.004	0.16
245.378	0.15
245.752	0.09
246.126	0.17
246.5	0.17
246.874	0.26
247.248	0.14
247.622	0.01
247.996	0.11
248.37	0.03
248.744	0.15
249.118	0.1
249.492	0.04
249.866	0.02
250.24	0.18
250.613	0.03
250.987	0.17
251.361	0.09
251.735	0.02
252.108	0.17
252.482	0.08
252.856	0.13
253.229	0.07
253.603	0.03
253.977	0.07
254.35	0.09
254.724	0.07
255.097	0.14
255.471	0.08
255.844	0.17
256.218	0.13
256.591	0.08
256.964	0.1
257.338	0.09
257.711	0.09
258.084	0.06
258.458	0.01
258.831	0.11
259.204	0.1
259.577	-0
259.95	0.13
260.323	0.07
260.697	0.14
261.07	0.09
261.443	0.05
261.816	0.04
262.189	0.09
262.562	0.1
262.935	0.07
263.308	0.16
263.68	0.05
264.053	0.09
264.426	0.17
264.799	0.07
265.172	0.14
265.545	0.05
265.917	0.08
266.29	0.09
266.663	0.07
267.035	0.2
267.408	0.03
267.781	0.12
268.153	0.21
268.526	0.11
268.898	0.07
269.271	0.06
269.643	0.11
270.016	0.06
270.388	0.08
270.76	0.09
271.133	0.1
271.505	0.11
271.877	0.02
272.25	0.08
272.622	0.12
272.994	0.07
273.366	0.05
273.739	0.11
274.111	0.08
274.483	0.03
274.855	0.09
275.227	0.08
275.599	0.11
275.971	0.1
276.343	0.05
276.715	0.1
277.087	0.06
277.459	0.14
277.831	0.12
278.203	0.13
278.574	0.08
278.946	0.16
279.318	0.2
279.69	0.07
280.061	0.12
280.433	0.11
280.805	0.06
281.176	0.11
281.548	0.04
281.92	0.11
282.291	0.11
282.663	0.15
283.034	0.12
283.406	0.1
283.777	0.11
284.148	0.13
284.52	0.12
284.891	0.12
285.262	0.09
285.634	0.2
286.005	0.07
286.376	0.11
286.747	0.08
287.119	0.11
287.49	0.07
287.861	0.1
288.232	0.1
288.603	0.15
288.974	0.09
289.345	0.1
289.716	0.14
290.087	0.1
290.458	0.03
290.829	0.13
291.2	0.03
291.571	0.07
291.941	0.14
292.312	0.18
292.683	0.06
293.054	0.09
293.424	0.06
293.795	0.14
294.166	0.07
294.536	0.08
294.907	0.11
295.277	0.08
295.648	0.1
296.018	0.08
296.389	0.05
296.759	0.12
297.13	0.12
297.5	0.1
297.871	0.1
298.241	0.05
298.611	0.08
298.981	0.06
299.352	0.07
299.722	0.06
300.092	0.05
300.462	0.11
300.832	0.05
301.202	0.06
301.573	0.05
301.943	0.05
302.313	0.07
302.683	0.04
303.053	0.05
303.422	0.06
303.792	0.05
304.162	0.05
304.532	0.06
304.902	0.05
305.272	0.07
305.641	0.05
306.011	0.05
306.381	0.06
306.75	0.06
307.12	0.06
307.49	0.06
307.859	0.07
308.229	0.07
308.598	0.07
308.968	0.06
309.337	0.06
309.707	0.06
310.076	0.07
310.445	0.07
310.815	0.07
311.184	0.07
311.553	0.07
311.923	0.08
312.292	0.07
312.661	0.08
313.03	0.08
313.399	0.08
313.768	0.07
314.137	0.07
314.506	0.07
314.875	0.08
315.244	0.07
315.613	0.07
315.982	0.08
316.351	0.07
316.72	0.07
317.089	0.07
317.458	0.07
317.826	0.07
318.195	0.06
318.564	0.06
318.933	0.06
319.301	0.07
319.67	0.07
320.038	0.06
320.407	0.06
320.775	0.06
321.144	0.06
321.512	0.06
321.881	0.06
322.249	0.07
322.618	0.07
322.986	0.06
323.354	0.05
323.723	0.06
324.091	0.06
324.459	0.05
324.827	0.05
325.195	0.06
325.564	0.06
325.932	0.05
326.3	0.06
326.668	0.06
327.036	0.06
327.404	0.05
327.772	0.06
328.14	0.06
328.508	0.06
328.875	0.05
329.243	0.06
329.611	0.06
329.979	0.05
330.346	0.05
330.714	0.06
331.082	0.05
331.449	0.06
331.817	0.06
332.185	0.05
332.552	0.06
332.92	0.05
333.287	0.06
333.655	0.06
334.022	0.06
334.389	0.06
334.757	0.06
335.124	0.06
335.491	0.06
335.859	0.06
336.226	0.06
336.593	0.07
336.96	0.07
337.327	0.06
337.695	0.07
338.062	0.07
338.429	0.07
338.796	0.07
339.163	0.07
339.53	0.07
339.897	0.07
340.263	0.07
340.63	0.07
340.997	0.07
341.364	0.07
341.731	0.08
342.097	0.08
342.464	0.08
342.831	0.08
343.197	0.08
343.564	0.08
343.931	0.08
344.297	0.09
344.664	0.09
345.03	0.09
345.396	0.09
345.763	0.09
346.129	0.1
346.496	0.09
346.862	0.1
347.228	0.1
347.594	0.1
347.961	0.1
348.327	0.1
348.693	0.1
349.059	0.1
349.425	0.1
349.791	0.11
350.157	0.11
350.523	0.11
350.889	0.11
351.255	0.12
351.621	0.12
351.987	0.12
352.353	0.12
352.719	0.13
353.084	0.13
353.45	0.13
353.816	0.14
354.181	0.14
354.547	0.14
354.913	0.14
355.278	0.14
355.644	0.15
356.009	0.15
356.375	0.15
356.74	0.16
357.106	0.17
357.471	0.17
357.836	0.17
358.202	0.17
358.567	0.18
358.932	0.18
359.297	0.18
359.663	0.19
360.028	0.19
360.393	0.19
360.758	0.2
361.123	0.2
361.488	0.21
361.853	0.21
362.218	0.21
362.583	0.21
362.948	0.21
363.312	0.21
363.677	0.22
364.042	0.22
364.407	0.23
364.772	0.24
365.136	0.24
365.501	0.24
365.865	0.25
366.23	0.25
366.595	0.26
366.959	0.26
367.324	0.27
367.688	0.28
368.052	0.28
368.417	0.29
368.781	0.3
369.145	0.29
369.51	0.3
369.874	0.3
370.238	0.3
370.602	0.3
370.967	0.3
371.331	0.3
371.695	0.3
372.059	0.29
372.423	0.3
372.787	0.29
373.151	0.29
373.515	0.3
373.878	0.29
374.242	0.29
374.606	0.29
374.97	0.29
375.334	0.29
375.697	0.3
376.061	0.3
376.425	0.3
376.788	0.3
377.152	0.3
377.515	0.31
377.879	0.31
378.242	0.31
378.606	0.32
378.969	0.32
379.333	0.33
379.696	0.33
380.059	0.34
380.422	0.34
380.786	0.35
381.149	0.36
381.512	0.37
381.875	0.37
382.238	0.38
382.601	0.39
382.964	0.4
383.327	0.42
383.69	0.42
384.053	0.44
384.416	0.45
384.779	0.46
385.142	0.47
385.504	0.48
385.867	0.48
386.23	0.49
386.593	0.5
386.955	0.49
387.318	0.5
387.68	0.5
388.043	0.49
388.405	0.49
388.768	0.49
389.13	0.48
389.493	0.48
389.855	0.48
390.217	0.47
390.58	0.47
390.942	0.48
391.304	0.48
391.666	0.49
392.028	0.5
392.391	0.51
392.753	0.52
393.115	0.53
393.477	0.56
393.839	0.57
394.201	0.6
394.563	0.63
394.924	0.65
395.286	0.68
395.648	0.7
396.01	0.72
396.371	0.75
396.733	0.76
397.095	0.78
397.456	0.79
397.818	0.78
398.18	0.77
398.541	0.76
398.903	0.75
399.264	0.72
399.625	0.7
399.987	0.67
400.348	0.64
400.709	0.6
401.071	0.57
401.432	0.54
401.793	0.51
402.154	0.47
402.515	0.44
402.876	0.4
403.238	0.38
403.599	0.35
403.96	0.32
404.32	0.3
404.681	0.28
405.042	0.26
405.403	0.24
405.764	0.22
406.125	0.21
406.485	0.2
406.846	0.18
407.207	0.17
407.567	0.16
407.928	0.15
408.288	0.14
408.649	0.13
409.009	0.13
409.37	0.12
409.73	0.12
410.091	0.11
410.451	0.11
410.811	0.1
411.171	0.1
411.532	0.09
411.892	0.09
412.252	0.08
412.612	0.08
412.972	0.08
413.332	0.07
413.692	0.08
414.052	0.07
414.412	0.07
414.772	0.07
415.132	0.06
415.492	0.06
415.851	0.06
416.211	0.06
416.571	0.05
416.931	0.06
417.29	0.06
417.65	0.06
418.009	0.06
418.369	0.05
418.728	0.05
419.088	0.06
419.447	0.05
419.807	0.05
420.166	0.04
420.525	0.04
420.884	0.04
421.244	0.04
421.603	0.04
421.962	0.04
422.321	0.04
422.68	0.04
423.039	0.04
423.398	0.04
423.757	0.03
424.116	0.03
424.475	0.04
424.834	0.04
425.193	0.03
425.551	0.03
425.91	0.03
426.269	0.04
426.628	0.04
426.986	0.04
427.345	0.03
427.703	0.03
428.062	0.03
428.42	0.03
428.779	0.03
429.137	0.03
429.496	0.02
429.854	0.03
430.212	0.03
430.57	0.03
430.929	0.03
431.287	0.03
431.645	0.03
432.003	0.03
432.361	0.03
432.719	0.03
433.077	0.03
433.435	0.02
433.793	0.03
434.151	0.03
434.509	0.03
434.866	0.03
435.224	0.03
435.582	0.02
435.94	0.01
436.297	0.03
436.655	0.03
437.012	0.02
437.37	0.01
437.727	0.03
438.085	0.03
438.442	0.02
438.8	0.03
439.157	0.04
439.514	0.02
439.872	0.03
440.229	0.03
440.586	0.02
440.943	0.02
441.3	0.02
441.657	0.02
442.014	0.02
442.371	0.02
442.728	0.02
443.085	0.02
443.442	0.03
443.799	0.02
444.156	0.02
444.513	0.02
444.869	0.03
445.226	0.01
445.583	0.02
445.939	0.02
446.296	0.02
446.652	0.01
447.009	0.02
447.365	0.01
447.722	0.01
448.078	0.02
448.434	0.01
448.791	0.01
449.147	0.02
449.503	0.02
449.859	0.02
450.215	0.01
450.571	0.01
450.928	0.02
451.284	0.02
451.64	0.02
451.995	0.01
452.351	0.02
452.707	0.01
453.063	0.02
453.419	0.01
453.775	0.01
454.13	0.01
454.486	0.01
454.842	0.01
455.197	0.01
455.553	0.01
455.908	0.02
456.264	-0
456.619	0.01
456.975	0.01
457.33	0.02
457.685	0.01
458.04	0.01
458.396	0
458.751	0.01
459.106	0
459.461	0.01
459.816	0.01
460.171	0
460.526	0.01
460.881	-0
461.236	0.01
461.591	0
461.946	0.01
462.301	0
462.655	0
463.01	0
463.365	0.01
463.719	0
464.074	-0
464.428	0
464.783	0
465.137	-0
465.492	-0
465.846	0.01
466.201	-0
466.555	-0.01
466.909	-0
467.263	0
467.618	0
467.972	-0.01
468.326	0
468.68	-0.01
469.034	-0
469.388	0
469.742	-0.01
470.096	0.01
470.45	-0.01
470.804	-0
471.157	-0
471.511	-0
471.865	-0
472.218	-0
472.572	-0.01
472.926	-0.01
473.279	0.01
473.633	0
473.986	0
474.34	0.01
474.693	0
475.046	0
475.4	0.01
475.753	0.01
476.106	0.01
476.459	0.01
476.812	0.01
477.165	0
477.519	0.01
477.872	0.01
478.224	0.01
478.577	0.01
478.93	0.01
479.283	0.01
479.636	0.01
479.989	0.02
480.341	0.01
480.694	0.01
481.047	0.01
481.399	0.01
481.752	0.01
482.104	0.02
482.457	0.02
482.809	0.02
483.162	0.02
483.514	0.02
483.866	0.02
484.219	0.02
484.571	0.02
484.923	0.02
485.275	0.02
485.627	0.02
485.979	0.02
486.331	0.02
486.683	0.02
487.035	0.03
487.387	0.03
487.739	0.03
488.091	0.03
488.443	0.03
488.794	0.03
489.146	0.03
489.498	0.03
489.849	0.03
490.201	0.03
490.552	0.03
490.904	0.03
491.255	0.03
491.607	0.03
491.958	0.02
492.309	0.03
492.661	0.03
493.012	0.04
493.363	0.03
493.714	0.03
494.065	0.03
494.416	0.03
494.767	0.03
495.118	0.03
495.469	0.03
495.82	0.04
496.171	0.03
496.522	0.04
496.872	0.04
497.223	0.04
497.574	0.04
497.924	0.04
498.275	0.04
498.626	0.04
498.976	0.04
499.327	0.03
499.677	0.04
500.027	0.04
500.378	0.05
500.728	0.04
501.078	0.04
501.428	0.05
501.779	0.04
502.129	0.05
502.479	0.05
502.829	0.04
503.179	0.04
503.529	0.05
503.879	0.04
504.229	0.05
504.578	0.06
504.928	0.05
505.278	0.05
505.628	0.05
505.977	0.05
506.327	0.05
506.676	0.05
507.026	0.05
507.375	0.05
507.725	0.05
508.074	0.06
508.424	0.06
508.773	0.06
509.122	0.06
509.471	0.06
509.82	0.06
510.17	0.06
510.519	0.06
510.868	0.06
511.217	0.06
511.566	0.06
511.915	0.06
512.263	0.06
512.612	0.06
512.961	0.06
513.31	0.07
513.659	0.07
514.007	0.07
514.356	0.06
514.704	0.07
515.053	0.07
515.401	0.07
515.75	0.07
516.098	0.06
516.447	0.07
516.795	0.07
517.143	0.07
517.491	0.07
517.839	0.07
518.188	0.08
518.536	0.08
518.884	0.08
519.232	0.08
519.58	0.08
519.928	0.08
520.275	0.08
520.623	0.08
520.971	0.08
521.319	0.07
521.666	0.08
522.014	0.08
522.362	0.08
522.709	0.08
523.057	0.08
523.404	0.08
523.752	0.08
524.099	0.08
524.446	0.08
524.794	0.09
525.141	0.08
525.488	0.09
525.835	0.09
526.182	0.08
526.529	0.08
526.876	0.09
527.223	0.09
527.57	0.09
527.917	0.09
528.264	0.09
528.611	0.09
528.958	0.09
529.304	0.09
529.651	0.1
529.998	0.1
530.344	0.1
530.691	0.1
531.037	0.1
531.384	0.1
531.73	0.1
532.076	0.1
532.423	0.11
532.769	0.1
533.115	0.1
533.461	0.1
533.807	0.11
534.154	0.11
534.5	0.11
534.846	0.11
535.192	0.11
535.537	0.11
535.883	0.11
536.229	0.11
536.575	0.12
536.921	0.11
537.266	0.11
537.612	0.12
537.957	0.12
538.303	0.12
538.649	0.11
538.994	0.12
539.339	0.12
539.685	0.12
540.03	0.12
540.375	0.12
540.721	0.12
541.066	0.12
541.411	0.12
541.756	0.12
542.101	0.13
542.446	0.13
542.791	0.13
543.136	0.13
543.481	0.14
543.825	0.13
544.17	0.13
544.515	0.13
544.86	0.13
545.204	0.13
545.549	0.14
545.893	0.14
546.238	0.14
546.582	0.14
546.927	0.14
547.271	0.14
547.615	0.15
547.96	0.14
548.304	0.15
548.648	0.15
548.992	0.15
549.336	0.15
549.68	0.15
550.024	0.15
550.368	0.15
550.712	0.15
551.056	0.15
551.4	0.15
551.743	0.15
552.087	0.16
552.431	0.15
552.774	0.16
553.118	0.16
553.462	0.16
553.805	0.16
554.148	0.16
554.492	0.16
554.835	0.16
555.178	0.16
555.522	0.16
555.865	0.16
556.208	0.16
556.551	0.16
556.894	0.16
557.237	0.17
557.58	0.17
557.923	0.16
558.266	0.17
558.609	0.17
558.952	0.17
559.294	0.17
559.637	0.17
559.98	0.17
560.322	0.17
560.665	0.17
561.007	0.17
561.35	0.17
561.692	0.17
562.034	0.18
562.377	0.18
562.719	0.18
563.061	0.18
563.403	0.17
563.745	0.17
564.088	0.18
564.43	0.17
564.772	0.17
565.113	0.17
565.455	0.17
565.797	0.18
566.139	0.18
566.481	0.18
566.822	0.18
567.164	0.18
567.506	0.18
567.847	0.18
568.189	0.18
568.53	0.18
568.872	0.18
569.213	0.18
569.554	0.18
569.895	0.18
570.237	0.18
570.578	0.18
570.919	0.18
571.26	0.18
571.601	0.18
571.942	0.18
572.283	0.18
572.624	0.18
572.965	0.18
573.306	0.18
573.646	0.18
573.987	0.18
574.328	0.18
574.668	0.18
575.009	0.18
575.349	0.18
575.69	0.18
576.03	0.18
576.37	0.18
576.711	0.18
577.051	0.19
577.391	0.18
577.731	0.19
578.072	0.19
578.412	0.19
578.752	0.19
579.092	0.18
579.431	0.18
579.771	0.18
580.111	0.18
580.451	0.18
580.791	0.19
581.13	0.19
581.47	0.19
581.81	0.19
582.149	0.19
582.489	0.19
582.828	0.18
583.167	0.18
583.507	0.18
583.846	0.18
584.185	0.18
584.525	0.19
584.864	0.19
585.203	0.19
585.542	0.2
585.881	0.19
586.22	0.2
586.559	0.19
586.898	0.19
587.236	0.19
587.575	0.19
587.914	0.19
588.252	0.19
588.591	0.2
588.93	0.2
589.268	0.2
589.607	0.2
589.945	0.2
590.283	0.2
590.622	0.2
590.96	0.21
591.298	0.21
591.636	0.2
591.974	0.21
592.313	0.21
592.651	0.21
592.989	0.21
593.326	0.22
593.664	0.22
594.002	0.22
594.34	0.22
594.678	0.22
595.015	0.22
595.353	0.21
595.691	0.22
596.028	0.22
596.366	0.22
596.703	0.22
597.04	0.22
597.378	0.22
597.715	0.22
598.052	0.22
598.389	0.23
598.726	0.23
599.064	0.22
599.401	0.23
599.738	0.23
600.074	0.23
600.411	0.23
600.748	0.23
601.085	0.23
601.422	0.23
601.758	0.23
602.095	0.23
602.432	0.23
602.768	0.23
603.105	0.22
603.441	0.23
603.777	0.23
604.114	0.23
604.45	0.23
604.786	0.23
605.122	0.23
605.459	0.23
605.795	0.23
606.131	0.23
606.467	0.23
606.803	0.23
607.139	0.23
607.474	0.23
607.81	0.23
608.146	0.23
608.482	0.23
608.817	0.23
609.153	0.22
609.488	0.23
609.824	0.22
610.159	0.23
610.495	0.22
610.83	0.22
611.165	0.22
611.5	0.22
611.836	0.22
612.171	0.22
612.506	0.22
612.841	0.22
613.176	0.22
613.511	0.22
613.845	0.22
614.18	0.22
614.515	0.22
614.85	0.22
615.184	0.22
615.519	0.22
615.854	0.22
616.188	0.22
616.523	0.22
616.857	0.21
617.191	0.22
617.526	0.22
617.86	0.21
618.194	0.21
618.528	0.21
618.862	0.21
619.196	0.21
619.53	0.21
619.864	0.21
620.198	0.21
620.532	0.2
620.866	0.21
621.2	0.21
621.533	0.2
621.867	0.21
622.201	0.21
622.534	0.2
622.868	0.2
623.201	0.2
623.534	0.2
623.868	0.2
624.201	0.2
624.534	0.2
624.868	0.2
625.201	0.2
625.534	0.19
625.867	0.19
626.2	0.19
626.533	0.19
626.865	0.19
627.198	0.2
627.531	0.2
627.864	0.2
628.196	0.19
628.529	0.19
628.862	0.19
629.194	0.19
629.527	0.19
629.859	0.19
630.191	0.18
630.524	0.18
630.856	0.18
631.188	0.18
631.52	0.18
631.852	0.18
632.184	0.17
632.516	0.17
632.848	0.17
633.18	0.17
633.512	0.17
633.844	0.17
634.175	0.16
634.507	0.17
634.839	0.17
635.17	0.16
635.502	0.16
635.833	0.16
636.165	0.16
636.496	0.16
636.827	0.15
637.159	0.16
637.49	0.16
637.821	0.15
638.152	0.15
638.483	0.15
638.814	0.15
639.145	0.15
639.476	0.15
639.807	0.15
640.137	0.15
640.468	0.14
640.799	0.14
641.129	0.14
641.46	0.14
641.791	0.14
642.121	0.14
642.451	0.14
642.782	0.13
643.112	0.13
643.442	0.13
643.773	0.13
644.103	0.13
644.433	0.13
644.763	0.13
645.093	0.13
645.423	0.12
645.753	0.13
646.082	0.13
646.412	0.13
646.742	0.13
647.072	0.12
647.401	0.12
647.731	0.12
648.06	0.12
648.39	0.12
648.719	0.13
649.048	0.12
649.378	0.12
649.707	0.12
650.036	0.13
650.365	0.12
650.694	0.12
651.023	0.13
651.352	0.12
651.681	0.12
652.01	0.12
652.339	0.12
652.668	0.12
652.996	0.12
653.325	0.12
653.654	0.12
653.982	0.12
654.311	0.12
654.639	0.12
654.967	0.12
655.296	0.12
655.624	0.12
655.952	0.12
656.28	0.12
656.609	0.12
656.937	0.12
657.265	0.12
657.593	0.12
657.92	0.04
658.248	0.01
658.576	0.01
658.904	0.09
659.231	0.11
659.559	0.12
659.887	0.12
660.214	0.12
660.542	0.12
660.869	0.11
661.196	0.12
661.524	0.12
661.851	0.12
662.178	0.12
662.505	0.12
662.832	0.12
663.159	0.12
663.486	0.12
663.813	0.13
664.14	0.12
664.467	0.12
664.794	0.11
665.12	0.12
665.447	0.12
665.774	0.11
666.1	0.11
666.427	0.12
666.753	0.11
667.079	0.12
667.406	0.11
667.732	0.11
668.058	0.11
668.384	0.11
668.71	0.11
669.036	0.11
669.362	0.11
669.688	0.11
670.014	0.11
670.34	0.11
670.666	0.11
670.991	0.1
671.317	0.11
671.643	0.11
671.968	0.11
672.294	0.11
672.619	0.11
672.945	0.11
673.27	0.1
673.595	0.1
673.92	0.1
674.246	0.1
674.571	0.1
674.896	0.1
675.221	0.1
675.546	0.1
675.87	0.1
676.195	0.1
676.52	0.1
676.845	0.1
677.169	0.11
677.494	0.1
677.819	0.1
678.143	0.1
678.468	0.1
678.792	0.09
679.116	0.1
679.44	0.09
679.765	0.09
680.089	0.09
680.413	0.09
680.737	0.09
681.061	0.09
681.385	0.08
681.709	0.08
682.033	0.08
682.356	0.08
682.68	0.08
683.004	0.08
683.327	0.08
683.651	0.08
683.974	0.08
684.298	0.08
684.621	0.08
684.944	0.08
685.268	0.08
685.591	0.08
685.914	0.07
686.237	0.07
686.56	0.07
686.883	0.07
687.206	0.07
687.529	0.07
687.852	0.07
688.175	0.07
688.497	0.07
688.82	0.07
689.142	0.07
689.465	0.06
689.787	0.07
690.11	0.07
690.432	0.07
690.755	0.07
691.077	0.06
691.399	0.07
691.721	0.07
692.043	0.07
692.365	0.06
692.687	0.06
693.009	0.06
693.331	0.06
693.653	0.06
693.974	0.06
694.296	0.06
694.618	0.06
694.939	0.06
695.261	0.06
695.582	0.06
695.904	0.06
696.225	0.06
696.546	0.06
696.868	0.06
697.189	0.06
697.51	0.06
697.831	0.06
698.152	0.05
698.473	0.05
698.794	0.05
699.114	0.05
699.435	0.05
699.756	0.04
700.077	0.04
700.397	0.04
700.718	0.04
701.038	0.04
701.359	0.04
701.679	0.04
701.999	0.04
702.32	0.04
702.64	0.04
702.96	0.04
703.28	0.04
703.6	0.04
703.92	0.04
704.24	0.04
704.56	0.04
704.879	0.04
705.199	0.04
705.519	0.04
705.838	0.04
706.158	0.04
706.478	0.04
706.797	0.04
707.116	0.03
707.436	0.03
707.755	0.03
708.074	0.03
708.393	0.03
708.712	0.03
709.031	0.03
709.35	0.04
709.669	0.04
709.988	0.04
710.307	0.03
710.626	0.04
710.944	0.04
711.263	0.04
711.582	0.04
711.9	0.04
712.219	0.05
712.537	0.04
712.855	0.04
713.174	0.04
713.492	0.04
713.81	0.04
714.128	0.04
714.446	0.04
714.764	0.04
715.082	0.04
715.4	0.04
715.718	0.04
716.035	0.04
716.353	0.04
716.671	0.04
716.988	0.04
717.306	0.04
717.623	0.04
717.941	0.04
718.258	0.04
718.575	0.04
718.893	0.04
719.21	0.04
719.527	0.04
719.844	0.04
720.161	0.04
720.478	0.04
720.795	0.04
721.112	0.03
721.428	0.04
721.745	0.04
722.062	0.03
722.378	0.03
722.695	0.03
723.011	0.03
723.328	0.03
723.644	0.04
723.96	0.03
724.276	0.04
724.593	0.04
724.909	0.04
725.225	0.04
725.541	0.04
725.857	0.04
726.173	0.04
726.488	0.05
726.804	0.05
727.12	0.05
727.435	0.05
727.751	0.04
728.067	0.04
728.382	0.04
728.697	0.04
729.013	0.05
729.328	0.05
729.643	0.04
729.958	0.04
730.273	0.04
730.588	0.04
730.903	0.04
731.218	0.04
731.533	0.04
731.848	0.04
732.163	0.04
732.477	0.04
732.792	0.04
733.107	0.04
733.421	0.04
733.736	0.04
734.05	0.04
734.364	0.04
734.678	0.04
734.993	0.04
735.307	0.04
735.621	0.04
735.935	0.04
736.249	0.04
736.563	0.04
736.877	0.05
737.19	0.04
737.504	0.04
737.818	0.04
738.131	0.04
738.445	0.04
738.758	0.03
739.072	0.04
739.385	0.03
739.698	0.04
740.012	0.04
740.325	0.04
740.638	0.04
740.951	0.03
741.264	0.04
741.577	0.04
741.89	0.04
742.203	0.04
742.515	0.04
742.828	0.04
743.141	0.04
743.453	0.04
743.766	0.04
744.078	0.04
744.391	0.04
744.703	0.04
745.015	0.04
745.327	0.04
745.639	0.03
745.952	0.03
746.264	0.03
746.575	0.04
746.887	0.03
747.199	0.04
747.511	0.04
747.823	0.04
748.134	0.04
748.446	0.03
748.757	0.04
749.069	0.04
749.38	0.04
749.692	0.03
750.003	0.03
750.314	0.03
750.625	0.03
750.936	0.02
751.248	0.03
751.559	0.03
751.869	0.03
752.18	0.03
752.491	0.03
752.802	0.03
753.112	0.03
753.423	0.02
753.734	0.03
754.044	0.03
754.355	0.03
754.665	0.03
754.975	0.03
755.285	0.02
755.596	0.02
755.906	0.02
756.216	0.02
756.526	0.02
756.836	0.02
757.146	0.01
757.455	0.02
757.765	0.02
758.075	0.01
758.385	0.01
758.694	0.01
759.004	0.01
759.313	0.01
759.622	0.01
759.932	0.01
760.241	0.01
760.55	0.01
760.859	0.01
761.168	0.01
761.477	0.01
761.786	0.02
762.095	0.02
762.404	0.02
762.713	0.02
763.021	0.02
763.33	0.02
763.639	0.02
763.947	0.02
764.256	0.02
764.564	0.01
764.872	0.02
765.181	0.01
765.489	0.01
765.797	0.01
766.105	0.01
766.413	0.01
766.721	0.01
767.029	0.01
767.337	0.01
767.644	0.02
767.952	0.01
768.26	0.01
768.567	0.01
768.875	0.01
769.182	0.01
769.49	0.01
769.797	0.01
770.104	0.01
770.411	0.01
770.718	0.01
771.026	0.01
771.333	0.01
771.639	0.01
771.946	0
772.253	0
772.56	0
772.867	0.01
773.173	0
773.48	0.01
773.786	0
774.093	0
774.399	0.01
774.705	0.01
775.012	0
775.318	0
775.624	0
775.93	0
776.236	-0
776.542	-0
776.848	-0
777.154	-0.01
777.459	-0
777.765	-0
778.071	0
778.376	-0
778.682	-0.01
778.987	-0
779.292	-0
779.598	0
779.903	0
780.208	-0
780.513	0.01
780.818	0.01
781.123	0.01
781.428	0.01
781.733	0.01
782.038	0.01
782.343	0.01
782.647	0
782.952	0
783.256	0
783.561	0
783.865	0
784.17	0.01
784.474	0.01
784.778	0
785.082	0
785.386	0
785.69	0
785.994	0
786.298	0
786.602	0
786.906	0
787.209	0
787.513	0
787.817	0
788.12	0
788.424	0.01
788.727	0.01
789.03	0.01
789.333	0.01
789.637	0.01
789.94	0.01
790.243	0.01
790.546	0.01
790.849	0.01
791.152	0.01
791.454	0.01
791.757	0.01
792.06	0.01
792.362	0.01
792.665	0.01
792.967	0
793.27	0
793.572	0
793.874	0
794.177	-0.01
794.479	-0.01
794.781	-0.01
795.083	-0
795.385	-0.01
795.687	-0
795.989	-0
796.29	0
796.592	-0
796.894	-0
797.195	0
797.497	-0
797.798	-0
798.1	-0
798.401	-0
798.702	-0.01
799.003	-0.01
799.304	-0.01
799.605	-0
799.906	-0
800.207	-0
800.508	0
800.809	-0
801.11	0
801.41	-0
801.711	0
802.011	-0
802.312	0
802.612	0
802.913	0.01
803.213	0.01
803.513	0
803.813	0.01
804.113	0.01
804.413	0.01
804.713	0
805.013	0
805.313	0
805.613	0
805.912	0
806.212	-0
806.511	-0
806.811	-0
807.11	-0
807.41	-0
807.709	-0
808.008	-0.01
808.307	-0
808.606	0
808.905	-0
809.204	-0
809.503	-0.01
809.802	-0.01
810.101	-0.01
810.399	-0
810.698	0
810.997	-0.01
811.295	-0
811.593	-0
811.892	-0.01
812.19	-0.01
812.488	-0.01
812.786	-0.01
813.084	-0
813.383	-0.01
813.68	-0
813.978	-0
814.276	-0
814.574	-0
814.872	-0.01
815.169	-0.01
815.467	-0.01
815.764	-0.01
816.062	-0
816.359	-0
816.656	0
816.954	-0
817.251	0
817.548	-0
817.845	0
818.142	-0
818.439	-0
818.735	-0.01
819.032	-0
819.329	-0.01
819.626	-0.01
819.922	-0.01
820.219	-0
820.515	-0.01
820.811	-0.01
821.108	-0
821.404	-0.01
821.7	-0
821.996	-0.01
822.292	-0.01
822.588	0
822.884	-0.01
823.18	0
823.475	-0
823.771	0
824.067	-0
824.362	0
824.658	0
824.953	0
825.249	0.01
825.544	0
825.839	0.01
826.134	0.01
826.429	0.01
826.724	0.02
827.019	0.01
827.314	-0
827.609	-0.01
827.904	-0.01
828.198	-0
828.493	-0.01
828.787	0
829.082	-0
829.376	-0.01
829.671	-0.01
829.965	0
830.259	-0.01
830.553	-0
830.847	0.01
831.141	0
831.435	-0.01
831.729	-0
832.023	0
832.317	-0
832.61	-0.01
832.904	-0.01
833.197	-0
833.491	0.01
833.784	0
834.077	-0
834.371	-0
834.664	-0.01
834.957	-0
835.25	-0.01
835.543	-0.01
835.836	-0
836.129	-0.01
836.421	-0.01
836.714	-0.01
837.007	-0.02
837.299	-0.01
837.592	-0
837.884	-0.01
838.177	0
838.469	-0.01
838.761	-0
839.053	-0.01
839.345	-0.01
839.637	0
839.929	0
840.221	-0
840.513	-0
840.805	-0.01
841.096	-0.01
841.388	0
841.68	0
841.971	-0
842.262	0
842.554	0
842.845	0
843.136	-0
843.427	0
843.718	0
844.009	0.01
844.3	0
844.591	0
844.882	-0.01
845.173	-0.01
845.463	0
845.754	-0
846.044	-0.01
846.335	-0
846.625	-0.01
846.915	-0.01
847.206	-0
847.496	-0.01
847.786	-0.02
848.076	-0.01
848.366	0
848.656	-0.01
848.945	0.01
849.235	-0.01
849.525	-0
849.814	-0
850.104	-0.01
850.393	-0.01
850.683	-0
850.972	-0
851.261	-0
851.551	-0
851.84	-0
852.129	0.01
852.418	0.01
852.707	0.01
852.995	0.01
853.284	0.01
853.573	0.01
853.862	-0.01
854.15	0.01
854.439	-0.02
854.727	-0.01
855.015	-0.02
855.304	-0.02
855.592	-0.01
855.88	-0.01
856.168	-0
856.456	0
856.744	-0.02
857.032	-0.02
857.32	-0.02
857.607	-0.01
857.895	-0.03
858.183	-0.03
858.47	-0.02
858.757	-0.03
859.045	-0.02
859.332	-0.01
859.619	-0.01
859.907	-0.01
860.194	-0.02
860.481	-0.02
860.768	-0.03
861.054	-0.01
861.341	-0.03
861.628	-0.01
861.915	-0.02
862.201	0
862.488	0.03
862.774	0.01
863.061	-0.01
863.347	-0.02
863.633	-0.01
863.919	0.03
864.205	-0
864.491	0.02
864.777	-0
865.063	0.05
865.349	-0.01
865.635	-0.01
865.92	-0.04
866.206	0
866.492	-0.02
866.777	-0.02
867.062	-0.06
867.348	-0.01
867.633	0.03
867.918	-0.01
868.203	0.03
868.488	0.01
868.773	-0.02
869.058	-0.02
869.343	0.01
869.628	-0.03
869.912	0.01
870.197	0.01
870.482	-0.04
870.766	-0.02
871.05	-0.08
871.335	-0.05
871.619	0
871.903	-0.05
872.187	-0.04
872.471	-0.03
872.755	-0.05
873.039	0.01
873.323	-0.02
873.607	-0.02
873.89	0.02
874.174	0.07
874.458	0.09
874.741	-0
875.024	-0.02
875.308	0.03
875.591	0.14
875.874	-0.04
876.157	-0.06
876.44	-0.06
876.723	-0.02
877.006	-0.07
877.289	0.01
877.572	-0
877.854	0.04
878.137	-0.01
878.42	-0.03
878.702	-0.06
878.984	0.02
879.267	-0.06
879.549	-0.03
879.831	0.05
880.113	0.07
880.395	0.09
880.677	-0.03
880.959	-0.02
