Data from Rubpy_EV_1200_EDTA_Absorbance_12-52-54-629.txt Node
Date: Mon Jun 29 12:52:54 BST 2026
User: fpm-admin
Spectrometer: OFX00224
Trigger mode: 0
Integration Time (sec): 7.000000E-2
Scans to average: 3
Nonlinearity correction enabled: false
Boxcar width: 0
Storing dark spectrum: false
XAxis mode: Wavelengths
Number of Pixels in Spectrum: 2136
>>>>>Begin Spectral Data<<<<<
154.91	1.32
155.289	-0
155.669	-0
156.048	0.39
156.428	-0.85
156.807	-0
157.186	-0
157.566	0.78
157.945	-0
158.325	-0.21
158.704	0.38
159.083	-0
159.462	-0.02
159.842	-0
160.221	0.63
160.6	0.48
160.979	-0
161.359	0.52
161.738	-0.78
162.117	0.74
162.496	0.12
162.875	0.32
163.254	-0.27
163.633	-0.2
164.012	-0
164.391	-0.15
164.77	-0
165.149	-0
165.528	-0.05
165.907	-0.11
166.286	0.64
166.665	0.1
167.044	-0
167.423	-0
167.802	1.65
168.181	-0
168.559	-0.96
168.938	0.19
169.317	-0
169.696	0.33
170.074	-0.24
170.453	-0
170.832	0.67
171.21	0.02
171.589	0.18
171.968	-0
172.346	-0
172.725	0.39
173.103	-0
173.482	-0.13
173.861	0.12
174.239	0.36
174.617	-0
174.996	-0
175.374	-0.73
175.753	-0
176.131	-0.3
176.51	0.42
176.888	-0
177.266	-0
177.645	-0
178.023	0.21
178.401	0.02
178.779	0.04
179.158	0.13
179.536	-0.05
179.914	0.41
180.292	0.37
180.67	1.04
181.048	-0.41
181.427	-0.58
181.805	-0.2
182.183	0.53
182.561	-0.05
182.939	-0.2
183.317	-0.83
183.695	-0
184.073	-0.03
184.451	-0
184.829	-0.02
185.206	0.15
185.584	-0.53
185.962	-0
186.34	-0
186.718	-0.22
187.096	-1.43
187.473	-0
187.851	-0.18
188.229	0.6
188.607	0.15
188.984	0.05
189.362	0.16
189.74	-0.02
190.117	0.04
190.495	0.09
190.872	0.1
191.25	0.09
191.627	0.23
192.005	0.1
192.382	0.11
192.76	0.08
193.137	0.23
193.515	0.08
193.892	0.08
194.269	0.15
194.647	-0.06
195.024	0.11
195.401	0.04
195.779	0.15
196.156	0.06
196.533	0.01
196.91	-0.01
197.288	0.13
197.665	0.08
198.042	0.04
198.419	-0.02
198.796	-0
199.173	0.13
199.55	0.09
199.927	0.19
200.304	0.13
200.681	0.03
201.058	0.04
201.435	0.11
201.812	0.17
202.189	-0
202.566	0.2
202.943	0.2
203.32	0.15
203.697	0.15
204.073	0.09
204.45	0.09
204.827	0.16
205.204	0.15
205.58	0.04
205.957	0.11
206.334	0.04
206.71	0.22
207.087	0.03
207.464	0.1
207.84	0.07
208.217	0.14
208.593	0.2
208.97	0.12
209.346	0.28
209.723	0.09
210.099	0.27
210.476	0.12
210.852	0.05
211.228	0.22
211.605	0.13
211.981	0.17
212.357	0.15
212.733	0.11
213.11	0.08
213.486	0.24
213.862	0.05
214.238	0.24
214.614	0.15
214.991	0.14
215.367	0.07
215.743	0.03
216.119	0.16
216.495	0.09
216.871	0.16
217.247	0.02
217.623	0.06
217.999	0.29
218.375	0.16
218.751	0.17
219.127	-0.04
219.502	0.13
219.878	0.06
220.254	0.15
220.63	0.17
221.006	0.15
221.381	0.09
221.757	0.16
222.133	0.16
222.508	0.16
222.884	0.19
223.26	0.05
223.635	0.06
224.011	0.05
224.386	0.15
224.762	0.01
225.137	0.1
225.513	0.22
225.888	0.09
226.264	0.18
226.639	0.04
227.014	0.09
227.39	0.08
227.765	0.12
228.14	0.21
228.516	0.09
228.891	0.2
229.266	0.16
229.641	-0.04
230.017	0.08
230.392	0.21
230.767	0.11
231.142	0.08
231.517	0.12
231.892	0.05
232.267	0.11
232.642	0.03
233.017	0.17
233.392	0.1
233.767	0.19
234.142	0.12
234.517	0.13
234.892	0.02
235.267	0.15
235.641	0.18
236.016	0.04
236.391	0.12
236.766	0.02
237.14	0.09
237.515	0.2
237.89	0.12
238.264	0.14
238.639	0.09
239.014	0.06
239.388	0.19
239.763	0.09
240.137	0.05
240.512	0.07
240.886	0.08
241.261	0.12
241.635	0.08
242.009	0.12
242.384	0.08
242.758	0.01
243.132	0.03
243.507	0.2
243.881	0.13
244.255	0.07
244.629	0.1
245.004	0.08
245.378	0.16
245.752	0.05
246.126	0.12
246.5	0.14
246.874	0.19
247.248	0.15
247.622	-0.08
247.996	0.08
248.37	0.04
248.744	0.19
249.118	0.16
249.492	0.21
249.866	0.08
250.24	0.13
250.613	0.06
250.987	0.13
251.361	0.15
251.735	0.16
252.108	0.18
252.482	0.13
252.856	0.07
253.229	0.12
253.603	0.14
253.977	0.05
254.35	0.15
254.724	0.03
255.097	0.16
255.471	0.12
255.844	0.22
256.218	0.11
256.591	0.15
256.964	0.05
257.338	0.16
257.711	0.09
258.084	0.17
258.458	0.04
258.831	0.06
259.204	0.18
259.577	0.07
259.95	0.04
260.323	0.11
260.697	0.11
261.07	0.13
261.443	0.08
261.816	0.2
262.189	0.1
262.562	0.14
262.935	0.1
263.308	0.17
263.68	0.18
264.053	0.11
264.426	0.22
264.799	0.23
265.172	-0.01
265.545	0.08
265.917	0.09
266.29	0.12
266.663	0.13
267.035	0.19
267.408	0.14
267.781	0.11
268.153	0.25
268.526	0.17
268.898	0.14
269.271	0.03
269.643	0.07
270.016	0.1
270.388	0.16
270.76	0.14
271.133	0.05
271.505	0.12
271.877	0.07
272.25	0.18
272.622	0.04
272.994	0.04
273.366	0.12
273.739	0.14
274.111	0.19
274.483	0.02
274.855	0.03
275.227	0.14
275.599	0.08
275.971	0.09
276.343	0.11
276.715	0.21
277.087	0.08
277.459	0.15
277.831	0.14
278.203	0.14
278.574	0.21
278.946	0.13
279.318	0.17
279.69	0.04
280.061	0.17
280.433	0.2
280.805	0.13
281.176	0.1
281.548	0.08
281.92	0.14
282.291	0.11
282.663	0.17
283.034	0.19
283.406	0.09
283.777	0.12
284.148	0.15
284.52	0.14
284.891	0.18
285.262	0.14
285.634	0.09
286.005	0.2
286.376	0.12
286.747	0.14
287.119	0.09
287.49	0.15
287.861	0.14
288.232	0.11
288.603	0.17
288.974	0.15
289.345	0.1
289.716	0.11
290.087	0.1
290.458	0.09
290.829	0.14
291.2	0.05
291.571	0.06
291.941	0.11
292.312	0.09
292.683	0.12
293.054	0.11
293.424	0.06
293.795	0.14
294.166	0.15
294.536	0.11
294.907	0.1
295.277	0.11
295.648	0.12
296.018	0.17
296.389	0.07
296.759	0.07
297.13	0.12
297.5	0.1
297.871	0.12
298.241	0.05
298.611	0.04
298.981	0.11
299.352	0.13
299.722	0.09
300.092	0.08
300.462	0.08
300.832	0.07
301.202	0.1
301.573	0.07
301.943	0.09
302.313	0.09
302.683	0.06
303.053	0.07
303.422	0.08
303.792	0.08
304.162	0.08
304.532	0.08
304.902	0.07
305.272	0.1
305.641	0.08
306.011	0.09
306.381	0.09
306.75	0.08
307.12	0.09
307.49	0.09
307.859	0.09
308.229	0.1
308.598	0.09
308.968	0.09
309.337	0.09
309.707	0.1
310.076	0.1
310.445	0.1
310.815	0.1
311.184	0.1
311.553	0.1
311.923	0.1
312.292	0.1
312.661	0.11
313.03	0.11
313.399	0.11
313.768	0.1
314.137	0.1
314.506	0.11
314.875	0.11
315.244	0.1
315.613	0.1
315.982	0.1
316.351	0.11
316.72	0.1
317.089	0.09
317.458	0.1
317.826	0.1
318.195	0.09
318.564	0.09
318.933	0.09
319.301	0.1
319.67	0.1
320.038	0.09
320.407	0.09
320.775	0.09
321.144	0.09
321.512	0.09
321.881	0.09
322.249	0.09
322.618	0.09
322.986	0.08
323.354	0.08
323.723	0.09
324.091	0.09
324.459	0.08
324.827	0.08
325.195	0.08
325.564	0.08
325.932	0.07
326.3	0.08
326.668	0.08
327.036	0.08
327.404	0.07
327.772	0.08
328.14	0.08
328.508	0.08
328.875	0.08
329.243	0.08
329.611	0.09
329.979	0.07
330.346	0.08
330.714	0.08
331.082	0.07
331.449	0.08
331.817	0.08
332.185	0.08
332.552	0.08
332.92	0.08
333.287	0.08
333.655	0.09
334.022	0.09
334.389	0.08
334.757	0.08
335.124	0.08
335.491	0.09
335.859	0.09
336.226	0.09
336.593	0.09
336.96	0.09
337.327	0.1
337.695	0.1
338.062	0.1
338.429	0.1
338.796	0.1
339.163	0.11
339.53	0.1
339.897	0.1
340.263	0.1
340.63	0.11
340.997	0.11
341.364	0.11
341.731	0.11
342.097	0.11
342.464	0.11
342.831	0.11
343.197	0.12
343.564	0.12
343.931	0.12
344.297	0.13
344.664	0.13
345.03	0.13
345.396	0.13
345.763	0.13
346.129	0.14
346.496	0.13
346.862	0.14
347.228	0.14
347.594	0.14
347.961	0.14
348.327	0.14
348.693	0.15
349.059	0.15
349.425	0.15
349.791	0.15
350.157	0.16
350.523	0.16
350.889	0.16
351.255	0.17
351.621	0.17
351.987	0.17
352.353	0.18
352.719	0.18
353.084	0.18
353.45	0.19
353.816	0.2
354.181	0.2
354.547	0.2
354.913	0.21
355.278	0.21
355.644	0.21
356.009	0.22
356.375	0.22
356.74	0.23
357.106	0.24
357.471	0.24
357.836	0.24
358.202	0.25
358.567	0.25
358.932	0.26
359.297	0.26
359.663	0.27
360.028	0.27
360.393	0.28
360.758	0.28
361.123	0.29
361.488	0.29
361.853	0.29
362.218	0.29
362.583	0.3
362.948	0.3
363.312	0.3
363.677	0.31
364.042	0.32
364.407	0.32
364.772	0.33
365.136	0.33
365.501	0.34
365.865	0.35
366.23	0.35
366.595	0.36
366.959	0.37
367.324	0.39
367.688	0.39
368.052	0.39
368.417	0.4
368.781	0.41
369.145	0.41
369.51	0.41
369.874	0.41
370.238	0.41
370.602	0.42
370.967	0.42
371.331	0.41
371.695	0.42
372.059	0.41
372.423	0.42
372.787	0.4
373.151	0.41
373.515	0.41
373.878	0.41
374.242	0.41
374.606	0.41
374.97	0.41
375.334	0.41
375.697	0.41
376.061	0.42
376.425	0.41
376.788	0.41
377.152	0.42
377.515	0.42
377.879	0.43
378.242	0.44
378.606	0.45
378.969	0.45
379.333	0.45
379.696	0.46
380.059	0.47
380.422	0.48
380.786	0.48
381.149	0.5
381.512	0.51
381.875	0.52
382.238	0.53
382.601	0.54
382.964	0.56
383.327	0.57
383.69	0.58
384.053	0.6
384.416	0.63
384.779	0.64
385.142	0.64
385.504	0.65
385.867	0.67
386.23	0.68
386.593	0.69
386.955	0.69
387.318	0.69
387.68	0.68
388.043	0.67
388.405	0.67
388.768	0.67
389.13	0.67
389.493	0.66
389.855	0.65
390.217	0.65
390.58	0.66
390.942	0.65
391.304	0.66
391.666	0.67
392.028	0.68
392.391	0.7
392.753	0.72
393.115	0.74
393.477	0.76
393.839	0.79
394.201	0.83
394.563	0.87
394.924	0.9
395.286	0.93
395.648	0.96
396.01	0.99
396.371	1.01
396.733	1.04
397.095	1.05
397.456	1.06
397.818	1.06
398.18	1.04
398.541	1.02
398.903	1.01
399.264	0.99
399.625	0.95
399.987	0.91
400.348	0.87
400.709	0.83
401.071	0.78
401.432	0.74
401.793	0.69
402.154	0.64
402.515	0.6
402.876	0.56
403.238	0.51
403.599	0.48
403.96	0.45
404.32	0.41
404.681	0.39
405.042	0.36
405.403	0.33
405.764	0.31
406.125	0.28
406.485	0.26
406.846	0.24
407.207	0.23
407.567	0.22
407.928	0.21
408.288	0.19
408.649	0.18
409.009	0.18
409.37	0.17
409.73	0.16
410.091	0.15
410.451	0.14
410.811	0.14
411.171	0.13
411.532	0.12
411.892	0.12
412.252	0.12
412.612	0.12
412.972	0.11
413.332	0.11
413.692	0.11
414.052	0.1
414.412	0.09
414.772	0.1
415.132	0.09
415.492	0.09
415.851	0.08
416.211	0.08
416.571	0.07
416.931	0.08
417.29	0.07
417.65	0.07
418.009	0.08
418.369	0.07
418.728	0.07
419.088	0.07
419.447	0.07
419.807	0.07
420.166	0.05
420.525	0.06
420.884	0.07
421.244	0.06
421.603	0.06
421.962	0.05
422.321	0.06
422.68	0.06
423.039	0.06
423.398	0.05
423.757	0.05
424.116	0.05
424.475	0.05
424.834	0.04
425.193	0.05
425.551	0.04
425.91	0.04
426.269	0.05
426.628	0.05
426.986	0.05
427.345	0.04
427.703	0.05
428.062	0.04
428.42	0.04
428.779	0.04
429.137	0.05
429.496	0.04
429.854	0.04
430.212	0.04
430.57	0.04
430.929	0.05
431.287	0.03
431.645	0.04
432.003	0.04
432.361	0.04
432.719	0.04
433.077	0.04
433.435	0.04
433.793	0.04
434.151	0.04
434.509	0.04
434.866	0.04
435.224	0.04
435.582	0.03
435.94	0.03
436.297	0.04
436.655	0.04
437.012	0.03
437.37	0.03
437.727	0.03
438.085	0.03
438.442	0.03
438.8	0.04
439.157	0.03
439.514	0.03
439.872	0.04
440.229	0.03
440.586	0.03
440.943	0.03
441.3	0.03
441.657	0.03
442.014	0.02
442.371	0.02
442.728	0.03
443.085	0.03
443.442	0.03
443.799	0.03
444.156	0.03
444.513	0.03
444.869	0.03
445.226	0.03
445.583	0.02
445.939	0.02
446.296	0.03
446.652	0.02
447.009	0.03
447.365	0.03
447.722	0.02
448.078	0.02
448.434	0.03
448.791	0.02
449.147	0.02
449.503	0.03
449.859	0.02
450.215	0.02
450.571	0.02
450.928	0.02
451.284	0.02
451.64	0.02
451.995	0.01
452.351	0.03
452.707	0.02
453.063	0.02
453.419	0.02
453.775	0.02
454.13	0.01
454.486	0.01
454.842	0.01
455.197	0.02
455.553	0.02
455.908	0.02
456.264	0.02
456.619	0.02
456.975	0.02
457.33	0.02
457.685	0.02
458.04	0.01
458.396	0.01
458.751	0.01
459.106	0.01
459.461	0.02
459.816	0.01
460.171	0.01
460.526	0.02
460.881	0.01
461.236	0.01
461.591	0
461.946	0.02
462.301	0.01
462.655	0.01
463.01	0.02
463.365	0.01
463.719	0.01
464.074	0.01
464.428	0.01
464.783	0.01
465.137	0
465.492	0.01
465.846	0
466.201	0
466.555	0
466.909	0
467.263	0.02
467.618	0.01
467.972	0.01
468.326	0.01
468.68	0.01
469.034	0.01
469.388	0
469.742	0
470.096	0.01
470.45	0
470.804	0.01
471.157	0.01
471.511	0
471.865	0.01
472.218	0.01
472.572	0.01
472.926	0
473.279	0.01
473.633	0.01
473.986	0.01
474.34	0.01
474.693	0.01
475.046	0.01
475.4	0.02
475.753	0.02
476.106	0.02
476.459	0.01
476.812	0.02
477.165	0.02
477.519	0.02
477.872	0.02
478.224	0.02
478.577	0.03
478.93	0.02
479.283	0.03
479.636	0.02
479.989	0.03
480.341	0.03
480.694	0.03
481.047	0.03
481.399	0.03
481.752	0.03
482.104	0.03
482.457	0.03
482.809	0.03
483.162	0.04
483.514	0.03
483.866	0.03
484.219	0.03
484.571	0.03
484.923	0.03
485.275	0.04
485.627	0.03
485.979	0.04
486.331	0.04
486.683	0.03
487.035	0.04
487.387	0.04
487.739	0.04
488.091	0.04
488.443	0.04
488.794	0.04
489.146	0.04
489.498	0.04
489.849	0.04
490.201	0.04
490.552	0.04
490.904	0.04
491.255	0.04
491.607	0.05
491.958	0.04
492.309	0.05
492.661	0.05
493.012	0.05
493.363	0.05
493.714	0.05
494.065	0.05
494.416	0.05
494.767	0.05
495.118	0.05
495.469	0.05
495.82	0.05
496.171	0.05
496.522	0.05
496.872	0.06
497.223	0.05
497.574	0.06
497.924	0.06
498.275	0.06
498.626	0.06
498.976	0.06
499.327	0.06
499.677	0.06
500.027	0.06
500.378	0.06
500.728	0.06
501.078	0.06
501.428	0.06
501.779	0.06
502.129	0.07
502.479	0.07
502.829	0.07
503.179	0.07
503.529	0.07
503.879	0.06
504.229	0.07
504.578	0.08
504.928	0.07
505.278	0.07
505.628	0.07
505.977	0.07
506.327	0.07
506.676	0.08
507.026	0.08
507.375	0.08
507.725	0.08
508.074	0.08
508.424	0.08
508.773	0.08
509.122	0.08
509.471	0.08
509.82	0.08
510.17	0.08
510.519	0.09
510.868	0.08
511.217	0.09
511.566	0.09
511.915	0.09
512.263	0.09
512.612	0.09
512.961	0.09
513.31	0.09
513.659	0.09
514.007	0.1
514.356	0.09
514.704	0.1
515.053	0.09
515.401	0.09
515.75	0.1
516.098	0.1
516.447	0.1
516.795	0.1
517.143	0.1
517.491	0.11
517.839	0.1
518.188	0.11
518.536	0.1
518.884	0.11
519.232	0.11
519.58	0.11
519.928	0.11
520.275	0.11
520.623	0.11
520.971	0.12
521.319	0.11
521.666	0.11
522.014	0.12
522.362	0.11
522.709	0.12
523.057	0.12
523.404	0.12
523.752	0.12
524.099	0.12
524.446	0.12
524.794	0.13
525.141	0.12
525.488	0.12
525.835	0.12
526.182	0.12
526.529	0.12
526.876	0.12
527.223	0.12
527.57	0.13
527.917	0.13
528.264	0.13
528.611	0.13
528.958	0.13
529.304	0.13
529.651	0.13
529.998	0.14
530.344	0.14
530.691	0.13
531.037	0.14
531.384	0.14
531.73	0.14
532.076	0.14
532.423	0.14
532.769	0.14
533.115	0.14
533.461	0.15
533.807	0.15
534.154	0.15
534.5	0.15
534.846	0.15
535.192	0.15
535.537	0.16
535.883	0.16
536.229	0.16
536.575	0.16
536.921	0.16
537.266	0.16
537.612	0.17
537.957	0.17
538.303	0.17
538.649	0.17
538.994	0.17
539.339	0.17
539.685	0.17
540.03	0.17
540.375	0.17
540.721	0.17
541.066	0.17
541.411	0.17
541.756	0.17
542.101	0.18
542.446	0.18
542.791	0.18
543.136	0.19
543.481	0.19
543.825	0.19
544.17	0.19
544.515	0.18
544.86	0.18
545.204	0.19
545.549	0.19
545.893	0.19
546.238	0.2
546.582	0.2
546.927	0.19
547.271	0.2
547.615	0.2
547.96	0.2
548.304	0.2
548.648	0.2
548.992	0.21
549.336	0.21
549.68	0.21
550.024	0.21
550.368	0.21
550.712	0.21
551.056	0.21
551.4	0.22
551.743	0.21
552.087	0.21
552.431	0.22
552.774	0.22
553.118	0.22
553.462	0.22
553.805	0.22
554.148	0.22
554.492	0.23
554.835	0.23
555.178	0.23
555.522	0.23
555.865	0.23
556.208	0.23
556.551	0.23
556.894	0.23
557.237	0.24
557.58	0.23
557.923	0.23
558.266	0.23
558.609	0.24
558.952	0.24
559.294	0.24
559.637	0.24
559.98	0.23
560.322	0.24
560.665	0.23
561.007	0.24
561.35	0.24
561.692	0.24
562.034	0.24
562.377	0.24
562.719	0.25
563.061	0.24
563.403	0.24
563.745	0.24
564.088	0.25
564.43	0.24
564.772	0.24
565.113	0.24
565.455	0.25
565.797	0.25
566.139	0.25
566.481	0.24
566.822	0.25
567.164	0.25
567.506	0.25
567.847	0.25
568.189	0.26
568.53	0.25
568.872	0.25
569.213	0.26
569.554	0.25
569.895	0.26
570.237	0.26
570.578	0.25
570.919	0.25
571.26	0.25
571.601	0.25
571.942	0.25
572.283	0.26
572.624	0.26
572.965	0.25
573.306	0.26
573.646	0.26
573.987	0.25
574.328	0.26
574.668	0.25
575.009	0.26
575.349	0.26
575.69	0.25
576.03	0.25
576.37	0.26
576.711	0.26
577.051	0.26
577.391	0.26
577.731	0.26
578.072	0.26
578.412	0.26
578.752	0.26
579.092	0.26
579.431	0.26
579.771	0.25
580.111	0.25
580.451	0.26
580.791	0.26
581.13	0.26
581.47	0.26
581.81	0.26
582.149	0.26
582.489	0.26
582.828	0.26
583.167	0.26
583.507	0.26
583.846	0.25
584.185	0.25
584.525	0.26
584.864	0.26
585.203	0.27
585.542	0.27
585.881	0.27
586.22	0.27
586.559	0.27
586.898	0.27
587.236	0.27
587.575	0.27
587.914	0.27
588.252	0.27
588.591	0.28
588.93	0.28
589.268	0.28
589.607	0.28
589.945	0.28
590.283	0.28
590.622	0.28
590.96	0.28
591.298	0.29
591.636	0.29
591.974	0.29
592.313	0.29
592.651	0.29
592.989	0.29
593.326	0.3
593.664	0.3
594.002	0.3
594.34	0.3
594.678	0.3
595.015	0.3
595.353	0.3
595.691	0.3
596.028	0.3
596.366	0.31
596.703	0.31
597.04	0.31
597.378	0.31
597.715	0.31
598.052	0.31
598.389	0.31
598.726	0.31
599.064	0.32
599.401	0.32
599.738	0.32
600.074	0.32
600.411	0.32
600.748	0.32
601.085	0.32
601.422	0.31
601.758	0.32
602.095	0.32
602.432	0.32
602.768	0.32
603.105	0.32
603.441	0.32
603.777	0.32
604.114	0.32
604.45	0.32
604.786	0.32
605.122	0.32
605.459	0.32
605.795	0.32
606.131	0.32
606.467	0.32
606.803	0.32
607.139	0.32
607.474	0.33
607.81	0.32
608.146	0.32
608.482	0.32
608.817	0.32
609.153	0.31
609.488	0.32
609.824	0.32
610.159	0.31
610.495	0.31
610.83	0.31
611.165	0.31
611.5	0.31
611.836	0.31
612.171	0.31
612.506	0.31
612.841	0.31
613.176	0.31
613.511	0.31
613.845	0.31
614.18	0.3
614.515	0.3
614.85	0.3
615.184	0.3
615.519	0.3
615.854	0.3
616.188	0.3
616.523	0.3
616.857	0.3
617.191	0.3
617.526	0.3
617.86	0.29
618.194	0.3
618.528	0.3
618.862	0.3
619.196	0.3
619.53	0.29
619.864	0.29
620.198	0.29
620.532	0.28
620.866	0.29
621.2	0.29
621.533	0.28
621.867	0.29
622.201	0.29
622.534	0.28
622.868	0.28
623.201	0.28
623.534	0.28
623.868	0.28
624.201	0.28
624.534	0.28
624.868	0.28
625.201	0.28
625.534	0.27
625.867	0.27
626.2	0.27
626.533	0.27
626.865	0.27
627.198	0.27
627.531	0.27
627.864	0.27
628.196	0.27
628.529	0.26
628.862	0.26
629.194	0.26
629.527	0.26
629.859	0.26
630.191	0.25
630.524	0.25
630.856	0.25
631.188	0.25
631.52	0.25
631.852	0.25
632.184	0.24
632.516	0.24
632.848	0.24
633.18	0.23
633.512	0.24
633.844	0.23
634.175	0.23
634.507	0.23
634.839	0.23
635.17	0.23
635.502	0.23
635.833	0.22
636.165	0.22
636.496	0.22
636.827	0.21
637.159	0.22
637.49	0.22
637.821	0.21
638.152	0.21
638.483	0.21
638.814	0.21
639.145	0.21
639.476	0.21
639.807	0.21
640.137	0.2
640.468	0.2
640.799	0.2
641.129	0.2
641.46	0.19
641.791	0.2
642.121	0.19
642.451	0.19
642.782	0.19
643.112	0.19
643.442	0.19
643.773	0.18
644.103	0.18
644.433	0.18
644.763	0.18
645.093	0.18
645.423	0.17
645.753	0.18
646.082	0.18
646.412	0.18
646.742	0.18
647.072	0.17
647.401	0.17
647.731	0.17
648.06	0.18
648.39	0.17
648.719	0.18
649.048	0.18
649.378	0.18
649.707	0.18
650.036	0.17
650.365	0.17
650.694	0.17
651.023	0.17
651.352	0.17
651.681	0.17
652.01	0.17
652.339	0.16
652.668	0.16
652.996	0.17
653.325	0.17
653.654	0.16
653.982	0.17
654.311	0.17
654.639	0.17
654.967	0.17
655.296	0.17
655.624	0.16
655.952	0.17
656.28	0.17
656.609	0.16
656.937	0.17
657.265	0.17
657.593	0.16
657.92	0.09
658.248	0.04
658.576	0.05
658.904	0.14
659.231	0.16
659.559	0.16
659.887	0.16
660.214	0.17
660.542	0.16
660.869	0.16
661.196	0.16
661.524	0.17
661.851	0.17
662.178	0.17
662.505	0.17
662.832	0.17
663.159	0.16
663.486	0.17
663.813	0.17
664.14	0.17
664.467	0.16
664.794	0.17
665.12	0.16
665.447	0.16
665.774	0.16
666.1	0.16
666.427	0.16
666.753	0.16
667.079	0.16
667.406	0.16
667.732	0.16
668.058	0.16
668.384	0.16
668.71	0.16
669.036	0.15
669.362	0.15
669.688	0.15
670.014	0.15
670.34	0.15
670.666	0.15
670.991	0.15
671.317	0.15
671.643	0.15
671.968	0.15
672.294	0.15
672.619	0.15
672.945	0.15
673.27	0.15
673.595	0.15
673.92	0.15
674.246	0.15
674.571	0.14
674.896	0.14
675.221	0.14
675.546	0.14
675.87	0.14
676.195	0.14
676.52	0.14
676.845	0.14
677.169	0.14
677.494	0.14
677.819	0.14
678.143	0.14
678.468	0.14
678.792	0.14
679.116	0.13
679.44	0.13
679.765	0.13
680.089	0.12
680.413	0.12
680.737	0.12
681.061	0.12
681.385	0.12
681.709	0.11
682.033	0.11
682.356	0.12
682.68	0.11
683.004	0.11
683.327	0.11
683.651	0.11
683.974	0.11
684.298	0.11
684.621	0.11
684.944	0.11
685.268	0.11
685.591	0.11
685.914	0.1
686.237	0.1
686.56	0.1
686.883	0.1
687.206	0.1
687.529	0.1
687.852	0.1
688.175	0.1
688.497	0.1
688.82	0.1
689.142	0.1
689.465	0.1
689.787	0.1
690.11	0.1
690.432	0.1
690.755	0.1
691.077	0.09
691.399	0.09
691.721	0.09
692.043	0.09
692.365	0.09
692.687	0.09
693.009	0.09
693.331	0.08
693.653	0.08
693.974	0.08
694.296	0.08
694.618	0.08
694.939	0.08
695.261	0.08
695.582	0.08
695.904	0.08
696.225	0.08
696.546	0.08
696.868	0.08
697.189	0.08
697.51	0.08
697.831	0.08
698.152	0.08
698.473	0.07
698.794	0.07
699.114	0.07
699.435	0.07
699.756	0.07
700.077	0.06
700.397	0.06
700.718	0.06
701.038	0.06
701.359	0.06
701.679	0.06
701.999	0.06
702.32	0.06
702.64	0.06
702.96	0.06
703.28	0.06
703.6	0.06
703.92	0.06
704.24	0.05
704.56	0.05
704.879	0.05
705.199	0.06
705.519	0.06
705.838	0.06
706.158	0.06
706.478	0.06
706.797	0.06
707.116	0.05
707.436	0.05
707.755	0.05
708.074	0.05
708.393	0.04
708.712	0.05
709.031	0.05
709.35	0.05
709.669	0.05
709.988	0.05
710.307	0.05
710.626	0.05
710.944	0.05
711.263	0.06
711.582	0.06
711.9	0.06
712.219	0.06
712.537	0.06
712.855	0.06
713.174	0.06
713.492	0.06
713.81	0.06
714.128	0.06
714.446	0.06
714.764	0.05
715.082	0.06
715.4	0.05
715.718	0.06
716.035	0.06
716.353	0.06
716.671	0.06
716.988	0.06
717.306	0.06
717.623	0.06
717.941	0.06
718.258	0.06
718.575	0.06
718.893	0.06
719.21	0.06
719.527	0.06
719.844	0.06
720.161	0.06
720.478	0.06
720.795	0.06
721.112	0.06
721.428	0.05
721.745	0.05
722.062	0.05
722.378	0.05
722.695	0.05
723.011	0.06
723.328	0.05
723.644	0.06
723.96	0.06
724.276	0.06
724.593	0.06
724.909	0.06
725.225	0.06
725.541	0.06
725.857	0.06
726.173	0.06
726.488	0.06
726.804	0.06
727.12	0.06
727.435	0.06
727.751	0.06
728.067	0.06
728.382	0.06
728.697	0.06
729.013	0.06
729.328	0.06
729.643	0.06
729.958	0.06
730.273	0.06
730.588	0.06
730.903	0.06
731.218	0.06
731.533	0.06
731.848	0.06
732.163	0.06
732.477	0.06
732.792	0.06
733.107	0.06
733.421	0.06
733.736	0.06
734.05	0.06
734.364	0.06
734.678	0.05
734.993	0.05
735.307	0.06
735.621	0.06
735.935	0.06
736.249	0.05
736.563	0.06
736.877	0.06
737.19	0.06
737.504	0.06
737.818	0.05
738.131	0.05
738.445	0.05
738.758	0.05
739.072	0.05
739.385	0.05
739.698	0.05
740.012	0.05
740.325	0.05
740.638	0.05
740.951	0.05
741.264	0.05
741.577	0.05
741.89	0.05
742.203	0.06
742.515	0.05
742.828	0.05
743.141	0.05
743.453	0.05
743.766	0.05
744.078	0.05
744.391	0.05
744.703	0.05
745.015	0.05
745.327	0.05
745.639	0.05
745.952	0.05
746.264	0.05
746.575	0.05
746.887	0.05
747.199	0.05
747.511	0.05
747.823	0.04
748.134	0.05
748.446	0.05
748.757	0.05
749.069	0.05
749.38	0.05
749.692	0.04
750.003	0.04
750.314	0.04
750.625	0.04
750.936	0.04
751.248	0.04
751.559	0.04
751.869	0.04
752.18	0.04
752.491	0.04
752.802	0.04
753.112	0.04
753.423	0.04
753.734	0.04
754.044	0.04
754.355	0.04
754.665	0.04
754.975	0.03
755.285	0.03
755.596	0.03
755.906	0.03
756.216	0.03
756.526	0.03
756.836	0.03
757.146	0.03
757.455	0.03
757.765	0.03
758.075	0.02
758.385	0.02
758.694	0.02
759.004	0.02
759.313	0.02
759.622	0.02
759.932	0.02
760.241	0.02
760.55	0.02
760.859	0.02
761.168	0.02
761.477	0.02
761.786	0.03
762.095	0.02
762.404	0.02
762.713	0.03
763.021	0.02
763.33	0.02
763.639	0.02
763.947	0.02
764.256	0.02
764.564	0.02
764.872	0.02
765.181	0.02
765.489	0.02
765.797	0.02
766.105	0.01
766.413	0.01
766.721	0.01
767.029	0.01
767.337	0.01
767.644	0.02
767.952	0.01
768.26	0.01
768.567	0.02
768.875	0.02
769.182	0.02
769.49	0.01
769.797	0.01
770.104	0.01
770.411	0.01
770.718	0.01
771.026	0.01
771.333	0.01
771.639	0.01
771.946	0.01
772.253	0.01
772.56	0.01
772.867	0.01
773.173	0.01
773.48	0.01
773.786	0.01
774.093	0.01
774.399	0.01
774.705	0.01
775.012	0.01
775.318	0
775.624	0.01
775.93	0.01
776.236	0
776.542	0
776.848	0
777.154	-0
777.459	0
777.765	0
778.071	0
778.376	0
778.682	0
778.987	0
779.292	0
779.598	0
779.903	0
780.208	0
780.513	0.01
780.818	0.01
781.123	0.01
781.428	0.01
781.733	0.01
782.038	0.01
782.343	0
782.647	0.01
782.952	0.01
783.256	0
783.561	0.01
783.865	0.01
784.17	0.01
784.474	0.01
784.778	0.01
785.082	0.01
785.386	0
785.69	0
785.994	0
786.298	0.01
786.602	0.01
786.906	0.01
787.209	0.01
787.513	0
787.817	0
788.12	0.01
788.424	0.01
788.727	0.01
789.03	0.01
789.333	0.01
789.637	0.01
789.94	0.01
790.243	0.01
790.546	0.01
790.849	0.01
791.152	0.01
791.454	0.01
791.757	0.01
792.06	0.01
792.362	0.01
792.665	0.01
792.967	0.01
793.27	0.01
793.572	0
793.874	0
794.177	-0
794.479	-0
794.781	-0
795.083	0
795.385	0
795.687	-0
795.989	-0
796.29	0
796.592	-0
796.894	0.01
797.195	0
797.497	-0
797.798	-0
798.1	-0
798.401	-0
798.702	-0.01
799.003	-0.01
799.304	-0
799.605	0
799.906	0
800.207	-0
800.508	-0
800.809	0
801.11	0
801.41	-0
801.711	-0
802.011	0
802.312	0
802.612	0.01
802.913	0.01
803.213	0.01
803.513	0.01
803.813	0.01
804.113	0.01
804.413	0
804.713	0.01
805.013	-0
805.313	-0
805.613	0
805.912	-0
806.212	-0
806.511	-0
806.811	-0
807.11	-0
807.41	-0
807.709	-0
808.008	-0
808.307	-0
808.606	0
808.905	-0.01
809.204	-0.01
809.503	-0.01
809.802	-0
810.101	-0
810.399	-0
810.698	0
810.997	-0.01
811.295	-0
811.593	-0
811.892	-0.01
812.19	-0.01
812.488	-0.01
812.786	-0.01
813.084	-0
813.383	-0.01
813.68	-0.01
813.978	-0.01
814.276	-0.01
814.574	-0
814.872	-0.01
815.169	-0.01
815.467	-0.01
815.764	-0.01
816.062	-0
816.359	-0.01
816.656	0
816.954	0
817.251	0
817.548	0
817.845	0
818.142	-0.01
818.439	0
818.735	0
819.032	-0
819.329	-0
819.626	-0
819.922	-0
820.219	-0.01
820.515	-0
820.811	-0.01
821.108	-0
821.404	-0.01
821.7	0
821.996	-0.01
822.292	-0
822.588	-0
822.884	-0
823.18	-0
823.475	-0
823.771	0.01
824.067	-0
824.362	-0
824.658	0
824.953	0
825.249	0
825.544	0
825.839	0.01
826.134	0
826.429	0.01
826.724	0.01
827.019	0.02
827.314	0
827.609	-0.01
827.904	-0
828.198	-0.01
828.493	-0.01
828.787	0
829.082	-0.01
829.376	-0.01
829.671	-0.01
829.965	-0
830.259	0
830.553	-0
830.847	0
831.141	-0
831.435	-0.01
831.729	-0
832.023	-0.01
832.317	-0
832.61	-0
832.904	-0.01
833.197	-0
833.491	0
833.784	0
834.077	0
834.371	0
834.664	-0.02
834.957	-0.01
835.25	-0.01
835.543	-0.01
835.836	-0.01
836.129	-0.01
836.421	-0.01
836.714	-0.01
837.007	-0.02
837.299	-0.01
837.592	-0
837.884	-0.01
838.177	-0
838.469	-0.01
838.761	-0
839.053	-0
839.345	-0.01
839.637	0
839.929	-0.01
840.221	-0.01
840.513	-0.01
840.805	-0.01
841.096	0
841.388	-0
841.68	0.01
841.971	-0
842.262	0.01
842.554	0.01
842.845	0
843.136	-0
843.427	-0.01
843.718	-0
844.009	0
844.3	-0
844.591	-0
844.882	-0.01
845.173	-0.01
845.463	-0.01
845.754	-0.01
846.044	-0.01
846.335	-0.01
846.625	-0.01
846.915	-0.01
847.206	-0.02
847.496	-0.01
847.786	-0.02
848.076	-0.01
848.366	-0.01
848.656	-0.01
848.945	-0
849.235	-0.01
849.525	-0.01
849.814	-0
850.104	-0.01
850.393	-0.02
850.683	-0
850.972	-0.01
851.261	-0.02
851.551	0.01
851.84	-0.01
852.129	0
852.418	-0.01
852.707	0.01
852.995	-0.01
853.284	0
853.573	-0
853.862	-0.01
854.15	-0.02
854.439	-0
854.727	-0.01
855.015	-0.03
855.304	-0.03
855.592	-0.01
855.88	-0.01
856.168	-0.01
856.456	-0.02
856.744	-0.01
857.032	-0.01
857.32	-0.02
857.607	-0.03
857.895	-0.03
858.183	-0.02
858.47	-0.03
858.757	-0.03
859.045	-0.03
859.332	-0.02
859.619	-0.01
859.907	-0.03
860.194	-0.03
860.481	-0.02
860.768	-0.04
861.054	-0.03
861.341	-0.03
861.628	-0.02
861.915	-0.03
862.201	-0.01
862.488	-0.01
862.774	-0.02
863.061	-0.01
863.347	-0.02
863.633	-0.03
863.919	-0.01
864.205	-0.03
864.491	-0.01
864.777	-0
865.063	-0.01
865.349	-0.01
865.635	-0
865.92	-0.02
866.206	-0.04
866.492	-0.02
866.777	-0.02
867.062	-0.06
867.348	0.03
867.633	-0.01
867.918	-0.01
868.203	-0.01
868.488	-0.03
868.773	-0.03
869.058	-0.03
869.343	-0
869.628	-0.05
869.912	0.03
870.197	-0
870.482	-0.04
870.766	-0.01
871.05	-0.03
871.335	-0.06
871.619	-0.01
871.903	-0.07
872.187	-0.04
872.471	-0.05
872.755	-0.08
873.039	-0.06
873.323	-0.02
873.607	-0.01
873.89	0.04
874.174	0.01
874.458	0.07
874.741	-0.03
875.024	-0.02
875.308	-0.02
875.591	0.01
875.874	-0.06
876.157	-0.1
876.44	-0.09
876.723	-0.03
877.006	-0.11
877.289	-0.06
877.572	-0.04
877.854	-0.08
878.137	-0.02
878.42	0.01
878.702	-0.07
878.984	0.04
879.267	-0.07
879.549	0
879.831	-0.1
880.113	0.05
880.395	-0.05
880.677	-0.07
880.959	-0.02
