Data from Rubpy_EV_1200_EDTA_Absorbance_12-50-43-622.txt Node
Date: Mon Jun 29 12:50:43 BST 2026
User: fpm-admin
Spectrometer: OFX00224
Trigger mode: 0
Integration Time (sec): 7.000000E-2
Scans to average: 3
Nonlinearity correction enabled: false
Boxcar width: 0
Storing dark spectrum: false
XAxis mode: Wavelengths
Number of Pixels in Spectrum: 2136
>>>>>Begin Spectral Data<<<<<
154.91	0.21
155.289	-0.15
155.669	0.21
156.048	0.41
156.428	-0.48
156.807	-0
157.186	0.1
157.566	-0
157.945	-0.22
158.325	0.16
158.704	-0.08
159.083	0.93
159.462	0.26
159.842	0.11
160.221	-0
160.6	-0
160.979	-0
161.359	0.1
161.738	-1.11
162.117	-0.21
162.496	-0.18
162.875	-0
163.254	0.18
163.633	1.23
164.012	0.85
164.391	-0
164.77	-0.22
165.149	-0
165.528	-0.01
165.907	-0
166.286	-0.06
166.665	-0.21
167.044	0.22
167.423	-0
167.802	-0.05
168.181	-0
168.559	-0.26
168.938	0.38
169.317	0.98
169.696	0.57
170.074	-0.24
170.453	-0
170.832	0.72
171.21	0.1
171.589	-0
171.968	-0
172.346	-0
172.725	0.95
173.103	-0
173.482	0.74
173.861	0.6
174.239	-0.14
174.617	-0
174.996	-0
175.374	-0
175.753	1.04
176.131	-0
176.51	-0.08
176.888	-0
177.266	-0
177.645	0.03
178.023	-0
178.401	0
178.779	0.18
179.158	-0.26
179.536	0.32
179.914	-0
180.292	-0.21
180.67	-0.09
181.048	-0
181.427	-0
181.805	-0.6
182.183	-0
182.561	-0.47
182.939	-0.27
183.317	-0.63
183.695	-0
184.073	-0.56
184.451	-1.02
184.829	0.51
185.206	0.09
185.584	-0.49
185.962	0.48
186.34	-0.26
186.718	0.05
187.096	-0.95
187.473	0.87
187.851	0.74
188.229	0.18
188.607	0.18
188.984	0.02
189.362	0.11
189.74	-0.01
190.117	0.05
190.495	-0.03
190.872	0.05
191.25	0.09
191.627	0.15
192.005	0.07
192.382	0.24
192.76	0.07
193.137	0.15
193.515	-0.04
193.892	0.1
194.269	0.07
194.647	0.08
195.024	-0.05
195.401	0.08
195.779	-0.04
196.156	0.05
196.533	0.03
196.91	-0.09
197.288	0.03
197.665	0.07
198.042	0.08
198.419	-0.02
198.796	0.07
199.173	0.13
199.55	0.05
199.927	0.12
200.304	0.09
200.681	0.01
201.058	0.13
201.435	0.03
201.812	0.19
202.189	0.06
202.566	0.08
202.943	0.13
203.32	0.12
203.697	0.15
204.073	-0.07
204.45	0.03
204.827	0.13
205.204	0.09
205.58	-0.02
205.957	0.02
206.334	0.05
206.71	0.05
207.087	0.11
207.464	0.22
207.84	0.1
208.217	0.17
208.593	0.07
208.97	-0.05
209.346	0.11
209.723	0
210.099	0.16
210.476	0.08
210.852	0.16
211.228	0.08
211.605	0.09
211.981	0.15
212.357	0.04
212.733	0.16
213.11	0.03
213.486	0.05
213.862	0.13
214.238	0.13
214.614	0.17
214.991	0.06
215.367	0.08
215.743	0.2
216.119	0.06
216.495	0.17
216.871	0.04
217.247	0.07
217.623	-0
217.999	0.07
218.375	0.2
218.751	-0
219.127	0.03
219.502	0.14
219.878	-0.01
220.254	0.11
220.63	0.1
221.006	0.13
221.381	0.01
221.757	0.22
222.133	0.13
222.508	0.12
222.884	0.13
223.26	0.15
223.635	-0
224.011	0.03
224.386	0.12
224.762	0.1
225.137	0.2
225.513	0.24
225.888	0.18
226.264	0.15
226.639	0.13
227.014	0.08
227.39	0.07
227.765	0.21
228.14	0.17
228.516	0.11
228.891	0.07
229.266	0.21
229.641	-0.07
230.017	0.11
230.392	0.15
230.767	0.07
231.142	0.15
231.517	0.17
231.892	0.21
232.267	0.09
232.642	0.1
233.017	0.14
233.392	0.14
233.767	0.15
234.142	0.04
234.517	0.13
234.892	-0.03
235.267	0.12
235.641	0.14
236.016	-0
236.391	0.12
236.766	-0.01
237.14	0.03
237.515	0.1
237.89	0.09
238.264	0.21
238.639	-0.02
239.014	-0.01
239.388	0.25
239.763	0.1
240.137	0.06
240.512	0.01
240.886	0.1
241.261	0.11
241.635	0.08
242.009	0.15
242.384	0.13
242.758	0.07
243.132	0.05
243.507	0.04
243.881	0.14
244.255	0.08
244.629	0.06
245.004	0.12
245.378	0.17
245.752	0.07
246.126	0.06
246.5	0.22
246.874	0.16
247.248	0.09
247.622	0.02
247.996	0.14
248.37	0.08
248.744	0.15
249.118	0.12
249.492	0.06
249.866	0.04
250.24	0.06
250.613	-0.04
250.987	0.2
251.361	0.16
251.735	0.03
252.108	0.08
252.482	0.09
252.856	0.09
253.229	-0
253.603	0.06
253.977	-0.01
254.35	0.08
254.724	0.06
255.097	0.14
255.471	0.17
255.844	0.13
256.218	0.14
256.591	0.16
256.964	-0.02
257.338	0.1
257.711	0.02
258.084	0.07
258.458	0.1
258.831	0.12
259.204	0.17
259.577	0.14
259.95	0.08
260.323	0.09
260.697	0.13
261.07	0.15
261.443	0.12
261.816	0.07
262.189	0.04
262.562	0.11
262.935	0.05
263.308	0.13
263.68	0.07
264.053	0.17
264.426	0.13
264.799	0.08
265.172	-0.02
265.545	0.1
265.917	0.16
266.29	0.04
266.663	0.17
267.035	0.22
267.408	0.1
267.781	0.17
268.153	0.07
268.526	0.18
268.898	0.13
269.271	0.03
269.643	0.05
270.016	0.15
270.388	0.09
270.76	0.1
271.133	0.02
271.505	0.03
271.877	0.04
272.25	0.05
272.622	0.1
272.994	0.03
273.366	0.08
273.739	0.1
274.111	0.07
274.483	0.03
274.855	0.1
275.227	0.05
275.599	0.04
275.971	0.08
276.343	0.05
276.715	0.12
277.087	0.11
277.459	0.04
277.831	0.12
278.203	0.08
278.574	0.09
278.946	0.1
279.318	0.13
279.69	0.04
280.061	0.06
280.433	0.12
280.805	0.09
281.176	0.18
281.548	0.03
281.92	0.11
282.291	0.08
282.663	0.11
283.034	0.15
283.406	0.09
283.777	0.1
284.148	0.1
284.52	0.16
284.891	0.07
285.262	0.15
285.634	0.13
286.005	0.13
286.376	0.15
286.747	0.07
287.119	0.08
287.49	0.05
287.861	0.08
288.232	0.08
288.603	0.17
288.974	0.04
289.345	0.13
289.716	0.1
290.087	0.09
290.458	0.07
290.829	0.13
291.2	0.06
291.571	0.09
291.941	0.1
292.312	0.14
292.683	0.09
293.054	0.13
293.424	0.09
293.795	0.11
294.166	0.14
294.536	0.03
294.907	0.1
295.277	0.03
295.648	0.03
296.018	0.1
296.389	0.07
296.759	0.01
297.13	0.17
297.5	0.09
297.871	0.09
298.241	0.08
298.611	0.11
298.981	0.05
299.352	0.09
299.722	0.09
300.092	0.06
300.462	0.11
300.832	0.07
301.202	0.07
301.573	0.04
301.943	0.06
302.313	0.06
302.683	0.07
303.053	0.06
303.422	0.06
303.792	0.05
304.162	0.06
304.532	0.06
304.902	0.06
305.272	0.07
305.641	0.06
306.011	0.07
306.381	0.06
306.75	0.06
307.12	0.07
307.49	0.07
307.859	0.07
308.229	0.07
308.598	0.07
308.968	0.07
309.337	0.07
309.707	0.08
310.076	0.07
310.445	0.08
310.815	0.08
311.184	0.08
311.553	0.07
311.923	0.08
312.292	0.08
312.661	0.08
313.03	0.08
313.399	0.08
313.768	0.08
314.137	0.08
314.506	0.08
314.875	0.08
315.244	0.08
315.613	0.08
315.982	0.08
316.351	0.08
316.72	0.08
317.089	0.08
317.458	0.08
317.826	0.07
318.195	0.07
318.564	0.07
318.933	0.07
319.301	0.07
319.67	0.08
320.038	0.07
320.407	0.07
320.775	0.07
321.144	0.07
321.512	0.07
321.881	0.07
322.249	0.07
322.618	0.07
322.986	0.06
323.354	0.06
323.723	0.06
324.091	0.06
324.459	0.06
324.827	0.06
325.195	0.06
325.564	0.06
325.932	0.05
326.3	0.06
326.668	0.06
327.036	0.06
327.404	0.06
327.772	0.06
328.14	0.06
328.508	0.06
328.875	0.06
329.243	0.06
329.611	0.06
329.979	0.06
330.346	0.06
330.714	0.06
331.082	0.05
331.449	0.06
331.817	0.06
332.185	0.06
332.552	0.06
332.92	0.06
333.287	0.06
333.655	0.07
334.022	0.07
334.389	0.07
334.757	0.06
335.124	0.06
335.491	0.07
335.859	0.07
336.226	0.07
336.593	0.07
336.96	0.07
337.327	0.07
337.695	0.07
338.062	0.07
338.429	0.08
338.796	0.07
339.163	0.08
339.53	0.08
339.897	0.08
340.263	0.08
340.63	0.08
340.997	0.08
341.364	0.08
341.731	0.08
342.097	0.08
342.464	0.09
342.831	0.08
343.197	0.09
343.564	0.09
343.931	0.09
344.297	0.09
344.664	0.1
345.03	0.09
345.396	0.1
345.763	0.1
346.129	0.1
346.496	0.1
346.862	0.11
347.228	0.1
347.594	0.1
347.961	0.11
348.327	0.11
348.693	0.11
349.059	0.12
349.425	0.11
349.791	0.12
350.157	0.12
350.523	0.12
350.889	0.13
351.255	0.13
351.621	0.13
351.987	0.13
352.353	0.14
352.719	0.14
353.084	0.14
353.45	0.15
353.816	0.15
354.181	0.15
354.547	0.16
354.913	0.16
355.278	0.16
355.644	0.16
356.009	0.17
356.375	0.17
356.74	0.17
357.106	0.18
357.471	0.18
357.836	0.18
358.202	0.19
358.567	0.2
358.932	0.2
359.297	0.2
359.663	0.21
360.028	0.21
360.393	0.21
360.758	0.22
361.123	0.22
361.488	0.23
361.853	0.22
362.218	0.23
362.583	0.23
362.948	0.23
363.312	0.24
363.677	0.24
364.042	0.24
364.407	0.25
364.772	0.26
365.136	0.26
365.501	0.26
365.865	0.27
366.23	0.27
366.595	0.28
366.959	0.29
367.324	0.29
367.688	0.3
368.052	0.31
368.417	0.31
368.781	0.32
369.145	0.32
369.51	0.33
369.874	0.32
370.238	0.32
370.602	0.32
370.967	0.33
371.331	0.32
371.695	0.32
372.059	0.32
372.423	0.32
372.787	0.32
373.151	0.32
373.515	0.32
373.878	0.32
374.242	0.32
374.606	0.31
374.97	0.32
375.334	0.32
375.697	0.32
376.061	0.32
376.425	0.33
376.788	0.33
377.152	0.33
377.515	0.33
377.879	0.34
378.242	0.35
378.606	0.35
378.969	0.35
379.333	0.36
379.696	0.36
380.059	0.37
380.422	0.37
380.786	0.38
381.149	0.39
381.512	0.4
381.875	0.41
382.238	0.41
382.601	0.42
382.964	0.45
383.327	0.46
383.69	0.46
384.053	0.48
384.416	0.49
384.779	0.5
385.142	0.51
385.504	0.52
385.867	0.53
386.23	0.53
386.593	0.54
386.955	0.54
387.318	0.54
387.68	0.54
388.043	0.54
388.405	0.53
388.768	0.53
389.13	0.52
389.493	0.52
389.855	0.52
390.217	0.51
390.58	0.52
390.942	0.51
391.304	0.52
391.666	0.53
392.028	0.54
392.391	0.56
392.753	0.56
393.115	0.58
393.477	0.6
393.839	0.63
394.201	0.66
394.563	0.68
394.924	0.72
395.286	0.74
395.648	0.76
396.01	0.79
396.371	0.81
396.733	0.83
397.095	0.84
397.456	0.84
397.818	0.83
398.18	0.84
398.541	0.83
398.903	0.8
399.264	0.79
399.625	0.76
399.987	0.72
400.348	0.69
400.709	0.65
401.071	0.62
401.432	0.59
401.793	0.54
402.154	0.51
402.515	0.48
402.876	0.44
403.238	0.41
403.599	0.38
403.96	0.36
404.32	0.32
404.681	0.3
405.042	0.28
405.403	0.26
405.764	0.24
406.125	0.22
406.485	0.21
406.846	0.2
407.207	0.18
407.567	0.17
407.928	0.16
408.288	0.16
408.649	0.14
409.009	0.14
409.37	0.13
409.73	0.12
410.091	0.11
410.451	0.11
410.811	0.11
411.171	0.1
411.532	0.1
411.892	0.09
412.252	0.09
412.612	0.09
412.972	0.08
413.332	0.08
413.692	0.08
414.052	0.08
414.412	0.07
414.772	0.07
415.132	0.07
415.492	0.06
415.851	0.06
416.211	0.06
416.571	0.05
416.931	0.07
417.29	0.06
417.65	0.06
418.009	0.06
418.369	0.05
418.728	0.05
419.088	0.06
419.447	0.05
419.807	0.05
420.166	0.05
420.525	0.04
420.884	0.04
421.244	0.05
421.603	0.04
421.962	0.04
422.321	0.04
422.68	0.04
423.039	0.04
423.398	0.04
423.757	0.03
424.116	0.03
424.475	0.04
424.834	0.04
425.193	0.04
425.551	0.03
425.91	0.04
426.269	0.04
426.628	0.03
426.986	0.03
427.345	0.03
427.703	0.04
428.062	0.04
428.42	0.03
428.779	0.03
429.137	0.04
429.496	0.03
429.854	0.03
430.212	0.03
430.57	0.03
430.929	0.04
431.287	0.03
431.645	0.02
432.003	0.03
432.361	0.03
432.719	0.03
433.077	0.03
433.435	0.02
433.793	0.03
434.151	0.03
434.509	0.03
434.866	0.02
435.224	0.03
435.582	0.02
435.94	0.02
436.297	0.03
436.655	0.03
437.012	0.02
437.37	0.02
437.727	0.03
438.085	0.02
438.442	0.03
438.8	0.03
439.157	0.03
439.514	0.02
439.872	0.03
440.229	0.02
440.586	0.02
440.943	0.02
441.3	0.02
441.657	0.02
442.014	0.02
442.371	0.02
442.728	0.03
443.085	0.03
443.442	0.02
443.799	0.02
444.156	0.02
444.513	0.03
444.869	0.02
445.226	0.02
445.583	0.02
445.939	0.02
446.296	0.02
446.652	0.02
447.009	0.02
447.365	0.02
447.722	0.02
448.078	0.01
448.434	0.02
448.791	0.01
449.147	0.02
449.503	0.02
449.859	0.01
450.215	0.02
450.571	0.01
450.928	0.02
451.284	0.02
451.64	0.02
451.995	0.01
452.351	0.02
452.707	0.01
453.063	0.02
453.419	0.02
453.775	0.01
454.13	0.01
454.486	0.02
454.842	0
455.197	0.01
455.553	0
455.908	0.02
456.264	0.01
456.619	0.02
456.975	0.02
457.33	0.01
457.685	0.01
458.04	0.01
458.396	0.01
458.751	0.01
459.106	0.01
459.461	0.02
459.816	0.02
460.171	0
460.526	0.01
460.881	0.01
461.236	0
461.591	0
461.946	0.01
462.301	0
462.655	0.01
463.01	0
463.365	0.01
463.719	0.01
464.074	0.01
464.428	0.01
464.783	0
465.137	-0.01
465.492	-0
465.846	-0.01
466.201	-0
466.555	0
466.909	-0
467.263	0.01
467.618	0
467.972	-0
468.326	0
468.68	-0
469.034	-0
469.388	-0
469.742	-0.01
470.096	0
470.45	-0
470.804	-0
471.157	-0
471.511	-0
471.865	0
472.218	-0
472.572	-0.01
472.926	-0.01
473.279	0
473.633	0
473.986	-0
474.34	0.01
474.693	0.01
475.046	0
475.4	0.01
475.753	0.01
476.106	0.01
476.459	0.01
476.812	0.01
477.165	0.01
477.519	0.01
477.872	0.02
478.224	0.02
478.577	0.01
478.93	0.01
479.283	0.01
479.636	0.02
479.989	0.01
480.341	0.02
480.694	0.02
481.047	0.01
481.399	0.02
481.752	0.02
482.104	0.02
482.457	0.02
482.809	0.02
483.162	0.02
483.514	0.02
483.866	0.02
484.219	0.02
484.571	0.03
484.923	0.02
485.275	0.03
485.627	0.02
485.979	0.03
486.331	0.02
486.683	0.03
487.035	0.03
487.387	0.03
487.739	0.03
488.091	0.03
488.443	0.03
488.794	0.03
489.146	0.03
489.498	0.03
489.849	0.03
490.201	0.03
490.552	0.03
490.904	0.03
491.255	0.03
491.607	0.04
491.958	0.03
492.309	0.03
492.661	0.04
493.012	0.04
493.363	0.03
493.714	0.04
494.065	0.03
494.416	0.03
494.767	0.03
495.118	0.03
495.469	0.04
495.82	0.04
496.171	0.04
496.522	0.04
496.872	0.04
497.223	0.04
497.574	0.04
497.924	0.05
498.275	0.05
498.626	0.04
498.976	0.04
499.327	0.04
499.677	0.04
500.027	0.05
500.378	0.04
500.728	0.04
501.078	0.05
501.428	0.05
501.779	0.05
502.129	0.05
502.479	0.05
502.829	0.05
503.179	0.05
503.529	0.05
503.879	0.05
504.229	0.06
504.578	0.06
504.928	0.06
505.278	0.06
505.628	0.05
505.977	0.06
506.327	0.05
506.676	0.06
507.026	0.06
507.375	0.06
507.725	0.06
508.074	0.06
508.424	0.06
508.773	0.06
509.122	0.06
509.471	0.06
509.82	0.06
510.17	0.07
510.519	0.07
510.868	0.06
511.217	0.07
511.566	0.07
511.915	0.06
512.263	0.07
512.612	0.07
512.961	0.07
513.31	0.07
513.659	0.07
514.007	0.07
514.356	0.07
514.704	0.08
515.053	0.07
515.401	0.07
515.75	0.08
516.098	0.07
516.447	0.08
516.795	0.08
517.143	0.07
517.491	0.08
517.839	0.08
518.188	0.08
518.536	0.08
518.884	0.08
519.232	0.08
519.58	0.08
519.928	0.08
520.275	0.09
520.623	0.08
520.971	0.09
521.319	0.08
521.666	0.09
522.014	0.09
522.362	0.08
522.709	0.09
523.057	0.09
523.404	0.09
523.752	0.09
524.099	0.09
524.446	0.09
524.794	0.09
525.141	0.09
525.488	0.1
525.835	0.09
526.182	0.09
526.529	0.09
526.876	0.09
527.223	0.1
527.57	0.1
527.917	0.1
528.264	0.1
528.611	0.1
528.958	0.11
529.304	0.1
529.651	0.1
529.998	0.11
530.344	0.11
530.691	0.1
531.037	0.11
531.384	0.11
531.73	0.11
532.076	0.11
532.423	0.11
532.769	0.11
533.115	0.11
533.461	0.11
533.807	0.12
534.154	0.11
534.5	0.12
534.846	0.12
535.192	0.12
535.537	0.12
535.883	0.12
536.229	0.12
536.575	0.13
536.921	0.12
537.266	0.12
537.612	0.12
537.957	0.13
538.303	0.13
538.649	0.12
538.994	0.13
539.339	0.13
539.685	0.13
540.03	0.13
540.375	0.13
540.721	0.13
541.066	0.13
541.411	0.13
541.756	0.13
542.101	0.14
542.446	0.13
542.791	0.14
543.136	0.14
543.481	0.14
543.825	0.14
544.17	0.14
544.515	0.14
544.86	0.14
545.204	0.15
545.549	0.15
545.893	0.15
546.238	0.15
546.582	0.15
546.927	0.15
547.271	0.15
547.615	0.16
547.96	0.16
548.304	0.16
548.648	0.16
548.992	0.16
549.336	0.16
549.68	0.16
550.024	0.16
550.368	0.16
550.712	0.17
551.056	0.17
551.4	0.17
551.743	0.16
552.087	0.17
552.431	0.17
552.774	0.17
553.118	0.17
553.462	0.17
553.805	0.17
554.148	0.18
554.492	0.18
554.835	0.17
555.178	0.18
555.522	0.18
555.865	0.18
556.208	0.18
556.551	0.18
556.894	0.18
557.237	0.18
557.58	0.18
557.923	0.18
558.266	0.18
558.609	0.19
558.952	0.18
559.294	0.18
559.637	0.19
559.98	0.19
560.322	0.19
560.665	0.18
561.007	0.19
561.35	0.18
561.692	0.19
562.034	0.19
562.377	0.19
562.719	0.19
563.061	0.19
563.403	0.19
563.745	0.19
564.088	0.19
564.43	0.19
564.772	0.19
565.113	0.19
565.455	0.19
565.797	0.19
566.139	0.19
566.481	0.19
566.822	0.19
567.164	0.19
567.506	0.19
567.847	0.2
568.189	0.2
568.53	0.2
568.872	0.2
569.213	0.2
569.554	0.2
569.895	0.2
570.237	0.2
570.578	0.2
570.919	0.2
571.26	0.2
571.601	0.2
571.942	0.2
572.283	0.2
572.624	0.2
572.965	0.2
573.306	0.2
573.646	0.2
573.987	0.2
574.328	0.2
574.668	0.19
575.009	0.2
575.349	0.2
575.69	0.2
576.03	0.2
576.37	0.2
576.711	0.2
577.051	0.2
577.391	0.2
577.731	0.2
578.072	0.2
578.412	0.2
578.752	0.2
579.092	0.2
579.431	0.2
579.771	0.2
580.111	0.2
580.451	0.2
580.791	0.2
581.13	0.2
581.47	0.2
581.81	0.2
582.149	0.2
582.489	0.2
582.828	0.2
583.167	0.2
583.507	0.2
583.846	0.19
584.185	0.19
584.525	0.2
584.864	0.2
585.203	0.21
585.542	0.21
585.881	0.21
586.22	0.21
586.559	0.21
586.898	0.21
587.236	0.21
587.575	0.21
587.914	0.21
588.252	0.21
588.591	0.22
588.93	0.22
589.268	0.22
589.607	0.22
589.945	0.22
590.283	0.22
590.622	0.22
590.96	0.22
591.298	0.22
591.636	0.22
591.974	0.23
592.313	0.23
592.651	0.23
592.989	0.23
593.326	0.23
593.664	0.23
594.002	0.23
594.34	0.23
594.678	0.23
595.015	0.24
595.353	0.23
595.691	0.24
596.028	0.24
596.366	0.24
596.703	0.24
597.04	0.24
597.378	0.24
597.715	0.24
598.052	0.24
598.389	0.25
598.726	0.25
599.064	0.25
599.401	0.25
599.738	0.25
600.074	0.25
600.411	0.25
600.748	0.25
601.085	0.25
601.422	0.25
601.758	0.25
602.095	0.25
602.432	0.25
602.768	0.25
603.105	0.25
603.441	0.25
603.777	0.25
604.114	0.25
604.45	0.25
604.786	0.25
605.122	0.25
605.459	0.25
605.795	0.25
606.131	0.25
606.467	0.25
606.803	0.25
607.139	0.25
607.474	0.25
607.81	0.25
608.146	0.25
608.482	0.25
608.817	0.25
609.153	0.25
609.488	0.25
609.824	0.25
610.159	0.24
610.495	0.24
610.83	0.24
611.165	0.24
611.5	0.24
611.836	0.24
612.171	0.24
612.506	0.24
612.841	0.24
613.176	0.24
613.511	0.24
613.845	0.24
614.18	0.24
614.515	0.24
614.85	0.24
615.184	0.24
615.519	0.24
615.854	0.23
616.188	0.23
616.523	0.23
616.857	0.23
617.191	0.23
617.526	0.23
617.86	0.23
618.194	0.23
618.528	0.23
618.862	0.23
619.196	0.23
619.53	0.23
619.864	0.23
620.198	0.22
620.532	0.22
620.866	0.22
621.2	0.22
621.533	0.22
621.867	0.22
622.201	0.22
622.534	0.22
622.868	0.22
623.201	0.22
623.534	0.22
623.868	0.22
624.201	0.22
624.534	0.22
624.868	0.22
625.201	0.21
625.534	0.21
625.867	0.21
626.2	0.21
626.533	0.21
626.865	0.21
627.198	0.21
627.531	0.21
627.864	0.21
628.196	0.21
628.529	0.21
628.862	0.2
629.194	0.2
629.527	0.2
629.859	0.2
630.191	0.2
630.524	0.2
630.856	0.2
631.188	0.19
631.52	0.19
631.852	0.19
632.184	0.19
632.516	0.19
632.848	0.18
633.18	0.18
633.512	0.18
633.844	0.18
634.175	0.18
634.507	0.18
634.839	0.18
635.17	0.18
635.502	0.18
635.833	0.17
636.165	0.17
636.496	0.17
636.827	0.17
637.159	0.17
637.49	0.17
637.821	0.16
638.152	0.16
638.483	0.16
638.814	0.16
639.145	0.16
639.476	0.16
639.807	0.16
640.137	0.16
640.468	0.16
640.799	0.16
641.129	0.15
641.46	0.15
641.791	0.15
642.121	0.15
642.451	0.15
642.782	0.14
643.112	0.14
643.442	0.14
643.773	0.14
644.103	0.14
644.433	0.14
644.763	0.14
645.093	0.14
645.423	0.14
645.753	0.14
646.082	0.14
646.412	0.14
646.742	0.14
647.072	0.13
647.401	0.13
647.731	0.13
648.06	0.13
648.39	0.13
648.719	0.13
649.048	0.14
649.378	0.14
649.707	0.13
650.036	0.14
650.365	0.13
650.694	0.13
651.023	0.13
651.352	0.13
651.681	0.13
652.01	0.13
652.339	0.13
652.668	0.12
652.996	0.13
653.325	0.13
653.654	0.13
653.982	0.13
654.311	0.13
654.639	0.13
654.967	0.13
655.296	0.13
655.624	0.13
655.952	0.13
656.28	0.13
656.609	0.12
656.937	0.13
657.265	0.13
657.593	0.13
657.92	0.05
658.248	0.01
658.576	0.01
658.904	0.1
659.231	0.12
659.559	0.13
659.887	0.13
660.214	0.13
660.542	0.13
660.869	0.12
661.196	0.13
661.524	0.13
661.851	0.13
662.178	0.13
662.505	0.13
662.832	0.13
663.159	0.13
663.486	0.14
663.813	0.14
664.14	0.13
664.467	0.13
664.794	0.13
665.12	0.13
665.447	0.12
665.774	0.12
666.1	0.12
666.427	0.12
666.753	0.12
667.079	0.13
667.406	0.12
667.732	0.12
668.058	0.12
668.384	0.12
668.71	0.12
669.036	0.12
669.362	0.11
669.688	0.12
670.014	0.12
670.34	0.12
670.666	0.12
670.991	0.11
671.317	0.11
671.643	0.11
671.968	0.11
672.294	0.12
672.619	0.12
672.945	0.11
673.27	0.11
673.595	0.11
673.92	0.12
674.246	0.11
674.571	0.11
674.896	0.11
675.221	0.11
675.546	0.11
675.87	0.11
676.195	0.11
676.52	0.11
676.845	0.11
677.169	0.11
677.494	0.11
677.819	0.11
678.143	0.11
678.468	0.1
678.792	0.1
679.116	0.1
679.44	0.1
679.765	0.1
680.089	0.1
680.413	0.09
680.737	0.1
681.061	0.09
681.385	0.09
681.709	0.08
682.033	0.09
682.356	0.09
682.68	0.09
683.004	0.09
683.327	0.09
683.651	0.09
683.974	0.09
684.298	0.09
684.621	0.09
684.944	0.08
685.268	0.08
685.591	0.08
685.914	0.08
686.237	0.08
686.56	0.07
686.883	0.07
687.206	0.08
687.529	0.08
687.852	0.08
688.175	0.08
688.497	0.08
688.82	0.07
689.142	0.07
689.465	0.07
689.787	0.07
690.11	0.08
690.432	0.07
690.755	0.08
691.077	0.07
691.399	0.07
691.721	0.07
692.043	0.07
692.365	0.07
692.687	0.07
693.009	0.07
693.331	0.06
693.653	0.06
693.974	0.06
694.296	0.06
694.618	0.06
694.939	0.06
695.261	0.06
695.582	0.06
695.904	0.06
696.225	0.06
696.546	0.06
696.868	0.06
697.189	0.06
697.51	0.06
697.831	0.06
698.152	0.06
698.473	0.06
698.794	0.06
699.114	0.05
699.435	0.05
699.756	0.05
700.077	0.05
700.397	0.05
700.718	0.04
701.038	0.04
701.359	0.04
701.679	0.05
701.999	0.04
702.32	0.05
702.64	0.05
702.96	0.05
703.28	0.05
703.6	0.05
703.92	0.04
704.24	0.04
704.56	0.04
704.879	0.04
705.199	0.04
705.519	0.05
705.838	0.04
706.158	0.05
706.478	0.04
706.797	0.04
707.116	0.04
707.436	0.04
707.755	0.03
708.074	0.04
708.393	0.03
708.712	0.04
709.031	0.03
709.35	0.04
709.669	0.04
709.988	0.04
710.307	0.04
710.626	0.04
710.944	0.04
711.263	0.04
711.582	0.04
711.9	0.05
712.219	0.05
712.537	0.05
712.855	0.05
713.174	0.05
713.492	0.05
713.81	0.05
714.128	0.04
714.446	0.05
714.764	0.04
715.082	0.04
715.4	0.04
715.718	0.04
716.035	0.05
716.353	0.04
716.671	0.05
716.988	0.05
717.306	0.04
717.623	0.05
717.941	0.04
718.258	0.04
718.575	0.04
718.893	0.04
719.21	0.04
719.527	0.04
719.844	0.04
720.161	0.04
720.478	0.04
720.795	0.04
721.112	0.04
721.428	0.04
721.745	0.04
722.062	0.04
722.378	0.04
722.695	0.04
723.011	0.04
723.328	0.04
723.644	0.04
723.96	0.04
724.276	0.04
724.593	0.04
724.909	0.04
725.225	0.04
725.541	0.04
725.857	0.05
726.173	0.05
726.488	0.05
726.804	0.05
727.12	0.05
727.435	0.05
727.751	0.05
728.067	0.05
728.382	0.05
728.697	0.04
729.013	0.05
729.328	0.05
729.643	0.05
729.958	0.05
730.273	0.05
730.588	0.04
730.903	0.04
731.218	0.04
731.533	0.04
731.848	0.05
732.163	0.04
732.477	0.04
732.792	0.04
733.107	0.04
733.421	0.04
733.736	0.04
734.05	0.04
734.364	0.04
734.678	0.04
734.993	0.04
735.307	0.04
735.621	0.04
735.935	0.05
736.249	0.04
736.563	0.05
736.877	0.05
737.19	0.05
737.504	0.04
737.818	0.04
738.131	0.04
738.445	0.04
738.758	0.04
739.072	0.04
739.385	0.04
739.698	0.04
740.012	0.04
740.325	0.04
740.638	0.04
740.951	0.04
741.264	0.04
741.577	0.04
741.89	0.04
742.203	0.04
742.515	0.04
742.828	0.04
743.141	0.04
743.453	0.04
743.766	0.04
744.078	0.04
744.391	0.04
744.703	0.04
745.015	0.04
745.327	0.04
745.639	0.04
745.952	0.04
746.264	0.04
746.575	0.04
746.887	0.04
747.199	0.04
747.511	0.04
747.823	0.03
748.134	0.04
748.446	0.04
748.757	0.04
749.069	0.04
749.38	0.04
749.692	0.03
750.003	0.03
750.314	0.03
750.625	0.03
750.936	0.03
751.248	0.03
751.559	0.03
751.869	0.03
752.18	0.03
752.491	0.03
752.802	0.03
753.112	0.03
753.423	0.03
753.734	0.03
754.044	0.03
754.355	0.03
754.665	0.03
754.975	0.02
755.285	0.02
755.596	0.02
755.906	0.02
756.216	0.02
756.526	0.02
756.836	0.02
757.146	0.02
757.455	0.02
757.765	0.02
758.075	0.01
758.385	0.01
758.694	0.01
759.004	0.01
759.313	0.01
759.622	0.01
759.932	0.01
760.241	0.02
760.55	0.01
760.859	0.01
761.168	0.01
761.477	0.01
761.786	0.02
762.095	0.02
762.404	0.02
762.713	0.02
763.021	0.02
763.33	0.02
763.639	0.02
763.947	0.02
764.256	0.02
764.564	0.01
764.872	0.02
765.181	0.01
765.489	0.01
765.797	0.01
766.105	0.01
766.413	0.01
766.721	0.01
767.029	0.01
767.337	0.01
767.644	0.01
767.952	0.01
768.26	0.01
768.567	0.01
768.875	0.01
769.182	0.01
769.49	0.01
769.797	0.01
770.104	0.01
770.411	0.01
770.718	0.01
771.026	0.01
771.333	0
771.639	0.01
771.946	0
772.253	0
772.56	0
772.867	0
773.173	0.01
773.48	0.01
773.786	0
774.093	0
774.399	0
774.705	0
775.012	0
775.318	0
775.624	0
775.93	0
776.236	-0
776.542	-0
776.848	-0
777.154	-0.01
777.459	-0
777.765	-0
778.071	-0
778.376	-0
778.682	-0
778.987	-0
779.292	-0
779.598	0
779.903	0
780.208	-0
780.513	0
780.818	0.01
781.123	0.01
781.428	0.01
781.733	0.01
782.038	0.01
782.343	0
782.647	-0
782.952	0
783.256	-0
783.561	0
783.865	0.01
784.17	0
784.474	0.01
784.778	0
785.082	0
785.386	0
785.69	0
785.994	-0
786.298	0
786.602	0
786.906	0
787.209	0
787.513	-0
787.817	0.01
788.12	0
788.424	0.01
788.727	0
789.03	0.01
789.333	0
789.637	0
789.94	0.01
790.243	0.01
790.546	0.01
790.849	0.01
791.152	0.01
791.454	0.01
791.757	0.01
792.06	0.01
792.362	0.01
792.665	0.01
792.967	0
793.27	0
793.572	0
793.874	0
794.177	-0
794.479	-0.01
794.781	-0.01
795.083	-0
795.385	-0
795.687	-0
795.989	0
796.29	0
796.592	-0
796.894	0
797.195	-0
797.497	-0
797.798	-0
798.1	-0.01
798.401	-0.01
798.702	-0.01
799.003	-0.01
799.304	-0
799.605	-0
799.906	-0
800.207	-0
800.508	-0
800.809	0
801.11	-0
801.41	-0
801.711	-0
802.011	-0
802.312	-0
802.612	0
802.913	0.01
803.213	0.01
803.513	0.01
803.813	0.01
804.113	0.01
804.413	0
804.713	0
805.013	0
805.313	0
805.613	0
805.912	0
806.212	-0
806.511	-0
806.811	-0
807.11	-0
807.41	0
807.709	-0
808.008	-0.01
808.307	0
808.606	0
808.905	-0
809.204	-0
809.503	-0.01
809.802	-0.01
810.101	-0.01
810.399	-0
810.698	-0
810.997	-0
811.295	-0
811.593	-0.01
811.892	-0.01
812.19	-0.01
812.488	-0.01
812.786	-0.01
813.084	-0.01
813.383	-0.01
813.68	-0.01
813.978	-0
814.276	-0.01
814.574	-0.01
814.872	-0.01
815.169	-0.01
815.467	-0.01
815.764	-0.01
816.062	-0
816.359	-0.01
816.656	0
816.954	-0
817.251	-0
817.548	0
817.845	-0
818.142	-0
818.439	-0.01
818.735	-0
819.032	-0
819.329	-0
819.626	-0.01
819.922	-0.01
820.219	-0
820.515	-0.01
820.811	-0.01
821.108	-0
821.404	-0
821.7	-0
821.996	-0.01
822.292	-0.01
822.588	-0.01
822.884	-0.01
823.18	-0
823.475	0
823.771	0
824.067	-0
824.362	0
824.658	0.01
824.953	0
825.249	0.01
825.544	0.01
825.839	0.01
826.134	0
826.429	0.01
826.724	0.01
827.019	0.01
827.314	-0
827.609	-0.01
827.904	-0
828.198	-0.01
828.493	-0.01
828.787	-0.01
829.082	-0.01
829.376	-0.01
829.671	-0.01
829.965	0
830.259	-0.01
830.553	-0
830.847	0
831.141	-0
831.435	-0.01
831.729	-0
832.023	-0
832.317	0
832.61	-0.01
832.904	-0
833.197	-0
833.491	0.01
833.784	0.01
834.077	0
834.371	-0.01
834.664	-0
834.957	-0.01
835.25	-0.01
835.543	-0.01
835.836	-0
836.129	-0.01
836.421	-0.01
836.714	-0.01
837.007	-0.02
837.299	-0.01
837.592	-0.01
837.884	-0.02
838.177	-0
838.469	-0
838.761	-0
839.053	-0
839.345	-0
839.637	0
839.929	-0
840.221	-0.01
840.513	-0
840.805	-0
841.096	-0.01
841.388	-0
841.68	-0
841.971	-0
842.262	-0
842.554	0
842.845	-0
843.136	-0
843.427	0
843.718	0.01
844.009	-0
844.3	-0.01
844.591	-0.01
844.882	-0.01
845.173	-0
845.463	-0
845.754	-0.01
846.044	-0.01
846.335	-0.02
846.625	-0.01
846.915	-0.01
847.206	-0.01
847.496	-0.02
847.786	-0.01
848.076	0
848.366	-0.01
848.656	-0
848.945	-0
849.235	-0.01
849.525	-0.01
849.814	-0
850.104	-0.01
850.393	-0.01
850.683	-0.01
850.972	-0.01
851.261	-0.01
851.551	0
851.84	-0.01
852.129	0.01
852.418	0
852.707	0.01
852.995	0
853.284	0.02
853.573	-0
853.862	-0.01
854.15	-0.01
854.439	-0.01
854.727	-0
855.015	-0.02
855.304	-0.02
855.592	-0.01
855.88	-0.01
856.168	-0.01
856.456	-0.02
856.744	-0
857.032	-0.01
857.32	-0.02
857.607	-0.02
857.895	-0.03
858.183	-0.02
858.47	-0.03
858.757	-0.03
859.045	-0.01
859.332	-0.02
859.619	-0.03
859.907	-0.02
860.194	-0.02
860.481	-0.03
860.768	-0.04
861.054	-0.03
861.341	-0.02
861.628	-0.03
861.915	-0.02
862.201	-0
862.488	0.01
862.774	-0.01
863.061	-0.02
863.347	-0.01
863.633	-0.02
863.919	0.01
864.205	-0.01
864.491	-0.02
864.777	0
865.063	0.01
865.349	-0
865.635	0
865.92	-0.06
866.206	-0.02
866.492	-0.04
866.777	-0.02
867.062	-0.06
867.348	0.02
867.633	0.01
867.918	-0.04
868.203	-0
868.488	0.01
868.773	-0.03
869.058	-0
869.343	0.01
869.628	-0.02
869.912	-0.01
870.197	-0.01
870.482	-0.02
870.766	-0.02
871.05	-0.03
871.335	-0.05
871.619	0
871.903	-0.05
872.187	-0.09
872.471	-0.06
872.755	-0
873.039	-0.04
873.323	-0
873.607	-0.08
873.89	0.02
874.174	0.01
874.458	-0.01
874.741	-0.02
875.024	-0.04
875.308	0.04
875.591	0.08
875.874	0.01
876.157	-0.06
876.44	-0.08
876.723	-0.01
877.006	-0.1
877.289	-0.09
877.572	-0.06
877.854	0.01
878.137	0.01
878.42	0.03
878.702	-0.1
878.984	0.01
879.267	-0.07
879.549	0.04
879.831	-0.09
880.113	0.09
880.395	-0.07
880.677	-0.1
880.959	-0.1
