Data from Rubpy_EV_1500_EDTA_Absorbance_13-18-48-988.txt Node
Date: Mon Jun 29 13:18:48 BST 2026
User: fpm-admin
Spectrometer: OFX00224
Trigger mode: 0
Integration Time (sec): 7.000000E-2
Scans to average: 3
Nonlinearity correction enabled: false
Boxcar width: 0
Storing dark spectrum: false
XAxis mode: Wavelengths
Number of Pixels in Spectrum: 2136
>>>>>Begin Spectral Data<<<<<
154.91	-0.24
155.289	-0
155.669	-0
156.048	0.45
156.428	0.07
156.807	-0.03
157.186	0.4
157.566	-0
157.945	-0
158.325	-0
158.704	0.05
159.083	0.27
159.462	-0.18
159.842	0.15
160.221	-0.16
160.6	-0.3
160.979	0.32
161.359	0.67
161.738	-0
162.117	-0
162.496	-0
162.875	-0
163.254	-0.22
163.633	-0
164.012	0.15
164.391	0.4
164.77	-0
165.149	-0
165.528	-0
165.907	-0
166.286	-0.07
166.665	-0
167.044	-0
167.423	-0
167.802	0.3
168.181	-0
168.559	0.04
168.938	-0.48
169.317	-0.3
169.696	0.27
170.074	-0
170.453	0.09
170.832	-0.06
171.21	-0.21
171.589	0.18
171.968	0.15
172.346	-0.38
172.725	0.78
173.103	-1.11
173.482	-0
173.861	0.2
174.239	-0.35
174.617	-0.29
174.996	-0.02
175.374	-0
175.753	-0
176.131	0.78
176.51	-0.18
176.888	-0.12
177.266	0.07
177.645	0.06
178.023	-0
178.401	0.11
178.779	-0.1
179.158	0.26
179.536	-0.28
179.914	-0
180.292	0.48
180.67	0.36
181.048	0.44
181.427	-0
181.805	-0
182.183	-0
182.561	-0
182.939	-0.27
183.317	-0.12
183.695	-1.01
184.073	-0.36
184.451	1.2
184.829	-0
185.206	0.09
185.584	-0.37
185.962	-0
186.34	-0.05
186.718	-0.34
187.096	0.4
187.473	0.52
187.851	-0
188.229	1.15
188.607	0.02
188.984	0.12
189.362	0.05
189.74	0.01
190.117	0.06
190.495	0.05
190.872	0.08
191.25	-0.06
191.627	0.03
192.005	0.07
192.382	-0.05
192.76	0.19
193.137	0.07
193.515	0.01
193.892	-0.04
194.269	0.06
194.647	0.06
195.024	0.19
195.401	0.02
195.779	-0.02
196.156	0.05
196.533	-0.06
196.91	-0.07
197.288	0.03
197.665	-0.04
198.042	-0.01
198.419	-0.06
198.796	-0.08
199.173	0.1
199.55	0.14
199.927	0.15
200.304	0.16
200.681	0.01
201.058	0.13
201.435	0.04
201.812	-0.04
202.189	0.11
202.566	0.04
202.943	0.07
203.32	0
203.697	-0.11
204.073	-0.05
204.45	0.07
204.827	0.06
205.204	0.07
205.58	0.11
205.957	-0.06
206.334	-0.05
206.71	-0.08
207.087	0.11
207.464	-0.06
207.84	0.12
208.217	0.11
208.593	0.02
208.97	0.06
209.346	0.07
209.723	0.13
210.099	0.06
210.476	0.03
210.852	0.06
211.228	0.03
211.605	0.03
211.981	-0.01
212.357	0.02
212.733	0.04
213.11	-0.04
213.486	0.08
213.862	0.11
214.238	0.1
214.614	0.16
214.991	-0.1
215.367	0.08
215.743	0.09
216.119	0.08
216.495	0.13
216.871	0
217.247	0.03
217.623	-0.01
217.999	0.03
218.375	0.03
218.751	0.02
219.127	0.15
219.502	0.02
219.878	0.16
220.254	0.11
220.63	-0.11
221.006	0.16
221.381	-0
221.757	0.07
222.133	-0.04
222.508	-0.01
222.884	0.16
223.26	0.13
223.635	-0.04
224.011	0.06
224.386	0.03
224.762	0.14
225.137	-0.03
225.513	0.02
225.888	0.03
226.264	0.09
226.639	0.02
227.014	-0.03
227.39	0.04
227.765	-0.01
228.14	0.08
228.516	0.05
228.891	0.1
229.266	0.03
229.641	0.03
230.017	0.03
230.392	0.31
230.767	0.16
231.142	-0.07
231.517	0.09
231.892	0.04
232.267	0.03
232.642	0.08
233.017	0.06
233.392	0.01
233.767	-0.04
234.142	0.05
234.517	0.08
234.892	0.12
235.267	0.08
235.641	-0.06
236.016	0.1
236.391	-0.05
236.766	-0.03
237.14	0.05
237.515	0.01
237.89	0.09
238.264	0.01
238.639	0.05
239.014	0.08
239.388	0.15
239.763	0.08
240.137	0.06
240.512	0.02
240.886	0.06
241.261	-0.01
241.635	0.07
242.009	0.09
242.384	-0.02
242.758	0.08
243.132	-0.02
243.507	0.03
243.881	0.07
244.255	0.03
244.629	-0.03
245.004	-0.1
245.378	-0.03
245.752	0.06
246.126	-0.01
246.5	0.17
246.874	0.06
247.248	0.04
247.622	0.08
247.996	0.02
248.37	0.03
248.744	0.03
249.118	0.07
249.492	0.03
249.866	0.17
250.24	-0.02
250.613	0.1
250.987	0.1
251.361	0.02
251.735	0.07
252.108	0.1
252.482	0.12
252.856	0.12
253.229	0.02
253.603	0.02
253.977	0.06
254.35	0.06
254.724	0.06
255.097	0.09
255.471	0.09
255.844	0.13
256.218	0.07
256.591	0.13
256.964	0.06
257.338	-0
257.711	0.05
258.084	-0.02
258.458	0.06
258.831	0.04
259.204	0.07
259.577	0.17
259.95	0.08
260.323	0.1
260.697	0.06
261.07	-0.06
261.443	0.07
261.816	0.03
262.189	0.07
262.562	0.13
262.935	0.12
263.308	0.05
263.68	0.02
264.053	0.07
264.426	0.07
264.799	0.07
265.172	0.07
265.545	0.13
265.917	0
266.29	-0.01
266.663	0.05
267.035	0.1
267.408	-0.04
267.781	0.07
268.153	0.1
268.526	0.09
268.898	0.03
269.271	0.02
269.643	0.03
270.016	0.01
270.388	0.09
270.76	0.09
271.133	-0.05
271.505	0.1
271.877	0.08
272.25	0.02
272.622	0.08
272.994	-0.03
273.366	0.02
273.739	-0
274.111	0.05
274.483	-0.01
274.855	0.06
275.227	0.04
275.599	0.03
275.971	0.08
276.343	0.06
276.715	0.01
277.087	0.03
277.459	0.04
277.831	-0.03
278.203	0.01
278.574	0.13
278.946	0.12
279.318	0.15
279.69	-0.06
280.061	0.05
280.433	0.1
280.805	-0.03
281.176	0.16
281.548	0.01
281.92	0.13
282.291	0.05
282.663	0.08
283.034	0.07
283.406	0.01
283.777	0.08
284.148	0.07
284.52	0.09
284.891	0.03
285.262	0.05
285.634	0.06
286.005	0.04
286.376	0.06
286.747	0.02
287.119	0.06
287.49	0.04
287.861	0.01
288.232	0.01
288.603	0.05
288.974	0.16
289.345	0.07
289.716	0.07
290.087	0.1
290.458	0
290.829	0.02
291.2	0.01
291.571	0.01
291.941	0.04
292.312	0.04
292.683	0.04
293.054	0.07
293.424	0.05
293.795	0.04
294.166	0.04
294.536	0.05
294.907	0.08
295.277	0.03
295.648	0.07
296.018	0.04
296.389	0.05
296.759	0.03
297.13	0.08
297.5	0.02
297.871	0.01
298.241	0.04
298.611	0.01
298.981	0.02
299.352	0.02
299.722	0.02
300.092	0.02
300.462	0.01
300.832	0.04
301.202	0.02
301.573	0.01
301.943	0.02
302.313	0.03
302.683	0.04
303.053	0.02
303.422	0.02
303.792	0.03
304.162	0.02
304.532	0.03
304.902	0.02
305.272	0.02
305.641	0.02
306.011	0.02
306.381	0.02
306.75	0.02
307.12	0.03
307.49	0.03
307.859	0.02
308.229	0.02
308.598	0.02
308.968	0.02
309.337	0.01
309.707	0.03
310.076	0.01
310.445	0.01
310.815	0.02
311.184	0.02
311.553	0.02
311.923	0.02
312.292	0.02
312.661	0.02
313.03	0.02
313.399	0.02
313.768	0.02
314.137	0.03
314.506	0.02
314.875	0.02
315.244	0.02
315.613	0.03
315.982	0.02
316.351	0.02
316.72	0.01
317.089	0.03
317.458	0.02
317.826	0.02
318.195	0.02
318.564	0.03
318.933	0.02
319.301	0.02
319.67	0.02
320.038	0.02
320.407	0.02
320.775	0.01
321.144	0.02
321.512	0.02
321.881	0.02
322.249	0.02
322.618	0.02
322.986	0.02
323.354	0.02
323.723	0.02
324.091	0.02
324.459	0.01
324.827	0.01
325.195	0.02
325.564	0.02
325.932	0.02
326.3	0.01
326.668	0.02
327.036	0.02
327.404	0.02
327.772	0.02
328.14	0.02
328.508	0.01
328.875	0.02
329.243	0.02
329.611	0.02
329.979	0.01
330.346	0.02
330.714	0.01
331.082	0.02
331.449	0.02
331.817	0.02
332.185	0.01
332.552	0.02
332.92	0.02
333.287	0.03
333.655	0.03
334.022	0.02
334.389	0.02
334.757	0.02
335.124	0.02
335.491	0.02
335.859	0.02
336.226	0.02
336.593	0.02
336.96	0.02
337.327	0.03
337.695	0.02
338.062	0.02
338.429	0.02
338.796	0.03
339.163	0.02
339.53	0.02
339.897	0.02
340.263	0.02
340.63	0.02
340.997	0.03
341.364	0.02
341.731	0.02
342.097	0.02
342.464	0.02
342.831	0.02
343.197	0.02
343.564	0.02
343.931	0.03
344.297	0.02
344.664	0.02
345.03	0.03
345.396	0.02
345.763	0.03
346.129	0.02
346.496	0.03
346.862	0.02
347.228	0.03
347.594	0.03
347.961	0.03
348.327	0.03
348.693	0.03
349.059	0.03
349.425	0.03
349.791	0.03
350.157	0.03
350.523	0.03
350.889	0.03
351.255	0.03
351.621	0.03
351.987	0.03
352.353	0.03
352.719	0.04
353.084	0.03
353.45	0.03
353.816	0.03
354.181	0.03
354.547	0.03
354.913	0.03
355.278	0.03
355.644	0.04
356.009	0.04
356.375	0.04
356.74	0.04
357.106	0.04
357.471	0.04
357.836	0.04
358.202	0.04
358.567	0.04
358.932	0.04
359.297	0.04
359.663	0.04
360.028	0.04
360.393	0.04
360.758	0.05
361.123	0.05
361.488	0.04
361.853	0.05
362.218	0.05
362.583	0.05
362.948	0.05
363.312	0.05
363.677	0.05
364.042	0.05
364.407	0.05
364.772	0.05
365.136	0.05
365.501	0.05
365.865	0.05
366.23	0.06
366.595	0.05
366.959	0.06
367.324	0.05
367.688	0.06
368.052	0.06
368.417	0.05
368.781	0.06
369.145	0.06
369.51	0.06
369.874	0.06
370.238	0.06
370.602	0.06
370.967	0.06
371.331	0.06
371.695	0.06
372.059	0.06
372.423	0.06
372.787	0.06
373.151	0.06
373.515	0.06
373.878	0.06
374.242	0.06
374.606	0.06
374.97	0.06
375.334	0.06
375.697	0.07
376.061	0.06
376.425	0.06
376.788	0.06
377.152	0.07
377.515	0.06
377.879	0.06
378.242	0.06
378.606	0.06
378.969	0.06
379.333	0.06
379.696	0.07
380.059	0.06
380.422	0.07
380.786	0.07
381.149	0.07
381.512	0.08
381.875	0.07
382.238	0.07
382.601	0.08
382.964	0.08
383.327	0.08
383.69	0.08
384.053	0.09
384.416	0.08
384.779	0.09
385.142	0.09
385.504	0.09
385.867	0.09
386.23	0.1
386.593	0.1
386.955	0.1
387.318	0.09
387.68	0.09
388.043	0.09
388.405	0.09
388.768	0.09
389.13	0.09
389.493	0.09
389.855	0.09
390.217	0.09
390.58	0.09
390.942	0.09
391.304	0.1
391.666	0.09
392.028	0.1
392.391	0.1
392.753	0.1
393.115	0.1
393.477	0.11
393.839	0.11
394.201	0.11
394.563	0.12
394.924	0.12
395.286	0.12
395.648	0.13
396.01	0.13
396.371	0.14
396.733	0.14
397.095	0.14
397.456	0.14
397.818	0.14
398.18	0.14
398.541	0.14
398.903	0.14
399.264	0.13
399.625	0.13
399.987	0.12
400.348	0.11
400.709	0.11
401.071	0.11
401.432	0.1
401.793	0.1
402.154	0.09
402.515	0.09
402.876	0.08
403.238	0.08
403.599	0.07
403.96	0.07
404.32	0.06
404.681	0.06
405.042	0.05
405.403	0.05
405.764	0.05
406.125	0.05
406.485	0.04
406.846	0.05
407.207	0.04
407.567	0.04
407.928	0.04
408.288	0.03
408.649	0.03
409.009	0.04
409.37	0.03
409.73	0.03
410.091	0.03
410.451	0.04
410.811	0.03
411.171	0.03
411.532	0.03
411.892	0.03
412.252	0.03
412.612	0.03
412.972	0.03
413.332	0.03
413.692	0.03
414.052	0.04
414.412	0.03
414.772	0.03
415.132	0.02
415.492	0.03
415.851	0.03
416.211	0.03
416.571	0.03
416.931	0.03
417.29	0.03
417.65	0.02
418.009	0.02
418.369	0.02
418.728	0.03
419.088	0.02
419.447	0.02
419.807	0.02
420.166	0.03
420.525	0.02
420.884	0.03
421.244	0.02
421.603	0.02
421.962	0.02
422.321	0.03
422.68	0.02
423.039	0.02
423.398	0.02
423.757	0.03
424.116	0.02
424.475	0.02
424.834	0.03
425.193	0.02
425.551	0.02
425.91	0.03
426.269	0.02
426.628	0.02
426.986	0.02
427.345	0.03
427.703	0.03
428.062	0.02
428.42	0.02
428.779	0.01
429.137	0.03
429.496	0.02
429.854	0.02
430.212	0.02
430.57	0.02
430.929	0.03
431.287	0.02
431.645	0.03
432.003	0.02
432.361	0.02
432.719	0.03
433.077	0.03
433.435	0.02
433.793	0.02
434.151	0.02
434.509	0.03
434.866	0.02
435.224	0.02
435.582	0.03
435.94	0.02
436.297	0.02
436.655	0.02
437.012	0.02
437.37	0.03
437.727	0.02
438.085	0.02
438.442	0.02
438.8	0.03
439.157	0.02
439.514	0.02
439.872	0.02
440.229	0.02
440.586	0.02
440.943	0.02
441.3	0.02
441.657	0.02
442.014	0.01
442.371	0.01
442.728	0.02
443.085	0.02
443.442	0.02
443.799	0.02
444.156	0.02
444.513	0.02
444.869	0.02
445.226	0.02
445.583	0.02
445.939	0.02
446.296	0.02
446.652	0.02
447.009	0.03
447.365	0.01
447.722	0.02
448.078	0.02
448.434	0.02
448.791	0.01
449.147	0.02
449.503	0.02
449.859	0.02
450.215	0.01
450.571	0.01
450.928	0.01
451.284	0.02
451.64	0.02
451.995	0.02
452.351	0.02
452.707	0.02
453.063	0.01
453.419	0.02
453.775	0.01
454.13	0.01
454.486	0.02
454.842	0.01
455.197	0.01
455.553	0.01
455.908	0.01
456.264	0.01
456.619	0
456.975	0
457.33	0
457.685	0.01
458.04	0.01
458.396	0.01
458.751	-0.01
459.106	0.02
459.461	0.01
459.816	0.01
460.171	0.01
460.526	0.01
460.881	0
461.236	-0
461.591	-0
461.946	-0.01
462.301	-0.01
462.655	-0
463.01	-0
463.365	0
463.719	-0
464.074	-0.01
464.428	-0.01
464.783	-0.01
465.137	-0.01
465.492	-0.02
465.846	-0.01
466.201	-0.01
466.555	-0.01
466.909	-0.01
467.263	-0.01
467.618	-0.01
467.972	-0
468.326	-0.02
468.68	-0.01
469.034	-0.01
469.388	-0.01
469.742	-0.01
470.096	-0.01
470.45	-0.01
470.804	-0.01
471.157	-0.02
471.511	-0.01
471.865	-0.02
472.218	-0.01
472.572	-0.01
472.926	-0.01
473.279	-0.01
473.633	-0.01
473.986	-0
474.34	-0.01
474.693	-0.01
475.046	-0
475.4	0
475.753	-0
476.106	-0
476.459	-0
476.812	-0
477.165	-0
477.519	0
477.872	0.01
478.224	0.01
478.577	0.01
478.93	0.01
479.283	0.01
479.636	0.01
479.989	0.01
480.341	0.01
480.694	0.01
481.047	0.02
481.399	0.01
481.752	0.02
482.104	0.02
482.457	0.02
482.809	0.02
483.162	0.02
483.514	0.02
483.866	0.02
484.219	0.02
484.571	0.02
484.923	0.02
485.275	0.02
485.627	0.03
485.979	0.02
486.331	0.02
486.683	0.02
487.035	0.02
487.387	0.03
487.739	0.03
488.091	0.02
488.443	0.02
488.794	0.02
489.146	0.02
489.498	0.02
489.849	0.02
490.201	0.03
490.552	0.02
490.904	0.03
491.255	0.03
491.607	0.03
491.958	0.03
492.309	0.03
492.661	0.03
493.012	0.03
493.363	0.03
493.714	0.02
494.065	0.03
494.416	0.02
494.767	0.03
495.118	0.03
495.469	0.03
495.82	0.02
496.171	0.02
496.522	0.03
496.872	0.03
497.223	0.03
497.574	0.03
497.924	0.03
498.275	0.03
498.626	0.03
498.976	0.03
499.327	0.02
499.677	0.03
500.027	0.03
500.378	0.03
500.728	0.03
501.078	0.03
501.428	0.03
501.779	0.03
502.129	0.03
502.479	0.03
502.829	0.03
503.179	0.04
503.529	0.04
503.879	0.03
504.229	0.04
504.578	0.04
504.928	0.03
505.278	0.04
505.628	0.03
505.977	0.04
506.327	0.04
506.676	0.04
507.026	0.04
507.375	0.03
507.725	0.03
508.074	0.03
508.424	0.03
508.773	0.04
509.122	0.04
509.471	0.03
509.82	0.03
510.17	0.04
510.519	0.04
510.868	0.04
511.217	0.03
511.566	0.04
511.915	0.04
512.263	0.04
512.612	0.03
512.961	0.04
513.31	0.03
513.659	0.04
514.007	0.04
514.356	0.04
514.704	0.04
515.053	0.04
515.401	0.04
515.75	0.04
516.098	0.04
516.447	0.04
516.795	0.04
517.143	0.04
517.491	0.04
517.839	0.04
518.188	0.04
518.536	0.04
518.884	0.04
519.232	0.04
519.58	0.04
519.928	0.05
520.275	0.04
520.623	0.05
520.971	0.04
521.319	0.04
521.666	0.04
522.014	0.04
522.362	0.05
522.709	0.05
523.057	0.05
523.404	0.04
523.752	0.05
524.099	0.05
524.446	0.05
524.794	0.05
525.141	0.05
525.488	0.05
525.835	0.05
526.182	0.04
526.529	0.05
526.876	0.04
527.223	0.05
527.57	0.05
527.917	0.04
528.264	0.05
528.611	0.05
528.958	0.05
529.304	0.04
529.651	0.05
529.998	0.05
530.344	0.05
530.691	0.04
531.037	0.05
531.384	0.05
531.73	0.05
532.076	0.05
532.423	0.05
532.769	0.05
533.115	0.05
533.461	0.05
533.807	0.05
534.154	0.05
534.5	0.05
534.846	0.05
535.192	0.06
535.537	0.05
535.883	0.05
536.229	0.05
536.575	0.05
536.921	0.05
537.266	0.05
537.612	0.05
537.957	0.05
538.303	0.05
538.649	0.05
538.994	0.05
539.339	0.05
539.685	0.06
540.03	0.06
540.375	0.06
540.721	0.06
541.066	0.05
541.411	0.05
541.756	0.06
542.101	0.05
542.446	0.05
542.791	0.06
543.136	0.05
543.481	0.06
543.825	0.06
544.17	0.06
544.515	0.05
544.86	0.06
545.204	0.06
545.549	0.06
545.893	0.06
546.238	0.06
546.582	0.06
546.927	0.06
547.271	0.06
547.615	0.06
547.96	0.06
548.304	0.06
548.648	0.07
548.992	0.06
549.336	0.06
549.68	0.06
550.024	0.06
550.368	0.06
550.712	0.06
551.056	0.06
551.4	0.06
551.743	0.06
552.087	0.06
552.431	0.06
552.774	0.06
553.118	0.07
553.462	0.06
553.805	0.06
554.148	0.06
554.492	0.06
554.835	0.06
555.178	0.06
555.522	0.06
555.865	0.06
556.208	0.06
556.551	0.06
556.894	0.06
557.237	0.06
557.58	0.06
557.923	0.06
558.266	0.06
558.609	0.06
558.952	0.06
559.294	0.07
559.637	0.06
559.98	0.06
560.322	0.06
560.665	0.07
561.007	0.07
561.35	0.07
561.692	0.07
562.034	0.07
562.377	0.07
562.719	0.06
563.061	0.06
563.403	0.06
563.745	0.06
564.088	0.07
564.43	0.07
564.772	0.07
565.113	0.07
565.455	0.06
565.797	0.06
566.139	0.06
566.481	0.06
566.822	0.06
567.164	0.06
567.506	0.06
567.847	0.06
568.189	0.07
568.53	0.07
568.872	0.07
569.213	0.07
569.554	0.07
569.895	0.07
570.237	0.07
570.578	0.06
570.919	0.06
571.26	0.06
571.601	0.06
571.942	0.06
572.283	0.06
572.624	0.06
572.965	0.06
573.306	0.06
573.646	0.06
573.987	0.06
574.328	0.06
574.668	0.06
575.009	0.06
575.349	0.06
575.69	0.06
576.03	0.06
576.37	0.06
576.711	0.06
577.051	0.06
577.391	0.06
577.731	0.06
578.072	0.06
578.412	0.06
578.752	0.06
579.092	0.06
579.431	0.06
579.771	0.06
580.111	0.06
580.451	0.05
580.791	0.05
581.13	0.05
581.47	0.06
581.81	0.06
582.149	0.06
582.489	0.06
582.828	0.06
583.167	0.06
583.507	0.06
583.846	0.05
584.185	0.05
584.525	0.06
584.864	0.05
585.203	0.05
585.542	0.06
585.881	0.06
586.22	0.06
586.559	0.07
586.898	0.06
587.236	0.06
587.575	0.06
587.914	0.06
588.252	0.06
588.591	0.06
588.93	0.06
589.268	0.06
589.607	0.06
589.945	0.06
590.283	0.06
590.622	0.06
590.96	0.06
591.298	0.06
591.636	0.06
591.974	0.07
592.313	0.07
592.651	0.07
592.989	0.07
593.326	0.07
593.664	0.07
594.002	0.07
594.34	0.07
594.678	0.07
595.015	0.07
595.353	0.07
595.691	0.06
596.028	0.06
596.366	0.07
596.703	0.06
597.04	0.07
597.378	0.06
597.715	0.07
598.052	0.07
598.389	0.07
598.726	0.07
599.064	0.07
599.401	0.07
599.738	0.07
600.074	0.07
600.411	0.07
600.748	0.07
601.085	0.07
601.422	0.07
601.758	0.06
602.095	0.07
602.432	0.07
602.768	0.06
603.105	0.07
603.441	0.07
603.777	0.07
604.114	0.07
604.45	0.07
604.786	0.07
605.122	0.07
605.459	0.07
605.795	0.07
606.131	0.07
606.467	0.07
606.803	0.07
607.139	0.07
607.474	0.07
607.81	0.07
608.146	0.07
608.482	0.07
608.817	0.07
609.153	0.07
609.488	0.07
609.824	0.07
610.159	0.07
610.495	0.07
610.83	0.07
611.165	0.07
611.5	0.07
611.836	0.07
612.171	0.07
612.506	0.07
612.841	0.07
613.176	0.07
613.511	0.07
613.845	0.07
614.18	0.07
614.515	0.07
614.85	0.07
615.184	0.07
615.519	0.07
615.854	0.07
616.188	0.07
616.523	0.07
616.857	0.07
617.191	0.07
617.526	0.07
617.86	0.07
618.194	0.07
618.528	0.07
618.862	0.07
619.196	0.07
619.53	0.07
619.864	0.07
620.198	0.07
620.532	0.07
620.866	0.07
621.2	0.07
621.533	0.07
621.867	0.07
622.201	0.07
622.534	0.07
622.868	0.07
623.201	0.07
623.534	0.08
623.868	0.07
624.201	0.07
624.534	0.07
624.868	0.07
625.201	0.07
625.534	0.07
625.867	0.07
626.2	0.07
626.533	0.07
626.865	0.06
627.198	0.06
627.531	0.07
627.864	0.06
628.196	0.06
628.529	0.07
628.862	0.07
629.194	0.07
629.527	0.07
629.859	0.07
630.191	0.07
630.524	0.07
630.856	0.07
631.188	0.07
631.52	0.07
631.852	0.07
632.184	0.07
632.516	0.07
632.848	0.07
633.18	0.07
633.512	0.07
633.844	0.07
634.175	0.07
634.507	0.07
634.839	0.07
635.17	0.07
635.502	0.06
635.833	0.07
636.165	0.07
636.496	0.07
636.827	0.07
637.159	0.07
637.49	0.07
637.821	0.06
638.152	0.07
638.483	0.07
638.814	0.07
639.145	0.07
639.476	0.07
639.807	0.06
640.137	0.06
640.468	0.07
640.799	0.06
641.129	0.06
641.46	0.06
641.791	0.06
642.121	0.06
642.451	0.06
642.782	0.06
643.112	0.06
643.442	0.06
643.773	0.06
644.103	0.06
644.433	0.06
644.763	0.07
645.093	0.07
645.423	0.07
645.753	0.07
646.082	0.07
646.412	0.07
646.742	0.07
647.072	0.07
647.401	0.07
647.731	0.06
648.06	0.06
648.39	0.06
648.719	0.07
649.048	0.07
649.378	0.07
649.707	0.06
650.036	0.06
650.365	0.06
650.694	0.06
651.023	0.06
651.352	0.06
651.681	0.06
652.01	0.06
652.339	0.06
652.668	0.06
652.996	0.07
653.325	0.06
653.654	0.06
653.982	0.06
654.311	0.06
654.639	0.06
654.967	0.06
655.296	0.07
655.624	0.07
655.952	0.06
656.28	0.06
656.609	0.06
656.937	0.07
657.265	0.07
657.593	0.07
657.92	0
658.248	0
658.576	-0
658.904	0.03
659.231	0.04
659.559	0.04
659.887	0.05
660.214	0.06
660.542	0.06
660.869	0.06
661.196	0.06
661.524	0.06
661.851	0.06
662.178	0.07
662.505	0.06
662.832	0.06
663.159	0.06
663.486	0.06
663.813	0.06
664.14	0.07
664.467	0.07
664.794	0.07
665.12	0.07
665.447	0.06
665.774	0.07
666.1	0.06
666.427	0.06
666.753	0.06
667.079	0.07
667.406	0.06
667.732	0.06
668.058	0.06
668.384	0.06
668.71	0.07
669.036	0.07
669.362	0.07
669.688	0.07
670.014	0.07
670.34	0.06
670.666	0.07
670.991	0.06
671.317	0.06
671.643	0.07
671.968	0.06
672.294	0.06
672.619	0.07
672.945	0.07
673.27	0.07
673.595	0.07
673.92	0.07
674.246	0.07
674.571	0.07
674.896	0.07
675.221	0.07
675.546	0.07
675.87	0.07
676.195	0.06
676.52	0.06
676.845	0.06
677.169	0.06
677.494	0.06
677.819	0.06
678.143	0.06
678.468	0.06
678.792	0.06
679.116	0.07
679.44	0.07
679.765	0.07
680.089	0.07
680.413	0.06
680.737	0.07
681.061	0.06
681.385	0.06
681.709	0.06
682.033	0.06
682.356	0.06
682.68	0.06
683.004	0.06
683.327	0.06
683.651	0.06
683.974	0.06
684.298	0.06
684.621	0.06
684.944	0.06
685.268	0.06
685.591	0.06
685.914	0.06
686.237	0.06
686.56	0.06
686.883	0.06
687.206	0.05
687.529	0.06
687.852	0.06
688.175	0.06
688.497	0.06
688.82	0.06
689.142	0.06
689.465	0.06
689.787	0.06
690.11	0.06
690.432	0.06
690.755	0.06
691.077	0.06
691.399	0.06
691.721	0.06
692.043	0.06
692.365	0.06
692.687	0.06
693.009	0.06
693.331	0.06
693.653	0.05
693.974	0.06
694.296	0.06
694.618	0.06
694.939	0.06
695.261	0.06
695.582	0.06
695.904	0.06
696.225	0.06
696.546	0.07
696.868	0.06
697.189	0.07
697.51	0.06
697.831	0.06
698.152	0.06
698.473	0.06
698.794	0.06
699.114	0.06
699.435	0.06
699.756	0.06
700.077	0.06
700.397	0.06
700.718	0.06
701.038	0.06
701.359	0.06
701.679	0.06
701.999	0.06
702.32	0.06
702.64	0.06
702.96	0.06
703.28	0.06
703.6	0.06
703.92	0.06
704.24	0.05
704.56	0.05
704.879	0.06
705.199	0.06
705.519	0.06
705.838	0.05
706.158	0.06
706.478	0.06
706.797	0.06
707.116	0.06
707.436	0.06
707.755	0.06
708.074	0.06
708.393	0.06
708.712	0.06
709.031	0.06
709.35	0.05
709.669	0.05
709.988	0.05
710.307	0.05
710.626	0.06
710.944	0.06
711.263	0.05
711.582	0.05
711.9	0.05
712.219	0.05
712.537	0.06
712.855	0.06
713.174	0.05
713.492	0.06
713.81	0.06
714.128	0.06
714.446	0.06
714.764	0.06
715.082	0.06
715.4	0.06
715.718	0.06
716.035	0.06
716.353	0.06
716.671	0.06
716.988	0.06
717.306	0.06
717.623	0.06
717.941	0.06
718.258	0.06
718.575	0.06
718.893	0.06
719.21	0.06
719.527	0.06
719.844	0.06
720.161	0.06
720.478	0.06
720.795	0.06
721.112	0.06
721.428	0.06
721.745	0.06
722.062	0.06
722.378	0.06
722.695	0.06
723.011	0.06
723.328	0.06
723.644	0.06
723.96	0.06
724.276	0.06
724.593	0.06
724.909	0.05
725.225	0.05
725.541	0.05
725.857	0.05
726.173	0.05
726.488	0.06
726.804	0.06
727.12	0.06
727.435	0.06
727.751	0.06
728.067	0.06
728.382	0.07
728.697	0.06
729.013	0.06
729.328	0.07
729.643	0.06
729.958	0.06
730.273	0.06
730.588	0.06
730.903	0.06
731.218	0.06
731.533	0.06
731.848	0.06
732.163	0.06
732.477	0.06
732.792	0.05
733.107	0.06
733.421	0.06
733.736	0.06
734.05	0.06
734.364	0.07
734.678	0.06
734.993	0.06
735.307	0.06
735.621	0.07
735.935	0.06
736.249	0.06
736.563	0.06
736.877	0.06
737.19	0.06
737.504	0.06
737.818	0.06
738.131	0.06
738.445	0.07
738.758	0.07
739.072	0.06
739.385	0.07
739.698	0.06
740.012	0.07
740.325	0.07
740.638	0.07
740.951	0.07
741.264	0.06
741.577	0.06
741.89	0.06
742.203	0.06
742.515	0.05
742.828	0.06
743.141	0.06
743.453	0.06
743.766	0.06
744.078	0.06
744.391	0.06
744.703	0.06
745.015	0.06
745.327	0.06
745.639	0.06
745.952	0.06
746.264	0.06
746.575	0.07
746.887	0.07
747.199	0.07
747.511	0.07
747.823	0.07
748.134	0.06
748.446	0.06
748.757	0.06
749.069	0.06
749.38	0.06
749.692	0.07
750.003	0.07
750.314	0.07
750.625	0.07
750.936	0.06
751.248	0.06
751.559	0.06
751.869	0.06
752.18	0.06
752.491	0.06
752.802	0.06
753.112	0.06
753.423	0.06
753.734	0.06
754.044	0.06
754.355	0.06
754.665	0.06
754.975	0.06
755.285	0.06
755.596	0.06
755.906	0.06
756.216	0.06
756.526	0.06
756.836	0.06
757.146	0.06
757.455	0.06
757.765	0.06
758.075	0.06
758.385	0.06
758.694	0.06
759.004	0.06
759.313	0.06
759.622	0.06
759.932	0.06
760.241	0.06
760.55	0.06
760.859	0.06
761.168	0.06
761.477	0.06
761.786	0.06
762.095	0.06
762.404	0.06
762.713	0.06
763.021	0.05
763.33	0.06
763.639	0.06
763.947	0.06
764.256	0.05
764.564	0.05
764.872	0.05
765.181	0.05
765.489	0.05
765.797	0.05
766.105	0.05
766.413	0.05
766.721	0.06
767.029	0.05
767.337	0.06
767.644	0.06
767.952	0.05
768.26	0.05
768.567	0.06
768.875	0.06
769.182	0.06
769.49	0.06
769.797	0.06
770.104	0.05
770.411	0.05
770.718	0.06
771.026	0.06
771.333	0.06
771.639	0.06
771.946	0.07
772.253	0.07
772.56	0.06
772.867	0.06
773.173	0.06
773.48	0.06
773.786	0.06
774.093	0.06
774.399	0.06
774.705	0.06
775.012	0.06
775.318	0.05
775.624	0.06
775.93	0.06
776.236	0.05
776.542	0.05
776.848	0.06
777.154	0.06
777.459	0.06
777.765	0.06
778.071	0.06
778.376	0.06
778.682	0.06
778.987	0.06
779.292	0.05
779.598	0.05
779.903	0.05
780.208	0.05
780.513	0.06
780.818	0.06
781.123	0.06
781.428	0.06
781.733	0.05
782.038	0.05
782.343	0.05
782.647	0.06
782.952	0.06
783.256	0.06
783.561	0.06
783.865	0.06
784.17	0.06
784.474	0.06
784.778	0.06
785.082	0.06
785.386	0.06
785.69	0.05
785.994	0.05
786.298	0.05
786.602	0.05
786.906	0.05
787.209	0.05
787.513	0.05
787.817	0.05
788.12	0.05
788.424	0.05
788.727	0.05
789.03	0.05
789.333	0.04
789.637	0.04
789.94	0.04
790.243	0.04
790.546	0.04
790.849	0.04
791.152	0.04
791.454	0.04
791.757	0.05
792.06	0.04
792.362	0.05
792.665	0.05
792.967	0.05
793.27	0.05
793.572	0.05
793.874	0.05
794.177	0.05
794.479	0.05
794.781	0.05
795.083	0.05
795.385	0.04
795.687	0.04
795.989	0.04
796.29	0.05
796.592	0.04
796.894	0.04
797.195	0.04
797.497	0.04
797.798	0.04
798.1	0.04
798.401	0.04
798.702	0.04
799.003	0.05
799.304	0.05
799.605	0.05
799.906	0.04
800.207	0.04
800.508	0.04
800.809	0.04
801.11	0.05
801.41	0.04
801.711	0.04
802.011	0.05
802.312	0.04
802.612	0.04
802.913	0.05
803.213	0.05
803.513	0.05
803.813	0.04
804.113	0.04
804.413	0.04
804.713	0.04
805.013	0.04
805.313	0.04
805.613	0.04
805.912	0.04
806.212	0.04
806.511	0.04
806.811	0.04
807.11	0.04
807.41	0.04
807.709	0.04
808.008	0.04
808.307	0.04
808.606	0.04
808.905	0.04
809.204	0.04
809.503	0.04
809.802	0.04
810.101	0.04
810.399	0.04
810.698	0.04
810.997	0.04
811.295	0.05
811.593	0.04
811.892	0.05
812.19	0.04
812.488	0.04
812.786	0.05
813.084	0.04
813.383	0.05
813.68	0.05
813.978	0.05
814.276	0.05
814.574	0.04
814.872	0.05
815.169	0.04
815.467	0.04
815.764	0.04
816.062	0.04
816.359	0.03
816.656	0.03
816.954	0.04
817.251	0.04
817.548	0.03
817.845	0.03
818.142	0.03
818.439	0.03
818.735	0.04
819.032	0.04
819.329	0.03
819.626	0.03
819.922	0.03
820.219	0.02
820.515	0.03
820.811	0.03
821.108	0.02
821.404	0.04
821.7	0.03
821.996	0.03
822.292	0.03
822.588	0.03
822.884	0.03
823.18	0.04
823.475	0.03
823.771	0.03
824.067	0.03
824.362	0.03
824.658	0.03
824.953	0.03
825.249	0.03
825.544	0.04
825.839	0.04
826.134	0.02
826.429	0.03
826.724	0.04
827.019	0.04
827.314	0.04
827.609	0.04
827.904	0.02
828.198	0.03
828.493	0.02
828.787	0.03
829.082	0.03
829.376	0.02
829.671	0.02
829.965	0.02
830.259	0.03
830.553	0.02
830.847	0.02
831.141	0.02
831.435	0.02
831.729	0.01
832.023	0.02
832.317	0.02
832.61	0.01
832.904	0.01
833.197	0.01
833.491	0.02
833.784	0.02
834.077	0.01
834.371	0.01
834.664	0.02
834.957	0.01
835.25	0.01
835.543	0.02
835.836	0.02
836.129	0.01
836.421	0.02
836.714	0.03
837.007	0.03
837.299	0.03
837.592	0.02
837.884	0.02
838.177	0.01
838.469	0.02
838.761	0.01
839.053	0.01
839.345	0.01
839.637	0.02
839.929	0
840.221	0.01
840.513	0
840.805	0.01
841.096	0
841.388	-0
841.68	0.02
841.971	0.02
842.262	0.01
842.554	0.02
842.845	0.01
843.136	-0.01
843.427	0.01
843.718	0.01
844.009	0
844.3	0
844.591	0
844.882	0.01
845.173	-0
845.463	0.01
845.754	-0.01
846.044	-0
846.335	-0.01
846.625	-0.01
846.915	0.01
847.206	0.01
847.496	0.01
847.786	0.01
848.076	0.01
848.366	0.01
848.656	0.01
848.945	-0.01
849.235	0.01
849.525	0
849.814	-0.01
850.104	-0.01
850.393	-0
850.683	0.01
850.972	0
851.261	-0.01
851.551	0
851.84	0
852.129	0.01
852.418	0.01
852.707	0.01
852.995	-0.01
853.284	-0.02
853.573	-0
853.862	0.01
854.15	0.01
854.439	0
854.727	-0.01
855.015	0.01
855.304	0.01
855.592	-0.01
855.88	-0.03
856.168	-0.02
856.456	-0
856.744	0.02
857.032	-0.02
857.32	-0.01
857.607	-0.01
857.895	-0.01
858.183	-0.02
858.47	0.02
858.757	0.01
859.045	0.02
859.332	0.02
859.619	0.02
859.907	-0
860.194	0.01
860.481	-0.03
860.768	-0.02
861.054	0.02
861.341	-0
861.628	-0.04
861.915	-0.01
862.201	-0.01
862.488	-0.05
862.774	-0.02
863.061	-0.01
863.347	-0.01
863.633	-0.01
863.919	-0.02
864.205	-0.02
864.491	-0.02
864.777	-0.01
865.063	0
865.349	0.02
865.635	0.03
865.92	0.02
866.206	0.03
866.492	-0.01
866.777	-0.04
867.062	-0
867.348	-0.06
867.633	-0.03
867.918	-0.04
868.203	-0.02
868.488	-0.04
868.773	-0.03
869.058	0
869.343	-0.1
869.628	-0.02
869.912	-0.06
870.197	0
870.482	-0.08
870.766	-0.07
871.05	0.08
871.335	-0.05
871.619	0.04
871.903	-0.04
872.187	0.01
872.471	-0
872.755	-0.09
873.039	0.05
873.323	-0.08
873.607	-0.03
873.89	-0.1
874.174	-0.06
874.458	-0.04
874.741	0.16
875.024	0.03
875.308	-0.03
875.591	-0.06
875.874	-0.06
876.157	0.11
876.44	0.08
876.723	-0.02
877.006	-0.06
877.289	-0.08
877.572	-0
877.854	0.08
878.137	0.05
878.42	0.01
878.702	0.01
878.984	0.03
879.267	0.13
879.549	-0.22
879.831	0.01
880.113	0.15
880.395	0.09
880.677	0.16
880.959	0.08
